Trial 1:0back
35.596
35.656
35.721
35.788
35.857
35.925
35.991
36.055
36.115
36.17
36.22
36.265
36.304
36.339
36.369
36.394
36.414
36.429
36.438
36.439
36.433
36.419
36.397
36.363
36.319
36.261
36.192
36.112
36.021
35.922
35.817
35.707
35.594
35.479
35.364
35.248
35.133
35.019
34.907
34.797
34.689
34.585
34.483
34.384
34.289
34.196
34.105
34.017
33.931
33.848
33.768
33.69
33.615
33.542
33.47
33.4
33.332
33.264
33.196
33.13
33.065
33.002
32.942
32.885
32.831
32.78
32.734
32.69
32.649
32.61
32.574
32.54
32.51
32.483
32.461
32.444
32.432
32.424
32.421
32.422
32.426
32.435
32.447
32.463
32.482
32.503
32.527
32.552
32.578
32.603
32.627
32.648
32.667
32.681
32.691
32.696
32.696
32.691
32.68
32.664
32.644
32.619
32.592
32.563
32.533
32.502
32.473
32.447
32.422
32.399
32.377
32.355
32.333
32.309
32.284
32.257
32.227
32.195
32.16
32.123
32.085
32.045
32.003
31.961
31.917
31.873
31.828
31.784
31.741
31.7
31.664
31.634
31.615
31.609
31.621
31.654
31.713
31.803
31.926
32.088
32.291
32.54
32.835
33.176
33.561
33.987
34.449
34.941
35.455
35.985
36.52
37.054
37.577
38.082
38.561
39.009
39.421
39.794
40.125
40.414
40.66
40.864
41.028
41.154
41.245
41.303
41.334
41.339
41.322
41.287
41.237
41.177
41.107
41.029
40.947
40.86
40.771
40.677
40.579
40.477
40.37
40.258
40.141
40.021
39.897
39.771
39.643
39.513
39.383
39.254
39.125
38.996
38.867
38.737
38.606
38.475
38.344
38.212
38.08
37.948
37.814
37.681
37.547
37.415
37.286
37.161
37.043
36.933
36.835
36.75
36.68
36.624
36.584
36.559
36.547
36.548
36.56
36.582
36.611
36.645
36.681
36.719
36.755
36.788
36.819
36.845
36.868
36.886
36.899
36.91
36.917
36.923
36.925
36.923
36.915
36.902
36.883
36.861
36.834
36.803
36.768
36.727
36.679
36.626
36.565
36.497
36.422
36.34
36.252
36.16
36.064
35.964
35.861
35.757
35.651
35.544
35.436
35.328
35.22
35.114
35.008
34.903
34.8
34.699
34.599
34.503
34.408
34.316
34.226
34.14
34.058
33.981
33.908
33.841
33.78
33.723
33.673
33.626
33.584
33.545
33.509
33.476
33.447
33.422
33.401
33.382
33.367
33.353
33.34
33.328
33.316
33.304
33.291
33.279
33.266
33.254
33.244
33.236
33.231
33.227
33.226
33.225
33.224
33.224
33.223
33.222
33.221
33.219
33.216
33.212
33.206
33.2
33.193
33.186
33.179
33.171
33.162
33.153
33.142
33.13
33.116
33.1
33.08
33.057
33.03
32.997
32.96
32.918
32.872
32.821
32.767
32.71
32.651
32.591
32.53
32.469
32.408
32.349
32.294
32.244
32.199
32.161
32.129
32.107
32.096
32.099
32.12
32.161
32.228
32.325
32.457
32.625
32.834
33.085
33.377
33.71
34.08
34.483
34.913
35.363
35.826
36.293
36.757
37.209
37.644
38.054
38.435
38.782
39.093
39.366
39.6
39.797
39.958
40.085
40.18
40.248
40.291
40.313
40.317
40.306
40.283
40.251
40.21
40.161
40.106
40.045
39.978
39.904
39.824
39.738
39.645
39.545
39.438
39.325
39.206
39.082
38.955
38.826
38.696
38.566
38.435
38.304
38.172
38.04
37.907
37.775
37.644
37.515
37.387
37.262
37.139
37.02
36.905
36.794
36.689
36.589
36.496
36.41
36.333
36.265
36.206
36.156
36.116
36.084
36.061
36.047
36.041
36.041
36.048
36.061
36.079
36.102
36.128
36.157
36.188
36.219
36.25
36.28
36.309
36.336
36.36
36.38
36.396
36.406
36.409
36.406
36.397
36.38
36.358
36.328
36.293
36.253
36.207
36.155
36.097
36.034
35.966
35.892
35.812
35.727
35.638
35.545
35.449
35.352
35.255
35.16
35.066
34.974
34.885
34.798
34.715
34.634
34.558
34.484
34.414
34.347
34.282
34.221
34.162
34.106
34.053
34.001
33.95
33.9
33.851
33.802
33.756
33.712
33.669
33.629
33.59
33.551
33.512
33.472
33.434
33.397
33.364
33.333
33.305
33.28
33.257
33.235
33.215
33.195
33.176
33.158
33.142
33.126
33.112
33.1
33.09
33.082
33.077
33.074
33.074
33.077
33.081
33.087
33.094
33.102
33.109
33.115
33.119
33.121
33.12
33.116
33.109
33.1
33.088
33.073
33.056
33.036
33.014
32.989
32.962
32.933
32.902
32.869
32.833
32.796
32.756
32.714
32.67
32.626
32.581
32.535
32.49
32.445
32.402
32.359
32.317
32.276
32.237
32.201
32.168
32.14
32.118
32.104
32.101
32.113
32.143
32.195
32.274
32.383
32.527
32.707
32.924
33.178
33.466
33.785
34.13
34.498
34.881
35.275
35.674
36.071
36.462
36.839
37.199
37.538
37.852
38.139
38.396
38.623
38.82
38.987
39.124
39.233
39.314
39.37
39.402
39.413
39.404
39.378
39.337
39.282
39.215
39.138
39.052
38.959
38.861
38.757
38.651
38.542
38.431
38.319
38.206
38.093
37.98
37.866
37.753
37.639
37.525
37.409
37.293
37.176
37.058
36.937
36.814
36.689
36.562
36.433
36.304
36.174
36.045
35.919
35.796
35.68
35.571
35.472
35.386
35.314
35.259
35.22
35.198
35.191
35.198
35.22
35.253
35.298
35.352
35.413
35.48
35.551
35.624
35.697
35.77
35.841
35.908
35.971
36.027
36.076
36.118
36.152
36.176
36.192
36.199
36.197
36.187
36.17
36.145
36.112
36.072
36.025
35.972
35.915
35.854
35.791
35.726
35.66
35.595
35.531
35.467
35.404
35.34
35.276
35.211
35.145
35.078
35.01
34.942
34.871
34.799
34.726
34.65
34.573
34.495
34.416
34.337
34.259
34.182
34.106
34.032
33.96
33.892
33.825
33.762
33.702
33.645
33.593
33.545
33.501
33.461
33.427
33.397
33.372
33.353
33.338
33.328
33.322
33.32
33.322
33.327
33.334
33.343
33.352
33.362
33.372
33.381
33.389
33.396
33.401
33.404
33.406
33.406
33.404
33.402
33.398
33.394
33.389
33.384
33.377
33.369
33.359
33.347
33.333
33.319
33.304
33.289
33.275
33.262
33.25
33.241
33.233
33.227
33.22
33.211
33.199
33.185
33.166
33.144
33.118
33.087
33.053
33.014
32.972
32.927
32.878
32.828
32.775
32.723
32.67
32.62
32.574
32.535
32.504
32.482
32.472
32.478
32.5
32.544
32.611
32.706
32.832
32.992
33.186
33.415
33.678
33.973
34.299
34.653
35.03
35.424
35.827
36.233
36.635
37.024
37.396
37.745
38.068
38.36
38.621
38.849
39.046
39.211
39.345
39.452
39.531
39.586
39.62
39.634
39.631
39.614
39.584
39.544
39.494
39.436
39.37
39.298
39.22
39.138
39.05
38.959
38.866
38.771
38.675
38.578
38.48
38.381
38.282
38.183
38.083
37.983
37.882
37.778
37.673
37.565
37.454
37.342
37.228
37.113
36.998
36.884
36.771
36.66
36.552
36.449
36.35
36.258
36.173
36.098
36.034
35.981
35.939
35.909
35.89
35.88
35.879
35.887
35.903
35.925
35.953
35.985
36.021
36.059
36.099
36.138
36.176
36.213
36.247
36.279
36.308
36.334
36.358
36.377
36.393
36.405
36.412
36.415
36.413
36.407
36.397
36.382
36.362
36.337
36.306
36.269
36.227
36.179
36.127
36.069
36.007
35.941
35.871
35.797
35.72
35.64
35.557
35.473
35.388
35.302
35.216
35.131
35.047
34.965
34.886
34.81
34.738
34.669
34.606
34.546
34.491
34.44
34.392
34.347
34.303
34.261
34.221
34.181
34.142
34.102
34.063
34.026
33.99
33.957
33.926
33.896
33.868
33.841
33.816
33.793
33.771
33.751
33.732
33.714
33.697
33.68
33.664
33.65
33.637
33.627
33.618
33.612
33.608
33.606
33.606
33.608
33.612
33.618
33.625
33.633
33.642
33.652
33.661
33.669
33.674
33.678
33.678
33.674
33.667
33.656
33.642
33.624
33.604
33.581
33.555
33.527
33.495
33.462
33.425
33.387
33.348
33.307
33.264
33.222
33.179
33.138
33.097
33.059
33.024
32.991
32.961
32.935
32.912
32.894
32.88
32.872
32.872
32.881
32.904
32.943
33.001
33.081
33.187
33.32
33.484
33.68
33.906
34.164
34.45
34.762
35.095
35.446
35.807
36.173
36.539
36.9
37.252
37.591
37.913
38.215
38.495
38.748
38.975
39.173
39.343
39.484
39.599
39.687
39.749
39.789
39.806
39.805
39.787
39.755
39.711
39.657
39.594
39.524
39.448
39.368
39.283
39.195
39.104
39.012
38.919
38.826
38.734
38.643
38.553
38.464
38.376
38.289
38.201
38.114
38.025
37.936
37.847
37.758
37.668
37.578
37.487
37.393
37.297
37.2
37.101
37.002
36.903
36.806
36.712
36.621
36.535
36.456
36.385
36.322
36.269
36.226
36.194
36.172
36.161
36.159
36.167
36.183
36.207
36.236
36.27
36.306
36.343
36.38
36.416
36.45
36.481
36.509
36.533
36.551
36.565
36.573
36.575
36.571
36.561
36.544
36.522
36.493
36.46
36.422
36.379
36.333
36.284
36.232
36.178
36.122
36.064
36.005
35.945
35.883
35.821
35.757
35.691
35.625
35.557
35.488
35.417
35.344
35.27
35.195
35.12
35.047
34.976
34.908
34.843
34.78
34.719
34.66
34.602
34.545
34.487
34.429
34.37
34.311
34.253
34.196
34.141
34.089
34.04
33.996
33.957
33.922
33.892
33.866
33.844
33.827
33.813
33.802
33.795
33.789
33.785
33.781
33.776
33.77
33.763
33.754
33.744
33.731
33.716
33.697
33.676
33.651
33.626
33.599
33.57
33.543
33.516
33.493
33.473
33.458
33.448
33.441
33.437
33.435
33.435
33.436
33.437
33.438
33.438
33.436
33.433
33.428
33.422
33.413
33.402
33.389
33.372
33.352
33.328
33.299
33.266
33.228
33.186
33.138
33.087
33.032
32.976
32.919
32.862
32.807
32.753
32.701
32.651
32.605
32.562
32.524
32.492
32.468
32.453
32.451
32.464
32.497
32.553
32.636
32.749
32.894
33.073
33.287
33.533
33.811
34.116
34.446
34.794
35.156
35.526
35.897
36.264
36.62
36.961
37.282
37.58
37.853
38.098
38.316
38.507
38.672
38.811
38.925
39.017
39.087
39.137
39.169
39.183
39.183
39.168
39.142
39.106
39.062
39.01
38.95
38.884
38.811
38.733
38.648
38.559
38.464
38.366
38.264
38.16
38.054
37.946
37.837
37.728
37.618
37.508
37.4
37.292
37.184
37.079
36.974
36.871
36.769
36.669
36.572
36.477
36.386
36.299
36.214
36.132
36.053
35.977
35.905
35.837
35.775
35.719
35.671
35.633
35.604
35.584
35.573
35.571
35.578
35.592
35.612
35.638
35.67
35.706
35.746
35.788
35.832
35.876
35.921
35.965
36.01
36.053
36.093
36.127
36.156
36.177
36.191
36.197
36.195
36.185
36.166
36.14
36.106
36.065
36.019
35.968
35.914
35.854
35.791
35.723
35.651
35.576
35.497
35.416
35.333
35.25
35.167
35.086
35.006
34.929
34.855
34.785
34.719
34.656
34.597
34.542
34.49
34.441
34.395
34.35
34.306
34.262
34.219
34.177
34.134
34.091
34.048
34.005
33.963
33.921
33.88
33.838
33.796
33.752
33.709
33.668
33.629
33.594
33.563
33.536
33.515
33.499
33.487
33.481
33.479
33.481
33.486
33.494
33.503
33.515
33.528
33.541
33.554
33.566
33.576
33.584
33.589
33.591
33.59
33.587
33.582
33.576
33.569
33.561
33.552
33.541
33.528
33.512
33.494
33.474
33.452
33.429
33.405
33.381
33.356
33.333
33.311
33.291
33.271
33.251
33.23
33.207
33.181
33.152
33.119
33.083
33.043
33.001
32.956
32.909
32.861
32.811
32.761
32.711
32.661
32.612
32.567
32.525
32.489
32.461
32.444
32.439
32.451
32.483
32.537
32.618
32.727
32.868
33.041
33.247
33.486
33.757
34.056
34.381
34.726
35.086
35.456
35.83
36.202
36.565
36.915
37.246
37.554
37.836
38.089
38.311
38.501
38.659
38.787
38.886
38.957
39.004
39.029
39.034
39.023
38.997
38.961
38.915
38.862
38.802
38.737
38.667
38.593
38.515
38.434
38.35
38.262
38.169
38.07
37.965
37.856
37.742
37.626
37.51
37.397
37.287
37.18
37.075
36.971
36.866
36.759
36.65
36.538
36.424
36.309
36.194
36.08
35.968
35.861
35.761
35.669
35.585
35.512
35.45
35.399
35.36
35.333
35.318
35.314
35.321
35.338
35.362
35.394
35.43
35.471
35.515
35.561
35.609
35.657
35.705
35.751
35.794
35.835
35.87
35.903
35.931
35.955
35.973
35.986
35.993
35.994
35.989
35.979
35.965
35.947
35.924
35.898
35.868
35.834
35.797
35.758
35.715
35.669
35.62
35.569
35.513
35.452
35.386
35.316
35.243
35.165
35.084
35.001
34.916
34.83
34.745
34.662
34.581
34.502
34.426
34.354
34.286
34.223
34.163
34.107
34.055
34.007
33.962
33.917
33.871
33.824
33.777
33.73
33.684
33.64
33.599
33.559
33.52
33.479
33.44
33.406
33.378
33.358
33.347
33.347
33.355
33.371
33.391
33.414
33.436
33.457
33.475
33.489
33.498
33.502
33.502
33.498
33.49
33.48
33.468
33.454
33.439
33.425
33.412
33.401
33.391
33.383
33.376
33.371
33.368
33.367
33.367
33.368
33.368
33.367
33.363
33.357
33.347
33.333
33.316
33.295
33.271
33.245
33.218
33.189
33.158
33.127
33.096
33.064
33.032
33.001
32.971
32.942
32.915
32.89
32.868
32.847
32.828
32.811
32.794
32.777
32.758
32.735
32.706
32.671
32.63
32.584
32.534
32.482
32.43
32.381
32.337
32.301
32.275
32.264
32.273
32.305
32.366
32.46
32.591
32.761
32.973
33.225
33.517
33.847
34.209
34.598
35.009
35.434
35.867
36.3
36.725
37.136
37.528
37.894
38.232
38.538
38.81
39.047
39.249
39.416
39.551
39.655
39.732
39.783
39.813
39.823
39.817
39.796
39.762
39.719
39.667
39.608
39.545
39.477
39.406
39.331
39.253
39.171
39.085
38.995
38.901
38.805
38.708
38.61
38.512
38.415
38.319
38.224
38.129
38.034
37.939
37.843
37.747
37.648
37.549
37.449
37.348
37.247
37.147
37.048
36.951
36.856
36.765
36.678
36.595
36.518
36.447
36.385
36.33
36.285
36.25
36.227
36.215
36.214
36.222
36.237
36.257
36.28
36.307
36.336
36.364
36.392
36.418
36.442
36.462
36.48
36.494
36.506
36.514
36.52
36.524
36.527
36.529
36.53
36.531
36.529
36.525
36.517
36.504
36.486
36.462
36.431
36.395
36.352
36.304
36.25
36.191
36.126
36.056
35.982
35.905
35.825
35.743
35.659
35.575
35.489
35.404
35.32
35.237
35.158
35.082
35.01
34.941
34.874
34.809
34.744
34.68
34.617
34.554
34.491
34.43
34.371
34.313
34.257
34.203
34.151
34.101
34.053
34.007
33.964
33.922
33.883
33.845
33.809
33.775
33.743
33.712
33.683
33.656
33.631
33.606
33.584
33.563
33.545
33.528
33.515
33.504
33.498
33.496
33.496
33.498
33.502
33.507
33.511
33.515
33.516
33.516
33.514
33.511
33.507
33.502
33.496
33.489
33.482
33.473
33.462
33.45
33.435
33.417
33.397
33.374
33.348
33.321
33.291
33.261
33.229
33.196
33.163
33.129
33.095
33.06
33.026
32.993
32.958
32.924
32.89
32.857
32.826
32.797
32.769
32.743
32.715
32.687
32.656
32.623
32.587
32.549
32.51
32.472
32.437
32.409
32.391
32.386
32.4
32.436
32.5
32.595
32.725
32.894
33.101
33.349
33.635
33.957
34.312
34.693
35.094
35.51
35.932
36.355
36.77
37.172
37.555
37.914
38.246
38.547
38.815
39.05
39.253
39.426
39.569
39.684
39.772
39.834
39.87
39.882
39.872
39.843
39.799
39.742
39.676
39.602
39.524
39.442
39.358
39.271
39.182
39.091
38.997
38.903
38.808
38.712
38.615
38.518
38.42
38.321
38.22
38.118
38.013
37.907
37.798
37.686
37.572
37.456
37.337
37.217
37.095
36.972
36.849
36.727
36.607
36.492
36.384
36.283
36.191
36.109
36.038
35.978
35.929
35.893
35.869
35.856
35.853
35.859
35.873
35.893
35.917
35.945
35.975
36.007
36.04
36.073
36.105
36.137
36.166
36.193
36.216
36.235
36.251
36.264
36.272
36.277
36.278
36.276
36.27
36.26
36.247
36.231
36.21
36.186
36.158
36.126
36.09
36.049
36.002
35.949
35.889
35.823
35.752
35.675
35.592
35.506
35.417
35.324
35.23
35.134
35.037
34.942
34.848
34.757
34.667
34.581
34.497
34.415
34.337
34.263
34.191
34.123
34.058
33.996
33.935
33.878
33.823
33.771
33.721
33.674
33.63
33.588
33.549
33.512
33.476
33.442
33.409
33.377
33.345
33.315
33.286
33.258
33.231
33.204
33.179
33.156
33.137
33.121
33.107
33.093
33.081
33.07
33.059
33.049
33.039
33.029
33.019
33.011
33.004
33.001
33.0
33.004
33.011
33.021
33.03
33.04
33.05
33.059
33.067
33.072
33.074
33.071
33.063
33.05
33.031
33.007
32.978
32.944
32.908
32.869
32.827
32.784
32.74
32.693
32.645
32.597
32.548
32.501
32.454
32.407
32.362
32.318
32.276
32.235
32.196
32.159
32.123
32.089
32.057
32.026
31.998
31.973
31.951
31.934
31.924
31.923
31.936
31.965
32.015
32.092
32.199
32.34
32.519
32.738
32.997
33.294
33.626
33.989
34.38
34.79
35.216
35.648
36.08
36.505
36.918
37.311
37.68
38.022
38.333
38.61
38.853
39.061
39.233
39.372
39.48
39.559
39.613
39.643
39.651
39.641
39.614
39.575
39.526
39.466
39.398
39.322
39.238
39.149
39.053
38.953
38.848
38.739
38.627
38.512
38.396
38.279
38.162
38.044
37.925
37.805
37.683
37.558
37.431
37.3
37.165
37.027
36.885
36.74
36.592
36.442
36.293
36.146
36.003
35.866
35.738
35.62
35.513
35.419
35.339
35.275
35.227
35.196
35.181
35.183
35.199
35.23
35.274
35.327
35.39
35.459
35.534
35.612
35.693
35.774
35.854
35.93
36.001
36.065
36.123
36.173
36.215
36.249
36.276
36.295
36.309
36.319
36.324
36.324
36.32
36.309
36.292
36.268
36.237
36.199
36.155
36.105
36.05
35.991
35.927
35.858
35.786
35.71
35.631
35.548
35.462
35.373
35.282
35.188
35.092
34.995
34.896
34.796
34.696
34.598
34.502
34.408
34.318
34.23
34.147
34.068
33.993
33.923
33.856
33.792
33.734
33.681
33.634
33.593
33.557
33.524
33.495
33.469
33.444
33.421
33.399
33.377
33.356
33.335
33.314
33.295
33.275
33.257
33.24
33.225
33.211
33.2
33.191
33.184
33.18
33.179
33.18
33.184
33.191
33.201
33.212
33.225
33.238
33.252
33.266
33.28
33.293
33.306
33.316
33.324
33.329
33.332
33.331
33.325
33.315
33.299
33.278
33.252
33.224
33.192
33.158
33.121
33.081
33.039
32.996
32.95
32.904
32.856
32.809
32.762
32.715
32.671
32.628
32.589
32.553
32.521
32.496
32.477
32.468
32.47
32.486
32.519
32.572
32.649
32.754
32.888
33.055
33.257
33.496
33.771
34.081
34.422
34.79
35.179
35.582
35.993
36.406
36.813
37.208
37.585
37.941
38.271
38.574
38.846
39.088
39.299
39.48
39.632
39.756
39.854
39.927
39.976
40.005
40.014
40.005
39.98
39.94
39.886
39.821
39.745
39.659
39.564
39.463
39.357
39.248
39.135
39.02
38.901
38.781
38.659
38.535
38.411
38.286
38.162
38.038
37.914
37.79
37.665
37.538
37.407
37.272
37.135
36.995
36.854
36.714
36.577
36.443
36.316
36.195
36.083
35.981
35.891
35.814
35.753
35.706
35.675
35.66
35.661
35.678
35.71
35.755
35.812
35.878
35.952
36.03
36.11
36.189
36.265
36.337
36.405
36.469
36.527
36.579
36.622
36.655
36.677
36.689
36.69
36.68
36.661
36.633
36.599
36.558
36.513
36.464
36.413
36.361
36.307
36.253
36.197
36.139
36.078
36.015
35.95
35.884
35.815
35.743
35.668
35.591
35.512
35.43
35.348
35.263
35.177
35.089
35.0
34.91
34.82
34.731
34.641
34.553
34.466
34.381
34.299
34.22
34.145
34.074
34.009
33.948
33.894
33.846
33.805
33.771
33.742
33.72
33.701
33.687
33.675
33.664
33.653
33.641
33.628
33.614
33.598
33.58
33.561
33.541
33.521
33.501
33.483
33.468
33.455
33.444
33.435
33.429
33.426
33.425
33.428
33.432
33.439
33.446
33.454
33.462
33.469
33.475
33.478
33.48
33.479
33.478
33.475
33.471
33.466
33.457
33.445
33.429
33.408
33.384
33.357
33.328
33.298
33.266
33.232
33.196
33.158
33.116
33.071
33.024
32.975
32.925
32.875
32.825
32.775
32.727
32.684
32.647
32.621
32.609
32.615
32.642
32.695
32.777
32.893
33.045
33.234
33.462
33.728
34.032
34.369
34.736
35.128
35.538
35.961
36.39
36.82
37.242
37.651
38.04
38.407
38.748
39.06
39.343
39.594
39.816
40.008
40.171
40.309
40.421
40.511
40.58
40.631
40.663
40.679
40.68
40.668
40.642
40.604
40.555
40.496
40.426
40.347
40.26
40.165
40.062
39.953
39.84
39.724
39.607
39.49
39.374
39.259
39.147
39.038
38.932
38.829
38.729
38.63
38.534
38.439
38.344
38.25
38.154
38.057
37.959
37.859
37.758
37.657
37.556
37.458
37.364
37.274
37.19
37.112
