Trial 1:0back
37.254
37.122
36.996
36.878
36.772
36.678
36.599
36.536
36.488
36.457
36.442
36.441
36.454
36.478
36.515
36.561
36.618
36.683
36.756
36.834
36.916
36.999
37.082
37.162
37.238
37.308
37.371
37.427
37.472
37.506
37.529
37.538
37.535
37.518
37.49
37.45
37.401
37.343
37.277
37.202
37.121
37.033
36.94
36.841
36.736
36.627
36.514
36.399
36.282
36.165
36.046
35.927
35.806
35.685
35.563
35.44
35.317
35.193
35.068
34.943
34.818
34.693
34.571
34.451
34.334
34.221
34.112
34.007
33.907
33.813
33.725
33.642
33.564
33.49
33.42
33.354
33.291
33.233
33.177
33.125
33.074
33.026
32.981
32.938
32.896
32.856
32.819
32.783
32.75
32.719
32.691
32.666
32.644
32.625
32.609
32.596
32.586
32.578
32.573
32.57
32.568
32.566
32.564
32.561
32.558
32.554
32.55
32.545
32.538
32.529
32.52
32.511
32.502
32.493
32.485
32.477
32.47
32.463
32.456
32.448
32.441
32.432
32.422
32.411
32.398
32.383
32.367
32.349
32.331
32.31
32.288
32.264
32.238
32.211
32.184
32.157
32.13
32.104
32.078
32.052
32.027
32.004
31.981
31.959
31.938
31.919
31.902
31.885
31.869
31.854
31.84
31.827
31.815
31.803
31.792
31.782
31.773
31.765
31.757
31.751
31.744
31.736
31.726
31.713
31.697
31.677
31.653
31.625
31.594
31.56
31.523
31.485
31.446
31.407
31.368
31.329
31.293
31.257
31.222
31.187
31.154
31.123
31.094
31.067
31.045
31.027
31.013
31.002
30.997
30.998
31.009
31.031
31.071
31.133
31.224
31.353
31.53
31.765
32.066
32.44
32.891
33.421
34.026
34.7
35.433
36.212
37.02
37.841
38.657
39.45
40.205
40.908
41.548
42.118
42.61
43.021
43.352
43.606
43.785
43.897
43.947
43.944
43.897
43.812
43.699
43.561
43.4
43.223
43.035
42.841
42.645
42.45
42.26
42.077
41.901
41.733
41.574
41.421
41.275
41.134
40.995
40.857
40.72
40.581
40.442
40.302
40.162
40.024
39.886
39.75
39.615
39.481
39.351
39.223
39.098
38.976
38.855
38.735
38.615
38.494
38.374
38.253
38.131
38.01
37.89
37.772
37.655
37.541
37.431
37.326
37.227
37.135
37.051
36.977
36.915
36.864
36.827
36.802
36.791
36.795
36.813
36.845
36.889
36.944
37.007
37.075
37.145
37.217
37.288
37.354
37.416
37.471
37.52
37.562
37.597
37.625
37.646
37.66
37.665
37.662
37.652
37.634
37.607
37.571
37.526
37.472
37.411
37.341
37.263
37.177
37.084
36.985
36.881
36.774
36.664
36.552
36.436
36.318
36.198
36.077
35.955
35.834
35.713
35.593
35.475
35.359
35.246
35.135
35.026
34.92
34.817
34.718
34.621
34.528
34.438
34.35
34.265
34.184
34.105
34.029
33.955
33.885
33.816
33.748
33.682
33.617
33.554
33.494
33.437
33.382
33.329
33.278
33.229
33.183
33.14
33.101
33.067
33.037
33.013
32.994
32.98
32.97
32.963
32.96
32.961
32.963
32.966
32.969
32.971
32.971
32.969
32.964
32.958
32.95
32.942
32.933
32.925
32.917
32.91
32.903
32.898
32.894
32.891
32.89
32.889
32.888
32.886
32.883
32.877
32.87
32.86
32.847
32.831
32.811
32.787
32.758
32.726
32.692
32.658
32.623
32.59
32.559
32.532
32.507
32.486
32.47
32.457
32.448
32.439
32.425
32.403
32.374
32.339
32.301
32.263
32.225
32.191
32.161
32.136
32.117
32.103
32.093
32.088
32.086
32.087
32.087
32.087
32.085
32.08
32.072
32.061
32.047
32.03
32.009
31.986
31.96
31.932
31.902
31.871
31.839
31.807
31.775
31.744
31.714
31.686
31.66
31.637
31.619
31.606
31.6
31.602
31.615
31.641
31.686
31.755
31.853
31.991
32.176
32.416
32.718
33.086
33.524
34.03
34.601
35.231
35.908
36.621
37.355
38.095
38.826
39.533
40.204
40.828
41.396
41.903
42.346
42.721
43.028
43.269
43.448
43.567
43.634
43.653
43.631
43.574
43.487
43.377
43.247
43.103
42.949
42.787
42.621
42.452
42.282
42.114
41.948
41.784
41.623
41.465
41.309
41.155
41.001
40.847
40.693
40.538
40.383
40.227
40.071
39.915
39.761
39.608
39.457
39.31
39.164
39.02
38.876
38.734
38.593
38.453
38.315
38.179
38.046
37.917
37.791
37.67
37.552
37.44
37.332
37.231
37.138
37.055
36.982
36.921
36.87
36.832
36.806
36.794
36.796
36.813
36.845
36.891
36.952
37.023
37.104
37.191
37.282
37.376
37.468
37.559
37.645
37.727
37.804
37.873
37.935
37.988
38.032
38.065
38.088
38.098
38.096
38.081
38.053
38.013
37.961
37.898
37.823
37.737
37.642
37.538
37.428
37.311
37.19
37.066
36.94
36.813
36.686
36.559
36.435
36.311
36.189
36.069
35.951
35.835
35.721
35.61
35.5
35.393
35.287
35.183
35.081
34.981
34.883
34.786
34.691
34.597
34.505
34.414
34.325
34.239
34.156
34.075
33.997
33.922
33.851
33.782
33.717
33.656
33.599
33.547
33.501
33.46
33.423
33.392
33.364
33.338
33.315
33.292
33.271
33.251
33.231
33.21
33.189
33.169
33.149
33.129
33.11
33.093
33.079
33.066
33.058
33.052
33.048
33.046
33.044
33.041
33.038
33.035
33.031
33.027
33.021
33.014
33.006
32.996
32.985
32.972
32.958
32.942
32.923
32.901
32.877
32.85
32.82
32.789
32.758
32.727
32.696
32.666
32.637
32.609
32.583
32.555
32.526
32.495
32.463
32.43
32.397
32.363
32.329
32.295
32.261
32.229
32.198
32.17
32.142
32.117
32.094
32.074
32.058
32.044
32.034
32.026
32.021
32.015
32.01
32.002
31.993
31.98
31.965
31.946
31.924
31.899
31.872
31.842
31.81
31.777
31.743
31.708
31.674
31.639
31.605
31.571
31.539
31.508
31.479
31.452
31.428
31.405
31.384
31.366
31.35
31.338
31.331
31.33
31.336
31.353
31.386
31.44
31.522
31.639
31.799
32.011
32.282
32.62
33.028
33.508
34.06
34.677
35.353
36.076
36.832
37.608
38.386
39.153
39.891
40.589
41.233
41.815
42.328
42.769
43.136
43.43
43.656
43.816
43.918
43.967
43.971
43.936
43.868
43.775
43.66
43.529
43.387
43.237
43.082
42.924
42.765
42.606
42.448
42.292
42.138
41.986
41.836
41.688
41.543
41.399
41.259
41.12
40.984
40.851
40.72
40.591
40.466
40.345
40.228
40.116
40.008
39.904
39.805
39.708
39.612
39.517
39.422
39.325
39.227
39.126
39.022
38.914
38.803
38.689
38.572
38.453
38.333
38.214
38.097
37.984
37.879
37.782
37.695
37.618
37.553
37.5
37.459
37.43
37.413
37.407
37.412
37.426
37.45
37.481
37.518
37.558
37.6
37.64
37.679
37.714
37.745
37.773
37.795
37.813
37.826
37.831
37.83
37.822
37.806
37.783
37.753
37.715
37.67
37.619
37.561
37.498
37.427
37.35
37.266
37.176
37.081
36.981
36.877
36.769
36.657
36.542
36.424
36.305
36.184
36.062
35.938
35.815
35.692
35.572
35.454
35.339
35.225
35.114
35.004
34.898
34.796
34.698
34.603
34.511
34.422
34.336
34.254
34.175
34.098
34.026
33.956
33.89
33.827
33.766
33.707
33.65
33.595
33.542
33.491
33.442
33.395
33.35
33.308
33.268
33.232
33.199
33.169
33.143
33.122
33.105
33.091
33.079
33.07
33.061
33.054
33.047
33.04
33.033
33.025
33.017
33.008
32.999
32.989
32.977
32.963
32.949
32.934
32.919
32.905
32.892
32.88
32.869
32.858
32.846
32.833
32.818
32.802
32.783
32.762
32.738
32.712
32.685
32.657
32.629
32.601
32.573
32.545
32.516
32.488
32.46
32.433
32.406
32.38
32.354
32.328
32.302
32.277
32.251
32.226
32.201
32.176
32.151
32.126
32.101
32.076
32.051
32.025
32.0
31.974
31.948
31.923
31.898
31.874
31.852
31.83
31.809
31.788
31.768
31.749
31.729
31.709
31.689
31.667
31.644
31.62
31.596
31.571
31.545
31.519
31.493
31.466
31.44
31.414
31.389
31.365
31.342
31.32
31.299
31.279
31.261
31.245
31.231
31.219
31.208
31.2
31.194
31.19
31.189
31.191
31.198
31.213
31.24
31.284
31.353
31.455
31.597
31.787
32.034
32.343
32.717
33.159
33.666
34.233
34.852
35.513
36.204
36.911
37.62
38.315
38.983
39.611
40.189
40.711
41.171
41.567
41.898
42.165
42.371
42.519
42.615
42.665
42.676
42.653
42.602
42.528
42.437
42.333
42.218
42.097
41.971
41.843
41.712
41.58
41.446
41.311
41.179
41.048
40.918
40.787
40.655
40.521
40.384
40.246
40.106
39.967
39.828
39.691
39.558
39.429
39.306
39.188
39.077
38.97
38.868
38.769
38.673
38.579
38.486
38.393
38.3
38.206
38.11
38.012
37.913
37.812
37.711
37.612
37.515
37.423
37.335
37.254
37.182
37.12
37.068
37.028
37.0
36.986
36.984
36.996
37.021
37.057
37.103
37.157
37.218
37.284
37.352
37.42
37.486
37.549
37.607
37.66
37.706
37.744
37.772
37.791
37.799
37.798
37.788
37.77
37.743
37.71
37.671
37.626
37.576
37.522
37.464
37.404
37.34
37.273
37.202
37.126
37.046
36.962
36.872
36.777
36.677
36.571
36.461
36.347
36.229
36.109
35.988
35.866
35.745
35.625
35.507
35.393
35.282
35.175
35.072
34.974
34.88
34.79
34.703
34.618
34.535
34.453
34.373
34.297
34.224
34.154
34.089
34.028
33.972
33.92
33.874
33.832
33.794
33.76
33.728
33.699
33.672
33.645
33.619
33.592
33.563
33.534
33.504
33.474
33.445
33.419
33.395
33.375
33.358
33.346
33.339
33.335
33.335
33.339
33.344
33.35
33.355
33.359
33.361
33.359
33.354
33.346
33.334
33.321
33.306
33.29
33.273
33.255
33.237
33.219
33.201
33.182
33.164
33.145
33.126
33.108
33.089
33.07
33.05
33.029
33.008
32.986
32.962
32.938
32.911
32.882
32.851
32.819
32.785
32.75
32.714
32.677
32.64
32.604
32.569
32.537
32.507
32.48
32.457
32.436
32.417
32.4
32.383
32.368
32.352
32.333
32.311
32.285
32.255
32.222
32.187
32.15
32.113
32.075
32.037
32.0
31.963
31.927
31.891
31.857
31.825
31.795
31.766
31.738
31.711
31.684
31.659
31.636
31.614
31.593
31.575
31.56
31.551
31.55
31.56
31.585
31.63
31.701
31.805
31.951
32.147
32.401
32.719
33.107
33.564
34.088
34.675
35.313
35.993
36.7
37.419
38.135
38.833
39.502
40.129
40.705
41.223
41.678
42.069
42.394
42.656
42.861
43.018
43.133
43.21
43.255
43.27
43.259
43.224
43.167
43.09
42.996
42.887
42.764
42.63
42.487
42.335
42.177
42.015
41.85
41.685
41.521
41.36
41.202
41.05
40.904
40.766
40.635
40.512
40.398
40.292
40.195
40.104
40.019
39.94
39.864
39.79
39.717
39.644
39.569
39.492
39.413
39.331
39.245
39.156
39.063
38.966
38.866
38.763
38.658
38.553
38.449
38.347
38.25
38.158
38.073
37.997
37.93
37.874
37.83
37.797
37.775
37.764
37.764
37.772
37.789
37.812
37.841
37.875
37.912
37.95
37.989
38.026
38.062
38.094
38.121
38.143
38.157
38.163
38.162
38.152
38.134
38.107
38.071
38.028
37.979
37.923
37.862
37.796
37.727
37.654
37.579
37.502
37.422
37.341
37.256
37.169
37.078
36.983
36.884
36.782
36.678
36.572
36.463
36.352
36.239
36.123
36.005
35.886
35.765
35.644
35.522
35.402
35.283
35.167
35.054
34.944
34.838
34.738
34.644
34.556
34.473
34.397
34.327
34.262
34.2
34.142
34.084
34.029
33.975
33.923
33.873
33.826
33.782
33.742
33.704
33.669
33.637
33.607
33.577
33.548
33.518
33.489
33.461
33.433
33.405
33.378
33.352
33.326
33.3
33.275
33.25
33.225
33.198
33.172
33.145
33.119
33.094
33.068
33.042
33.016
32.989
32.961
32.933
32.904
32.876
32.848
32.82
32.792
32.764
32.735
32.707
32.678
32.648
32.617
32.584
32.551
32.516
32.481
32.446
32.411
32.377
32.344
32.313
32.283
32.256
32.23
32.206
32.183
32.161
32.14
32.118
32.097
32.075
32.053
32.031
32.008
31.985
31.962
31.94
31.918
31.897
31.876
31.855
31.834
31.813
31.794
31.775
31.756
31.738
31.721
31.705
31.69
31.677
31.665
31.653
31.643
31.632
31.622
31.613
31.603
31.592
31.58
31.564
31.546
31.524
31.5
31.474
31.445
31.414
31.38
31.345
31.309
31.272
31.234
31.196
31.159
31.121
31.083
31.045
31.008
30.972
30.937
30.902
30.869
30.838
30.808
30.78
30.754
30.73
30.709
30.691
30.675
30.664
30.659
30.661
30.674
30.7
30.744
30.811
30.91
31.046
31.23
31.468
31.768
32.135
32.57
33.075
33.643
34.268
34.939
35.642
36.365
37.091
37.808
38.502
39.161
39.774
40.333
40.83
41.263
41.628
41.927
42.161
42.334
42.452
42.519
42.544
42.532
42.49
42.425
42.341
42.244
42.136
42.02
41.898
41.772
41.643
41.513
41.382
41.25
41.117
40.982
40.846
40.708
40.57
40.432
40.294
40.158
40.025
39.895
39.77
39.65
39.537
39.43
39.332
39.24
39.155
39.075
38.998
38.925
38.852
38.78
38.707
38.632
38.554
38.473
38.387
38.297
38.202
38.103
38.0
37.895
37.79
37.687
37.589
37.496
37.41
37.332
37.265
37.209
37.166
37.136
37.118
37.112
37.118
37.133
37.156
37.187
37.222
37.261
37.302
37.345
37.387
37.429
37.471
37.511
37.548
37.583
37.614
37.641
37.662
37.677
37.685
37.685
37.678
37.664
37.644
37.616
37.581
37.538
37.489
37.433
37.37
37.299
37.222
37.14
37.052
36.962
36.87
36.777
36.683
36.588
36.494
36.399
36.303
36.207
36.111
36.015
35.92
35.826
35.734
35.642
35.552
35.463
35.373
35.284
35.195
35.106
35.018
34.932
34.847
34.764
34.683
34.604
34.528
34.455
34.385
34.319
34.256
34.196
34.14
34.089
34.041
33.995
33.952
33.909
33.867
33.827
33.789
33.753
33.72
33.689
33.66
33.634
33.611
33.592
33.577
33.565
33.557
33.55
33.546
33.542
33.539
33.535
33.53
33.524
33.517
33.506
33.493
33.477
33.459
33.438
33.417
33.394
33.372
33.349
33.328
33.307
33.288
33.27
33.252
33.234
33.215
33.195
33.172
33.148
33.12
33.091
33.06
33.027
32.994
32.961
32.927
32.894
32.861
32.829
32.798
32.768
32.74
32.713
32.686
32.661
32.635
32.611
32.587
32.564
32.54
32.515
32.49
32.465
32.44
32.414
32.389
32.362
32.336
32.308
32.281
32.254
32.228
32.201
32.174
32.147
32.119
32.092
32.064
32.036
32.007
31.979
31.95
31.921
31.89
31.859
31.828
31.799
31.774
31.752
31.732
31.713
31.695
31.675
31.655
31.635
31.614
31.595
31.578
31.565
31.557
31.557
31.566
31.589
31.631
31.699
31.8
31.943
32.135
32.385
32.698
33.079
33.528
34.043
34.618
35.243
35.909
36.602
37.308
38.012
38.7
39.36
39.98
40.551
41.065
41.517
41.905
42.23
42.493
42.697
42.845
42.944
42.998
43.015
42.998
42.954
42.886
42.799
42.697
42.584
42.462
42.334
42.201
42.065
41.926
41.785
41.642
41.497
41.35
41.202
41.054
40.908
40.764
40.623
40.486
40.355
40.229
40.108
39.992
39.882
39.775
39.674
39.578
39.486
39.397
39.31
39.225
39.141
39.057
38.971
38.883
38.792
38.699
38.601
38.5
38.395
38.287
38.177
38.066
37.955
37.848
37.744
37.647
37.558
37.479
37.41
37.352
37.307
37.274
37.254
37.246
37.25
37.264
37.289
37.321
37.361
37.407
37.456
37.507
37.557
37.605
37.651
37.693
37.73
37.761
37.787
37.807
37.819
37.823
37.818
37.804
37.781
37.751
37.713
37.668
37.616
37.557
37.49
37.416
37.334
37.246
37.152
37.052
36.947
36.838
36.725
36.609
36.489
36.366
36.241
36.115
35.989
35.863
35.74
35.618
35.499
35.384
35.271
35.163
35.057
34.955
34.856
34.76
34.666
34.575
34.487
34.399
34.312
34.226
34.141
34.056
33.972
33.891
33.814
33.74
33.67
33.605
33.545
33.491
33.443
33.401
33.366
33.335
33.308
33.286
33.268
33.252
33.239
33.225
33.212
33.197
33.18
33.161
33.14
33.117
33.092
33.067
33.042
33.018
32.994
32.97
32.948
32.929
32.913
32.899
32.888
32.879
32.871
32.865
32.857
32.849
32.84
32.828
32.815
32.8
32.782
32.762
32.74
32.717
32.692
32.666
32.641
32.615
32.588
32.562
32.535
32.509
32.483
32.456
32.428
32.399
32.369
32.339
32.308
32.276
32.245
32.214
32.182
32.151
32.119
32.087
32.053
32.018
31.981
31.943
31.904
31.865
31.825
31.786
31.748
31.711
31.675
31.642
31.611
31.582
31.555
31.53
31.505
31.482
31.459
31.437
31.414
31.392
31.368
31.343
31.317
31.29
31.263
31.236
31.209
31.183
31.157
31.132
31.107
31.084
31.062
31.042
31.023
31.005
30.987
30.969
30.952
30.936
30.922
30.91
30.898
30.886
30.876
30.866
30.857
30.848
30.841
30.834
30.827
30.822
30.817
30.814
30.811
30.81
30.808
30.805
30.801
30.796
30.789
30.781
30.771
30.759
30.745
30.729
30.71
30.691
30.671
30.653
30.635
30.619
30.604
30.591
30.58
30.571
30.564
30.56
30.56
30.565
30.577
30.597
30.631
30.681
30.755
30.861
31.007
31.205
31.463
31.791
32.193
32.674
33.23
33.857
34.547
35.288
36.065
36.863
37.664
38.45
39.207
39.919
40.575
41.167
41.688
42.134
42.505
42.801
43.026
43.185
43.284
43.331
43.333
43.297
43.23
43.137
43.025
42.898
42.762
42.621
42.476
42.332
42.187
42.044
41.902
41.76
41.619
41.478
41.337
41.194
41.05
40.904
40.757
40.609
40.462
40.317
40.176
40.039
39.907
39.78
39.659
39.544
39.435
39.332
39.236
39.146
39.061
38.981
38.907
38.837
38.77
38.703
38.635
38.565
38.492
38.416
38.336
38.254
38.169
38.081
37.991
37.902
37.813
37.729
37.65
37.578
37.514
37.458
37.412
37.374
37.346
37.328
37.318
37.318
37.326
37.344
37.369
37.4
37.437
37.477
37.519
37.561
37.601
37.638
37.67
37.697
37.717
37.729
37.735
37.733
37.725
37.709
37.686
37.654
37.615
37.569
37.516
37.456
37.389
37.316
37.236
37.149
37.055
36.956
36.853
36.745
36.635
36.525
36.415
36.306
36.198
36.09
35.982
35.873
35.763
35.65
35.536
35.419
35.3
35.18
35.059
34.939
34.82
34.701
34.585
34.471
34.36
34.252
34.147
34.047
33.951
33.86
33.775
33.695
33.62
33.551
33.486
33.426
33.372
33.322
33.279
33.24
33.207
33.178
33.153
33.132
33.115
33.101
33.089
33.079
33.07
33.061
33.053
33.044
33.035
33.024
33.011
32.996
32.979
32.962
32.944
32.927
32.91
32.895
32.881
32.871
32.862
32.857
32.854
32.854
32.854
32.854
32.853
32.852
32.849
32.845
32.838
32.828
32.815
32.798
32.779
32.758
32.735
32.71
32.685
32.659
32.634
32.609
32.585
32.562
32.541
32.521
32.503
32.486
32.471
32.457
32.444
32.432
32.42
32.406
32.39
32.371
32.35
32.326
32.3
32.271
32.24
32.209
32.178
32.147
32.117
32.088
32.061
32.037
32.016
31.999
31.985
31.973
31.962
31.951
31.939
31.927
31.912
31.893
31.871
31.844
31.814
31.78
31.744
31.705
31.667
31.629
31.592
31.557
31.524
31.493
31.466
31.441
31.421
31.407
31.396
31.389
31.385
31.381
31.378
31.372
31.364
31.353
31.342
31.331
31.323
31.322
31.332
31.359
31.409
31.492
31.615
31.788
32.019
32.317
32.686
33.128
33.641
34.219
34.854
35.534
36.247
36.978
37.712
38.433
39.127
39.782
40.386
40.931
41.412
41.825
42.169
42.445
42.657
42.807
42.903
42.95
42.954
42.924
42.866
42.786
42.688
42.576
42.454
42.324
42.188
42.048
41.904
41.756
41.606
41.453
41.299
41.142
40.982
40.821
40.658
40.494
40.329
40.164
40.0
39.837
39.676
39.519
39.366
39.216
39.071
38.93
38.795
38.665
38.539
38.417
38.3
38.186
38.075
37.967
37.86
37.755
37.65
37.546
37.441
37.336
37.23
37.125
37.022
36.923
36.829
36.744
36.668
36.604
36.554
36.518
36.498
36.493
36.503
36.528
36.566
36.615
36.675
36.742
36.815
36.892
36.97
37.049
37.127
37.202
37.272
37.338
37.398
37.451
37.497
37.535
37.565
37.585
37.595
37.595
37.584
37.562
37.528
37.483
37.43
37.368
37.298
37.221
37.136
37.044
36.945
36.84
36.729
36.615
36.497
36.376
36.254
36.131
36.007
35.885
35.763
35.642
35.523
35.406
35.291
35.176
35.061
34.945
34.829
34.712
34.595
34.479
34.364
34.251
34.139
34.03
33.923
33.82
33.723
33.63
33.544
33.465
33.394
33.329
33.271
33.219
33.173
33.132
33.094
33.06
33.028
32.998
32.97
32.943
32.919
32.896
32.874
32.854
32.836
32.82
32.807
32.797
32.788
32.782
32.777
32.775
32.774
32.774
32.776
32.777
32.779
32.782
32.784
32.784
32.781
32.775
32.766
32.755
32.743
32.73
32.717
32.705
32.693
32.682
32.672
32.663
32.654
32.647
32.641
32.635
