Trial 1:0back
39.954
39.849
39.74
39.627
39.512
39.395
39.278
39.16
39.041
38.92
38.798
38.672
38.545
38.414
38.281
38.147
38.011
37.875
37.739
37.606
37.475
37.349
37.228
37.112
37.004
36.904
36.813
36.731
36.66
36.601
36.554
36.519
36.498
36.489
36.492
36.506
36.53
36.561
36.598
36.639
36.682
36.723
36.762
36.797
36.827
36.853
36.874
36.892
36.904
36.91
36.912
36.907
36.896
36.878
36.855
36.826
36.793
36.753
36.708
36.656
36.598
36.533
36.461
36.382
36.297
36.205
36.108
36.007
35.903
35.798
35.691
35.585
35.48
35.376
35.275
35.177
35.082
34.991
34.902
34.817
34.733
34.649
34.566
34.484
34.403
34.322
34.242
34.162
34.083
34.004
33.928
33.854
33.784
33.717
33.655
33.598
33.55
33.51
33.479
33.454
33.435
33.421
33.412
33.405
33.4
33.394
33.388
33.378
33.366
33.35
33.332
33.31
33.287
33.262
33.236
33.212
33.189
33.168
33.15
33.134
33.122
33.113
33.107
33.105
33.105
33.108
33.11
33.113
33.113
33.11
33.103
33.091
33.074
33.052
33.026
32.995
32.961
32.924
32.886
32.845
32.804
32.762
32.721
32.68
32.639
32.596
32.553
32.507
32.459
32.409
32.357
32.304
32.249
32.193
32.136
32.08
32.025
31.972
31.924
31.881
31.845
31.817
31.802
31.803
31.826
31.875
31.956
32.073
32.228
32.424
32.662
32.94
33.26
33.618
34.012
34.435
34.88
35.341
35.81
36.279
36.741
37.189
37.619
38.025
38.403
38.75
39.064
39.344
39.59
39.801
39.978
40.123
40.238
40.323
40.381
40.414
40.424
40.413
40.383
40.337
40.278
40.208
40.129
40.043
39.95
39.851
39.749
39.642
39.532
39.42
39.304
39.185
39.062
38.937
38.807
38.674
38.537
38.397
38.254
38.107
37.958
37.807
37.655
37.502
37.35
37.199
37.051
36.906
36.766
36.632
36.505
36.384
36.272
36.169
36.075
35.992
35.921
35.863
35.819
35.787
35.77
35.766
35.776
35.797
35.829
35.87
35.917
35.969
36.023
36.077
36.129
36.177
36.222
36.262
36.296
36.322
36.339
36.347
36.345
36.335
36.319
36.298
36.271
36.24
36.206
36.168
36.128
36.086
36.04
35.989
35.933
35.871
35.801
35.726
35.643
35.555
35.46
35.361
35.258
35.152
35.044
34.936
34.827
34.721
34.616
34.516
34.419
34.327
34.238
34.153
34.071
33.991
33.912
33.834
33.756
33.679
33.602
33.525
33.45
33.376
33.306
33.239
33.177
33.12
33.069
33.021
32.978
32.939
32.904
32.873
32.844
32.819
32.795
32.774
32.755
32.737
32.72
32.704
32.688
32.67
32.651
32.631
32.611
32.592
32.574
32.557
32.543
32.531
32.523
32.517
32.516
32.517
32.52
32.524
32.529
32.533
32.536
32.536
32.533
32.527
32.518
32.504
32.486
32.465
32.441
32.414
32.386
32.357
32.328
32.299
32.272
32.247
32.224
32.204
32.185
32.168
32.15
32.131
32.11
32.086
32.057
32.024
31.987
31.943
31.895
31.842
31.785
31.724
31.659
31.592
31.526
31.464
31.41
31.366
31.334
31.317
31.318
31.34
31.387
31.465
31.577
31.728
31.92
32.157
32.439
32.765
33.135
33.543
33.987
34.46
34.957
35.469
35.99
36.514
37.032
37.536
38.016
38.462
38.869
39.236
39.56
39.845
40.091
40.301
40.479
40.626
40.746
40.841
40.914
40.968
41.005
41.025
41.029
41.019
40.996
40.959
40.909
40.849
40.777
40.696
40.606
40.509
40.404
40.293
40.176
40.053
39.927
39.797
39.665
39.531
39.397
39.263
39.13
38.999
38.87
38.744
38.619
38.496
38.374
38.252
38.13
38.008
37.885
37.764
37.644
37.525
37.408
37.293
37.181
37.073
36.971
36.876
36.791
36.717
36.655
36.606
36.569
36.544
36.53
36.526
36.529
36.539
36.554
36.572
36.591
36.61
36.628
36.646
36.66
36.672
36.68
36.685
36.685
36.681
36.673
36.66
36.643
36.621
36.594
36.562
36.524
36.48
36.43
36.375
36.313
36.246
36.172
36.092
36.007
35.918
35.824
35.729
35.631
35.532
35.433
35.333
35.234
35.138
35.043
34.95
34.859
34.769
34.681
34.594
34.507
34.421
34.334
34.247
34.16
34.074
33.989
33.906
33.824
33.744
33.666
33.59
33.518
33.45
33.387
33.33
33.278
33.232
33.19
33.153
33.118
33.087
33.058
33.03
33.003
32.976
32.949
32.922
32.895
32.869
32.845
32.822
32.801
32.781
32.763
32.748
32.734
32.722
32.711
32.703
32.696
32.689
32.682
32.675
32.666
32.657
32.647
32.637
32.625
32.612
32.596
32.577
32.557
32.535
32.512
32.49
32.467
32.446
32.425
32.405
32.386
32.367
32.348
32.327
32.306
32.282
32.257
32.229
32.196
32.16
32.119
32.074
32.026
31.975
31.922
31.868
31.813
31.759
31.703
31.648
31.594
31.543
31.495
31.45
31.407
31.365
31.324
31.283
31.244
31.205
31.168
31.135
31.107
31.088
31.081
31.091
31.122
31.182
31.277
31.411
31.59
31.818
32.096
32.427
32.808
33.237
33.709
34.217
34.753
35.307
35.871
36.434
36.987
37.521
38.028
38.503
38.939
39.335
39.686
39.992
40.253
40.471
40.65
40.792
40.9
40.978
41.028
41.053
41.056
41.039
41.004
40.954
40.891
40.817
40.732
40.64
40.54
40.436
40.326
40.214
40.099
39.982
39.865
39.747
39.628
39.509
39.389
39.269
39.148
39.025
38.901
38.774
38.644
38.51
38.372
38.23
38.085
37.939
37.793
37.649
37.508
37.371
37.24
37.115
36.996
36.884
36.781
36.686
36.601
36.525
36.459
36.403
36.357
36.321
36.294
36.277
36.269
36.27
36.28
36.298
36.324
36.355
36.39
36.428
36.466
36.503
36.538
36.568
36.592
36.61
36.62
36.623
36.617
36.603
36.583
36.557
36.525
36.489
36.448
36.402
36.352
36.298
36.24
36.177
36.11
36.04
35.966
35.889
35.807
35.722
35.633
35.538
35.439
35.336
35.228
35.117
35.003
34.888
34.773
34.659
34.547
34.438
34.334
34.235
34.141
34.051
33.966
33.884
33.804
33.726
33.649
33.572
33.495
33.418
33.341
33.264
33.189
33.118
33.05
32.987
32.929
32.878
32.834
32.796
32.764
32.738
32.718
32.701
32.688
32.678
32.669
32.661
32.654
32.646
32.637
32.626
32.614
32.6
32.584
32.567
32.549
32.532
32.516
32.501
32.487
32.476
32.467
32.46
32.455
32.451
32.448
32.445
32.441
32.435
32.427
32.417
32.403
32.386
32.365
32.341
32.316
32.29
32.263
32.236
32.21
32.184
32.16
32.136
32.114
32.092
32.071
32.052
32.032
32.012
31.99
31.965
31.936
31.903
31.865
31.823
31.777
31.727
31.674
31.618
31.56
31.5
31.439
31.378
31.318
31.258
31.2
31.145
31.094
31.047
31.004
30.965
30.932
30.903
30.879
30.864
30.857
30.864
30.888
30.934
31.008
31.114
31.258
31.445
31.68
31.965
32.301
32.687
33.12
33.595
34.107
34.646
35.204
35.771
36.336
36.89
37.423
37.929
38.401
38.832
39.219
39.56
39.854
40.101
40.304
40.464
40.586
40.674
40.732
40.765
40.776
40.767
40.742
40.701
40.647
40.58
40.501
40.411
40.311
40.201
40.083
39.957
39.824
39.686
39.544
39.398
39.249
39.099
38.948
38.796
38.642
38.486
38.328
38.167
38.004
37.837
37.667
37.494
37.318
37.139
36.958
36.778
36.599
36.424
36.254
36.092
35.939
35.799
35.673
35.564
35.473
35.4
35.345
35.309
35.289
35.286
35.296
35.319
35.351
35.391
35.437
35.487
35.54
35.596
35.652
35.709
35.765
35.821
35.876
35.93
35.981
36.029
36.071
36.107
36.135
36.154
36.163
36.163
36.153
36.133
36.104
36.066
36.02
35.967
35.906
35.84
35.769
35.693
35.612
35.527
35.439
35.348
35.255
35.16
35.063
34.964
34.864
34.763
34.661
34.557
34.452
34.347
34.243
34.139
34.038
33.938
33.842
33.748
33.658
33.572
33.49
33.412
33.337
33.266
33.199
33.134
33.072
33.012
32.955
32.9
32.845
32.792
32.741
32.691
32.643
32.598
32.556
32.518
32.483
32.453
32.427
32.406
32.391
32.382
32.377
32.378
32.383
32.391
32.4
32.41
32.419
32.428
32.435
32.44
32.444
32.446
32.445
32.442
32.438
32.431
32.423
32.415
32.407
32.399
32.393
32.388
32.385
32.382
32.378
32.373
32.366
32.357
32.346
32.333
32.318
32.301
32.279
32.254
32.225
32.192
32.155
32.114
32.069
32.021
31.97
31.916
31.86
31.803
31.745
31.688
31.633
31.579
31.528
31.481
31.438
31.401
31.373
31.354
31.35
31.363
31.398
31.46
31.554
31.686
31.859
32.076
32.341
32.654
33.016
33.423
33.871
34.354
34.865
35.395
35.934
36.473
37.004
37.518
38.007
38.463
38.883
39.262
39.598
39.888
40.135
40.338
40.5
40.626
40.718
40.779
40.812
40.822
40.813
40.787
40.745
40.689
40.62
40.538
40.446
40.345
40.235
40.119
39.997
39.871
39.743
39.612
39.479
39.345
39.21
39.072
38.933
38.789
38.642
38.489
38.331
38.166
37.995
37.818
37.635
37.448
37.259
37.069
36.88
36.695
36.515
36.343
36.18
36.028
35.89
35.768
35.661
35.57
35.493
35.431
35.384
35.35
35.331
35.327
35.338
35.363
35.402
35.452
35.512
35.581
35.656
35.737
35.82
35.905
35.988
36.069
36.145
36.215
36.277
36.331
36.375
36.409
36.432
36.443
36.442
36.431
36.408
36.377
36.336
36.288
36.232
36.171
36.106
36.036
35.962
35.887
35.81
35.732
35.653
35.573
35.49
35.402
35.309
35.209
35.102
34.989
34.868
34.743
34.614
34.483
34.352
34.223
34.096
33.974
33.856
33.744
33.637
33.537
33.443
33.354
33.271
33.194
33.122
33.054
32.991
32.931
32.874
32.82
32.768
32.72
32.674
32.632
32.593
32.557
32.523
32.491
32.461
32.435
32.413
32.396
32.384
32.376
32.373
32.373
32.377
32.382
32.39
32.399
32.41
32.421
32.433
32.445
32.455
32.463
32.468
32.47
32.469
32.465
32.458
32.448
32.435
32.42
32.401
32.379
32.354
32.325
32.292
32.255
32.213
32.166
32.114
32.059
32.001
31.941
31.881
31.821
31.763
31.708
31.657
31.615
31.581
31.56
31.555
31.57
31.607
31.672
31.769
31.902
32.076
32.294
32.558
32.869
33.227
33.631
34.077
34.56
35.073
35.608
36.159
36.714
37.266
37.806
38.325
38.817
39.274
39.692
40.065
40.393
40.672
40.904
41.092
41.239
41.346
41.42
41.463
41.479
41.474
41.45
41.412
41.361
41.301
41.233
41.158
41.077
40.989
40.894
40.792
40.683
40.568
40.445
40.315
40.179
40.037
39.891
39.742
39.592
39.441
39.289
39.136
38.981
38.826
38.671
38.516
38.362
38.209
38.057
37.906
37.758
37.613
37.471
37.333
37.197
37.064
36.934
36.81
36.694
36.586
36.489
36.404
36.332
36.274
36.23
36.2
36.183
36.177
36.181
36.193
36.211
36.235
36.263
36.293
36.325
36.359
36.392
36.424
36.453
36.48
36.503
36.524
36.542
36.557
36.569
36.577
36.58
36.577
36.567
36.549
36.522
36.486
36.439
36.383
36.318
36.245
36.164
36.078
35.987
35.893
35.797
35.699
35.602
35.504
35.406
35.308
35.21
35.109
35.006
34.901
34.793
34.682
34.57
34.457
34.343
34.231
34.12
34.01
33.903
33.797
33.695
33.597
33.503
33.414
33.33
33.252
33.178
33.111
33.048
32.991
32.939
32.89
32.844
32.801
32.758
32.717
32.677
32.637
32.599
32.563
32.53
32.5
32.474
32.453
32.436
32.425
32.419
32.417
32.418
32.419
32.421
32.421
32.42
32.416
32.41
32.402
32.39
32.376
32.36
32.342
32.322
32.301
32.281
32.26
32.239
32.219
32.199
32.178
32.158
32.136
32.114
32.089
32.062
32.031
31.997
31.959
31.916
31.871
31.824
31.775
31.726
31.678
31.634
31.595
31.563
31.541
31.53
31.534
31.557
31.602
31.675
31.779
31.918
32.097
32.318
32.585
32.9
33.261
33.668
34.117
34.602
35.117
35.653
36.203
36.757
37.307
37.843
38.358
38.845
39.298
39.713
40.085
40.413
40.695
40.933
41.127
41.279
41.392
41.469
41.514
41.532
41.526
41.5
41.457
41.401
41.334
41.258
41.175
41.088
40.996
40.9
40.801
40.698
40.591
40.48
40.366
40.248
40.128
40.006
39.882
39.757
39.633
39.507
39.382
39.256
39.13
39.004
38.877
38.749
38.618
38.485
38.35
38.213
38.074
37.933
37.794
37.657
37.523
37.395
37.273
37.157
37.048
36.946
36.855
36.775
36.708
36.653
36.61
36.579
36.558
36.548
36.545
36.548
36.555
36.565
36.574
36.583
36.591
36.595
36.598
36.597
36.593
36.586
36.578
36.567
36.555
36.541
36.525
36.507
36.485
36.459
36.43
36.396
36.358
36.315
36.266
36.211
36.15
36.083
36.008
35.927
35.84
35.748
35.653
35.555
35.456
35.356
35.256
35.157
35.058
34.959
34.859
34.758
34.656
34.553
34.449
34.343
34.238
34.134
34.03
33.929
33.831
33.737
33.646
33.559
33.476
33.396
33.321
33.251
33.185
33.124
33.067
33.013
32.962
32.914
32.868
32.822
32.774
32.726
32.676
32.626
32.577
32.53
32.486
32.446
32.411
32.38
32.354
32.331
32.313
32.299
32.287
32.278
32.269
32.26
32.25
32.24
32.229
32.216
32.204
32.191
32.177
32.164
32.151
32.138
32.125
32.112
32.1
32.088
32.078
32.07
32.063
32.057
32.051
32.045
32.038
32.029
32.017
32.002
31.982
31.957
31.926
31.891
31.851
31.809
31.764
31.719
31.674
31.63
31.586
31.544
31.502
31.461
31.42
31.378
31.335
31.292
31.247
31.201
31.155
31.11
31.066
31.027
30.994
30.973
30.968
30.983
31.025
31.098
31.211
31.369
31.576
31.837
32.156
32.531
32.962
33.445
33.972
34.536
35.126
35.733
36.344
36.95
37.54
38.106
38.64
39.136
39.59
39.998
40.359
40.671
40.935
41.154
41.329
41.466
41.567
41.638
41.682
41.701
41.698
41.674
41.632
41.575
41.505
41.424
41.332
41.231
41.122
41.007
40.888
40.765
40.639
40.511
40.382
40.253
40.124
39.995
39.868
39.742
39.618
39.493
39.368
39.242
39.114
38.984
38.851
38.716
38.579
38.44
38.301
38.163
38.025
37.888
37.754
37.622
37.491
37.361
37.235
37.112
36.996
36.888
36.79
36.704
36.632
36.573
36.529
36.497
36.477
36.469
36.47
36.481
36.499
36.523
36.55
36.578
36.606
36.632
36.654
36.67
36.679
36.68
36.673
36.66
36.639
36.614
36.583
36.549
36.512
36.471
36.428
36.382
36.332
36.28
36.225
36.165
36.102
36.034
35.962
35.886
35.805
35.719
35.629
35.535
35.437
35.338
35.237
35.136
35.034
34.933
34.832
34.733
34.636
34.54
34.445
34.354
34.264
34.174
34.085
33.996
33.905
33.813
33.721
33.629
33.539
33.45
33.363
33.28
33.2
33.125
33.056
32.991
32.932
32.878
32.829
32.785
32.746
32.711
32.68
32.652
32.626
32.601
32.577
32.555
32.534
32.515
32.496
32.48
32.465
32.452
32.441
32.433
32.428
32.426
32.426
32.426
32.427
32.425
32.421
32.414
32.405
32.393
32.378
32.361
32.343
32.322
32.3
32.278
32.256
32.234
32.213
32.194
32.177
32.162
32.148
32.136
32.125
32.115
32.103
32.089
32.073
32.052
32.027
31.996
31.96
31.917
31.868
31.815
31.758
31.697
31.635
31.573
31.512
31.453
31.398
31.348
31.307
31.276
31.258
31.255
31.27
31.309
31.376
31.476
31.616
31.801
32.033
32.315
32.647
33.029
33.458
33.928
34.434
34.968
35.522
36.086
36.65
37.205
37.741
38.25
38.726
39.164
39.559
39.907
40.209
40.462
40.669
40.831
40.952
41.034
41.083
41.102
41.097
41.07
41.026
40.969
40.901
40.826
40.743
40.653
40.556
40.451
40.34
40.222
40.097
39.966
39.831
39.691
39.547
39.401
39.254
39.105
38.955
38.806
38.657
38.509
38.361
38.213
38.063
37.912
37.758
37.602
37.444
37.284
37.124
36.964
36.805
36.651
36.503
36.364
36.236
36.121
36.02
35.936
35.869
35.819
35.785
35.766
35.761
35.77
35.789
35.819
35.856
35.899
35.947
35.998
36.05
36.102
36.153
36.201
36.246
36.288
36.326
36.36
36.39
36.415
36.436
36.451
36.461
36.463
36.457
36.443
36.42
36.387
36.346
36.294
36.232
36.161
36.082
35.995
35.903
35.807
35.708
35.609
35.511
35.415
35.322
35.232
35.146
35.061
34.978
34.894
34.809
34.723
34.636
34.548
34.458
34.367
34.273
34.178
34.083
33.987
33.893
33.802
33.713
33.628
33.547
33.47
33.397
33.329
33.265
33.207
33.154
33.105
33.06
33.02
32.982
32.947
32.916
32.887
32.86
32.837
32.817
32.801
32.788
32.779
32.773
32.77
32.768
32.769
32.77
32.771
32.772
32.773
32.773
32.772
32.769
32.764
32.758
32.751
32.744
32.735
32.727
32.72
32.714
32.71
32.708
32.706
32.702
32.695
32.685
32.67
32.652
32.629
32.602
32.572
32.538
32.501
32.462
32.42
32.375
32.329
32.279
32.228
32.176
32.123
32.071
32.019
31.97
31.923
31.881
31.844
31.815
31.796
31.789
31.798
31.828
31.883
31.97
32.094
32.257
32.463
32.713
33.008
33.345
33.722
34.137
34.583
35.056
35.547
36.049
36.555
37.054
37.541
38.007
38.446
38.853
39.222
39.55
39.837
40.081
40.284
40.447
40.573
40.666
40.728
40.763
40.775
40.766
40.74
40.699
40.645
40.581
40.506
40.422
40.33
40.229
40.119
39.999
39.869
39.732
39.59
39.444
39.297
39.15
39.003
38.858
38.714
38.569
38.423
38.275
38.125
37.971
37.813
37.652
37.487
37.319
37.149
36.978
36.806
36.637
36.473
36.315
36.167
36.03
35.907
35.799
35.708
35.634
35.577
35.538
35.516
35.508
35.515
35.533
35.562
35.6
35.645
35.696
35.751
35.809
35.87
35.932
35.994
36.055
36.115
36.171
36.224
36.273
36.316
36.353
36.382
36.403
36.415
36.417
36.408
36.39
36.362
36.325
36.28
36.226
36.166
36.1
36.028
35.953
35.874
35.793
35.71
35.626
35.541
35.454
35.366
35.277
35.185
35.092
34.996
34.9
34.804
34.707
34.611
34.514
34.417
34.318
34.22
34.122
34.025
33.93
33.84
33.755
33.673
33.596
33.521
33.449
33.38
33.313
33.249
33.186
33.126
33.068
33.013
32.961
32.913
32.869
32.831
32.797
32.769
32.745
32.727
32.712
32.702
32.695
32.69
32.687
32.684
32.68
32.676
32.672
32.667
32.663
32.658
32.651
32.641
32.628
32.613
32.596
32.578
32.56
32.544
32.531
32.521
32.515
32.512
32.512
32.513
32.514
32.514
32.512
32.507
32.498
32.485
32.471
32.455
32.438
32.421
32.406
32.393
32.386
32.383
32.384
32.387
32.392
32.395
32.397
32.395
32.388
32.376
32.358
32.33
32.293
32.246
32.191
32.129
32.062
31.991
31.92
31.85
31.785
31.724
31.669
31.621
31.58
31.548
31.527
31.518
31.527
31.556
31.609
31.692
31.81
31.967
32.167
32.415
32.712
33.058
33.451
33.888
34.365
34.875
35.409
35.96
36.517
37.071
37.614
38.137
38.633
39.096
39.521
39.905
40.246
40.541
40.793
41.001
41.169
41.299
41.394
41.458
41.493
41.504
41.494
41.467
41.425
41.372
41.309
41.238
41.16
41.074
40.982
40.884
40.779
40.668
40.551
40.43
40.305
40.177
40.048
39.917
39.785
39.653
39.521
39.389
39.259
39.129
39.0
38.87
38.74
38.61
38.478
38.346
38.212
38.075
37.936
37.794
37.65
37.507
37.366
37.23
37.102
36.983
36.876
36.781
36.7
36.633
36.581
36.542
36.515
36.5
36.495
36.499
36.509
36.524
36.544
36.567
36.593
36.62
36.648
36.676
36.705
36.734
36.762
36.79
36.817
36.842
36.862
36.877
36.885
36.886
36.877
36.861
36.836
36.804
36.765
36.718
36.666
36.608
36.545
36.479
36.41
36.337
36.261
36.183
36.104
36.022
35.938
35.851
35.762
35.669
35.573
35.472
35.369
35.262
35.154
35.046
34.939
34.833
34.731
34.634
34.543
34.458
34.378
34.301
34.226
34.153
34.079
34.005
33.932
33.858
33.786
33.713
33.642
33.573
33.506
33.442
33.383
33.331
33.285
33.245
33.212
33.184
33.16
33.14
33.123
33.107
33.091
33.076
33.061
33.046
33.031
33.015
33.0
32.984
32.968
32.953
32.939
32.926
32.915
32.906
32.9
32.897
32.897
32.899
32.902
32.906
32.909
32.91
32.91
32.907
32.904
32.9
32.894
32.887
32.878
32.867
32.854
32.839
32.821
32.801
32.779
32.755
32.73
32.705
32.679
32.654
32.629
32.604
32.58
32.555
32.529
32.501
32.471
32.438
32.403
32.364
32.323
32.281
32.238
32.193
32.149
32.105
32.062
32.019
31.976
31.934
31.892
31.851
31.811
31.773
31.738
31.707
31.683
31.67
31.67
31.689
31.732
31.805
31.914
32.064
32.261
32.507
32.805
33.153
33.551
33.994
34.477
34.993
35.532
36.087
36.645
37.199
37.737
38.252
38.736
39.184
39.59
39.953
40.27
40.543
40.773
40.961
41.111
41.227
41.314
41.376
41.415
41.435
41.439
41.427
41.402
41.363
41.312
41.249
41.175
41.091
