Trial 1:0back
33.813
34.317
34.859
35.43
36.018
36.613
37.2
37.768
38.306
38.805
39.258
39.661
40.01
40.306
40.55
40.745
40.894
41.0
41.067
41.101
41.106
41.085
41.042
40.981
40.905
40.817
40.718
40.611
40.497
40.378
40.255
40.131
40.006
39.881
39.757
39.633
39.509
39.387
39.266
39.147
39.032
38.92
38.811
38.706
38.604
38.505
38.409
38.315
38.222
38.129
38.035
37.94
37.845
37.75
37.656
37.562
37.469
37.378
37.289
37.201
37.115
37.031
36.95
36.871
36.796
36.724
36.658
36.597
36.545
36.5
36.463
36.434
36.412
36.399
36.394
36.398
36.409
36.428
36.455
36.488
36.525
36.567
36.612
36.659
36.709
36.759
36.81
36.86
36.906
36.949
36.986
37.017
37.04
37.054
37.058
37.053
37.038
37.014
36.982
36.94
36.89
36.833
36.77
36.7
36.623
36.54
36.451
36.357
36.259
36.159
36.058
35.956
35.856
35.757
35.658
35.56
35.462
35.365
35.268
35.172
35.077
34.981
34.886
34.791
34.696
34.603
34.512
34.423
34.338
34.256
34.177
34.101
34.027
33.955
33.884
33.816
33.748
33.683
33.619
33.557
33.497
33.438
33.383
33.33
33.281
33.237
33.197
33.163
33.133
33.109
33.088
33.071
33.057
33.045
33.034
33.023
33.013
33.003
32.995
32.987
32.98
32.974
32.968
32.961
32.954
32.946
32.938
32.93
32.923
32.916
32.909
32.901
32.893
32.882
32.868
32.853
32.835
32.817
32.798
32.779
32.759
32.739
32.72
32.7
32.681
32.662
32.641
32.62
32.597
32.573
32.547
32.52
32.492
32.462
32.431
32.399
32.367
32.334
32.3
32.266
32.231
32.196
32.161
32.126
32.092
32.058
32.025
31.993
31.961
31.929
31.896
31.864
31.833
31.803
31.774
31.747
31.723
31.7
31.678
31.657
31.63
31.597
31.557
31.513
31.466
31.418
31.371
31.328
31.29
31.259
31.235
31.216
31.203
31.194
31.187
31.181
31.174
31.166
31.155
31.142
31.127
31.11
31.092
31.072
31.052
31.032
31.013
30.997
30.984
30.974
30.97
30.973
30.986
31.013
31.059
31.132
31.238
31.388
31.589
31.848
32.171
32.559
33.011
33.524
34.092
34.705
35.351
36.019
36.693
37.361
38.009
38.626
39.2
39.724
40.191
40.596
40.939
41.219
41.438
41.6
41.709
41.77
41.789
41.773
41.726
41.654
41.562
41.457
41.348
41.24
41.134
41.029
40.923
40.814
40.701
40.582
40.457
40.326
40.187
40.043
39.893
39.741
39.587
39.435
39.284
39.138
38.997
38.863
38.738
38.622
38.516
38.418
38.33
38.25
38.178
38.112
38.051
37.993
37.936
37.878
37.817
37.753
37.683
37.609
37.53
37.446
37.359
37.269
37.177
37.085
36.995
36.908
36.826
36.75
36.681
36.621
36.571
36.53
36.5
36.479
36.467
36.464
36.468
36.48
36.499
36.526
36.557
36.591
36.627
36.661
36.695
36.728
36.758
36.784
36.807
36.826
36.84
36.849
36.853
36.851
36.842
36.826
36.804
36.776
36.742
36.702
36.655
36.602
36.543
36.479
36.409
36.335
36.258
36.177
36.095
36.012
35.928
35.844
35.758
35.672
35.585
35.497
35.407
35.316
35.225
35.131
35.038
34.943
34.849
34.756
34.664
34.573
34.483
34.394
34.307
34.221
34.139
34.06
33.985
33.913
33.845
33.779
33.714
33.651
33.59
33.53
33.472
33.416
33.364
33.315
33.27
33.23
33.195
33.165
33.141
33.122
33.107
33.096
33.087
33.081
33.075
33.069
33.063
33.056
33.049
33.041
33.034
33.027
33.02
33.013
33.006
33.0
32.993
32.987
32.98
32.972
32.964
32.955
32.944
32.932
32.918
32.901
32.883
32.863
32.841
32.82
32.798
32.777
32.756
32.735
32.712
32.689
32.665
32.64
32.614
32.588
32.562
32.537
32.513
32.489
32.467
32.445
32.425
32.406
32.389
32.374
32.36
32.348
32.338
32.327
32.317
32.307
32.297
32.287
32.275
32.26
32.242
32.222
32.199
32.175
32.151
32.127
32.105
32.082
32.059
32.037
32.013
31.988
31.963
31.936
31.908
31.879
31.848
31.816
31.782
31.747
31.71
31.672
31.633
31.595
31.557
31.52
31.485
31.452
31.421
31.392
31.364
31.34
31.319
31.302
31.291
31.288
31.296
31.316
31.355
31.417
31.509
31.639
31.813
32.039
32.321
32.66
33.059
33.515
34.023
34.576
35.164
35.773
36.393
37.01
37.614
38.191
38.733
39.23
39.678
40.072
40.411
40.695
40.925
41.104
41.234
41.32
41.367
41.381
41.364
41.324
41.265
41.191
41.105
41.011
40.911
40.806
40.697
40.584
40.468
40.35
40.231
40.11
39.987
39.863
39.738
39.613
39.488
39.364
39.244
39.127
39.014
38.905
38.8
38.699
38.602
38.507
38.415
38.323
38.231
38.138
38.043
37.946
37.847
37.746
37.641
37.534
37.424
37.313
37.201
37.088
36.976
36.866
36.76
36.658
36.564
36.479
36.404
36.34
36.287
36.248
36.224
36.213
36.215
36.229
36.254
36.289
36.331
36.38
36.435
36.493
36.553
36.613
36.672
36.729
36.784
36.835
36.88
36.921
36.956
36.985
37.009
37.026
37.037
37.04
37.035
37.022
37.002
36.974
36.938
36.894
36.844
36.787
36.725
36.657
36.584
36.508
36.428
36.346
36.261
36.173
36.083
35.99
35.895
35.799
35.702
35.605
35.509
35.414
35.319
35.226
35.133
35.04
34.947
34.854
34.763
34.673
34.584
34.496
34.412
34.329
34.25
34.171
34.094
34.018
33.942
33.867
33.792
33.718
33.646
33.575
33.507
33.443
33.383
33.326
33.274
33.227
33.183
33.144
33.11
33.08
33.054
33.032
33.013
32.998
32.985
32.976
32.968
32.963
32.958
32.955
32.953
32.95
32.947
32.943
32.939
32.933
32.926
32.917
32.907
32.895
32.882
32.869
32.855
32.841
32.827
32.813
32.8
32.787
32.775
32.764
32.754
32.744
32.736
32.726
32.716
32.703
32.689
32.672
32.655
32.635
32.615
32.593
32.571
32.547
32.523
32.499
32.474
32.451
32.427
32.404
32.381
32.357
32.332
32.306
32.279
32.249
32.219
32.189
32.158
32.128
32.099
32.07
32.041
32.013
31.986
31.958
31.929
31.899
31.867
31.833
31.797
31.76
31.723
31.685
31.646
31.609
31.572
31.536
31.501
31.466
31.432
31.399
31.368
31.337
31.308
31.283
31.26
31.242
31.228
31.22
31.219
31.227
31.246
31.281
31.336
31.418
31.532
31.686
31.889
32.148
32.469
32.855
33.306
33.82
34.39
35.006
35.658
36.333
37.016
37.693
38.35
38.974
39.556
40.087
40.559
40.969
41.316
41.6
41.824
41.99
42.104
42.169
42.193
42.18
42.137
42.07
41.984
41.882
41.768
41.645
41.517
41.385
41.251
41.117
40.982
40.847
40.712
40.577
40.442
40.308
40.173
40.037
39.9
39.764
39.629
39.495
39.363
39.235
39.111
38.993
38.882
38.778
38.681
38.592
38.51
38.433
38.361
38.291
38.223
38.154
38.084
38.011
37.934
37.851
37.763
37.671
37.575
37.478
37.382
37.288
37.197
37.111
37.031
36.958
36.893
36.838
36.791
36.756
36.733
36.721
36.722
36.733
36.754
36.783
36.818
36.858
36.899
36.94
36.979
37.016
37.048
37.076
37.097
37.114
37.125
37.132
37.135
37.132
37.125
37.113
37.097
37.075
37.047
37.013
36.973
36.925
36.87
36.809
36.742
36.668
36.588
36.503
36.414
36.321
36.225
36.128
36.03
35.93
35.829
35.727
35.624
35.52
35.415
35.31
35.206
35.101
34.998
34.895
34.793
34.692
34.593
34.497
34.402
34.308
34.217
34.129
34.042
33.958
33.877
33.8
33.725
33.654
33.587
33.524
33.465
33.411
33.362
33.317
33.277
33.241
33.209
33.181
33.154
33.13
33.108
33.086
33.064
33.043
33.023
33.002
32.981
32.959
32.938
32.919
32.901
32.886
32.874
32.865
32.858
32.855
32.853
32.853
32.854
32.856
32.856
32.855
32.851
32.846
32.837
32.825
32.812
32.796
32.779
32.762
32.745
32.728
32.711
32.696
32.681
32.666
32.649
32.631
32.611
32.589
32.564
32.538
32.511
32.485
32.462
32.443
32.427
32.413
32.4
32.386
32.37
32.351
32.327
32.299
32.267
32.231
32.191
32.149
32.107
32.064
32.023
31.985
31.949
31.917
31.887
31.86
31.835
31.812
31.789
31.767
31.744
31.72
31.694
31.667
31.639
31.609
31.577
31.545
31.512
31.481
31.449
31.419
31.39
31.36
31.332
31.304
31.277
31.251
31.226
31.202
31.18
31.16
31.142
31.127
31.115
31.108
31.107
31.112
31.126
31.151
31.192
31.255
31.344
31.469
31.637
31.857
32.134
32.472
32.873
33.335
33.855
34.424
35.033
35.672
36.328
36.987
37.636
38.262
38.853
39.398
39.89
40.323
40.693
40.999
41.243
41.426
41.553
41.629
41.661
41.656
41.62
41.559
41.479
41.385
41.28
41.168
41.05
40.93
40.808
40.684
40.561
40.437
40.314
40.191
40.069
39.947
39.826
39.706
39.586
39.467
39.35
39.235
39.12
39.008
38.897
38.788
38.679
38.571
38.463
38.356
38.25
38.145
38.04
37.936
37.833
37.73
37.627
37.524
37.423
37.322
37.222
37.124
37.028
36.937
36.85
36.77
36.698
36.635
36.583
36.543
36.514
36.498
36.494
36.502
36.522
36.552
36.592
36.64
36.696
36.757
36.821
36.888
36.955
37.021
37.085
37.144
37.198
37.246
37.289
37.325
37.356
37.38
37.397
37.406
37.406
37.398
37.379
37.352
37.315
37.271
37.218
37.158
37.091
37.019
36.942
36.861
36.777
36.689
36.598
36.505
36.41
36.312
36.213
36.112
36.01
35.907
35.804
35.7
35.597
35.494
35.392
35.29
35.19
35.091
34.993
34.894
34.797
34.699
34.602
34.504
34.408
34.312
34.218
34.126
34.037
33.952
33.871
33.794
33.721
33.653
33.59
33.531
33.478
33.43
33.387
33.348
33.314
33.283
33.255
33.23
33.207
33.188
33.171
33.155
33.142
33.131
33.121
33.114
33.107
33.102
33.097
33.094
33.091
33.088
33.084
33.08
33.076
33.072
33.068
33.066
33.064
33.064
33.062
33.06
33.057
33.052
33.046
33.038
33.028
33.016
33.003
32.989
32.973
32.955
32.937
32.917
32.895
32.872
32.847
32.821
32.795
32.769
32.744
32.72
32.696
32.672
32.647
32.621
32.593
32.562
32.529
32.496
32.462
32.428
32.397
32.368
32.342
32.319
32.3
32.283
32.27
32.258
32.248
32.237
32.225
32.211
32.194
32.174
32.15
32.122
32.091
32.057
32.019
31.977
31.932
31.884
31.835
31.784
31.732
31.68
31.629
31.581
31.534
31.491
31.451
31.416
31.386
31.363
31.347
31.339
31.342
31.356
31.385
31.433
31.505
31.607
31.749
31.938
32.183
32.488
32.859
33.296
33.796
34.356
34.967
35.618
36.294
36.982
37.668
38.337
38.978
39.58
40.132
40.627
41.062
41.433
41.74
41.984
42.168
42.297
42.375
42.41
42.407
42.373
42.313
42.233
42.139
42.034
41.921
41.803
41.68
41.554
41.424
41.292
41.157
41.02
40.881
40.742
40.603
40.463
40.324
40.186
40.05
39.916
39.787
39.662
39.542
39.429
39.322
39.221
39.125
39.034
38.947
38.864
38.783
38.704
38.626
38.548
38.469
38.388
38.305
38.219
38.131
38.041
37.95
37.859
37.768
37.678
37.59
37.505
37.424
37.349
37.281
37.22
37.167
37.123
37.089
37.063
37.047
37.04
37.042
37.053
37.072
37.099
37.131
37.168
37.208
37.25
37.292
37.333
37.373
37.41
37.444
37.473
37.496
37.512
37.521
37.521
37.512
37.494
37.467
37.431
37.388
37.336
37.278
37.214
37.143
37.067
36.987
36.902
36.815
36.724
36.63
36.534
36.435
36.334
36.228
36.12
36.007
35.891
35.771
35.649
35.524
35.398
35.27
35.143
35.014
34.88
34.74
34.596
34.451
34.308
34.169
34.037
33.915
33.802
33.701
33.61
33.529
33.457
33.393
33.335
33.283
33.236
33.193
33.154
33.117
33.084
33.053
33.025
32.997
32.971
32.945
32.92
32.895
32.871
32.847
32.825
32.803
32.782
32.762
32.743
32.726
32.709
32.693
32.677
32.663
32.65
32.638
32.627
32.616
32.606
32.596
32.586
32.577
32.567
32.558
32.549
32.539
32.529
32.519
32.509
32.499
32.488
32.477
32.465
32.453
32.439
32.423
32.405
32.384
32.361
32.336
32.308
32.279
32.249
32.217
32.184
32.151
32.118
32.085
32.053
32.023
31.993
31.964
31.936
31.907
31.878
31.848
31.818
31.787
31.757
31.726
31.696
31.667
31.641
31.616
31.592
31.569
31.547
31.524
31.501
31.477
31.451
31.425
31.398
31.371
31.344
31.319
31.293
31.268
31.242
31.215
31.189
31.162
31.135
31.109
31.083
31.059
31.034
31.011
30.988
30.967
30.946
30.927
30.907
30.885
30.863
30.844
30.831
30.827
30.837
30.867
30.925
31.017
31.153
31.34
31.586
31.897
32.275
32.722
33.234
33.805
34.426
35.087
35.773
36.472
37.169
37.849
38.499
39.109
39.667
40.168
40.607
40.983
41.296
41.546
41.738
41.877
41.967
42.015
42.026
42.006
41.961
41.895
41.811
41.714
41.606
41.489
41.366
41.236
41.103
40.967
40.829
40.69
40.552
40.414
40.276
40.14
40.005
39.873
39.743
39.614
39.487
39.361
39.239
39.119
39.003
38.889
38.778
38.672
38.569
38.471
38.375
38.28
38.186
38.091
37.997
37.901
37.805
37.707
37.607
37.506
37.406
37.305
37.207
37.113
37.022
36.938
36.861
36.792
36.733
36.687
36.653
36.634
36.629
36.638
36.66
36.694
36.738
36.791
36.852
36.92
36.992
37.066
37.142
37.217
37.289
37.356
37.418
37.473
37.521
37.561
37.593
37.616
37.63
37.635
37.629
37.614
37.59
37.557
37.516
37.467
37.411
37.35
37.283
37.212
37.137
37.059
36.977
36.892
36.801
36.706
36.607
36.503
36.395
36.282
36.166
36.047
35.926
35.803
35.681
35.56
35.441
35.325
35.213
35.104
34.999
34.898
34.801
34.707
34.617
34.529
34.445
34.363
34.283
34.206
34.131
34.06
33.993
33.928
33.868
33.811
33.758
33.709
33.665
33.625
33.589
33.556
33.525
33.496
33.469
33.443
33.418
33.395
33.373
33.353
33.335
33.317
33.301
33.285
33.271
33.258
33.247
33.237
33.23
33.225
33.222
33.22
33.22
33.22
33.221
33.222
33.221
33.217
33.211
33.201
33.188
33.172
33.155
33.135
33.115
33.094
33.072
33.051
33.029
33.006
32.982
32.957
32.932
32.905
32.878
32.85
32.822
32.794
32.767
32.741
32.716
32.692
32.669
32.646
32.623
32.6
32.576
32.551
32.527
32.501
32.475
32.448
32.419
32.389
32.357
32.324
32.292
32.26
32.229
32.199
32.172
32.146
32.121
32.096
32.071
32.045
32.019
31.992
31.964
31.933
31.901
31.869
31.837
31.805
31.774
31.743
31.713
31.684
31.656
31.628
31.601
31.576
31.552
31.531
31.511
31.493
31.476
31.461
31.448
31.438
31.431
31.429
31.434
31.45
31.479
31.528
31.603
31.712
31.862
32.064
32.324
32.649
33.042
33.505
34.035
34.624
35.264
35.942
36.644
37.355
38.061
38.745
39.395
39.999
40.548
41.037
41.46
41.818
42.109
42.338
42.507
42.622
42.689
42.716
42.708
42.672
42.613
42.536
42.446
42.345
42.238
42.127
42.011
41.892
41.772
41.65
41.526
41.4
41.272
41.14
41.006
40.868
40.728
40.586
40.443
40.301
40.159
40.02
39.884
39.754
39.629
39.51
39.398
39.292
39.193
39.1
39.011
38.925
38.842
38.759
38.676
38.592
38.507
38.42
38.33
38.239
38.145
38.05
37.955
37.86
37.768
37.679
37.594
37.515
37.443
37.38
37.325
37.282
37.248
37.225
37.212
37.209
37.216
37.232
37.256
37.287
37.324
37.366
37.412
37.459
37.505
37.55
37.591
37.629
37.662
37.689
37.71
37.731
37.751
37.772
37.789
37.802
37.807
37.802
37.785
37.755
37.71
37.65
37.575
37.487
37.386
37.276
37.157
37.032
36.902
36.768
36.634
36.501
36.369
36.24
36.113
35.991
35.872
35.756
35.643
35.533
35.425
35.318
35.213
35.109
35.006
34.904
34.803
34.703
34.604
34.507
34.412
34.32
34.229
34.142
34.057
33.975
33.896
33.82
33.747
33.676
33.608
33.543
33.481
33.422
33.368
33.319
33.273
33.233
33.198
33.168
33.142
33.121
33.103
33.088
33.076
33.067
33.058
33.048
33.036
33.023
33.007
32.988
32.967
32.945
32.922
32.901
32.881
32.864
32.849
32.835
32.823
32.811
32.798
32.786
32.773
32.759
32.744
32.726
32.707
32.687
32.667
32.645
32.623
32.601
32.579
32.556
32.532
32.506
32.48
32.452
32.423
32.393
32.362
32.329
32.295
32.258
32.219
32.178
32.135
32.091
32.048
32.005
31.965
31.927
31.893
31.861
31.833
31.807
31.783
31.761
31.74
31.72
31.701
31.683
31.664
31.646
31.627
31.607
31.585
31.559
31.53
31.498
31.463
31.425
31.384
31.341
31.297
31.252
31.205
31.159
31.114
31.072
31.034
31.001
30.975
30.954
30.938
30.928
30.922
30.921
30.924
30.932
30.946
30.97
31.007
31.061
31.138
31.245
31.391
31.583
31.829
32.137
32.508
32.945
33.446
34.004
34.612
35.259
35.932
36.618
37.302
37.97
38.609
39.209
39.759
40.253
40.687
41.057
41.365
41.612
41.801
41.938
42.027
42.075
42.087
42.07
42.028
41.965
41.886
41.795
41.694
41.587
41.474
41.357
41.237
41.114
40.989
40.861
40.73
40.596
40.459
40.317
40.173
40.027
39.882
39.739
39.598
39.46
39.328
39.2
39.08
38.965
38.856
38.753
38.657
38.565
38.478
38.395
38.315
38.234
38.153
38.071
37.985
37.896
37.804
37.71
37.614
37.517
37.421
37.328
37.239
37.156
37.081
37.014
36.958
36.912
36.877
36.855
36.845
36.847
36.86
36.884
36.915
36.953
36.998
37.046
37.096
37.148
37.199
37.249
37.297
37.341
37.38
37.413
37.439
37.458
37.471
37.476
37.476
37.469
37.456
37.436
37.411
37.379
37.34
37.294
37.242
37.184
37.12
37.051
36.977
36.896
36.811
36.722
36.627
36.528
36.425
36.318
36.208
36.096
35.983
35.871
35.759
35.65
35.542
35.438
35.337
35.24
35.147
35.056
34.968
34.882
34.797
34.713
34.63
34.549
34.468
34.388
34.31
34.233
34.158
34.085
34.014
33.946
33.882
33.822
33.766
33.715
33.67
33.629
33.593
33.563
33.537
33.515
33.496
33.479
33.463
33.447
33.432
33.417
33.404
33.39
33.377
33.364
33.353
33.345
33.339
33.335
33.334
33.333
33.333
33.333
33.332
33.33
33.326
33.322
33.317
33.31
33.302
33.293
33.284
33.275
33.265
33.256
33.247
33.237
33.227
33.215
33.202
33.187
33.169
33.15
33.128
33.105
33.081
33.055
33.028
33.001
32.974
32.948
32.921
32.895
32.869
32.841
32.812
32.78
32.745
32.707
32.668
32.627
32.585
32.543
32.5
32.458
32.416
32.375
32.334
32.293
32.253
32.212
32.172
32.131
32.091
32.053
32.016
31.981
31.95
31.923
31.9
31.882
31.869
31.862
31.863
31.875
31.899
31.941
32.005
32.099
32.227
32.396
32.613
32.882
33.208
33.59
34.028
34.516
35.048
35.615
36.206
36.811
37.417
38.014
38.59
39.136
39.642
40.103
40.515
40.873
41.178
41.428
41.626
41.775
41.878
41.938
41.961
41.952
41.916
41.858
41.781
41.69
41.588
41.478
41.363
41.243
41.121
40.998
40.875
40.751
40.628
40.504
40.38
40.255
40.13
40.002
39.874
39.744
39.614
39.483
39.354
39.226
39.1
38.977
38.858
38.743
38.631
38.524
38.421
38.32
38.22
38.121
38.021
37.92
37.816
37.711
37.604
37.496
37.388
37.282
37.179
37.08
36.989
36.908
36.838
36.78
36.735
36.704
36.687
36.682
36.691
36.711
36.743
36.784
36.834
36.891
36.956
37.026
37.1
37.175
37.248
37.318
37.382
37.438
37.485
37.524
37.552
37.57
37.578
37.576
37.564
37.543
37.514
37.477
37.432
37.381
37.325
37.264
37.198
37.127
37.052
36.972
36.888
36.8
36.707
36.611
36.511
36.408
36.303
36.195
36.086
35.975
35.864
35.752
35.64
35.529
35.418
35.308
35.198
35.089
34.982
34.876
34.772
34.671
34.573
34.477
34.383
34.293
34.206
34.123
34.046
33.973
33.906
33.843
33.784
33.73
33.68
33.634
33.591
33.551
33.513
33.477
33.441
33.406
33.371
33.338
33.307
33.278
33.253
33.23
33.21
33.192
33.176
33.162
33.149
33.137
33.127
33.117
33.109
33.102
33.096
33.093
33.09
33.087
33.085
33.083
33.08
33.075
33.067
33.056
33.043
33.028
33.012
32.993
32.972
32.949
32.926
32.902
32.877
32.853
32.828
32.803
32.779
32.753
32.725
32.696
32.666
32.634
32.602
32.569
32.536
32.504
32.473
32.445
32.42
32.398
32.379
32.363
32.349
32.337
32.326
32.313
32.298
32.281
32.26
32.236
32.21
32.181
32.152
32.12
32.087
32.053
32.019
31.983
31.947
31.912
31.876
31.84
31.803
31.764
31.724
31.683
31.642
31.602
31.563
31.527
31.494
31.464
31.436
31.413
31.393
31.379
31.372
31.374
31.389
31.42
31.474
31.558
31.679
31.845
32.065
32.346
32.69
33.1
33.574
34.107
34.692
35.317
35.972
