Trial 1:0back
35.294
35.288
35.282
35.279
35.278
35.278
35.279
35.282
35.287
35.291
35.296
35.301
35.305
35.309
35.313
35.315
35.317
35.318
35.317
35.316
35.313
35.311
35.308
35.306
35.303
35.3
35.296
35.291
35.285
35.278
35.27
35.261
35.251
35.241
35.231
35.22
35.209
35.197
35.183
35.169
35.153
35.139
35.126
35.116
35.109
35.104
35.102
35.102
35.104
35.107
35.111
35.116
35.12
35.123
35.125
35.124
35.121
35.115
35.108
35.099
35.09
35.081
35.073
35.066
35.059
35.053
35.049
35.044
35.04
35.035
35.029
35.021
35.012
35.001
34.988
34.974
34.96
34.947
34.934
34.924
34.914
34.906
34.898
34.891
34.884
34.877
34.869
34.862
34.854
34.847
34.838
34.828
34.817
34.804
34.791
34.782
34.776
34.772
34.771
34.77
34.769
34.766
34.76
34.751
34.738
34.722
34.705
34.686
34.668
34.649
34.631
34.613
34.595
34.579
34.564
34.552
34.542
34.536
34.532
34.531
34.531
34.533
34.536
34.54
34.545
34.55
34.553
34.555
34.556
34.554
34.551
34.547
34.541
34.535
34.53
34.532
34.539
34.551
34.565
34.579
34.59
34.597
34.599
34.595
34.584
34.568
34.545
34.519
34.49
34.459
34.43
34.403
34.379
34.359
34.343
34.33
34.321
34.315
34.311
34.309
34.306
34.304
34.301
34.297
34.291
34.283
34.275
34.268
34.263
34.261
34.263
34.27
34.283
34.301
34.326
34.357
34.395
34.438
34.487
34.541
34.599
34.661
34.725
34.789
34.853
34.913
34.968
35.019
35.063
35.1
35.13
35.153
35.17
35.183
35.193
35.201
35.207
35.211
35.213
35.215
35.215
35.213
35.209
35.204
35.197
35.189
35.178
35.164
35.149
35.133
35.118
35.104
35.093
35.085
35.081
35.078
35.079
35.082
35.087
35.093
35.101
35.108
35.115
35.122
35.126
35.13
35.131
35.131
35.129
35.125
35.118
35.111
35.101
35.09
35.077
35.062
35.044
35.026
35.008
34.99
34.975
34.963
34.953
34.947
34.944
34.944
34.948
34.955
34.965
34.978
34.992
35.007
35.021
35.034
35.046
35.054
35.059
35.06
35.057
35.049
35.037
35.02
35.002
34.981
34.961
34.943
34.928
34.916
34.909
34.907
34.908
34.913
34.92
34.927
34.934
34.939
34.942
34.942
34.939
34.934
34.927
34.919
34.91
34.902
34.896
34.892
34.89
34.889
34.891
34.892
34.894
34.896
34.897
34.895
34.89
34.884
34.876
34.87
34.865
34.862
34.86
34.858
34.856
34.854
34.852
34.849
34.844
34.838
34.831
34.822
34.811
34.797
34.78
34.762
34.742
34.722
34.702
34.685
34.669
34.656
34.645
34.636
34.631
34.627
34.623
34.62
34.616
34.612
34.606
34.6
34.593
34.584
34.574
34.564
34.554
34.544
34.535
34.528
34.524
34.522
34.522
34.525
34.531
34.539
34.55
34.562
34.575
34.588
34.601
34.611
34.618
34.623
34.624
34.623
34.619
34.614
34.607
34.601
34.596
34.592
34.592
34.593
34.596
34.599
34.603
34.607
34.61
34.611
34.611
34.609
34.605
34.6
34.594
34.589
34.586
34.585
34.586
34.592
34.6
34.613
34.628
34.646
34.666
34.686
34.708
34.732
34.757
34.784
34.813
34.845
34.879
34.915
34.955
34.998
35.043
35.091
35.14
35.188
35.232
35.272
35.308
35.337
35.359
35.372
35.377
35.373
35.361
35.343
35.32
35.295
35.268
35.241
35.217
35.195
35.179
35.167
35.159
35.155
35.154
35.154
35.156
35.159
35.161
35.164
35.166
35.169
35.17
35.17
35.169
35.166
35.163
35.16
35.158
35.156
35.155
35.155
35.155
35.155
35.157
35.159
35.16
35.161
35.161
35.16
35.157
35.151
35.142
35.131
35.118
35.104
35.088
35.074
35.061
35.05
35.042
35.038
35.037
35.039
35.043
35.048
35.053
35.057
35.059
35.058
35.055
35.049
35.043
35.036
35.029
35.024
35.019
35.015
35.012
35.01
35.008
35.007
35.006
35.006
35.005
35.005
35.005
35.004
35.001
34.997
34.991
34.984
34.975
34.965
34.955
34.944
34.934
34.924
34.916
34.909
34.905
34.903
34.903
34.903
34.903
34.9
34.895
34.888
34.878
34.867
34.855
34.842
34.829
34.817
34.806
34.796
34.789
34.784
34.782
34.783
34.786
34.791
34.797
34.803
34.808
34.813
34.815
34.814
34.812
34.808
34.802
34.796
34.79
34.783
34.777
34.771
34.765
34.759
34.754
34.748
34.743
34.737
34.73
34.721
34.711
34.701
34.692
34.684
34.677
34.672
34.669
34.668
34.67
34.673
34.676
34.679
34.68
34.68
34.678
34.674
34.668
34.66
34.65
34.638
34.625
34.61
34.596
34.581
34.567
34.555
34.545
34.537
34.53
34.524
34.518
34.512
34.507
34.503
34.499
34.497
34.492
34.482
34.466
34.446
34.426
34.408
34.393
34.384
34.381
34.384
34.393
34.407
34.422
34.439
34.456
34.473
34.491
34.511
34.532
34.555
34.579
34.606
34.635
34.667
34.702
34.742
34.786
34.833
34.883
34.934
34.987
35.039
35.09
35.139
35.187
35.232
35.275
35.314
35.348
35.379
35.404
35.423
35.436
35.445
35.45
35.45
35.447
35.44
35.429
35.416
35.401
35.384
35.367
35.348
35.33
35.312
35.294
35.277
35.263
35.251
35.243
35.239
35.24
35.245
35.253
35.264
35.274
35.285
35.296
35.305
35.312
35.318
35.32
35.32
35.317
35.312
35.305
35.295
35.284
35.271
35.255
35.238
35.22
35.201
35.18
35.16
35.14
35.122
35.109
35.1
35.095
35.095
35.099
35.108
35.119
35.134
35.151
35.17
35.19
35.21
35.23
35.247
35.261
35.269
35.273
35.27
35.263
35.251
35.236
35.219
35.201
35.184
35.168
35.154
35.144
35.137
35.134
35.136
35.141
35.149
35.16
35.171
35.182
35.193
35.203
35.21
35.213
35.213
35.209
35.201
35.19
35.174
35.155
35.135
35.114
35.092
35.07
35.048
35.025
35.001
34.978
34.955
34.933
34.913
34.896
34.882
34.871
34.863
34.858
34.855
34.854
34.854
34.855
34.856
34.858
34.861
34.864
34.866
34.867
34.867
34.865
34.861
34.854
34.844
34.833
34.822
34.811
34.802
34.795
34.791
34.792
34.795
34.802
34.812
34.822
34.833
34.841
34.848
34.853
34.854
34.853
34.849
34.841
34.831
34.818
34.806
34.795
34.786
34.779
34.775
34.772
34.772
34.774
34.775
34.776
34.776
34.774
34.77
34.766
34.761
34.755
34.748
34.738
34.726
34.712
34.697
34.681
34.665
34.652
34.641
34.633
34.627
34.623
34.62
34.618
34.617
34.617
34.617
34.617
34.616
34.614
34.612
34.611
34.611
34.615
34.622
34.634
34.653
34.68
34.715
34.757
34.808
34.864
34.925
34.991
35.057
35.125
35.191
35.253
35.311
35.364
35.411
35.453
35.491
35.526
35.556
35.583
35.605
35.623
35.635
35.642
35.643
35.64
35.631
35.617
35.599
35.578
35.552
35.525
35.497
35.469
35.443
35.418
35.396
35.378
35.363
35.352
35.344
35.34
35.339
35.341
35.344
35.348
35.351
35.352
35.35
35.346
35.341
35.334
35.328
35.322
35.318
35.314
35.312
35.31
35.307
35.304
35.301
35.296
35.29
35.283
35.275
35.265
35.252
35.239
35.226
35.213
35.202
35.193
35.186
35.183
35.182
35.183
35.186
35.191
35.197
35.203
35.21
35.218
35.225
35.233
35.241
35.248
35.256
35.263
35.27
35.276
35.282
35.287
35.291
35.292
35.291
35.287
35.279
35.267
35.254
35.238
35.221
35.202
35.182
35.161
35.142
35.123
35.107
35.092
35.081
35.072
35.065
35.059
35.055
35.05
35.046
35.041
35.035
35.028
35.02
35.011
35.002
34.993
34.985
34.977
34.97
34.963
34.958
34.954
34.953
34.953
34.955
34.957
34.959
34.96
34.961
34.96
34.958
34.954
34.947
34.938
34.925
34.91
34.894
34.877
34.862
34.848
34.838
34.83
34.826
34.825
34.826
34.83
34.836
34.843
34.85
34.858
34.865
34.87
34.874
34.876
34.875
34.873
34.87
34.867
34.864
34.862
34.86
34.86
34.86
34.86
34.861
34.862
34.863
34.864
34.867
34.87
34.875
34.879
34.884
34.889
34.894
34.898
34.902
34.904
34.906
34.906
34.904
34.899
34.893
34.885
34.874
34.863
34.85
34.836
34.822
34.808
34.795
34.782
34.771
34.762
34.757
34.757
34.764
34.777
34.795
34.82
34.85
34.886
34.927
34.973
35.022
35.073
35.125
35.177
35.229
35.28
35.33
35.378
35.423
35.466
35.506
35.543
35.575
35.603
35.627
35.647
35.665
35.68
35.691
35.698
35.702
35.701
35.697
35.688
35.675
35.659
35.64
35.62
35.599
35.58
35.563
35.549
35.537
35.529
35.524
35.522
35.521
35.522
35.523
35.524
35.524
35.522
35.519
35.514
35.508
35.499
35.489
35.477
35.465
35.454
35.443
35.433
35.423
35.414
35.406
35.397
35.39
35.382
35.373
35.363
35.351
35.338
35.323
35.307
35.292
35.277
35.264
35.253
35.244
35.237
35.234
35.233
35.233
35.236
35.24
35.245
35.251
35.259
35.268
35.277
35.286
35.293
35.299
35.303
35.305
35.304
35.302
35.298
35.293
35.286
35.279
35.272
35.264
35.256
35.248
35.241
35.235
35.23
35.224
35.22
35.215
35.21
35.203
35.195
35.186
35.174
35.161
35.146
35.131
35.116
35.102
35.089
35.078
35.069
35.062
35.056
35.052
35.047
35.043
35.038
35.033
35.027
35.02
35.012
35.006
34.999
34.994
34.99
34.986
34.985
34.985
34.986
34.987
34.988
34.986
34.984
34.981
34.977
34.973
34.968
34.963
34.959
34.956
34.955
34.956
34.959
34.964
34.97
34.978
34.988
34.997
35.006
35.012
35.016
35.016
35.013
35.007
35.0
34.991
34.981
34.972
34.962
34.952
34.943
34.933
34.925
34.918
34.912
34.907
34.902
34.896
34.889
34.881
34.871
34.859
34.845
34.831
34.816
34.801
34.787
34.774
34.762
34.751
34.741
34.733
34.727
34.723
34.722
34.725
34.73
34.736
34.744
34.752
34.76
34.768
34.776
34.783
34.788
34.792
34.796
34.799
34.804
34.811
34.822
34.837
34.857
34.883
34.915
34.951
34.993
35.039
35.09
35.143
35.199
35.256
35.315
35.373
35.43
35.485
35.536
35.583
35.627
35.668
35.704
35.737
35.763
35.785
35.8
35.809
35.811
35.806
35.795
35.777
35.755
35.729
35.699
35.668
35.638
35.609
35.585
35.567
35.555
35.548
35.546
35.546
35.542
35.534
35.521
35.504
35.486
35.468
35.453
35.441
35.435
35.433
35.436
35.445
35.457
35.473
35.491
35.511
35.531
35.55
35.566
35.578
35.585
35.586
35.581
35.57
35.555
35.537
35.518
35.498
35.48
35.463
35.449
35.438
35.431
35.428
35.43
35.435
35.445
35.457
35.472
35.488
35.504
35.52
35.534
35.545
35.554
35.559
35.561
35.56
35.558
35.556
35.553
35.552
35.552
35.553
35.554
35.557
35.559
35.561
35.562
35.561
35.558
35.554
35.549
35.542
35.532
35.519
35.504
35.486
35.465
35.442
35.418
35.393
35.368
35.343
35.32
35.298
35.28
35.264
35.251
35.241
35.233
35.229
35.227
35.228
35.23
35.234
35.239
35.243
35.246
35.247
35.245
35.24
35.234
35.227
35.221
35.215
35.21
35.207
35.208
35.211
35.217
35.226
35.238
35.252
35.268
35.283
35.296
35.308
35.316
35.321
35.323
35.321
35.317
35.312
35.306
35.301
35.296
35.291
35.287
35.285
35.285
35.287
35.29
35.293
35.295
35.294
35.291
35.285
35.276
35.265
35.251
35.237
35.222
35.208
35.195
35.184
35.174
35.166
35.159
35.154
35.15
35.146
35.142
35.136
35.128
35.117
35.104
35.087
35.068
35.048
35.028
35.009
34.992
34.978
34.966
34.957
34.951
34.947
34.944
34.943
34.941
34.94
34.941
34.942
34.944
34.949
34.957
34.97
34.987
35.008
35.036
35.068
35.105
35.146
35.192
35.24
35.292
35.345
35.4
35.455
35.51
35.563
35.612
35.656
35.694
35.726
35.751
35.769
35.781
35.786
35.786
35.781
35.774
35.765
35.755
35.745
35.735
35.726
35.718
35.71
35.703
35.697
35.691
35.686
35.681
35.677
35.675
35.674
35.674
35.676
35.679
35.683
35.689
35.696
35.704
35.714
35.724
35.734
35.742
35.749
35.751
35.749
35.742
35.73
35.713
35.691
35.666
35.64
35.612
35.586
35.559
35.534
35.511
35.492
35.477
35.468
35.464
35.467
35.476
35.488
35.503
35.52
35.537
35.554
35.569
35.583
35.595
35.605
35.613
35.619
35.622
35.622
35.619
35.614
35.608
35.601
35.595
35.59
35.586
35.585
35.585
35.586
35.586
35.586
35.583
35.579
35.571
35.559
35.544
35.525
35.503
35.478
35.452
35.427
35.403
35.382
35.364
35.349
35.336
35.327
35.319
35.312
35.305
35.299
35.292
35.287
35.282
35.279
35.275
35.271
35.266
35.261
35.254
35.248
35.242
35.238
35.235
35.234
35.236
35.239
35.246
35.256
35.267
35.281
35.296
35.311
35.325
35.338
35.348
35.355
35.359
35.359
35.355
35.349
35.341
35.33
35.32
35.309
35.298
35.287
35.277
35.267
35.259
35.251
35.244
35.238
35.233
35.229
35.225
35.221
35.218
35.214
35.21
35.203
35.195
35.185
35.174
35.163
35.152
35.142
35.134
35.127
35.123
35.121
35.119
35.118
35.116
35.112
35.105
35.097
35.087
35.074
35.06
35.044
35.028
35.012
34.999
34.987
34.978
34.973
34.97
34.971
34.976
34.985
34.997
35.011
35.028
35.045
35.061
35.074
35.086
35.095
35.103
35.111
35.121
35.133
35.149
35.17
35.196
35.227
35.265
35.309
35.358
35.409
35.462
35.516
35.568
35.618
35.665
35.706
35.742
35.771
35.794
35.811
35.822
35.829
35.831
35.83
35.827
35.823
35.82
35.817
35.816
35.817
35.819
35.822
35.825
35.827
35.828
35.826
35.82
35.809
35.793
35.774
35.751
35.727
35.704
35.682
35.662
35.647
35.635
35.628
35.623
35.62
35.617
35.613
35.606
35.597
35.584
35.569
35.551
35.531
35.511
35.49
35.471
35.453
35.438
35.425
35.416
35.409
35.405
35.403
35.403
35.404
35.408
35.415
35.424
35.433
35.442
35.449
35.455
35.459
35.462
35.463
35.463
35.462
35.459
35.456
35.453
35.45
35.449
35.446
35.443
35.439
35.435
35.43
35.424
35.417
35.408
35.398
35.387
35.374
35.359
35.345
35.332
35.321
35.312
35.306
35.301
35.299
35.298
35.298
35.299
35.301
35.303
35.304
35.305
35.306
35.307
35.306
35.304
35.301
35.295
35.288
35.281
35.273
35.265
35.257
35.248
35.239
35.23
35.223
35.216
35.212
35.21
35.21
35.212
35.216
35.22
35.223
35.225
35.226
35.225
35.222
35.22
35.216
35.212
35.208
35.203
35.199
35.194
35.189
35.182
35.175
35.165
35.152
35.139
35.124
35.108
35.091
35.076
35.062
35.05
35.041
35.036
35.034
35.035
35.039
35.045
35.054
35.063
35.072
35.08
35.086
35.088
35.087
35.081
35.07
35.057
35.04
35.021
35.001
34.983
34.966
34.95
34.937
34.925
34.914
34.905
34.9
34.898
34.901
34.907
34.917
34.929
34.944
34.963
34.984
35.007
35.032
35.059
35.088
35.12
35.156
35.198
35.244
35.294
35.348
35.406
35.466
35.528
35.59
35.651
35.71
35.765
35.815
35.858
35.894
35.924
35.948
35.966
35.98
35.989
35.994
35.996
35.996
35.994
35.991
35.987
35.984
35.98
35.977
35.975
35.973
35.972
35.969
35.965
35.959
35.953
35.945
35.936
35.926
35.913
35.898
35.88
35.861
35.842
35.822
35.803
35.784
35.767
35.75
35.735
35.719
35.704
35.688
35.674
35.66
35.648
35.637
35.627
35.617
35.608
35.597
35.586
35.573
35.56
35.547
35.535
35.525
35.518
35.515
35.516
35.521
35.532
35.546
35.564
35.585
35.609
35.634
35.66
35.685
35.707
35.726
35.741
35.751
35.757
35.76
35.759
35.756
35.751
35.746
35.74
35.735
35.73
35.726
35.724
35.724
35.724
35.725
35.725
35.723
35.72
35.714
35.705
35.694
35.682
35.668
35.653
35.638
35.624
35.61
35.597
35.584
35.571
35.56
35.551
35.543
35.537
35.531
35.524
35.514
35.501
35.485
35.465
35.443
35.419
35.395
35.37
35.346
35.323
35.301
35.28
35.262
35.246
35.232
35.219
35.209
35.2
35.193
35.187
35.181
35.173
35.165
35.154
35.144
35.133
35.123
35.112
35.102
35.092
35.084
35.076
35.071
35.067
35.065
35.064
35.062
35.06
35.056
35.05
35.045
35.039
35.034
35.03
35.028
35.028
35.031
35.035
35.041
35.049
35.058
35.068
35.079
35.09
35.103
35.116
35.13
35.142
35.152
35.159
35.162
35.16
35.153
35.142
35.126
35.107
35.085
35.062
35.039
35.018
34.999
34.983
34.97
34.962
34.958
34.958
34.961
34.967
34.974
34.982
34.991
35.001
35.012
35.025
35.04
35.057
35.077
35.101
35.128
35.16
35.197
35.238
35.283
35.334
35.389
35.447
35.508
35.569
35.63
35.689
35.744
35.793
35.837
35.872
35.9
35.918
35.929
35.931
35.926
35.916
35.902
35.886
35.87
35.855
35.839
35.828
35.822
35.824
35.833
35.846
35.862
35.879
35.895
35.909
35.92
35.925
35.926
35.92
35.908
35.892
35.87
35.846
35.82
35.795
35.77
35.748
35.728
35.712
35.7
35.693
35.69
35.689
35.689
35.69
35.691
35.689
35.685
35.678
35.667
35.652
35.637
35.62
35.605
35.591
35.578
35.568
35.561
35.556
35.551
35.546
35.539
35.531
35.523
35.514
35.507
35.501
35.498
35.498
35.501
35.506
35.514
35.525
35.536
35.547
35.558
35.568
35.578
35.586
35.593
35.6
35.606
35.611
35.615
35.616
35.613
35.608
35.599
35.587
35.573
35.556
35.537
35.518
35.497
35.477
35.457
35.437
35.419
35.401
35.385
35.369
35.354
35.342
35.331
35.323
35.317
35.312
35.31
35.309
35.309
35.311
35.314
35.317
35.32
35.321
35.321
35.318
35.315
35.31
35.305
35.299
35.293
35.286
35.278
35.268
35.257
35.246
35.233
35.22
35.206
35.193
35.18
35.169
35.16
35.152
35.145
35.14
35.135
35.132
35.13
35.129
35.129
35.129
35.129
35.128
35.125
35.12
35.112
35.103
35.091
35.076
35.059
35.041
35.023
35.006
34.992
34.979
34.969
34.96
34.954
34.948
34.945
34.942
34.939
34.937
34.934
34.931
34.928
34.924
34.921
34.918
34.915
34.914
34.915
34.917
34.921
34.926
34.931
34.937
34.941
34.944
34.944
34.941
34.935
34.927
34.918
34.906
34.892
34.877
34.862
34.849
34.839
34.832
34.83
34.832
34.839
34.851
34.87
34.894
34.924
34.959
34.998
35.041
35.088
35.138
35.19
35.244
35.298
35.351
35.403
35.453
35.502
35.549
35.594
35.637
35.678
35.716
35.75
35.779
35.804
35.823
35.838
35.846
35.849
35.847
35.84
35.829
35.814
35.797
35.778
35.758
35.738
35.719
35.701
35.687
35.675
35.665
35.658
35.652
35.647
35.642
35.638
35.634
35.63
35.627
35.624
35.621
35.619
35.617
35.616
35.614
35.613
35.61
35.606
35.601
35.594
35.584
35.573
35.559
35.543
35.524
35.503
35.476
35.441
35.402
35.361
35.322
35.287
35.26
35.243
35.236
35.24
35.255
35.279
35.311
35.349
35.389
35.429
35.468
35.503
35.534
35.56
35.581
35.595
35.604
35.607
35.604
35.596
35.584
35.568
35.55
35.53
35.508
35.487
35.466
35.444
35.422
35.4
35.38
35.361
35.343
35.325
35.308
35.291
35.274
35.258
35.243
35.229
35.216
35.204
35.194
35.186
35.181
35.178
35.176
35.175
35.175
35.176
35.179
35.182
35.185
35.187
35.188
35.187
35.185
35.18
35.173
35.165
35.155
35.145
35.136
35.126
35.116
35.108
35.101
35.097
35.096
35.098
35.102
35.108
35.114
35.12
35.126
35.129
35.131
35.131
35.128
35.123
35.116
35.109
35.101
35.094
35.087
35.081
35.075
35.07
35.067
35.063
35.058
35.052
35.046
35.037
35.028
35.019
35.009
35.001
34.993
34.986
34.979
34.972
34.967
34.963
34.96
34.959
34.959
34.958
34.959
34.958
34.957
34.955
34.951
34.946
34.939
34.932
34.926
34.92
34.916
34.913
34.911
34.912
34.915
34.918
34.921
34.922
34.922
34.92
34.915
34.907
34.898
34.887
34.875
34.862
34.85
34.839
34.83
34.823
34.818
34.817
34.822
34.833
34.851
34.875
34.907
34.946
34.991
35.042
35.097
35.155
35.214
35.272
35.329
35.384
35.436
35.484
35.527
35.566
35.598
35.624
35.645
35.659
35.668
35.674
35.678
35.679
35.679
35.678
35.678
35.677
35.677
35.675
35.672
35.666
35.658
35.647
35.633
35.619
35.605
35.591
35.58
35.572
35.568
35.568
35.57
35.574
35.579
35.583
35.586
35.587
35.585
35.58
35.57
35.556
35.538
35.515
35.489
35.46
35.43
35.399
35.37
35.341
35.315
35.294
35.276
35.262
35.252
35.245
35.24
35.236
35.234
35.234
35.235
35.238
35.242
35.248
35.256
35.265
35.277
35.289
35.303
35.316
35.329
35.341
35.351
35.358
35.363
35.365
35.363
35.359
35.351
35.341
35.33
35.317
35.305
35.293
35.282
35.272
35.264
35.258
35.252
35.248
35.243
35.239
35.234
35.228
