Trial 1:0back
35.848
35.829
35.812
35.797
35.783
35.771
35.759
35.747
35.736
35.724
35.713
35.701
35.69
35.68
35.67
35.66
35.651
35.641
35.63
35.617
35.604
35.588
35.57
35.548
35.523
35.494
35.459
35.419
35.374
35.325
35.27
35.21
35.147
35.08
35.01
34.938
34.864
34.789
34.715
34.642
34.57
34.502
34.435
34.372
34.313
34.258
34.206
34.159
34.115
34.073
34.033
33.994
33.955
33.916
33.876
33.836
33.794
33.752
33.708
33.662
33.615
33.567
33.52
33.472
33.425
33.38
33.336
33.294
33.253
33.213
33.174
33.134
33.094
33.053
33.011
32.969
32.925
32.882
32.838
32.795
32.753
32.714
32.678
32.645
32.616
32.593
32.575
32.561
32.551
32.544
32.54
32.54
32.544
32.554
32.571
32.598
32.638
32.694
32.769
32.868
32.992
33.145
33.327
33.539
33.78
34.048
34.339
34.651
34.979
35.319
35.666
36.015
36.361
36.699
37.024
37.334
37.624
37.893
38.14
38.361
38.558
38.729
38.874
38.992
39.085
39.154
39.2
39.226
39.233
39.225
39.203
39.17
39.127
39.076
39.018
38.956
38.889
38.82
38.749
38.675
38.601
38.525
38.448
38.369
38.289
38.206
38.12
38.032
37.94
37.845
37.747
37.646
37.542
37.435
37.327
37.217
37.107
36.997
36.887
36.778
36.671
36.566
36.464
36.366
36.274
36.19
36.114
36.047
35.99
35.942
35.905
35.877
35.857
35.844
35.838
35.838
35.841
35.846
35.853
35.86
35.866
35.871
35.876
35.879
35.882
35.883
35.884
35.884
35.884
35.883
35.882
35.881
35.879
35.875
35.87
35.862
35.85
35.835
35.815
35.791
35.762
35.728
35.689
35.645
35.596
35.542
35.482
35.417
35.349
35.278
35.205
35.133
35.062
34.994
34.928
34.867
34.81
34.756
34.707
34.663
34.622
34.585
34.55
34.516
34.483
34.449
34.413
34.373
34.329
34.28
34.227
34.169
34.108
34.043
33.976
33.909
33.842
33.777
33.713
33.651
33.593
33.537
33.484
33.434
33.386
33.339
33.293
33.248
33.203
33.159
33.115
33.072
33.029
32.986
32.944
32.903
32.864
32.83
32.803
32.785
32.779
32.789
32.819
32.871
32.948
33.052
33.185
33.347
33.537
33.755
33.999
34.267
34.556
34.864
35.184
35.513
35.846
36.179
36.506
36.825
37.129
37.418
37.687
37.937
38.164
38.368
38.549
38.706
38.842
38.956
39.049
39.121
39.174
39.209
39.227
39.229
39.217
39.193
39.157
39.112
39.059
38.997
38.93
38.857
38.779
38.697
38.611
38.522
38.429
38.333
38.233
38.129
38.021
37.909
37.794
37.675
37.554
37.431
37.308
37.186
37.068
36.954
36.845
36.742
36.646
36.555
36.47
36.39
36.313
36.239
36.167
36.096
36.027
35.959
35.893
35.829
35.768
35.712
35.66
35.613
35.572
35.538
35.509
35.488
35.472
35.462
35.458
35.458
35.462
35.468
35.476
35.485
35.493
35.499
35.503
35.502
35.494
35.481
35.461
35.434
35.402
35.365
35.324
35.281
35.237
35.193
35.148
35.105
35.063
35.023
34.983
34.945
34.906
34.867
34.825
34.781
34.734
34.683
34.63
34.574
34.515
34.454
34.391
34.327
34.263
34.199
34.137
34.075
34.014
33.955
33.898
33.841
33.786
33.733
33.681
33.631
33.583
33.534
33.487
33.44
33.395
33.35
33.305
33.261
33.215
33.169
33.122
33.072
33.021
32.968
32.914
32.859
32.804
32.75
32.697
32.647
32.598
32.552
32.509
32.468
32.429
32.394
32.36
32.33
32.304
32.281
32.264
32.253
32.25
32.258
32.278
32.313
32.367
32.441
32.54
32.664
32.816
32.998
33.209
33.449
33.716
34.008
34.321
34.652
34.995
35.346
35.702
36.057
36.408
36.749
37.078
37.39
37.682
37.953
38.201
38.424
38.623
38.797
38.947
39.074
39.178
39.261
39.323
39.367
39.394
39.405
39.402
39.384
39.355
39.314
39.264
39.206
39.139
39.067
38.987
38.902
38.812
38.717
38.619
38.516
38.41
38.299
38.186
38.07
37.953
37.834
37.715
37.596
37.478
37.36
37.244
37.129
37.016
36.906
36.799
36.696
36.597
36.503
36.414
36.331
36.253
36.181
36.114
36.052
35.994
35.94
35.889
35.841
35.795
35.753
35.715
35.679
35.648
35.622
35.6
35.583
35.571
35.563
35.56
35.56
35.564
35.569
35.575
35.58
35.583
35.583
35.579
35.57
35.555
35.536
35.511
35.48
35.443
35.401
35.355
35.306
35.255
35.202
35.149
35.095
35.041
34.987
34.934
34.882
34.832
34.783
34.736
34.691
34.647
34.604
34.561
34.519
34.476
34.433
34.389
34.343
34.294
34.244
34.192
34.14
34.088
34.036
33.985
33.936
33.889
33.845
33.802
33.762
33.724
33.688
33.651
33.614
33.574
33.531
33.484
33.433
33.378
33.319
33.256
33.191
33.125
33.058
32.993
32.931
32.872
32.817
32.766
32.721
32.68
32.643
32.611
32.583
32.557
32.534
32.511
32.489
32.466
32.442
32.42
32.399
32.383
32.375
32.377
32.393
32.428
32.486
32.571
32.686
32.833
33.013
33.226
33.471
33.745
34.045
34.367
34.706
35.058
35.418
35.78
36.14
36.492
36.834
37.161
37.47
37.758
38.023
38.264
38.479
38.669
38.833
38.972
39.087
39.179
39.251
39.303
39.337
39.356
39.359
39.348
39.324
39.287
39.239
39.179
39.111
39.034
38.95
38.861
38.768
38.671
38.572
38.471
38.368
38.265
38.162
38.058
37.954
37.849
37.743
37.637
37.531
37.423
37.315
37.206
37.096
36.987
36.878
36.771
36.666
36.563
36.463
36.368
36.279
36.196
36.121
36.056
36.0
35.953
35.916
35.888
35.867
35.854
35.847
35.845
35.847
35.852
35.86
35.87
35.882
35.896
35.911
35.926
35.942
35.959
35.974
35.988
36.0
36.01
36.016
36.02
36.019
36.015
36.006
35.993
35.977
35.956
35.932
35.903
35.87
35.83
35.786
35.736
35.681
35.622
35.558
35.492
35.424
35.354
35.285
35.217
35.15
35.085
35.021
34.959
34.897
34.835
34.772
34.708
34.643
34.577
34.509
34.44
34.369
34.299
34.228
34.159
34.09
34.025
33.962
33.903
33.848
33.797
33.75
33.706
33.665
33.626
33.588
33.55
33.511
33.471
33.428
33.383
33.335
33.284
33.23
33.173
33.113
33.051
32.988
32.925
32.863
32.804
32.748
32.697
32.652
32.613
32.58
32.555
32.537
32.528
32.53
32.544
32.573
32.62
32.688
32.78
32.9
33.049
33.228
33.438
33.678
33.945
34.238
34.553
34.886
35.232
35.586
35.942
36.296
36.643
36.978
37.298
37.6
37.881
38.139
38.373
38.582
38.764
38.919
39.049
39.154
39.236
39.297
39.338
39.36
39.368
39.361
39.343
39.314
39.276
39.228
39.173
39.109
39.038
38.96
38.875
38.784
38.688
38.587
38.481
38.373
38.261
38.148
38.032
37.915
37.797
37.678
37.558
37.44
37.323
37.209
37.096
36.987
36.882
36.781
36.684
36.592
36.503
36.417
36.334
36.254
36.176
36.1
36.027
35.956
35.888
35.825
35.766
35.712
35.663
35.619
35.579
35.544
35.512
35.486
35.463
35.446
35.434
35.428
35.427
35.431
35.44
35.454
35.47
35.487
35.504
35.518
35.529
35.533
35.531
35.521
35.502
35.477
35.444
35.404
35.359
35.309
35.254
35.197
35.139
35.08
35.02
34.962
34.904
34.847
34.79
34.734
34.679
34.624
34.57
34.516
34.461
34.406
34.35
34.293
34.237
34.181
34.126
34.072
34.018
33.966
33.914
33.862
33.811
33.76
33.709
33.658
33.606
33.554
33.501
33.448
33.395
33.344
33.292
33.241
33.189
33.137
33.084
33.031
32.977
32.922
32.867
32.811
32.755
32.7
32.646
32.593
32.542
32.493
32.445
32.399
32.356
32.314
32.274
32.235
32.198
32.161
32.127
32.096
32.069
32.05
32.04
32.042
32.061
32.1
32.16
32.246
32.36
32.504
32.68
32.888
33.126
33.393
33.686
34.002
34.336
34.684
35.042
35.406
35.772
36.136
36.493
36.843
37.18
37.504
37.81
38.096
38.36
38.599
38.812
38.997
39.154
39.281
39.381
39.453
39.499
39.522
39.524
39.507
39.474
39.427
39.37
39.305
39.234
39.158
39.081
39.002
38.924
38.844
38.765
38.683
38.6
38.513
38.423
38.329
38.232
38.13
38.023
37.912
37.795
37.674
37.55
37.425
37.301
37.179
37.062
36.95
36.845
36.747
36.657
36.576
36.503
36.439
36.381
36.329
36.281
36.236
36.194
36.153
36.114
36.075
36.036
35.998
35.961
35.925
35.891
35.859
35.83
35.804
35.781
35.762
35.746
35.733
35.722
35.714
35.707
35.701
35.695
35.689
35.681
35.672
35.659
35.645
35.628
35.609
35.588
35.564
35.538
35.508
35.474
35.437
35.395
35.348
35.297
35.241
35.181
35.117
35.049
34.978
34.905
34.83
34.755
34.68
34.604
34.53
34.456
34.384
34.314
34.247
34.183
34.122
34.065
34.01
33.959
33.909
33.862
33.815
33.77
33.724
33.679
33.634
33.588
33.543
33.497
33.452
33.408
33.364
33.32
33.275
33.229
33.182
33.132
33.079
33.024
32.966
32.906
32.844
32.78
32.714
32.648
32.583
32.519
32.458
32.4
32.347
32.298
32.254
32.215
32.181
32.15
32.124
32.101
32.082
32.068
32.06
32.06
32.072
32.098
32.143
32.209
32.301
32.421
32.572
32.756
32.973
33.221
33.499
33.804
34.132
34.477
34.836
35.204
35.576
35.947
36.311
36.665
37.005
37.328
37.63
37.911
38.167
38.399
38.604
38.782
38.933
39.058
39.155
39.226
39.273
39.297
39.3
39.283
39.248
39.199
39.136
39.063
38.98
38.892
38.798
38.701
38.604
38.506
38.41
38.315
38.222
38.129
38.038
37.948
37.857
37.766
37.672
37.575
37.474
37.368
37.258
37.143
37.026
36.906
36.785
36.665
36.546
36.431
36.32
36.216
36.118
36.028
35.947
35.874
35.811
35.756
35.71
35.672
35.643
35.621
35.607
35.598
35.595
35.595
35.599
35.604
35.612
35.619
35.628
35.636
35.643
35.65
35.657
35.662
35.666
35.669
35.672
35.672
35.67
35.665
35.657
35.644
35.628
35.607
35.581
35.551
35.517
35.48
35.439
35.395
35.349
35.301
35.253
35.204
35.155
35.106
35.057
35.008
34.958
34.907
34.855
34.801
34.746
34.689
34.63
34.571
34.51
34.449
34.389
34.329
34.269
34.211
34.153
34.096
34.039
33.984
33.929
33.876
33.823
33.77
33.718
33.665
33.611
33.557
33.502
33.446
33.388
33.328
33.268
33.208
33.148
33.089
33.031
32.975
32.92
32.867
32.817
32.769
32.723
32.68
32.64
32.6
32.561
32.522
32.484
32.448
32.416
32.39
32.375
32.375
32.392
32.432
32.497
32.591
32.715
32.871
33.058
33.276
33.524
33.798
34.097
34.416
34.751
35.098
35.453
35.81
36.166
36.516
36.856
37.182
37.491
37.782
38.05
38.295
38.515
38.709
38.876
39.019
39.137
39.232
39.306
39.361
39.399
39.42
39.425
39.417
39.395
39.362
39.317
39.262
39.197
39.124
39.044
38.957
38.864
38.766
38.664
38.558
38.448
38.335
38.22
38.102
37.983
37.863
37.743
37.625
37.51
37.398
37.289
37.183
37.079
36.976
36.873
36.769
36.665
36.561
36.459
36.358
36.26
36.166
36.075
35.991
35.913
35.844
35.782
35.728
35.682
35.645
35.614
35.59
35.574
35.564
35.56
35.561
35.567
35.576
35.588
35.602
35.617
35.631
35.644
35.654
35.661
35.664
35.663
35.656
35.644
35.625
35.601
35.572
35.538
35.5
35.458
35.414
35.367
35.318
35.268
35.217
35.165
35.112
35.058
35.003
34.948
34.892
34.837
34.782
34.729
34.677
34.626
34.577
34.528
34.48
34.432
34.384
34.336
34.287
34.237
34.186
34.134
34.081
34.025
33.969
33.912
33.854
33.796
33.738
33.681
33.626
33.571
33.518
33.467
33.416
33.366
33.317
33.268
33.218
33.168
33.117
33.066
33.013
32.96
32.906
32.852
32.797
32.742
32.688
32.634
32.581
32.53
32.482
32.436
32.394
32.354
32.316
32.283
32.252
32.227
32.206
32.193
32.188
32.195
32.215
32.254
32.312
32.394
32.503
32.641
32.809
33.009
33.241
33.503
33.794
34.112
34.453
34.814
35.188
35.572
35.959
36.345
36.723
37.09
37.443
37.776
38.089
38.378
38.641
38.876
39.082
39.26
39.409
39.532
39.631
39.707
39.763
39.801
39.822
39.829
39.823
39.805
39.778
39.742
39.698
39.647
39.591
39.528
39.461
39.388
39.31
39.227
39.139
39.045
38.945
38.839
38.729
38.615
38.497
38.377
38.255
38.134
38.014
37.897
37.782
37.67
37.561
37.453
37.347
37.24
37.133
37.027
36.921
36.817
36.715
36.616
36.523
36.435
36.355
36.283
36.221
36.167
36.123
36.088
36.061
36.042
36.03
36.025
36.027
36.035
36.048
36.065
36.085
36.106
36.127
36.147
36.164
36.176
36.183
36.185
36.181
36.17
36.152
36.127
36.098
36.063
36.024
35.98
35.934
35.884
35.83
35.774
35.715
35.654
35.591
35.526
35.459
35.391
35.321
35.249
35.176
35.104
35.032
34.962
34.894
34.827
34.764
34.704
34.645
34.589
34.534
34.48
34.425
34.37
34.313
34.256
34.197
34.138
34.078
34.017
33.956
33.896
33.835
33.776
33.717
33.66
33.603
33.547
33.492
33.437
33.383
33.329
33.274
33.217
33.159
33.1
33.039
32.976
32.912
32.847
32.782
32.716
32.652
32.588
32.525
32.463
32.402
32.342
32.285
32.229
32.176
32.126
32.079
32.036
31.996
31.962
31.935
31.916
31.909
31.917
31.943
31.99
32.063
32.164
32.294
32.456
32.65
32.876
33.132
33.417
33.728
34.06
34.41
34.774
35.145
35.522
35.899
36.272
36.637
36.99
37.327
37.645
37.941
38.213
38.46
38.681
38.875
39.043
39.186
39.304
39.4
39.476
39.533
39.572
39.596
39.605
39.601
39.584
39.556
39.516
39.466
39.408
39.344
39.274
39.201
39.124
39.043
38.959
38.871
38.778
38.679
38.575
38.466
38.353
38.237
38.118
37.998
37.877
37.756
37.637
37.521
37.407
37.298
37.192
37.091
36.995
36.902
36.814
36.73
36.65
36.573
36.5
36.431
36.364
36.299
36.237
36.177
36.119
36.064
36.013
35.967
35.926
35.892
35.865
35.844
35.831
35.825
35.825
35.832
35.843
35.857
35.872
35.886
35.898
35.904
35.904
35.897
35.882
35.858
35.827
35.789
35.745
35.698
35.648
35.597
35.546
35.495
35.446
35.397
35.351
35.306
35.261
35.217
35.171
35.124
35.074
35.023
34.969
34.913
34.856
34.798
34.739
34.681
34.624
34.568
34.515
34.463
34.415
34.368
34.323
34.278
34.234
34.19
34.145
34.099
34.052
34.002
33.951
33.898
33.842
33.785
33.726
33.665
33.604
33.541
33.479
33.419
33.36
33.304
33.251
33.2
33.153
33.109
33.068
33.031
32.996
32.963
32.932
32.903
32.874
32.845
32.815
32.786
32.755
32.725
32.697
32.67
32.646
32.628
32.619
32.621
32.638
32.674
32.733
32.818
32.932
33.078
33.257
33.47
33.717
33.994
34.298
34.626
34.972
35.332
35.699
36.069
36.436
36.797
37.147
37.482
37.798
38.093
38.364
38.61
38.83
39.023
39.189
39.33
39.447
39.541
39.614
39.669
39.705
39.725
39.731
39.722
39.701
39.667
39.623
39.568
39.503
39.429
39.347
39.259
39.165
39.066
38.963
38.856
38.746
38.634
38.519
38.402
38.283
38.164
38.045
37.927
37.808
37.69
37.573
37.458
37.344
37.232
37.122
37.013
36.907
36.803
36.701
36.6
36.502
36.407
36.315
36.228
36.146
36.071
36.003
35.943
35.891
35.848
35.814
35.789
35.773
35.764
35.761
35.763
35.769
35.778
35.79
35.802
35.816
35.829
35.841
35.851
35.859
35.864
35.866
35.865
35.861
35.854
35.844
35.832
35.817
35.8
35.778
35.753
35.724
35.692
35.654
35.613
35.566
35.513
35.456
35.393
35.326
35.254
35.179
35.101
35.021
34.94
34.861
34.784
34.71
34.64
34.574
34.511
34.451
34.394
34.338
34.284
34.231
34.178
34.127
34.075
34.024
33.972
33.92
33.868
33.817
33.765
33.713
33.661
33.608
33.555
33.501
33.446
33.39
33.334
33.275
33.216
33.155
33.094
33.033
32.971
32.909
32.847
32.785
32.724
32.665
32.609
32.556
32.507
32.463
32.424
32.391
32.364
32.345
32.337
32.34
32.359
32.394
32.451
32.531
32.638
32.776
32.945
33.148
33.384
33.651
33.945
34.263
34.601
34.953
35.315
35.68
36.045
36.404
36.754
37.092
37.414
37.718
38.002
38.266
38.507
38.724
38.918
39.088
39.234
39.356
39.455
39.531
39.587
39.624
39.644
39.648
39.638
39.615
39.58
39.533
39.477
39.412
39.338
39.257
39.17
39.078
38.983
38.886
38.788
38.688
38.588
38.489
38.389
38.288
38.188
38.086
37.983
37.878
37.772
37.663
37.551
37.437
37.321
37.205
37.087
36.969
36.852
36.737
36.624
36.515
36.41
36.311
36.219
36.135
36.059
35.992
35.934
35.886
35.846
35.816
35.794
35.78
35.772
35.768
35.768
35.77
35.772
35.775
35.777
35.779
35.78
35.78
35.779
35.779
35.777
35.775
35.772
35.766
35.757
35.746
35.731
35.715
35.695
35.673
35.647
35.617
35.583
35.546
35.504
35.458
35.407
35.351
35.291
35.225
35.155
35.08
35.001
34.918
34.833
34.748
34.664
34.582
34.503
34.427
34.356
34.29
34.228
34.17
34.114
34.061
34.008
33.957
33.906
33.855
33.803
33.751
33.698
33.643
33.586
33.529
33.469
33.41
33.349
33.289
33.23
33.171
33.114
33.057
33.0
32.944
32.889
32.836
32.785
32.735
32.689
32.647
32.607
32.571
32.537
32.504
32.472
32.44
32.408
32.376
32.344
32.312
32.281
32.254
32.231
32.217
32.214
32.226
32.256
32.308
32.386
32.491
32.627
32.794
32.993
33.224
33.484
33.772
34.084
34.417
34.767
35.128
35.496
35.866
36.234
36.594
36.942
37.276
37.59
37.882
38.15
38.393
38.609
38.799
38.961
39.098
39.209
39.297
39.363
39.409
39.438
39.45
39.449
39.435
39.41
39.375
39.33
39.277
39.216
39.146
39.07
38.988
38.9
38.808
38.712
38.614
38.512
38.408
38.302
38.194
38.084
37.973
37.861
37.747
37.632
37.516
37.399
37.282
37.167
37.053
36.943
36.836
36.733
36.635
36.54
36.449
36.361
36.277
36.195
36.119
36.047
35.982
35.924
35.873
35.83
35.793
35.764
35.739
35.72
35.703
35.689
35.677
35.665
35.653
35.642
35.63
35.619
35.608
35.597
35.587
35.579
35.571
35.564
35.558
35.55
35.542
35.53
35.515
35.496
35.472
35.441
35.404
35.361
35.312
35.258
35.199
35.138
35.073
35.008
34.941
34.874
34.806
34.738
34.672
34.607
34.543
34.481
34.419
34.356
34.291
34.224
34.155
34.084
34.01
33.934
33.858
33.782
33.707
33.634
33.564
33.497
33.435
33.377
33.325
33.279
33.238
33.201
33.168
33.138
33.109
33.081
33.052
33.021
32.988
32.952
32.912
32.868
32.821
32.771
32.719
32.666
32.613
32.559
32.506
32.453
32.402
32.352
32.305
32.26
32.218
32.178
32.141
32.106
32.074
32.044
32.017
31.996
31.982
31.977
31.985
32.009
32.051
32.115
32.204
32.32
32.465
32.638
32.841
33.073
33.332
33.616
33.92
34.243
34.579
34.925
35.276
35.628
35.977
36.32
36.652
36.971
37.275
37.56
37.825
38.068
38.288
38.485
38.659
38.809
38.936
39.04
39.122
39.182
39.222
39.242
39.243
39.228
39.199
39.157
39.105
39.044
38.976
38.902
38.823
38.739
38.652
38.561
38.466
38.369
38.269
38.167
38.063
37.957
37.85
37.741
37.63
37.519
37.406
37.291
37.174
37.055
36.937
36.819
36.703
36.591
36.484
36.382
36.288
36.2
36.12
36.049
35.985
35.93
35.882
35.841
35.807
35.777
35.752
35.731
35.713
35.698
35.687
35.68
35.676
35.674
35.675
35.678
35.681
35.686
35.691
35.696
35.699
35.701
35.7
35.696
35.688
35.677
35.661
35.642
35.619
35.592
35.562
35.528
35.491
35.451
35.407
35.359
35.307
35.253
35.196
35.138
35.08
35.023
34.967
34.913
34.86
34.809
34.759
34.71
34.661
34.612
34.562
34.513
34.463
34.413
34.364
34.316
34.268
34.22
34.174
34.128
34.082
34.035
33.989
33.942
33.894
33.846
33.796
33.745
33.692
33.637
33.581
33.522
33.462
33.4
33.337
33.274
33.211
33.149
33.089
33.031
32.976
32.924
32.875
32.83
32.788
32.748
32.712
32.678
32.646
32.616
32.587
32.561
32.536
32.516
32.5
32.492
32.494
32.51
32.544
32.6
32.682
32.792
32.934
33.107
33.312
33.549
33.816
34.111
34.428
34.763
35.11
35.463
35.817
36.166
36.505
36.831
37.141
37.431
37.7
37.947
38.169
38.368
38.542
38.694
38.824
38.935
39.028
39.102
39.16
39.202
39.228
39.238
39.234
39.217
39.188
39.147
39.096
39.036
38.97
38.898
38.821
38.741
38.657
38.57
38.48
38.387
38.291
38.192
38.089
37.983
37.875
37.765
37.654
37.543
37.432
37.322
37.212
37.103
36.995
36.888
36.784
36.682
36.583
36.486
36.393
36.304
36.22
36.14
36.067
36.0
35.941
35.889
35.844
35.807
35.778
35.757
35.743
