Trial 1:0back
31.221
31.207
31.196
31.188
31.183
31.182
31.184
31.191
31.203
31.223
31.253
31.297
31.358
31.442
31.555
31.704
31.893
32.129
32.415
32.754
33.146
33.59
34.08
34.611
35.174
35.759
36.357
36.955
37.543
38.11
38.646
39.143
39.595
39.997
40.345
40.64
40.881
41.07
41.211
41.307
41.362
41.382
41.371
41.335
41.278
41.205
41.119
41.022
40.918
40.807
40.691
40.573
40.454
40.334
40.214
40.095
39.977
39.862
39.75
39.643
39.54
39.441
39.347
39.257
39.17
39.087
39.008
38.932
38.859
38.788
38.72
38.653
38.588
38.525
38.462
38.399
38.337
38.272
38.207
38.139
38.069
37.995
37.919
37.84
37.76
37.68
37.601
37.524
37.451
37.381
37.317
37.261
37.213
37.174
37.143
37.12
37.106
37.1
37.102
37.11
37.123
37.142
37.166
37.193
37.222
37.253
37.285
37.317
37.348
37.379
37.407
37.432
37.454
37.47
37.48
37.483
37.479
37.467
37.447
37.422
37.39
37.352
37.308
37.258
37.204
37.147
37.086
37.023
36.956
36.887
36.814
36.738
36.658
36.576
36.49
36.402
36.311
36.218
36.124
36.028
35.931
35.833
35.735
35.637
35.54
35.444
35.348
35.255
35.163
35.073
34.986
34.901
34.819
34.74
34.665
34.593
34.525
34.461
34.399
34.341
34.286
34.234
34.184
34.136
34.09
34.046
34.004
33.963
33.924
33.887
33.853
33.82
33.79
33.763
33.737
33.713
33.692
33.672
33.655
33.64
33.627
33.616
33.606
33.596
33.586
33.576
33.565
33.554
33.543
33.531
33.518
33.506
33.493
33.481
33.469
33.457
33.446
33.434
33.422
33.409
33.395
33.378
33.359
33.339
33.317
33.295
33.271
33.247
33.222
33.197
33.17
33.144
33.117
33.09
33.064
33.038
33.013
32.99
32.967
32.946
32.925
32.904
32.883
32.862
32.84
32.817
32.793
32.769
32.744
32.719
32.694
32.67
32.648
32.626
32.604
32.583
32.563
32.542
32.521
32.501
32.48
32.46
32.438
32.416
32.393
32.369
32.345
32.32
32.295
32.266
32.233
32.196
32.157
32.118
32.08
32.044
32.011
31.983
31.958
31.938
31.921
31.908
31.897
31.887
31.879
31.872
31.865
31.859
31.853
31.847
31.843
31.841
31.84
31.843
31.851
31.866
31.893
31.935
31.998
32.088
32.21
32.37
32.574
32.825
33.127
33.479
33.88
34.326
34.811
35.327
35.866
36.417
36.972
37.52
38.051
38.556
39.028
39.46
39.847
40.185
40.474
40.713
40.903
41.047
41.148
41.211
41.238
41.236
41.207
41.157
41.09
41.01
40.921
40.823
40.72
40.614
40.506
40.399
40.292
40.186
40.083
39.982
39.883
39.785
39.688
39.591
39.493
39.395
39.296
39.198
39.1
39.001
38.904
38.807
38.712
38.619
38.527
38.436
38.344
38.252
38.158
38.062
37.964
37.864
37.763
37.66
37.557
37.456
37.357
37.262
37.172
37.089
37.012
36.944
36.886
36.837
36.799
36.773
36.759
36.757
36.768
36.789
36.819
36.857
36.903
36.954
37.009
37.067
37.126
37.185
37.242
37.295
37.344
37.388
37.427
37.46
37.488
37.51
37.525
37.535
37.537
37.532
37.518
37.494
37.462
37.422
37.376
37.324
37.267
37.207
37.144
37.078
37.01
36.941
36.871
36.798
36.722
36.642
36.557
36.469
36.377
36.28
36.181
36.078
35.974
35.869
35.764
35.659
35.556
35.455
35.355
35.258
35.162
35.07
34.98
34.893
34.809
34.727
34.648
34.57
34.495
34.423
34.352
34.283
34.217
34.154
34.093
34.036
33.981
33.93
33.881
33.835
33.791
33.752
33.716
33.684
33.656
33.632
33.611
33.594
33.579
33.567
33.557
33.549
33.542
33.535
33.528
33.522
33.515
33.507
33.501
33.496
33.493
33.49
33.488
33.486
33.483
33.479
33.474
33.469
33.463
33.455
33.446
33.435
33.423
33.408
33.391
33.371
33.349
33.325
33.3
33.274
33.246
33.219
33.192
33.164
33.136
33.108
33.079
33.049
33.017
32.985
32.952
32.919
32.885
32.851
32.817
32.783
32.749
32.716
32.683
32.65
32.618
32.586
32.553
32.52
32.486
32.451
32.415
32.379
32.342
32.306
32.271
32.237
32.205
32.175
32.146
32.119
32.094
32.071
32.048
32.027
32.006
31.986
31.966
31.947
31.929
31.911
31.894
31.876
31.86
31.844
31.83
31.817
31.804
31.792
31.78
31.769
31.757
31.745
31.732
31.718
31.704
31.689
31.673
31.655
31.637
31.618
31.6
31.583
31.567
31.553
31.541
31.532
31.524
31.519
31.517
31.517
31.521
31.53
31.546
31.57
31.609
31.667
31.75
31.865
32.018
32.216
32.465
32.768
33.127
33.542
34.011
34.528
35.086
35.676
36.287
36.909
37.528
38.134
38.717
39.266
39.772
40.231
40.636
40.987
41.282
41.521
41.707
41.844
41.935
41.986
42.001
41.986
41.944
41.88
41.798
41.704
41.599
41.488
41.374
41.257
41.14
41.025
40.911
40.8
40.692
40.586
40.483
40.381
40.28
40.18
40.08
39.982
39.886
39.79
39.697
39.607
39.52
39.438
39.359
39.285
39.214
39.147
39.083
39.021
38.96
38.901
38.841
38.78
38.716
38.648
38.578
38.505
38.429
38.35
38.27
38.188
38.106
38.024
37.944
37.866
37.793
37.726
37.666
37.614
37.571
37.537
37.513
37.497
37.488
37.487
37.492
37.502
37.517
37.535
37.556
37.577
37.598
37.616
37.631
37.642
37.648
37.647
37.64
37.625
37.603
37.574
37.541
37.503
37.46
37.415
37.367
37.318
37.267
37.214
37.16
37.104
37.046
36.984
36.919
36.852
36.781
36.707
36.629
36.548
36.463
36.376
36.286
36.193
36.097
36.0
35.9
35.8
35.698
35.595
35.492
35.39
35.29
35.193
35.098
35.004
34.911
34.821
34.734
34.65
34.57
34.493
34.42
34.351
34.285
34.221
34.161
34.104
34.05
33.999
33.952
33.908
33.867
33.829
33.794
33.762
33.732
33.705
33.68
33.657
33.635
33.613
33.592
33.57
33.55
33.529
33.51
33.491
33.472
33.454
33.436
33.419
33.404
33.39
33.377
33.365
33.354
33.343
33.333
33.323
33.312
33.3
33.288
33.274
33.257
33.239
33.219
33.197
33.173
33.148
33.122
33.096
33.071
33.046
33.021
32.996
32.97
32.945
32.92
32.895
32.871
32.847
32.822
32.795
32.767
32.737
32.705
32.673
32.64
32.606
32.573
32.541
32.509
32.478
32.449
32.423
32.397
32.372
32.348
32.324
32.301
32.277
32.253
32.229
32.205
32.182
32.159
32.137
32.115
32.094
32.073
32.054
32.035
32.018
32.001
31.986
31.97
31.954
31.938
31.922
31.906
31.891
31.875
31.86
31.845
31.828
31.811
31.792
31.772
31.752
31.731
31.709
31.687
31.665
31.643
31.62
31.597
31.576
31.555
31.535
31.516
31.497
31.481
31.467
31.455
31.446
31.44
31.435
31.432
31.432
31.435
31.442
31.454
31.473
31.502
31.542
31.599
31.677
31.78
31.917
32.092
32.311
32.579
32.897
33.267
33.689
34.16
34.672
35.218
35.787
36.369
36.952
37.527
38.084
38.612
39.103
39.551
39.949
40.296
40.59
40.831
41.022
41.167
41.27
41.335
41.367
41.37
41.35
41.31
41.254
41.186
41.109
41.026
40.938
40.848
40.755
40.661
40.567
40.472
40.376
40.28
40.183
40.085
39.987
39.889
39.791
39.694
39.596
39.5
39.405
39.312
39.221
39.133
39.046
38.96
38.876
38.793
38.711
38.629
38.546
38.463
38.379
38.293
38.208
38.122
38.035
37.948
37.861
37.775
37.691
37.609
37.532
37.461
37.398
37.345
37.302
37.265
37.231
37.201
37.175
37.155
37.144
37.143
37.152
37.171
37.202
37.243
37.292
37.349
37.41
37.474
37.539
37.602
37.661
37.715
37.761
37.8
37.83
37.852
37.864
37.866
37.859
37.843
37.818
37.783
37.74
37.688
37.628
37.564
37.495
37.422
37.345
37.265
37.182
37.098
37.013
36.927
36.84
36.753
36.663
36.572
36.479
36.385
36.289
36.191
36.092
35.992
35.89
35.788
35.687
35.586
35.486
35.389
35.294
35.202
35.113
35.028
34.947
34.87
34.797
34.727
34.66
34.594
34.53
34.468
34.407
34.348
34.291
34.236
34.183
34.132
34.083
34.038
33.995
33.956
33.92
33.888
33.858
33.833
33.81
33.791
33.774
33.76
33.747
33.734
33.72
33.705
33.689
33.672
33.654
33.636
33.619
33.603
33.588
33.574
33.562
33.552
33.542
33.533
33.524
33.515
33.505
33.496
33.486
33.474
33.46
33.445
33.427
33.407
33.385
33.361
33.335
33.307
33.278
33.248
33.218
33.187
33.156
33.126
33.096
33.067
33.038
33.01
32.982
32.955
32.929
32.904
32.879
32.856
32.833
32.81
32.788
32.765
32.742
32.718
32.694
32.669
32.643
32.616
32.587
32.557
32.525
32.493
32.46
32.427
32.395
32.363
32.331
32.3
32.27
32.241
32.213
32.187
32.163
32.139
32.115
32.091
32.067
32.043
32.018
31.993
31.969
31.944
31.919
31.896
31.873
31.852
31.833
31.816
31.801
31.788
31.778
31.771
31.767
31.769
31.779
31.801
31.839
31.899
31.986
32.108
32.271
32.48
32.74
33.055
33.426
33.853
34.33
34.853
35.413
36.001
36.607
37.217
37.815
38.39
38.931
39.432
39.89
40.3
40.661
40.971
41.232
41.446
41.614
41.741
41.83
41.884
41.908
41.904
41.877
41.832
41.771
41.697
41.613
41.521
41.424
41.323
41.22
41.115
41.009
40.902
40.795
40.686
40.577
40.468
40.36
40.253
40.148
40.044
39.944
39.847
39.754
39.665
39.58
39.499
39.421
39.348
39.278
39.211
39.146
39.082
39.018
38.954
38.888
38.822
38.754
38.684
38.612
38.537
38.46
38.381
38.3
38.22
38.141
38.062
37.985
37.913
37.846
37.787
37.736
37.691
37.654
37.624
37.601
37.585
37.576
37.572
37.573
37.579
37.589
37.603
37.618
37.636
37.654
37.67
37.684
37.696
37.704
37.71
37.711
37.709
37.702
37.69
37.673
37.651
37.623
37.588
37.547
37.499
37.444
37.381
37.312
37.238
37.158
37.074
36.985
36.892
36.796
36.697
36.598
36.497
36.396
36.296
36.196
36.095
35.995
35.894
35.793
35.693
35.592
35.491
35.389
35.285
35.181
35.075
34.968
34.862
34.757
34.654
34.554
34.458
34.367
34.281
34.201
34.125
34.056
33.992
33.933
33.878
33.827
33.779
33.735
33.693
33.652
33.614
33.575
33.537
33.498
33.46
33.422
33.385
33.349
33.314
33.281
33.248
33.216
33.185
33.156
33.129
33.103
33.079
33.058
33.04
33.023
33.009
32.996
32.986
32.976
32.968
32.96
32.951
32.943
32.933
32.922
32.91
32.896
32.879
32.86
32.839
32.815
32.789
32.762
32.733
32.704
32.677
32.65
32.626
32.602
32.58
32.559
32.538
32.516
32.493
32.47
32.445
32.419
32.391
32.361
32.327
32.288
32.24
32.186
32.128
32.071
32.015
31.964
31.919
31.881
31.851
31.829
31.812
31.801
31.795
31.792
31.791
31.79
31.787
31.783
31.776
31.765
31.752
31.735
31.717
31.697
31.677
31.657
31.637
31.617
31.598
31.58
31.563
31.546
31.529
31.514
31.499
31.484
31.471
31.459
31.448
31.438
31.427
31.414
31.4
31.385
31.367
31.348
31.327
31.306
31.284
31.263
31.243
31.225
31.208
31.193
31.181
31.172
31.166
31.162
31.159
31.157
31.153
31.146
31.137
31.125
31.115
31.11
31.114
31.133
31.173
31.238
31.337
31.475
31.658
31.89
32.176
32.518
32.913
33.362
33.858
34.396
34.967
35.562
36.17
36.779
37.379
37.96
38.513
39.03
39.505
39.933
40.309
40.632
40.901
41.118
41.285
41.405
41.482
41.52
41.525
41.501
41.453
41.387
41.306
41.215
41.116
41.012
40.906
40.798
40.691
40.583
40.477
40.373
40.269
40.167
40.066
39.965
39.863
39.761
39.658
39.555
39.452
39.348
39.246
39.145
39.045
38.948
38.853
38.762
38.672
38.584
38.496
38.409
38.322
38.235
38.149
38.063
37.977
37.892
37.807
37.724
37.642
37.563
37.488
37.416
37.35
37.292
37.241
37.2
37.167
37.144
37.131
37.126
37.13
37.141
37.16
37.186
37.219
37.258
37.303
37.352
37.403
37.457
37.511
37.565
37.617
37.664
37.705
37.74
37.768
37.79
37.805
37.812
37.811
37.803
37.788
37.767
37.738
37.704
37.663
37.617
37.566
37.509
37.447
37.38
37.307
37.23
37.148
37.062
36.972
36.878
36.781
36.681
36.58
36.477
36.375
36.274
36.175
36.078
35.983
35.889
35.796
35.706
35.616
35.527
35.438
35.35
35.262
35.174
35.088
35.003
34.92
34.837
34.757
34.68
34.607
34.537
34.473
34.412
34.355
34.302
34.253
34.206
34.164
34.125
34.09
34.058
34.028
34.0
33.973
33.946
33.919
33.892
33.865
33.837
33.809
33.781
33.754
33.727
33.7
33.675
33.652
33.63
33.61
33.593
33.58
33.571
33.564
33.561
33.56
33.56
33.56
33.558
33.552
33.543
33.531
33.516
33.497
33.469
33.433
33.391
33.344
33.295
33.246
33.2
33.158
33.121
33.091
33.066
33.046
33.031
33.02
33.011
33.003
32.994
32.986
32.976
32.964
32.95
32.935
32.919
32.901
32.882
32.861
32.839
32.815
32.788
32.759
32.728
32.695
32.662
32.628
32.594
32.561
32.528
32.496
32.464
32.433
32.403
32.375
32.348
32.324
32.3
32.276
32.251
32.224
32.194
32.163
32.129
32.095
32.061
32.027
31.994
31.962
31.931
31.9
31.872
31.845
31.82
31.797
31.775
31.756
31.74
31.729
31.723
31.723
31.732
31.75
31.783
31.835
31.91
32.015
32.155
32.338
32.567
32.848
33.181
33.567
34.003
34.487
35.011
35.567
36.148
36.742
37.34
37.93
38.504
39.051
39.565
40.038
40.465
40.842
41.167
41.439
41.66
41.833
41.96
42.045
42.093
42.108
42.095
42.058
42.002
41.931
41.849
41.757
41.659
41.555
41.448
41.339
41.228
41.116
41.003
40.89
40.776
40.662
40.549
40.436
40.325
40.216
40.111
40.01
39.913
39.82
39.733
39.649
39.57
39.496
39.424
39.356
39.29
39.231
39.18
39.135
39.093
39.049
39.0
38.942
38.875
38.799
38.712
38.616
38.511
38.401
38.288
38.175
38.064
37.959
37.861
37.773
37.695
37.63
37.578
37.54
37.515
37.503
37.503
37.513
37.532
37.557
37.587
37.62
37.656
37.691
37.726
37.758
37.786
37.81
37.829
37.842
37.85
37.853
37.849
37.84
37.826
37.807
37.782
37.751
37.715
37.674
37.626
37.573
37.514
37.45
37.38
37.306
37.228
37.147
37.063
36.976
36.886
36.793
36.697
36.598
36.495
36.39
36.283
36.174
36.064
35.952
35.84
35.728
35.618
35.509
35.402
35.299
35.199
35.103
35.012
34.925
34.842
34.763
34.689
34.618
34.55
34.486
34.423
34.36
34.298
34.236
34.174
34.111
34.051
33.992
33.934
33.879
33.826
33.777
33.731
33.689
33.651
33.616
33.584
33.554
33.526
33.5
33.474
33.45
33.426
33.404
33.382
33.361
33.341
33.321
33.3
33.281
33.262
33.246
33.232
33.221
33.211
33.204
33.197
33.189
33.18
33.17
33.159
33.146
33.132
33.117
33.1
33.083
33.064
33.044
33.021
32.996
32.968
32.937
32.902
32.863
32.821
32.776
32.728
32.679
32.629
32.579
32.528
32.477
32.428
32.381
32.336
32.294
32.253
32.215
32.178
32.142
32.105
32.067
32.027
31.985
31.944
31.904
31.865
31.827
31.79
31.755
31.722
31.691
31.662
31.635
31.611
31.589
31.568
31.547
31.527
31.506
31.484
31.461
31.437
31.414
31.392
31.372
31.354
31.338
31.325
31.313
31.301
31.291
31.28
31.268
31.257
31.244
31.231
31.216
31.2
31.183
31.166
31.148
31.128
31.107
31.085
31.062
31.04
31.019
31.0
30.983
30.967
30.955
30.946
30.94
30.937
30.938
30.943
30.951
30.964
30.98
31.001
31.029
31.065
31.113
31.178
31.264
31.377
31.525
31.713
31.949
32.236
32.578
32.976
33.429
33.933
34.482
35.068
35.681
36.309
36.941
37.565
38.17
38.743
39.278
39.766
40.202
40.584
40.909
41.178
41.392
41.553
41.666
41.736
41.767
41.765
41.734
41.681
41.61
41.526
41.432
41.332
41.228
41.121
41.014
40.906
40.798
40.69
40.581
40.472
40.363
40.252
40.141
40.03
39.919
39.81
39.703
39.599
39.5
39.404
39.314
39.228
39.147
39.07
38.995
38.924
38.855
38.787
38.719
38.65
38.581
38.509
38.434
38.357
38.277
38.196
38.112
38.027
37.941
37.856
37.772
37.69
37.611
37.536
37.467
37.406
37.353
37.309
37.276
37.252
37.238
37.234
37.237
37.249
37.268
37.293
37.323
37.357
37.391
37.427
37.463
37.498
37.532
37.563
37.592
37.616
37.635
37.649
37.656
37.655
37.647
37.631
37.607
37.575
37.536
37.491
37.442
37.387
37.329
37.267
37.201
37.132
37.058
36.982
36.902
36.819
36.733
36.644
36.553
36.46
36.367
36.272
36.178
36.085
35.993
35.902
35.813
35.725
35.637
35.55
35.464
35.378
35.292
35.208
35.125
35.043
34.964
34.886
34.811
34.737
34.664
34.594
34.525
34.46
34.397
34.336
34.278
34.221
34.166
34.112
34.058
34.006
33.954
33.904
33.857
33.813
33.774
33.738
33.706
33.68
33.659
33.643
33.63
33.619
33.61
33.602
33.594
33.59
33.588
33.589
33.593
33.599
33.605
33.61
33.611
33.609
33.604
33.594
33.581
33.564
33.544
33.52
33.494
33.466
33.436
33.404
33.373
33.34
33.308
33.275
33.242
33.21
33.178
33.147
33.117
33.088
33.06
33.032
33.004
32.975
32.947
32.919
32.891
32.863
32.836
32.808
32.781
32.754
32.727
32.701
32.674
32.648
32.622
32.597
32.573
32.549
32.524
32.499
32.473
32.446
32.417
32.387
32.357
32.327
32.299
32.273
32.249
32.227
32.209
32.192
32.176
32.161
32.144
32.127
32.108
32.087
32.064
32.038
32.011
31.981
31.95
31.918
31.886
31.854
31.823
31.793
31.766
31.74
31.716
31.694
31.674
31.655
31.638
31.622
31.608
31.595
31.585
31.58
31.58
31.588
31.606
31.636
31.683
31.751
31.846
31.975
32.144
32.359
32.625
32.945
33.319
33.745
34.22
34.737
35.291
35.871
36.468
37.069
37.665
38.243
38.796
39.313
39.789
40.218
40.597
40.925
41.202
41.427
41.603
41.732
41.819
41.867
41.88
41.865
41.825
41.766
41.692
41.608
41.516
41.419
41.319
41.217
41.114
41.01
40.905
40.8
40.694
40.587
40.478
40.366
40.252
40.136
40.019
39.902
39.785
39.669
39.555
39.445
39.338
39.236
39.139
39.046
38.958
38.873
38.79
38.708
38.626
38.543
38.459
38.373
38.285
38.194
38.1
38.005
37.909
37.814
37.72
37.629
37.542
37.462
37.389
37.324
37.268
37.222
37.186
37.162
37.149
37.148
37.157
37.176
37.204
37.239
37.28
37.325
37.373
37.422
37.471
37.518
37.563
37.605
37.642
37.673
37.698
37.714
37.722
37.723
37.715
37.701
37.68
37.654
37.621
37.583
37.538
37.486
37.428
37.364
37.294
37.219
37.14
37.059
36.975
36.891
36.806
36.72
36.633
36.546
36.458
36.369
36.277
36.184
36.089
35.993
35.894
35.793
35.69
35.584
35.476
35.366
35.253
35.139
35.023
34.91
34.799
34.693
34.592
34.497
34.408
34.326
34.25
34.181
34.119
34.062
34.011
33.965
33.922
33.883
33.848
33.814
33.783
33.752
33.722
33.693
33.663
33.633
33.601
33.567
33.531
33.494
33.458
33.424
33.393
33.367
33.345
33.329
33.318
33.311
33.308
33.307
33.308
33.31
33.311
33.313
33.312
33.31
33.307
33.302
33.295
33.287
33.277
33.264
33.25
33.233
33.214
33.193
33.169
33.143
33.113
33.082
33.048
33.012
32.976
32.941
32.906
32.872
32.84
32.808
32.777
32.746
32.717
32.689
32.66
32.631
32.601
32.57
32.538
32.505
32.47
32.435
32.399
32.362
32.325
32.287
32.248
32.209
32.169
32.13
32.09
32.051
32.012
31.974
31.938
31.904
31.872
31.843
31.816
31.791
31.767
31.745
31.723
31.701
31.678
31.654
31.628
31.6
31.571
31.541
31.512
31.483
31.456
31.429
31.404
31.38
31.357
31.337
31.318
31.3
31.282
31.264
31.245
31.225
31.204
31.181
31.157
31.132
31.105
31.078
31.05
31.021
30.992
30.962
30.931
30.9
30.87
30.842
30.815
30.79
30.769
30.751
30.736
30.725
30.717
30.712
30.712
30.718
30.732
30.755
30.791
30.843
30.917
31.019
31.156
31.335
31.564
31.848
32.191
32.595
33.057
33.575
34.142
34.75
35.387
36.043
36.704
37.36
37.996
38.601
39.165
39.679
40.137
40.535
40.871
41.146
41.361
41.52
41.628
41.691
41.713
41.7
41.659
41.594
41.511
41.413
41.305
41.189
41.069
40.946
40.822
40.697
40.573
40.45
40.331
40.215
40.103
39.995
39.891
39.79
39.692
39.596
39.502
39.409
39.319
39.229
39.141
39.056
38.972
38.891
38.813
38.739
38.667
38.598
38.531
38.464
38.399
38.334
38.267
38.199
38.13
38.058
37.985
37.91
37.834
37.759
37.686
37.614
37.544
37.478
37.418
37.363
37.314
37.273
37.239
37.214
37.198
37.19
37.19
37.199
37.213
37.234
37.259
37.289
