Trial 1:0back
35.652
35.629
35.607
35.584
35.561
35.537
35.513
35.487
35.462
35.436
35.411
35.386
35.362
35.339
35.316
35.295
35.273
35.253
35.233
35.213
35.193
35.173
35.152
35.13
35.107
35.083
35.057
35.03
35.002
34.974
34.946
34.918
34.891
34.865
34.841
34.818
34.796
34.776
34.757
34.738
34.72
34.701
34.682
34.662
34.642
34.62
34.598
34.575
34.552
34.53
34.507
34.485
34.464
34.443
34.423
34.403
34.383
34.362
34.34
34.316
34.291
34.264
34.235
34.204
34.17
34.135
34.099
34.062
34.023
33.985
33.948
33.91
33.874
33.839
33.805
33.774
33.746
33.722
33.704
33.694
33.693
33.703
33.725
33.763
33.816
33.887
33.975
34.082
34.205
34.344
34.498
34.665
34.842
35.027
35.218
35.413
35.609
35.802
35.992
36.176
36.351
36.516
36.667
36.804
36.926
37.031
37.119
37.191
37.248
37.289
37.317
37.332
37.337
37.332
37.319
37.3
37.277
37.249
37.219
37.186
37.152
37.118
37.083
37.05
37.018
36.988
36.96
36.935
36.913
36.895
36.88
36.87
36.863
36.859
36.857
36.856
36.856
36.854
36.85
36.843
36.833
36.82
36.804
36.785
36.763
36.738
36.712
36.685
36.657
36.629
36.603
36.578
36.555
36.534
36.515
36.5
36.486
36.476
36.469
36.465
36.464
36.467
36.472
36.479
36.489
36.499
36.51
36.521
36.53
36.537
36.541
36.541
36.537
36.527
36.513
36.494
36.472
36.446
36.416
36.385
36.351
36.315
36.279
36.242
36.205
36.169
36.133
36.098
36.064
36.028
35.993
35.956
35.918
35.879
35.838
35.795
35.75
35.704
35.656
35.608
35.56
35.513
35.468
35.425
35.384
35.344
35.306
35.27
35.234
35.2
35.167
35.135
35.102
35.068
35.034
34.999
34.963
34.927
34.891
34.856
34.823
34.79
34.76
34.731
34.703
34.678
34.653
34.63
34.608
34.586
34.565
34.543
34.522
34.5
34.477
34.453
34.428
34.402
34.375
34.348
34.322
34.295
34.269
34.244
34.22
34.197
34.176
34.157
34.139
34.123
34.108
34.093
34.079
34.065
34.051
34.036
34.021
34.005
33.988
33.969
33.948
33.926
33.903
33.879
33.854
33.83
33.805
33.779
33.753
33.726
33.699
33.672
33.644
33.615
33.587
33.557
33.526
33.495
33.463
33.43
33.398
33.366
33.335
33.304
33.274
33.244
33.215
33.188
33.163
33.139
33.119
33.102
33.09
33.084
33.085
33.095
33.116
33.149
33.196
33.258
33.335
33.428
33.537
33.66
33.798
33.948
34.107
34.273
34.442
34.611
34.778
34.94
35.094
35.239
35.372
35.493
35.601
35.695
35.775
35.841
35.894
35.935
35.963
35.982
35.991
35.993
35.986
35.973
35.955
35.932
35.906
35.877
35.846
35.815
35.783
35.751
35.719
35.688
35.658
35.63
35.602
35.576
35.551
35.527
35.504
35.482
35.459
35.437
35.415
35.392
35.368
35.343
35.318
35.291
35.263
35.234
35.204
35.174
35.144
35.114
35.084
35.056
35.029
35.005
34.985
34.969
34.957
34.95
34.946
34.946
34.95
34.956
34.964
34.973
34.982
34.992
35.002
35.011
35.02
35.028
35.034
35.04
35.042
35.042
35.038
35.029
35.017
35.0
34.98
34.957
34.932
34.905
34.877
34.848
34.819
34.79
34.761
34.732
34.702
34.673
34.645
34.616
34.588
34.559
34.528
34.497
34.464
34.43
34.394
34.357
34.319
34.28
34.241
34.201
34.161
34.122
34.083
34.045
34.009
33.973
33.938
33.905
33.872
33.842
33.812
33.784
33.757
33.729
33.703
33.676
33.65
33.625
33.6
33.576
33.553
33.53
33.51
33.49
33.471
33.453
33.436
33.419
33.403
33.387
33.371
33.355
33.339
33.323
33.309
33.296
33.283
33.27
33.257
33.244
33.231
33.218
33.204
33.189
33.174
33.159
33.144
33.129
33.115
33.1
33.086
33.071
33.057
33.043
33.029
33.015
33.001
32.988
32.976
32.964
32.952
32.939
32.926
32.91
32.892
32.871
32.846
32.819
32.789
32.755
32.72
32.683
32.645
32.608
32.572
32.539
32.508
32.481
32.457
32.437
32.421
32.409
32.403
32.402
32.409
32.423
32.448
32.483
32.53
32.589
32.66
32.745
32.842
32.95
33.068
33.196
33.33
33.47
33.613
33.757
33.9
34.039
34.173
34.299
34.417
34.525
34.621
34.706
34.779
34.839
34.887
34.924
34.95
34.967
34.975
34.976
34.97
34.959
34.945
34.926
34.906
34.885
34.863
34.843
34.824
34.807
34.792
34.779
34.769
34.759
34.751
34.744
34.738
34.732
34.725
34.719
34.711
34.703
34.694
34.684
34.673
34.663
34.651
34.638
34.625
34.61
34.594
34.577
34.559
34.54
34.52
34.501
34.482
34.465
34.449
34.435
34.422
34.411
34.402
34.397
34.394
34.395
34.399
34.405
34.413
34.423
34.433
34.444
34.454
34.464
34.473
34.48
34.484
34.486
34.484
34.479
34.471
34.46
34.446
34.428
34.407
34.384
34.359
34.333
34.306
34.277
34.249
34.219
34.189
34.158
34.126
34.092
34.057
34.02
33.982
33.943
33.902
33.86
33.818
33.775
33.733
33.693
33.654
33.616
33.581
33.548
33.516
33.487
33.459
33.434
33.411
33.39
33.37
33.351
33.334
33.318
33.303
33.288
33.275
33.262
33.249
33.235
33.222
33.208
33.195
33.181
33.168
33.156
33.145
33.135
33.127
33.12
33.115
33.111
33.108
33.105
33.102
33.098
33.094
33.089
33.083
33.076
33.068
33.06
33.053
33.045
33.038
33.032
33.027
33.022
33.017
33.013
33.01
33.007
33.006
33.005
33.004
33.004
33.003
33.002
33.001
33.0
32.998
32.996
32.993
32.99
32.987
32.983
32.979
32.975
32.971
32.966
32.961
32.955
32.947
32.938
32.928
32.916
32.903
32.888
32.871
32.852
32.832
32.811
32.79
32.771
32.753
32.737
32.722
32.71
32.699
32.691
32.685
32.681
32.68
32.681
32.685
32.694
32.709
32.73
32.761
32.801
32.853
32.919
32.997
33.09
33.197
33.316
33.447
33.588
33.738
33.892
34.05
34.209
34.365
34.516
34.659
34.793
34.916
35.026
35.123
35.205
35.274
35.328
35.369
35.397
35.414
35.42
35.418
35.409
35.394
35.375
35.352
35.327
35.302
35.276
35.252
35.228
35.206
35.185
35.166
35.149
35.134
35.12
35.109
35.099
35.09
35.082
35.076
35.072
35.069
35.068
35.069
35.07
35.071
35.073
35.073
35.073
35.072
35.068
35.062
35.053
35.041
35.027
35.01
34.993
34.976
34.959
34.944
34.931
34.92
34.912
34.907
34.906
34.908
34.915
34.925
34.939
34.955
34.974
34.994
35.015
35.037
35.057
35.077
35.094
35.107
35.116
35.121
35.121
35.117
35.11
35.099
35.085
35.068
35.049
35.027
35.005
34.982
34.959
34.935
34.913
34.891
34.871
34.851
34.832
34.815
34.797
34.781
34.764
34.747
34.729
34.71
34.689
34.667
34.643
34.619
34.594
34.569
34.544
34.519
34.493
34.469
34.445
34.421
34.399
34.377
34.357
34.338
34.319
34.301
34.284
34.267
34.252
34.237
34.224
34.211
34.199
34.187
34.176
34.164
34.152
34.139
34.124
34.108
34.091
34.074
34.055
34.037
34.02
34.002
33.986
33.972
33.959
33.948
33.939
33.93
33.923
33.915
33.907
33.898
33.888
33.877
33.865
33.853
33.839
33.826
33.813
33.801
33.789
33.779
33.771
33.763
33.756
33.748
33.741
33.734
33.727
33.72
33.713
33.706
33.698
33.69
33.682
33.675
33.668
33.662
33.655
33.649
33.642
33.635
33.628
33.619
33.609
33.597
33.584
33.57
33.554
33.538
33.52
33.503
33.484
33.465
33.446
33.426
33.406
33.387
33.37
33.355
33.343
33.334
33.327
33.326
33.33
33.341
33.36
33.388
33.427
33.477
33.54
33.616
33.706
33.81
33.928
34.058
34.2
34.352
34.513
34.679
34.85
35.023
35.193
35.36
35.518
35.667
35.804
35.927
36.034
36.127
36.203
36.263
36.309
36.34
36.359
36.367
36.365
36.357
36.342
36.324
36.302
36.279
36.256
36.232
36.208
36.185
36.163
36.142
36.122
36.104
36.088
36.073
36.06
36.049
36.039
36.031
36.024
36.018
36.012
36.008
36.004
36.001
35.998
35.994
35.99
35.984
35.976
35.966
35.954
35.94
35.925
35.907
35.887
35.866
35.845
35.826
35.808
35.793
35.781
35.774
35.771
35.771
35.776
35.785
35.796
35.809
35.825
35.841
35.859
35.876
35.893
35.907
35.92
35.93
35.938
35.943
35.946
35.946
35.943
35.939
35.932
35.923
35.913
35.901
35.886
35.87
35.852
35.833
35.812
35.791
35.769
35.747
35.725
35.703
35.681
35.659
35.638
35.617
35.596
35.575
35.554
35.533
35.511
35.489
35.466
35.443
35.42
35.398
35.375
35.354
35.333
35.313
35.294
35.275
35.257
35.24
35.223
35.207
35.191
35.175
35.158
35.142
35.127
35.111
35.096
35.081
35.066
35.051
35.036
35.021
35.007
34.994
34.98
34.968
34.955
34.942
34.929
34.916
34.903
34.89
34.877
34.863
34.85
34.836
34.823
34.81
34.798
34.785
34.773
34.761
34.749
34.739
34.729
34.719
34.708
34.697
34.686
34.674
34.663
34.651
34.639
34.626
34.612
34.598
34.583
34.568
34.554
34.539
34.525
34.511
34.496
34.482
34.468
34.455
34.443
34.431
34.42
34.409
34.399
34.388
34.378
34.367
34.356
34.344
34.332
34.318
34.304
34.289
34.273
34.256
34.238
34.22
34.201
34.183
34.166
34.149
34.134
34.122
34.112
34.107
34.107
34.115
34.131
34.159
34.198
34.25
34.315
34.394
34.487
34.594
34.714
34.846
34.989
35.141
35.3
35.464
35.63
35.796
35.959
36.116
36.265
36.405
36.533
36.648
36.751
36.84
36.916
36.978
37.027
37.065
37.092
37.11
37.12
37.123
37.122
37.116
37.107
37.095
37.081
37.064
37.044
37.022
36.998
36.973
36.947
36.92
36.893
36.866
36.839
36.813
36.788
36.765
36.743
36.722
36.703
36.685
36.669
36.654
36.64
36.626
36.613
36.599
36.585
36.571
36.558
36.544
36.53
36.516
36.502
36.49
36.479
36.471
36.464
36.461
36.461
36.464
36.47
36.48
36.492
36.506
36.522
36.541
36.56
36.579
36.598
36.615
36.63
36.642
36.652
36.658
36.661
36.661
36.657
36.649
36.638
36.625
36.609
36.592
36.573
36.553
36.531
36.507
36.483
36.458
36.432
36.407
36.381
36.355
36.329
36.302
36.275
36.247
36.219
36.189
36.159
36.127
36.096
36.064
36.032
35.999
35.967
35.935
35.904
35.875
35.847
35.822
35.799
35.777
35.756
35.736
35.715
35.695
35.675
35.654
35.634
35.614
35.593
35.573
35.553
35.533
35.513
35.495
35.476
35.459
35.443
35.428
35.414
35.402
35.39
35.38
35.37
35.361
35.353
35.345
35.337
35.329
35.321
35.312
35.303
35.293
35.283
35.273
35.262
35.251
35.24
35.227
35.214
35.2
35.186
35.172
35.158
35.144
35.13
35.116
35.102
35.087
35.072
35.058
35.043
35.028
35.013
34.998
34.985
34.973
34.96
34.949
34.936
34.923
34.909
34.894
34.878
34.86
34.842
34.823
34.802
34.78
34.757
34.732
34.707
34.682
34.656
34.632
34.609
34.588
34.569
34.553
34.539
34.528
34.52
34.516
34.518
34.525
34.54
34.562
34.594
34.635
34.686
34.748
34.822
34.907
35.005
35.115
35.236
35.368
35.508
35.656
35.809
35.964
36.119
36.272
36.421
36.563
36.698
36.822
36.935
37.035
37.124
37.2
37.265
37.318
37.361
37.395
37.42
37.438
37.449
37.455
37.456
37.451
37.443
37.431
37.415
37.396
37.373
37.348
37.319
37.288
37.255
37.221
37.185
37.15
37.115
37.083
37.052
37.022
36.994
36.968
36.942
36.917
36.893
36.869
36.845
36.821
36.796
36.771
36.745
36.72
36.695
36.672
36.651
36.632
36.615
36.602
36.591
36.584
36.58
36.579
36.582
36.588
36.598
36.61
36.626
36.644
36.664
36.686
36.709
36.734
36.759
36.785
36.809
36.832
36.854
36.872
36.888
36.899
36.906
36.907
36.904
36.895
36.882
36.865
36.845
36.823
36.8
36.776
36.752
36.728
36.706
36.685
36.664
36.645
36.625
36.605
36.584
36.562
36.539
36.513
36.486
36.456
36.425
36.393
36.36
36.328
36.295
36.262
36.23
36.198
36.166
36.134
36.102
36.07
36.039
36.01
35.981
35.955
35.93
35.908
35.887
35.867
35.848
35.829
35.811
35.794
35.777
35.759
35.742
35.725
35.708
35.691
35.673
35.655
35.637
35.618
35.598
35.577
35.554
35.531
35.507
35.483
35.459
35.435
35.413
35.391
35.371
35.351
35.331
35.312
35.292
35.271
35.251
35.229
35.207
35.185
35.162
35.138
35.114
35.09
35.066
35.042
35.019
34.996
34.974
34.951
34.928
34.905
34.882
34.858
34.833
34.809
34.784
34.76
34.737
34.715
34.694
34.675
34.658
34.642
34.627
34.612
34.599
34.585
34.57
34.554
34.536
34.516
34.494
34.47
34.444
34.416
34.387
34.357
34.329
34.3
34.273
34.247
34.223
34.2
34.18
34.16
34.143
34.127
34.114
34.104
34.098
34.097
34.103
34.117
34.141
34.178
34.23
34.297
34.382
34.485
34.607
34.747
34.904
35.078
35.265
35.463
35.67
35.883
36.1
36.318
36.533
36.743
36.946
37.138
37.318
37.484
37.635
37.77
37.89
37.994
38.082
38.156
38.216
38.264
38.301
38.328
38.345
38.354
38.356
38.351
38.342
38.328
38.311
38.292
38.271
38.25
38.228
38.206
38.186
38.166
38.147
38.13
38.115
38.102
38.091
38.081
38.074
38.068
38.062
38.057
38.052
38.046
38.039
38.03
38.021
38.009
37.996
37.98
37.963
37.943
37.922
37.901
37.881
37.862
37.845
37.831
37.82
37.813
37.809
37.809
37.814
37.822
37.833
37.847
37.863
37.879
37.896
37.913
37.93
37.945
37.959
37.971
37.981
37.988
37.992
37.994
37.992
37.987
37.978
37.967
37.952
37.935
37.915
37.892
37.867
37.84
37.812
37.782
37.75
37.717
37.684
37.649
37.614
37.579
37.543
37.508
37.472
37.437
37.402
37.367
37.332
37.298
37.264
37.229
37.192
37.154
37.115
37.076
37.036
36.996
36.955
36.915
36.875
36.835
36.796
36.758
36.721
36.685
36.649
36.613
36.577
36.542
36.508
36.475
36.443
36.412
36.383
36.356
36.33
36.305
36.281
36.256
36.232
36.206
36.18
36.152
36.124
36.096
36.069
36.041
36.013
35.985
35.958
35.93
35.903
35.878
35.854
35.831
35.808
35.785
35.762
35.738
35.714
35.689
35.664
35.639
35.612
35.585
35.557
35.529
35.5
35.47
35.44
35.409
35.377
35.345
35.312
35.279
35.246
35.214
35.183
35.153
35.125
35.098
35.072
35.046
35.021
34.996
34.972
34.948
34.924
34.899
34.874
34.848
34.82
34.792
34.762
34.732
34.701
34.67
34.639
34.607
34.575
34.544
34.513
34.482
34.453
34.424
34.396
34.369
34.341
34.314
34.288
34.262
34.238
34.215
34.193
34.172
34.152
34.133
34.114
34.096
34.076
34.054
34.031
34.005
33.977
33.946
33.914
33.881
33.847
33.813
33.779
33.748
33.719
33.694
33.673
33.657
33.648
33.646
33.654
33.673
33.706
33.755
33.823
33.91
34.018
34.147
34.298
34.469
34.659
34.867
35.089
35.325
35.57
35.821
36.075
36.329
36.578
36.82
37.052
37.27
37.475
37.662
37.833
37.984
38.117
38.229
38.322
38.397
38.454
38.495
38.522
38.535
38.536
38.527
38.51
38.487
38.459
38.427
38.393
38.358
38.324
38.29
38.258
38.228
38.201
38.178
38.159
38.144
38.133
38.126
38.123
38.123
38.125
38.128
38.132
38.137
38.14
38.141
38.14
38.136
38.128
38.118
38.104
38.088
38.07
38.05
38.029
38.007
37.987
37.967
37.951
37.938
37.928
37.924
37.923
37.927
37.935
37.946
37.959
37.975
37.991
38.009
38.026
38.043
38.058
38.072
38.084
38.093
38.1
38.105
38.107
38.105
38.101
38.093
38.083
38.069
38.052
38.033
38.011
37.986
37.958
37.929
37.897
37.863
37.827
37.789
37.75
37.709
37.667
37.624
37.58
37.536
37.491
37.445
37.4
37.354
37.309
37.263
37.217
37.172
37.126
37.079
37.031
36.983
36.934
36.885
36.837
36.789
36.742
36.696
36.651
36.607
36.563
36.52
36.477
36.435
36.393
36.353
36.315
36.278
36.243
36.209
36.177
36.146
36.116
36.088
36.061
36.035
36.01
35.985
35.961
35.936
35.911
35.884
35.856
35.826
35.796
35.765
35.735
35.705
35.675
35.647
35.62
35.594
35.569
35.544
35.52
35.496
35.472
35.448
35.424
35.399
35.374
35.347
35.32
35.293
35.265
35.238
35.211
35.183
35.154
35.125
35.095
35.064
35.033
35.001
34.969
34.937
34.906
34.874
34.843
34.813
34.783
34.754
34.726
34.698
34.669
34.639
34.61
34.58
34.55
34.519
34.489
34.459
34.429
34.399
34.37
34.341
34.313
34.285
34.257
34.229
34.201
34.174
34.145
34.117
34.089
34.059
34.029
33.999
33.967
33.935
33.902
33.868
33.833
33.797
33.76
33.724
33.687
33.651
33.617
33.586
33.556
33.529
33.507
33.489
33.479
33.477
33.486
33.508
33.545
33.599
33.673
33.767
33.883
34.022
34.182
34.363
34.563
34.78
35.012
35.256
35.509
35.767
36.028
36.288
36.544
36.794
37.034
37.261
37.473
37.668
37.845
38.003
38.14
38.256
38.351
38.428
38.488
38.531
38.56
38.576
38.581
38.575
38.561
38.539
38.511
38.479
38.443
38.405
38.365
38.325
38.285
38.246
38.207
38.169
38.133
38.098
38.065
38.035
38.007
37.984
37.963
37.945
37.929
37.915
37.901
37.888
37.874
37.859
37.843
37.827
37.81
37.792
37.775
37.759
37.744
37.732
37.722
37.717
37.717
37.721
37.729
37.743
37.76
37.782
37.808
37.838
37.87
37.904
37.938
37.971
38.004
38.034
38.061
38.086
38.107
38.123
38.135
38.141
38.141
38.135
38.123
38.103
38.077
38.044
38.006
37.962
37.914
37.862
37.805
37.746
37.683
37.618
37.551
37.483
37.415
37.346
37.278
37.21
37.145
37.081
37.019
36.959
36.901
36.846
36.793
36.743
36.696
36.651
36.608
36.566
36.526
36.488
36.449
36.411
36.374
36.336
36.297
36.258
36.219
36.178
36.137
36.094
36.05
36.004
35.957
35.908
35.857
35.807
35.756
35.705
35.654
35.603
35.553
35.504
35.456
35.41
35.366
35.324
35.285
35.249
35.216
35.186
35.159
35.133
35.11
35.088
35.068
35.049
35.031
35.013
34.994
34.974
34.953
34.931
34.908
34.883
34.858
34.833
34.808
34.783
34.759
34.735
34.711
34.687
34.664
34.64
34.617
34.593
34.57
34.546
34.522
34.497
34.473
34.449
34.425
34.402
34.379
34.356
34.333
34.31
34.285
34.259
34.231
34.201
34.168
34.134
34.098
34.06
34.022
33.982
33.942
33.902
33.862
33.823
33.785
33.748
33.712
33.677
33.644
33.612
33.582
33.555
33.532
33.513
33.5
33.494
33.498
33.514
33.544
33.589
33.653
33.736
33.84
33.965
34.111
34.278
34.465
34.672
34.895
35.132
35.38
35.636
35.897
36.158
36.416
36.668
36.911
37.141
37.357
37.556
37.737
37.899
38.041
38.163
38.265
38.348
38.412
38.459
38.49
38.507
38.511
38.504
38.487
38.461
38.429
38.392
38.35
38.306
38.26
38.213
38.167
38.122
38.079
38.037
37.996
37.958
37.921
37.886
37.852
37.818
37.785
37.751
37.717
37.682
37.645
37.605
37.564
37.521
37.475
37.43
37.384
37.339
37.297
37.257
37.221
37.19
37.164
37.143
37.128
37.119
37.116
37.118
37.126
37.139
37.156
37.177
37.201
37.227
37.254
37.284
37.314
37.345
37.375
37.403
37.43
37.453
37.473
37.489
37.501
37.508
37.511
37.508
37.501
37.489
37.472
37.451
37.426
37.396
37.363
37.327
37.288
37.246
37.201
37.155
37.107
37.057
37.007
36.956
36.904
36.852
36.799
36.747
36.695
36.645
36.595
36.546
36.499
36.452
36.407
36.364
36.321
36.279
36.237
36.196
36.154
36.111
36.069
36.026
35.983
35.94
35.897
35.854
35.812
35.77
35.729
35.69
35.652
35.615
35.579
35.544
35.511
35.479
35.449
35.42
35.393
35.367
35.342
35.318
35.295
35.273
35.251
35.229
35.207
35.184
35.161
35.137
35.113
35.088
35.064
35.04
35.015
34.991
34.968
34.946
34.925
34.906
34.887
34.87
34.854
34.838
34.823
34.807
34.791
34.774
34.755
34.733
34.709
34.682
34.653
34.62
34.586
34.549
34.511
34.472
34.432
34.391
34.35
34.31
34.27
34.233
34.197
34.166
34.14
34.12
34.11
34.111
34.124
34.153
34.199
34.263
34.348
34.455
34.584
34.735
34.908
35.101
35.312
35.539
35.781
36.033
36.293
36.557
36.821
37.083
37.339
37.586
37.822
38.043
38.247
38.433
38.6
38.746
38.873
38.979
39.067
39.135
39.187
39.222
39.244
39.253
39.251
39.24
39.222
39.198
39.169
39.137
39.102
39.065
39.028
38.99
38.952
38.916
38.88
38.846
38.813
38.783
38.754
38.728
38.704
38.68
38.657
38.633
38.608
38.581
38.553
38.522
38.489
38.454
38.417
38.379
38.341
38.301
38.261
38.221
38.184
38.149
38.117
38.091
38.069
38.054
38.044
