Trial 1:0back
35.049
35.22
35.388
35.551
35.707
35.854
35.991
36.115
36.226
36.324
36.407
36.476
36.531
36.573
36.604
36.623
36.633
36.635
36.63
36.62
36.605
36.587
36.567
36.545
36.523
36.502
36.483
36.466
36.451
36.438
36.428
36.42
36.414
36.41
36.407
36.405
36.402
36.398
36.394
36.388
36.381
36.372
36.36
36.347
36.331
36.313
36.294
36.274
36.252
36.23
36.208
36.186
36.165
36.147
36.131
36.118
36.109
36.103
36.1
36.101
36.105
36.112
36.123
36.136
36.151
36.168
36.187
36.206
36.225
36.243
36.26
36.275
36.287
36.297
36.304
36.308
36.309
36.307
36.303
36.295
36.284
36.272
36.258
36.241
36.224
36.204
36.182
36.158
36.131
36.104
36.076
36.047
36.019
35.99
35.963
35.935
35.908
35.881
35.853
35.826
35.797
35.768
35.738
35.708
35.678
35.648
35.618
35.59
35.563
35.537
35.512
35.488
35.463
35.437
35.41
35.383
35.355
35.326
35.296
35.265
35.232
35.199
35.164
35.128
35.09
35.05
35.008
34.964
34.918
34.871
34.824
34.776
34.728
34.681
34.636
34.592
34.55
34.512
34.477
34.446
34.42
34.397
34.378
34.363
34.352
34.344
34.339
34.337
34.337
34.338
34.339
34.339
34.339
34.336
34.331
34.324
34.313
34.299
34.282
34.263
34.24
34.215
34.187
34.157
34.124
34.09
34.055
34.021
33.987
33.954
33.921
33.888
33.857
33.825
33.795
33.767
33.74
33.714
33.689
33.666
33.644
33.622
33.602
33.582
33.562
33.541
33.52
33.498
33.476
33.454
33.432
33.411
33.392
33.374
33.359
33.348
33.342
33.344
33.354
33.374
33.406
33.452
33.512
33.588
33.681
33.79
33.915
34.056
34.21
34.375
34.549
34.73
34.915
35.101
35.286
35.467
35.642
35.809
35.966
36.111
36.244
36.363
36.468
36.559
36.636
36.701
36.753
36.793
36.823
36.842
36.852
36.854
36.849
36.838
36.823
36.804
36.781
36.758
36.733
36.708
36.684
36.661
36.639
36.618
36.599
36.582
36.567
36.553
36.542
36.532
36.524
36.517
36.511
36.506
36.501
36.496
36.489
36.482
36.474
36.464
36.452
36.438
36.424
36.409
36.394
36.379
36.366
36.354
36.344
36.337
36.333
36.333
36.335
36.341
36.35
36.362
36.377
36.395
36.414
36.435
36.457
36.478
36.499
36.517
36.532
36.544
36.551
36.553
36.551
36.543
36.532
36.517
36.498
36.477
36.453
36.427
36.398
36.367
36.334
36.298
36.26
36.221
36.18
36.138
36.095
36.053
36.012
35.971
35.931
35.891
35.852
35.814
35.778
35.743
35.709
35.675
35.642
35.609
35.575
35.542
35.508
35.474
35.44
35.406
35.372
35.339
35.307
35.276
35.246
35.217
35.19
35.165
35.141
35.12
35.1
35.081
35.064
35.046
35.029
35.011
34.993
34.975
34.956
34.937
34.918
34.898
34.878
34.858
34.837
34.816
34.795
34.773
34.752
34.73
34.709
34.689
34.669
34.651
34.634
34.618
34.602
34.587
34.573
34.558
34.543
34.527
34.512
34.496
34.479
34.463
34.447
34.431
34.416
34.401
34.386
34.371
34.355
34.34
34.323
34.306
34.288
34.269
34.25
34.23
34.21
34.189
34.169
34.148
34.128
34.107
34.087
34.068
34.048
34.029
34.01
33.99
33.969
33.947
33.923
33.898
33.872
33.844
33.815
33.786
33.756
33.725
33.693
33.662
33.63
33.598
33.567
33.537
33.508
33.481
33.456
33.435
33.417
33.402
33.394
33.393
33.4
33.417
33.447
33.49
33.548
33.621
33.711
33.818
33.943
34.086
34.246
34.421
34.609
34.808
35.015
35.228
35.444
35.659
35.871
36.076
36.272
36.457
36.63
36.788
36.93
37.056
37.165
37.258
37.336
37.397
37.444
37.478
37.499
37.51
37.511
37.505
37.492
37.474
37.452
37.427
37.401
37.375
37.35
37.326
37.305
37.287
37.272
37.261
37.255
37.252
37.253
37.258
37.266
37.277
37.289
37.302
37.315
37.327
37.337
37.344
37.347
37.347
37.341
37.332
37.318
37.301
37.281
37.259
37.236
37.213
37.19
37.168
37.149
37.131
37.117
37.105
37.097
37.093
37.091
37.094
37.101
37.11
37.122
37.136
37.151
37.167
37.183
37.199
37.214
37.227
37.237
37.245
37.248
37.248
37.243
37.233
37.219
37.201
37.179
37.154
37.126
37.096
37.063
37.028
36.992
36.955
36.918
36.88
36.84
36.8
36.76
36.718
36.676
36.633
36.589
36.545
36.501
36.457
36.413
36.37
36.326
36.284
36.242
36.202
36.164
36.127
36.093
36.06
36.029
35.998
35.968
35.938
35.908
35.877
35.847
35.815
35.783
35.75
35.717
35.683
35.65
35.616
35.583
35.551
35.52
35.49
35.461
35.434
35.407
35.382
35.359
35.336
35.314
35.293
35.272
35.25
35.228
35.205
35.181
35.156
35.131
35.106
35.08
35.053
35.027
35.0
34.974
34.948
34.923
34.899
34.875
34.851
34.828
34.806
34.784
34.763
34.741
34.719
34.697
34.675
34.653
34.631
34.608
34.585
34.561
34.538
34.515
34.492
34.47
34.449
34.427
34.405
34.382
34.359
34.335
34.311
34.287
34.262
34.236
34.21
34.183
34.157
34.131
34.105
34.079
34.053
34.026
34.0
33.973
33.947
33.92
33.894
33.869
33.844
33.819
33.795
33.772
33.749
33.728
33.707
33.686
33.666
33.646
33.626
33.606
33.586
33.566
33.544
33.52
33.495
33.469
33.442
33.414
33.386
33.359
33.331
33.304
33.278
33.255
33.235
33.22
33.213
33.214
33.226
33.249
33.287
33.34
33.41
33.499
33.608
33.736
33.884
34.051
34.235
34.436
34.652
34.88
35.118
35.361
35.606
35.851
36.091
36.322
36.543
36.751
36.943
37.119
37.277
37.415
37.535
37.635
37.717
37.78
37.827
37.86
37.879
37.887
37.886
37.876
37.861
37.841
37.818
37.793
37.767
37.742
37.718
37.697
37.679
37.664
37.652
37.644
37.638
37.635
37.636
37.639
37.645
37.652
37.662
37.672
37.682
37.691
37.7
37.706
37.709
37.709
37.705
37.697
37.684
37.669
37.651
37.631
37.609
37.587
37.564
37.542
37.521
37.501
37.484
37.469
37.458
37.451
37.447
37.446
37.45
37.456
37.465
37.476
37.489
37.503
37.516
37.529
37.54
37.549
37.555
37.558
37.557
37.553
37.546
37.535
37.522
37.505
37.484
37.461
37.435
37.406
37.374
37.341
37.305
37.267
37.228
37.187
37.146
37.104
37.061
37.017
36.973
36.929
36.885
36.842
36.799
36.756
36.714
36.672
36.631
36.59
36.549
36.509
36.468
36.429
36.389
36.351
36.312
36.274
36.236
36.198
36.159
36.12
36.08
36.041
36.002
35.964
35.926
35.888
35.852
35.817
35.783
35.752
35.722
35.693
35.665
35.637
35.61
35.584
35.558
35.532
35.506
35.48
35.455
35.43
35.405
35.382
35.358
35.335
35.313
35.291
35.269
35.248
35.228
35.207
35.187
35.167
35.146
35.126
35.106
35.086
35.066
35.046
35.025
35.003
34.98
34.957
34.934
34.909
34.883
34.855
34.827
34.798
34.768
34.739
34.709
34.679
34.649
34.619
34.589
34.56
34.532
34.503
34.475
34.447
34.419
34.391
34.364
34.337
34.311
34.286
34.261
34.238
34.217
34.198
34.18
34.164
34.148
34.133
34.117
34.101
34.085
34.067
34.049
34.03
34.01
33.99
33.968
33.946
33.923
33.899
33.875
33.85
33.825
33.8
33.775
33.752
33.728
33.704
33.681
33.657
33.632
33.607
33.582
33.556
33.53
33.504
33.477
33.451
33.424
33.397
33.37
33.342
33.314
33.285
33.256
33.226
33.194
33.162
33.129
33.096
33.062
33.029
32.996
32.964
32.934
32.905
32.879
32.855
32.835
32.818
32.804
32.794
32.788
32.789
32.797
32.814
32.842
32.881
32.934
33.003
33.088
33.192
33.314
33.455
33.615
33.793
33.988
34.199
34.424
34.66
34.906
35.158
35.413
35.669
35.922
36.169
36.408
36.635
36.848
37.044
37.222
37.381
37.52
37.639
37.738
37.819
37.883
37.932
37.967
37.99
38.002
38.005
38.0
37.988
37.97
37.947
37.921
37.893
37.864
37.835
37.806
37.779
37.753
37.729
37.708
37.69
37.676
37.666
37.661
37.66
37.662
37.666
37.67
37.674
37.677
37.678
37.678
37.674
37.668
37.659
37.647
37.634
37.618
37.601
37.582
37.563
37.544
37.526
37.509
37.496
37.486
37.481
37.48
37.483
37.49
37.501
37.516
37.533
37.552
37.573
37.594
37.616
37.636
37.655
37.673
37.688
37.701
37.711
37.718
37.722
37.721
37.717
37.709
37.697
37.68
37.66
37.637
37.61
37.58
37.547
37.513
37.476
37.438
37.399
37.358
37.316
37.273
37.23
37.187
37.143
37.1
37.056
37.013
36.971
36.928
36.886
36.843
36.8
36.757
36.712
36.667
36.62
36.573
36.524
36.474
36.424
36.372
36.32
36.267
36.216
36.165
36.117
36.07
36.024
35.981
35.938
35.898
35.858
35.821
35.784
35.749
35.715
35.682
35.651
35.621
35.592
35.563
35.536
35.509
35.483
35.458
35.433
35.409
35.384
35.36
35.335
35.309
35.283
35.255
35.227
35.197
35.168
35.137
35.107
35.076
35.045
35.014
34.984
34.955
34.926
34.898
34.871
34.845
34.821
34.798
34.775
34.752
34.729
34.704
34.679
34.653
34.627
34.6
34.574
34.548
34.522
34.495
34.469
34.443
34.416
34.389
34.362
34.335
34.308
34.28
34.252
34.224
34.195
34.165
34.135
34.104
34.073
34.042
34.011
33.981
33.951
33.923
33.896
33.871
33.847
33.824
33.803
33.783
33.763
33.743
33.722
33.701
33.679
33.657
33.633
33.609
33.584
33.558
33.533
33.507
33.483
33.459
33.435
33.411
33.386
33.36
33.333
33.305
33.277
33.248
33.218
33.186
33.155
33.122
33.09
33.058
33.027
32.997
32.97
32.943
32.919
32.897
32.877
32.859
32.845
32.836
32.832
32.836
32.85
32.875
32.914
32.97
33.044
33.138
33.253
33.389
33.546
33.723
33.921
34.136
34.368
34.613
34.869
35.132
35.397
35.663
35.924
36.177
36.42
36.65
36.864
37.062
37.242
37.403
37.544
37.666
37.769
37.853
37.921
37.972
38.009
38.031
38.04
38.037
38.025
38.005
37.977
37.944
37.907
37.866
37.823
37.779
37.735
37.691
37.649
37.609
37.57
37.535
37.501
37.47
37.442
37.417
37.394
37.373
37.354
37.335
37.315
37.294
37.27
37.244
37.216
37.186
37.153
37.121
37.088
37.057
37.029
37.003
36.981
36.964
36.952
36.946
36.947
36.954
36.967
36.984
37.007
37.032
37.061
37.091
37.124
37.157
37.19
37.222
37.253
37.281
37.307
37.328
37.346
37.359
37.368
37.372
37.372
37.368
37.36
37.347
37.33
37.31
37.285
37.257
37.225
37.189
37.15
37.109
37.066
37.021
36.975
36.927
36.878
36.828
36.778
36.727
36.676
36.624
36.572
36.52
36.468
36.417
36.365
36.314
36.263
36.213
36.164
36.115
36.066
36.018
35.969
35.921
35.873
35.825
35.777
35.73
35.683
35.636
35.589
35.542
35.497
35.453
35.412
35.374
35.338
35.304
35.273
35.243
35.215
35.188
35.161
35.134
35.106
35.078
35.049
35.017
34.984
34.951
34.917
34.885
34.853
34.824
34.797
34.772
34.75
34.73
34.712
34.695
34.68
34.665
34.65
34.635
34.62
34.604
34.588
34.571
34.552
34.532
34.51
34.487
34.462
34.435
34.408
34.38
34.352
34.325
34.298
34.271
34.245
34.218
34.191
34.164
34.136
34.107
34.078
34.049
34.019
33.989
33.959
33.929
33.899
33.869
33.839
33.81
33.781
33.753
33.726
33.7
33.674
33.649
33.623
33.597
33.571
33.543
33.514
33.484
33.453
33.42
33.387
33.353
33.318
33.284
33.249
33.215
33.18
33.145
33.111
33.076
33.044
33.013
32.986
32.964
32.946
32.934
32.931
32.937
32.955
32.989
33.039
33.108
33.198
33.31
33.445
33.605
33.788
33.993
34.22
34.466
34.729
35.006
35.292
35.585
35.88
36.174
36.461
36.74
37.007
37.259
37.495
37.711
37.908
38.083
38.237
38.369
38.479
38.568
38.638
38.691
38.727
38.749
38.758
38.756
38.745
38.725
38.7
38.669
38.635
38.599
38.561
38.524
38.486
38.45
38.416
38.384
38.354
38.326
38.302
38.279
38.258
38.239
38.222
38.205
38.188
38.17
38.15
38.128
38.104
38.076
38.045
38.012
37.976
37.939
37.9
37.861
37.822
37.785
37.75
37.718
37.691
37.669
37.652
37.642
37.637
37.639
37.646
37.658
37.675
37.696
37.719
37.744
37.771
37.799
37.826
37.851
37.874
37.894
37.909
37.919
37.924
37.924
37.919
37.91
37.896
37.877
37.854
37.827
37.797
37.763
37.727
37.688
37.646
37.602
37.556
37.508
37.459
37.408
37.357
37.304
37.25
37.194
37.138
37.08
37.022
36.963
36.904
36.845
36.787
36.727
36.668
36.609
36.55
36.492
36.433
36.375
36.318
36.262
36.207
36.153
36.1
36.048
35.997
35.947
35.899
35.851
35.805
35.761
35.718
35.676
35.635
35.596
35.558
35.521
35.484
35.448
35.412
35.377
35.344
35.311
35.279
35.247
35.216
35.185
35.155
35.125
35.094
35.063
35.032
35.001
34.97
34.939
34.908
34.879
34.85
34.823
34.796
34.77
34.745
34.721
34.697
34.674
34.651
34.628
34.605
34.581
34.557
34.532
34.506
34.477
34.448
34.418
34.387
34.356
34.324
34.292
34.258
34.225
34.19
34.155
34.119
34.084
34.049
34.014
33.981
33.95
33.92
33.891
33.864
33.839
33.814
33.79
33.766
33.742
33.718
33.694
33.668
33.642
33.614
33.584
33.553
33.522
33.489
33.456
33.422
33.387
33.353
33.32
33.288
33.257
33.228
33.201
33.177
33.157
33.143
33.136
33.139
33.153
33.182
33.228
33.293
33.379
33.487
33.619
33.777
33.961
34.171
34.407
34.666
34.947
35.246
35.559
35.882
36.211
36.541
36.867
37.186
37.492
37.783
38.054
38.305
38.532
38.734
38.91
39.059
39.181
39.278
39.35
39.399
39.426
39.435
39.427
39.404
39.367
39.319
39.262
39.199
39.131
39.062
38.993
38.925
38.861
38.801
38.745
38.695
38.651
38.613
38.583
38.558
38.541
38.528
38.521
38.517
38.515
38.513
38.509
38.503
38.493
38.479
38.458
38.432
38.399
38.361
38.318
38.27
38.219
38.166
38.112
38.057
38.003
37.951
37.902
37.858
37.819
37.785
37.758
37.737
37.724
37.718
37.719
37.725
37.737
37.754
37.775
37.798
37.822
37.846
37.869
37.889
37.906
37.918
37.926
37.927
37.924
37.914
37.899
37.879
37.853
37.821
37.785
37.743
37.698
37.65
37.599
37.546
37.489
37.431
37.371
37.309
37.246
37.182
37.117
37.052
36.987
36.922
36.856
36.792
36.728
36.665
36.603
36.541
36.48
36.42
36.361
36.303
36.246
36.191
36.136
36.082
36.029
35.977
35.925
35.874
35.823
35.773
35.723
35.674
35.627
35.581
35.537
35.496
35.456
35.419
35.384
35.351
35.32
35.29
35.261
35.233
35.205
35.177
35.15
35.123
35.095
35.067
35.039
35.009
34.98
34.95
34.92
34.891
34.861
34.832
34.802
34.772
34.741
34.71
34.678
34.647
34.614
34.582
34.549
34.516
34.482
34.449
34.417
34.386
34.354
34.322
34.289
34.255
34.221
34.186
34.151
34.116
34.079
34.042
34.004
33.966
33.928
33.89
33.852
33.814
33.776
33.739
33.702
33.666
33.63
33.595
33.561
33.528
33.494
33.462
33.429
33.397
33.364
33.332
33.299
33.264
33.229
33.192
33.156
33.119
33.083
33.048
33.013
32.978
32.943
32.908
32.872
32.836
32.801
32.765
32.729
32.694
32.661
32.629
32.599
32.572
32.546
32.523
32.503
32.484
32.469
32.458
32.453
32.457
32.47
32.497
32.539
32.601
32.684
32.793
32.927
33.09
33.281
33.5
33.747
34.019
34.316
34.633
34.966
35.312
35.665
36.02
36.374
36.721
37.058
37.381
37.685
37.968
38.227
38.461
38.669
38.85
39.005
39.134
39.238
39.318
39.377
39.415
39.435
39.441
39.433
39.413
39.384
39.348
39.307
39.262
39.215
39.168
39.123
39.079
39.038
39.001
38.967
38.937
38.91
38.887
38.866
38.848
38.831
38.815
38.799
38.783
38.765
38.746
38.724
38.7
38.672
38.641
38.607
38.568
38.527
38.482
38.436
38.39
38.345
38.302
38.262
38.226
38.195
38.169
38.148
38.134
38.124
38.119
38.12
38.125
38.134
38.146
38.161
38.178
38.196
38.214
38.231
38.247
38.26
38.271
38.279
38.283
38.283
38.278
38.267
38.252
38.23
38.204
38.173
38.137
38.098
38.055
38.009
37.961
37.911
37.859
37.805
37.751
37.694
37.637
37.578
37.518
37.457
37.395
37.332
37.267
37.201
37.134
37.065
36.997
36.927
36.857
36.788
36.718
36.65
36.582
36.517
36.453
36.391
36.331
36.273
36.217
36.162
36.108
36.055
36.002
35.951
35.9
35.851
35.802
35.756
35.711
35.668
35.626
35.586
35.546
35.508
35.469
35.431
35.393
35.354
35.315
35.276
35.238
35.2
35.163
35.128
35.094
35.061
35.03
35.0
34.971
34.942
34.914
34.885
34.857
34.828
34.798
34.768
34.738
34.708
34.678
34.647
34.615
34.584
34.552
34.521
34.49
34.459
34.429
34.4
34.37
34.339
34.308
34.275
34.241
34.205
34.167
34.129
34.09
34.052
34.013
33.975
33.938
33.902
33.866
33.831
33.797
33.764
33.732
33.701
33.67
33.64
33.609
33.579
33.548
33.517
33.484
33.45
33.414
33.376
33.335
33.293
33.25
33.205
33.16
33.115
33.07
33.026
32.982
32.939
32.899
32.86
32.824
32.792
32.764
32.742
32.728
32.722
32.729
32.749
32.786
32.842
32.92
33.02
33.146
33.298
33.478
33.684
33.916
34.171
34.449
34.744
35.054
35.374
35.7
36.027
36.351
36.668
36.974
37.265
37.539
37.793
38.025
38.233
38.417
38.575
38.709
38.818
38.904
38.969
39.013
39.04
39.052
39.049
39.035
39.01
38.977
38.938
38.895
38.847
38.796
38.743
38.689
38.635
38.581
38.527
38.475
38.423
38.374
38.327
38.282
38.24
38.201
38.163
38.128
38.092
38.057
38.021
37.984
37.945
37.903
37.86
37.814
37.766
37.717
37.668
37.62
37.574
37.53
37.49
37.455
37.426
37.403
37.388
37.381
37.382
37.39
37.405
37.424
37.448
37.473
37.5
37.527
37.554
37.578
37.6
37.619
37.634
37.645
37.652
37.655
37.653
37.647
37.637
37.622
37.602
37.577
37.548
37.514
37.476
37.433
37.387
37.337
37.284
37.228
37.17
37.11
37.048
36.985
36.92
36.854
36.786
36.718
36.648
36.578
36.508
36.438
36.368
36.299
36.23
36.163
36.097
36.033
35.97
35.909
35.849
35.79
35.732
35.676
35.622
35.568
35.515
35.463
35.41
35.358
35.307
35.257
35.207
35.159
35.113
35.069
35.026
34.986
34.946
34.908
34.871
34.834
34.798
34.762
34.726
34.691
34.658
34.625
34.594
34.563
34.534
34.505
34.477
34.45
34.423
34.397
34.371
34.345
34.32
34.294
34.268
34.243
34.217
34.193
34.169
34.146
34.124
34.102
34.081
34.06
34.04
34.018
33.996
33.972
33.946
33.92
33.892
33.862
33.831
33.798
33.763
33.726
33.687
33.646
33.604
33.561
33.518
33.474
33.429
33.384
33.339
33.294
33.25
33.208
33.168
33.13
33.094
33.062
33.034
33.011
32.995
32.987
32.99
33.007
33.038
33.088
33.159
33.251
33.367
33.508
33.674
33.865
34.08
34.318
34.576
34.85
35.139
35.437
35.741
36.047
36.351
36.647
36.933
37.206
37.461
37.697
37.911
38.102
38.268
38.41
38.527
38.621
38.692
38.743
38.775
38.79
38.79
38.778
38.756
38.726
38.688
38.646
38.6
38.551
38.5
38.449
38.397
38.346
38.297
38.248
38.201
38.156
38.113
38.072
38.031
37.992
37.954
37.916
37.879
37.84
37.799
37.755
37.708
37.657
37.603
37.545
37.485
37.424
37.362
37.303
37.246
37.195
37.149
37.11
37.079
37.057
37.044
37.039
37.042
37.052
37.069
37.091
37.117
37.147
37.18
37.214
37.248
37.281
37.313
37.343
37.37
37.394
37.415
37.431
37.443
37.451
37.453
37.451
37.444
37.431
37.414
37.392
37.365
37.334
37.298
37.259
37.215
37.167
37.115
37.061
37.004
36.944
36.881
36.816
36.748
36.678
36.607
36.534
36.461
36.387
36.313
36.239
36.164
36.09
36.015
35.941
35.867
35.793
35.719
35.647
35.575
35.504
35.434
35.364
35.295
35.227
35.16
35.094
35.03
34.968
34.907
34.849
34.795
34.745
34.698
34.656
34.618
34.584
34.554
34.528
34.505
34.485
34.467
34.45
34.435
34.42
34.405
34.389
34.37
34.35
34.326
34.3
34.27
34.236
34.199
34.159
34.116
34.071
34.024
33.975
33.926
33.878
33.83
33.783
33.738
33.696
33.656
33.618
33.584
33.552
33.524
33.499
33.477
33.457
33.44
33.424
33.41
33.396
33.383
33.37
33.356
33.341
33.323
33.301
33.277
33.248
33.215
33.18
33.141
33.099
33.055
33.01
32.963
32.915
32.868
32.822
32.777
32.734
32.693
32.654
32.62
32.592
32.571
32.559
32.559
32.572
32.601
32.648
32.716
32.808
32.926
33.072
33.247
33.451
33.682
33.941
34.224
34.528
34.851
35.187
35.534
