Trial 1:0back
34.981
34.963
34.945
34.925
34.907
34.889
34.872
34.856
34.842
34.828
34.815
34.805
34.796
34.789
34.784
34.78
34.777
34.776
34.777
34.78
34.785
34.791
34.797
34.802
34.805
34.806
34.806
34.804
34.8
34.795
34.788
34.78
34.77
34.761
34.752
34.743
34.735
34.727
34.719
34.711
34.702
34.694
34.687
34.681
34.677
34.675
34.675
34.677
34.682
34.689
34.697
34.706
34.715
34.723
34.73
34.735
34.74
34.743
34.744
34.745
34.743
34.74
34.735
34.731
34.727
34.724
34.722
34.719
34.717
34.716
34.717
34.721
34.729
34.742
34.76
34.783
34.813
34.851
34.895
34.947
35.007
35.073
35.144
35.218
35.295
35.374
35.452
35.529
35.604
35.675
35.74
35.799
35.851
35.895
35.931
35.96
35.981
35.994
35.999
35.998
35.99
35.978
35.962
35.945
35.926
35.907
35.888
35.868
35.848
35.829
35.81
35.791
35.773
35.754
35.735
35.715
35.693
35.671
35.649
35.626
35.603
35.579
35.554
35.528
35.501
35.474
35.446
35.42
35.395
35.371
35.349
35.327
35.306
35.287
35.268
35.252
35.236
35.22
35.204
35.188
35.173
35.159
35.147
35.137
35.13
35.125
35.12
35.117
35.114
35.113
35.114
35.116
35.119
35.124
35.129
35.136
35.145
35.155
35.169
35.184
35.201
35.219
35.237
35.255
35.274
35.292
35.31
35.328
35.345
35.361
35.375
35.388
35.399
35.408
35.414
35.417
35.416
35.411
35.403
35.392
35.378
35.361
35.344
35.326
35.309
35.292
35.276
35.262
35.249
35.237
35.226
35.215
35.206
35.197
35.188
35.179
35.17
35.161
35.15
35.14
35.128
35.116
35.103
35.09
35.076
35.062
35.048
35.034
35.02
35.007
34.993
34.978
34.964
34.949
34.935
34.922
34.91
34.899
34.891
34.885
34.88
34.876
34.874
34.873
34.873
34.874
34.875
34.877
34.879
34.882
34.885
34.889
34.893
34.897
34.902
34.905
34.906
34.904
34.9
34.895
34.889
34.884
34.879
34.874
34.871
34.868
34.866
34.866
34.866
34.867
34.868
34.868
34.868
34.866
34.864
34.862
34.859
34.857
34.855
34.853
34.849
34.846
34.842
34.838
34.834
34.83
34.825
34.819
34.81
34.8
34.789
34.778
34.768
34.759
34.752
34.747
34.743
34.742
34.744
34.751
34.763
34.781
34.806
34.839
34.878
34.925
34.98
35.042
35.11
35.185
35.265
35.348
35.433
35.52
35.607
35.691
35.774
35.852
35.925
35.992
36.052
36.104
36.148
36.183
36.209
36.226
36.234
36.235
36.228
36.215
36.197
36.174
36.148
36.12
36.09
36.06
36.03
36.001
35.974
35.947
35.922
35.897
35.874
35.852
35.831
35.81
35.79
35.77
35.748
35.726
35.702
35.677
35.651
35.625
35.598
35.57
35.54
35.511
35.481
35.453
35.427
35.404
35.384
35.367
35.352
35.34
35.329
35.321
35.315
35.311
35.308
35.307
35.307
35.306
35.304
35.302
35.3
35.3
35.3
35.303
35.307
35.313
35.322
35.332
35.345
35.36
35.377
35.396
35.415
35.435
35.454
35.473
35.492
35.511
35.529
35.546
35.561
35.573
35.582
35.587
35.59
35.59
35.588
35.584
35.577
35.568
35.557
35.543
35.528
35.513
35.496
35.48
35.464
35.447
35.43
35.413
35.396
35.38
35.364
35.35
35.336
35.323
35.311
35.299
35.287
35.274
35.261
35.248
35.236
35.224
35.212
35.202
35.191
35.182
35.174
35.167
35.16
35.153
35.146
35.138
35.129
35.119
35.109
35.098
35.088
35.079
35.072
35.067
35.062
35.059
35.055
35.052
35.049
35.046
35.045
35.044
35.044
35.044
35.043
35.041
35.037
35.032
35.027
35.021
35.014
35.005
34.994
34.982
34.969
34.957
34.945
34.935
34.925
34.917
34.908
34.901
34.895
34.89
34.888
34.888
34.89
34.893
34.897
34.901
34.905
34.909
34.913
34.916
34.918
34.92
34.92
34.919
34.917
34.914
34.912
34.909
34.906
34.903
34.9
34.898
34.895
34.894
34.895
34.898
34.903
34.91
34.92
34.934
34.951
34.973
35.001
35.035
35.076
35.124
35.178
35.24
35.307
35.38
35.457
35.536
35.617
35.697
35.776
35.853
35.925
35.991
36.05
36.101
36.143
36.178
36.205
36.226
36.24
36.249
36.253
36.251
36.244
36.232
36.217
36.199
36.178
36.156
36.132
36.106
36.079
36.05
36.02
35.99
35.96
35.932
35.904
35.876
35.849
35.822
35.796
35.77
35.746
35.724
35.704
35.685
35.667
35.65
35.634
35.617
35.601
35.585
35.568
35.55
35.53
35.509
35.487
35.465
35.445
35.426
35.41
35.397
35.386
35.376
35.368
35.362
35.358
35.356
35.356
35.36
35.366
35.375
35.386
35.399
35.413
35.429
35.445
35.462
35.479
35.494
35.508
35.521
35.533
35.544
35.555
35.566
35.577
35.588
35.6
35.61
35.619
35.626
35.629
35.628
35.625
35.619
35.611
35.602
35.592
35.581
35.57
35.559
35.55
35.542
35.536
35.532
35.529
35.526
35.523
35.519
35.513
35.507
35.5
35.492
35.484
35.474
35.463
35.45
35.436
35.422
35.407
35.391
35.375
35.357
35.337
35.316
35.295
35.275
35.255
35.236
35.219
35.204
35.189
35.176
35.164
35.153
35.144
35.137
35.131
35.125
35.12
35.116
35.111
35.107
35.103
35.1
35.096
35.092
35.087
35.081
35.075
35.069
35.062
35.056
35.051
35.047
35.044
35.042
35.042
35.043
35.044
35.047
35.049
35.051
35.052
35.053
35.053
35.052
35.051
35.05
35.05
35.05
35.05
35.05
35.049
35.047
35.044
35.041
35.037
35.034
35.031
35.027
35.023
35.017
35.012
35.008
35.006
35.007
35.012
35.023
35.039
35.061
35.088
35.123
35.164
35.213
35.268
35.331
35.398
35.47
35.545
35.621
35.697
35.773
35.846
35.915
35.979
36.037
36.088
36.131
36.166
36.193
36.212
36.224
36.228
36.226
36.218
36.205
36.187
36.165
36.14
36.113
36.085
36.057
36.03
36.004
35.98
35.956
35.933
35.911
35.89
35.87
35.851
35.833
35.815
35.797
35.777
35.756
35.732
35.707
35.681
35.653
35.625
35.595
35.564
35.531
35.496
35.46
35.424
35.389
35.356
35.326
35.299
35.275
35.255
35.24
35.231
35.227
35.229
35.236
35.247
35.26
35.276
35.293
35.311
35.331
35.351
35.371
35.392
35.411
35.429
35.446
35.461
35.475
35.487
35.499
35.51
35.519
35.527
35.534
35.541
35.549
35.557
35.565
35.573
35.582
35.589
35.595
35.6
35.602
35.603
35.601
35.596
35.589
35.58
35.569
35.556
35.54
35.523
35.504
35.484
35.463
35.444
35.425
35.408
35.392
35.377
35.362
35.35
35.338
35.328
35.318
35.309
35.298
35.287
35.275
35.262
35.251
35.24
35.231
35.223
35.216
35.209
35.203
35.195
35.186
35.177
35.167
35.156
35.146
35.135
35.124
35.112
35.1
35.089
35.079
35.07
35.061
35.055
35.049
35.043
35.038
35.035
35.033
35.032
35.031
35.031
35.031
35.031
35.03
35.03
35.03
35.029
35.028
35.026
35.022
35.018
35.013
35.008
35.004
35.001
34.998
34.997
34.996
34.997
34.999
35.003
35.008
35.016
35.028
35.045
35.067
35.095
35.13
35.171
35.22
35.275
35.336
35.404
35.478
35.557
35.639
35.722
35.806
35.886
35.964
36.037
36.105
36.168
36.223
36.272
36.313
36.345
36.369
36.386
36.396
36.4
36.399
36.393
36.382
36.368
36.35
36.33
36.308
36.285
36.261
36.235
36.208
36.18
36.151
36.121
36.09
36.06
36.03
36.001
35.973
35.946
35.918
35.89
35.863
35.835
35.808
35.781
35.754
35.726
35.698
35.67
35.642
35.614
35.586
35.558
35.532
35.509
35.488
35.471
35.456
35.443
35.432
35.423
35.416
35.411
35.409
35.41
35.413
35.418
35.425
35.435
35.449
35.466
35.487
35.51
35.535
35.561
35.587
35.613
35.637
35.661
35.683
35.705
35.726
35.745
35.762
35.776
35.786
35.793
35.797
35.798
35.798
35.794
35.787
35.777
35.764
35.75
35.734
35.719
35.704
35.691
35.678
35.665
35.652
35.638
35.623
35.608
35.593
35.579
35.565
35.552
35.539
35.525
35.512
35.498
35.485
35.472
35.46
35.447
35.434
35.421
35.407
35.391
35.376
35.361
35.347
35.334
35.32
35.308
35.296
35.284
35.272
35.26
35.248
35.236
35.223
35.209
35.195
35.183
35.171
35.161
35.152
35.145
35.139
35.136
35.134
35.133
35.132
35.131
35.13
35.128
35.126
35.123
35.12
35.115
35.11
35.104
35.097
35.09
35.083
35.077
35.071
35.066
35.06
35.056
35.053
35.051
35.051
35.053
35.055
35.058
35.06
35.063
35.067
35.072
35.079
35.09
35.104
35.123
35.148
35.178
35.214
35.257
35.308
35.367
35.432
35.503
35.58
35.66
35.742
35.826
35.911
35.996
36.081
36.165
36.246
36.323
36.394
36.458
36.515
36.564
36.604
36.635
36.659
36.675
36.684
36.687
36.683
36.673
36.659
36.639
36.616
36.588
36.557
36.522
36.486
36.448
36.411
36.375
36.342
36.312
36.284
36.259
36.236
36.215
36.195
36.175
36.156
36.137
36.116
36.094
36.07
36.045
36.017
35.989
35.96
35.932
35.903
35.876
35.849
35.824
35.8
35.778
35.759
35.742
35.728
35.717
35.709
35.705
35.703
35.704
35.707
35.712
35.718
35.726
35.735
35.744
35.754
35.765
35.775
35.786
35.797
35.809
35.823
35.838
35.853
35.868
35.882
35.894
35.904
35.912
35.918
35.924
35.929
35.934
35.94
35.945
35.949
35.952
35.954
35.954
35.952
35.949
35.943
35.934
35.922
35.907
35.888
35.868
35.846
35.825
35.803
35.781
35.759
35.736
35.712
35.689
35.667
35.647
35.629
35.612
35.597
35.584
35.572
35.561
35.551
35.543
35.535
35.528
35.52
35.512
35.503
35.494
35.484
35.474
35.464
35.454
35.445
35.435
35.426
35.417
35.408
35.399
35.391
35.383
35.375
35.367
35.36
35.353
35.346
35.339
35.333
35.328
35.323
35.318
35.313
35.307
35.299
35.29
35.28
35.27
35.26
35.25
35.239
35.228
35.216
35.202
35.188
35.174
35.161
35.151
35.142
35.134
35.128
35.123
35.12
35.119
35.121
35.126
35.134
35.145
35.158
35.173
35.191
35.213
35.238
35.267
35.301
35.341
35.385
35.435
35.491
35.554
35.623
35.698
35.778
35.862
35.947
36.033
36.118
36.202
36.282
36.359
36.432
36.499
36.561
36.615
36.662
36.7
36.73
36.753
36.768
36.777
36.78
36.778
36.773
36.763
36.75
36.734
36.716
36.697
36.675
36.651
36.625
36.597
36.566
36.534
36.5
36.466
36.432
36.4
36.37
36.343
36.319
36.297
36.278
36.26
36.242
36.225
36.208
36.189
36.17
36.15
36.129
36.106
36.082
36.057
36.031
36.006
35.982
35.958
35.936
35.915
35.894
35.874
35.855
35.839
35.826
35.818
35.815
35.815
35.819
35.826
35.836
35.85
35.866
35.884
35.905
35.925
35.947
35.968
35.989
36.01
36.03
36.049
36.066
36.081
36.094
36.103
36.109
36.111
36.11
36.106
36.098
36.089
36.078
36.065
36.05
36.035
36.019
36.004
35.989
35.973
35.957
35.94
35.922
35.903
35.884
35.865
35.847
35.829
35.812
35.797
35.782
35.768
35.754
35.74
35.727
35.713
35.7
35.687
35.675
35.663
35.651
35.638
35.625
35.613
35.601
35.592
35.584
35.578
35.572
35.566
35.559
35.551
35.542
35.533
35.524
35.514
35.503
35.492
35.481
35.469
35.457
35.447
35.436
35.426
35.415
35.403
35.391
35.378
35.365
35.352
35.339
35.328
35.316
35.305
35.295
35.286
35.277
35.269
35.263
35.257
35.252
35.248
35.244
35.241
35.237
35.234
35.231
35.228
35.225
35.222
35.219
35.215
35.21
35.204
35.198
35.192
35.186
35.18
35.174
35.168
35.161
35.154
35.147
35.141
35.134
35.129
35.124
35.121
35.119
35.118
35.12
35.125
35.134
35.148
35.167
35.191
35.22
35.254
35.294
35.34
35.392
35.451
35.515
35.585
35.66
35.738
35.819
35.902
35.986
36.069
36.153
36.236
36.316
36.393
36.464
36.529
36.588
36.638
36.681
36.716
36.742
36.76
36.767
36.766
36.757
36.74
36.716
36.687
36.653
36.617
36.579
36.541
36.503
36.467
36.432
36.398
36.365
36.335
36.307
36.282
36.258
36.237
36.216
36.196
36.176
36.155
36.134
36.113
36.092
36.07
36.047
36.024
35.999
35.973
35.946
35.921
35.897
35.874
35.854
35.835
35.818
35.803
35.79
35.778
35.769
35.761
35.756
35.753
35.752
35.752
35.754
35.759
35.767
35.778
35.792
35.807
35.823
35.838
35.852
35.865
35.877
35.886
35.894
35.901
35.905
35.909
35.912
35.914
35.915
35.916
35.917
35.917
35.917
35.915
35.913
35.909
35.904
35.898
35.89
35.88
35.869
35.858
35.845
35.83
35.814
35.796
35.776
35.756
35.735
35.714
35.696
35.678
35.662
35.646
35.63
35.614
35.598
35.581
35.565
35.55
35.536
35.522
35.508
35.493
35.479
35.464
35.451
35.438
35.425
35.412
35.398
35.384
35.369
35.353
35.337
35.322
35.307
35.293
35.279
35.264
35.25
35.237
35.224
35.213
35.204
35.196
35.189
35.183
35.176
35.17
35.164
35.158
35.153
35.149
35.145
35.142
35.14
35.139
35.138
35.137
35.135
35.132
35.129
35.123
35.116
35.108
35.098
35.087
35.075
35.065
35.055
35.047
35.04
35.033
35.027
35.02
35.015
35.009
35.004
35.0
34.997
34.993
34.989
34.983
34.978
34.972
34.967
34.962
34.958
34.954
34.948
34.941
34.934
34.926
34.919
34.912
34.907
34.902
34.898
34.896
34.896
34.899
34.904
34.914
34.927
34.944
34.966
34.992
35.025
35.064
35.11
35.164
35.225
35.295
35.37
35.451
35.536
35.622
35.707
35.792
35.873
35.949
36.021
36.085
36.142
36.191
36.231
36.262
36.285
36.299
36.307
36.308
36.303
36.294
36.28
36.263
36.243
36.221
36.198
36.176
36.155
36.134
36.114
36.093
36.071
36.048
36.024
36.001
35.978
35.955
35.931
35.905
35.878
35.848
35.817
35.784
35.751
35.717
35.683
35.649
35.615
35.582
35.55
35.52
35.494
35.47
35.451
35.434
35.421
35.411
35.404
35.4
35.397
35.395
35.394
35.394
35.395
35.396
35.398
35.399
35.402
35.406
35.412
35.42
35.43
35.442
35.455
35.469
35.484
35.499
35.515
35.531
35.548
35.565
35.58
35.593
35.603
35.61
35.615
35.617
35.617
35.617
35.615
35.611
35.606
35.601
35.594
35.587
35.579
35.571
35.562
35.551
35.539
35.525
35.51
35.493
35.476
35.458
35.441
35.426
35.41
35.395
35.381
35.368
35.355
35.342
35.33
35.317
35.303
35.289
35.274
35.259
35.243
35.229
35.214
35.2
35.186
35.173
35.159
35.145
35.128
35.111
35.094
35.076
35.058
35.04
35.023
35.005
34.987
34.969
34.952
34.938
34.926
34.916
34.91
34.906
34.904
34.903
34.906
34.91
34.916
34.923
34.929
34.935
34.94
34.942
34.943
34.943
34.942
34.94
34.937
34.933
34.928
34.922
34.917
34.911
34.906
34.901
34.895
34.889
34.881
34.872
34.862
34.852
34.842
34.833
34.825
34.819
34.815
34.812
34.81
34.809
34.81
34.812
34.813
34.815
34.817
34.82
34.824
34.83
34.837
34.848
34.864
34.885
34.913
34.949
34.992
35.043
35.101
35.165
35.236
35.312
35.394
35.48
35.567
35.655
35.742
35.827
35.909
35.987
36.059
36.125
36.184
36.233
36.272
36.301
36.319
36.329
36.331
36.326
36.315
36.299
36.279
36.257
36.232
36.207
36.182
36.158
36.135
36.114
36.094
36.075
36.056
36.037
36.018
35.999
35.98
35.959
35.936
35.911
35.885
35.858
35.829
35.8
35.77
35.74
35.71
35.679
35.647
35.613
35.578
35.543
35.509
35.475
35.442
35.411
35.38
35.351
35.325
35.302
35.282
35.266
35.255
35.249
35.248
35.251
35.259
35.271
35.286
35.303
35.322
35.344
35.367
35.39
35.413
35.436
35.457
35.476
35.493
35.509
35.523
35.536
35.547
35.557
35.564
35.569
35.573
35.575
35.576
35.577
35.578
35.578
35.577
35.575
35.571
35.567
35.561
35.554
35.546
35.535
35.522
35.506
35.487
35.466
35.444
35.422
35.401
35.38
35.359
35.34
35.32
35.302
35.284
35.267
35.251
35.236
35.222
35.208
35.194
35.18
35.167
35.154
35.141
35.128
35.115
35.101
35.087
35.071
35.056
35.04
35.025
35.009
34.993
34.977
34.962
34.948
34.934
34.922
34.911
34.902
34.895
34.889
34.885
34.882
34.881
34.88
34.88
34.881
34.884
34.886
34.89
34.892
34.894
34.896
34.898
34.899
34.901
34.902
34.904
34.905
34.905
34.902
34.898
34.891
34.884
34.876
34.867
34.858
34.848
34.838
34.828
34.819
34.81
34.802
34.796
34.79
34.785
34.779
34.774
34.768
34.764
34.76
34.756
34.753
34.75
34.748
34.747
34.746
34.747
34.75
34.754
34.761
34.77
34.782
34.799
34.822
34.852
34.89
34.938
34.995
35.06
35.134
35.215
35.301
35.392
35.484
35.578
35.671
35.762
35.85
35.933
36.012
36.085
36.15
36.206
36.254
36.293
36.323
36.344
36.357
36.361
36.357
36.346
36.329
36.308
36.284
36.259
36.234
36.209
36.183
36.156
36.129
36.102
36.076
36.051
36.028
36.005
35.984
35.963
35.943
35.923
35.903
35.884
35.863
35.842
35.819
35.794
35.767
35.737
35.706
35.673
35.638
35.602
35.566
35.531
35.497
35.465
35.437
35.412
35.392
35.377
35.366
35.36
35.357
35.356
35.358
35.362
35.369
35.377
35.387
35.399
35.412
35.426
35.439
35.451
35.463
35.474
35.485
35.497
35.509
35.522
35.535
35.549
35.563
35.577
35.591
35.605
35.618
35.63
35.641
35.649
35.654
35.654
35.649
35.642
35.632
35.621
35.607
35.593
35.576
35.559
35.54
35.522
35.504
35.488
35.473
35.459
35.446
35.432
35.419
35.406
35.393
35.381
35.368
35.356
35.343
35.33
35.317
35.304
35.291
35.279
35.268
35.256
35.245
35.234
35.222
35.21
35.196
35.182
35.167
35.152
35.138
35.124
35.11
35.095
35.08
35.065
35.05
35.035
35.021
35.009
34.998
34.987
34.978
34.97
34.962
34.956
34.95
34.946
34.943
34.94
34.938
34.935
34.932
34.929
34.926
34.922
34.917
34.911
34.902
34.892
34.882
34.871
34.861
34.852
34.844
34.836
34.831
34.826
34.823
34.821
34.82
34.819
34.819
34.818
34.818
34.817
34.816
34.816
34.816
34.817
34.818
34.82
34.822
34.824
34.825
34.826
34.826
34.825
34.823
34.82
34.817
34.813
34.808
34.802
34.795
34.788
34.782
34.776
34.772
34.769
34.768
34.769
34.773
34.779
34.791
34.808
34.832
34.864
34.904
34.951
35.007
35.072
35.144
35.224
35.31
35.402
35.497
35.592
35.686
35.776
35.863
35.944
36.019
36.087
36.148
36.2
36.242
36.275
36.298
36.313
36.321
36.322
36.319
36.311
36.299
36.284
36.266
36.245
36.223
36.199
36.175
36.151
36.127
36.103
36.079
36.055
36.031
36.007
35.983
35.96
35.935
35.911
35.885
35.858
35.83
35.801
35.771
35.74
35.709
35.679
35.648
35.618
35.589
35.56
35.533
35.507
35.483
35.461
35.441
35.423
35.407
35.394
35.384
35.377
35.373
35.374
35.378
35.385
35.393
35.402
35.409
35.417
35.423
35.429
35.435
35.442
35.45
35.458
35.467
35.477
35.488
35.501
35.515
35.53
35.545
35.56
35.574
35.584
35.593
35.598
35.602
35.604
35.604
35.602
35.598
35.591
35.582
35.571
35.559
35.545
35.531
35.517
35.503
35.489
35.475
35.462
35.45
35.439
35.429
35.42
35.412
35.403
35.394
35.385
35.376
35.366
35.357
35.346
35.335
35.322
35.308
35.292
35.275
35.256
35.238
35.219
35.2
35.182
35.163
35.144
35.124
35.104
35.083
35.063
35.043
35.025
35.009
34.993
34.98
34.969
34.96
34.954
34.951
34.95
34.95
34.95
34.949
34.947
34.945
34.942
34.939
34.936
34.932
34.927
34.921
34.914
34.906
34.898
34.89
34.882
34.874
34.867
34.861
34.855
34.85
34.848
34.846
34.847
34.848
34.849
34.849
34.848
34.847
34.846
34.843
34.84
34.836
34.83
34.823
34.816
34.809
34.803
34.798
34.794
34.79
34.785
34.779
34.773
34.766
34.759
34.751
34.744
34.736
34.729
34.723
34.717
34.713
34.709
34.706
34.704
34.703
34.701
34.698
34.694
34.689
34.684
34.678
34.672
34.667
34.664
34.661
34.66
34.661
34.664
34.67
34.679
34.692
34.709
34.732
34.76
34.794
34.833
34.88
34.934
34.996
35.066
35.144
35.228
35.318
35.411
35.504
35.598
35.691
35.781
35.868
35.95
36.026
36.092
36.148
36.194
36.23
36.256
36.273
36.281
36.282
36.275
36.261
36.242
36.217
36.189
36.158
36.126
36.093
36.061
36.029
35.998
35.969
35.942
35.916
35.893
35.871
35.851
35.833
35.816
35.799
35.782
35.764
35.745
35.724
35.702
35.678
35.65
35.62
35.586
35.55
35.513
35.476
35.439
35.405
35.373
35.344
35.319
35.298
35.281
35.27
35.264
35.262
35.263
35.268
35.274
35.282
35.29
35.299
35.308
35.32
35.332
