Trial 1:0back
37.404
37.357
37.312
37.27
37.23
37.192
37.155
37.118
37.081
37.042
37.002
36.959
36.913
36.865
36.815
36.763
36.711
36.658
36.607
36.559
36.514
36.475
36.442
36.414
36.392
36.377
36.367
36.363
36.364
36.369
36.378
36.391
36.406
36.424
36.443
36.464
36.484
36.504
36.523
36.54
36.555
36.566
36.574
36.579
36.579
36.576
36.568
36.556
36.54
36.519
36.494
36.464
36.428
36.388
36.343
36.294
36.24
36.183
36.123
36.059
35.993
35.925
35.855
35.784
35.712
35.64
35.568
35.497
35.426
35.355
35.285
35.214
35.144
35.075
35.007
34.941
34.877
34.815
34.755
34.698
34.643
34.59
34.541
34.494
34.449
34.405
34.363
34.322
34.282
34.241
34.201
34.161
34.121
34.08
34.039
33.999
33.96
33.923
33.887
33.853
33.82
33.79
33.76
33.732
33.705
33.68
33.655
33.63
33.607
33.584
33.561
33.54
33.519
33.499
33.48
33.46
33.441
33.421
33.401
33.379
33.356
33.332
33.307
33.283
33.258
33.233
33.209
33.186
33.164
33.143
33.124
33.106
33.089
33.073
33.056
33.039
33.021
33.003
32.983
32.962
32.94
32.917
32.892
32.865
32.837
32.808
32.777
32.745
32.713
32.679
32.645
32.611
32.575
32.54
32.504
32.468
32.433
32.399
32.367
32.336
32.308
32.283
32.264
32.252
32.25
32.259
32.283
32.324
32.385
32.469
32.578
32.712
32.873
33.063
33.28
33.523
33.791
34.082
34.391
34.716
35.052
35.394
35.737
36.077
36.408
36.727
37.029
37.312
37.572
37.808
38.017
38.2
38.356
38.486
38.591
38.672
38.731
38.769
38.79
38.795
38.786
38.767
38.737
38.701
38.66
38.616
38.57
38.522
38.475
38.428
38.383
38.339
38.297
38.258
38.222
38.189
38.16
38.133
38.109
38.087
38.066
38.045
38.023
37.999
37.972
37.942
37.909
37.873
37.833
37.79
37.745
37.699
37.652
37.605
37.56
37.518
37.478
37.443
37.411
37.386
37.365
37.351
37.343
37.339
37.34
37.346
37.354
37.366
37.38
37.395
37.41
37.426
37.44
37.451
37.46
37.466
37.466
37.462
37.453
37.439
37.42
37.397
37.369
37.337
37.301
37.262
37.221
37.178
37.132
37.084
37.033
36.98
36.923
36.863
36.8
36.735
36.666
36.596
36.523
36.451
36.377
36.305
36.233
36.162
36.094
36.028
35.964
35.902
35.842
35.783
35.724
35.667
35.609
35.551
35.493
35.434
35.376
35.318
35.261
35.205
35.15
35.097
35.044
34.993
34.944
34.896
34.85
34.807
34.766
34.727
34.691
34.656
34.622
34.588
34.555
34.522
34.489
34.457
34.425
34.394
34.363
34.332
34.303
34.273
34.245
34.217
34.189
34.161
34.134
34.106
34.079
34.052
34.025
33.998
33.97
33.943
33.917
33.891
33.867
33.843
33.82
33.798
33.776
33.754
33.732
33.71
33.687
33.664
33.64
33.615
33.589
33.562
33.535
33.507
33.48
33.452
33.425
33.397
33.37
33.343
33.317
33.292
33.268
33.245
33.223
33.201
33.18
33.158
33.136
33.113
33.089
33.064
33.038
33.01
32.98
32.949
32.915
32.881
32.845
32.809
32.773
32.739
32.706
32.678
32.654
32.638
32.631
32.637
32.658
32.697
32.756
32.84
32.948
33.084
33.247
33.439
33.657
33.901
34.169
34.457
34.761
35.079
35.406
35.737
36.07
36.398
36.72
37.03
37.326
37.604
37.863
38.099
38.311
38.498
38.661
38.799
38.914
39.007
39.079
39.132
39.168
39.189
39.196
39.19
39.174
39.147
39.112
39.07
39.021
38.968
38.912
38.853
38.792
38.731
38.67
38.611
38.553
38.497
38.444
38.394
38.348
38.305
38.267
38.232
38.201
38.171
38.144
38.117
38.09
38.062
38.033
38.002
37.97
37.938
37.904
37.87
37.837
37.804
37.773
37.743
37.716
37.691
37.669
37.651
37.635
37.623
37.614
37.608
37.605
37.604
37.606
37.609
37.613
37.618
37.622
37.625
37.626
37.624
37.619
37.612
37.6
37.584
37.563
37.538
37.509
37.474
37.436
37.392
37.343
37.288
37.228
37.164
37.097
37.027
36.956
36.883
36.809
36.736
36.664
36.592
36.522
36.452
36.383
36.314
36.245
36.176
36.108
36.04
35.972
35.904
35.836
35.769
35.703
35.638
35.576
35.515
35.455
35.396
35.338
35.281
35.223
35.166
35.11
35.055
35.001
34.949
34.898
34.85
34.804
34.761
34.72
34.682
34.645
34.61
34.576
34.543
34.511
34.48
34.45
34.419
34.389
34.357
34.326
34.293
34.261
34.228
34.195
34.162
34.129
34.096
34.063
34.031
34.0
33.969
33.939
33.91
33.881
33.852
33.824
33.794
33.764
33.733
33.701
33.668
33.634
33.599
33.563
33.527
33.491
33.455
33.42
33.385
33.35
33.316
33.281
33.247
33.212
33.178
33.144
33.111
33.078
33.045
33.012
32.978
32.943
32.909
32.875
32.84
32.805
32.771
32.737
32.703
32.669
32.637
32.605
32.574
32.543
32.513
32.483
32.453
32.424
32.396
32.368
32.341
32.314
32.288
32.261
32.235
32.209
32.182
32.155
32.127
32.1
32.071
32.042
32.012
31.981
31.951
31.922
31.895
31.872
31.854
31.842
31.837
31.842
31.859
31.89
31.939
32.008
32.099
32.216
32.36
32.531
32.731
32.959
33.215
33.496
33.799
34.122
34.46
34.808
35.162
35.518
35.87
36.215
36.549
36.866
37.165
37.44
37.691
37.916
38.113
38.282
38.424
38.54
38.63
38.698
38.745
38.773
38.784
38.78
38.763
38.736
38.7
38.659
38.612
38.562
38.51
38.458
38.407
38.357
38.31
38.265
38.223
38.184
38.149
38.117
38.089
38.063
38.04
38.018
37.996
37.974
37.952
37.927
37.9
37.87
37.837
37.802
37.765
37.727
37.686
37.645
37.603
37.561
37.52
37.48
37.443
37.409
37.38
37.355
37.334
37.318
37.307
37.301
37.3
37.302
37.308
37.316
37.325
37.335
37.346
37.357
37.366
37.375
37.381
37.385
37.385
37.381
37.372
37.358
37.339
37.314
37.284
37.249
37.209
37.167
37.121
37.072
37.021
36.968
36.913
36.856
36.798
36.738
36.677
36.615
36.552
36.488
36.423
36.358
36.293
36.227
36.161
36.094
36.027
35.96
35.893
35.826
35.76
35.694
35.63
35.566
35.504
35.443
35.383
35.325
35.268
35.212
35.157
35.102
35.048
34.996
34.944
34.893
34.844
34.796
34.751
34.709
34.669
34.632
34.598
34.566
34.536
34.507
34.478
34.45
34.423
34.395
34.367
34.339
34.31
34.279
34.247
34.214
34.181
34.148
34.115
34.082
34.05
34.018
33.986
33.955
33.924
33.894
33.865
33.836
33.808
33.779
33.751
33.723
33.694
33.666
33.637
33.608
33.578
33.548
33.518
33.489
33.46
33.433
33.405
33.377
33.348
33.316
33.283
33.248
33.212
33.176
33.141
33.106
33.074
33.043
33.014
32.987
32.961
32.936
32.91
32.884
32.857
32.829
32.8
32.771
32.741
32.711
32.68
32.65
32.619
32.587
32.555
32.522
32.488
32.454
32.42
32.385
32.35
32.315
32.278
32.242
32.205
32.17
32.136
32.104
32.074
32.045
32.019
31.994
31.97
31.949
31.931
31.916
31.907
31.905
31.912
31.931
31.964
32.016
32.089
32.185
32.308
32.458
32.636
32.841
33.073
33.33
33.61
33.91
34.226
34.554
34.889
35.226
35.561
35.888
36.205
36.506
36.79
37.053
37.294
37.51
37.701
37.866
38.005
38.119
38.209
38.276
38.322
38.349
38.36
38.355
38.339
38.312
38.277
38.235
38.188
38.139
38.087
38.034
37.981
37.929
37.878
37.828
37.781
37.736
37.693
37.652
37.613
37.575
37.539
37.504
37.469
37.433
37.395
37.355
37.313
37.267
37.219
37.169
37.118
37.065
37.013
36.961
36.912
36.866
36.824
36.787
36.756
36.73
36.712
36.7
36.696
36.699
36.708
36.724
36.744
36.768
36.794
36.822
36.85
36.878
36.905
36.928
36.948
36.963
36.973
36.978
36.977
36.971
36.96
36.943
36.922
36.896
36.867
36.833
36.796
36.755
36.712
36.666
36.617
36.565
36.511
36.453
36.392
36.329
36.262
36.193
36.122
36.05
35.976
35.903
35.83
35.757
35.687
35.618
35.552
35.488
35.425
35.363
35.302
35.241
35.181
35.122
35.063
35.006
34.95
34.895
34.842
34.79
34.739
34.689
34.641
34.592
34.545
34.497
34.45
34.404
34.359
34.315
34.273
34.232
34.192
34.153
34.115
34.078
34.043
34.01
33.978
33.948
33.919
33.891
33.864
33.837
33.811
33.786
33.76
33.735
33.71
33.685
33.659
33.633
33.606
33.578
33.55
33.52
33.491
33.46
33.43
33.4
33.371
33.344
33.318
33.294
33.271
33.249
33.228
33.207
33.186
33.166
33.145
33.124
33.103
33.081
33.057
33.032
33.006
32.979
32.952
32.925
32.897
32.869
32.84
32.81
32.779
32.748
32.716
32.683
32.65
32.616
32.583
32.55
32.516
32.482
32.448
32.413
32.377
32.34
32.301
32.262
32.222
32.181
32.14
32.1
32.06
32.023
31.989
31.959
31.936
31.921
31.917
31.926
31.951
31.994
32.059
32.147
32.26
32.4
32.569
32.766
32.991
33.244
33.521
33.82
34.136
34.466
34.806
35.15
35.494
35.833
36.163
36.479
36.777
37.054
37.307
37.536
37.739
37.916
38.068
38.195
38.298
38.379
38.44
38.483
38.508
38.518
38.514
38.5
38.477
38.446
38.41
38.37
38.328
38.284
38.241
38.199
38.157
38.118
38.081
38.047
38.016
37.988
37.964
37.943
37.925
37.907
37.891
37.874
37.856
37.835
37.812
37.784
37.752
37.715
37.674
37.631
37.584
37.535
37.484
37.435
37.386
37.339
37.294
37.253
37.215
37.181
37.151
37.125
37.103
37.086
37.072
37.061
37.054
37.048
37.043
37.04
37.037
37.033
37.029
37.022
37.013
37.002
36.988
36.972
36.953
36.932
36.909
36.882
36.853
36.821
36.787
36.751
36.714
36.675
36.635
36.593
36.549
36.503
36.456
36.405
36.352
36.295
36.234
36.169
36.099
36.026
35.95
35.871
35.79
35.708
35.624
35.54
35.455
35.371
35.288
35.205
35.124
35.045
34.968
34.894
34.822
34.753
34.686
34.621
34.559
34.498
34.44
34.383
34.329
34.278
34.229
34.184
34.141
34.101
34.063
34.027
33.993
33.96
33.928
33.896
33.865
33.834
33.803
33.772
33.742
33.712
33.683
33.654
33.625
33.596
33.567
33.538
33.51
33.483
33.458
33.435
33.413
33.392
33.373
33.353
33.334
33.315
33.296
33.276
33.255
33.232
33.209
33.184
33.158
33.132
33.105
33.078
33.051
33.024
32.996
32.968
32.94
32.911
32.881
32.851
32.82
32.789
32.757
32.724
32.691
32.658
32.624
32.59
32.555
32.52
32.484
32.449
32.413
32.379
32.345
32.312
32.281
32.253
32.226
32.2
32.174
32.148
32.122
32.095
32.067
32.039
32.011
31.983
31.957
31.931
31.906
31.882
31.858
31.836
31.813
31.791
31.769
31.746
31.722
31.697
31.671
31.644
31.616
31.587
31.559
31.53
31.503
31.477
31.45
31.424
31.398
31.372
31.346
31.321
31.295
31.271
31.246
31.224
31.204
31.189
31.181
31.183
31.198
31.229
31.278
31.348
31.441
31.56
31.708
31.885
32.092
32.329
32.594
32.887
33.203
33.538
33.889
34.25
34.616
34.981
35.342
35.692
36.029
36.347
36.644
36.916
37.162
37.381
37.572
37.736
37.873
37.984
38.072
38.137
38.182
38.21
38.221
38.22
38.208
38.187
38.159
38.125
38.086
38.042
37.995
37.945
37.893
37.841
37.789
37.738
37.691
37.648
37.609
37.575
37.546
37.52
37.499
37.481
37.465
37.45
37.435
37.419
37.401
37.381
37.357
37.33
37.3
37.266
37.23
37.191
37.151
37.11
37.071
37.033
36.998
36.967
36.939
36.916
36.899
36.887
36.88
36.879
36.882
36.889
36.898
36.91
36.923
36.937
36.95
36.963
36.974
36.982
36.989
36.992
36.991
36.986
36.978
36.964
36.947
36.925
36.899
36.871
36.839
36.804
36.766
36.724
36.679
36.632
36.581
36.528
36.473
36.415
36.356
36.294
36.231
36.166
36.099
36.031
35.963
35.893
35.823
35.754
35.684
35.616
35.549
35.482
35.416
35.35
35.284
35.217
35.15
35.083
35.017
34.953
34.889
34.827
34.766
34.708
34.651
34.596
34.544
34.495
34.447
34.402
34.358
34.315
34.274
34.234
34.195
34.157
34.12
34.083
34.046
34.009
33.971
33.933
33.894
33.855
33.816
33.777
33.739
33.702
33.667
33.635
33.606
33.58
33.557
33.536
33.517
33.498
33.48
33.462
33.444
33.424
33.404
33.383
33.36
33.335
33.309
33.281
33.252
33.221
33.19
33.157
33.124
33.091
33.058
33.024
32.991
32.957
32.924
32.892
32.86
32.829
32.798
32.768
32.74
32.711
32.683
32.655
32.626
32.597
32.567
32.537
32.505
32.474
32.442
32.41
32.379
32.348
32.317
32.285
32.254
32.222
32.192
32.161
32.131
32.102
32.072
32.043
32.014
31.986
31.957
31.929
31.902
31.875
31.849
31.823
31.797
31.77
31.745
31.719
31.695
31.67
31.646
31.622
31.598
31.574
31.549
31.525
31.5
31.476
31.452
31.428
31.404
31.379
31.355
31.33
31.306
31.283
31.262
31.242
31.226
31.216
31.213
31.221
31.243
31.282
31.34
31.422
31.528
31.662
31.824
32.016
32.237
32.485
32.76
33.057
33.375
33.708
34.053
34.405
34.76
35.113
35.46
35.795
36.116
36.417
36.697
36.951
37.18
37.381
37.555
37.702
37.822
37.916
37.988
38.039
38.071
38.087
38.087
38.075
38.052
38.02
37.981
37.937
37.888
37.837
37.785
37.732
37.68
37.63
37.583
37.538
37.497
37.46
37.425
37.394
37.366
37.341
37.317
37.294
37.271
37.248
37.224
37.198
37.171
37.142
37.11
37.076
37.04
37.002
36.962
36.922
36.882
36.842
36.805
36.771
36.741
36.715
36.694
36.678
36.668
36.663
36.665
36.671
36.682
36.696
36.714
36.733
36.754
36.774
36.793
36.81
36.825
36.837
36.845
36.849
36.85
36.846
36.837
36.825
36.809
36.788
36.764
36.737
36.706
36.671
36.634
36.594
36.551
36.506
36.459
36.411
36.36
36.309
36.256
36.202
36.147
36.091
36.033
35.974
35.913
35.852
35.79
35.728
35.665
35.602
35.538
35.476
35.414
35.353
35.293
35.234
35.176
35.119
35.062
35.007
34.951
34.897
34.842
34.789
34.736
34.684
34.633
34.584
34.535
34.488
34.443
34.399
34.358
34.318
34.28
34.243
34.208
34.173
34.139
34.106
34.074
34.042
34.01
33.979
33.949
33.919
33.891
33.865
33.839
33.814
33.79
33.767
33.744
33.721
33.7
33.679
33.658
33.637
33.615
33.592
33.568
33.542
33.515
33.487
33.458
33.428
33.397
33.365
33.334
33.302
33.269
33.237
33.203
33.169
33.135
33.101
33.066
33.032
32.998
32.965
32.933
32.902
32.871
32.841
32.812
32.783
32.755
32.726
32.697
32.667
32.636
32.604
32.571
32.537
32.503
32.469
32.435
32.401
32.369
32.338
32.308
32.279
32.252
32.226
32.202
32.18
32.158
32.136
32.114
32.092
32.069
32.045
32.02
31.994
31.967
31.938
31.908
31.878
31.846
31.813
31.78
31.746
31.713
31.68
31.649
31.618
31.59
31.563
31.539
31.517
31.499
31.485
31.478
31.479
31.489
31.51
31.547
31.6
31.673
31.768
31.888
32.034
32.206
32.406
32.632
32.883
33.157
33.452
33.763
34.087
34.42
34.757
35.094
35.426
35.75
36.062
36.361
36.641
36.902
37.14
37.354
37.544
37.709
37.848
37.963
38.055
38.126
38.176
38.207
38.222
38.223
38.212
38.189
38.157
38.118
38.073
38.025
37.973
37.919
37.865
37.809
37.755
37.702
37.652
37.604
37.558
37.515
37.475
37.438
37.402
37.368
37.334
37.3
37.264
37.227
37.188
37.147
37.105
37.061
37.015
36.969
36.923
36.879
36.836
36.797
36.763
36.734
36.712
36.695
36.685
36.682
36.685
36.696
36.712
36.733
36.758
36.786
36.816
36.847
36.878
36.909
36.939
36.967
36.992
37.014
37.033
37.048
37.06
37.068
37.073
37.075
37.074
37.07
37.063
37.054
37.041
37.025
37.004
36.98
36.951
36.918
36.88
36.839
36.793
36.742
36.688
36.629
36.566
36.501
36.432
36.361
36.288
36.213
36.137
36.059
35.982
35.904
35.826
35.749
35.672
35.595
35.52
35.446
35.373
35.303
35.234
35.168
35.105
35.043
34.984
34.928
34.873
34.821
34.77
34.721
34.674
34.629
34.585
34.544
34.504
34.466
34.429
34.395
34.362
34.329
34.298
34.268
34.238
34.209
34.18
34.152
34.124
34.096
34.068
34.04
34.013
33.985
33.957
33.929
33.901
33.873
33.845
33.818
33.791
33.766
33.741
33.715
33.69
33.663
33.637
33.611
33.585
33.561
33.537
33.514
33.491
33.468
33.445
33.423
33.4
33.377
33.353
33.33
33.305
33.28
33.254
33.229
33.203
33.177
33.152
33.126
33.101
33.076
33.05
33.025
32.999
32.973
32.946
32.919
32.892
32.864
32.836
32.807
32.777
32.747
32.716
32.684
32.651
32.617
32.581
32.545
32.509
32.472
32.435
32.397
32.36
32.321
32.283
32.243
32.204
32.164
32.126
32.09
32.056
32.025
31.997
31.974
31.957
31.949
31.95
31.964
31.992
32.038
32.103
32.191
32.302
32.44
32.604
32.796
33.013
33.256
33.521
33.805
34.105
34.417
34.738
35.064
35.39
35.712
36.026
36.328
36.616
36.887
37.137
37.366
37.572
37.754
37.914
38.05
38.164
38.256
38.327
38.379
38.412
38.429
38.43
38.419
38.396
38.362
38.321
38.273
38.22
38.164
38.105
38.045
37.983
37.922
37.859
37.797
37.736
37.676
37.617
37.56
37.503
37.448
37.392
37.337
37.282
37.225
37.167
37.107
37.047
36.986
36.925
36.866
36.809
36.754
36.703
36.657
36.616
36.581
36.552
36.53
36.516
36.509
36.51
36.518
36.532
36.552
36.577
36.606
36.638
36.672
36.708
36.744
36.781
36.816
36.85
36.882
36.91
36.936
36.957
36.973
36.985
36.991
36.992
36.989
36.981
36.969
36.952
36.93
36.905
36.875
36.842
36.805
36.765
36.723
36.678
36.63
36.581
36.529
36.476
36.42
36.362
36.302
36.24
36.175
36.109
36.041
35.971
35.901
35.829
35.757
35.684
35.611
35.539
35.467
35.397
35.328
35.262
35.197
35.135
35.075
35.018
34.962
34.909
34.856
34.805
34.755
34.705
34.657
34.611
34.566
34.524
34.484
34.446
34.409
34.375
34.342
34.309
34.278
34.247
34.217
34.188
34.159
34.13
34.102
34.074
34.046
34.018
33.99
33.961
33.932
33.903
33.875
33.847
33.82
33.794
33.77
33.746
33.724
33.702
33.682
33.663
33.645
33.628
33.611
33.594
33.578
33.56
33.542
33.522
33.501
33.477
33.452
33.423
33.392
33.358
33.322
33.284
33.246
33.206
33.165
33.124
33.083
33.04
32.998
32.955
32.913
32.871
32.831
32.793
32.759
32.73
32.707
32.693
32.69
32.702
32.73
32.778
32.847
32.939
33.055
33.196
33.364
33.558
33.777
34.02
34.283
34.566
34.864
35.174
35.492
35.815
36.137
36.456
36.765
37.064
37.347
37.612
37.858
38.081
38.281
38.456
38.607
38.734
38.838
38.919
38.981
39.024
39.051
39.062
39.061
39.049
39.028
38.999
38.963
38.922
38.877
38.829
38.78
38.728
38.675
38.621
38.566
38.512
38.458
38.406
38.357
38.309
38.263
38.218
38.175
38.131
38.087
38.041
37.994
37.944
37.89
37.834
37.776
37.715
37.653
37.591
37.53
37.471
37.416
37.366
37.322
37.285
37.257
37.236
37.223
37.218
37.22
37.229
37.243
37.261
37.284
37.31
37.338
37.367
37.396
37.424
37.45
37.474
37.495
37.512
37.525
37.533
37.536
37.533
37.524
37.51
37.49
37.466
37.436
37.402
37.364
37.322
37.275
37.225
37.172
37.116
37.056
36.994
36.93
36.863
36.796
36.728
36.658
36.589
36.519
36.449
36.379
36.309
36.238
36.167
36.096
36.023
35.951
35.878
35.806
35.734
35.663
35.593
35.524
35.456
35.389
35.324
35.261
35.2
35.141
35.084
35.027
34.972
34.918
34.864
34.811
34.759
34.707
34.658
34.61
34.564
34.519
34.477
34.437
34.398
34.36
34.323
34.287
34.252
34.217
34.183
34.151
34.119
34.088
34.057
34.027
33.999
33.972
33.946
33.922
33.899
33.878
33.858
33.838
33.819
33.802
33.785
33.768
33.752
33.734
33.716
33.696
33.675
33.652
33.627
33.602
33.575
33.547
33.517
33.485
33.452
33.417
33.382
33.346
33.309
33.271
33.233
33.195
33.156
33.117
33.079
33.04
33.002
32.964
32.929
32.896
32.869
32.849
32.838
32.841
32.859
32.896
32.953
33.035
33.142
33.276
33.441
33.636
33.861
34.115
34.396
34.701
35.027
35.37
35.726
36.089
36.454
36.815
37.168
37.508
37.832
38.134
38.414
38.67
38.9
39.103
39.281
39.433
39.561
39.666
39.749
39.812
39.858
39.887
39.902
39.904
39.895
39.876
39.848
39.814
39.774
39.73
39.682
39.633
39.582
39.53
39.479
39.429
39.38
39.332
39.286
39.241
39.2
39.16
39.122
39.085
39.048
39.011
38.971
38.93
38.886
38.839
38.789
38.735
38.679
38.62
38.559
38.499
38.439
38.381
38.326
38.276
