Trial 1:0back
35.901
35.862
35.821
35.779
35.737
35.697
35.658
35.621
35.587
35.555
35.526
35.498
35.472
35.448
35.425
35.402
35.38
35.358
35.335
35.31
35.284
35.256
35.227
35.196
35.164
35.132
35.1
35.069
35.037
35.007
34.978
34.951
34.927
34.905
34.887
34.873
34.861
34.853
34.849
34.847
34.849
34.854
34.863
34.874
34.887
34.902
34.918
34.934
34.949
34.963
34.974
34.982
34.987
34.987
34.982
34.973
34.959
34.942
34.922
34.899
34.874
34.848
34.819
34.788
34.755
34.72
34.684
34.647
34.608
34.568
34.527
34.484
34.44
34.395
34.349
34.303
34.256
34.209
34.162
34.115
34.069
34.024
33.981
33.939
33.899
33.861
33.825
33.791
33.758
33.726
33.694
33.662
33.63
33.598
33.565
33.532
33.498
33.463
33.429
33.395
33.361
33.328
33.296
33.266
33.237
33.209
33.183
33.157
33.133
33.109
33.087
33.065
33.043
33.021
32.999
32.977
32.956
32.935
32.914
32.894
32.875
32.856
32.838
32.819
32.799
32.778
32.757
32.735
32.714
32.693
32.673
32.654
32.635
32.617
32.6
32.582
32.566
32.549
32.533
32.517
32.501
32.488
32.475
32.464
32.454
32.444
32.433
32.421
32.407
32.392
32.375
32.356
32.336
32.313
32.289
32.263
32.235
32.205
32.174
32.143
32.111
32.081
32.051
32.023
31.997
31.972
31.949
31.929
31.913
31.901
31.896
31.899
31.913
31.939
31.978
32.033
32.103
32.189
32.292
32.413
32.55
32.702
32.868
33.045
33.231
33.424
33.621
33.819
34.017
34.21
34.397
34.575
34.742
34.896
35.036
35.161
35.27
35.363
35.44
35.502
35.549
35.584
35.606
35.617
35.619
35.612
35.599
35.58
35.556
35.527
35.496
35.463
35.428
35.393
35.358
35.324
35.291
35.26
35.23
35.202
35.175
35.151
35.128
35.107
35.087
35.068
35.05
35.034
35.017
35.001
34.985
34.969
34.954
34.94
34.926
34.912
34.899
34.885
34.872
34.86
34.849
34.84
34.834
34.83
34.83
34.832
34.838
34.848
34.861
34.876
34.894
34.914
34.936
34.957
34.978
34.999
35.018
35.035
35.049
35.061
35.069
35.075
35.077
35.077
35.074
35.069
35.061
35.051
35.039
35.025
35.009
34.992
34.975
34.956
34.937
34.916
34.894
34.87
34.846
34.82
34.793
34.765
34.736
34.706
34.675
34.644
34.611
34.578
34.544
34.511
34.477
34.443
34.41
34.377
34.346
34.315
34.285
34.257
34.229
34.202
34.175
34.147
34.117
34.083
34.047
34.008
33.966
33.922
33.876
33.829
33.78
33.73
33.681
33.632
33.584
33.539
33.495
33.455
33.418
33.386
33.357
33.333
33.313
33.298
33.288
33.281
33.278
33.278
33.281
33.285
33.29
33.295
33.3
33.302
33.302
33.299
33.293
33.282
33.268
33.251
33.23
33.207
33.182
33.154
33.125
33.095
33.064
33.032
33.001
32.97
32.94
32.911
32.883
32.856
32.829
32.803
32.779
32.755
32.733
32.712
32.692
32.673
32.654
32.635
32.616
32.597
32.578
32.56
32.542
32.524
32.508
32.492
32.477
32.463
32.452
32.443
32.438
32.437
32.443
32.457
32.481
32.515
32.563
32.626
32.705
32.802
32.915
33.046
33.192
33.353
33.526
33.708
33.899
34.094
34.291
34.487
34.68
34.865
35.042
35.207
35.359
35.497
35.619
35.725
35.815
35.889
35.948
35.993
36.025
36.046
36.056
36.058
36.052
36.041
36.024
36.002
35.978
35.951
35.921
35.89
35.857
35.824
35.792
35.762
35.733
35.708
35.685
35.665
35.648
35.633
35.619
35.608
35.597
35.587
35.578
35.568
35.557
35.544
35.53
35.514
35.497
35.477
35.457
35.435
35.413
35.393
35.374
35.359
35.349
35.342
35.34
35.343
35.35
35.361
35.377
35.396
35.418
35.442
35.467
35.491
35.515
35.536
35.556
35.573
35.588
35.601
35.611
35.619
35.623
35.623
35.619
35.611
35.599
35.584
35.565
35.543
35.518
35.49
35.46
35.428
35.394
35.358
35.322
35.284
35.245
35.205
35.165
35.126
35.087
35.048
35.01
34.972
34.935
34.897
34.861
34.825
34.79
34.756
34.722
34.689
34.657
34.624
34.592
34.56
34.528
34.496
34.465
34.433
34.402
34.371
34.341
34.311
34.283
34.255
34.227
34.201
34.175
34.149
34.125
34.102
34.08
34.06
34.042
34.026
34.011
33.997
33.984
33.973
33.963
33.953
33.945
33.938
33.931
33.924
33.917
33.909
33.9
33.889
33.877
33.862
33.845
33.825
33.804
33.782
33.76
33.739
33.718
33.699
33.681
33.664
33.648
33.633
33.618
33.605
33.591
33.578
33.566
33.552
33.538
33.524
33.508
33.492
33.476
33.46
33.444
33.429
33.415
33.401
33.385
33.369
33.352
33.334
33.314
33.292
33.268
33.243
33.216
33.188
33.159
33.13
33.101
33.073
33.046
33.021
32.998
32.976
32.956
32.937
32.921
32.907
32.896
32.889
32.886
32.889
32.898
32.916
32.945
32.987
33.044
33.117
33.209
33.319
33.448
33.595
33.76
33.94
34.135
34.341
34.556
34.776
34.998
35.219
35.435
35.644
35.843
36.03
36.202
36.358
36.499
36.622
36.729
36.82
36.894
36.953
36.998
37.03
37.049
37.059
37.059
37.052
37.04
37.024
37.004
36.982
36.957
36.931
36.904
36.878
36.851
36.827
36.804
36.784
36.766
36.751
36.739
36.73
36.724
36.72
36.719
36.719
36.72
36.722
36.722
36.721
36.718
36.712
36.703
36.691
36.677
36.659
36.639
36.618
36.596
36.573
36.551
36.531
36.512
36.497
36.485
36.476
36.471
36.471
36.475
36.484
36.497
36.513
36.533
36.554
36.576
36.598
36.618
36.636
36.652
36.664
36.673
36.678
36.678
36.675
36.668
36.659
36.646
36.631
36.614
36.594
36.573
36.549
36.523
36.495
36.463
36.429
36.393
36.354
36.313
36.27
36.227
36.183
36.139
36.094
36.049
36.004
35.959
35.914
35.87
35.828
35.786
35.745
35.705
35.666
35.627
35.589
35.551
35.513
35.476
35.439
35.403
35.367
35.332
35.298
35.265
35.233
35.202
35.171
35.14
35.11
35.081
35.052
35.024
34.997
34.971
34.944
34.918
34.892
34.866
34.84
34.813
34.787
34.761
34.735
34.709
34.684
34.66
34.637
34.616
34.595
34.575
34.556
34.538
34.52
34.503
34.486
34.469
34.452
34.434
34.416
34.396
34.375
34.354
34.332
34.31
34.287
34.265
34.243
34.221
34.199
34.177
34.156
34.135
34.115
34.095
34.076
34.057
34.039
34.02
34.001
33.981
33.96
33.938
33.914
33.888
33.86
33.831
33.803
33.774
33.747
33.72
33.695
33.67
33.646
33.622
33.598
33.574
33.55
33.525
33.499
33.472
33.445
33.418
33.391
33.364
33.338
33.313
33.288
33.264
33.24
33.219
33.201
33.189
33.184
33.189
33.206
33.237
33.285
33.351
33.437
33.543
33.671
33.821
33.99
34.178
34.383
34.602
34.833
35.073
35.317
35.563
35.806
36.043
36.27
36.486
36.687
36.873
37.041
37.191
37.322
37.435
37.529
37.605
37.664
37.707
37.735
37.749
37.752
37.744
37.729
37.706
37.679
37.648
37.614
37.579
37.543
37.508
37.473
37.441
37.411
37.384
37.361
37.342
37.326
37.314
37.305
37.3
37.298
37.296
37.295
37.294
37.291
37.286
37.277
37.265
37.25
37.23
37.207
37.182
37.155
37.126
37.097
37.069
37.042
37.018
36.997
36.98
36.967
36.959
36.954
36.954
36.957
36.964
36.975
36.988
37.004
37.022
37.042
37.061
37.081
37.1
37.118
37.133
37.146
37.154
37.159
37.16
37.157
37.151
37.141
37.128
37.11
37.09
37.066
37.041
37.013
36.983
36.95
36.916
36.879
36.84
36.8
36.758
36.716
36.673
36.63
36.587
36.544
36.501
36.458
36.414
36.371
36.328
36.284
36.24
36.195
36.15
36.104
36.058
36.011
35.963
35.915
35.866
35.818
35.77
35.723
35.678
35.633
35.59
35.547
35.506
35.466
35.428
35.392
35.358
35.325
35.294
35.264
35.237
35.212
35.188
35.165
35.143
35.121
35.099
35.076
35.053
35.029
35.006
34.981
34.957
34.93
34.902
34.873
34.842
34.811
34.779
34.748
34.717
34.686
34.655
34.626
34.597
34.569
34.543
34.518
34.494
34.471
34.449
34.428
34.408
34.388
34.368
34.347
34.326
34.304
34.28
34.255
34.23
34.203
34.177
34.15
34.122
34.095
34.067
34.039
34.01
33.982
33.954
33.927
33.899
33.872
33.845
33.819
33.794
33.77
33.748
33.727
33.707
33.688
33.668
33.647
33.625
33.601
33.576
33.55
33.522
33.492
33.461
33.429
33.395
33.36
33.326
33.291
33.257
33.225
33.194
33.166
33.14
33.116
33.097
33.08
33.068
33.062
33.063
33.071
33.09
33.121
33.167
33.23
33.312
33.415
33.539
33.684
33.851
34.038
34.245
34.468
34.707
34.957
35.216
35.48
35.746
36.01
36.269
36.52
36.759
36.985
37.195
37.387
37.561
37.716
37.853
37.97
38.068
38.148
38.211
38.257
38.289
38.307
38.313
38.308
38.294
38.271
38.241
38.205
38.164
38.118
38.069
38.016
37.961
37.905
37.847
37.788
37.729
37.67
37.611
37.554
37.5
37.449
37.402
37.358
37.319
37.285
37.254
37.228
37.205
37.187
37.171
37.158
37.147
37.138
37.13
37.124
37.118
37.113
37.108
37.102
37.097
37.091
37.085
37.079
37.073
37.067
37.061
37.056
37.051
37.047
37.043
37.04
37.038
37.036
37.033
37.029
37.023
37.016
37.007
36.997
36.985
36.973
36.96
36.948
36.935
36.923
36.911
36.898
36.885
36.871
36.857
36.841
36.823
36.803
36.78
36.753
36.722
36.688
36.65
36.609
36.565
36.518
36.469
36.418
36.365
36.312
36.259
36.206
36.154
36.103
36.053
36.003
35.954
35.906
35.858
35.811
35.764
35.717
35.671
35.626
35.581
35.538
35.497
35.457
35.42
35.383
35.349
35.315
35.282
35.251
35.22
35.19
35.161
35.133
35.106
35.079
35.053
35.029
35.005
34.982
34.959
34.938
34.917
34.896
34.877
34.859
34.842
34.826
34.811
34.796
34.781
34.766
34.751
34.737
34.724
34.713
34.702
34.693
34.683
34.673
34.662
34.65
34.636
34.62
34.602
34.583
34.56
34.535
34.508
34.479
34.448
34.416
34.383
34.349
34.316
34.283
34.251
34.218
34.186
34.154
34.122
34.09
34.058
34.027
33.995
33.964
33.932
33.901
33.871
33.84
33.81
33.779
33.748
33.717
33.685
33.652
33.618
33.583
33.547
33.51
33.472
33.434
33.395
33.356
33.318
33.279
33.241
33.202
33.163
33.123
33.081
33.039
32.996
32.953
32.91
32.868
32.828
32.79
32.753
32.719
32.686
32.655
32.627
32.602
32.582
32.568
32.561
32.563
32.576
32.602
32.644
32.704
32.784
32.884
33.006
33.15
33.316
33.504
33.712
33.939
34.182
34.438
34.703
34.975
35.249
35.522
35.792
36.054
36.307
36.547
36.773
36.982
37.173
37.345
37.497
37.628
37.739
37.83
37.901
37.955
37.993
38.016
38.027
38.026
38.015
37.996
37.969
37.937
37.901
37.861
37.819
37.776
37.732
37.688
37.645
37.603
37.563
37.524
37.486
37.449
37.413
37.378
37.344
37.31
37.277
37.243
37.208
37.173
37.135
37.096
37.057
37.016
36.976
36.937
36.9
36.866
36.835
36.809
36.788
36.772
36.761
36.757
36.759
36.767
36.78
36.799
36.823
36.851
36.881
36.914
36.948
36.983
37.017
37.049
37.08
37.107
37.131
37.15
37.164
37.174
37.179
37.179
37.174
37.164
37.148
37.127
37.101
37.071
37.038
37.003
36.965
36.925
36.884
36.842
36.799
36.755
36.711
36.665
36.619
36.571
36.522
36.471
36.419
36.366
36.311
36.255
36.199
36.142
36.086
36.031
35.976
35.922
35.869
35.816
35.764
35.712
35.661
35.611
35.561
35.51
35.46
35.409
35.36
35.311
35.264
35.219
35.176
35.135
35.096
35.059
35.024
34.99
34.957
34.926
34.895
34.866
34.837
34.808
34.781
34.754
34.728
34.702
34.676
34.651
34.625
34.598
34.572
34.546
34.52
34.494
34.47
34.446
34.423
34.402
34.381
34.361
34.342
34.323
34.303
34.284
34.263
34.241
34.218
34.194
34.171
34.148
34.124
34.102
34.079
34.057
34.035
34.014
33.993
33.973
33.952
33.933
33.913
33.892
33.871
33.849
33.825
33.801
33.775
33.748
33.72
33.69
33.658
33.624
33.589
33.551
33.512
33.471
33.429
33.384
33.339
33.292
33.245
33.2
33.156
33.115
33.075
33.039
33.005
32.976
32.952
32.935
32.926
32.927
32.939
32.966
33.007
33.067
33.147
33.249
33.374
33.524
33.697
33.894
34.112
34.35
34.606
34.877
35.16
35.451
35.747
36.042
36.335
36.622
36.898
37.161
37.408
37.637
37.845
38.032
38.198
38.342
38.464
38.564
38.644
38.705
38.749
38.777
38.79
38.79
38.78
38.76
38.733
38.7
38.662
38.621
38.578
38.534
38.489
38.446
38.404
38.363
38.325
38.289
38.255
38.222
38.192
38.164
38.136
38.109
38.081
38.051
38.02
37.987
37.952
37.915
37.875
37.833
37.789
37.744
37.698
37.652
37.609
37.567
37.529
37.496
37.466
37.442
37.424
37.412
37.406
37.405
37.409
37.418
37.431
37.448
37.468
37.49
37.515
37.54
37.567
37.592
37.616
37.638
37.657
37.673
37.685
37.692
37.694
37.691
37.682
37.668
37.648
37.623
37.594
37.559
37.521
37.48
37.436
37.389
37.34
37.288
37.234
37.178
37.12
37.061
37.001
36.941
36.88
36.82
36.759
36.698
36.637
36.574
36.511
36.446
36.38
36.313
36.246
36.179
36.111
36.044
35.978
35.912
35.848
35.785
35.724
35.665
35.608
35.552
35.498
35.446
35.396
35.347
35.3
35.255
35.211
35.169
35.127
35.087
35.046
35.007
34.968
34.929
34.891
34.854
34.818
34.783
34.749
34.715
34.682
34.65
34.618
34.586
34.555
34.524
34.493
34.464
34.435
34.406
34.379
34.352
34.326
34.3
34.275
34.25
34.225
34.2
34.175
34.149
34.122
34.095
34.068
34.041
34.013
33.986
33.958
33.93
33.901
33.871
33.84
33.809
33.778
33.746
33.714
33.682
33.649
33.616
33.582
33.549
33.515
33.482
33.451
33.42
33.39
33.362
33.335
33.309
33.283
33.256
33.229
33.2
33.17
33.139
33.107
33.073
33.039
33.004
32.969
32.934
32.898
32.862
32.826
32.789
32.752
32.716
32.68
32.645
32.612
32.58
32.552
32.529
32.512
32.504
32.509
32.529
32.567
32.627
32.712
32.822
32.961
33.128
33.325
33.55
33.802
34.079
34.379
34.697
35.031
35.375
35.726
36.08
36.431
36.775
37.107
37.424
37.721
37.998
38.25
38.477
38.678
38.852
39.0
39.124
39.226
39.306
39.366
39.41
39.438
39.453
39.455
39.448
39.431
39.407
39.377
39.343
39.304
39.263
39.22
39.177
39.133
39.09
39.049
39.009
38.972
38.937
38.905
38.875
38.848
38.822
38.796
38.771
38.745
38.718
38.688
38.655
38.62
38.58
38.538
38.494
38.447
38.398
38.349
38.301
38.254
38.209
38.17
38.135
38.106
38.084
38.069
38.062
38.061
38.068
38.082
38.103
38.128
38.157
38.189
38.223
38.258
38.293
38.327
38.359
38.389
38.417
38.442
38.462
38.479
38.491
38.497
38.498
38.493
38.482
38.465
38.442
38.413
38.378
38.339
38.295
38.247
38.195
38.141
38.083
38.023
37.96
37.896
37.83
37.763
37.695
37.627
37.556
37.485
37.412
37.338
37.261
37.181
37.099
37.014
36.927
36.837
36.745
36.652
36.558
36.465
36.372
36.281
36.191
36.104
36.019
35.938
35.861
35.788
35.72
35.656
35.596
35.541
35.491
35.446
35.405
35.369
35.335
35.304
35.274
35.245
35.214
35.182
35.147
35.11
35.07
35.026
34.978
34.928
34.874
34.819
34.761
34.703
34.643
34.583
34.523
34.463
34.404
34.347
34.293
34.24
34.191
34.144
34.101
34.061
34.024
33.992
33.963
33.937
33.914
33.893
33.873
33.852
33.831
33.809
33.785
33.759
33.732
33.703
33.673
33.64
33.607
33.571
33.535
33.497
33.459
33.421
33.383
33.345
33.307
33.269
33.232
33.196
33.16
33.126
33.092
33.058
33.025
32.991
32.959
32.926
32.893
32.861
32.829
32.798
32.766
32.735
32.704
32.674
32.645
32.616
32.587
32.56
32.532
32.503
32.475
32.446
32.417
32.39
32.364
32.342
32.326
32.318
32.322
32.341
32.378
32.437
32.521
32.634
32.777
32.952
33.158
33.396
33.665
33.963
34.287
34.633
34.997
35.374
35.757
36.143
36.525
36.899
37.26
37.605
37.93
38.232
38.509
38.76
38.983
39.178
39.345
39.485
39.599
39.689
39.756
39.802
39.829
39.839
39.834
39.817
39.789
39.752
39.709
39.66
39.608
39.551
39.493
39.433
39.373
39.313
39.253
39.194
39.136
39.081
39.029
38.978
38.93
38.883
38.836
38.789
38.741
38.691
38.638
38.583
38.526
38.465
38.403
38.341
38.279
38.218
38.16
38.104
38.053
38.006
37.964
37.929
37.899
37.876
37.86
37.85
37.845
37.846
37.852
37.861
37.874
37.889
37.906
37.924
37.941
37.958
37.976
37.992
38.007
38.019
38.029
38.035
38.036
38.034
38.027
38.015
37.998
37.977
37.95
37.918
37.881
37.839
37.792
37.741
37.685
37.626
37.564
37.5
37.435
37.37
37.304
37.237
37.169
37.1
37.031
36.96
36.889
36.816
36.743
36.669
36.595
36.52
36.445
36.37
36.294
36.22
36.145
36.072
35.999
35.928
35.858
35.789
35.721
35.655
35.59
35.527
35.466
35.407
35.351
35.298
35.247
35.198
35.15
35.104
35.058
35.015
34.973
34.933
34.893
34.855
34.816
34.778
34.74
34.701
34.662
34.623
34.584
34.545
34.506
34.468
34.43
34.392
34.355
34.319
34.283
34.248
34.213
34.18
34.147
34.114
34.083
34.053
34.024
33.995
33.967
33.938
33.909
33.88
33.851
33.821
33.791
33.76
33.728
33.695
33.661
33.627
33.592
33.557
33.522
33.488
33.454
33.42
33.386
33.352
33.318
33.284
33.251
33.216
33.182
33.146
33.11
33.072
33.033
32.993
32.952
32.91
32.868
32.824
32.78
32.736
32.69
32.645
32.6
32.555
32.512
32.471
32.435
32.403
32.38
32.366
32.365
32.38
32.414
32.47
32.551
32.66
32.798
32.966
33.165
33.394
33.652
33.938
34.249
34.581
34.93
35.292
35.662
36.034
36.405
36.77
37.123
37.462
37.782
38.081
38.356
38.606
38.829
39.026
39.195
39.337
39.453
39.543
39.611
39.657
39.684
39.693
39.688
39.671
39.644
39.608
39.565
39.517
39.463
39.406
39.346
39.284
39.22
39.156
39.092
39.027
38.962
38.898
38.833
38.768
38.704
38.638
38.572
38.504
38.435
38.364
38.292
38.217
38.141
38.064
37.987
37.91
37.835
37.762
37.693
37.629
37.57
37.518
37.473
37.438
37.41
37.392
37.382
37.38
37.386
37.398
37.415
37.438
37.464
37.493
37.523
37.554
37.585
37.613
37.64
37.663
37.683
37.7
37.712
37.721
37.724
37.724
37.718
37.708
37.693
37.673
37.649
37.62
37.587
37.55
37.51
37.467
37.419
37.367
37.311
37.25
37.184
37.115
37.043
36.967
36.888
36.807
36.725
36.642
36.558
36.476
36.394
36.313
36.234
36.155
36.077
36.001
35.925
35.849
35.775
35.701
35.628
35.556
35.485
35.415
35.346
35.28
35.215
35.153
35.092
35.033
34.977
34.921
34.868
34.816
34.766
34.718
34.671
34.626
34.582
34.539
34.497
34.456
34.415
34.374
34.334
34.294
34.254
34.214
34.174
34.136
34.099
34.062
34.028
33.995
33.963
33.934
33.905
33.879
33.853
33.828
33.804
33.78
33.757
33.733
33.709
33.686
33.662
33.637
33.611
33.584
33.556
33.527
33.496
33.465
33.432
33.398
33.363
33.328
33.29
33.252
33.213
33.173
33.132
33.091
33.05
33.008
32.966
32.923
32.881
32.839
32.799
32.762
32.73
32.704
32.686
32.679
32.685
32.708
32.75
32.815
32.905
33.023
33.17
33.347
33.554
33.791
34.054
34.342
34.652
34.978
35.318
35.667
36.018
36.369
36.715
37.05
37.372
37.676
37.96
38.22
38.456
38.666
38.851
39.009
39.141
39.249
39.332
39.394
39.436
39.46
39.468
39.461
39.442
39.411
39.371
39.323
39.269
39.21
39.146
39.078
39.007
38.933
38.857
38.781
38.704
38.627
38.551
38.476
38.401
38.327
38.251
38.175
38.098
38.019
37.937
37.855
37.771
37.686
37.601
37.518
37.436
37.358
37.285
37.218
37.158
37.106
37.063
37.03
37.007
36.993
36.99
36.995
37.008
37.029
37.055
37.085
37.118
37.154
37.19
37.225
37.259
37.292
37.321
37.348
37.371
37.391
37.406
37.416
37.422
37.422
37.417
37.408
37.394
37.375
37.351
37.323
37.29
37.252
37.209
37.162
37.109
37.053
36.992
36.927
36.858
36.786
36.711
36.634
36.555
36.474
36.391
36.307
36.222
36.137
36.052
35.968
35.884
35.802
35.72
35.639
35.558
35.479
35.401
35.323
35.247
35.171
35.097
35.023
34.952
34.882
34.814
34.749
34.687
34.627
34.57
34.514
34.46
34.408
34.357
34.308
34.26
34.214
34.17
34.126
34.084
34.043
34.002
33.962
33.923
33.885
33.848
33.812
33.778
33.746
33.717
