Trial 1:0back
35.565
35.538
35.513
35.488
35.466
35.447
35.431
35.419
35.41
35.403
35.398
35.395
35.394
35.393
35.394
35.395
35.397
35.399
35.401
35.404
35.407
35.411
35.415
35.419
35.422
35.424
35.425
35.424
35.421
35.417
35.414
35.41
35.407
35.404
35.4
35.395
35.39
35.383
35.374
35.363
35.35
35.336
35.32
35.303
35.285
35.266
35.245
35.22
35.192
35.162
35.132
35.102
35.074
35.048
35.027
35.009
34.995
34.985
34.978
34.974
34.973
34.974
34.977
34.981
34.984
34.987
34.989
34.99
34.989
34.988
34.985
34.981
34.976
34.969
34.961
34.952
34.942
34.931
34.92
34.909
34.899
34.891
34.884
34.88
34.879
34.88
34.884
34.89
34.898
34.907
34.916
34.925
34.932
34.936
34.938
34.936
34.933
34.926
34.918
34.907
34.894
34.881
34.868
34.854
34.84
34.828
34.816
34.807
34.799
34.793
34.788
34.783
34.779
34.774
34.769
34.763
34.757
34.75
34.743
34.735
34.728
34.72
34.713
34.705
34.699
34.693
34.688
34.685
34.682
34.678
34.674
34.67
34.664
34.657
34.65
34.643
34.636
34.63
34.623
34.617
34.61
34.602
34.593
34.583
34.572
34.562
34.552
34.543
34.534
34.526
34.519
34.511
34.503
34.495
34.487
34.479
34.47
34.463
34.455
34.448
34.442
34.438
34.434
34.43
34.427
34.424
34.42
34.415
34.409
34.402
34.395
34.388
34.382
34.377
34.373
34.372
34.372
34.374
34.377
34.381
34.384
34.386
34.386
34.385
34.384
34.382
34.38
34.377
34.375
34.372
34.369
34.365
34.359
34.353
34.347
34.342
34.337
34.332
34.328
34.323
34.32
34.316
34.312
34.307
34.301
34.301
34.309
34.326
34.351
34.381
34.412
34.443
34.471
34.496
34.518
34.538
34.559
34.584
34.615
34.654
34.704
34.766
34.842
34.931
35.034
35.149
35.273
35.404
35.539
35.673
35.804
35.93
36.046
36.152
36.246
36.327
36.395
36.45
36.49
36.516
36.529
36.528
36.516
36.493
36.461
36.422
36.378
36.331
36.282
36.232
36.182
36.133
36.086
36.04
35.997
35.956
35.919
35.885
35.855
35.83
35.809
35.792
35.778
35.767
35.758
35.749
35.742
35.734
35.728
35.721
35.715
35.709
35.704
35.699
35.694
35.689
35.683
35.675
35.666
35.654
35.641
35.625
35.608
35.59
35.571
35.552
35.532
35.513
35.494
35.474
35.454
35.434
35.415
35.397
35.381
35.368
35.357
35.35
35.347
35.345
35.346
35.348
35.35
35.354
35.358
35.363
35.368
35.375
35.383
35.391
35.399
35.406
35.411
35.415
35.416
35.415
35.411
35.403
35.394
35.383
35.371
35.359
35.347
35.334
35.321
35.308
35.293
35.276
35.258
35.237
35.213
35.188
35.162
35.136
35.111
35.088
35.068
35.05
35.036
35.024
35.014
35.005
34.997
34.989
34.982
34.975
34.969
34.965
34.961
34.958
34.955
34.953
34.95
34.947
34.945
34.942
34.939
34.935
34.93
34.924
34.92
34.916
34.913
34.912
34.911
34.912
34.913
34.914
34.913
34.911
34.907
34.902
34.896
34.889
34.884
34.88
34.879
34.879
34.88
34.882
34.884
34.885
34.884
34.881
34.876
34.87
34.861
34.851
34.841
34.829
34.817
34.805
34.793
34.781
34.769
34.757
34.745
34.733
34.723
34.714
34.706
34.7
34.696
34.694
34.693
34.693
34.694
34.695
34.696
34.696
34.696
34.699
34.706
34.716
34.728
34.741
34.753
34.762
34.769
34.772
34.772
34.767
34.757
34.743
34.725
34.704
34.68
34.655
34.629
34.602
34.578
34.555
34.534
34.516
34.501
34.488
34.478
34.472
34.468
34.467
34.468
34.47
34.474
34.48
34.486
34.492
34.498
34.502
34.506
34.512
34.52
34.53
34.541
34.551
34.559
34.565
34.567
34.565
34.559
34.551
34.54
34.527
34.514
34.499
34.485
34.472
34.46
34.451
34.443
34.438
34.436
34.435
34.436
34.436
34.436
34.435
34.433
34.429
34.424
34.417
34.409
34.399
34.39
34.381
34.372
34.364
34.356
34.349
34.344
34.34
34.338
34.339
34.345
34.355
34.373
34.4
34.436
34.485
34.549
34.626
34.719
34.824
34.94
35.065
35.197
35.333
35.473
35.613
35.752
35.886
36.013
36.13
36.235
36.327
36.404
36.466
36.513
36.546
36.564
36.568
36.561
36.543
36.515
36.48
36.438
36.392
36.341
36.288
36.233
36.177
36.121
36.066
36.011
35.956
35.901
35.847
35.795
35.746
35.701
35.66
35.624
35.593
35.567
35.546
35.53
35.519
35.511
35.506
35.504
35.503
35.502
35.5
35.496
35.491
35.484
35.476
35.468
35.458
35.449
35.439
35.429
35.418
35.408
35.398
35.388
35.378
35.368
35.359
35.351
35.345
35.34
35.337
35.338
35.342
35.349
35.359
35.37
35.382
35.396
35.41
35.423
35.435
35.444
35.45
35.453
35.454
35.451
35.446
35.439
35.43
35.421
35.411
35.403
35.395
35.387
35.382
35.377
35.372
35.366
35.358
35.347
35.334
35.319
35.302
35.284
35.265
35.246
35.227
35.208
35.188
35.167
35.146
35.122
35.097
35.071
35.043
35.016
34.991
34.967
34.946
34.928
34.913
34.901
34.891
34.884
34.878
34.873
34.87
34.867
34.866
34.866
34.867
34.868
34.869
34.869
34.868
34.867
34.866
34.864
34.862
34.861
34.86
34.86
34.861
34.863
34.865
34.869
34.871
34.873
34.873
34.872
34.869
34.864
34.859
34.853
34.849
34.847
34.846
34.846
34.847
34.848
34.849
34.848
34.845
34.84
34.833
34.825
34.816
34.807
34.798
34.792
34.787
34.783
34.78
34.778
34.777
34.774
34.771
34.767
34.762
34.756
34.749
34.741
34.732
34.723
34.713
34.702
34.691
34.68
34.668
34.657
34.646
34.637
34.629
34.623
34.618
34.616
34.614
34.612
34.609
34.605
34.598
34.59
34.58
34.568
34.556
34.545
34.535
34.527
34.522
34.52
34.52
34.523
34.528
34.534
34.54
34.544
34.547
34.548
34.547
34.543
34.538
34.531
34.523
34.515
34.507
34.499
34.491
34.483
34.476
34.47
34.465
34.462
34.458
34.456
34.453
34.451
34.45
34.448
34.447
34.445
34.443
34.439
34.434
34.427
34.418
34.408
34.397
34.386
34.375
34.365
34.355
34.347
34.34
34.334
34.33
34.326
34.324
34.321
34.318
34.315
34.312
34.309
34.306
34.305
34.304
34.304
34.307
34.311
34.319
34.332
34.35
34.378
34.415
34.464
34.526
34.602
34.693
34.799
34.92
35.055
35.2
35.353
35.511
35.669
35.824
35.974
36.116
36.248
36.368
36.476
36.57
36.648
36.711
36.757
36.787
36.802
36.804
36.793
36.773
36.744
36.709
36.67
36.628
36.583
36.536
36.488
36.439
36.39
36.34
36.289
36.239
36.189
36.142
36.097
36.055
36.017
35.983
35.951
35.923
35.899
35.878
35.861
35.847
35.837
35.829
35.824
35.819
35.815
35.81
35.805
35.799
35.793
35.786
35.776
35.765
35.751
35.737
35.722
35.707
35.693
35.678
35.663
35.648
35.633
35.618
35.603
35.587
35.573
35.561
35.552
35.544
35.538
35.534
35.531
35.53
35.531
35.532
35.533
35.534
35.534
35.533
35.533
35.534
35.535
35.538
35.541
35.544
35.546
35.548
35.547
35.544
35.539
35.532
35.522
35.51
35.497
35.484
35.47
35.456
35.441
35.427
35.412
35.397
35.381
35.363
35.345
35.326
35.306
35.287
35.268
35.25
35.232
35.213
35.195
35.176
35.159
35.143
35.128
35.114
35.101
35.089
35.078
35.068
35.058
35.049
35.04
35.031
35.023
35.016
35.009
35.003
34.996
34.99
34.982
34.974
34.966
34.958
34.948
34.939
34.929
34.919
34.91
34.902
34.896
34.89
34.885
34.882
34.881
34.882
34.884
34.888
34.892
34.896
34.899
34.899
34.897
34.89
34.878
34.862
34.843
34.823
34.803
34.785
34.769
34.758
34.751
34.747
34.746
34.748
34.752
34.758
34.764
34.771
34.779
34.787
34.795
34.804
34.812
34.819
34.824
34.826
34.827
34.824
34.819
34.813
34.805
34.796
34.785
34.774
34.762
34.75
34.737
34.725
34.714
34.703
34.692
34.682
34.673
34.666
34.662
34.66
34.66
34.662
34.663
34.664
34.664
34.661
34.656
34.648
34.638
34.624
34.609
34.592
34.576
34.561
34.548
34.537
34.528
34.521
34.516
34.513
34.51
34.508
34.506
34.505
34.504
34.503
34.502
34.502
34.501
34.501
34.501
34.5
34.5
34.499
34.498
34.497
34.495
34.494
34.492
34.491
34.489
34.487
34.484
34.48
34.475
34.469
34.461
34.452
34.44
34.427
34.414
34.401
34.388
34.375
34.362
34.351
34.341
34.332
34.326
34.323
34.324
34.331
34.345
34.368
34.402
34.449
34.51
34.589
34.685
34.799
34.929
35.073
35.227
35.39
35.557
35.724
35.888
36.045
36.191
36.326
36.449
36.558
36.652
36.731
36.795
36.843
36.875
36.891
36.893
36.882
36.858
36.826
36.786
36.741
36.692
36.639
36.583
36.525
36.465
36.406
36.345
36.285
36.226
36.169
36.115
36.063
36.015
35.972
35.933
35.899
35.87
35.844
35.822
35.803
35.787
35.774
35.765
35.759
35.756
35.756
35.756
35.757
35.755
35.751
35.745
35.736
35.724
35.711
35.695
35.679
35.661
35.644
35.629
35.615
35.603
35.594
35.587
35.582
35.578
35.575
35.574
35.574
35.575
35.577
35.581
35.586
35.592
35.598
35.604
35.61
35.616
35.62
35.622
35.622
35.619
35.615
35.61
35.603
35.596
35.588
35.578
35.567
35.553
35.532
35.504
35.469
35.431
35.392
35.355
35.322
35.294
35.272
35.257
35.248
35.245
35.246
35.251
35.258
35.265
35.271
35.275
35.277
35.277
35.275
35.27
35.262
35.253
35.241
35.228
35.213
35.197
35.179
35.161
35.143
35.124
35.106
35.088
35.071
35.056
35.044
35.033
35.024
35.016
35.009
35.001
34.994
34.987
34.982
34.977
34.973
34.971
34.969
34.969
34.968
34.968
34.968
34.968
34.967
34.965
34.961
34.955
34.949
34.942
34.935
34.927
34.919
34.909
34.899
34.89
34.881
34.872
34.864
34.857
34.853
34.85
34.85
34.851
34.854
34.858
34.863
34.869
34.875
34.88
34.884
34.885
34.883
34.877
34.869
34.857
34.843
34.828
34.811
34.796
34.782
34.772
34.764
34.759
34.756
34.754
34.753
34.752
34.751
34.748
34.744
34.738
34.732
34.726
34.72
34.714
34.71
34.706
34.703
34.701
34.698
34.695
34.69
34.685
34.679
34.673
34.666
34.66
34.655
34.648
34.64
34.63
34.619
34.607
34.596
34.585
34.575
34.567
34.561
34.556
34.554
34.553
34.554
34.556
34.559
34.563
34.567
34.571
34.573
34.572
34.57
34.565
34.558
34.549
34.538
34.527
34.515
34.503
34.491
34.48
34.469
34.459
34.45
34.442
34.436
34.43
34.425
34.422
34.421
34.423
34.431
34.451
34.489
34.546
34.622
34.715
34.822
34.942
35.072
35.208
35.349
35.491
35.633
35.771
35.905
36.033
36.154
36.266
36.369
36.461
36.542
36.612
36.67
36.718
36.754
36.779
36.795
36.802
36.8
36.788
36.768
36.74
36.705
36.665
36.62
36.572
36.521
36.468
36.412
36.354
36.295
36.236
36.176
36.117
36.06
36.003
35.949
35.897
35.849
35.807
35.77
35.741
35.717
35.7
35.687
35.677
35.669
35.663
35.657
35.652
35.648
35.645
35.642
35.64
35.639
35.638
35.637
35.634
35.63
35.624
35.614
35.602
35.589
35.575
35.561
35.548
35.538
35.53
35.525
35.521
35.519
35.517
35.517
35.517
35.518
35.518
35.519
35.519
35.521
35.523
35.525
35.526
35.527
35.528
35.528
35.527
35.526
35.523
35.519
35.513
35.507
35.499
35.491
35.482
35.472
35.463
35.454
35.445
35.435
35.425
35.414
35.402
35.388
35.374
35.358
35.341
35.325
35.309
35.294
35.278
35.261
35.243
35.224
35.204
35.182
35.16
35.137
35.116
35.095
35.076
35.059
35.044
35.032
35.022
35.014
35.007
34.999
34.991
34.98
34.969
34.957
34.946
34.934
34.924
34.914
34.905
34.898
34.893
34.888
34.885
34.882
34.881
34.88
34.88
34.881
34.882
34.883
34.885
34.887
34.886
34.884
34.879
34.872
34.865
34.856
34.848
34.84
34.833
34.828
34.826
34.826
34.827
34.829
34.832
34.835
34.838
34.841
34.843
34.845
34.847
34.85
34.853
34.857
34.862
34.866
34.87
34.872
34.873
34.872
34.868
34.862
34.854
34.843
34.831
34.817
34.802
34.788
34.773
34.759
34.746
34.734
34.723
34.715
34.708
34.704
34.7
34.699
34.699
34.7
34.701
34.703
34.704
34.704
34.701
34.696
34.688
34.678
34.666
34.653
34.639
34.624
34.61
34.598
34.587
34.58
34.576
34.575
34.575
34.578
34.581
34.585
34.588
34.592
34.596
34.6
34.602
34.604
34.603
34.599
34.593
34.585
34.575
34.563
34.548
34.533
34.518
34.503
34.49
34.478
34.467
34.459
34.453
34.449
34.445
34.443
34.44
34.438
34.436
34.434
34.432
34.43
34.428
34.428
34.43
34.434
34.443
34.457
34.479
34.513
34.559
34.62
34.698
34.794
34.907
35.037
35.181
35.337
35.5
35.668
35.836
36.002
36.162
36.312
36.45
36.573
36.681
36.772
36.845
36.9
36.938
36.96
36.966
36.96
36.941
36.91
36.871
36.825
36.773
36.717
36.659
36.6
36.538
36.475
36.412
36.348
36.285
36.223
36.162
36.104
36.048
35.995
35.947
35.902
35.862
35.826
35.794
35.767
35.743
35.721
35.702
35.685
35.669
35.656
35.644
35.635
35.626
35.619
35.612
35.605
35.597
35.586
35.574
35.559
35.543
35.526
35.508
35.492
35.476
35.463
35.454
35.449
35.448
35.452
35.459
35.469
35.482
35.498
35.515
35.534
35.553
35.573
35.591
35.608
35.622
35.634
35.643
35.649
35.653
35.654
35.655
35.654
35.652
35.65
35.647
35.643
35.639
35.633
35.625
35.614
35.601
35.587
35.57
35.553
35.535
35.516
35.497
35.478
35.458
35.437
35.416
35.393
35.37
35.346
35.323
35.301
35.279
35.257
35.236
35.216
35.195
35.174
35.152
35.129
35.105
35.079
35.053
35.026
35.0
34.975
34.953
34.934
34.918
34.904
34.894
34.886
34.881
34.879
34.879
34.882
34.886
34.893
34.901
34.911
34.921
34.93
34.94
34.949
34.957
34.962
34.966
34.968
34.967
34.965
34.96
34.955
34.949
34.944
34.939
34.936
34.933
34.931
34.93
34.928
34.926
34.923
34.919
34.913
34.906
34.899
34.892
34.885
34.879
34.874
34.868
34.863
34.857
34.85
34.843
34.837
34.831
34.827
34.824
34.821
34.819
34.817
34.815
34.813
34.811
34.808
34.805
34.8
34.794
34.786
34.778
34.77
34.762
34.755
34.749
34.743
34.738
34.732
34.725
34.718
34.709
34.701
34.691
34.682
34.673
34.664
34.655
34.648
34.643
34.639
34.637
34.636
34.636
34.636
34.636
34.636
34.636
34.635
34.632
34.628
34.622
34.614
34.606
34.597
34.589
34.581
34.572
34.563
34.553
34.543
34.533
34.523
34.514
34.506
34.499
34.493
34.489
34.486
34.482
34.478
34.473
34.465
34.455
34.442
34.426
34.409
34.392
34.375
34.361
34.351
34.345
34.345
34.353
34.372
34.404
34.45
34.511
34.59
34.687
34.802
34.935
35.085
35.25
35.428
35.614
35.806
35.997
36.184
36.363
36.526
36.666
36.781
36.872
36.938
36.984
37.012
37.024
37.025
37.017
37.001
36.98
36.955
36.926
36.895
36.861
36.826
36.79
36.752
36.714
36.675
36.635
36.594
36.55
36.505
36.458
36.41
36.362
36.314
36.268
36.223
36.181
36.142
36.105
36.072
36.042
36.016
35.994
35.975
35.961
35.95
35.942
35.935
35.93
35.925
35.92
35.914
35.907
35.897
35.885
35.871
35.856
35.839
35.823
35.806
35.789
35.772
35.755
35.738
35.722
35.705
35.689
35.673
35.658
35.646
35.636
35.631
35.629
35.632
35.638
35.648
35.661
35.675
35.689
35.702
35.715
35.726
35.736
35.745
35.753
35.759
35.763
35.765
35.764
35.761
35.756
35.749
35.741
35.731
35.719
35.705
35.69
35.673
35.655
35.637
35.618
35.599
35.579
35.559
35.538
35.516
35.492
35.468
35.443
35.418
35.393
35.368
35.344
35.321
35.299
35.279
35.258
35.238
35.217
35.195
35.174
35.153
35.134
35.116
35.1
35.087
35.078
35.072
35.069
35.068
35.069
35.075
35.09
35.113
35.144
35.178
35.214
35.247
35.275
35.297
35.31
35.314
35.309
35.295
35.274
35.247
35.215
35.18
35.143
35.107
35.074
35.044
35.019
34.999
34.984
34.974
34.967
34.964
34.963
34.965
34.967
34.97
34.973
34.974
34.973
34.97
34.965
34.958
34.95
34.942
34.932
34.921
34.91
34.898
34.886
34.874
34.864
34.855
34.847
34.841
34.836
34.831
34.828
34.827
34.827
34.83
34.834
34.838
34.841
34.843
34.843
34.842
34.839
34.835
34.831
34.825
34.819
34.813
34.806
34.797
34.787
34.775
34.761
34.746
34.73
34.712
34.695
34.679
34.664
34.651
34.639
34.628
34.617
34.607
34.598
34.59
34.582
34.575
34.567
34.56
34.554
34.548
34.542
34.536
34.53
34.524
34.518
34.512
34.506
34.5
34.494
34.489
34.485
34.482
34.48
34.479
34.479
34.48
34.482
34.485
34.487
34.489
34.488
34.486
34.481
34.473
34.464
34.452
34.44
34.428
34.418
34.41
34.407
34.408
34.417
34.433
34.461
34.502
34.561
34.641
34.744
34.868
35.012
35.174
35.351
35.539
35.734
35.932
36.126
36.313
36.489
36.651
36.795
36.92
37.027
37.114
37.183
37.233
37.268
37.286
37.29
37.282
37.261
37.23
37.19
37.144
37.094
37.039
36.981
36.921
36.86
36.799
36.739
36.679
36.621
36.564
36.51
36.458
36.41
36.365
36.324
36.287
36.253
36.222
36.194
36.167
36.141
36.118
36.097
36.078
36.061
36.047
36.036
36.026
36.018
36.011
36.006
36.001
35.995
35.987
35.977
35.964
35.947
35.928
35.905
35.881
35.856
35.832
35.808
35.785
35.763
35.743
35.725
35.709
35.697
35.687
35.681
35.678
35.679
35.683
35.69
35.7
35.713
35.729
35.746
35.764
35.781
35.796
35.809
35.82
35.828
35.834
35.838
35.841
35.842
35.842
35.84
35.837
35.83
35.822
35.811
35.798
35.782
35.764
35.744
35.722
35.698
35.674
35.648
35.621
35.594
35.565
35.537
35.508
35.478
35.447
35.415
35.382
35.351
35.321
35.293
35.264
35.232
35.201
35.171
35.145
35.121
35.101
35.086
35.074
35.066
35.061
35.059
35.06
35.064
35.069
35.076
35.083
35.089
35.094
35.097
35.099
35.099
35.098
35.095
35.092
35.088
35.084
35.08
35.076
35.072
35.068
35.063
35.058
35.052
35.045
35.036
35.026
35.015
35.003
34.99
34.978
34.967
34.958
34.95
34.943
34.938
34.933
34.93
34.927
34.925
34.922
34.919
34.917
34.913
34.908
34.903
34.898
34.892
34.887
34.883
34.879
34.875
34.872
34.869
34.866
34.862
34.857
34.853
34.848
34.845
34.842
34.841
34.841
34.842
34.844
34.847
34.849
34.851
34.852
34.851
34.849
34.846
34.841
34.836
34.83
34.824
34.818
34.813
34.809
34.805
34.802
34.798
34.793
34.785
34.776
34.767
34.756
34.745
34.735
34.726
34.718
34.712
34.708
34.703
34.699
34.694
34.689
34.684
34.678
34.671
34.664
34.656
34.647
34.638
34.629
34.619
34.61
34.601
34.592
34.583
34.574
34.565
34.557
34.549
34.544
34.541
34.544
34.554
34.571
34.592
34.616
34.639
34.659
34.673
34.681
34.683
34.679
34.672
34.666
34.666
34.673
34.693
34.73
34.785
34.86
34.958
35.075
35.212
35.365
35.53
35.703
35.88
36.057
36.231
36.397
36.552
36.695
36.823
36.934
37.026
37.1
37.157
37.196
37.219
37.227
37.222
37.204
37.175
37.136
37.089
37.036
36.976
36.912
36.845
36.778
36.712
36.648
36.589
36.535
36.486
36.442
36.403
36.368
36.336
36.307
36.279
36.252
36.227
36.202
36.179
36.157
36.138
36.119
36.101
36.085
36.069
36.053
36.036
36.019
36.0
35.981
35.961
35.942
35.924
35.906
35.889
35.872
35.856
35.84
35.825
35.81
35.798
35.787
35.78
35.775
35.773
35.774
35.778
35.785
35.795
35.807
35.82
35.834
35.848
35.861
35.874
35.885
35.895
35.904
35.912
35.92
35.927
35.932
35.937
35.941
35.943
35.944
35.942
35.938
35.931
35.922
35.912
35.901
35.888
35.872
35.853
35.833
35.81
35.784
35.757
35.732
35.711
35.694
35.68
35.667
35.653
35.639
35.622
35.601
35.576
35.546
35.512
35.473
35.43
35.387
35.343
35.3
35.259
35.221
35.187
35.158
35.135
35.118
35.108
35.102
35.102
35.105
35.111
35.119
35.128
35.138
35.147
35.154
35.161
35.165
35.167
35.168
35.167
35.164
35.16
35.154
35.146
35.137
35.126
35.114
35.102
35.089
35.077
35.065
35.054
35.042
35.032
35.022
35.014
35.006
35.0
34.995
34.991
34.988
34.986
34.985
34.985
34.986
34.987
34.989
34.989
34.989
34.988
34.984
34.978
34.969
34.959
34.948
34.937
34.926
34.917
34.909
34.903
34.898
34.896
34.896
34.897
34.898
34.901
34.903
34.905
34.908
