Trial 1:0back
39.596
39.643
39.671
39.681
39.676
39.66
39.632
39.596
39.552
39.5
39.441
39.376
39.305
39.227
39.142
39.05
38.952
38.848
38.739
38.625
38.508
38.387
38.265
38.141
38.018
37.895
37.774
37.654
37.536
37.42
37.304
37.189
37.073
36.957
36.843
36.73
36.62
36.512
36.407
36.304
36.206
36.113
36.025
35.943
35.87
35.805
35.749
35.704
35.669
35.646
35.635
35.636
35.649
35.673
35.706
35.747
35.794
35.846
35.902
35.961
36.021
36.082
36.14
36.197
36.249
36.297
36.341
36.378
36.408
36.429
36.442
36.446
36.441
36.428
36.406
36.376
36.338
36.293
36.241
36.181
36.115
36.044
35.967
35.887
35.804
35.721
35.636
35.553
35.47
35.389
35.31
35.235
35.163
35.092
35.023
34.955
34.885
34.815
34.744
34.672
34.597
34.519
34.439
34.357
34.273
34.188
34.101
34.016
33.932
33.852
33.775
33.703
33.636
33.574
33.518
33.466
33.42
33.378
33.342
33.313
33.29
33.273
33.26
33.25
33.244
33.239
33.235
33.231
33.227
33.221
33.214
33.205
33.194
33.182
33.168
33.154
33.14
33.127
33.115
33.105
33.096
33.091
33.087
33.087
33.089
33.093
33.099
33.108
33.118
33.13
33.142
33.154
33.165
33.175
33.182
33.185
33.184
33.178
33.167
33.151
33.129
33.102
33.07
33.035
32.996
32.954
32.911
32.867
32.823
32.778
32.734
32.688
32.642
32.596
32.55
32.503
32.456
32.41
32.365
32.321
32.278
32.235
32.194
32.153
32.114
32.075
32.039
32.006
31.977
31.956
31.945
31.948
31.97
32.015
32.088
32.192
32.33
32.507
32.723
32.978
33.272
33.601
33.964
34.354
34.765
35.191
35.626
36.062
36.494
36.914
37.316
37.696
38.048
38.37
38.659
38.913
39.132
39.315
39.464
39.581
39.667
39.725
39.758
39.769
39.76
39.735
39.695
39.643
39.58
39.509
39.431
39.346
39.258
39.166
39.074
38.981
38.889
38.796
38.702
38.605
38.506
38.403
38.295
38.184
38.069
37.95
37.828
37.701
37.571
37.438
37.301
37.161
37.02
36.878
36.738
36.599
36.464
36.334
36.211
36.096
35.993
35.9
35.82
35.752
35.697
35.656
35.627
35.61
35.605
35.613
35.632
35.661
35.698
35.742
35.791
35.842
35.893
35.944
35.993
36.04
36.086
36.13
36.171
36.208
36.242
36.273
36.301
36.326
36.347
36.363
36.375
36.382
36.382
36.376
36.361
36.338
36.306
36.265
36.216
36.159
36.095
36.025
35.95
35.87
35.786
35.698
35.609
35.519
35.427
35.335
35.242
35.151
35.06
34.971
34.885
34.802
34.722
34.644
34.568
34.495
34.423
34.353
34.284
34.216
34.149
34.082
34.015
33.949
33.883
33.818
33.753
33.69
33.629
33.57
33.513
33.461
33.412
33.367
33.326
33.289
33.255
33.225
33.198
33.176
33.158
33.144
33.132
33.124
33.118
33.115
33.113
33.111
33.108
33.103
33.095
33.086
33.075
33.062
33.048
33.034
33.02
33.007
32.996
32.986
32.979
32.973
32.97
32.969
32.97
32.971
32.975
32.979
32.984
32.989
32.992
32.992
32.99
32.985
32.977
32.967
32.954
32.94
32.924
32.906
32.885
32.86
32.83
32.796
32.757
32.716
32.673
32.628
32.582
32.534
32.485
32.436
32.387
32.338
32.29
32.242
32.197
32.154
32.116
32.084
32.061
32.046
32.043
32.055
32.085
32.137
32.215
32.323
32.463
32.64
32.856
33.109
33.399
33.722
34.076
34.453
34.85
35.259
35.675
36.091
36.501
36.9
37.284
37.648
37.989
38.305
38.593
38.854
39.085
39.288
39.463
39.612
39.735
39.836
39.914
39.972
40.012
40.032
40.034
40.019
39.991
39.952
39.903
39.847
39.784
39.715
39.641
39.562
39.481
39.398
39.314
39.228
39.143
39.057
38.97
38.882
38.792
38.701
38.607
38.512
38.413
38.309
38.202
38.09
37.976
37.857
37.736
37.614
37.492
37.372
37.255
37.143
37.039
36.943
36.856
36.779
36.716
36.666
36.628
36.601
36.578
36.557
36.536
36.516
36.499
36.487
36.481
36.481
36.486
36.496
36.511
36.531
36.552
36.57
36.586
36.605
36.624
36.64
36.654
36.664
36.671
36.677
36.682
36.687
36.691
36.695
36.697
36.697
36.694
36.688
36.677
36.66
36.637
36.606
36.566
36.519
36.462
36.398
36.324
36.244
36.156
36.063
35.966
35.866
35.765
35.665
35.567
35.472
35.38
35.294
35.213
35.136
35.062
34.993
34.927
34.862
34.8
34.738
34.677
34.615
34.553
34.49
34.428
34.367
34.306
34.245
34.187
34.131
34.078
34.027
33.978
33.931
33.888
33.848
33.811
33.779
33.75
33.726
33.706
33.689
33.675
33.663
33.652
33.642
33.632
33.622
33.611
33.598
33.584
33.569
33.552
33.533
33.511
33.487
33.46
33.432
33.404
33.375
33.348
33.324
33.304
33.287
33.273
33.262
33.254
33.246
33.239
33.233
33.226
33.219
33.212
33.203
33.192
33.181
33.166
33.148
33.127
33.101
33.072
33.038
33.002
32.961
32.916
32.867
32.816
32.762
32.706
32.649
32.59
32.531
32.472
32.416
32.363
32.314
32.271
32.232
32.201
32.177
32.163
32.16
32.17
32.195
32.24
32.307
32.399
32.521
32.674
32.861
33.082
33.338
33.627
33.946
34.293
34.661
35.048
35.446
35.849
36.252
36.648
37.032
37.4
37.747
38.072
38.371
38.644
38.891
39.109
39.3
39.463
39.599
39.71
39.796
39.859
39.9
39.921
39.924
39.91
39.88
39.838
39.784
39.718
39.644
39.562
39.474
39.382
39.286
39.189
39.09
38.991
38.892
38.793
38.695
38.597
38.499
38.399
38.297
38.193
38.085
37.975
37.861
37.744
37.622
37.497
37.368
37.236
37.101
36.965
36.83
36.698
36.572
36.454
36.346
36.248
36.164
36.093
36.037
35.995
35.966
35.95
35.946
35.953
35.969
35.992
36.02
36.051
36.084
36.118
36.151
36.182
36.21
36.235
36.256
36.273
36.286
36.296
36.303
36.308
36.31
36.309
36.307
36.303
36.297
36.288
36.274
36.256
36.233
36.204
36.169
36.128
36.08
36.027
35.969
35.904
35.832
35.754
35.67
35.581
35.487
35.391
35.293
35.193
35.094
34.996
34.902
34.81
34.722
34.638
34.558
34.484
34.415
34.352
34.293
34.237
34.184
34.132
34.081
34.028
33.974
33.918
33.861
33.802
33.742
33.681
33.619
33.559
33.5
33.443
33.39
33.341
33.296
33.257
33.224
33.198
33.178
33.164
33.156
33.152
33.151
33.154
33.159
33.165
33.171
33.176
33.18
33.182
33.181
33.178
33.172
33.164
33.154
33.143
33.131
33.117
33.102
33.085
33.068
33.05
33.031
33.012
32.992
32.972
32.952
32.932
32.912
32.891
32.869
32.846
32.824
32.801
32.778
32.753
32.726
32.697
32.664
32.627
32.587
32.543
32.495
32.443
32.389
32.333
32.277
32.221
32.166
32.114
32.066
32.024
31.992
31.97
31.962
31.971
32.001
32.054
32.134
32.246
32.392
32.575
32.794
33.05
33.34
33.663
34.012
34.381
34.766
35.159
35.553
35.943
36.323
36.689
37.034
37.357
37.654
37.923
38.163
38.375
38.558
38.714
38.845
38.952
39.037
39.101
39.148
39.178
39.194
39.197
39.188
39.169
39.141
39.104
39.057
39.002
38.938
38.866
38.787
38.7
38.606
38.503
38.393
38.277
38.156
38.033
37.91
37.786
37.663
37.542
37.421
37.303
37.187
37.072
36.957
36.842
36.727
36.611
36.494
36.377
36.26
36.144
36.031
35.922
35.819
35.723
35.635
35.557
35.49
35.436
35.395
35.367
35.353
35.351
35.362
35.386
35.421
35.467
35.521
35.582
35.649
35.718
35.788
35.858
35.924
35.986
36.042
36.091
36.131
36.162
36.184
36.197
36.202
36.198
36.187
36.169
36.145
36.114
36.077
36.034
35.984
35.93
35.872
35.81
35.747
35.683
35.618
35.552
35.485
35.416
35.348
35.279
35.211
35.142
35.071
34.999
34.925
34.847
34.767
34.684
34.598
34.51
34.421
34.332
34.245
34.159
34.077
33.998
33.925
33.855
33.791
33.732
33.678
33.63
33.589
33.552
33.521
33.494
33.469
33.448
33.43
33.415
33.4
33.385
33.37
33.353
33.335
33.315
33.294
33.271
33.248
33.223
33.198
33.173
33.15
33.128
33.109
33.093
33.082
33.075
33.072
33.073
33.078
33.086
33.098
33.113
33.129
33.145
33.161
33.176
33.188
33.195
33.196
33.187
33.17
33.143
33.106
33.059
33.004
32.943
32.877
32.809
32.74
32.672
32.607
32.545
32.488
32.437
32.393
32.354
32.322
32.297
32.281
32.272
32.274
32.286
32.312
32.353
32.412
32.493
32.598
32.729
32.891
33.084
33.309
33.566
33.853
34.167
34.506
34.863
35.234
35.612
35.994
36.373
36.746
37.106
37.45
37.774
38.076
38.354
38.605
38.83
39.027
39.197
39.338
39.453
39.543
39.609
39.653
39.676
39.682
39.67
39.643
39.602
39.549
39.484
39.412
39.334
39.251
39.166
39.08
38.994
38.908
38.822
38.736
38.649
38.563
38.475
38.386
38.295
38.201
38.103
38.0
37.891
37.777
37.658
37.534
37.406
37.275
37.141
37.006
36.871
36.739
36.611
36.489
36.376
36.273
36.181
36.102
36.036
35.983
35.944
35.917
35.902
35.898
35.903
35.916
35.935
35.96
35.988
36.019
36.051
36.083
36.114
36.144
36.173
36.2
36.225
36.248
36.268
36.287
36.304
36.319
36.333
36.347
36.359
36.369
36.374
36.373
36.366
36.35
36.324
36.289
36.244
36.188
36.123
36.05
35.968
35.88
35.787
35.69
35.591
35.489
35.386
35.283
35.18
35.078
34.979
34.882
34.788
34.698
34.613
34.533
34.46
34.391
34.327
34.266
34.207
34.149
34.091
34.033
33.973
33.914
33.854
33.793
33.732
33.671
33.612
33.554
33.498
33.445
33.395
33.348
33.306
33.268
33.235
33.207
33.182
33.162
33.146
33.135
33.128
33.123
33.122
33.122
33.124
33.127
33.129
33.131
33.133
33.134
33.134
33.133
33.13
33.125
33.116
33.104
33.09
33.074
33.057
33.04
33.023
33.008
32.995
32.984
32.976
32.968
32.96
32.951
32.939
32.924
32.905
32.884
32.859
32.832
32.802
32.769
32.734
32.695
32.654
32.612
32.568
32.522
32.474
32.426
32.376
32.327
32.278
32.232
32.189
32.153
32.127
32.114
32.119
32.145
32.197
32.278
32.392
32.542
32.729
32.953
33.215
33.513
33.842
34.2
34.581
34.98
35.39
35.806
36.221
36.628
37.022
37.398
37.752
38.081
38.383
38.656
38.902
39.118
39.306
39.467
39.602
39.714
39.805
39.875
39.927
39.963
39.982
39.984
39.97
39.94
39.896
39.839
39.77
39.693
39.607
39.516
39.42
39.32
39.219
39.116
39.013
38.911
38.811
38.713
38.619
38.526
38.436
38.348
38.261
38.175
38.089
38.0
37.909
37.813
37.712
37.605
37.493
37.377
37.258
37.137
37.018
36.903
36.793
36.69
36.595
36.51
36.434
36.369
36.315
36.273
36.242
36.221
36.211
36.209
36.215
36.227
36.245
36.268
36.294
36.321
36.35
36.378
36.404
36.428
36.449
36.465
36.478
36.487
36.492
36.491
36.486
36.476
36.461
36.441
36.416
36.385
36.35
36.311
36.267
36.22
36.17
36.116
36.06
36.001
35.939
35.872
35.801
35.725
35.644
35.558
35.467
35.373
35.274
35.174
35.072
34.969
34.868
34.768
34.672
34.578
34.489
34.404
34.324
34.249
34.178
34.112
34.049
33.99
33.934
33.881
33.83
33.781
33.734
33.688
33.644
33.601
33.558
33.518
33.479
33.443
33.409
33.378
33.348
33.32
33.292
33.264
33.237
33.211
33.185
33.161
33.138
33.118
33.1
33.086
33.076
33.068
33.062
33.057
33.054
33.052
33.05
33.047
33.044
33.038
33.031
33.022
33.011
32.998
32.983
32.966
32.947
32.928
32.907
32.886
32.864
32.841
32.819
32.798
32.776
32.755
32.735
32.716
32.699
32.682
32.665
32.647
32.627
32.604
32.577
32.545
32.506
32.46
32.409
32.353
32.294
32.233
32.171
32.109
32.049
31.993
31.941
31.896
31.86
31.836
31.827
31.834
31.863
31.914
31.993
32.101
32.244
32.422
32.639
32.893
33.185
33.511
33.869
34.253
34.659
35.079
35.509
35.941
36.367
36.782
37.18
37.557
37.907
38.228
38.518
38.776
39.001
39.195
39.36
39.496
39.608
39.696
39.764
39.813
39.843
39.858
39.859
39.845
39.819
39.78
39.731
39.672
39.603
39.526
39.44
39.347
39.249
39.146
39.039
38.93
38.82
38.711
38.601
38.494
38.388
38.286
38.186
38.09
37.995
37.901
37.807
37.712
37.616
37.517
37.415
37.31
37.202
37.09
36.977
36.863
36.75
36.64
36.535
36.436
36.346
36.265
36.195
36.136
36.09
36.056
36.033
36.023
36.024
36.035
36.056
36.084
36.118
36.156
36.195
36.233
36.268
36.299
36.324
36.343
36.356
36.361
36.36
36.351
36.336
36.316
36.29
36.26
36.227
36.192
36.156
36.119
36.08
36.041
36.0
35.958
35.915
35.869
35.82
35.768
35.711
35.649
35.582
35.51
35.432
35.35
35.264
35.177
35.087
34.997
34.906
34.813
34.719
34.623
34.527
34.43
34.333
34.239
34.147
34.059
33.975
33.897
33.825
33.758
33.698
33.643
33.592
33.546
33.504
33.464
33.427
33.391
33.355
33.319
33.284
33.249
33.214
33.178
33.143
33.109
33.075
33.042
33.012
32.984
32.958
32.936
32.917
32.901
32.888
32.879
32.873
32.869
32.867
32.867
32.867
32.866
32.866
32.864
32.861
32.855
32.847
32.836
32.821
32.803
32.781
32.758
32.733
32.707
32.68
32.654
32.629
32.605
32.584
32.565
32.548
32.532
32.518
32.505
32.492
32.479
32.465
32.449
32.431
32.411
32.388
32.361
32.332
32.299
32.262
32.221
32.175
32.125
32.069
32.007
31.938
31.865
31.79
31.713
31.638
31.568
31.504
31.449
31.404
31.37
31.348
31.339
31.347
31.374
31.423
31.496
31.596
31.727
31.892
32.094
32.334
32.611
32.925
33.272
33.65
34.053
34.475
34.911
35.353
35.796
36.233
36.656
37.06
37.442
37.797
38.122
38.417
38.68
38.912
39.113
39.285
39.428
39.543
39.633
39.699
39.741
39.762
39.764
39.749
39.718
39.673
39.615
39.545
39.465
39.375
39.279
39.176
39.069
38.96
38.849
38.737
38.624
38.512
38.4
38.29
38.179
38.07
37.961
37.852
37.743
37.632
37.52
37.405
37.287
37.166
37.042
36.916
36.79
36.664
36.54
36.419
36.303
36.193
36.091
35.998
35.917
35.848
35.791
35.745
35.712
35.69
35.68
35.683
35.7
35.731
35.772
35.821
35.875
35.932
35.989
36.043
36.093
36.137
36.174
36.204
36.227
36.242
36.251
36.255
36.253
36.247
36.237
36.223
36.205
36.184
36.16
36.133
36.103
36.071
36.034
35.992
35.945
35.891
35.831
35.763
35.69
35.61
35.523
35.431
35.333
35.231
35.125
35.018
34.91
34.803
34.697
34.594
34.494
34.399
34.309
34.223
34.142
34.066
33.994
33.926
33.861
33.8
33.739
33.678
33.616
33.552
33.487
33.422
33.358
33.295
33.235
33.178
33.126
33.079
33.036
32.998
32.963
32.932
32.905
32.881
32.861
32.845
32.832
32.822
32.814
32.809
32.807
32.806
32.805
32.806
32.807
32.808
32.808
32.808
32.807
32.805
32.801
32.796
32.789
32.781
32.773
32.764
32.756
32.748
32.739
32.731
32.722
32.715
32.71
32.706
32.703
32.701
32.701
32.702
32.705
32.708
32.71
32.711
32.709
32.704
32.695
32.68
32.66
32.634
32.602
32.564
32.521
32.473
32.422
32.367
32.312
32.254
32.196
32.137
32.079
32.023
31.971
31.923
31.879
31.84
31.805
31.774
31.745
31.718
31.693
31.669
31.648
31.631
31.623
31.625
31.642
31.678
31.737
31.824
31.943
32.098
32.29
32.52
32.79
33.097
33.439
33.811
34.207
34.624
35.055
35.496
35.938
36.377
36.805
37.217
37.606
37.968
38.297
38.592
38.85
39.071
39.255
39.404
39.519
39.603
39.658
39.687
39.693
39.678
39.647
39.6
39.538
39.463
39.378
39.285
39.185
39.079
38.969
38.857
38.744
38.629
38.513
38.397
38.28
38.162
38.042
37.919
37.793
37.663
37.528
37.388
37.244
37.096
36.944
36.79
36.634
36.478
36.323
36.171
36.023
35.882
35.749
35.627
35.515
35.416
35.33
35.258
35.199
35.156
35.126
35.112
35.111
35.124
35.148
35.182
35.225
35.275
35.329
35.387
35.447
35.509
35.57
35.63
35.688
35.743
35.795
35.843
35.887
35.926
35.959
35.986
36.008
36.023
36.032
36.034
36.03
36.018
35.999
35.972
35.938
35.896
35.847
35.791
35.727
35.656
35.578
35.494
35.404
35.309
35.21
35.108
35.005
34.902
34.8
34.699
34.601
34.505
34.412
34.323
34.237
34.152
34.07
33.989
33.909
33.83
33.751
33.673
33.595
33.517
33.44
33.364
33.288
33.213
33.14
33.069
33.001
32.937
32.877
32.822
32.774
32.733
32.698
32.671
32.651
32.638
32.63
32.626
32.625
32.625
32.626
32.627
32.626
32.623
32.617
32.608
32.597
32.584
32.569
32.553
32.537
32.522
32.509
32.499
32.492
32.488
32.488
32.492
32.499
32.508
32.519
32.53
32.543
32.557
32.572
32.588
32.601
32.612
32.619
32.622
32.62
32.611
32.597
32.576
32.55
32.518
32.48
32.438
32.393
32.345
32.295
32.245
32.194
32.144
32.094
32.046
31.999
31.954
31.91
31.868
31.826
31.785
31.745
31.707
31.669
31.633
31.599
31.569
31.543
31.524
31.514
31.517
31.538
31.579
31.647
31.746
31.879
32.051
32.265
32.521
32.819
33.158
33.534
33.944
34.382
34.842
35.316
35.796
36.275
36.745
37.2
37.634
38.042
38.419
38.761
39.068
39.337
39.568
39.762
39.919
40.043
40.134
40.196
40.231
40.242
40.232
40.204
40.162
40.107
40.044
39.973
39.897
39.816
39.733
39.645
39.554
39.458
39.359
39.255
39.146
39.032
38.914
38.791
38.664
38.533
38.398
38.261
38.122
37.981
37.84
37.698
37.556
37.415
37.276
37.139
37.005
36.874
36.749
36.628
36.513
36.405
36.303
36.21
36.124
36.046
35.977
35.918
35.869
35.832
35.805
35.789
35.784
35.788
35.801
35.822
35.85
35.885
35.925
35.969
36.018
36.069
36.122
36.175
36.227
36.277
36.324
36.366
36.402
36.431
36.452
36.464
36.466
36.459
36.443
36.417
36.382
36.338
36.287
36.229
36.164
36.094
36.02
35.943
35.863
35.783
35.703
35.622
35.541
35.458
35.374
35.288
35.201
35.111
35.019
34.924
34.826
34.727
34.626
34.524
34.421
34.318
34.214
34.111
34.01
33.912
33.819
33.729
33.644
33.564
33.488
33.416
33.349
33.287
33.228
33.174
33.123
33.076
33.031
32.989
32.95
32.915
32.882
32.851
32.822
32.795
32.769
32.745
32.723
32.701
32.68
32.66
32.64
32.622
32.604
32.589
32.574
32.561
32.55
32.54
32.532
32.526
32.52
32.517
32.515
32.516
32.518
32.523
32.53
32.538
32.548
32.556
32.563
32.567
32.568
32.566
32.56
32.551
32.537
32.521
32.502
32.48
32.456
32.431
32.406
32.38
32.356
32.332
32.309
32.287
32.265
32.242
32.22
32.195
32.169
32.14
32.108
32.074
32.035
31.992
31.944
31.891
31.833
31.77
31.703
31.633
31.561
31.489
31.419
31.354
31.296
31.246
31.209
31.187
31.184
31.204
31.253
31.334
31.453
31.614
31.822
32.079
32.385
32.737
33.132
33.566
34.031
34.52
35.025
35.539
36.052
36.558
37.049
37.517
37.958
38.367
38.74
39.076
39.374
39.634
39.855
40.04
40.189
40.306
40.394
40.456
40.494
40.512
40.513
40.499
40.47
40.427
40.373
40.307
40.23
40.142
40.046
39.941
39.829
39.712
39.59
39.466
39.339
39.212
39.084
38.957
38.831
38.706
38.582
38.459
38.337
38.214
38.091
37.966
37.84
37.712
37.582
37.45
37.316
37.18
37.044
36.909
36.776
36.647
36.522
36.405
36.297
36.198
36.111
36.037
35.978
35.933
35.903
35.887
35.885
35.896
35.918
35.95
35.991
36.037
36.088
36.141
36.194
36.245
36.295
36.341
36.384
36.422
36.455
36.48
36.499
36.511
36.517
36.516
36.509
36.496
36.479
36.457
36.431
36.401
36.366
36.327
36.283
36.233
36.177
36.114
36.044
35.967
35.883
35.793
35.696
35.593
35.485
35.375
35.261
35.147
35.033
34.92
34.809
34.7
34.595
34.495
34.401
34.311
34.226
34.143
34.064
33.987
33.911
33.837
33.764
33.69
33.617
33.544
33.471
33.399
33.326
33.254
33.184
33.116
33.051
32.989
32.93
32.875
32.824
32.776
32.734
32.696
32.663
32.636
32.615
32.599
32.588
32.582
32.578
32.578
32.581
32.584
32.589
32.594
32.598
32.601
32.603
32.603
32.6
32.594
32.585
32.573
32.56
32.545
32.529
32.514
32.499
32.486
32.474
32.464
32.455
32.447
32.442
32.438
32.435
32.433
32.43
32.427
32.423
32.417
32.408
32.397
32.384
32.367
32.346
32.322
32.294
32.262
32.226
32.188
32.146
32.103
32.058
32.012
31.966
31.919
31.874
31.828
31.783
31.737
31.692
31.646
31.601
31.557
31.514
31.47
31.425
31.379
31.332
31.284
31.235
31.187
31.143
31.106
