Trial 1:0back
35.147
35.136
35.124
35.11
35.095
35.079
35.06
35.041
35.02
34.998
34.972
34.945
34.915
34.884
34.85
34.815
34.781
34.746
34.712
34.677
34.641
34.603
34.563
34.521
34.477
34.431
34.384
34.335
34.285
34.233
34.181
34.129
34.077
34.027
33.978
33.929
33.881
33.834
33.787
33.74
33.693
33.647
33.6
33.553
33.506
33.459
33.412
33.366
33.32
33.275
33.229
33.183
33.137
33.09
33.044
32.998
32.954
32.911
32.871
32.831
32.792
32.754
32.716
32.68
32.645
32.61
32.576
32.544
32.512
32.482
32.454
32.429
32.407
32.386
32.367
32.348
32.328
32.307
32.285
32.264
32.246
32.233
32.23
32.239
32.263
32.306
32.368
32.453
32.561
32.692
32.844
33.018
33.21
33.419
33.64
33.872
34.11
34.353
34.6
34.85
35.101
35.355
35.609
35.864
36.118
36.37
36.619
36.863
37.1
37.327
37.538
37.731
37.903
38.049
38.167
38.255
38.312
38.338
38.334
38.303
38.247
38.168
38.072
37.964
37.846
37.725
37.61
37.511
37.431
37.368
37.318
37.276
37.238
37.199
37.153
37.096
37.026
36.94
36.839
36.723
36.595
36.455
36.309
36.16
36.012
35.869
35.735
35.612
35.504
35.41
35.331
35.265
35.211
35.17
35.139
35.117
35.103
35.096
35.094
35.096
35.102
35.111
35.122
35.136
35.153
35.171
35.19
35.21
35.229
35.246
35.26
35.271
35.276
35.277
35.274
35.265
35.251
35.233
35.212
35.188
35.162
35.134
35.102
35.069
35.035
34.999
34.963
34.927
34.89
34.852
34.813
34.771
34.727
34.68
34.633
34.585
34.542
34.508
34.483
34.465
34.452
34.443
34.434
34.424
34.408
34.386
34.355
34.316
34.27
34.217
34.158
34.094
34.026
33.954
33.881
33.808
33.737
33.67
33.608
33.551
33.5
33.453
33.411
33.374
33.341
33.312
33.285
33.258
33.231
33.204
33.174
33.143
33.11
33.075
33.04
33.005
32.969
32.933
32.898
32.864
32.831
32.798
32.765
32.732
32.699
32.665
32.633
32.6
32.568
32.537
32.509
32.484
32.465
32.457
32.463
32.485
32.526
32.586
32.666
32.767
32.889
33.031
33.193
33.373
33.57
33.779
33.998
34.223
34.45
34.675
34.897
35.111
35.316
35.51
35.693
35.863
36.021
36.166
36.298
36.418
36.525
36.62
36.703
36.775
36.837
36.89
36.935
36.974
37.006
37.033
37.054
37.068
37.074
37.072
37.061
37.043
37.016
36.979
36.933
36.88
36.819
36.751
36.679
36.604
36.527
36.449
36.372
36.295
36.219
36.144
36.072
36.001
35.93
35.858
35.786
35.711
35.636
35.561
35.486
35.414
35.345
35.281
35.223
35.173
35.131
35.097
35.073
35.056
35.045
35.041
35.041
35.043
35.047
35.051
35.054
35.057
35.059
35.061
35.061
35.062
35.064
35.066
35.068
35.071
35.073
35.076
35.078
35.079
35.076
35.067
35.053
35.033
35.006
34.974
34.938
34.899
34.859
34.821
34.785
34.752
34.723
34.699
34.677
34.656
34.636
34.616
34.593
34.567
34.537
34.503
34.466
34.426
34.382
34.336
34.288
34.239
34.191
34.144
34.099
34.056
34.015
33.974
33.932
33.889
33.843
33.797
33.749
33.7
33.652
33.604
33.558
33.516
33.476
33.44
33.406
33.375
33.345
33.317
33.288
33.258
33.229
33.198
33.166
33.131
33.095
33.058
33.021
32.985
32.949
32.916
32.884
32.854
32.827
32.802
32.782
32.767
32.759
32.76
32.772
32.796
32.834
32.888
32.959
33.047
33.153
33.276
33.416
33.572
33.742
33.926
34.12
34.325
34.537
34.752
34.969
35.186
35.399
35.608
35.81
36.003
36.188
36.361
36.521
36.667
36.798
36.916
37.022
37.118
37.205
37.284
37.356
37.423
37.483
37.537
37.584
37.623
37.655
37.676
37.687
37.685
37.671
37.643
37.605
37.555
37.496
37.428
37.352
37.269
37.18
37.085
36.988
36.888
36.788
36.688
36.589
36.49
36.392
36.296
36.201
36.107
36.017
35.931
35.85
35.774
35.703
35.637
35.576
35.52
35.471
35.428
35.391
35.359
35.335
35.318
35.308
35.304
35.306
35.313
35.323
35.335
35.345
35.355
35.363
35.369
35.374
35.378
35.38
35.38
35.377
35.371
35.362
35.35
35.334
35.315
35.292
35.266
35.237
35.206
35.175
35.145
35.115
35.086
35.059
35.033
35.007
34.979
34.951
34.92
34.887
34.851
34.812
34.769
34.724
34.678
34.63
34.582
34.535
34.49
34.446
34.404
34.363
34.323
34.283
34.243
34.202
34.16
34.117
34.072
34.026
33.978
33.929
33.878
33.827
33.777
33.728
33.681
33.636
33.593
33.554
33.518
33.483
33.448
33.414
33.381
33.347
33.313
33.279
33.245
33.212
33.178
33.145
33.11
33.074
33.038
33.002
32.968
32.936
32.909
32.891
32.882
32.887
32.909
32.952
33.017
33.108
33.225
33.367
33.533
33.721
33.928
34.15
34.383
34.627
34.878
35.135
35.396
35.661
35.931
36.206
36.487
36.774
37.065
37.36
37.655
37.946
38.227
38.493
38.738
38.957
39.144
39.297
39.412
39.488
39.527
39.53
39.499
39.438
39.351
39.243
39.121
38.987
38.847
38.703
38.559
38.417
38.28
38.147
38.022
37.903
37.791
37.685
37.585
37.489
37.397
37.309
37.224
37.141
37.059
36.976
36.894
36.81
36.725
36.64
36.556
36.475
36.399
36.326
36.259
36.196
36.139
36.088
36.043
36.005
35.973
35.948
35.928
35.913
35.901
35.893
35.888
35.885
35.885
35.885
35.886
35.887
35.886
35.885
35.882
35.876
35.869
35.86
35.848
35.832
35.814
35.792
35.768
35.742
35.713
35.683
35.651
35.617
35.582
35.545
35.508
35.471
35.433
35.395
35.356
35.314
35.272
35.227
35.182
35.135
35.087
35.04
34.993
34.947
34.901
34.855
34.809
34.764
34.719
34.673
34.626
34.578
34.53
34.483
34.437
34.392
34.346
34.301
34.254
34.207
34.157
34.107
34.056
34.003
33.95
33.897
33.845
33.796
33.75
33.708
33.67
33.636
33.606
33.578
33.551
33.525
33.498
33.47
33.44
33.406
33.37
33.332
33.295
33.261
33.232
33.21
33.197
33.197
33.212
33.244
33.296
33.368
33.463
33.579
33.717
33.874
34.05
34.245
34.457
34.685
34.93
35.192
35.471
35.769
36.085
36.42
36.77
37.134
37.504
37.874
38.235
38.58
38.901
39.191
39.442
39.652
39.815
39.932
40.003
40.029
40.013
39.959
39.873
39.762
39.631
39.487
39.337
39.185
39.037
38.895
38.761
38.636
38.52
38.413
38.313
38.219
38.129
38.041
37.955
37.869
37.78
37.689
37.596
37.5
37.402
37.304
37.205
37.11
37.019
36.935
36.857
36.787
36.726
36.673
36.627
36.587
36.552
36.519
36.489
36.46
36.432
36.404
36.376
36.348
36.319
36.29
36.26
36.231
36.204
36.179
36.159
36.144
36.133
36.125
36.121
36.118
36.114
36.108
36.099
36.087
36.07
36.049
36.024
35.995
35.963
35.929
35.893
35.856
35.819
35.783
35.747
35.71
35.674
35.638
35.603
35.568
35.533
35.496
35.455
35.412
35.365
35.315
35.262
35.208
35.154
35.101
35.047
34.993
34.94
34.896
34.863
34.84
34.824
34.814
34.803
34.789
34.768
34.739
34.699
34.65
34.591
34.525
34.451
34.373
34.291
34.209
34.128
34.049
33.973
33.901
33.832
33.768
33.708
33.652
33.6
33.554
33.513
33.475
33.442
33.413
33.389
33.368
33.35
33.334
33.322
33.311
33.303
33.299
33.304
33.319
33.348
33.393
33.458
33.543
33.65
33.779
33.929
34.099
34.289
34.497
34.723
34.966
35.226
35.506
35.806
36.13
36.474
36.836
37.21
37.59
37.967
38.333
38.681
39.001
39.289
39.538
39.744
39.904
40.016
40.082
40.104
40.086
40.031
39.946
39.835
39.704
39.56
39.406
39.245
39.084
38.925
38.771
38.624
38.485
38.353
38.23
38.116
38.01
37.912
37.82
37.735
37.655
37.579
37.505
37.432
37.36
37.287
37.214
37.139
37.064
36.989
36.915
36.843
36.772
36.702
36.635
36.571
36.508
36.448
36.391
36.338
36.29
36.25
36.217
36.193
36.177
36.17
36.17
36.176
36.185
36.195
36.205
36.212
36.214
36.212
36.203
36.189
36.168
36.14
36.108
36.071
36.031
35.99
35.948
35.907
35.868
35.83
35.793
35.757
35.721
35.682
35.64
35.596
35.547
35.493
35.435
35.374
35.309
35.241
35.171
35.101
35.03
34.959
34.89
34.822
34.757
34.696
34.637
34.581
34.525
34.47
34.415
34.36
34.305
34.25
34.196
34.145
34.097
34.053
34.011
33.971
33.933
33.897
33.862
33.825
33.787
33.747
33.704
33.659
33.611
33.562
33.513
33.467
33.423
33.383
33.347
33.315
33.288
33.262
33.236
33.21
33.182
33.153
33.122
33.091
33.061
33.033
33.009
32.991
32.979
32.977
32.988
33.014
33.056
33.115
33.191
33.285
33.397
33.527
33.675
33.844
34.033
34.244
34.478
34.736
35.02
35.333
35.676
36.047
36.442
36.856
37.277
37.698
38.107
38.494
38.848
39.163
39.432
39.652
39.82
39.938
40.006
40.027
40.005
39.945
39.855
39.739
39.606
39.46
39.306
39.15
38.993
38.841
38.694
38.555
38.425
38.303
38.19
38.085
37.986
37.892
37.802
37.716
37.633
37.552
37.472
37.391
37.309
37.225
37.14
37.055
36.97
36.888
36.808
36.732
36.659
36.587
36.517
36.45
36.387
36.328
36.273
36.222
36.176
36.134
36.097
36.064
36.034
36.01
35.989
35.972
35.96
35.95
35.944
35.94
35.938
35.938
35.937
35.935
35.931
35.922
35.91
35.893
35.872
35.847
35.818
35.785
35.747
35.705
35.659
35.61
35.558
35.504
35.451
35.397
35.345
35.293
35.242
35.192
35.143
35.095
35.047
34.999
34.95
34.901
34.85
34.798
34.746
34.693
34.642
34.591
34.541
34.493
34.447
34.404
34.363
34.322
34.281
34.238
34.195
34.149
34.101
34.052
34.003
33.953
33.905
33.856
33.809
33.763
33.719
33.674
33.63
33.585
33.539
33.492
33.444
33.395
33.346
33.297
33.251
33.207
33.167
33.13
33.096
33.066
33.038
33.011
32.985
32.957
32.93
32.904
32.88
32.859
32.843
32.834
32.836
32.849
32.876
32.919
32.98
33.059
33.158
33.274
33.407
33.555
33.718
33.895
34.088
34.297
34.525
34.774
35.047
35.345
35.668
36.013
36.378
36.755
37.136
37.513
37.876
38.217
38.525
38.795
39.02
39.197
39.325
39.402
39.431
39.416
39.362
39.274
39.159
39.024
38.876
38.72
38.561
38.405
38.254
38.111
37.975
37.849
37.732
37.623
37.522
37.427
37.339
37.255
37.175
37.095
37.016
36.935
36.852
36.766
36.679
36.592
36.507
36.424
36.345
36.27
36.2
36.135
36.074
36.018
35.965
35.916
35.87
35.828
35.789
35.753
35.72
35.691
35.665
35.643
35.624
35.609
35.599
35.593
35.592
35.592
35.593
35.592
35.588
35.58
35.566
35.547
35.524
35.5
35.474
35.447
35.421
35.394
35.368
35.341
35.314
35.287
35.258
35.229
35.199
35.167
35.135
35.103
35.07
35.035
34.997
34.957
34.913
34.866
34.817
34.766
34.715
34.664
34.612
34.561
34.508
34.454
34.4
34.346
34.292
34.239
34.186
34.133
34.08
34.028
33.975
33.923
33.873
33.826
33.78
33.737
33.694
33.652
33.61
33.568
33.526
33.483
33.441
33.398
33.356
33.314
33.274
33.235
33.198
33.163
33.129
33.097
33.067
33.04
33.016
32.991
32.967
32.943
32.918
32.892
32.867
32.844
32.825
32.814
32.811
32.819
32.841
32.878
32.934
33.009
33.104
33.218
33.35
33.5
33.666
33.844
34.034
34.235
34.444
34.661
34.885
35.115
35.351
35.591
35.834
36.079
36.324
36.569
36.809
37.044
37.268
37.479
37.674
37.847
37.998
38.121
38.215
38.281
38.317
38.327
38.313
38.277
38.224
38.158
38.082
37.999
37.911
37.82
37.727
37.633
37.539
37.444
37.348
37.252
37.156
37.059
36.963
36.867
36.771
36.675
36.58
36.485
36.393
36.303
36.217
36.137
36.062
35.993
35.931
35.873
35.818
35.763
35.707
35.651
35.597
35.547
35.501
35.459
35.424
35.395
35.375
35.362
35.358
35.36
35.37
35.387
35.408
35.432
35.458
35.485
35.51
35.532
35.547
35.556
35.557
35.55
35.534
35.51
35.479
35.442
35.401
35.359
35.316
35.273
35.232
35.192
35.153
35.115
35.077
35.039
35.002
34.965
34.927
34.888
34.847
34.805
34.761
34.717
34.674
34.633
34.593
34.555
34.518
34.482
34.446
34.41
34.373
34.334
34.293
34.251
34.206
34.159
34.111
34.061
34.011
33.96
33.909
33.857
33.805
33.753
33.703
33.655
33.608
33.564
33.523
33.485
33.451
33.42
33.392
33.366
33.341
33.315
33.288
33.257
33.222
33.183
33.142
33.099
33.055
33.014
32.977
32.946
32.924
32.913
32.917
32.938
32.978
33.037
33.117
33.219
33.341
33.485
33.647
33.827
34.023
34.234
34.457
34.692
34.939
35.197
35.467
35.747
36.038
36.339
36.647
36.959
37.272
37.58
37.877
38.157
38.414
38.642
38.836
38.993
39.11
39.187
39.224
39.224
39.19
39.125
39.035
38.926
38.802
38.669
38.532
38.395
38.262
38.135
38.014
37.899
37.792
37.692
37.598
37.511
37.43
37.353
37.279
37.207
37.137
37.067
36.999
36.93
36.861
36.791
36.718
36.644
36.568
36.492
36.415
36.341
36.269
36.202
36.139
36.082
36.03
35.984
35.944
35.911
35.884
35.862
35.843
35.828
35.816
35.806
35.798
35.792
35.787
35.785
35.784
35.784
35.784
35.782
35.78
35.775
35.767
35.756
35.742
35.722
35.698
35.669
35.635
35.596
35.553
35.505
35.454
35.4
35.345
35.29
35.237
35.187
35.138
35.091
35.047
35.004
34.961
34.918
34.875
34.831
34.786
34.739
34.69
34.638
34.585
34.531
34.476
34.421
34.368
34.318
34.271
34.228
34.187
34.148
34.11
34.07
34.027
33.979
33.928
33.873
33.816
33.76
33.704
33.651
33.601
33.555
33.512
33.473
33.437
33.403
33.37
33.336
33.301
33.264
33.224
33.181
33.137
33.093
33.051
33.012
32.98
32.955
32.94
32.936
32.946
32.971
33.012
33.072
33.152
33.254
33.377
33.523
33.689
33.877
34.087
34.318
34.572
34.848
35.148
35.474
35.826
36.201
36.597
37.007
37.426
37.842
38.248
38.632
38.986
39.303
39.577
39.803
39.979
40.106
40.183
40.215
40.205
40.156
40.075
39.967
39.838
39.694
39.54
39.383
39.227
39.075
38.931
38.795
38.671
38.558
38.457
38.365
38.281
38.202
38.126
38.053
37.98
37.907
37.834
37.758
37.682
37.603
37.522
37.438
37.352
37.266
37.182
37.101
37.023
36.949
36.88
36.815
36.754
36.696
36.643
36.595
36.553
36.516
36.483
36.455
36.429
36.405
36.383
36.363
36.343
36.324
36.304
36.282
36.258
36.231
36.201
36.168
36.134
36.096
36.056
36.014
35.97
35.925
35.878
35.832
35.786
35.741
35.697
35.654
35.61
35.565
35.521
35.476
35.431
35.386
35.34
35.293
35.245
35.195
35.142
35.086
35.027
34.965
34.9
34.833
34.765
34.699
34.635
34.575
34.519
34.468
34.42
34.376
34.332
34.29
34.247
34.203
34.159
34.113
34.065
34.014
33.962
33.908
33.853
33.798
33.744
33.691
33.64
33.591
33.542
33.495
33.449
33.404
33.359
33.314
33.27
33.226
33.184
33.143
33.104
33.067
33.033
33.002
32.975
32.95
32.931
32.918
32.913
32.916
32.93
32.957
33.0
33.061
33.144
33.25
33.382
33.539
33.723
33.936
34.179
34.456
34.771
35.128
35.527
35.964
36.436
36.934
37.445
37.958
38.459
38.935
39.373
39.765
40.102
40.379
40.593
40.746
40.84
40.879
40.869
40.816
40.728
40.613
40.477
40.325
40.165
40.002
39.841
39.685
39.537
39.399
39.27
39.152
39.044
38.945
38.853
38.767
38.684
38.603
38.522
38.438
38.352
38.262
38.169
38.074
37.976
37.877
37.777
37.677
37.579
37.483
37.39
37.301
37.216
37.137
37.061
36.991
36.925
36.865
36.808
36.755
36.704
36.655
36.608
36.562
36.518
36.477
36.439
36.406
36.376
36.351
36.328
36.308
36.289
36.271
36.253
36.234
36.213
36.19
36.164
36.135
36.103
36.068
36.031
35.993
35.952
35.91
35.866
35.821
35.777
35.732
35.688
35.643
35.596
35.546
35.493
35.435
35.375
35.315
35.254
35.195
35.137
35.08
35.025
34.969
34.914
34.858
34.801
34.743
34.683
34.621
34.556
34.49
34.423
34.357
34.294
34.232
34.172
34.113
34.055
33.998
33.942
33.887
33.832
33.776
33.721
33.664
33.608
33.554
33.502
33.453
33.405
33.359
33.313
33.267
33.221
33.175
33.128
33.082
33.035
32.988
32.94
32.891
32.844
32.799
32.76
32.726
32.701
32.685
32.681
32.69
32.714
32.756
32.817
32.9
33.006
33.135
33.288
33.466
33.672
33.908
34.177
34.484
34.832
35.222
35.654
36.124
36.62
37.133
37.649
38.153
38.635
39.08
39.48
39.828
40.119
40.353
40.527
40.644
40.707
40.723
40.695
40.631
40.536
40.417
40.282
40.136
39.983
39.828
39.673
39.522
39.375
39.233
39.098
38.971
38.853
38.742
38.639
38.542
38.45
38.363
38.28
38.199
38.12
38.042
37.964
37.885
37.806
37.725
37.643
37.559
37.476
37.391
37.306
37.22
37.135
37.05
36.967
36.887
36.81
36.738
36.67
36.608
36.551
36.499
36.453
36.414
36.38
36.351
36.326
36.304
36.284
36.266
36.246
36.225
36.2
36.172
36.14
36.106
36.068
36.027
35.983
35.936
35.886
35.835
35.784
35.735
35.688
35.642
35.598
35.556
35.515
35.475
35.435
35.394
35.352
35.308
35.262
35.214
35.163
35.111
35.058
35.004
34.951
34.897
34.843
34.787
34.73
34.67
34.607
34.541
34.474
34.405
34.334
34.262
34.19
34.118
34.047
33.977
33.911
33.847
33.786
33.729
33.675
33.622
33.569
33.516
33.463
33.409
33.354
33.298
33.243
33.189
33.135
33.083
33.033
32.983
32.935
32.888
32.841
32.795
32.751
32.708
32.665
32.623
32.581
32.54
32.501
32.466
32.437
32.415
32.403
32.402
32.415
32.443
32.49
32.558
32.647
32.759
32.894
33.052
33.235
33.446
33.686
33.96
34.272
34.625
35.02
35.454
35.922
36.416
36.924
37.436
37.937
38.415
38.858
39.255
39.599
39.884
40.107
40.268
40.37
40.416
40.413
40.367
40.284
40.171
40.037
39.886
39.727
39.564
39.401
39.243
39.092
38.948
38.814
38.689
38.574
38.468
38.371
38.279
38.193
38.109
38.028
37.947
37.866
37.785
37.702
37.618
37.531
37.442
37.351
37.258
37.166
37.075
36.985
36.898
36.815
36.735
36.659
36.586
36.516
36.446
36.376
36.305
36.234
36.164
36.097
36.033
35.973
35.921
35.876
35.839
35.809
35.787
35.771
35.758
35.748
35.742
35.736
35.731
35.723
35.713
35.698
35.679
35.654
35.626
35.594
35.56
35.524
35.488
35.449
35.41
35.371
35.331
35.291
35.248
35.203
35.155
35.103
35.046
34.984
34.918
34.847
34.774
34.698
34.622
34.546
34.472
34.399
34.329
34.262
34.198
34.138
34.08
34.024
33.969
33.913
33.857
33.802
33.746
33.691
33.636
33.581
33.527
33.475
33.424
33.373
33.323
33.274
33.223
33.171
33.118
33.062
33.004
32.945
32.885
32.827
32.771
32.719
32.67
32.625
32.583
32.543
32.505
32.467
32.428
32.389
32.349
32.308
32.267
32.226
32.189
32.156
32.129
32.11
32.102
32.106
32.124
32.157
32.206
32.272
32.356
32.46
32.584
32.73
32.9
33.097
33.325
33.587
33.888
34.232
34.619
35.049
35.517
36.013
36.528
37.049
37.562
38.054
38.512
38.924
39.284
39.583
39.82
39.994
40.105
40.158
40.158
40.112
40.027
39.91
39.771
39.615
39.451
39.283
39.117
38.954
38.798
38.65
38.512
38.382
38.261
38.148
38.042
37.942
37.848
37.757
37.668
37.58
37.492
37.404
37.315
37.225
37.133
37.041
36.949
36.857
36.766
36.677
36.589
36.504
36.421
36.341
36.264
36.192
36.124
36.06
36.001
35.946
35.894
35.847
35.803
35.763
35.728
35.696
35.667
35.64
35.615
35.59
35.566
35.543
35.52
35.498
35.474
35.451
35.426
35.401
35.374
35.347
35.319
35.29
35.261
35.229
35.196
35.161
35.127
35.092
35.059
35.025
34.992
34.958
34.921
34.88
34.836
34.789
34.739
34.685
34.63
34.572
34.514
34.456
34.399
34.342
34.287
34.231
34.177
34.121
34.064
34.005
33.944
33.88
33.816
33.752
33.688
33.626
33.565
33.508
33.453
33.4
33.35
33.303
33.257
33.212
33.168
33.124
33.08
33.034
32.986
32.937
32.886
32.835
32.783
32.732
32.683
32.636
32.591
32.549
32.51
32.471
32.433
32.396
32.358
32.319
32.28
32.242
32.206
32.173
32.142
32.115
32.092
32.074
32.06
32.052
32.051
32.06
32.081
32.115
32.165
32.232
32.319
32.429
32.563
32.723
32.909
33.125
33.372
33.655
33.977
34.342
34.749
35.196
35.678
36.186
36.707
37.23
37.742
38.229
38.679
39.083
39.431
39.719
39.942
40.098
40.19
40.221
40.2
40.133
40.028
39.894
39.737
