Trial 1:0back
33.252
33.209
33.168
33.128
33.091
33.056
33.023
32.994
32.968
32.944
32.922
32.901
32.88
32.857
32.832
32.804
32.773
32.74
32.706
32.672
32.639
32.61
32.585
32.565
32.552
32.546
32.546
32.55
32.559
32.57
32.582
32.593
32.603
32.611
32.617
32.619
32.618
32.615
32.609
32.601
32.592
32.581
32.569
32.557
32.542
32.526
32.508
32.488
32.468
32.448
32.428
32.41
32.394
32.382
32.372
32.366
32.361
32.359
32.357
32.354
32.352
32.347
32.342
32.334
32.326
32.316
32.304
32.292
32.28
32.268
32.254
32.24
32.225
32.209
32.193
32.176
32.158
32.141
32.123
32.104
32.084
32.062
32.04
32.018
31.996
31.974
31.954
31.935
31.919
31.905
31.892
31.881
31.872
31.866
31.861
31.858
31.86
31.866
31.879
31.903
31.94
31.995
32.071
32.177
32.316
32.497
32.723
33.002
33.335
33.725
34.171
34.671
35.22
35.809
36.431
37.074
37.727
38.376
39.011
39.621
40.194
40.723
41.199
41.617
41.973
42.264
42.488
42.648
42.747
42.791
42.785
42.736
42.651
42.537
42.4
42.245
42.078
41.904
41.726
41.548
41.372
41.202
41.04
40.888
40.749
40.626
40.518
40.424
40.342
40.269
40.201
40.137
40.074
40.01
39.943
39.87
39.791
39.703
39.606
39.5
39.385
39.261
39.127
38.985
38.833
38.673
38.508
38.337
38.164
37.991
37.819
37.65
37.487
37.331
37.185
37.049
36.925
36.812
36.711
36.621
36.541
36.471
36.409
36.356
36.312
36.276
36.249
36.231
36.22
36.216
36.217
36.224
36.233
36.242
36.249
36.252
36.247
36.234
36.213
36.182
36.141
36.091
36.033
35.968
35.897
35.821
35.741
35.66
35.577
35.494
35.412
35.331
35.253
35.178
35.106
35.035
34.965
34.896
34.827
34.758
34.687
34.614
34.539
34.462
34.384
34.304
34.225
34.146
34.069
33.994
33.921
33.852
33.785
33.721
33.659
33.599
33.541
33.486
33.434
33.384
33.338
33.297
33.259
33.226
33.196
33.17
33.145
33.122
33.1
33.079
33.057
33.035
33.013
32.991
32.969
32.946
32.924
32.901
32.879
32.858
32.838
32.821
32.805
32.791
32.778
32.767
32.757
32.748
32.741
32.734
32.729
32.722
32.715
32.707
32.699
32.691
32.684
32.678
32.672
32.665
32.658
32.649
32.639
32.627
32.613
32.597
32.579
32.561
32.544
32.527
32.511
32.497
32.484
32.473
32.463
32.454
32.447
32.441
32.437
32.433
32.43
32.428
32.424
32.42
32.414
32.407
32.399
32.388
32.376
32.362
32.347
32.332
32.315
32.297
32.277
32.255
32.233
32.209
32.185
32.163
32.141
32.121
32.103
32.085
32.068
32.051
32.037
32.023
32.013
32.004
31.998
31.994
31.995
32.0
32.012
32.032
32.066
32.117
32.19
32.292
32.428
32.606
32.83
33.105
33.433
33.818
34.256
34.747
35.283
35.859
36.464
37.089
37.722
38.352
38.967
39.554
40.106
40.612
41.066
41.463
41.801
42.077
42.291
42.446
42.543
42.586
42.58
42.53
42.443
42.325
42.183
42.024
41.852
41.675
41.495
41.317
41.145
40.979
40.822
40.675
40.539
40.414
40.3
40.196
40.103
40.019
39.942
39.872
39.806
39.742
39.678
39.611
39.537
39.455
39.362
39.256
39.137
39.006
38.862
38.708
38.545
38.375
38.201
38.026
37.853
37.683
37.519
37.363
37.215
37.077
36.948
36.829
36.72
36.622
36.533
36.455
36.385
36.325
36.273
36.23
36.195
36.167
36.146
36.131
36.121
36.115
36.112
36.11
36.109
36.107
36.104
36.096
36.084
36.066
36.042
36.011
35.975
35.932
35.883
35.829
35.769
35.704
35.636
35.565
35.491
35.415
35.338
35.258
35.178
35.095
35.011
34.925
34.839
34.752
34.665
34.578
34.493
34.409
34.327
34.248
34.172
34.101
34.032
33.965
33.9
33.837
33.777
33.721
33.668
33.618
33.572
33.529
33.486
33.445
33.403
33.363
33.324
33.285
33.245
33.206
33.167
33.129
33.092
33.057
33.025
32.996
32.969
32.944
32.92
32.898
32.878
32.86
32.845
32.831
32.819
32.808
32.797
32.787
32.776
32.764
32.749
32.732
32.712
32.69
32.667
32.645
32.624
32.605
32.589
32.574
32.562
32.552
32.546
32.541
32.539
32.54
32.542
32.545
32.548
32.549
32.549
32.545
32.538
32.527
32.513
32.497
32.48
32.462
32.445
32.428
32.409
32.39
32.37
32.348
32.327
32.305
32.285
32.267
32.25
32.236
32.223
32.213
32.204
32.196
32.19
32.183
32.177
32.17
32.163
32.154
32.145
32.134
32.121
32.105
32.087
32.069
32.05
32.033
32.017
32.003
31.991
31.98
31.97
31.96
31.95
31.939
31.928
31.916
31.903
31.892
31.884
31.883
31.892
31.913
31.951
32.009
32.094
32.209
32.36
32.552
32.791
33.078
33.417
33.808
34.249
34.738
35.27
35.837
36.432
37.043
37.658
38.267
38.86
39.427
39.958
40.447
40.888
41.274
41.603
41.872
42.082
42.234
42.332
42.379
42.38
42.341
42.267
42.163
42.035
41.886
41.723
41.55
41.371
41.19
41.01
40.834
40.664
40.501
40.347
40.202
40.067
39.941
39.824
39.715
39.615
39.521
39.432
39.348
39.266
39.185
39.104
39.02
38.932
38.837
38.734
38.622
38.499
38.366
38.226
38.078
37.927
37.772
37.617
37.463
37.313
37.167
37.027
36.895
36.773
36.661
36.56
36.471
36.395
36.332
36.28
36.24
36.21
36.189
36.176
36.17
36.169
36.171
36.174
36.18
36.185
36.19
36.193
36.193
36.189
36.179
36.163
36.139
36.11
36.075
36.035
35.99
35.939
35.884
35.823
35.76
35.693
35.624
35.553
35.481
35.408
35.334
35.259
35.183
35.105
35.027
34.947
34.868
34.788
34.709
34.631
34.554
34.479
34.405
34.334
34.265
34.199
34.135
34.074
34.014
33.955
33.899
33.845
33.793
33.745
33.699
33.657
33.615
33.574
33.534
33.493
33.454
33.416
33.38
33.345
33.314
33.286
33.261
33.24
33.223
33.208
33.194
33.181
33.168
33.154
33.14
33.125
33.108
33.091
33.073
33.056
33.041
33.027
33.014
33.001
32.99
32.978
32.967
32.955
32.943
32.929
32.915
32.9
32.886
32.872
32.86
32.851
32.844
32.839
32.837
32.837
32.839
32.842
32.847
32.85
32.853
32.853
32.85
32.844
32.833
32.819
32.803
32.784
32.764
32.743
32.722
32.702
32.683
32.669
32.665
32.671
32.685
32.703
32.722
32.738
32.749
32.753
32.749
32.735
32.713
32.681
32.642
32.597
32.547
32.494
32.439
32.383
32.328
32.274
32.225
32.181
32.145
32.118
32.101
32.098
32.111
32.145
32.204
32.292
32.415
32.579
32.788
33.046
33.356
33.718
34.131
34.592
35.096
35.637
36.206
36.793
37.389
37.983
38.563
39.121
39.648
40.134
40.574
40.962
41.294
41.567
41.781
41.937
42.038
42.087
42.089
42.048
41.97
41.862
41.727
41.57
41.396
41.209
41.015
40.819
40.624
40.434
40.251
40.078
39.916
39.766
39.63
39.506
39.395
39.294
39.204
39.121
39.043
38.968
38.891
38.812
38.727
38.635
38.536
38.428
38.31
38.184
38.05
37.909
37.763
37.613
37.461
37.307
37.155
37.004
36.857
36.716
36.581
36.454
36.335
36.227
36.131
36.048
35.979
35.924
35.883
35.855
35.84
35.837
35.843
35.856
35.873
35.893
35.914
35.934
35.953
35.969
35.981
35.988
35.99
35.985
35.972
35.949
35.916
35.873
35.823
35.765
35.701
35.634
35.563
35.49
35.416
35.34
35.265
35.189
35.114
35.038
34.961
34.884
34.807
34.73
34.653
34.577
34.501
34.425
34.35
34.276
34.203
34.131
34.062
33.994
33.928
33.865
33.805
33.747
33.691
33.638
33.588
33.539
33.491
33.445
33.397
33.35
33.301
33.252
33.205
33.159
33.116
33.078
33.044
33.017
32.995
32.979
32.967
32.959
32.954
32.95
32.946
32.941
32.934
32.924
32.911
32.895
32.879
32.864
32.854
32.849
32.849
32.853
32.86
32.869
32.876
32.882
32.885
32.883
32.877
32.866
32.85
32.83
32.807
32.782
32.757
32.733
32.712
32.693
32.679
32.667
32.66
32.656
32.652
32.65
32.646
32.64
32.632
32.623
32.611
32.597
32.582
32.565
32.547
32.528
32.51
32.493
32.475
32.459
32.443
32.427
32.412
32.398
32.383
32.369
32.354
32.338
32.319
32.297
32.274
32.25
32.226
32.204
32.183
32.165
32.151
32.141
32.136
32.135
32.139
32.146
32.158
32.175
32.2
32.235
32.286
32.356
32.453
32.583
32.751
32.963
33.223
33.536
33.902
34.322
34.793
35.311
35.87
36.46
37.072
37.694
38.316
38.927
39.516
40.074
40.592
41.062
41.476
41.83
42.122
42.351
42.518
42.625
42.676
42.677
42.633
42.552
42.438
42.297
42.137
41.961
41.777
41.589
41.402
41.219
41.046
40.883
40.732
40.593
40.468
40.355
40.255
40.167
40.089
40.02
39.958
39.9
39.845
39.79
39.733
39.672
39.605
39.529
39.442
39.342
39.229
39.101
38.96
38.807
38.645
38.475
38.301
38.125
37.951
37.78
37.616
37.461
37.316
37.184
37.065
36.96
36.871
36.796
36.734
36.686
36.649
36.621
36.601
36.588
36.579
36.573
36.568
36.564
36.559
36.551
36.54
36.526
36.508
36.486
36.46
36.43
36.395
36.357
36.314
36.267
36.216
36.162
36.104
36.043
35.98
35.913
35.844
35.773
35.7
35.625
35.549
35.471
35.392
35.31
35.226
35.136
35.043
34.946
34.848
34.752
34.66
34.573
34.493
34.42
34.353
34.292
34.235
34.183
34.132
34.084
34.035
33.987
33.94
33.893
33.848
33.804
33.762
33.72
33.681
33.642
33.606
33.571
33.538
33.506
33.476
33.448
33.421
33.396
33.372
33.35
33.328
33.308
33.29
33.275
33.263
33.254
33.248
33.245
33.244
33.244
33.245
33.244
33.241
33.234
33.223
33.208
33.188
33.167
33.146
33.126
33.107
33.09
33.073
33.056
33.04
33.025
33.01
32.997
32.986
32.976
32.968
32.961
32.955
32.95
32.944
32.936
32.926
32.912
32.895
32.876
32.856
32.835
32.814
32.793
32.774
32.755
32.738
32.723
32.71
32.698
32.687
32.676
32.665
32.653
32.641
32.628
32.613
32.598
32.582
32.564
32.545
32.523
32.5
32.475
32.45
32.425
32.401
32.378
32.356
32.336
32.317
32.299
32.283
32.268
32.255
32.246
32.241
32.244
32.258
32.287
32.336
32.411
32.516
32.656
32.837
33.063
33.338
33.665
34.044
34.475
34.956
35.481
36.043
36.633
37.241
37.857
38.469
39.065
39.636
40.171
40.661
41.1
41.483
41.804
42.063
42.26
42.395
42.472
42.497
42.474
42.411
42.312
42.186
42.039
41.876
41.705
41.53
41.356
41.187
41.026
40.875
40.736
40.609
40.494
40.39
40.296
40.213
40.137
40.067
40.001
39.937
39.875
39.813
39.749
39.683
39.612
39.538
39.457
39.369
39.272
39.165
39.049
38.922
38.786
38.643
38.494
38.339
38.181
38.019
37.856
37.692
37.53
37.373
37.221
37.078
36.944
36.823
36.714
36.62
36.539
36.471
36.415
36.371
36.338
36.315
36.3
36.293
36.292
36.296
36.303
36.311
36.32
36.327
36.332
36.331
36.324
36.308
36.282
36.247
36.2
36.144
36.078
36.005
35.927
35.844
35.758
35.671
35.586
35.503
35.423
35.346
35.271
35.197
35.125
35.052
34.98
34.906
34.833
34.76
34.688
34.617
34.547
34.477
34.408
34.341
34.276
34.213
34.152
34.091
34.031
33.972
33.914
33.858
33.803
33.75
33.7
33.653
33.609
33.568
33.529
33.494
33.461
33.431
33.404
33.38
33.358
33.338
33.32
33.303
33.288
33.275
33.263
33.252
33.239
33.226
33.212
33.197
33.181
33.165
33.148
33.13
33.112
33.094
33.077
33.061
33.047
33.035
33.025
33.018
33.012
33.007
33.003
32.999
32.996
32.992
32.988
32.983
32.977
32.971
32.966
32.962
32.958
32.952
32.945
32.936
32.924
32.91
32.894
32.877
32.86
32.842
32.825
32.81
32.796
32.785
32.775
32.766
32.758
32.752
32.746
32.74
32.734
32.727
32.719
32.709
32.697
32.682
32.666
32.646
32.625
32.6
32.572
32.542
32.511
32.481
32.453
32.428
32.405
32.386
32.37
32.357
32.345
32.335
32.324
32.313
32.302
32.291
32.282
32.277
32.278
32.288
32.307
32.34
32.389
32.457
32.55
32.672
32.829
33.026
33.268
33.56
33.906
34.305
34.756
35.252
35.787
36.351
36.935
37.528
38.118
38.694
39.245
39.761
40.234
40.658
41.028
41.341
41.597
41.796
41.938
42.029
42.071
42.068
42.024
41.947
41.842
41.714
41.571
41.417
41.258
41.096
40.935
40.778
40.626
40.482
40.346
40.221
40.105
39.999
39.903
39.815
39.735
39.661
39.591
39.522
39.454
39.385
39.313
39.236
39.152
39.059
38.957
38.846
38.724
38.594
38.455
38.309
38.159
38.005
37.849
37.69
37.532
37.376
37.227
37.086
36.955
36.837
36.731
36.64
36.564
36.503
36.457
36.425
36.405
36.396
36.395
36.401
36.412
36.425
36.44
36.455
36.467
36.476
36.48
36.479
36.47
36.454
36.431
36.4
36.362
36.317
36.266
36.21
36.15
36.085
36.016
35.945
35.872
35.798
35.723
35.645
35.565
35.482
35.398
35.312
35.225
35.139
35.055
34.973
34.894
34.818
34.744
34.672
34.602
34.532
34.463
34.393
34.322
34.249
34.176
34.104
34.035
33.97
33.911
33.857
33.809
33.766
33.728
33.693
33.663
33.635
33.609
33.584
33.56
33.536
33.51
33.483
33.455
33.425
33.394
33.361
33.328
33.296
33.266
33.239
33.215
33.196
33.181
33.17
33.163
33.159
33.157
33.156
33.156
33.155
33.153
33.151
33.149
33.147
33.146
33.146
33.146
33.147
33.148
33.148
33.146
33.141
33.134
33.123
33.109
33.091
33.07
33.046
33.02
32.993
32.964
32.935
32.903
32.869
32.833
32.797
32.761
32.727
32.696
32.666
32.64
32.615
32.592
32.57
32.55
32.531
32.512
32.494
32.477
32.461
32.446
32.432
32.418
32.407
32.397
32.388
32.383
32.383
32.392
32.413
32.451
32.511
32.6
32.722
32.883
33.089
33.344
33.65
34.01
34.42
34.88
35.382
35.92
36.487
37.07
37.661
38.247
38.817
39.361
39.869
40.333
40.745
41.1
41.396
41.633
41.813
41.937
42.01
42.035
42.017
41.964
41.88
41.772
41.647
41.512
41.372
41.232
41.096
40.967
40.846
40.735
40.636
40.549
40.473
40.406
40.347
40.294
40.247
40.203
40.161
40.12
40.078
40.033
39.984
39.93
39.869
39.799
39.719
39.627
39.523
39.405
39.274
39.13
38.974
38.807
38.632
38.45
38.264
38.076
37.889
37.706
37.529
37.361
37.204
37.059
36.927
36.809
36.705
36.615
36.538
36.475
36.425
36.388
36.36
36.341
36.329
36.322
36.319
36.318
36.319
36.32
36.321
36.321
36.318
36.312
36.3
36.281
36.255
36.222
36.18
36.131
36.074
36.01
35.941
35.868
35.793
35.716
35.638
35.56
35.482
35.405
35.328
35.253
35.178
35.105
35.032
34.959
34.888
34.817
34.747
34.678
34.611
34.544
34.477
34.412
34.348
34.285
34.224
34.164
34.106
34.05
33.996
33.944
33.892
33.842
33.791
33.74
33.689
33.637
33.585
33.534
33.483
33.434
33.387
33.342
33.3
33.263
33.235
33.215
33.204
33.199
33.197
33.197
33.194
33.188
33.177
33.16
33.137
33.111
33.081
33.048
33.015
32.983
32.951
32.923
32.899
32.878
32.863
32.851
32.842
32.833
32.825
32.816
32.806
32.793
32.778
32.759
32.738
32.717
32.696
32.678
32.663
32.651
32.642
32.634
32.628
32.622
32.616
32.609
32.601
32.591
32.58
32.568
32.553
32.537
32.52
32.501
32.48
32.456
32.43
32.402
32.371
32.34
32.309
32.277
32.245
32.213
32.181
32.152
32.124
32.099
32.078
32.059
32.045
32.035
32.029
32.028
32.032
32.041
32.056
32.079
32.11
32.154
32.215
32.299
32.412
32.56
32.749
32.987
33.275
33.617
34.011
34.456
34.948
35.482
36.049
36.641
37.246
37.853
38.45
39.025
39.568
40.071
40.525
40.925
41.268
41.551
41.775
41.94
42.05
42.109
42.122
42.094
42.033
41.943
41.833
41.707
41.57
41.426
41.28
41.135
40.993
40.857
40.729
40.612
40.506
40.413
40.333
40.264
40.205
40.155
40.112
40.074
40.037
40.0
39.961
39.918
39.867
39.806
39.733
39.645
39.543
39.425
39.293
39.149
38.993
38.827
38.654
38.476
38.293
38.109
37.926
37.746
37.57
37.401
37.241
37.09
36.95
36.822
36.708
36.609
36.524
36.455
36.4
36.359
36.331
36.314
36.307
36.308
36.315
36.324
36.335
36.344
36.349
36.35
36.344
36.329
36.307
36.276
36.236
36.187
36.131
36.068
35.996
35.915
35.825
35.729
35.631
35.532
35.435
35.342
35.255
35.173
35.099
35.03
34.966
34.907
34.851
34.797
34.742
34.686
34.626
34.563
34.496
34.425
34.351
34.274
34.195
34.116
34.038
33.96
33.885
33.812
33.742
33.675
33.612
33.554
33.501
33.452
33.408
33.368
33.33
33.294
33.259
33.225
33.192
33.158
33.126
33.095
33.066
33.039
33.014
32.991
32.969
32.947
32.924
32.901
32.877
32.852
32.827
32.802
32.777
32.754
32.734
32.716
32.702
32.691
32.682
32.672
32.662
32.651
32.639
32.626
32.613
32.6
32.587
32.573
32.559
32.545
32.531
32.517
32.504
32.493
32.483
32.475
32.47
32.466
32.465
32.465
32.466
32.466
32.465
32.463
32.458
32.452
32.444
32.434
32.422
32.41
32.398
32.384
32.368
32.35
32.33
32.309
32.285
32.26
32.234
32.209
32.185
32.163
32.143
32.125
32.109
32.096
32.084
32.072
32.061
32.05
32.039
32.028
32.018
32.008
31.997
31.985
31.972
31.957
31.942
31.927
31.916
31.912
31.916
31.935
31.972
32.033
32.124
32.25
32.415
32.625
32.882
33.19
33.549
33.959
34.419
34.924
35.467
36.04
36.636
37.242
37.85
38.446
39.022
39.567
40.071
40.527
40.928
41.27
41.551
41.771
41.929
42.03
42.077
42.077
42.036
41.96
41.857
41.733
41.596
41.45
41.302
41.155
41.012
40.878
40.753
40.64
40.539
40.45
40.372
40.304
40.244
40.189
40.138
40.089
40.039
39.988
39.934
39.875
39.811
39.739
39.659
39.569
39.469
39.357
39.231
39.093
38.944
38.783
38.612
38.434
38.25
38.062
37.875
37.692
37.517
37.351
37.197
37.06
36.938
36.834
36.747
36.676
36.621
36.579
36.547
36.525
36.509
36.496
36.485
36.474
36.462
36.448
36.434
36.419
36.403
36.386
36.367
36.346
36.324
36.3
36.273
36.243
36.209
36.171
36.13
36.085
36.036
35.983
35.926
35.866
35.803
35.738
35.67
35.601
35.531
35.461
35.39
35.319
35.248
35.176
35.103
35.029
34.954
34.879
34.803
34.729
34.655
34.582
34.509
34.438
34.368
34.299
34.231
34.166
34.105
34.048
33.995
33.946
33.901
33.859
33.82
33.784
33.749
33.717
33.684
33.651
33.616
33.581
33.545
33.51
33.476
33.445
33.416
33.389
33.363
33.339
33.318
33.298
33.279
33.262
33.246
33.231
33.218
33.209
33.203
33.2
33.198
33.197
33.196
33.193
33.187
33.179
33.168
33.155
33.14
33.125
33.111
33.097
33.085
33.073
33.063
33.053
33.043
33.032
33.019
33.006
32.989
32.97
32.947
32.921
32.893
32.861
32.825
32.786
32.745
32.702
32.659
32.618
32.579
32.542
32.509
32.479
32.452
32.427
32.405
32.384
32.363
32.342
32.32
32.298
32.276
32.257
32.24
32.23
32.227
32.235
32.257
32.297
32.359
32.446
32.563
32.715
32.906
33.14
33.42
33.748
34.126
34.55
35.018
35.525
36.062
36.622
37.192
37.763
38.326
38.868
39.382
39.858
40.288
40.667
40.991
41.257
41.467
41.621
41.722
41.776
41.786
41.76
41.701
41.616
41.51
41.389
41.257
41.118
40.976
40.834
40.695
40.561
40.433
40.313
40.201
40.097
40.002
39.915
39.835
39.762
39.695
39.63
39.567
39.503
39.437
39.367
39.29
39.207
39.113
39.008
38.89
38.76
38.616
38.459
38.291
38.115
37.932
37.745
37.557
37.369
37.186
37.011
36.845
36.692
36.553
36.43
36.323
36.232
36.157
36.096
36.049
36.015
35.992
35.978
35.972
35.972
35.976
35.983
35.992
36.0
36.007
36.013
36.015
36.014
36.007
35.994
35.975
35.949
35.917
35.878
35.834
35.784
35.73
35.67
35.607
35.54
35.469
35.396
35.32
35.242
35.162
35.081
34.999
34.916
34.833
34.75
34.668
34.587
34.506
34.426
34.347
34.27
34.193
34.118
34.044
33.973
33.904
33.838
33.775
33.716
33.659
33.605
33.553
33.504
33.457
33.412
33.369
33.327
33.287
33.249
33.212
33.175
33.138
33.101
33.064
33.026
32.99
32.953
32.916
32.881
32.848
32.818
32.792
32.771
32.756
32.745
32.739
32.737
32.736
32.737
32.737
32.733
32.727
32.718
32.707
32.693
32.679
32.665
32.652
32.64
32.63
32.622
32.615
32.611
32.608
32.607
32.606
32.605
32.604
32.601
32.596
32.586
32.571
32.55
32.527
32.503
32.479
32.459
32.442
32.429
32.419
32.41
32.402
32.394
32.384
