Trial 1:0back
36.165
36.208
36.242
36.267
36.283
36.292
36.295
36.294
36.288
36.278
36.267
36.253
36.237
36.218
36.198
36.174
36.147
36.117
36.083
36.046
36.007
35.966
35.922
35.876
35.827
35.775
35.72
35.663
35.604
35.543
35.479
35.415
35.349
35.283
35.218
35.154
35.092
35.034
34.98
34.932
34.888
34.851
34.819
34.793
34.773
34.759
34.751
34.748
34.752
34.76
34.771
34.786
34.804
34.825
34.851
34.883
34.919
34.961
35.009
35.063
35.121
35.182
35.243
35.302
35.358
35.408
35.452
35.486
35.513
35.531
35.541
35.543
35.538
35.525
35.505
35.477
35.444
35.407
35.367
35.326
35.284
35.242
35.201
35.162
35.127
35.094
35.065
35.038
35.013
34.99
34.967
34.946
34.927
34.91
34.895
34.881
34.867
34.851
34.834
34.816
34.797
34.777
34.757
34.735
34.713
34.691
34.671
34.652
34.637
34.625
34.615
34.608
34.603
34.598
34.595
34.593
34.592
34.593
34.594
34.596
34.596
34.594
34.59
34.585
34.578
34.57
34.561
34.553
34.544
34.536
34.528
34.521
34.515
34.51
34.507
34.505
34.502
34.5
34.498
34.495
34.492
34.489
34.485
34.481
34.477
34.474
34.479
34.494
34.517
34.546
34.578
34.609
34.636
34.656
34.668
34.672
34.667
34.654
34.632
34.603
34.568
34.529
34.487
34.444
34.404
34.366
34.332
34.302
34.278
34.258
34.243
34.233
34.226
34.221
34.218
34.215
34.214
34.212
34.211
34.21
34.21
34.21
34.21
34.21
34.211
34.211
34.211
34.211
34.21
34.209
34.208
34.208
34.208
34.209
34.208
34.206
34.203
34.198
34.192
34.184
34.175
34.165
34.153
34.14
34.127
34.114
34.102
34.091
34.081
34.071
34.063
34.056
34.052
34.05
34.05
34.051
34.052
34.054
34.056
34.059
34.062
34.067
34.073
34.082
34.091
34.102
34.114
34.126
34.137
34.147
34.155
34.16
34.161
34.159
34.154
34.147
34.138
34.126
34.112
34.094
34.072
34.05
34.027
34.006
33.989
33.979
33.98
33.995
34.028
34.085
34.169
34.283
34.43
34.608
34.819
35.057
35.32
35.602
35.897
36.197
36.496
36.788
37.065
37.322
37.554
37.758
37.93
38.071
38.18
38.259
38.31
38.336
38.34
38.323
38.289
38.241
38.181
38.112
38.036
37.954
37.87
37.785
37.7
37.618
37.54
37.466
37.397
37.333
37.274
37.219
37.169
37.123
37.082
37.044
37.009
36.976
36.945
36.915
36.887
36.861
36.838
36.816
36.796
36.776
36.756
36.737
36.716
36.696
36.675
36.654
36.632
36.61
36.588
36.566
36.544
36.522
36.499
36.476
36.451
36.425
36.398
36.369
36.341
36.313
36.288
36.264
36.242
36.222
36.204
36.189
36.177
36.168
36.164
36.163
36.167
36.18
36.203
36.236
36.275
36.318
36.359
36.394
36.421
36.438
36.444
36.438
36.421
36.394
36.359
36.317
36.271
36.222
36.172
36.124
36.077
36.034
35.993
35.956
35.922
35.89
35.86
35.833
35.809
35.787
35.766
35.747
35.727
35.708
35.69
35.672
35.654
35.636
35.617
35.598
35.576
35.553
35.529
35.505
35.481
35.459
35.437
35.417
35.397
35.378
35.361
35.344
35.33
35.317
35.303
35.289
35.275
35.26
35.246
35.233
35.222
35.212
35.202
35.193
35.183
35.174
35.165
35.158
35.151
35.144
35.137
35.129
35.119
35.108
35.095
35.081
35.065
35.049
35.033
35.018
35.004
34.992
34.982
34.973
34.966
34.959
34.951
34.943
34.934
34.924
34.914
34.903
34.893
34.884
34.876
34.869
34.863
34.857
34.85
34.842
34.833
34.823
34.813
34.802
34.792
34.781
34.771
34.761
34.752
34.744
34.735
34.727
34.719
34.711
34.705
34.699
34.693
34.687
34.68
34.672
34.664
34.655
34.646
34.635
34.624
34.614
34.603
34.594
34.586
34.58
34.575
34.571
34.567
34.564
34.562
34.561
34.561
34.562
34.563
34.563
34.562
34.561
34.559
34.557
34.553
34.548
34.541
34.532
34.521
34.51
34.498
34.486
34.473
34.459
34.443
34.426
34.408
34.39
34.372
34.353
34.335
34.318
34.304
34.292
34.283
34.277
34.277
34.282
34.295
34.319
34.355
34.409
34.482
34.578
34.697
34.839
35.004
35.188
35.389
35.603
35.826
36.053
36.279
36.499
36.709
36.904
37.081
37.238
37.373
37.484
37.572
37.636
37.677
37.697
37.698
37.683
37.654
37.615
37.57
37.519
37.467
37.412
37.356
37.299
37.242
37.183
37.124
37.064
37.004
36.942
36.881
36.82
36.761
36.704
36.652
36.604
36.562
36.526
36.498
36.476
36.461
36.452
36.447
36.444
36.442
36.438
36.432
36.423
36.412
36.397
36.378
36.357
36.332
36.305
36.275
36.244
36.211
36.178
36.144
36.112
36.081
36.052
36.026
36.004
35.986
35.971
35.958
35.949
35.944
35.944
35.947
35.955
35.965
35.979
35.994
36.009
36.025
36.041
36.055
36.069
36.082
36.093
36.101
36.106
36.107
36.106
36.103
36.098
36.09
36.081
36.068
36.052
36.034
36.012
35.988
35.963
35.937
35.91
35.883
35.855
35.828
35.801
35.775
35.75
35.727
35.704
35.68
35.655
35.628
35.599
35.57
35.541
35.513
35.486
35.46
35.434
35.408
35.384
35.36
35.336
35.313
35.29
35.269
35.25
35.234
35.222
35.213
35.208
35.204
35.2
35.195
35.188
35.181
35.172
35.162
35.151
35.14
35.128
35.116
35.103
35.09
35.078
35.066
35.055
35.045
35.037
35.033
35.035
35.044
35.063
35.092
35.133
35.185
35.249
35.324
35.412
35.511
35.619
35.735
35.856
35.98
36.106
36.231
36.354
36.472
36.583
36.684
36.776
36.855
36.923
36.978
37.022
37.055
37.078
37.09
37.092
37.083
37.064
37.037
37.003
36.964
36.921
36.876
36.831
36.787
36.744
36.704
36.667
36.632
36.599
36.568
36.538
36.509
36.481
36.454
36.428
36.402
36.377
36.352
36.327
36.303
36.278
36.253
36.227
36.2
36.172
36.141
36.109
36.076
36.041
36.006
35.971
35.938
35.907
35.878
35.853
35.83
35.809
35.792
35.778
35.765
35.754
35.745
35.738
35.732
35.729
35.729
35.733
35.739
35.749
35.761
35.775
35.791
35.807
35.823
35.839
35.853
35.866
35.877
35.885
35.89
35.892
35.891
35.889
35.885
35.88
35.873
35.864
35.855
35.843
35.829
35.813
35.795
35.774
35.751
35.726
35.7
35.681
35.669
35.664
35.666
35.67
35.673
35.672
35.666
35.654
35.635
35.61
35.58
35.544
35.504
35.459
35.412
35.363
35.314
35.267
35.222
35.181
35.145
35.113
35.086
35.065
35.049
35.037
35.028
35.023
35.019
35.016
35.015
35.015
35.015
35.015
35.015
35.014
35.011
35.008
35.004
35.0
34.996
34.991
34.986
34.981
34.975
34.969
34.962
34.952
34.94
34.923
34.903
34.881
34.859
34.837
34.817
34.798
34.783
34.77
34.759
34.75
34.743
34.738
34.734
34.732
34.73
34.728
34.726
34.724
34.719
34.712
34.702
34.691
34.678
34.665
34.65
34.636
34.622
34.608
34.596
34.585
34.575
34.566
34.557
34.547
34.538
34.528
34.518
34.509
34.502
34.496
34.492
34.489
34.488
34.487
34.487
34.487
34.487
34.486
34.483
34.479
34.474
34.466
34.457
34.446
34.434
34.421
34.409
34.396
34.382
34.369
34.357
34.345
34.335
34.326
34.319
34.313
34.309
34.304
34.299
34.293
34.287
34.281
34.275
34.267
34.26
34.251
34.241
34.232
34.224
34.218
34.214
34.211
34.21
34.21
34.21
34.209
34.208
34.206
34.203
34.199
34.193
34.187
34.18
34.173
34.166
34.159
34.152
34.145
34.138
34.132
34.125
34.119
34.112
34.104
34.097
34.088
34.079
34.069
34.06
34.05
34.04
34.031
34.023
34.017
34.013
34.012
34.013
34.015
34.019
34.024
34.03
34.038
34.047
34.057
34.067
34.076
34.083
34.087
34.089
34.089
34.087
34.082
34.075
34.068
34.06
34.051
34.044
34.036
34.028
34.02
34.011
34.004
33.999
33.997
34.001
34.012
34.034
34.07
34.125
34.204
34.311
34.449
34.619
34.822
35.055
35.315
35.596
35.891
36.194
36.498
36.794
37.078
37.342
37.583
37.798
37.984
38.14
38.266
38.364
38.434
38.478
38.498
38.495
38.474
38.435
38.383
38.32
38.247
38.168
38.083
37.996
37.91
37.825
37.745
37.671
37.603
37.543
37.491
37.445
37.406
37.372
37.341
37.313
37.287
37.261
37.235
37.21
37.185
37.161
37.139
37.12
37.103
37.089
37.078
37.069
37.061
37.052
37.04
37.025
37.007
36.986
36.961
36.934
36.904
36.871
36.836
36.798
36.759
36.719
36.68
36.642
36.605
36.569
36.535
36.503
36.474
36.449
36.43
36.415
36.404
36.398
36.394
36.394
36.396
36.401
36.408
36.415
36.423
36.429
36.434
36.435
36.432
36.425
36.414
36.398
36.379
36.357
36.334
36.31
36.288
36.267
36.247
36.229
36.21
36.191
36.172
36.154
36.138
36.122
36.106
36.09
36.072
36.054
36.035
36.016
35.995
35.974
35.95
35.925
35.897
35.869
35.84
35.81
35.78
35.75
35.719
35.689
35.66
35.634
35.61
35.59
35.575
35.562
35.552
35.544
35.536
35.529
35.521
35.513
35.504
35.492
35.478
35.461
35.444
35.427
35.41
35.394
35.379
35.364
35.35
35.335
35.32
35.305
35.29
35.275
35.26
35.245
35.231
35.216
35.203
35.19
35.177
35.166
35.155
35.144
35.135
35.124
35.114
35.102
35.089
35.075
35.06
35.043
35.026
35.008
34.991
34.974
34.96
34.947
34.938
34.93
34.924
34.919
34.914
34.909
34.902
34.893
34.884
34.874
34.864
34.854
34.844
34.835
34.827
34.818
34.808
34.796
34.782
34.767
34.752
34.737
34.724
34.711
34.7
34.69
34.68
34.672
34.664
34.655
34.647
34.638
34.628
34.618
34.608
34.598
34.588
34.58
34.571
34.564
34.559
34.554
34.55
34.546
34.543
34.54
34.537
34.534
34.531
34.528
34.524
34.519
34.513
34.507
34.5
34.493
34.487
34.481
34.476
34.47
34.464
34.457
34.45
34.443
34.435
34.425
34.413
34.399
34.384
34.368
34.353
34.338
34.324
34.31
34.298
34.288
34.281
34.276
34.277
34.282
34.294
34.314
34.345
34.39
34.454
34.538
34.645
34.775
34.927
35.101
35.293
35.502
35.722
35.95
36.18
36.405
36.622
36.826
37.013
37.182
37.332
37.46
37.566
37.651
37.713
37.756
37.781
37.789
37.785
37.769
37.743
37.71
37.67
37.625
37.575
37.521
37.463
37.402
37.339
37.275
37.211
37.149
37.09
37.032
36.978
36.927
36.879
36.835
36.795
36.76
36.731
36.707
36.687
36.672
36.661
36.654
36.649
36.645
36.643
36.64
36.635
36.627
36.614
36.596
36.573
36.544
36.509
36.47
36.428
36.384
36.341
36.299
36.259
36.222
36.189
36.16
36.134
36.113
36.095
36.082
36.07
36.062
36.058
36.058
36.064
36.076
36.095
36.118
36.145
36.173
36.202
36.228
36.251
36.269
36.283
36.291
36.293
36.289
36.28
36.267
36.252
36.234
36.215
36.194
36.172
36.151
36.129
36.107
36.087
36.066
36.045
36.023
36.0
35.974
35.947
35.919
35.889
35.857
35.825
35.792
35.759
35.725
35.691
35.657
35.623
35.59
35.557
35.525
35.493
35.462
35.432
35.404
35.377
35.351
35.328
35.305
35.283
35.263
35.246
35.231
35.22
35.212
35.207
35.205
35.205
35.208
35.215
35.226
35.242
35.263
35.29
35.324
35.366
35.416
35.476
35.545
35.622
35.706
35.795
35.888
35.984
36.08
36.176
36.27
36.36
36.445
36.522
36.591
36.652
36.704
36.747
36.78
36.802
36.813
36.814
36.806
36.79
36.769
36.743
36.714
36.685
36.657
36.632
36.612
36.594
36.579
36.564
36.548
36.528
36.503
36.474
36.44
36.401
36.357
36.309
36.256
36.199
36.139
36.076
36.012
35.948
35.885
35.822
35.759
35.698
35.638
35.58
35.524
35.471
35.423
35.379
35.34
35.308
35.283
35.265
35.254
35.251
35.256
35.266
35.282
35.304
35.329
35.358
35.389
35.422
35.455
35.487
35.519
35.548
35.576
35.602
35.626
35.647
35.667
35.686
35.701
35.714
35.722
35.727
35.727
35.722
35.712
35.696
35.675
35.649
35.621
35.591
35.56
35.531
35.503
35.478
35.453
35.43
35.408
35.386
35.364
35.342
35.319
35.295
35.27
35.242
35.212
35.181
35.149
35.117
35.085
35.054
35.025
34.998
34.974
34.952
34.933
34.916
34.901
34.886
34.87
34.854
34.837
34.821
34.805
34.789
34.772
34.754
34.737
34.72
34.705
34.691
34.68
34.673
34.668
34.665
34.665
34.667
34.671
34.675
34.679
34.682
34.682
34.681
34.678
34.673
34.667
34.659
34.65
34.638
34.625
34.611
34.598
34.584
34.57
34.556
34.542
34.528
34.515
34.503
34.493
34.482
34.471
34.458
34.445
34.431
34.419
34.407
34.398
34.392
34.387
34.382
34.379
34.374
34.369
34.363
34.355
34.347
34.336
34.325
34.313
34.302
34.292
34.283
34.275
34.268
34.263
34.26
34.258
34.257
34.258
34.259
34.261
34.263
34.264
34.264
34.261
34.256
34.248
34.239
34.227
34.215
34.202
34.188
34.174
34.16
34.146
34.133
34.122
34.113
34.107
34.103
34.101
34.1
34.099
34.099
34.099
34.098
34.096
34.093
34.088
34.081
34.073
34.064
34.054
34.042
34.027
34.011
33.994
33.976
33.958
33.94
33.924
33.911
33.901
33.894
33.891
33.891
33.893
33.897
33.903
33.908
33.913
33.918
33.923
33.928
33.932
33.937
33.94
33.943
33.944
33.945
33.945
33.944
33.943
33.941
33.94
33.938
33.935
33.931
33.927
33.923
33.919
33.915
33.91
33.904
33.899
33.894
33.89
33.889
33.888
33.887
33.885
33.882
33.877
33.871
33.865
33.857
33.85
33.843
33.839
33.838
33.845
33.864
33.899
33.957
34.041
34.158
34.31
34.498
34.724
34.983
35.272
35.585
35.913
36.248
36.582
36.908
37.217
37.506
37.768
38.001
38.201
38.368
38.501
38.602
38.672
38.714
38.731
38.724
38.698
38.653
38.593
38.522
38.442
38.357
38.271
38.184
38.1
38.018
37.94
37.866
37.797
37.734
37.675
37.621
37.571
37.526
37.484
37.447
37.413
37.382
37.354
37.328
37.303
37.279
37.256
37.233
37.211
37.188
37.164
37.14
37.113
37.086
37.058
37.031
37.003
36.977
36.951
36.926
36.902
36.879
36.856
36.834
36.811
36.787
36.761
36.734
36.705
36.675
36.645
36.616
36.589
36.563
36.54
36.518
36.497
36.476
36.455
36.436
36.415
36.394
36.371
36.348
36.326
36.308
36.296
36.289
36.288
36.292
36.299
36.309
36.32
36.33
36.338
36.343
36.344
36.341
36.333
36.322
36.308
36.29
36.269
36.245
36.218
36.188
36.156
36.122
36.087
36.05
36.014
35.977
35.941
35.906
35.872
35.841
35.813
35.787
35.763
35.739
35.716
35.692
35.668
35.645
35.62
35.595
35.569
35.541
35.513
35.483
35.453
35.425
35.397
35.372
35.349
35.329
35.311
35.296
35.285
35.277
35.271
35.266
35.26
35.255
35.248
35.242
35.235
35.229
35.223
35.216
35.209
35.2
35.191
35.182
35.172
35.161
35.148
35.135
35.12
35.104
35.088
35.072
35.055
35.038
35.019
34.999
34.978
34.959
34.94
34.923
34.908
34.895
34.883
34.873
34.865
34.857
34.85
34.842
34.831
34.818
34.803
34.785
34.766
34.747
34.729
34.713
34.698
34.685
34.674
34.665
34.657
34.65
34.645
34.64
34.637
34.635
34.633
34.631
34.627
34.622
34.615
34.605
34.593
34.58
34.566
34.551
34.535
34.518
34.5
34.482
34.464
34.446
34.429
34.413
34.397
34.383
34.369
34.358
34.349
34.341
34.335
34.331
34.327
34.324
34.321
34.319
34.317
34.317
34.318
34.318
34.317
34.313
34.305
34.294
34.281
34.267
34.254
34.24
34.229
34.219
34.212
34.207
34.204
34.201
34.199
34.196
34.193
34.188
34.182
34.175
34.165
34.153
34.14
34.126
34.112
34.099
34.086
34.075
34.063
34.052
34.041
34.032
34.025
34.022
34.023
34.03
34.043
34.064
34.095
34.139
34.2
34.281
34.385
34.514
34.67
34.851
35.057
35.287
35.536
35.8
36.072
36.346
36.616
36.876
37.119
37.341
37.539
37.71
37.851
37.963
38.045
38.098
38.125
38.129
38.112
38.079
38.032
37.975
37.911
37.842
37.77
37.697
37.626
37.557
37.491
37.429
37.369
37.31
37.254
37.198
37.145
37.093
37.044
36.997
36.952
36.908
36.866
36.825
36.788
36.754
36.723
36.696
36.67
36.647
36.625
36.604
36.585
36.567
36.55
36.533
36.514
36.494
36.472
36.448
36.423
36.398
36.372
36.346
36.319
36.292
36.266
36.24
36.214
36.191
36.169
36.15
36.132
36.118
36.106
36.097
36.091
36.087
36.085
36.086
36.089
36.093
36.098
36.106
36.115
36.127
36.139
36.152
36.165
36.178
36.189
36.198
36.206
36.21
36.211
36.207
36.199
36.188
36.174
36.158
36.138
36.117
36.093
36.066
36.038
36.008
35.977
35.944
35.91
35.875
35.84
35.804
35.766
35.729
35.69
35.653
35.616
35.581
35.547
35.515
35.486
35.458
35.432
35.407
35.385
35.364
35.345
35.327
35.31
35.293
35.277
35.263
35.251
35.24
35.229
35.219
35.207
35.194
35.181
35.167
35.152
35.137
35.122
35.106
35.091
35.076
35.061
35.048
35.035
35.024
35.02
35.024
35.036
35.052
35.072
35.092
35.11
35.121
35.125
35.121
35.108
35.086
35.056
35.02
34.978
34.933
34.887
34.843
34.801
34.764
34.73
34.7
34.676
34.656
34.643
34.634
34.63
34.63
34.631
34.634
34.637
34.64
34.642
34.641
34.639
34.634
34.628
34.621
34.615
34.61
34.605
34.601
34.596
34.59
34.582
34.573
34.562
34.551
34.538
34.524
34.508
34.49
34.471
34.452
34.434
34.417
34.401
34.386
34.373
34.363
34.355
34.349
34.345
34.343
34.344
34.346
34.348
34.35
34.35
34.349
34.346
34.342
34.336
34.329
34.321
34.311
34.299
34.285
34.27
34.254
34.239
34.224
34.211
34.199
34.187
34.177
34.167
34.158
34.15
34.144
34.139
34.133
34.128
34.122
34.117
34.113
34.112
34.116
34.127
34.146
34.177
34.219
34.275
34.346
34.438
34.554
34.694
34.86
35.05
35.262
35.492
35.736
35.989
36.245
36.499
36.743
36.974
37.185
37.374
37.538
37.676
37.785
37.868
37.924
37.955
37.962
37.948
37.917
37.87
37.813
37.746
37.675
37.6
37.525
37.451
37.38
37.312
37.248
37.189
37.135
37.086
37.041
37.0
36.964
36.932
36.904
36.879
36.857
36.837
36.819
36.802
36.785
36.767
36.749
36.729
36.709
36.688
36.665
36.64
36.615
36.59
36.565
36.542
36.521
36.501
36.482
36.464
36.444
36.424
36.402
36.38
36.356
36.332
36.307
36.281
36.256
36.231
36.208
36.187
36.166
36.148
36.132
36.118
36.108
36.1
36.097
36.098
36.103
36.11
36.118
36.128
36.138
36.149
36.16
36.169
36.175
36.172
36.157
36.132
36.097
36.056
36.011
35.965
35.921
35.88
35.843
35.81
35.782
35.76
35.743
35.732
35.725
35.723
35.722
35.721
35.718
35.712
35.704
35.691
35.676
35.657
35.635
35.61
35.582
35.551
35.518
35.482
35.445
35.407
35.37
35.335
35.303
35.274
35.25
35.229
35.212
35.199
35.189
35.18
35.172
35.165
35.159
35.155
35.155
35.159
35.169
35.186
35.212
35.247
35.295
35.355
35.427
35.508
35.594
35.683
35.774
35.863
35.95
36.034
36.112
36.186
36.252
36.312
36.365
36.41
36.449
36.481
36.508
36.528
36.543
36.552
36.556
36.555
36.549
36.539
36.525
36.506
36.484
36.459
36.431
36.4
36.366
36.33
36.291
36.249
36.205
36.157
36.107
36.054
36.0
35.944
35.888
35.83
35.773
35.716
35.659
35.602
35.544
35.487
35.43
35.373
35.319
35.267
35.217
35.17
35.126
35.087
35.053
35.026
35.005
34.99
34.983
34.983
34.99
35.003
35.023
35.048
35.077
35.108
35.143
35.179
35.219
35.261
35.304
35.35
35.396
35.441
35.484
35.526
35.565
35.601
35.634
35.661
35.683
35.697
35.704
35.703
35.694
35.678
35.654
35.624
35.589
35.551
35.511
35.471
35.433
35.396
35.361
35.328
35.297
35.268
35.24
35.214
35.188
35.163
35.138
35.112
35.085
35.057
35.028
35.0
34.971
34.944
34.919
34.895
34.873
34.855
34.839
34.826
34.815
34.805
34.797
34.788
34.778
34.765
34.751
34.736
34.721
34.705
34.69
34.675
34.661
34.648
34.634
34.621
34.61
34.6
34.591
34.585
34.58
34.578
34.577
34.578
34.579
34.58
34.581
34.583
34.585
34.588
34.59
34.59
34.589
34.586
34.581
34.574
34.566
34.555
34.543
34.53
34.516
34.501
34.486
34.47
34.453
34.437
34.42
34.403
34.386
34.37
34.355
34.341
34.329
34.317
34.306
34.296
34.287
34.279
34.272
34.267
34.263
34.259
34.255
34.25
34.244
34.236
34.227
34.216
34.203
34.188
34.172
34.157
34.143
34.132
34.123
34.116
34.11
34.105
34.101
34.099
34.098
34.097
34.095
34.092
34.087
34.08
34.071
34.061
34.05
34.038
34.026
