Trial 1:0back
36.995
36.984
36.972
36.96
36.947
36.936
36.925
36.916
36.909
36.903
36.896
36.889
36.881
36.871
36.86
36.847
36.832
36.815
36.796
36.776
36.754
36.731
36.707
36.681
36.654
36.626
36.601
36.581
36.564
36.551
36.539
36.527
36.514
36.499
36.481
36.46
36.435
36.41
36.384
36.359
36.334
36.312
36.292
36.275
36.26
36.248
36.237
36.229
36.223
36.219
36.214
36.209
36.203
36.196
36.187
36.177
36.165
36.153
36.139
36.124
36.107
36.088
36.065
36.04
36.011
35.979
35.945
35.909
35.871
35.832
35.793
35.753
35.714
35.676
35.639
35.603
35.569
35.536
35.506
35.478
35.451
35.427
35.403
35.379
35.356
35.332
35.307
35.281
35.254
35.225
35.196
35.166
35.135
35.105
35.074
35.044
35.014
34.985
34.957
34.932
34.909
34.889
34.873
34.86
34.849
34.84
34.833
34.826
34.82
34.815
34.81
34.804
34.797
34.788
34.779
34.768
34.755
34.743
34.731
34.718
34.705
34.691
34.675
34.658
34.638
34.615
34.591
34.568
34.545
34.525
34.508
34.494
34.482
34.473
34.465
34.46
34.455
34.451
34.447
34.441
34.434
34.424
34.413
34.399
34.383
34.364
34.342
34.318
34.291
34.264
34.235
34.206
34.177
34.149
34.123
34.099
34.077
34.057
34.04
34.024
34.01
33.999
33.99
33.984
33.982
33.984
33.991
34.003
34.022
34.051
34.091
34.144
34.21
34.292
34.39
34.503
34.631
34.772
34.924
35.086
35.255
35.428
35.601
35.773
35.941
36.103
36.257
36.402
36.537
36.66
36.772
36.872
36.957
37.029
37.088
37.136
37.174
37.204
37.227
37.245
37.26
37.274
37.287
37.299
37.312
37.324
37.338
37.354
37.371
37.389
37.408
37.428
37.445
37.461
37.474
37.486
37.497
37.505
37.513
37.52
37.524
37.526
37.523
37.517
37.508
37.496
37.482
37.468
37.452
37.435
37.418
37.399
37.379
37.357
37.334
37.31
37.284
37.258
37.232
37.206
37.18
37.154
37.128
37.103
37.077
37.051
37.027
37.003
36.979
36.957
36.934
36.911
36.889
36.866
36.844
36.822
36.802
36.782
36.763
36.746
36.728
36.709
36.69
36.671
36.65
36.629
36.608
36.587
36.567
36.547
36.529
36.511
36.493
36.475
36.454
36.431
36.404
36.373
36.339
36.303
36.264
36.223
36.181
36.137
36.092
36.045
35.998
35.949
35.901
35.855
35.812
35.772
35.736
35.702
35.671
35.641
35.613
35.587
35.561
35.537
35.513
35.49
35.468
35.447
35.427
35.407
35.388
35.368
35.348
35.326
35.303
35.278
35.253
35.228
35.205
35.183
35.162
35.142
35.122
35.103
35.083
35.063
35.042
35.021
34.999
34.976
34.951
34.925
34.899
34.874
34.85
34.828
34.807
34.788
34.768
34.749
34.73
34.711
34.692
34.672
34.652
34.63
34.607
34.583
34.558
34.533
34.509
34.484
34.46
34.434
34.408
34.382
34.358
34.335
34.316
34.299
34.286
34.274
34.265
34.256
34.248
34.241
34.234
34.231
34.231
34.238
34.253
34.278
34.314
34.363
34.424
34.498
34.586
34.687
34.8
34.925
35.061
35.207
35.361
35.52
35.682
35.845
36.006
36.163
36.313
36.456
36.59
36.713
36.824
36.924
37.012
37.089
37.154
37.21
37.255
37.29
37.318
37.339
37.354
37.364
37.37
37.373
37.374
37.374
37.374
37.374
37.375
37.377
37.381
37.384
37.388
37.391
37.392
37.394
37.395
37.396
37.396
37.395
37.391
37.383
37.37
37.353
37.332
37.308
37.281
37.252
37.221
37.188
37.154
37.118
37.082
37.044
37.007
36.971
36.937
36.903
36.871
36.84
36.81
36.78
36.753
36.728
36.705
36.685
36.667
36.651
36.636
36.622
36.61
36.598
36.588
36.579
36.569
36.558
36.546
36.533
36.519
36.504
36.489
36.472
36.453
36.431
36.405
36.376
36.343
36.309
36.274
36.238
36.204
36.171
36.14
36.111
36.083
36.056
36.027
35.997
35.964
35.928
35.89
35.85
35.808
35.765
35.721
35.677
35.634
35.59
35.546
35.5
35.455
35.41
35.368
35.329
35.295
35.265
35.238
35.215
35.193
35.174
35.157
35.141
35.126
35.111
35.097
35.082
35.068
35.053
35.038
35.024
35.01
34.998
34.984
34.97
34.953
34.934
34.912
34.888
34.861
34.834
34.806
34.779
34.753
34.729
34.708
34.69
34.675
34.661
34.649
34.637
34.624
34.611
34.595
34.577
34.555
34.529
34.5
34.468
34.434
34.399
34.364
34.33
34.297
34.267
34.24
34.217
34.196
34.178
34.163
34.15
34.139
34.13
34.122
34.115
34.11
34.108
34.109
34.115
34.126
34.144
34.172
34.212
34.267
34.337
34.424
34.527
34.644
34.773
34.913
35.063
35.218
35.378
35.54
35.7
35.858
36.01
36.155
36.291
36.417
36.53
36.63
36.715
36.788
36.849
36.899
36.94
36.974
37.001
37.022
37.039
37.051
37.059
37.063
37.064
37.064
37.061
37.058
37.055
37.051
37.045
37.038
37.03
37.02
37.007
36.993
36.978
36.963
36.947
36.932
36.918
36.905
36.892
36.879
36.864
36.847
36.827
36.804
36.779
36.75
36.719
36.686
36.65
36.614
36.576
36.536
36.496
36.454
36.41
36.364
36.318
36.273
36.231
36.192
36.159
36.131
36.109
36.094
36.086
36.083
36.086
36.092
36.101
36.11
36.119
36.127
36.132
36.134
36.133
36.129
36.122
36.113
36.1
36.084
36.065
36.042
36.016
35.986
35.954
35.918
35.88
35.841
35.799
35.756
35.712
35.668
35.624
35.583
35.545
35.512
35.482
35.455
35.429
35.403
35.379
35.355
35.332
35.308
35.283
35.257
35.229
35.2
35.17
35.141
35.113
35.087
35.062
35.037
35.012
34.988
34.965
34.942
34.921
34.901
34.881
34.861
34.842
34.823
34.806
34.79
34.776
34.763
34.751
34.739
34.727
34.713
34.697
34.678
34.657
34.634
34.608
34.578
34.544
34.507
34.468
34.426
34.384
34.343
34.303
34.265
34.232
34.203
34.179
34.161
34.147
34.139
34.133
34.13
34.128
34.126
34.122
34.116
34.108
34.097
34.084
34.068
34.05
34.03
34.009
33.987
33.963
33.939
33.914
33.889
33.864
33.842
33.825
33.814
33.81
33.814
33.827
33.85
33.883
33.929
33.987
34.06
34.147
34.249
34.366
34.495
34.635
34.785
34.94
35.098
35.258
35.416
35.572
35.723
35.869
36.008
36.139
36.261
36.374
36.475
36.565
36.643
36.71
36.765
36.811
36.848
36.878
36.902
36.921
36.935
36.944
36.95
36.952
36.951
36.947
36.943
36.939
36.936
36.933
36.931
36.928
36.923
36.917
36.91
36.902
36.893
36.885
36.876
36.867
36.856
36.843
36.828
36.812
36.792
36.771
36.747
36.721
36.692
36.661
36.628
36.593
36.557
36.521
36.484
36.448
36.411
36.375
36.339
36.303
36.268
36.235
36.203
36.175
36.15
36.128
36.107
36.087
36.067
36.047
36.029
36.013
35.999
35.988
35.98
35.974
35.97
35.966
35.962
35.957
35.951
35.943
35.935
35.925
35.913
35.9
35.884
35.865
35.844
35.819
35.79
35.757
35.72
35.68
35.637
35.593
35.548
35.503
35.459
35.415
35.374
35.333
35.292
35.251
35.21
35.17
35.131
35.095
35.061
35.028
34.998
34.969
34.942
34.917
34.893
34.872
34.852
34.833
34.812
34.791
34.77
34.748
34.726
34.706
34.687
34.669
34.651
34.634
34.618
34.602
34.588
34.576
34.564
34.553
34.543
34.531
34.52
34.509
34.498
34.488
34.479
34.469
34.458
34.445
34.43
34.411
34.391
34.367
34.341
34.313
34.284
34.255
34.226
34.197
34.17
34.145
34.121
34.1
34.08
34.061
34.043
34.027
34.012
33.998
33.984
33.969
33.953
33.933
33.91
33.886
33.86
33.836
33.817
33.802
33.795
33.797
33.808
33.83
33.866
33.917
33.983
34.065
34.162
34.273
34.395
34.528
34.67
34.819
34.973
35.13
35.287
35.442
35.593
35.738
35.877
36.008
36.131
36.243
36.345
36.435
36.513
36.579
36.636
36.683
36.724
36.758
36.787
36.809
36.826
36.838
36.847
36.852
36.855
36.858
36.862
36.866
36.871
36.876
36.88
36.883
36.886
36.888
36.887
36.885
36.88
36.872
36.859
36.84
36.816
36.786
36.751
36.712
36.671
36.629
36.586
36.543
36.502
36.462
36.424
36.388
36.354
36.322
36.291
36.262
36.235
36.21
36.188
36.168
36.151
36.135
36.122
36.11
36.1
36.091
36.085
36.079
36.074
36.069
36.064
36.057
36.049
36.039
36.027
36.013
35.996
35.976
35.952
35.924
35.894
35.862
35.83
35.799
35.769
35.739
35.711
35.683
35.657
35.632
35.61
35.588
35.567
35.544
35.52
35.494
35.465
35.435
35.403
35.368
35.332
35.293
35.253
35.211
35.169
35.128
35.088
35.051
35.017
34.986
34.958
34.932
34.908
34.887
34.867
34.848
34.829
34.81
34.791
34.774
34.758
34.743
34.73
34.718
34.706
34.694
34.681
34.667
34.651
34.634
34.617
34.599
34.582
34.566
34.55
34.533
34.516
34.498
34.479
34.459
34.438
34.418
34.397
34.377
34.356
34.335
34.314
34.293
34.271
34.249
34.227
34.205
34.184
34.164
34.145
34.127
34.109
34.095
34.084
34.078
34.073
34.07
34.068
34.063
34.055
34.043
34.028
34.008
33.987
33.965
33.945
33.929
33.919
33.915
33.92
33.934
33.96
33.999
34.053
34.123
34.21
34.314
34.431
34.562
34.702
34.849
35.002
35.157
35.313
35.466
35.615
35.759
35.896
36.025
36.146
36.257
36.357
36.447
36.526
36.593
36.651
36.699
36.739
36.771
36.798
36.821
36.839
36.853
36.865
36.875
36.884
36.892
36.901
36.911
36.92
36.928
36.935
36.94
36.942
36.94
36.936
36.929
36.918
36.905
36.888
36.869
36.846
36.821
36.791
36.759
36.723
36.684
36.642
36.598
36.553
36.507
36.461
36.416
36.372
36.328
36.284
36.24
36.196
36.153
36.114
36.079
36.048
36.024
36.006
35.995
35.99
35.989
35.991
35.995
35.999
36.002
36.004
36.006
36.008
36.009
36.007
36.002
35.993
35.979
35.96
35.938
35.913
35.887
35.861
35.837
35.813
35.79
35.766
35.742
35.717
35.69
35.663
35.634
35.605
35.576
35.547
35.518
35.487
35.455
35.422
35.386
35.349
35.312
35.274
35.236
35.198
35.162
35.128
35.095
35.062
35.03
34.999
34.967
34.937
34.908
34.881
34.856
34.832
34.81
34.789
34.77
34.751
34.733
34.715
34.696
34.676
34.655
34.634
34.612
34.591
34.571
34.551
34.532
34.514
34.499
34.486
34.475
34.467
34.46
34.454
34.448
34.441
34.433
34.424
34.412
34.399
34.382
34.363
34.341
34.316
34.29
34.264
34.239
34.216
34.193
34.172
34.152
34.134
34.118
34.103
34.089
34.076
34.061
34.045
34.027
34.008
33.99
33.971
33.953
33.936
33.918
33.899
33.878
33.856
33.834
33.811
33.788
33.765
33.743
33.723
33.705
33.692
33.684
33.681
33.686
33.7
33.726
33.766
33.82
33.892
33.98
34.085
34.207
34.344
34.493
34.653
34.821
34.993
35.165
35.336
35.501
35.657
35.804
35.94
36.066
36.18
36.282
36.372
36.451
36.518
36.574
36.621
36.66
36.69
36.714
36.731
36.743
36.749
36.751
36.749
36.744
36.738
36.731
36.725
36.719
36.713
36.708
36.703
36.697
36.692
36.686
36.679
36.67
36.659
36.645
36.629
36.609
36.587
36.562
36.534
36.503
36.468
36.429
36.386
36.342
36.295
36.248
36.201
36.155
36.109
36.065
36.022
35.981
35.945
35.913
35.887
35.866
35.851
35.841
35.835
35.833
35.836
35.841
35.85
35.861
35.873
35.884
35.896
35.906
35.914
35.919
35.921
35.918
35.911
35.9
35.884
35.865
35.843
35.818
35.792
35.763
35.733
35.7
35.666
35.631
35.597
35.564
35.532
35.5
35.468
35.435
35.402
35.368
35.335
35.304
35.274
35.245
35.217
35.19
35.163
35.136
35.108
35.079
35.05
35.02
34.989
34.957
34.924
34.892
34.859
34.828
34.798
34.77
34.742
34.715
34.689
34.664
34.641
34.621
34.604
34.588
34.574
34.561
34.547
34.532
34.516
34.499
34.481
34.463
34.446
34.428
34.411
34.393
34.375
34.356
34.338
34.32
34.303
34.287
34.272
34.258
34.244
34.231
34.219
34.209
34.199
34.189
34.179
34.168
34.157
34.146
34.134
34.122
34.109
34.096
34.083
34.069
34.055
34.041
34.027
34.011
33.993
33.973
33.95
33.926
33.901
33.877
33.853
33.83
33.81
33.79
33.771
33.752
33.732
33.712
33.692
33.672
33.653
33.636
33.621
33.61
33.601
33.595
33.591
33.59
33.592
33.6
33.615
33.639
33.675
33.724
33.787
33.865
33.96
34.07
34.197
34.338
34.493
34.662
34.841
35.028
35.22
35.413
35.604
35.79
35.969
36.138
36.296
36.442
36.572
36.687
36.787
36.87
36.94
36.998
37.045
37.085
37.117
37.144
37.165
37.18
37.19
37.194
37.196
37.195
37.192
37.189
37.186
37.182
37.18
37.181
37.183
37.188
37.195
37.203
37.21
37.216
37.22
37.223
37.224
37.222
37.216
37.207
37.192
37.173
37.149
37.12
37.087
37.05
37.009
36.964
36.917
36.867
36.815
36.762
36.71
36.66
36.612
36.568
36.529
36.494
36.465
36.44
36.42
36.402
36.387
36.374
36.362
36.352
36.344
36.337
36.331
36.326
36.32
36.313
36.305
36.296
36.285
36.274
36.262
36.248
36.234
36.219
36.202
36.184
36.164
36.142
36.117
36.091
36.061
36.029
35.995
35.959
35.922
35.883
35.844
35.803
35.761
35.718
35.675
35.631
35.587
35.544
35.502
35.463
35.425
35.389
35.355
35.322
35.289
35.256
35.222
35.188
35.152
35.116
35.081
35.046
35.013
34.981
34.952
34.924
34.897
34.871
34.847
34.824
34.804
34.785
34.769
34.754
34.739
34.725
34.712
34.699
34.685
34.671
34.655
34.637
34.618
34.598
34.577
34.556
34.532
34.506
34.479
34.451
34.423
34.395
34.369
34.346
34.326
34.309
34.295
34.283
34.273
34.265
34.257
34.25
34.243
34.236
34.226
34.213
34.196
34.177
34.156
34.133
34.107
34.081
34.054
34.028
34.002
33.976
33.951
33.927
33.904
33.882
33.862
33.845
33.829
33.815
33.803
33.791
33.779
33.766
33.751
33.734
33.716
33.696
33.675
33.653
33.631
33.609
33.587
33.567
33.548
33.532
33.517
33.504
33.491
33.479
33.467
33.455
33.442
33.431
33.421
33.414
33.411
33.413
33.421
33.439
33.468
33.511
33.567
33.639
33.728
33.833
33.954
34.092
34.244
34.411
34.589
34.777
34.972
35.173
35.377
35.58
35.78
35.974
36.158
36.331
36.491
36.637
36.767
36.882
36.982
37.068
37.14
37.2
37.25
37.29
37.322
37.347
37.366
37.381
37.391
37.398
37.404
37.408
37.41
37.411
37.412
37.412
37.412
37.412
37.412
37.411
37.409
37.405
37.4
37.393
37.384
37.374
37.364
37.353
37.341
37.33
37.319
37.307
37.294
37.281
37.267
37.251
37.232
37.211
37.186
37.157
37.125
37.089
37.051
37.011
36.97
36.93
36.89
36.853
36.819
36.787
36.757
36.729
36.702
36.676
36.652
36.628
36.606
36.586
36.568
36.552
36.537
36.523
36.51
36.497
36.483
36.469
36.455
36.443
36.435
36.431
36.429
36.426
36.42
36.409
36.392
36.368
36.337
36.299
36.255
36.206
36.152
36.096
36.037
35.978
35.921
35.864
35.811
35.761
35.715
35.673
35.634
35.598
35.565
35.532
35.501
35.47
35.439
35.407
35.375
35.342
35.308
35.274
35.238
35.201
35.162
35.122
35.081
35.04
34.999
34.96
34.923
34.889
34.86
34.835
34.814
34.796
34.782
34.771
34.762
34.754
34.745
34.732
34.717
34.698
34.676
34.653
34.629
34.604
34.58
34.557
34.534
34.511
34.49
34.47
34.451
34.433
34.415
34.399
34.381
34.363
34.343
34.322
34.299
34.274
34.248
34.221
34.194
34.168
34.144
34.121
34.1
34.08
34.061
34.043
34.025
34.007
33.99
33.972
33.955
33.938
33.923
33.909
33.896
33.884
33.873
33.862
33.85
33.836
33.822
33.807
33.793
33.781
33.77
33.761
33.753
33.745
33.736
33.725
33.712
33.696
33.678
33.658
33.637
33.614
33.589
33.563
33.535
33.506
33.478
33.452
33.428
33.407
33.389
33.375
33.365
33.357
33.352
33.348
33.345
33.346
33.351
33.361
33.379
33.406
33.443
33.49
33.55
33.623
33.711
33.815
33.934
34.069
34.22
34.385
34.563
34.749
34.942
35.139
35.336
35.532
35.722
35.905
36.077
36.236
36.382
36.512
36.627
36.728
36.813
36.884
36.942
36.989
37.026
37.055
37.076
37.093
37.106
37.116
37.123
37.129
37.134
37.138
37.142
37.146
37.15
37.155
37.162
37.17
37.179
37.187
37.194
37.197
37.198
37.194
37.188
37.178
37.165
37.148
37.127
37.102
37.072
37.038
37.001
36.962
36.922
36.881
36.84
36.799
36.758
36.718
36.679
36.642
36.607
36.573
36.539
36.505
36.471
36.437
36.406
36.379
36.357
36.341
36.33
36.324
36.322
36.323
36.327
36.333
36.342
36.35
36.356
36.36
36.361
36.359
36.353
36.344
36.332
36.319
36.303
36.284
36.264
36.24
36.214
36.187
36.158
36.127
36.095
36.062
36.026
35.99
35.952
35.913
35.873
35.833
35.793
35.755
35.719
35.686
35.654
35.624
35.593
35.563
35.532
35.501
35.469
35.436
35.403
35.368
35.332
35.296
35.258
35.221
35.185
35.149
35.115
35.082
35.051
35.022
34.996
34.972
34.95
34.931
34.915
34.899
34.885
34.873
34.861
34.849
34.837
34.824
34.809
34.791
34.771
34.747
34.723
34.699
34.676
34.654
34.633
34.613
34.593
34.574
34.554
34.533
34.512
34.49
34.467
34.444
34.42
34.396
34.374
34.354
34.336
34.322
34.31
34.298
34.285
34.271
34.254
34.237
34.219
34.201
34.184
34.167
34.15
34.132
34.113
34.092
34.07
34.048
34.025
34.003
33.982
33.961
33.942
33.925
33.909
33.894
33.882
33.871
33.861
33.851
33.84
33.827
33.812
33.795
33.776
33.755
33.733
33.711
33.688
33.664
33.639
33.613
33.587
33.561
33.535
33.511
33.49
33.473
33.461
33.455
33.457
33.468
33.49
33.525
33.575
33.641
33.724
33.824
33.939
34.07
34.216
34.374
34.544
34.725
34.913
35.107
35.304
35.501
35.696
35.884
36.064
36.232
36.387
36.529
36.655
36.766
36.862
36.943
37.011
37.067
37.113
37.15
37.18
37.203
37.22
37.232
37.239
37.242
37.241
37.237
37.231
37.224
37.217
37.21
37.202
37.194
37.183
37.17
37.155
37.139
37.122
37.105
37.089
37.074
37.061
37.047
37.033
37.015
36.993
36.967
36.936
36.9
36.861
36.82
36.778
36.736
36.694
36.652
36.611
36.571
36.532
36.494
36.458
36.425
36.397
36.372
36.353
36.339
36.33
36.324
36.32
36.317
36.316
36.315
36.314
36.312
36.311
36.309
36.307
36.305
36.301
36.295
36.287
36.275
36.259
36.24
36.218
36.195
36.17
36.144
36.118
36.092
36.064
36.035
36.005
35.972
35.937
35.901
35.864
35.827
35.791
35.756
35.723
35.69
35.656
35.622
35.585
35.546
35.507
35.467
35.426
35.386
35.345
35.305
35.264
35.223
35.181
35.14
35.101
35.063
35.029
34.999
34.974
34.953
34.936
34.921
34.909
34.897
34.884
34.872
34.859
34.845
34.83
34.813
34.794
34.774
34.752
34.729
34.705
34.681
34.657
34.633
34.609
34.585
34.562
34.54
34.52
34.502
34.485
34.469
34.454
34.44
34.426
34.413
34.4
34.386
34.372
34.357
34.341
34.324
34.305
34.286
34.266
34.245
34.224
34.2
34.175
34.149
34.122
34.096
34.071
34.049
34.029
34.011
33.994
33.978
33.962
33.945
33.927
33.908
33.887
33.867
33.847
33.828
33.81
33.792
33.776
33.762
33.75
33.738
33.729
33.72
33.712
33.703
33.693
33.681
33.666
33.65
33.631
33.612
33.593
33.574
33.554
33.533
33.511
33.486
33.461
33.436
33.413
33.393
33.376
33.363
33.353
33.347
33.346
33.351
33.363
33.386
33.421
33.47
33.535
33.615
33.713
33.828
33.961
34.113
34.282
34.466
34.664
34.871
35.086
35.306
35.526
35.744
35.956
36.161
36.355
36.536
36.703
36.854
36.99
37.111
37.217
37.309
37.389
37.458
37.515
37.561
37.598
37.625
37.645
37.659
37.669
37.675
37.679
37.684
37.689
37.694
37.701
37.709
37.717
37.725
37.73
37.733
37.733
37.731
37.728
37.724
37.72
37.716
37.711
37.706
37.698
37.688
37.676
37.662
37.645
37.626
37.605
37.582
37.557
37.53
37.5
37.468
37.434
37.398
37.359
37.319
37.277
37.234
37.189
37.142
37.089
37.031
36.97
36.91
36.854
36.804
36.762
36.728
36.704
36.687
36.679
36.676
36.68
36.689
36.701
36.716
36.732
36.747
36.76
36.772
36.78
36.784
36.782
36.775
36.761
36.739
36.712
36.679
36.643
36.604
36.562
36.518
36.471
36.42
36.366
36.31
36.253
36.196
36.142
36.091
36.043
35.997
35.955
35.914
35.877
35.842
35.808
35.775
35.745
35.715
35.687
35.658
35.628
35.597
35.566
35.535
35.503
35.473
35.444
35.416
35.387
35.358
35.329
35.299
35.269
35.238
35.206
35.173
