Trial 1:0back
31.079
31.067
31.077
31.114
31.183
31.289
31.438
31.633
31.879
32.178
32.529
32.929
33.375
33.86
34.376
34.913
35.461
36.01
36.551
37.074
37.571
38.036
38.463
38.849
39.19
39.487
39.738
39.947
40.115
40.245
40.34
40.404
40.44
40.453
40.445
40.42
40.381
40.331
40.27
40.201
40.125
40.042
39.953
39.859
39.758
39.652
39.54
39.421
39.294
39.161
39.021
38.877
38.727
38.574
38.419
38.262
38.106
37.951
37.799
37.649
37.503
37.361
37.221
37.085
36.951
36.82
36.691
36.565
36.442
36.324
36.213
36.108
36.011
35.921
35.84
35.77
35.711
35.663
35.627
35.604
35.595
35.599
35.615
35.645
35.685
35.737
35.796
35.863
35.935
36.011
36.087
36.164
36.239
36.309
36.374
36.433
36.483
36.524
36.555
36.575
36.584
36.584
36.574
36.555
36.528
36.493
36.452
36.408
36.359
36.307
36.251
36.191
36.126
36.058
35.984
35.905
35.82
35.729
35.632
35.53
35.422
35.311
35.196
35.077
34.957
34.835
34.713
34.592
34.471
34.351
34.233
34.119
34.01
33.908
33.812
33.722
33.64
33.564
33.495
33.433
33.375
33.322
33.272
33.225
33.181
33.137
33.094
33.052
33.01
32.969
32.929
32.889
32.851
32.814
32.778
32.745
32.715
32.688
32.664
32.646
32.632
32.622
32.618
32.618
32.624
32.633
32.646
32.66
32.676
32.692
32.707
32.721
32.734
32.744
32.753
32.76
32.764
32.764
32.762
32.758
32.751
32.743
32.733
32.723
32.712
32.701
32.69
32.68
32.671
32.663
32.658
32.653
32.649
32.644
32.639
32.631
32.621
32.608
32.591
32.57
32.543
32.51
32.471
32.427
32.377
32.32
32.254
32.18
32.099
32.012
31.916
31.813
31.714
31.624
31.542
31.47
31.414
31.378
31.364
31.37
31.393
31.428
31.473
31.524
31.583
31.647
31.72
31.807
31.912
32.04
32.196
32.385
32.611
32.876
33.18
33.524
33.905
34.319
34.761
35.224
35.701
36.186
36.668
37.141
37.598
38.032
38.438
38.81
39.145
39.441
39.696
39.91
40.081
40.212
40.306
40.364
40.391
40.391
40.368
40.325
40.265
40.192
40.108
40.016
39.917
39.813
39.707
39.598
39.487
39.372
39.254
39.131
39.003
38.87
38.732
38.59
38.445
38.298
38.148
37.996
37.843
37.689
37.532
37.374
37.212
37.046
36.878
36.707
36.537
36.368
36.202
36.041
35.889
35.746
35.613
35.494
35.389
35.3
35.227
35.17
35.13
35.107
35.1
35.107
35.128
35.163
35.21
35.266
35.332
35.405
35.483
35.564
35.648
35.733
35.817
35.899
35.977
36.051
36.12
36.182
36.237
36.284
36.322
36.35
36.367
36.373
36.369
36.354
36.327
36.291
36.245
36.191
36.129
36.059
35.982
35.901
35.814
35.722
35.628
35.53
35.431
35.332
35.234
35.138
35.046
34.958
34.874
34.795
34.718
34.642
34.565
34.486
34.403
34.317
34.225
34.129
34.029
33.926
33.821
33.714
33.608
33.503
33.402
33.307
33.218
33.137
33.064
32.998
32.94
32.89
32.847
32.809
32.776
32.745
32.716
32.689
32.663
32.637
32.61
32.581
32.552
32.522
32.495
32.469
32.445
32.425
32.408
32.396
32.388
32.386
32.39
32.399
32.415
32.436
32.463
32.494
32.528
32.563
32.596
32.627
32.653
32.672
32.684
32.689
32.687
32.678
32.665
32.646
32.624
32.599
32.573
32.547
32.524
32.502
32.482
32.463
32.445
32.428
32.411
32.394
32.377
32.358
32.338
32.317
32.293
32.267
32.239
32.21
32.178
32.143
32.106
32.066
32.024
31.979
31.931
31.88
31.826
31.77
31.716
31.664
31.618
31.582
31.56
31.556
31.577
31.628
31.715
31.842
32.014
32.236
32.509
32.834
33.208
33.629
34.09
34.585
35.105
35.643
36.188
36.731
37.261
37.771
38.252
38.697
39.103
39.466
39.784
40.058
40.289
40.478
40.63
40.748
40.834
40.893
40.927
40.939
40.932
40.909
40.873
40.825
40.767
40.698
40.618
40.529
40.431
40.325
40.211
40.091
39.965
39.835
39.702
39.564
39.424
39.282
39.139
38.997
38.857
38.718
38.581
38.448
38.316
38.186
38.057
37.929
37.802
37.675
37.548
37.419
37.29
37.16
37.03
36.901
36.774
36.653
36.538
36.433
36.339
36.258
36.191
36.138
36.102
36.08
36.074
36.082
36.103
36.136
36.179
36.23
36.287
36.347
36.41
36.471
36.53
36.586
36.636
36.68
36.718
36.749
36.773
36.79
36.802
36.807
36.807
36.802
36.791
36.775
36.753
36.727
36.694
36.656
36.611
36.559
36.499
36.432
36.358
36.277
36.188
36.093
35.992
35.887
35.778
35.667
35.554
35.44
35.327
35.214
35.103
34.995
34.89
34.789
34.692
34.599
34.509
34.423
34.34
34.26
34.182
34.106
34.031
33.958
33.885
33.814
33.743
33.673
33.605
33.537
33.472
33.408
33.347
33.29
33.237
33.189
33.146
33.109
33.077
33.051
33.029
33.011
32.997
32.986
32.977
32.97
32.965
32.959
32.954
32.947
32.941
32.932
32.922
32.91
32.898
32.886
32.875
32.864
32.854
32.845
32.837
32.83
32.823
32.818
32.815
32.812
32.811
32.811
32.811
32.812
32.812
32.812
32.811
32.807
32.802
32.794
32.783
32.769
32.752
32.733
32.711
32.686
32.658
32.628
32.596
32.561
32.523
32.482
32.436
32.387
32.336
32.284
32.233
32.184
32.137
32.091
32.047
32.004
31.961
31.917
31.871
31.823
31.773
31.723
31.675
31.63
31.591
31.561
31.543
31.541
31.56
31.604
31.678
31.787
31.936
32.127
32.366
32.653
32.99
33.376
33.806
34.276
34.778
35.302
35.84
36.382
36.919
37.442
37.942
38.413
38.849
39.244
39.596
39.902
40.163
40.379
40.552
40.686
40.785
40.853
40.895
40.914
40.914
40.899
40.872
40.834
40.788
40.734
40.672
40.602
40.525
40.44
40.347
40.247
40.139
40.024
39.904
39.778
39.647
39.514
39.378
39.241
39.103
38.966
38.829
38.693
38.558
38.425
38.293
38.163
38.033
37.903
37.772
37.64
37.507
37.373
37.24
37.107
36.978
36.854
36.737
36.628
36.528
36.44
36.363
36.299
36.248
36.213
36.192
36.186
36.193
36.213
36.243
36.284
36.333
36.389
36.448
36.51
36.571
36.627
36.679
36.723
36.76
36.79
36.811
36.826
36.833
36.833
36.826
36.814
36.796
36.775
36.75
36.722
36.692
36.657
36.619
36.576
36.527
36.472
36.411
36.342
36.267
36.185
36.096
36.001
35.899
35.792
35.68
35.565
35.448
35.33
35.212
35.095
34.981
34.869
34.76
34.655
34.555
34.459
34.367
34.28
34.197
34.116
34.039
33.964
33.892
33.822
33.755
33.689
33.626
33.564
33.504
33.446
33.39
33.338
33.288
33.24
33.195
33.153
33.115
33.081
33.052
33.028
33.008
32.993
32.983
32.976
32.972
32.971
32.972
32.973
32.975
32.978
32.98
32.983
32.984
32.983
32.979
32.972
32.962
32.95
32.935
32.918
32.899
32.88
32.861
32.843
32.827
32.812
32.799
32.789
32.781
32.775
32.772
32.769
32.767
32.765
32.76
32.753
32.742
32.728
32.71
32.687
32.66
32.629
32.595
32.557
32.518
32.476
32.434
32.391
32.347
32.305
32.263
32.222
32.18
32.138
32.096
32.053
32.009
31.965
31.923
31.882
31.843
31.805
31.77
31.737
31.707
31.679
31.653
31.632
31.617
31.613
31.624
31.655
31.712
31.8
31.926
32.094
32.31
32.574
32.887
33.247
33.652
34.097
34.574
35.078
35.598
36.127
36.655
37.171
37.668
38.138
38.575
38.975
39.332
39.646
39.916
40.142
40.326
40.47
40.578
40.655
40.706
40.734
40.743
40.735
40.713
40.679
40.632
40.574
40.505
40.427
40.339
40.242
40.137
40.025
39.905
39.78
39.649
39.514
39.376
39.235
39.092
38.949
38.806
38.664
38.523
38.384
38.247
38.111
37.975
37.839
37.702
37.564
37.425
37.284
37.143
37.002
36.862
36.725
36.59
36.461
36.34
36.229
36.129
36.043
35.971
35.916
35.877
35.856
35.851
35.861
35.886
35.922
35.968
36.022
36.081
36.142
36.204
36.265
36.323
36.378
36.427
36.47
36.506
36.537
36.56
36.577
36.587
36.59
36.588
36.581
36.569
36.552
36.531
36.505
36.475
36.439
36.397
36.351
36.301
36.245
36.185
36.118
36.046
35.968
35.883
35.792
35.695
35.593
35.486
35.376
35.264
35.152
35.039
34.928
34.817
34.706
34.595
34.488
34.383
34.284
34.189
34.1
34.016
33.937
33.864
33.795
33.729
33.666
33.604
33.543
33.484
33.426
33.372
33.32
33.271
33.224
33.178
33.133
33.089
33.046
33.006
32.969
32.935
32.904
32.876
32.853
32.834
32.818
32.807
32.8
32.797
32.797
32.798
32.799
32.8
32.8
32.799
32.797
32.794
32.789
32.783
32.775
32.766
32.756
32.746
32.736
32.726
32.718
32.712
32.707
32.705
32.705
32.707
32.711
32.717
32.723
32.728
32.732
32.734
32.732
32.725
32.713
32.696
32.672
32.642
32.607
32.566
32.521
32.472
32.421
32.368
32.314
32.261
32.209
32.158
32.108
32.06
32.013
31.967
31.922
31.877
31.832
31.786
31.74
31.694
31.648
31.602
31.557
31.516
31.48
31.454
31.439
31.443
31.469
31.523
31.609
31.731
31.893
32.098
32.347
32.641
32.981
33.363
33.785
34.242
34.728
35.235
35.755
36.278
36.795
37.296
37.773
38.218
38.627
38.994
39.316
39.592
39.823
40.01
40.156
40.265
40.34
40.386
40.404
40.4
40.376
40.336
40.282
40.217
40.144
40.064
39.981
39.894
39.804
39.709
39.609
39.503
39.389
39.268
39.139
39.002
38.857
38.706
38.55
38.39
38.227
38.062
37.897
37.732
37.567
37.403
37.239
37.077
36.917
36.759
36.604
36.452
36.303
36.158
36.018
35.885
35.761
35.646
35.544
35.456
35.383
35.327
35.288
35.266
35.262
35.274
35.303
35.348
35.407
35.48
35.563
35.654
35.751
35.849
35.947
36.042
36.131
36.215
36.29
36.356
36.411
36.456
36.491
36.515
36.528
36.532
36.526
36.511
36.489
36.46
36.426
36.386
36.342
36.294
36.242
36.186
36.125
36.059
35.989
35.914
35.836
35.752
35.663
35.57
35.471
35.367
35.259
35.148
35.034
34.917
34.8
34.683
34.567
34.454
34.344
34.238
34.137
34.04
33.949
33.862
33.782
33.706
33.636
33.57
33.508
33.448
33.389
33.332
33.275
33.218
33.161
33.104
33.048
32.993
32.939
32.888
32.839
32.794
32.753
32.716
32.685
32.66
32.642
32.63
32.623
32.623
32.627
32.635
32.646
32.659
32.671
32.682
32.691
32.698
32.705
32.711
32.716
32.719
32.72
32.719
32.715
32.708
32.698
32.687
32.674
32.661
32.647
32.634
32.624
32.616
32.613
32.611
32.611
32.609
32.606
32.6
32.59
32.577
32.558
32.534
32.505
32.471
32.432
32.388
32.339
32.285
32.229
32.171
32.111
32.051
31.99
31.931
31.872
31.816
31.763
31.714
31.671
31.635
31.608
31.592
31.59
31.605
31.641
31.702
31.791
31.912
32.068
32.262
32.496
32.772
33.09
33.449
33.846
34.278
34.738
35.22
35.716
36.22
36.723
37.218
37.697
38.154
38.583
38.979
39.338
39.657
39.935
40.171
40.365
40.518
40.633
40.713
40.759
40.776
40.767
40.736
40.686
40.62
40.543
40.458
40.367
40.274
40.178
40.079
39.976
39.871
39.761
39.648
39.53
39.409
39.282
39.151
39.014
38.873
38.728
38.579
38.426
38.269
38.109
37.945
37.779
37.612
37.446
37.281
37.12
36.964
36.814
36.672
36.538
36.413
36.297
36.19
36.094
36.007
35.931
35.867
35.815
35.775
35.747
35.732
35.728
35.736
35.755
35.783
35.821
35.867
35.922
35.986
36.056
36.131
36.209
36.287
36.364
36.436
36.502
36.559
36.607
36.644
36.67
36.684
36.688
36.681
36.665
36.638
36.603
36.56
36.509
36.452
36.387
36.318
36.243
36.165
36.084
36.002
35.919
35.835
35.751
35.667
35.581
35.493
35.402
35.309
35.212
35.111
35.006
34.899
34.79
34.678
34.565
34.452
34.34
34.228
34.118
34.011
33.906
33.805
33.708
33.615
33.527
33.445
33.369
33.3
33.238
33.183
33.134
33.09
33.051
33.015
32.983
32.952
32.923
32.895
32.867
32.839
32.812
32.783
32.754
32.725
32.697
32.671
32.649
32.63
32.616
32.606
32.601
32.599
32.601
32.606
32.613
32.622
32.631
32.641
32.649
32.655
32.66
32.662
32.66
32.654
32.643
32.629
32.613
32.595
32.576
32.558
32.539
32.521
32.505
32.49
32.476
32.464
32.452
32.44
32.428
32.416
32.403
32.389
32.372
32.352
32.328
32.299
32.265
32.225
32.179
32.128
32.071
32.01
31.943
31.873
31.8
31.726
31.652
31.58
31.513
31.452
31.4
31.359
31.33
31.316
31.319
31.344
31.392
31.469
31.577
31.72
31.901
32.121
32.384
32.69
33.038
33.429
33.858
34.322
34.814
35.325
35.848
36.374
36.895
37.402
37.89
38.35
38.78
39.174
39.529
39.844
40.118
40.349
40.54
40.693
40.813
40.903
40.968
41.009
41.027
41.023
40.999
40.956
40.896
40.822
40.735
40.638
40.533
40.422
40.306
40.187
40.067
39.946
39.825
39.705
39.585
39.466
39.346
39.224
39.1
38.973
38.841
38.705
38.564
38.418
38.269
38.116
37.962
37.808
37.655
37.504
37.357
37.217
37.084
36.958
36.842
36.735
36.639
36.554
36.481
36.419
36.368
36.328
36.298
36.278
36.268
36.265
36.271
36.283
36.303
36.329
36.361
36.398
36.441
36.489
36.541
36.595
36.65
36.705
36.757
36.805
36.846
36.881
36.907
36.925
36.932
36.93
36.918
36.897
36.865
36.823
36.771
36.71
36.641
36.564
36.481
36.394
36.303
36.211
36.116
36.02
35.924
35.83
35.737
35.645
35.553
35.461
35.368
35.274
35.177
35.077
34.976
34.872
34.767
34.66
34.554
34.449
34.345
34.244
34.146
34.051
33.961
33.877
33.797
33.722
33.649
33.579
33.512
33.447
33.385
33.324
33.268
33.215
33.168
33.127
33.091
33.06
33.033
33.008
32.984
32.961
32.938
32.916
32.893
32.868
32.843
32.818
32.793
32.769
32.747
32.727
32.709
32.696
32.687
32.683
32.683
32.686
32.692
32.699
32.705
32.71
32.713
32.715
32.715
32.712
32.706
32.696
32.684
32.67
32.654
32.636
32.617
32.596
32.574
32.551
32.527
32.504
32.482
32.461
32.441
32.424
32.408
32.394
32.381
32.368
32.352
32.332
32.309
32.281
32.248
32.21
32.167
32.118
32.065
32.01
31.952
31.892
31.833
31.773
31.715
31.658
31.605
31.556
31.514
31.48
31.458
31.451
31.462
31.494
31.552
31.64
31.761
31.921
32.122
32.366
32.656
32.989
33.364
33.777
34.224
34.699
35.194
35.703
36.217
36.728
37.228
37.709
38.167
38.594
38.988
39.346
39.664
39.943
40.181
40.381
40.542
40.669
40.763
40.828
40.865
40.878
40.868
40.838
40.791
40.728
40.653
40.567
40.473
40.375
40.274
40.17
40.064
39.954
39.84
39.72
39.595
39.464
39.327
39.186
39.04
38.891
38.739
38.585
38.43
38.274
38.116
37.958
37.799
37.64
37.482
37.325
37.17
37.02
36.877
36.743
36.62
36.508
36.408
36.32
36.244
36.18
36.129
36.089
36.06
36.042
36.033
36.034
36.045
36.066
36.095
36.131
36.174
36.223
36.275
36.331
36.389
36.449
36.51
36.57
36.629
36.686
36.738
36.783
36.82
36.848
36.866
36.874
36.872
36.86
36.84
36.811
36.773
36.726
36.671
36.608
36.539
36.464
36.385
36.304
36.222
36.141
36.06
35.979
35.897
35.812
35.724
35.631
35.534
35.432
35.327
35.217
35.104
34.988
34.87
34.75
34.63
34.511
34.394
34.281
34.173
34.07
33.974
33.884
33.802
33.728
33.662
33.604
33.555
33.513
33.477
33.445
33.416
33.389
33.364
33.339
33.314
33.288
33.259
33.229
33.198
33.168
33.138
33.111
33.087
33.067
33.05
33.037
33.028
33.023
33.022
33.024
33.03
33.04
33.053
33.068
33.085
33.103
33.122
33.14
33.156
33.171
33.183
33.191
33.195
33.194
33.188
33.178
33.163
33.145
33.124
33.101
33.076
33.051
33.025
32.998
32.971
32.944
32.916
32.89
32.864
32.84
32.815
32.788
32.759
32.726
32.688
32.645
32.598
32.544
32.485
32.422
32.355
32.285
32.214
32.142
32.071
32.003
31.941
31.885
31.838
31.805
31.788
31.793
31.822
31.88
31.971
32.097
32.262
32.466
32.71
32.996
33.321
33.683
34.078
34.501
34.946
35.409
35.881
36.356
36.826
37.286
37.729
38.15
38.542
38.902
39.227
39.514
39.763
39.975
40.148
40.287
40.392
40.466
40.511
40.531
40.529
40.506
40.465
40.41
40.341
40.261
40.173
40.077
39.976
39.871
39.762
39.649
39.533
39.415
39.294
39.171
39.046
38.92
38.791
38.659
38.525
38.385
38.241
38.091
37.935
37.774
37.61
37.441
37.272
37.102
36.934
36.768
36.608
36.456
36.315
36.187
36.072
35.971
35.886
35.816
35.763
35.725
35.702
35.694
35.698
35.715
35.741
35.775
35.817
35.865
35.919
35.977
36.039
36.102
36.167
36.232
36.296
36.359
36.421
36.479
36.532
36.579
36.621
36.656
36.683
36.701
36.709
36.707
36.694
36.67
36.636
36.591
36.538
36.476
36.407
36.332
36.252
36.17
36.087
36.005
35.922
35.84
35.756
35.672
35.586
35.497
35.405
35.309
35.21
35.105
34.997
34.885
34.77
34.653
34.534
34.417
34.301
34.188
34.079
33.973
33.873
33.777
33.688
33.606
33.532
33.467
33.409
33.359
33.315
33.278
33.245
33.216
33.191
33.168
33.147
33.127
33.107
33.088
33.069
33.048
33.026
33.003
32.978
32.953
32.927
32.9
32.873
32.847
32.824
32.805
32.79
32.781
32.778
32.781
32.788
32.799
32.813
32.828
32.843
32.857
32.869
32.879
32.886
32.889
32.889
32.886
32.881
32.873
32.863
32.851
32.838
32.824
32.811
32.797
32.783
32.768
32.754
32.74
32.725
32.711
32.695
32.677
32.657
32.632
32.602
32.566
32.525
32.479
32.428
32.374
32.315
32.255
32.193
32.131
32.069
32.009
31.953
31.9
31.854
31.817
31.79
31.778
31.783
31.81
31.863
31.947
32.064
32.221
32.418
32.658
32.942
33.269
33.638
34.046
34.487
34.955
35.445
35.946
36.452
36.955
37.446
37.919
38.368
38.787
39.174
39.522
39.831
40.098
40.326
40.516
40.67
40.791
40.882
40.946
40.988
41.01
41.015
41.004
40.979
40.941
40.892
40.831
40.762
40.685
40.601
40.512
40.419
40.322
40.223
40.12
40.015
39.907
39.796
39.683
39.566
39.445
39.321
39.193
39.062
38.928
38.791
38.652
38.512
38.372
38.232
38.092
37.955
37.82
37.689
37.563
37.443
37.329
37.222
37.123
37.033
36.951
36.877
36.812
36.755
36.707
36.667
36.636
36.615
36.603
36.601
36.609
36.625
36.65
36.682
36.721
36.765
36.813
36.863
36.914
36.964
37.011
37.054
37.091
37.122
37.145
37.16
37.167
37.165
37.155
37.138
37.114
37.083
37.044
36.999
36.947
36.89
36.828
36.761
36.688
36.609
36.526
36.438
36.346
36.25
36.151
36.049
35.945
35.838
35.729
35.618
35.505
35.391
35.275
35.159
35.043
34.927
34.814
34.702
34.592
34.487
34.385
34.288
34.196
34.109
34.029
33.954
33.885
33.821
33.763
33.709
33.66
33.615
33.575
33.538
33.504
33.473
33.443
33.414
33.386
33.359
33.333
33.308
33.284
33.261
33.238
33.217
33.196
33.177
33.16
33.146
33.135
33.127
33.121
33.118
33.117
33.117
33.118
33.118
33.117
33.115
33.111
33.105
33.096
33.084
33.068
33.049
33.028
33.005
32.983
32.961
32.94
32.921
32.903
32.888
32.875
32.865
32.856
32.849
32.843
32.837
32.83
32.821
32.81
32.794
32.775
32.751
32.721
32.687
32.647
32.602
32.553
32.499
32.442
32.384
32.327
32.269
32.21
32.151
32.092
32.035
31.981
31.93
31.884
31.844
31.81
31.784
31.768
31.762
31.77
31.796
31.843
31.916
32.019
32.157
32.333
32.55
32.81
33.112
33.455
33.839
34.259
34.71
35.188
35.683
36.189
36.697
37.197
37.684
38.15
38.588
38.993
39.363
39.694
39.984
40.233
40.44
40.608
40.739
40.837
40.905
40.947
40.968
40.969
40.954
40.926
40.887
40.838
40.782
40.718
40.648
40.573
40.491
40.405
40.313
40.215
40.111
40.002
39.887
39.767
39.643
39.517
39.388
39.259
39.13
39.001
38.872
38.744
38.618
38.493
38.37
38.247
38.124
38.002
37.88
37.758
37.639
37.521
37.406
37.294
37.186
37.083
36.986
36.895
36.812
36.738
36.673
36.619
36.576
36.545
36.526
36.518
36.521
36.534
36.555
36.585
36.622
36.665
36.712
36.761
36.809
36.853
36.892
36.923
36.947
36.963
36.97
36.969
36.959
36.942
36.918
36.887
36.851
36.81
36.764
36.714
36.659
36.6
36.537
36.47
36.4
36.326
36.247
36.164
36.077
35.986
35.89
35.792
35.69
35.585
35.477
35.365
35.249
35.131
35.012
34.894
34.779
34.667
34.561
34.46
34.366
34.279
34.199
34.126
34.058
33.996
33.937
33.88
33.825
33.771
33.716
33.661
33.605
