Trial 1:0back
35.598
35.586
35.581
35.583
35.59
35.602
35.618
35.637
35.657
35.678
35.697
35.711
35.72
35.721
35.715
35.7
35.678
35.647
35.609
35.564
35.515
35.461
35.404
35.344
35.283
35.219
35.153
35.084
35.013
34.941
34.867
34.793
34.719
34.645
34.57
34.495
34.419
34.343
34.266
34.188
34.109
34.029
33.949
33.869
33.79
33.713
33.637
33.563
33.492
33.424
33.359
33.299
33.243
33.192
33.145
33.103
33.063
33.026
32.991
32.958
32.926
32.898
32.871
32.846
32.822
32.8
32.779
32.759
32.74
32.721
32.702
32.684
32.666
32.649
32.634
32.62
32.608
32.598
32.589
32.581
32.575
32.569
32.561
32.553
32.544
32.537
32.531
32.527
32.526
32.528
32.533
32.541
32.552
32.564
32.576
32.589
32.602
32.614
32.626
32.636
32.644
32.65
32.652
32.651
32.647
32.64
32.629
32.615
32.599
32.579
32.556
32.531
32.503
32.476
32.448
32.423
32.399
32.376
32.355
32.334
32.314
32.294
32.275
32.256
32.238
32.223
32.211
32.205
32.207
32.22
32.247
32.292
32.359
32.452
32.577
32.74
32.948
33.204
33.512
33.875
34.293
34.764
35.283
35.843
36.436
37.053
37.681
38.311
38.929
39.526
40.091
40.614
41.088
41.508
41.867
42.164
42.396
42.565
42.674
42.726
42.727
42.681
42.596
42.477
42.331
42.166
41.988
41.803
41.613
41.424
41.236
41.053
40.875
40.706
40.544
40.392
40.251
40.119
39.996
39.881
39.773
39.672
39.576
39.483
39.393
39.304
39.213
39.119
39.02
38.915
38.802
38.681
38.553
38.416
38.272
38.122
37.968
37.811
37.652
37.494
37.338
37.188
37.045
36.911
36.787
36.674
36.574
36.487
36.414
36.353
36.304
36.266
36.238
36.219
36.207
36.2
36.197
36.197
36.198
36.201
36.203
36.203
36.201
36.196
36.189
36.178
36.163
36.143
36.117
36.085
36.048
36.007
35.961
35.912
35.857
35.798
35.735
35.667
35.595
35.519
35.44
35.357
35.271
35.182
35.092
35.0
34.906
34.814
34.722
34.633
34.545
34.462
34.382
34.306
34.235
34.169
34.107
34.048
33.993
33.94
33.887
33.835
33.783
33.731
33.679
33.627
33.575
33.524
33.473
33.423
33.374
33.328
33.284
33.241
33.201
33.164
33.13
33.099
33.072
33.048
33.026
33.006
32.987
32.969
32.952
32.936
32.922
32.909
32.898
32.889
32.882
32.876
32.871
32.868
32.864
32.861
32.857
32.853
32.85
32.847
32.844
32.843
32.843
32.843
32.844
32.844
32.843
32.843
32.843
32.844
32.844
32.843
32.841
32.837
32.831
32.823
32.813
32.803
32.793
32.782
32.772
32.762
32.753
32.742
32.73
32.714
32.695
32.673
32.646
32.616
32.583
32.55
32.516
32.482
32.45
32.418
32.386
32.355
32.323
32.293
32.263
32.236
32.213
32.194
32.181
32.173
32.173
32.182
32.203
32.238
32.29
32.364
32.463
32.595
32.764
32.975
33.232
33.538
33.895
34.303
34.758
35.257
35.794
36.363
36.953
37.555
38.159
38.755
39.332
39.881
40.392
40.857
41.269
41.624
41.919
42.151
42.321
42.432
42.486
42.489
42.446
42.362
42.244
42.1
41.934
41.754
41.566
41.374
41.184
41.0
40.825
40.661
40.509
40.369
40.243
40.13
40.029
39.938
39.855
39.778
39.705
39.635
39.565
39.493
39.417
39.336
39.247
39.148
39.038
38.916
38.782
38.637
38.482
38.318
38.149
37.976
37.802
37.631
37.464
37.305
37.155
37.018
36.894
36.784
36.688
36.607
36.539
36.482
36.436
36.399
36.371
36.349
36.333
36.323
36.317
36.314
36.313
36.312
36.309
36.303
36.294
36.281
36.264
36.243
36.217
36.186
36.151
36.111
36.066
36.015
35.96
35.9
35.835
35.766
35.694
35.621
35.548
35.473
35.399
35.326
35.252
35.179
35.105
35.029
34.952
34.872
34.791
34.709
34.625
34.543
34.463
34.385
34.312
34.243
34.178
34.116
34.056
33.997
33.939
33.882
33.826
33.772
33.719
33.666
33.615
33.565
33.516
33.469
33.422
33.378
33.335
33.295
33.256
33.218
33.182
33.148
33.115
33.084
33.055
33.026
32.999
32.973
32.949
32.927
32.906
32.889
32.873
32.86
32.849
32.84
32.834
32.83
32.828
32.828
32.828
32.828
32.829
32.828
32.827
32.824
32.82
32.813
32.804
32.793
32.781
32.768
32.755
32.743
32.731
32.719
32.707
32.694
32.682
32.669
32.655
32.642
32.63
32.618
32.606
32.594
32.582
32.569
32.557
32.543
32.53
32.517
32.503
32.488
32.472
32.455
32.437
32.417
32.394
32.369
32.343
32.316
32.288
32.257
32.225
32.191
32.155
32.119
32.084
32.05
32.019
31.991
31.967
31.949
31.935
31.927
31.927
31.937
31.96
31.999
32.059
32.145
32.261
32.413
32.604
32.84
33.124
33.457
33.84
34.269
34.742
35.254
35.796
36.361
36.938
37.52
38.096
38.658
39.197
39.706
40.176
40.602
40.979
41.304
41.574
41.788
41.946
42.051
42.104
42.11
42.073
41.999
41.894
41.764
41.614
41.45
41.278
41.101
40.923
40.748
40.577
40.412
40.256
40.107
39.967
39.835
39.711
39.594
39.484
39.382
39.286
39.196
39.11
39.027
38.945
38.863
38.779
38.69
38.594
38.491
38.378
38.255
38.121
37.977
37.824
37.666
37.504
37.342
37.183
37.03
36.885
36.751
36.628
36.52
36.425
36.344
36.277
36.222
36.178
36.146
36.123
36.109
36.101
36.099
36.102
36.108
36.115
36.123
36.129
36.132
36.13
36.124
36.114
36.099
36.08
36.058
36.033
36.004
35.972
35.935
35.894
35.847
35.795
35.736
35.672
35.602
35.526
35.448
35.368
35.287
35.206
35.126
35.048
34.971
34.896
34.823
34.75
34.678
34.607
34.537
34.468
34.4
34.333
34.268
34.204
34.141
34.077
34.014
33.953
33.893
33.836
33.78
33.726
33.675
33.625
33.575
33.527
33.48
33.435
33.392
33.352
33.314
33.278
33.245
33.215
33.188
33.164
33.142
33.124
33.108
33.095
33.085
33.079
33.075
33.074
33.075
33.077
33.08
33.084
33.089
33.094
33.098
33.101
33.104
33.107
33.11
33.112
33.115
33.117
33.117
33.115
33.11
33.103
33.093
33.081
33.066
33.049
33.029
33.008
32.985
32.961
32.935
32.909
32.881
32.852
32.82
32.788
32.754
32.721
32.687
32.653
32.62
32.589
32.559
32.531
32.507
32.488
32.475
32.47
32.475
32.493
32.526
32.579
32.655
32.758
32.895
33.068
33.282
33.54
33.843
34.189
34.577
35.003
35.462
35.947
36.452
36.967
37.483
37.992
38.485
38.951
39.384
39.777
40.126
40.427
40.679
40.88
41.031
41.136
41.196
41.217
41.202
41.156
41.081
40.983
40.865
40.731
40.585
40.431
40.27
40.107
39.944
39.783
39.626
39.475
39.331
39.194
39.064
38.942
38.829
38.722
38.621
38.524
38.428
38.333
38.235
38.134
38.029
37.917
37.797
37.669
37.533
37.388
37.236
37.079
36.919
36.759
36.601
36.449
36.305
36.171
36.049
35.941
35.847
35.768
35.704
35.654
35.617
35.59
35.571
35.56
35.553
35.55
35.55
35.553
35.557
35.563
35.569
35.573
35.577
35.579
35.58
35.58
35.578
35.573
35.565
35.553
35.535
35.512
35.483
35.446
35.403
35.352
35.294
35.229
35.158
35.083
35.004
34.924
34.844
34.764
34.686
34.609
34.532
34.456
34.381
34.305
34.23
34.155
34.08
34.007
33.936
33.866
33.799
33.735
33.673
33.614
33.556
33.5
33.445
33.391
33.338
33.285
33.234
33.184
33.134
33.086
33.04
32.996
32.956
32.92
32.888
32.861
32.837
32.816
32.797
32.781
32.765
32.751
32.738
32.726
32.715
32.705
32.697
32.69
32.685
32.68
32.675
32.67
32.665
32.66
32.656
32.653
32.651
32.65
32.65
32.652
32.655
32.659
32.665
32.673
32.682
32.692
32.702
32.711
32.718
32.723
32.726
32.725
32.719
32.709
32.693
32.673
32.648
32.622
32.593
32.563
32.533
32.502
32.471
32.441
32.412
32.385
32.36
32.335
32.313
32.291
32.272
32.255
32.24
32.229
32.222
32.22
32.226
32.246
32.283
32.342
32.429
32.549
32.707
32.908
33.155
33.45
33.794
34.188
34.628
35.11
35.626
36.171
36.736
37.312
37.888
38.456
39.004
39.524
40.007
40.448
40.839
41.177
41.459
41.684
41.851
41.964
42.025
42.038
42.008
41.942
41.845
41.726
41.589
41.44
41.286
41.13
40.976
40.827
40.684
40.548
40.421
40.303
40.195
40.097
40.007
39.925
39.85
39.778
39.709
39.641
39.572
39.5
39.424
39.342
39.252
39.152
39.042
38.921
38.79
38.648
38.497
38.339
38.175
38.007
37.838
37.671
37.507
37.348
37.197
37.054
36.92
36.795
36.68
36.574
36.478
36.39
36.31
36.238
36.174
36.119
36.073
36.037
36.009
35.99
35.979
35.974
35.973
35.975
35.978
35.98
35.98
35.976
35.967
35.951
35.929
35.899
35.861
35.817
35.766
35.709
35.648
35.583
35.516
35.447
35.378
35.309
35.241
35.173
35.106
35.038
34.969
34.9
34.828
34.755
34.679
34.601
34.521
34.44
34.359
34.279
34.203
34.131
34.062
33.996
33.933
33.87
33.808
33.744
33.68
33.616
33.552
33.488
33.425
33.365
33.307
33.253
33.203
33.158
33.119
33.084
33.054
33.027
33.004
32.982
32.961
32.94
32.919
32.897
32.874
32.85
32.825
32.801
32.778
32.756
32.736
32.717
32.7
32.685
32.672
32.663
32.655
32.651
32.65
32.652
32.656
32.663
32.672
32.681
32.691
32.699
32.706
32.709
32.708
32.705
32.698
32.688
32.676
32.662
32.647
32.631
32.615
32.598
32.58
32.562
32.542
32.522
32.502
32.482
32.461
32.441
32.419
32.395
32.37
32.343
32.316
32.289
32.263
32.238
32.214
32.192
32.173
32.156
32.141
32.129
32.12
32.114
32.11
32.108
32.107
32.108
32.11
32.115
32.125
32.142
32.17
32.214
32.279
32.373
32.501
32.669
32.882
33.145
33.461
33.829
34.249
34.718
35.231
35.78
36.358
36.955
37.561
38.165
38.756
39.324
39.857
40.346
40.786
41.169
41.492
41.754
41.955
42.097
42.184
42.219
42.209
42.158
42.073
41.96
41.826
41.677
41.518
41.354
41.189
41.027
40.868
40.717
40.573
40.438
40.311
40.194
40.083
39.98
39.883
39.79
39.702
39.617
39.535
39.454
39.374
39.293
39.209
39.12
39.025
38.92
38.806
38.68
38.543
38.396
38.239
38.076
37.908
37.738
37.569
37.402
37.241
37.087
36.943
36.809
36.685
36.571
36.467
36.373
36.29
36.216
36.151
36.096
36.05
36.012
35.981
35.958
35.941
35.927
35.917
35.91
35.903
35.897
35.889
35.879
35.866
35.848
35.825
35.797
35.763
35.725
35.68
35.631
35.576
35.518
35.457
35.394
35.33
35.264
35.197
35.129
35.059
34.988
34.914
34.838
34.759
34.678
34.596
34.513
34.431
34.352
34.275
34.202
34.131
34.061
33.993
33.926
33.858
33.788
33.718
33.646
33.574
33.502
33.431
33.364
33.302
33.245
33.192
33.144
33.101
33.06
33.022
32.986
32.951
32.917
32.883
32.85
32.817
32.784
32.753
32.724
32.698
32.675
32.656
32.641
32.629
32.62
32.613
32.607
32.603
32.599
32.598
32.598
32.599
32.602
32.606
32.612
32.617
32.622
32.624
32.624
32.62
32.614
32.605
32.595
32.584
32.573
32.562
32.551
32.541
32.53
32.522
32.515
32.509
32.506
32.505
32.504
32.504
32.504
32.503
32.5
32.495
32.489
32.48
32.469
32.456
32.44
32.423
32.403
32.379
32.351
32.318
32.283
32.247
32.21
32.173
32.137
32.1
32.062
32.026
31.99
31.956
31.924
31.896
31.872
31.852
31.837
31.827
31.826
31.833
31.852
31.884
31.932
32.001
32.095
32.219
32.378
32.576
32.818
33.108
33.447
33.836
34.274
34.757
35.28
35.836
36.416
37.01
37.609
38.201
38.776
39.325
39.837
40.306
40.725
41.088
41.393
41.637
41.821
41.944
42.012
42.029
42.0
41.932
41.83
41.701
41.551
41.385
41.208
41.026
40.843
40.663
40.488
40.321
40.164
40.017
39.879
39.752
39.634
39.524
39.422
39.326
39.234
39.145
39.059
38.975
38.89
38.803
38.711
38.614
38.508
38.393
38.268
38.132
37.986
37.831
37.669
37.5
37.329
37.157
36.986
36.82
36.662
36.515
36.379
36.257
36.148
36.053
35.972
35.903
35.847
35.801
35.764
35.735
35.713
35.696
35.684
35.677
35.674
35.672
35.671
35.671
35.668
35.664
35.657
35.647
35.633
35.615
35.592
35.564
35.532
35.495
35.454
35.408
35.357
35.301
35.24
35.174
35.106
35.034
34.961
34.887
34.813
34.739
34.666
34.595
34.524
34.453
34.382
34.309
34.234
34.158
34.081
34.002
33.923
33.844
33.765
33.689
33.616
33.546
33.48
33.417
33.359
33.304
33.254
33.207
33.164
33.124
33.087
33.051
33.016
32.983
32.951
32.921
32.894
32.868
32.844
32.822
32.8
32.779
32.758
32.738
32.717
32.697
32.677
32.658
32.64
32.624
32.611
32.601
32.593
32.588
32.584
32.582
32.581
32.581
32.581
32.582
32.583
32.584
32.585
32.588
32.591
32.596
32.603
32.612
32.621
32.632
32.644
32.655
32.666
32.675
32.681
32.684
32.682
32.677
32.668
32.657
32.643
32.627
32.61
32.59
32.569
32.547
32.524
32.501
32.476
32.451
32.425
32.399
32.374
32.349
32.324
32.299
32.274
32.25
32.228
32.208
32.19
32.175
32.164
32.156
32.153
32.156
32.166
32.186
32.22
32.273
32.35
32.455
32.595
32.773
32.994
33.261
33.575
33.937
34.344
34.792
35.278
35.795
36.337
36.893
37.456
38.016
38.561
39.083
39.572
40.02
40.42
40.769
41.062
41.298
41.477
41.6
41.67
41.691
41.667
41.604
41.507
41.383
41.235
41.07
40.892
40.706
40.516
40.326
40.139
39.956
39.78
39.612
39.453
39.301
39.159
39.025
38.898
38.779
38.665
38.556
38.449
38.342
38.234
38.123
38.007
37.884
37.755
37.619
37.477
37.329
37.177
37.024
36.871
36.719
36.572
36.43
36.295
36.17
36.054
35.948
35.854
35.77
35.697
35.636
35.586
35.549
35.523
35.508
35.502
35.504
35.512
35.524
35.54
35.558
35.576
35.593
35.609
35.623
35.635
35.645
35.651
35.651
35.646
35.633
35.612
35.582
35.544
35.497
35.443
35.381
35.313
35.24
35.164
35.087
35.008
34.929
34.85
34.772
34.696
34.621
34.549
34.478
34.407
34.335
34.263
34.187
34.109
34.028
33.945
33.86
33.776
33.691
33.61
33.533
33.46
33.392
33.331
33.275
33.224
33.177
33.133
33.09
33.049
33.011
32.976
32.944
32.916
32.892
32.87
32.85
32.831
32.812
32.791
32.77
32.746
32.722
32.696
32.67
32.645
32.622
32.6
32.58
32.562
32.546
32.534
32.525
32.519
32.516
32.514
32.514
32.515
32.515
32.516
32.517
32.517
32.518
32.519
32.52
32.521
32.522
32.522
32.521
32.517
32.512
32.504
32.494
32.483
32.471
32.459
32.448
32.436
32.423
32.409
32.395
32.379
32.362
32.344
32.325
32.306
32.286
32.266
32.247
32.229
32.212
32.195
32.18
32.168
32.161
32.161
32.171
32.196
32.238
32.303
32.396
32.522
32.686
32.892
33.143
33.443
33.792
34.19
34.636
35.125
35.654
36.213
36.795
37.388
37.984
38.57
39.137
39.672
40.168
40.617
41.013
41.351
41.63
41.85
42.012
42.117
42.169
42.174
42.135
42.061
41.957
41.829
41.682
41.522
41.35
41.173
40.993
40.813
40.635
40.463
40.299
40.143
39.998
39.862
39.738
39.624
39.52
39.424
39.336
39.252
39.17
39.09
39.006
38.917
38.821
38.717
38.605
38.483
38.352
38.212
38.063
37.907
37.745
37.579
37.411
37.242
37.075
36.91
36.75
36.596
36.451
36.316
36.191
36.079
35.981
35.896
35.824
35.765
35.717
35.681
35.654
35.637
35.628
35.625
35.626
35.631
35.637
35.644
35.65
35.655
35.658
35.657
35.653
35.644
35.63
35.609
35.583
35.55
35.511
35.466
35.415
35.359
35.3
35.239
35.176
35.112
35.047
34.981
34.913
34.844
34.772
34.697
34.619
34.537
34.452
34.363
34.272
34.18
34.087
33.996
33.907
33.821
33.74
33.665
33.597
33.534
33.478
33.426
33.377
33.33
33.285
33.241
33.197
33.154
33.11
33.067
33.025
32.984
32.944
32.906
32.868
32.831
32.795
32.759
32.724
32.69
32.657
32.628
32.604
32.585
32.572
32.564
32.561
32.562
32.564
32.568
32.572
32.573
32.573
32.569
32.562
32.553
32.541
32.528
32.513
32.498
32.483
32.469
32.458
32.449
32.443
32.438
32.435
32.431
32.427
32.422
32.417
32.412
32.408
32.403
32.399
32.396
32.393
32.39
32.389
32.388
32.387
32.385
32.382
32.378
32.372
32.365
32.355
32.343
32.329
32.312
32.293
32.271
32.247
32.223
32.197
32.171
32.145
32.12
32.095
32.071
32.049
32.028
32.008
31.99
31.973
31.958
31.944
31.931
31.921
31.914
31.911
31.914
31.923
31.944
31.978
32.032
32.11
32.219
32.363
32.55
32.786
33.076
33.421
33.825
34.285
34.799
35.36
35.96
36.591
37.24
37.898
38.551
39.187
39.795
40.363
40.882
41.344
41.743
42.075
42.337
42.531
42.658
42.723
42.73
42.685
42.597
42.472
42.319
42.145
41.955
41.757
41.555
41.353
41.154
40.96
40.773
40.596
40.428
40.271
40.126
39.99
39.864
39.747
39.637
39.532
39.432
39.336
39.242
39.15
39.057
38.962
38.865
38.763
38.656
38.544
38.424
38.297
38.164
38.023
37.877
37.724
37.568
37.411
37.255
37.102
36.953
36.811
36.679
36.563
36.464
36.38
36.31
36.252
36.203
36.162
36.126
36.094
36.064
36.038
36.014
35.994
35.975
35.958
35.941
35.924
35.907
35.889
35.869
35.846
35.82
35.789
35.754
35.715
35.673
35.628
35.58
35.531
35.48
35.428
35.373
35.316
35.255
35.191
35.122
35.05
34.974
34.894
34.812
34.727
34.641
34.553
34.464
34.375
34.288
34.202
34.119
34.038
33.961
33.887
33.816
33.749
33.683
33.618
33.554
33.492
33.43
33.369
33.311
33.255
33.202
33.151
33.103
33.057
33.013
32.969
32.926
32.882
32.838
32.794
32.75
32.707
32.666
32.629
32.596
32.57
32.551
32.54
32.536
32.537
32.541
32.547
32.554
32.559
32.561
32.56
32.556
32.549
32.54
32.529
32.518
32.507
32.496
32.487
32.479
32.472
32.467
32.462
32.456
32.449
32.442
32.433
32.424
32.416
32.409
32.403
32.4
32.396
32.393
32.39
32.385
32.378
32.371
32.363
32.354
32.346
32.338
32.329
32.321
32.314
32.306
32.299
32.293
32.287
32.281
32.275
32.269
32.262
32.254
32.245
32.234
32.221
32.204
32.184
32.162
32.138
32.113
32.087
32.061
32.035
32.01
31.985
31.963
31.942
31.922
31.904
31.887
31.87
31.856
31.845
31.841
31.846
31.865
31.901
31.959
32.045
32.164
32.323
32.528
32.784
33.094
33.461
33.884
34.361
34.887
35.458
36.064
36.695
37.341
37.991
38.633
39.255
39.846
40.397
40.899
41.345
41.731
42.053
42.31
42.502
42.632
42.701
42.715
42.679
42.599
42.483
42.337
42.167
41.978
41.775
41.564
41.348
41.132
40.919
40.711
40.511
40.321
40.142
39.974
39.818
39.673
39.54
39.418
39.305
39.199
39.098
39.0
38.902
38.804
38.702
38.596
38.483
38.364
38.237
38.101
37.957
37.806
37.649
37.487
37.322
37.157
36.994
36.835
36.682
36.536
36.4
36.275
36.161
36.062
35.976
35.904
35.846
35.802
35.769
35.747
35.733
35.727
35.726
35.73
35.736
35.744
35.754
35.763
35.772
35.778
35.782
35.783
35.78
35.771
35.754
35.731
35.7
35.662
35.618
35.569
35.516
35.458
35.397
35.334
35.267
35.199
35.13
35.06
34.988
34.915
34.841
34.767
34.691
34.614
34.536
34.456
34.373
34.29
34.205
34.119
34.035
33.952
33.871
33.794
33.721
33.653
33.588
33.528
33.469
33.411
33.352
33.293
33.233
33.173
33.114
33.056
33.001
32.945
32.885
32.82
32.751
32.68
32.61
32.543
32.481
32.428
32.384
32.351
32.327
32.313
32.307
32.31
32.318
32.331
32.347
32.365
32.383
32.402
32.419
32.434
32.445
32.451
32.453
32.451
32.445
32.436
32.426
32.414
32.403
32.39
32.378
32.364
32.35
32.335
32.321
32.307
32.294
32.283
32.275
32.269
32.267
32.268
32.271
32.276
32.281
32.286
32.289
32.291
32.289
32.285
32.279
32.271
32.263
32.254
32.244
32.234
32.223
32.211
32.198
32.184
32.17
32.156
32.142
32.128
32.114
32.099
32.082
32.065
32.047
32.029
32.011
31.993
31.977
31.962
31.949
31.938
31.928
31.918
31.91
31.903
31.898
31.893
31.89
31.888
31.887
31.888
31.893
31.903
31.921
31.951
31.998
32.068
32.167
32.303
32.481
32.707
32.986
33.322
33.713
34.16
34.659
35.205
35.79
36.405
37.04
37.682
38.321
38.944
39.54
40.099
40.612
41.072
41.475
41.816
42.095
42.312
42.467
42.564
42.606
42.597
42.543
42.449
42.321
42.164
41.983
41.785
41.574
41.356
41.136
40.916
40.7
40.49
40.29
40.1
39.921
