Trial 1:0back
32.826
32.805
32.785
32.767
32.752
32.739
32.729
32.723
32.719
32.719
32.723
32.73
32.741
32.754
32.768
32.78
32.792
32.801
32.809
32.813
32.814
32.809
32.8
32.785
32.765
32.742
32.715
32.686
32.655
32.624
32.593
32.566
32.544
32.53
32.527
32.537
32.564
32.613
32.688
32.793
32.932
33.109
33.329
33.597
33.915
34.281
34.693
35.145
35.629
36.137
36.658
37.178
37.687
38.173
38.626
39.038
39.403
39.716
39.974
40.176
40.323
40.415
40.455
40.448
40.401
40.32
40.212
40.083
39.94
39.787
39.631
39.475
39.323
39.175
39.034
38.899
38.771
38.65
38.537
38.43
38.329
38.234
38.143
38.055
37.969
37.883
37.797
37.709
37.62
37.527
37.429
37.327
37.222
37.113
37.001
36.884
36.764
36.64
36.513
36.383
36.251
36.118
35.984
35.851
35.722
35.597
35.479
35.367
35.262
35.164
35.076
34.998
34.931
34.874
34.826
34.788
34.76
34.74
34.73
34.728
34.731
34.741
34.756
34.776
34.799
34.824
34.849
34.872
34.893
34.912
34.93
34.943
34.952
34.955
34.953
34.946
34.932
34.913
34.886
34.853
34.814
34.771
34.724
34.674
34.619
34.561
34.501
34.439
34.374
34.306
34.235
34.161
34.085
34.006
33.927
33.847
33.765
33.683
33.601
33.52
33.441
33.364
33.292
33.225
33.165
33.112
33.067
33.028
32.996
32.969
32.946
32.928
32.913
32.901
32.891
32.882
32.874
32.867
32.859
32.851
32.844
32.836
32.827
32.817
32.806
32.793
32.778
32.764
32.749
32.735
32.721
32.707
32.693
32.68
32.668
32.656
32.647
32.64
32.635
32.633
32.634
32.638
32.643
32.649
32.654
32.659
32.664
32.668
32.673
32.68
32.692
32.711
32.742
32.789
32.858
32.953
33.081
33.247
33.458
33.716
34.024
34.381
34.784
35.226
35.701
36.199
36.709
37.218
37.716
38.193
38.64
39.048
39.413
39.729
39.993
40.204
40.361
40.466
40.521
40.531
40.5
40.434
40.338
40.218
40.082
39.935
39.782
39.627
39.472
39.32
39.173
39.033
38.899
38.772
38.652
38.538
38.429
38.327
38.23
38.139
38.052
37.969
37.888
37.809
37.729
37.647
37.562
37.474
37.383
37.29
37.194
37.094
36.991
36.885
36.774
36.659
36.539
36.413
36.283
36.149
36.015
35.881
35.748
35.615
35.483
35.353
35.229
35.114
35.009
34.918
34.84
34.777
34.73
34.697
34.679
34.674
34.681
34.698
34.722
34.752
34.785
34.82
34.854
34.887
34.916
34.94
34.958
34.97
34.973
34.969
34.959
34.943
34.92
34.891
34.855
34.813
34.765
34.713
34.658
34.6
34.54
34.479
34.418
34.358
34.3
34.243
34.186
34.13
34.074
34.019
33.965
33.912
33.86
33.807
33.755
33.702
33.649
33.597
33.545
33.493
33.442
33.391
33.341
33.291
33.241
33.192
33.144
33.097
33.052
33.009
32.97
32.932
32.899
32.871
32.847
32.828
32.813
32.802
32.794
32.789
32.785
32.783
32.78
32.776
32.771
32.765
32.757
32.749
32.741
32.733
32.725
32.716
32.705
32.694
32.683
32.673
32.665
32.659
32.656
32.654
32.654
32.656
32.66
32.666
32.671
32.678
32.684
32.69
32.696
32.703
32.71
32.718
32.731
32.75
32.778
32.819
32.876
32.954
33.058
33.194
33.368
33.585
33.85
34.163
34.525
34.932
35.379
35.857
36.356
36.863
37.368
37.86
38.329
38.767
39.163
39.513
39.811
40.055
40.244
40.38
40.463
40.498
40.491
40.445
40.367
40.263
40.138
39.999
39.85
39.695
39.537
39.38
39.224
39.072
38.924
38.781
38.64
38.503
38.37
38.241
38.118
38.0
37.886
37.777
37.673
37.573
37.478
37.386
37.298
37.213
37.13
37.048
36.967
36.884
36.799
36.711
36.621
36.527
36.43
36.329
36.224
36.114
36.001
35.886
35.77
35.653
35.538
35.425
35.316
35.213
35.118
35.031
34.956
34.892
34.84
34.801
34.774
34.757
34.749
34.75
34.758
34.774
34.796
34.824
34.856
34.891
34.927
34.962
34.996
35.025
35.049
35.066
35.075
35.076
35.069
35.054
35.029
34.995
34.953
34.904
34.849
34.79
34.729
34.665
34.6
34.533
34.465
34.397
34.328
34.26
34.193
34.129
34.067
34.008
33.951
33.894
33.838
33.783
33.73
33.68
33.632
33.587
33.542
33.497
33.453
33.409
33.365
33.32
33.275
33.23
33.184
33.141
33.1
33.061
33.025
32.991
32.958
32.929
32.904
32.882
32.865
32.851
32.841
32.835
32.832
32.831
32.83
32.83
32.83
32.83
32.831
32.83
32.828
32.823
32.815
32.804
32.791
32.775
32.755
32.733
32.708
32.683
32.659
32.636
32.617
32.601
32.59
32.583
32.583
32.59
32.606
32.634
32.678
32.741
32.827
32.941
33.086
33.269
33.493
33.761
34.075
34.434
34.834
35.27
35.734
36.217
36.708
37.197
37.671
38.118
38.53
38.898
39.218
39.486
39.701
39.861
39.967
40.024
40.033
40.002
39.936
39.842
39.727
39.596
39.453
39.303
39.149
38.996
38.847
38.701
38.56
38.424
38.293
38.168
38.047
37.932
37.82
37.711
37.604
37.499
37.396
37.293
37.19
37.085
36.977
36.867
36.755
36.641
36.525
36.408
36.289
36.169
36.048
35.928
35.808
35.69
35.575
35.464
35.358
35.259
35.167
35.082
35.004
34.934
34.872
34.818
34.771
34.733
34.703
34.68
34.666
34.661
34.663
34.671
34.685
34.703
34.726
34.754
34.785
34.818
34.851
34.884
34.915
34.945
34.971
34.994
35.012
35.024
35.031
35.031
35.025
35.013
34.994
34.968
34.936
34.898
34.854
34.802
34.743
34.677
34.604
34.526
34.444
34.36
34.273
34.185
34.097
34.008
33.92
33.831
33.743
33.657
33.576
33.502
33.434
33.375
33.324
33.282
33.248
33.222
33.203
33.188
33.178
33.17
33.164
33.158
33.151
33.143
33.134
33.122
33.108
33.09
33.068
33.044
33.019
32.991
32.962
32.933
32.904
32.877
32.852
32.828
32.807
32.787
32.769
32.753
32.74
32.73
32.723
32.717
32.713
32.713
32.716
32.725
32.739
32.759
32.787
32.826
32.88
32.954
33.052
33.18
33.343
33.547
33.795
34.089
34.429
34.81
35.229
35.678
36.149
36.631
37.114
37.586
38.037
38.458
38.841
39.181
39.474
39.717
39.909
40.05
40.142
40.189
40.195
40.165
40.103
40.014
39.902
39.772
39.627
39.472
39.31
39.144
38.976
38.809
38.644
38.483
38.327
38.176
38.031
37.892
37.758
37.631
37.511
37.397
37.291
37.19
37.096
37.008
36.924
36.843
36.764
36.683
36.6
36.513
36.422
36.327
36.227
36.122
36.012
35.897
35.777
35.653
35.525
35.395
35.265
35.137
35.015
34.899
34.792
34.694
34.606
34.53
34.467
34.418
34.382
34.36
34.351
34.354
34.364
34.38
34.399
34.421
34.445
34.473
34.504
34.538
34.574
34.612
34.653
34.696
34.741
34.785
34.826
34.862
34.891
34.912
34.923
34.924
34.913
34.891
34.856
34.81
34.752
34.686
34.612
34.533
34.449
34.364
34.277
34.191
34.107
34.025
33.945
33.868
33.795
33.726
33.661
33.6
33.543
33.489
33.438
33.388
33.339
33.293
33.248
33.205
33.163
33.121
33.08
33.042
33.006
32.973
32.942
32.914
32.888
32.866
32.847
32.831
32.817
32.805
32.796
32.79
32.786
32.785
32.786
32.786
32.785
32.782
32.778
32.772
32.764
32.754
32.742
32.73
32.718
32.706
32.695
32.684
32.672
32.661
32.651
32.647
32.649
32.66
32.684
32.723
32.781
32.863
32.974
33.12
33.306
33.539
33.822
34.156
34.541
34.973
35.445
35.949
36.476
37.013
37.548
38.068
38.559
39.011
39.415
39.766
40.059
40.292
40.465
40.582
40.645
40.662
40.636
40.576
40.488
40.378
40.252
40.115
39.971
39.824
39.677
39.534
39.395
39.262
39.135
39.014
38.899
38.788
38.682
38.58
38.482
38.386
38.293
38.201
38.11
38.022
37.934
37.847
37.76
37.673
37.584
37.494
37.401
37.305
37.204
37.097
36.984
36.865
36.741
36.61
36.475
36.335
36.192
36.047
35.904
35.764
35.627
35.496
35.373
35.26
35.16
35.073
34.999
34.937
34.887
34.85
34.824
34.81
34.806
34.811
34.823
34.842
34.865
34.892
34.921
34.949
34.977
35.002
35.024
35.043
35.059
35.071
35.077
35.078
35.073
35.064
35.05
35.032
35.009
34.981
34.948
34.912
34.873
34.828
34.778
34.722
34.662
34.598
34.531
34.46
34.386
34.309
34.229
34.148
34.068
33.988
33.911
33.836
33.764
33.696
33.632
33.57
33.513
33.459
33.409
33.364
33.324
33.289
33.259
33.232
33.206
33.182
33.158
33.135
33.112
33.089
33.067
33.043
33.019
32.993
32.968
32.942
32.918
32.895
32.873
32.852
32.833
32.816
32.802
32.79
32.778
32.766
32.755
32.746
32.739
32.734
32.731
32.73
32.731
32.733
32.738
32.743
32.749
32.755
32.76
32.764
32.769
32.773
32.778
32.783
32.791
32.805
32.828
32.865
32.919
32.996
33.101
33.24
33.419
33.644
33.918
34.244
34.62
35.042
35.504
35.996
36.507
37.026
37.541
38.039
38.509
38.943
39.333
39.672
39.958
40.19
40.367
40.492
40.566
40.595
40.584
40.537
40.461
40.36
40.24
40.109
39.972
39.832
39.692
39.554
39.418
39.284
39.153
39.023
38.895
38.769
38.646
38.525
38.408
38.294
38.183
38.075
37.972
37.874
37.78
37.692
37.607
37.525
37.447
37.371
37.295
37.219
37.139
37.056
36.968
36.875
36.777
36.672
36.562
36.447
36.327
36.204
36.079
35.952
35.826
35.7
35.579
35.465
35.359
35.263
35.179
35.106
35.046
34.998
34.963
34.94
34.928
34.926
34.933
34.949
34.973
35.002
35.033
35.063
35.092
35.118
35.139
35.156
35.166
35.17
35.167
35.158
35.143
35.121
35.093
35.058
35.017
34.971
34.92
34.866
34.807
34.746
34.681
34.615
34.549
34.482
34.415
34.348
34.282
34.217
34.154
34.094
34.035
33.978
33.922
33.866
33.811
33.755
33.7
33.645
33.59
33.535
33.48
33.425
33.373
33.323
33.275
33.231
33.189
33.151
33.117
33.086
33.059
33.036
33.016
32.997
32.981
32.967
32.956
32.945
32.935
32.924
32.914
32.903
32.892
32.883
32.873
32.865
32.857
32.849
32.841
32.833
32.824
32.816
32.807
32.799
32.791
32.784
32.779
32.776
32.774
32.773
32.773
32.773
32.774
32.774
32.773
32.77
32.765
32.76
32.755
32.752
32.75
32.748
32.748
32.75
32.759
32.777
32.807
32.855
32.923
33.018
33.143
33.304
33.506
33.753
34.047
34.389
34.776
35.204
35.667
36.153
36.653
37.155
37.649
38.123
38.567
38.971
39.329
39.636
39.888
40.085
40.226
40.313
40.351
40.343
40.296
40.215
40.107
39.978
39.835
39.683
39.526
39.367
39.21
39.057
38.91
38.771
38.64
38.518
38.404
38.296
38.195
38.098
38.007
37.919
37.835
37.754
37.675
37.598
37.521
37.443
37.365
37.285
37.203
37.118
37.03
36.938
36.843
36.745
36.641
36.533
36.421
36.306
36.188
36.067
35.943
35.818
35.693
35.57
35.453
35.341
35.238
35.144
35.061
34.99
34.933
34.889
34.86
34.844
34.841
34.851
34.87
34.897
34.93
34.965
35.003
35.042
35.082
35.121
35.157
35.19
35.216
35.236
35.248
35.252
35.246
35.231
35.207
35.176
35.137
35.091
35.039
34.98
34.915
34.844
34.771
34.695
34.618
34.539
34.459
34.379
34.3
34.224
34.151
34.083
34.02
33.963
33.911
33.863
33.818
33.775
33.733
33.692
33.649
33.605
33.56
33.512
33.462
33.411
33.359
33.306
33.254
33.204
33.16
33.12
33.086
33.056
33.032
33.012
32.998
32.989
32.983
32.981
32.979
32.979
32.98
32.981
32.982
32.982
32.98
32.977
32.975
32.98
32.992
33.008
33.028
33.048
33.067
33.082
33.092
33.098
33.099
33.094
33.083
33.066
33.044
33.017
32.987
32.954
32.919
32.885
32.852
32.821
32.792
32.767
32.745
32.73
32.721
32.721
32.73
32.753
32.791
32.848
32.927
33.035
33.176
33.355
33.576
33.842
34.153
34.509
34.904
35.332
35.787
36.259
36.739
37.217
37.682
38.124
38.533
38.903
39.227
39.502
39.724
39.893
40.01
40.079
40.101
40.083
40.029
39.944
39.833
39.701
39.553
39.392
39.222
39.046
38.865
38.683
38.502
38.325
38.154
37.991
37.837
37.691
37.553
37.424
37.301
37.186
37.078
36.976
36.88
36.787
36.696
36.607
36.519
36.43
36.339
36.244
36.146
36.044
35.937
35.827
35.711
35.591
35.468
35.341
35.215
35.089
34.967
34.848
34.735
34.63
34.535
34.451
34.38
34.322
34.277
34.245
34.227
34.225
34.237
34.261
34.298
34.345
34.402
34.466
34.535
34.607
34.679
34.75
34.817
34.881
34.938
34.988
35.029
35.06
35.081
35.091
35.09
35.077
35.052
35.015
34.967
34.91
34.846
34.774
34.697
34.617
34.535
34.454
34.373
34.295
34.218
34.144
34.071
34.0
33.933
33.869
33.808
33.749
33.691
33.635
33.579
33.525
33.471
33.419
33.367
33.314
33.263
33.212
33.163
33.115
33.069
33.027
32.99
32.958
32.933
32.915
32.902
32.894
32.889
32.886
32.885
32.886
32.889
32.895
32.901
32.91
32.918
32.927
32.936
32.944
32.949
32.953
32.954
32.952
32.946
32.937
32.926
32.911
32.895
32.878
32.861
32.845
32.831
32.818
32.807
32.798
32.791
32.788
32.788
32.794
32.804
32.82
32.843
32.875
32.919
32.977
33.053
33.15
33.272
33.425
33.613
33.842
34.114
34.43
34.788
35.185
35.615
36.071
36.544
37.02
37.49
37.943
38.367
38.756
39.102
39.402
39.654
39.855
40.008
40.114
40.175
40.196
40.182
40.137
40.064
39.968
39.853
39.722
39.582
39.434
39.282
39.126
38.97
38.814
38.658
38.504
38.351
38.2
38.052
37.908
37.768
37.633
37.505
37.384
37.271
37.164
37.065
36.971
36.883
36.798
36.716
36.636
36.557
36.476
36.392
36.305
36.214
36.119
36.02
35.918
35.812
35.704
35.595
35.485
35.375
35.265
35.157
35.051
34.951
34.857
34.772
34.697
34.634
34.582
34.541
34.511
34.492
34.483
34.483
34.491
34.508
34.532
34.563
34.598
34.637
34.677
34.716
34.754
34.789
34.821
34.849
34.872
34.889
34.9
34.904
34.9
34.889
34.869
34.842
34.807
34.765
34.718
34.666
34.612
34.556
34.497
34.437
34.376
34.314
34.252
34.19
34.128
34.066
34.004
33.941
33.879
33.817
33.754
33.692
33.632
33.574
33.519
33.467
33.417
33.371
33.328
33.288
33.251
33.217
33.185
33.154
33.124
33.094
33.065
33.037
33.009
32.982
32.956
32.932
32.911
32.895
32.883
32.876
32.872
32.872
32.874
32.879
32.885
32.892
32.899
32.907
32.914
32.919
32.924
32.927
32.928
32.926
32.923
32.916
32.905
32.893
32.878
32.861
32.844
32.826
32.807
32.79
32.775
32.762
32.752
32.745
32.742
32.744
32.752
32.767
32.79
32.821
32.862
32.916
32.987
33.077
33.189
33.329
33.5
33.709
33.959
34.254
34.593
34.974
35.393
35.844
36.318
36.807
37.299
37.783
38.248
38.685
39.085
39.442
39.753
40.012
40.22
40.376
40.481
40.537
40.548
40.521
40.46
40.373
40.264
40.138
40.0
39.856
39.708
39.558
39.409
39.259
39.109
38.96
38.814
38.671
38.533
38.399
38.27
38.146
38.027
37.912
37.804
37.701
37.603
37.51
37.421
37.336
37.255
37.178
37.104
37.031
36.958
36.882
36.803
36.719
36.631
36.536
36.433
36.324
36.209
36.089
35.966
35.841
35.713
35.587
35.464
35.347
35.238
35.139
35.049
34.97
34.901
34.846
34.803
34.773
34.755
34.749
34.753
34.768
34.793
34.824
34.859
34.898
34.937
34.975
35.012
35.046
35.076
35.099
35.118
35.131
35.138
35.138
35.13
35.113
35.088
35.055
35.013
34.963
34.903
34.834
34.757
34.675
34.591
34.505
34.421
34.337
34.253
34.172
34.093
34.017
33.946
33.879
33.817
33.761
33.712
33.669
33.631
33.597
33.567
33.539
33.514
33.49
33.466
33.44
33.412
33.381
33.348
33.313
33.276
33.237
33.197
33.157
33.118
33.079
33.043
33.01
32.982
32.958
32.939
32.926
32.918
32.916
32.919
32.927
32.936
32.948
32.96
32.975
32.99
33.005
33.02
33.032
33.041
33.048
33.05
33.049
33.045
33.037
33.024
33.008
32.99
32.969
32.947
32.923
32.9
32.878
32.859
32.844
32.833
32.826
32.823
32.823
32.828
32.837
32.849
32.865
32.886
32.913
32.948
32.996
33.058
33.14
33.244
33.376
33.54
33.741
33.982
34.264
34.589
34.955
35.36
35.798
36.262
36.741
37.224
37.701
38.161
38.594
38.99
39.343
39.648
39.901
40.104
40.256
40.358
40.414
40.426
40.4
40.339
40.249
40.133
39.999
39.849
39.69
39.524
39.355
39.187
39.023
38.864
38.712
38.567
38.43
38.302
38.183
38.072
37.969
37.873
37.783
37.698
37.617
37.539
37.465
37.39
37.316
37.24
37.163
37.084
37.002
36.917
36.827
36.733
36.633
36.528
36.418
36.304
36.186
36.066
35.947
35.828
35.711
35.596
35.485
35.378
35.278
35.187
35.105
35.033
34.973
34.925
34.89
34.867
34.857
34.859
34.871
34.891
34.919
34.951
34.986
35.022
35.057
35.09
35.12
35.146
35.167
35.183
35.193
35.198
35.197
35.191
35.178
35.159
35.133
35.1
35.063
35.021
34.974
34.922
34.866
34.805
34.741
34.674
34.605
34.536
34.465
34.396
34.328
34.263
34.199
34.137
34.076
34.017
33.961
33.907
33.856
33.808
33.762
33.717
33.674
33.631
33.59
33.55
33.512
33.475
33.439
33.402
33.366
33.331
33.298
33.266
33.238
33.213
33.192
33.176
33.164
33.157
33.154
33.153
33.153
33.156
33.16
33.165
33.172
33.18
33.189
33.198
33.207
33.217
33.226
33.233
33.238
33.239
33.237
33.231
33.222
33.211
33.196
33.179
33.159
33.136
33.111
33.086
33.062
33.039
33.018
32.999
32.984
32.973
32.967
32.966
32.972
32.987
33.013
33.053
33.111
33.19
33.294
33.428
33.596
33.804
34.056
34.351
34.69
35.068
35.482
35.922
36.38
36.846
37.31
37.761
38.191
38.591
38.954
39.275
39.549
39.774
39.949
40.073
40.149
40.18
40.17
40.124
40.047
39.946
39.825
39.689
39.542
39.388
39.231
39.071
38.911
38.754
38.6
38.452
38.309
38.173
38.043
37.919
37.8
37.685
37.573
37.465
37.36
37.258
37.159
37.063
36.969
36.876
36.784
36.692
36.6
36.508
36.416
36.325
36.233
36.141
36.049
35.957
35.863
35.77
35.676
35.582
35.49
35.401
35.315
35.236
35.164
35.1
35.043
34.993
34.95
34.914
34.885
34.864
34.853
34.851
34.858
34.874
34.899
34.93
34.965
35.002
35.04
35.078
35.116
35.151
35.184
35.213
35.237
35.256
35.268
35.272
35.267
35.253
35.231
35.2
35.161
35.114
35.061
35.002
34.937
34.867
34.79
34.709
34.623
34.536
34.449
34.363
34.28
34.199
34.121
34.048
33.98
33.916
33.857
33.803
33.754
33.711
33.673
33.64
33.61
33.582
33.555
33.529
33.504
33.478
33.451
33.424
33.397
33.369
33.342
33.315
33.289
33.265
33.24
33.216
33.192
33.171
33.152
33.136
33.123
33.114
33.108
33.105
33.104
33.106
33.109
33.112
33.115
33.117
33.118
33.119
33.118
33.114
33.109
33.101
33.089
33.075
33.058
33.039
33.018
32.996
32.976
32.958
32.947
32.943
32.949
32.967
33.002
33.055
33.132
33.236
33.374
33.548
33.762
34.02
34.323
34.67
35.06
35.486
35.942
36.418
36.905
37.389
37.861
38.31
38.727
39.104
39.436
39.717
39.945
40.121
40.248
40.327
40.363
40.36
40.322
40.256
40.165
40.057
39.935
39.804
39.667
39.528
39.388
39.25
39.116
38.985
38.86
38.738
38.62
38.506
38.397
38.291
38.189
38.09
37.991
37.893
37.795
37.697
37.599
37.501
37.403
37.303
37.201
37.098
36.995
36.892
36.788
36.683
36.575
36.465
36.353
36.24
36.128
36.016
35.905
35.796
35.69
35.588
35.49
35.397
35.31
35.23
35.16
35.101
35.052
35.014
34.986
34.968
34.96
34.963
34.973
34.99
35.011
35.035
35.063
35.095
35.128
35.161
35.193
35.223
35.25
35.272
35.286
35.291
35.286
35.272
35.253
35.228
35.199
35.165
35.127
35.085
35.04
34.992
34.941
34.885
34.823
34.755
34.682
34.604
34.522
34.436
34.346
34.254
34.16
34.067
33.976
33.889
33.805
33.725
33.651
33.584
33.523
33.468
33.419
33.374
33.335
33.301
33.271
33.246
33.224
33.206
33.19
33.177
33.167
33.158
33.151
33.145
33.139
33.134
33.127
33.121
33.114
33.109
33.104
33.1
33.095
33.089
33.085
33.081
33.08
33.082
33.086
33.093
33.103
33.115
33.129
33.143
33.156
33.168
33.179
33.189
33.198
33.205
33.208
33.205
33.199
33.188
33.174
33.156
33.135
33.112
33.091
33.072
33.057
33.048
33.048
33.059
33.084
33.126
33.189
33.277
33.395
33.547
33.738
33.972
34.253
34.581
34.954
35.369
35.818
36.295
36.789
37.288
37.782
38.26
