Trial 1:0back
33.299
33.273
33.248
33.223
33.199
33.175
33.152
33.129
33.105
33.082
33.059
33.036
33.012
32.987
32.962
32.936
32.91
32.883
32.857
32.83
32.804
32.778
32.753
32.729
32.705
32.681
32.658
32.635
32.614
32.594
32.576
32.559
32.543
32.53
32.52
32.516
32.518
32.529
32.553
32.591
32.646
32.721
32.817
32.935
33.077
33.241
33.428
33.633
33.855
34.09
34.335
34.586
34.839
35.09
35.335
35.571
35.793
36.0
36.19
36.36
36.51
36.638
36.745
36.83
36.894
36.939
36.966
36.976
36.97
36.951
36.921
36.881
36.832
36.776
36.713
36.646
36.574
36.499
36.422
36.344
36.264
36.183
36.102
36.021
35.94
35.86
35.782
35.706
35.631
35.559
35.489
35.421
35.353
35.287
35.22
35.155
35.09
35.026
34.963
34.902
34.843
34.784
34.728
34.672
34.619
34.567
34.517
34.47
34.426
34.386
34.35
34.32
34.295
34.276
34.263
34.255
34.253
34.256
34.264
34.276
34.292
34.313
34.336
34.362
34.39
34.42
34.451
34.482
34.511
34.539
34.565
34.588
34.608
34.625
34.64
34.651
34.659
34.664
34.664
34.661
34.655
34.645
34.633
34.618
34.601
34.583
34.562
34.541
34.518
34.493
34.468
34.441
34.413
34.385
34.357
34.329
34.303
34.276
34.251
34.225
34.2
34.173
34.146
34.117
34.087
34.056
34.024
33.99
33.954
33.917
33.878
33.838
33.797
33.757
33.717
33.678
33.642
33.608
33.576
33.547
33.521
33.497
33.475
33.456
33.438
33.421
33.406
33.391
33.375
33.36
33.345
33.329
33.312
33.295
33.277
33.258
33.238
33.218
33.197
33.175
33.153
33.131
33.11
33.089
33.07
33.053
33.039
33.03
33.027
33.032
33.047
33.077
33.122
33.185
33.269
33.375
33.505
33.658
33.835
34.033
34.252
34.488
34.737
34.996
35.261
35.528
35.791
36.048
36.296
36.531
36.75
36.952
37.135
37.298
37.441
37.562
37.663
37.743
37.805
37.848
37.874
37.884
37.88
37.864
37.836
37.799
37.752
37.698
37.637
37.571
37.5
37.426
37.349
37.271
37.192
37.113
37.034
36.957
36.881
36.807
36.733
36.662
36.592
36.523
36.456
36.391
36.328
36.266
36.206
36.148
36.091
36.035
35.981
35.927
35.874
35.821
35.769
35.719
35.668
35.62
35.572
35.526
35.482
35.442
35.405
35.372
35.343
35.319
35.299
35.284
35.273
35.265
35.262
35.261
35.264
35.269
35.277
35.287
35.3
35.314
35.329
35.346
35.364
35.382
35.4
35.418
35.435
35.45
35.463
35.474
35.482
35.487
35.489
35.487
35.482
35.474
35.463
35.449
35.433
35.413
35.391
35.367
35.341
35.312
35.283
35.251
35.219
35.186
35.154
35.12
35.087
35.053
35.018
34.983
34.947
34.91
34.872
34.834
34.796
34.758
34.721
34.684
34.649
34.614
34.579
34.545
34.51
34.475
34.44
34.406
34.371
34.336
34.302
34.268
34.234
34.201
34.169
34.139
34.111
34.083
34.056
34.03
34.006
33.981
33.958
33.935
33.913
33.892
33.871
33.851
33.831
33.81
33.79
33.77
33.749
33.728
33.705
33.681
33.657
33.633
33.608
33.583
33.559
33.536
33.515
33.497
33.483
33.476
33.479
33.492
33.52
33.565
33.629
33.715
33.824
33.956
34.112
34.291
34.49
34.708
34.941
35.186
35.441
35.699
35.959
36.216
36.467
36.709
36.938
37.152
37.35
37.53
37.69
37.832
37.953
38.056
38.139
38.203
38.249
38.279
38.292
38.291
38.276
38.249
38.21
38.161
38.103
38.038
37.967
37.891
37.811
37.728
37.644
37.558
37.472
37.387
37.303
37.219
37.138
37.058
36.981
36.907
36.836
36.768
36.702
36.639
36.579
36.521
36.465
36.41
36.356
36.304
36.252
36.2
36.149
36.098
36.047
35.996
35.946
35.897
35.849
35.804
35.76
35.72
35.684
35.651
35.622
35.597
35.575
35.557
35.544
35.533
35.527
35.524
35.523
35.526
35.531
35.539
35.548
35.558
35.57
35.582
35.595
35.607
35.618
35.628
35.636
35.642
35.646
35.647
35.645
35.64
35.631
35.619
35.605
35.587
35.567
35.545
35.521
35.496
35.469
35.442
35.413
35.383
35.353
35.321
35.288
35.254
35.218
35.182
35.144
35.106
35.068
35.03
34.994
34.958
34.923
34.888
34.853
34.817
34.78
34.743
34.705
34.667
34.628
34.589
34.549
34.51
34.47
34.431
34.393
34.355
34.318
34.282
34.247
34.213
34.179
34.147
34.116
34.085
34.056
34.028
34.0
33.973
33.946
33.919
33.893
33.868
33.844
33.819
33.796
33.773
33.75
33.728
33.706
33.685
33.664
33.643
33.622
33.601
33.58
33.558
33.537
33.516
33.496
33.48
33.467
33.461
33.464
33.479
33.509
33.556
33.624
33.714
33.827
33.965
34.128
34.312
34.518
34.742
34.98
35.229
35.485
35.743
36.002
36.255
36.5
36.733
36.952
37.154
37.337
37.5
37.642
37.764
37.864
37.944
38.004
38.046
38.07
38.077
38.07
38.048
38.015
37.971
37.918
37.857
37.789
37.716
37.638
37.558
37.475
37.39
37.304
37.218
37.131
37.045
36.959
36.874
36.791
36.71
36.63
36.553
36.477
36.405
36.335
36.268
36.203
36.141
36.08
36.02
35.96
35.9
35.841
35.781
35.72
35.66
35.601
35.544
35.488
35.436
35.387
35.343
35.303
35.268
35.238
35.213
35.194
35.18
35.171
35.166
35.165
35.167
35.172
35.18
35.189
35.199
35.211
35.223
35.236
35.249
35.262
35.275
35.288
35.3
35.311
35.32
35.329
35.336
35.342
35.346
35.349
35.35
35.349
35.346
35.341
35.334
35.323
35.308
35.29
35.268
35.243
35.215
35.184
35.151
35.116
35.08
35.042
35.004
34.964
34.924
34.883
34.842
34.801
34.76
34.72
34.68
34.64
34.601
34.563
34.526
34.49
34.454
34.419
34.385
34.351
34.318
34.284
34.251
34.218
34.185
34.153
34.121
34.089
34.058
34.028
33.998
33.969
33.941
33.913
33.885
33.857
33.829
33.801
33.773
33.744
33.716
33.687
33.658
33.63
33.602
33.575
33.55
33.526
33.503
33.482
33.463
33.445
33.429
33.413
33.398
33.383
33.367
33.352
33.338
33.324
33.312
33.303
33.299
33.302
33.314
33.339
33.379
33.437
33.516
33.618
33.744
33.894
34.067
34.261
34.475
34.705
34.948
35.2
35.456
35.713
35.965
36.21
36.444
36.663
36.865
37.049
37.211
37.352
37.472
37.569
37.646
37.703
37.74
37.76
37.764
37.754
37.73
37.695
37.65
37.596
37.535
37.467
37.394
37.316
37.234
37.149
37.062
36.974
36.884
36.793
36.703
36.614
36.526
36.441
36.358
36.277
36.198
36.121
36.046
35.974
35.905
35.838
35.774
35.712
35.651
35.593
35.535
35.479
35.423
35.368
35.314
35.26
35.208
35.157
35.108
35.062
35.019
34.98
34.946
34.917
34.893
34.875
34.862
34.855
34.852
34.854
34.861
34.871
34.886
34.902
34.921
34.942
34.964
34.987
35.01
35.033
35.055
35.076
35.097
35.116
35.133
35.147
35.159
35.167
35.173
35.175
35.174
35.169
35.161
35.15
35.136
35.118
35.098
35.075
35.05
35.022
34.993
34.962
34.929
34.894
34.858
34.821
34.783
34.744
34.704
34.665
34.625
34.585
34.546
34.507
34.469
34.432
34.395
34.36
34.326
34.292
34.26
34.229
34.2
34.172
34.146
34.121
34.096
34.072
34.047
34.021
33.995
33.967
33.939
33.911
33.883
33.854
33.824
33.795
33.765
33.735
33.706
33.677
33.649
33.622
33.595
33.569
33.543
33.518
33.494
33.471
33.45
33.429
33.409
33.39
33.372
33.354
33.338
33.322
33.307
33.293
33.279
33.267
33.257
33.25
33.248
33.254
33.27
33.299
33.345
33.408
33.493
33.6
33.731
33.887
34.066
34.268
34.49
34.729
34.981
35.242
35.508
35.773
36.035
36.29
36.535
36.765
36.981
37.179
37.358
37.518
37.657
37.775
37.873
37.951
38.009
38.05
38.073
38.08
38.072
38.051
38.019
37.976
37.923
37.863
37.796
37.723
37.645
37.565
37.481
37.396
37.311
37.225
37.14
37.055
36.973
36.891
36.812
36.736
36.663
36.592
36.524
36.459
36.397
36.337
36.279
36.223
36.169
36.115
36.061
36.008
35.954
35.901
35.848
35.795
35.743
35.692
35.643
35.596
35.552
35.51
35.471
35.436
35.405
35.377
35.352
35.332
35.315
35.303
35.296
35.293
35.295
35.301
35.312
35.326
35.344
35.363
35.384
35.405
35.426
35.445
35.463
35.479
35.492
35.503
35.511
35.516
35.52
35.52
35.518
35.513
35.506
35.497
35.486
35.473
35.458
35.441
35.421
35.4
35.377
35.352
35.324
35.294
35.262
35.228
35.192
35.156
35.118
35.08
35.042
35.003
34.964
34.925
34.887
34.849
34.812
34.776
34.74
34.705
34.67
34.635
34.6
34.566
34.531
34.497
34.464
34.43
34.397
34.365
34.332
34.301
34.269
34.238
34.207
34.176
34.146
34.117
34.088
34.06
34.033
34.007
33.982
33.957
33.933
33.908
33.884
33.859
33.833
33.807
33.781
33.755
33.728
33.703
33.677
33.652
33.627
33.603
33.578
33.554
33.529
33.505
33.481
33.459
33.438
33.421
33.408
33.401
33.403
33.416
33.442
33.484
33.545
33.627
33.731
33.859
34.01
34.184
34.38
34.595
34.827
35.073
35.33
35.594
35.861
36.129
36.393
36.65
36.898
37.133
37.353
37.556
37.74
37.903
38.046
38.167
38.267
38.345
38.403
38.441
38.461
38.463
38.45
38.424
38.385
38.336
38.278
38.212
38.14
38.063
37.982
37.898
37.812
37.724
37.637
37.549
37.463
37.378
37.294
37.212
37.13
37.05
36.971
36.896
36.822
36.752
36.684
36.619
36.555
36.494
36.435
36.376
36.319
36.263
36.208
36.153
36.098
36.045
35.993
35.942
35.892
35.845
35.799
35.757
35.718
35.683
35.652
35.626
35.603
35.586
35.573
35.565
35.56
35.56
35.564
35.57
35.58
35.592
35.606
35.621
35.636
35.652
35.666
35.68
35.691
35.701
35.708
35.713
35.715
35.715
35.713
35.709
35.702
35.694
35.684
35.672
35.659
35.644
35.627
35.609
35.59
35.569
35.547
35.524
35.5
35.474
35.447
35.419
35.389
35.358
35.325
35.291
35.256
35.22
35.184
35.148
35.11
35.073
35.035
34.996
34.957
34.918
34.878
34.838
34.8
34.762
34.726
34.692
34.659
34.626
34.594
34.563
34.531
34.5
34.469
34.438
34.407
34.375
34.342
34.307
34.272
34.235
34.199
34.161
34.124
34.087
34.051
34.016
33.982
33.95
33.919
33.889
33.861
33.834
33.808
33.783
33.759
33.735
33.712
33.689
33.667
33.645
33.623
33.601
33.58
33.559
33.538
33.52
33.503
33.49
33.482
33.482
33.493
33.517
33.559
33.619
33.702
33.808
33.939
34.095
34.275
34.478
34.701
34.944
35.201
35.469
35.745
36.024
36.302
36.576
36.842
37.096
37.336
37.561
37.767
37.953
38.12
38.265
38.39
38.494
38.577
38.64
38.684
38.71
38.72
38.715
38.697
38.667
38.627
38.579
38.523
38.462
38.396
38.325
38.252
38.175
38.096
38.015
37.932
37.848
37.762
37.675
37.588
37.501
37.415
37.33
37.247
37.167
37.09
37.016
36.945
36.877
36.811
36.749
36.688
36.628
36.569
36.511
36.453
36.396
36.339
36.283
36.229
36.175
36.124
36.076
36.031
35.991
35.955
35.923
35.896
35.873
35.853
35.838
35.826
35.819
35.814
35.814
35.819
35.827
35.838
35.854
35.872
35.893
35.915
35.939
35.963
35.986
36.009
36.03
36.05
36.067
36.081
36.092
36.099
36.102
36.1
36.095
36.086
36.072
36.055
36.033
36.009
35.982
35.953
35.923
35.891
35.858
35.824
35.789
35.753
35.716
35.678
35.639
35.598
35.557
35.514
35.47
35.425
35.379
35.334
35.289
35.245
35.202
35.161
35.12
35.081
35.041
35.001
34.962
34.922
34.882
34.841
34.8
34.759
34.718
34.676
34.634
34.592
34.551
34.511
34.471
34.433
34.396
34.361
34.328
34.296
34.264
34.234
34.204
34.175
34.146
34.118
34.088
34.057
34.026
33.994
33.961
33.928
33.897
33.865
33.836
33.808
33.782
33.76
33.741
33.726
33.719
33.721
33.735
33.763
33.809
33.875
33.964
34.078
34.217
34.383
34.574
34.789
35.025
35.281
35.552
35.834
36.124
36.417
36.71
36.998
37.278
37.547
37.801
38.037
38.254
38.449
38.623
38.773
38.901
39.006
39.089
39.152
39.195
39.22
39.229
39.224
39.205
39.175
39.135
39.086
39.029
38.967
38.899
38.827
38.751
38.672
38.591
38.508
38.424
38.339
38.254
38.168
38.083
37.999
37.915
37.832
37.749
37.667
37.587
37.507
37.429
37.351
37.274
37.198
37.122
37.046
36.972
36.897
36.823
36.751
36.679
36.61
36.543
36.48
36.42
36.365
36.316
36.271
36.232
36.2
36.173
36.153
36.139
36.13
36.128
36.131
36.139
36.151
36.167
36.187
36.209
36.232
36.258
36.283
36.309
36.333
36.356
36.377
36.395
36.411
36.424
36.434
36.44
36.443
36.442
36.439
36.431
36.42
36.404
36.385
36.361
36.334
36.303
36.268
36.231
36.191
36.149
36.104
36.058
36.011
35.963
35.914
35.865
35.816
35.766
35.716
35.666
35.616
35.567
35.518
35.47
35.423
35.377
35.331
35.286
35.241
35.196
35.151
35.106
35.062
35.018
34.974
34.931
34.889
34.848
34.808
34.768
34.728
34.689
34.65
34.611
34.572
34.532
34.493
34.453
34.413
34.374
34.336
34.299
34.262
34.225
34.189
34.153
34.117
34.082
34.046
34.011
33.975
33.94
33.905
33.87
33.834
33.799
33.764
33.731
33.7
33.672
33.649
33.634
33.629
33.636
33.66
33.702
33.767
33.856
33.974
34.12
34.295
34.5
34.732
34.99
35.271
35.571
35.886
36.211
36.543
36.876
37.207
37.53
37.842
38.141
38.422
38.684
38.925
39.144
39.34
39.513
39.664
39.793
39.901
39.989
40.057
40.108
40.142
40.159
40.162
40.15
40.125
40.089
40.042
39.987
39.923
39.853
39.777
39.697
39.614
39.528
39.441
39.353
39.265
39.177
39.091
39.006
38.922
38.841
38.761
38.682
38.605
38.529
38.456
38.383
38.311
38.24
38.169
38.098
38.027
37.955
37.883
37.81
37.737
37.665
37.593
37.522
37.452
37.385
37.32
37.259
37.202
37.15
37.103
37.062
37.027
36.998
36.976
36.96
36.95
36.946
36.945
36.949
36.956
36.964
36.975
36.987
37.0
37.013
37.026
37.037
37.047
37.056
37.062
37.066
37.068
37.067
37.062
37.053
37.041
37.024
37.004
36.979
36.952
36.921
36.888
36.852
36.813
36.771
36.727
36.682
36.635
36.586
36.537
36.486
36.434
36.381
36.328
36.276
36.224
36.172
36.121
36.07
36.019
35.968
35.916
35.864
35.811
35.758
35.704
35.649
35.594
35.538
35.482
35.425
35.368
35.312
35.255
35.199
35.144
35.09
35.037
34.984
34.933
34.883
34.833
34.783
34.735
34.687
34.64
34.594
34.548
34.504
34.46
34.417
34.376
34.335
34.294
34.253
34.212
34.17
34.128
34.085
34.042
33.999
33.956
33.914
33.872
33.831
33.791
33.753
33.719
33.691
33.671
33.663
33.669
33.693
33.738
33.806
33.901
34.024
34.175
34.356
34.566
34.803
35.064
35.347
35.647
35.961
36.285
36.614
36.943
37.269
37.588
37.895
38.188
38.464
38.72
38.954
39.165
39.352
39.514
39.652
39.765
39.856
39.925
39.974
40.003
40.014
40.01
39.991
39.961
39.919
39.868
39.809
39.742
39.668
39.59
39.507
39.42
39.331
39.239
39.147
39.052
38.957
38.862
38.766
38.671
38.576
38.482
38.39
38.299
38.21
38.123
38.036
37.95
37.864
37.778
37.692
37.606
37.52
37.435
37.35
37.266
37.183
37.101
37.022
36.944
36.87
36.8
36.733
36.672
36.616
36.566
36.522
36.484
36.451
36.423
36.4
36.382
36.368
36.359
36.354
36.352
36.352
36.353
36.356
36.359
36.363
36.367
36.37
36.373
36.374
36.374
36.372
36.368
36.361
36.351
36.338
36.321
36.3
36.275
36.247
36.214
36.179
36.14
36.1
36.057
36.012
35.966
35.919
35.87
35.82
35.77
35.719
35.667
35.616
35.564
35.511
35.458
35.405
35.351
35.296
35.24
35.184
35.128
35.071
35.015
34.96
34.904
34.849
34.793
34.738
34.683
34.628
34.574
34.519
34.465
34.411
34.358
34.305
34.253
34.202
34.151
34.1
34.049
33.998
33.947
33.896
33.845
33.795
33.745
33.696
33.648
33.601
33.555
33.51
33.466
33.423
33.381
33.34
33.298
33.257
33.216
33.176
33.136
33.097
33.058
33.021
32.985
32.952
32.924
32.903
32.891
32.893
32.911
32.95
33.013
33.103
33.222
33.37
33.548
33.754
33.986
34.241
34.515
34.805
35.105
35.412
35.721
36.028
36.328
36.618
36.894
37.154
37.394
37.614
37.81
37.984
38.133
38.258
38.36
38.44
38.498
38.536
38.556
38.56
38.549
38.525
38.488
38.44
38.383
38.317
38.245
38.166
38.082
37.994
37.901
37.806
37.709
37.611
37.512
37.413
37.315
37.218
37.122
37.027
36.933
36.841
36.75
36.659
36.57
36.482
36.394
36.306
36.22
36.134
36.05
35.967
35.884
35.802
35.72
35.64
35.562
35.486
35.414
35.346
35.282
35.223
35.17
35.122
35.082
35.047
35.019
34.997
34.981
34.971
34.965
34.964
34.966
34.973
34.985
35.0
35.018
35.04
35.063
35.088
35.113
35.136
35.159
35.178
35.194
35.206
35.213
35.216
35.213
35.205
35.192
35.175
35.153
35.127
35.097
35.063
35.026
34.987
34.946
34.903
34.859
34.814
34.769
34.724
34.679
34.634
34.589
34.545
34.501
34.457
34.413
34.369
34.324
34.278
34.232
34.184
34.136
34.087
34.037
33.987
33.937
33.887
33.837
33.787
33.737
33.688
33.639
33.59
33.543
33.498
33.453
33.41
33.369
33.329
33.29
33.252
33.214
33.177
33.14
33.103
33.066
33.029
32.992
32.954
32.917
32.88
32.843
32.805
32.768
32.731
32.694
32.658
32.623
32.59
32.559
32.533
32.513
32.502
32.501
32.514
32.545
32.595
32.668
32.766
32.889
33.039
33.214
33.413
33.635
33.877
34.136
34.408
34.687
34.971
35.255
35.535
35.807
36.068
36.315
36.544
36.754
36.943
37.111
37.256
37.379
37.48
37.559
37.618
37.657
37.679
37.683
37.673
37.648
37.611
37.564
37.507
37.443
37.372
37.296
37.216
37.133
37.048
36.961
36.873
36.784
36.695
36.604
36.513
36.421
36.328
36.235
36.143
36.051
35.959
35.869
35.779
35.69
35.602
35.515
35.428
35.342
35.258
35.175
35.095
35.016
34.941
34.868
34.799
34.733
34.672
34.616
34.565
34.52
34.481
34.449
34.424
34.406
34.394
34.389
34.389
34.393
34.402
34.413
34.427
34.443
34.459
34.477
34.495
34.512
34.53
34.548
34.566
34.583
34.599
34.614
34.628
34.639
34.646
34.65
34.649
34.644
34.635
34.621
34.603
34.582
34.557
34.529
34.498
34.464
34.429
34.392
34.354
34.314
34.275
34.234
34.194
34.152
34.111
34.068
34.025
33.982
33.939
33.895
33.851
33.806
33.762
33.717
33.674
33.63
33.588
33.545
33.503
33.461
33.42
33.38
33.341
33.303
33.266
33.23
33.195
33.16
33.126
33.093
33.06
33.028
32.996
32.964
32.932
32.901
32.869
32.838
32.807
32.775
32.745
32.714
32.683
32.653
32.624
32.596
32.568
32.54
32.512
32.485
32.457
32.431
32.405
32.38
32.356
32.333
32.311
32.291
32.274
32.261
32.254
32.255
32.268
32.295
32.339
32.405
32.494
32.609
32.752
32.922
33.12
33.343
33.591
33.859
34.143
34.44
34.746
35.054
35.362
35.665
35.958
36.238
36.501
36.745
36.967
37.166
37.34
37.489
37.614
37.715
37.794
37.851
37.889
37.909
37.912
37.901
37.875
37.837
37.788
37.729
37.663
37.59
37.511
37.429
37.344
37.258
37.171
37.085
37.0
36.917
36.835
36.755
36.677
36.599
36.521
36.444
36.366
36.289
36.211
36.135
36.059
35.984
35.912
35.841
35.772
35.704
35.639
35.575
35.513
35.453
35.395
35.339
35.285
35.233
35.184
35.138
35.095
35.055
35.019
34.986
34.957
34.931
34.91
34.892
34.877
34.867
34.861
34.859
34.861
34.865
34.873
34.882
34.894
34.907
34.92
34.935
34.949
34.962
34.974
34.985
34.994
35.001
35.005
35.007
35.006
35.002
34.995
34.986
34.974
34.959
34.943
34.924
34.904
34.882
34.859
34.833
34.805
34.775
34.744
34.711
34.676
34.64
34.602
34.561
34.519
34.475
34.43
34.385
34.339
34.292
34.247
34.201
34.157
34.112
34.069
34.027
33.986
33.947
33.909
33.871
33.835
33.799
33.763
33.727
33.69
33.654
33.617
33.58
33.543
33.507
33.472
33.437
33.403
33.371
33.34
33.311
33.283
33.256
33.231
33.206
33.182
33.158
33.133
33.107
33.08
33.051
33.02
32.989
32.957
32.924
32.892
32.861
32.831
32.802
32.774
32.749
32.727
32.708
32.695
32.688
32.691
32.706
32.737
32.786
32.855
32.949
33.067
33.211
33.381
33.577
33.797
34.038
34.298
34.572
34.857
35.147
35.438
35.726
36.006
36.275
36.529
36.766
36.983
37.179
37.354
37.506
37.636
37.744
