Trial 1:0back
35.975
35.902
35.834
35.771
35.715
35.664
35.619
35.58
35.545
35.515
35.488
35.464
35.442
35.42
35.399
35.378
35.357
35.336
35.315
35.294
35.275
35.257
35.241
35.228
35.218
35.211
35.207
35.207
35.211
35.219
35.231
35.247
35.266
35.288
35.314
35.344
35.375
35.409
35.442
35.474
35.502
35.526
35.544
35.557
35.562
35.561
35.552
35.537
35.516
35.49
35.459
35.425
35.388
35.349
35.311
35.272
35.235
35.199
35.165
35.132
35.101
35.071
35.041
35.012
34.984
34.955
34.925
34.895
34.864
34.832
34.799
34.765
34.73
34.694
34.658
34.62
34.583
34.546
34.509
34.472
34.437
34.404
34.373
34.344
34.318
34.297
34.279
34.266
34.257
34.251
34.247
34.245
34.243
34.241
34.237
34.232
34.226
34.217
34.206
34.193
34.178
34.161
34.145
34.129
34.113
34.1
34.089
34.084
34.086
34.098
34.123
34.161
34.216
34.289
34.38
34.489
34.616
34.759
34.917
35.087
35.266
35.451
35.638
35.823
36.002
36.173
36.332
36.479
36.61
36.725
36.821
36.898
36.956
36.996
37.02
37.029
37.026
37.011
36.986
36.955
36.918
36.877
36.833
36.786
36.738
36.689
36.639
36.588
36.535
36.48
36.424
36.366
36.308
36.25
36.193
36.137
36.082
36.028
35.976
35.925
35.876
35.83
35.787
35.747
35.71
35.676
35.644
35.616
35.59
35.567
35.549
35.534
35.522
35.513
35.507
35.502
35.499
35.496
35.495
35.493
35.492
35.49
35.487
35.485
35.482
35.478
35.475
35.473
35.471
35.472
35.475
35.482
35.493
35.508
35.526
35.546
35.568
35.592
35.615
35.636
35.653
35.665
35.67
35.669
35.66
35.645
35.623
35.595
35.561
35.521
35.477
35.428
35.377
35.325
35.273
35.221
35.172
35.125
35.082
35.041
35.004
34.971
34.942
34.917
34.894
34.874
34.856
34.838
34.821
34.803
34.784
34.764
34.741
34.715
34.688
34.658
34.626
34.592
34.558
34.522
34.487
34.453
34.42
34.392
34.366
34.346
34.329
34.316
34.307
34.301
34.299
34.299
34.301
34.305
34.31
34.314
34.318
34.319
34.318
34.314
34.308
34.299
34.287
34.273
34.258
34.243
34.228
34.217
34.211
34.212
34.223
34.246
34.283
34.335
34.406
34.495
34.603
34.728
34.87
35.026
35.195
35.374
35.559
35.747
35.935
36.118
36.293
36.456
36.605
36.738
36.852
36.946
37.021
37.077
37.115
37.136
37.14
37.131
37.11
37.08
37.042
36.997
36.949
36.897
36.843
36.789
36.734
36.679
36.625
36.573
36.521
36.472
36.424
36.377
36.332
36.287
36.243
36.201
36.16
36.122
36.086
36.051
36.018
35.985
35.952
35.921
35.891
35.864
35.841
35.822
35.807
35.795
35.785
35.777
35.769
35.761
35.754
35.746
35.738
35.73
35.722
35.713
35.702
35.691
35.68
35.669
35.66
35.651
35.644
35.638
35.635
35.634
35.636
35.642
35.65
35.66
35.671
35.684
35.696
35.708
35.718
35.726
35.729
35.728
35.722
35.712
35.695
35.674
35.648
35.616
35.58
35.54
35.496
35.45
35.401
35.351
35.301
35.251
35.204
35.159
35.117
35.079
35.044
35.013
34.985
34.961
34.941
34.922
34.904
34.885
34.866
34.844
34.82
34.794
34.765
34.734
34.7
34.663
34.624
34.585
34.546
34.509
34.473
34.441
34.411
34.386
34.364
34.346
34.332
34.322
34.316
34.313
34.313
34.316
34.321
34.326
34.332
34.337
34.342
34.344
34.345
34.342
34.337
34.329
34.319
34.305
34.29
34.272
34.252
34.23
34.207
34.185
34.163
34.142
34.124
34.109
34.097
34.089
34.084
34.081
34.082
34.084
34.089
34.095
34.104
34.116
34.132
34.152
34.178
34.212
34.255
34.311
34.379
34.46
34.556
34.667
34.792
34.932
35.084
35.246
35.417
35.593
35.77
35.946
36.118
36.282
36.437
36.578
36.705
36.815
36.906
36.979
37.034
37.071
37.092
37.095
37.085
37.06
37.024
36.977
36.922
36.861
36.795
36.727
36.66
36.595
36.533
36.475
36.421
36.371
36.327
36.287
36.252
36.222
36.195
36.171
36.149
36.128
36.109
36.089
36.07
36.049
36.027
36.002
35.975
35.945
35.911
35.874
35.835
35.795
35.755
35.716
35.678
35.642
35.611
35.583
35.56
35.541
35.526
35.517
35.511
35.506
35.498
35.485
35.47
35.455
35.442
35.433
35.428
35.428
35.433
35.442
35.454
35.468
35.482
35.496
35.509
35.519
35.525
35.528
35.528
35.524
35.517
35.507
35.495
35.481
35.465
35.447
35.427
35.405
35.38
35.353
35.322
35.287
35.249
35.208
35.163
35.116
35.066
35.015
34.964
34.911
34.86
34.809
34.76
34.713
34.669
34.63
34.593
34.561
34.531
34.504
34.48
34.459
34.441
34.426
34.414
34.404
34.396
34.388
34.38
34.37
34.359
34.345
34.33
34.313
34.294
34.275
34.254
34.234
34.213
34.194
34.175
34.158
34.142
34.128
34.116
34.105
34.097
34.09
34.087
34.085
34.086
34.088
34.09
34.093
34.095
34.097
34.096
34.094
34.09
34.083
34.073
34.061
34.046
34.028
34.008
33.986
33.963
33.939
33.916
33.895
33.875
33.857
33.842
33.829
33.818
33.809
33.802
33.797
33.793
33.79
33.787
33.784
33.779
33.773
33.765
33.755
33.743
33.73
33.715
33.7
33.687
33.677
33.673
33.677
33.691
33.719
33.761
33.82
33.897
33.994
34.109
34.242
34.393
34.559
34.738
34.926
35.121
35.318
35.514
35.705
35.886
36.056
36.212
36.351
36.472
36.573
36.653
36.713
36.753
36.775
36.78
36.77
36.748
36.715
36.673
36.626
36.574
36.52
36.466
36.411
36.358
36.306
36.256
36.207
36.161
36.116
36.071
36.028
35.986
35.944
35.903
35.861
35.819
35.777
35.735
35.693
35.653
35.614
35.576
35.54
35.506
35.475
35.445
35.419
35.397
35.379
35.366
35.356
35.351
35.35
35.353
35.359
35.367
35.377
35.388
35.4
35.412
35.424
35.435
35.445
35.453
35.46
35.466
35.471
35.474
35.477
35.479
35.481
35.483
35.486
35.488
35.491
35.493
35.495
35.496
35.495
35.493
35.488
35.48
35.469
35.455
35.438
35.416
35.391
35.362
35.329
35.293
35.255
35.215
35.172
35.127
35.079
35.029
34.979
34.928
34.879
34.832
34.787
34.746
34.71
34.678
34.65
34.626
34.606
34.588
34.573
34.56
34.546
34.531
34.516
34.5
34.484
34.466
34.446
34.425
34.402
34.38
34.357
34.335
34.312
34.29
34.269
34.251
34.236
34.223
34.213
34.207
34.203
34.203
34.205
34.21
34.215
34.219
34.224
34.227
34.23
34.231
34.231
34.229
34.225
34.218
34.21
34.202
34.192
34.183
34.172
34.161
34.149
34.136
34.123
34.11
34.098
34.087
34.076
34.066
34.057
34.048
34.041
34.034
34.028
34.021
34.015
34.008
34.0
33.993
33.985
33.978
33.972
33.969
33.97
33.977
33.993
34.02
34.06
34.114
34.184
34.271
34.375
34.495
34.631
34.779
34.94
35.109
35.285
35.464
35.643
35.819
35.988
36.147
36.293
36.424
36.538
36.634
36.71
36.768
36.807
36.828
36.834
36.824
36.801
36.767
36.725
36.675
36.621
36.564
36.504
36.444
36.384
36.327
36.273
36.222
36.175
36.13
36.088
36.047
36.007
35.967
35.927
35.888
35.847
35.804
35.76
35.713
35.665
35.617
35.568
35.521
35.475
35.432
35.393
35.358
35.328
35.303
35.284
35.271
35.264
35.263
35.267
35.276
35.29
35.307
35.327
35.348
35.37
35.392
35.414
35.434
35.453
35.471
35.486
35.5
35.511
35.521
35.528
35.532
35.534
35.534
35.533
35.53
35.526
35.521
35.516
35.511
35.506
35.5
35.493
35.485
35.474
35.46
35.443
35.423
35.399
35.371
35.338
35.3
35.258
35.212
35.164
35.115
35.065
35.015
34.965
34.916
34.869
34.825
34.785
34.749
34.717
34.691
34.669
34.649
34.632
34.618
34.606
34.595
34.585
34.574
34.563
34.552
34.54
34.526
34.51
34.492
34.471
34.449
34.424
34.398
34.372
34.346
34.323
34.302
34.284
34.27
34.259
34.252
34.249
34.25
34.255
34.263
34.274
34.287
34.302
34.318
34.333
34.347
34.359
34.367
34.371
34.371
34.366
34.356
34.343
34.325
34.305
34.284
34.26
34.237
34.214
34.194
34.175
34.159
34.146
34.135
34.126
34.119
34.113
34.108
34.103
34.099
34.097
34.095
34.095
34.097
34.102
34.111
34.128
34.154
34.191
34.241
34.304
34.383
34.476
34.585
34.708
34.846
34.996
35.157
35.326
35.502
35.681
35.861
36.039
36.214
36.381
36.539
36.686
36.819
36.937
37.039
37.124
37.19
37.239
37.271
37.285
37.283
37.266
37.236
37.194
37.143
37.083
37.017
36.947
36.875
36.801
36.726
36.653
36.583
36.516
36.454
36.396
36.344
36.296
36.253
36.213
36.175
36.138
36.101
36.065
36.029
35.991
35.953
35.914
35.876
35.838
35.8
35.764
35.73
35.699
35.673
35.651
35.633
35.619
35.61
35.606
35.606
35.611
35.62
35.633
35.652
35.673
35.698
35.725
35.752
35.779
35.805
35.828
35.847
35.861
35.871
35.875
35.877
35.875
35.87
35.865
35.863
35.868
35.887
35.917
35.955
35.998
36.042
36.081
36.111
36.131
36.137
36.128
36.104
36.066
36.014
35.951
35.878
35.799
35.716
35.63
35.544
35.46
35.38
35.305
35.236
35.173
35.117
35.069
35.027
34.992
34.962
34.938
34.918
34.903
34.89
34.879
34.869
34.859
34.848
34.836
34.822
34.805
34.786
34.764
34.738
34.709
34.677
34.644
34.609
34.575
34.541
34.508
34.477
34.449
34.424
34.404
34.388
34.375
34.367
34.363
34.362
34.365
34.369
34.375
34.382
34.39
34.396
34.401
34.403
34.403
34.401
34.396
34.39
34.381
34.37
34.358
34.344
34.33
34.315
34.299
34.284
34.27
34.258
34.247
34.239
34.232
34.228
34.226
34.225
34.227
34.229
34.23
34.231
34.23
34.227
34.221
34.211
34.199
34.184
34.165
34.144
34.121
34.097
34.077
34.062
34.054
34.056
34.07
34.1
34.148
34.216
34.305
34.416
34.549
34.703
34.876
35.066
35.268
35.481
35.7
35.921
36.142
36.358
36.565
36.761
36.942
37.107
37.252
37.379
37.486
37.574
37.643
37.693
37.727
37.746
37.752
37.747
37.731
37.707
37.676
37.639
37.597
37.551
37.502
37.451
37.399
37.345
37.29
37.235
37.179
37.123
37.066
37.008
36.95
36.892
36.834
36.777
36.72
36.663
36.607
36.554
36.502
36.454
36.409
36.368
36.331
36.299
36.271
36.247
36.226
36.208
36.193
36.18
36.169
36.158
36.149
36.141
36.133
36.127
36.121
36.115
36.111
36.109
36.108
36.11
36.114
36.12
36.128
36.138
36.15
36.162
36.176
36.192
36.209
36.227
36.245
36.261
36.274
36.285
36.29
36.291
36.286
36.275
36.258
36.235
36.207
36.173
36.135
36.093
36.047
35.999
35.949
35.897
35.847
35.797
35.749
35.702
35.658
35.615
35.575
35.536
35.499
35.463
35.428
35.395
35.363
35.331
35.299
35.266
35.232
35.195
35.157
35.115
35.071
35.025
34.978
34.929
34.88
34.832
34.787
34.744
34.706
34.671
34.641
34.616
34.595
34.579
34.566
34.557
34.549
34.543
34.538
34.532
34.525
34.517
34.505
34.491
34.475
34.458
34.438
34.417
34.395
34.372
34.349
34.327
34.305
34.285
34.268
34.254
34.242
34.234
34.228
34.224
34.223
34.223
34.225
34.227
34.23
34.232
34.233
34.232
34.23
34.224
34.215
34.201
34.185
34.164
34.14
34.113
34.084
34.054
34.026
34.0
33.979
33.965
33.961
33.968
33.99
34.028
34.085
34.161
34.257
34.374
34.51
34.664
34.836
35.023
35.222
35.43
35.642
35.855
36.066
36.27
36.465
36.649
36.82
36.976
37.117
37.241
37.347
37.436
37.508
37.563
37.602
37.627
37.638
37.638
37.626
37.604
37.574
37.535
37.491
37.441
37.386
37.326
37.263
37.196
37.126
37.053
36.979
36.904
36.829
36.754
36.68
36.609
36.539
36.472
36.408
36.348
36.293
36.242
36.195
36.152
36.114
36.081
36.052
36.026
36.003
35.983
35.964
35.947
35.931
35.915
35.899
35.883
35.867
35.851
35.836
35.823
35.812
35.804
35.799
35.798
35.8
35.807
35.818
35.834
35.853
35.876
35.9
35.927
35.955
35.982
36.007
36.03
36.05
36.066
36.077
36.082
36.081
36.073
36.058
36.036
36.008
35.974
35.935
35.892
35.844
35.792
35.736
35.679
35.621
35.564
35.508
35.454
35.402
35.353
35.309
35.268
35.233
35.201
35.172
35.144
35.115
35.084
35.051
35.014
34.974
34.932
34.887
34.84
34.792
34.743
34.694
34.646
34.598
34.553
34.509
34.469
34.431
34.395
34.363
34.334
34.308
34.286
34.269
34.258
34.25
34.245
34.242
34.241
34.239
34.236
34.231
34.224
34.215
34.204
34.191
34.177
34.163
34.149
34.135
34.122
34.109
34.097
34.085
34.075
34.066
34.059
34.054
34.051
34.048
34.047
34.047
34.048
34.05
34.052
34.053
34.054
34.051
34.046
34.039
34.028
34.016
34.003
33.99
33.978
33.969
33.965
33.968
33.98
34.004
34.042
34.095
34.166
34.257
34.367
34.496
34.645
34.812
34.995
35.194
35.403
35.621
35.844
36.066
36.285
36.496
36.696
36.881
37.05
37.199
37.328
37.435
37.521
37.587
37.633
37.661
37.671
37.667
37.648
37.618
37.576
37.526
37.469
37.406
37.339
37.269
37.197
37.124
37.05
36.977
36.903
36.831
36.759
36.687
36.615
36.545
36.474
36.404
36.333
36.263
36.194
36.126
36.059
35.993
35.928
35.864
35.803
35.749
35.701
35.662
35.631
35.608
35.594
35.586
35.585
35.591
35.601
35.616
35.634
35.654
35.675
35.696
35.717
35.736
35.755
35.772
35.788
35.803
35.817
35.83
35.844
35.858
35.874
35.892
35.911
35.932
35.953
35.973
35.993
36.01
36.025
36.036
36.043
36.044
36.038
36.026
36.007
35.981
35.949
35.912
35.869
35.821
35.769
35.713
35.652
35.589
35.525
35.462
35.399
35.338
35.28
35.224
35.172
35.123
35.078
35.035
34.996
34.959
34.924
34.891
34.858
34.826
34.794
34.761
34.727
34.693
34.657
34.621
34.583
34.543
34.503
34.463
34.423
34.384
34.347
34.313
34.282
34.255
34.232
34.214
34.201
34.191
34.186
34.184
34.186
34.191
34.199
34.209
34.218
34.227
34.234
34.239
34.24
34.237
34.231
34.222
34.209
34.192
34.174
34.153
34.131
34.109
34.088
34.069
34.053
34.042
34.036
34.036
34.044
34.059
34.085
34.122
34.171
34.233
34.309
34.401
34.507
34.628
34.765
34.916
35.079
35.254
35.439
35.631
35.828
36.028
36.228
36.425
36.618
36.804
36.981
37.148
37.303
37.444
37.569
37.679
37.772
37.85
37.912
37.957
37.986
37.999
37.997
37.979
37.947
37.902
37.844
37.776
37.698
37.612
37.519
37.42
37.318
37.214
37.109
37.006
36.906
36.81
36.72
36.635
36.557
36.484
36.417
36.356
36.299
36.246
36.196
36.148
36.1
36.053
36.007
35.96
35.914
35.869
35.825
35.783
35.743
35.707
35.677
35.652
35.634
35.623
35.618
35.62
35.627
35.639
35.656
35.677
35.703
35.732
35.764
35.799
35.835
35.871
35.907
35.941
35.972
35.999
36.022
36.038
36.049
36.053
36.051
36.042
36.027
36.007
35.982
35.953
35.921
35.887
35.85
35.813
35.775
35.738
35.703
35.669
35.636
35.604
35.571
35.537
35.501
35.462
35.42
35.376
35.328
35.277
35.224
35.169
35.113
35.057
35.0
34.943
34.886
34.83
34.775
34.722
34.671
34.623
34.58
34.541
34.507
34.478
34.453
34.433
34.416
34.403
34.391
34.381
34.371
34.36
34.348
34.334
34.317
34.299
34.278
34.257
34.233
34.209
34.184
34.16
34.137
34.116
34.096
34.079
34.065
34.053
34.044
34.037
34.034
34.034
34.036
34.041
34.048
34.056
34.065
34.072
34.078
34.081
34.081
34.078
34.071
34.06
34.047
34.031
34.014
33.996
33.979
33.963
33.951
33.944
33.946
33.959
33.987
34.032
34.099
34.187
34.3
34.437
34.598
34.783
34.99
35.214
35.452
35.701
35.955
36.209
36.46
36.703
36.935
37.154
37.356
37.539
37.702
37.845
37.968
38.07
38.152
38.215
38.261
38.29
38.305
38.306
38.296
38.274
38.242
38.201
38.153
38.097
38.035
37.967
37.895
37.817
37.736
37.651
37.562
37.47
37.376
37.282
37.187
37.095
37.005
36.918
36.835
36.756
36.682
36.613
36.549
36.491
36.438
36.391
36.349
36.312
36.28
36.251
36.227
36.206
36.187
36.171
36.157
36.143
36.129
36.116
36.103
36.091
36.082
36.075
36.072
36.073
36.078
36.086
36.099
36.116
36.136
36.16
36.187
36.217
36.248
36.28
36.311
36.34
36.365
36.385
36.399
36.407
36.409
36.403
36.389
36.368
36.337
36.299
36.255
36.204
36.149
36.091
36.03
35.967
35.904
35.843
35.784
35.728
35.675
35.627
35.581
35.538
35.497
35.457
35.417
35.375
35.331
35.285
35.234
35.179
35.121
35.058
34.992
34.925
34.858
34.791
34.725
34.656
34.582
34.506
34.431
34.359
34.294
34.239
34.193
34.159
34.137
34.126
34.125
34.133
34.148
34.168
34.191
34.215
34.237
34.257
34.272
34.282
34.286
34.284
34.275
34.261
34.242
34.219
34.194
34.167
34.14
34.113
34.089
34.067
34.049
34.034
34.023
34.016
34.013
34.012
34.014
34.018
34.021
34.025
34.028
34.031
34.032
34.032
34.031
34.03
34.031
34.035
34.044
34.061
34.09
34.133
34.193
34.272
34.373
34.497
34.644
34.813
35.003
35.212
35.439
35.678
35.928
36.184
36.443
36.7
36.951
37.193
37.42
37.631
37.82
37.988
38.132
38.25
38.343
38.411
38.455
38.476
38.475
38.456
38.42
38.371
38.311
38.243
38.168
38.089
38.007
37.922
37.838
37.754
37.671
37.591
37.514
37.439
37.366
37.295
37.225
37.156
37.087
37.019
36.95
36.88
36.81
36.739
36.668
36.596
36.525
36.455
36.388
36.324
36.265
36.211
36.163
36.122
36.087
36.06
36.041
36.027
36.02
36.016
36.016
36.017
36.02
36.025
36.029
36.034
36.038
36.041
36.043
36.045
36.047
36.05
36.054
36.059
36.065
36.073
36.082
36.091
36.101
36.111
36.121
36.13
36.136
36.139
36.137
36.13
36.116
36.094
36.065
36.029
35.986
35.936
35.88
35.819
35.754
35.686
35.616
35.544
35.472
35.4
35.331
35.264
35.2
35.139
35.081
35.026
34.974
34.925
34.878
34.834
34.792
34.75
34.71
34.67
34.629
34.589
34.547
34.505
34.461
34.417
34.372
34.326
34.282
34.238
34.195
34.152
34.111
34.071
34.033
33.999
33.969
33.943
33.921
33.903
33.89
33.881
33.876
33.874
33.874
33.875
33.877
33.879
33.88
33.88
33.879
33.877
33.874
33.869
33.862
33.853
33.843
33.832
33.82
33.806
33.792
33.777
33.763
33.749
33.736
33.724
33.712
33.702
33.692
33.683
33.675
33.666
33.658
33.65
33.644
33.64
33.638
33.639
33.645
33.658
33.679
33.711
33.757
33.818
33.895
33.992
34.108
34.244
34.402
34.581
34.779
34.995
35.226
35.469
35.719
35.973
36.228
36.479
36.724
36.957
37.175
37.376
37.555
37.713
37.847
37.958
38.046
38.111
38.154
38.177
38.181
38.168
38.137
38.091
38.032
37.963
37.886
37.803
37.716
37.625
37.534
37.444
37.356
37.271
37.189
37.109
37.032
36.958
36.884
36.811
36.74
36.671
36.603
36.535
36.468
36.4
36.333
36.266
36.199
36.134
36.072
36.012
35.957
35.908
35.864
35.826
35.795
35.771
35.755
35.747
35.746
35.752
35.763
35.78
35.8
35.822
35.847
35.872
35.898
35.924
35.948
35.971
35.992
36.011
36.029
36.043
36.055
36.064
36.072
36.079
36.083
36.086
36.087
36.087
36.084
36.08
36.072
36.061
36.045
36.024
35.996
35.962
35.921
35.875
35.823
35.767
35.707
35.644
35.576
35.507
35.436
35.364
35.291
35.219
35.148
35.079
35.013
34.95
34.89
34.835
34.783
34.736
34.693
34.653
34.617
34.582
34.55
34.519
34.488
34.458
34.427
34.396
34.365
34.332
34.299
34.265
34.23
34.194
34.159
34.125
34.092
34.062
34.036
34.013
33.996
33.983
33.974
33.969
33.967
33.97
33.975
33.983
33.992
34.002
34.01
34.017
34.021
34.022
34.02
34.014
34.005
33.992
33.975
33.956
33.933
33.907
33.879
33.851
33.824
33.809
33.81
33.83
33.865
33.913
33.97
34.032
34.097
34.164
34.233
34.306
34.383
34.468
34.562
34.668
34.787
34.92
35.067
35.228
35.403
35.589
35.784
35.987
36.193
36.401
36.606
36.806
36.996
37.177
37.344
37.497
37.633
37.752
37.852
37.935
37.998
38.043
38.069
38.077
38.07
38.047
38.009
37.958
37.893
37.817
37.731
37.636
37.534
37.427
37.318
37.209
37.099
36.991
36.886
36.785
36.69
36.602
36.519
36.443
36.373
36.309
36.251
36.196
36.146
36.097
36.052
36.007
35.964
35.92
35.878
35.836
35.796
35.759
35.725
35.693
35.666
35.643
35.626
35.614
35.609
35.61
35.618
35.633
35.654
35.68
35.711
35.746
