Trial 1:0back
30.954
30.966
30.99
31.029
31.089
31.175
31.296
31.458
31.67
31.941
32.277
32.687
33.173
33.737
34.375
35.083
35.849
36.662
37.506
38.365
39.221
40.056
40.854
41.598
42.277
42.877
43.391
43.814
44.143
44.381
44.532
44.602
44.599
44.531
44.407
44.236
44.027
43.786
43.52
43.233
42.931
42.615
42.291
41.96
41.626
41.29
40.954
40.62
40.287
39.956
39.628
39.301
38.977
38.656
38.338
38.024
37.715
37.412
37.114
36.821
36.534
36.253
35.977
35.708
35.446
35.191
34.943
34.703
34.472
34.251
34.04
33.842
33.658
33.49
33.339
33.206
33.094
33.002
32.931
32.884
32.861
32.862
32.89
32.943
33.021
33.124
33.249
33.396
33.56
33.74
33.932
34.132
34.337
34.545
34.753
34.958
35.158
35.349
35.529
35.697
35.849
35.985
36.104
36.204
36.285
36.345
36.385
36.405
36.405
36.387
36.351
36.298
36.229
36.146
36.05
35.944
35.828
35.706
35.578
35.446
35.311
35.174
35.036
34.898
34.76
34.621
34.481
34.341
34.201
34.061
33.921
33.781
33.642
33.505
33.37
33.24
33.118
33.01
32.915
32.833
32.76
32.692
32.626
32.56
32.491
32.418
32.34
32.257
32.171
32.081
31.989
31.897
31.805
31.713
31.625
31.541
31.463
31.391
31.326
31.266
31.214
31.167
31.127
31.093
31.064
31.042
31.024
31.012
31.003
30.997
30.993
30.99
30.989
30.988
30.988
30.99
30.993
31.001
31.016
31.041
31.081
31.142
31.23
31.352
31.518
31.736
32.014
32.361
32.782
33.278
33.85
34.493
35.202
35.967
36.777
37.617
38.469
39.316
40.141
40.927
41.658
42.321
42.906
43.407
43.818
44.139
44.369
44.513
44.576
44.565
44.488
44.353
44.17
43.947
43.69
43.407
43.105
42.788
42.461
42.129
41.794
41.458
41.123
40.789
40.458
40.128
39.8
39.473
39.148
38.824
38.502
38.183
37.867
37.556
37.25
36.951
36.657
36.37
36.088
35.813
35.545
35.284
35.031
34.784
34.541
34.299
34.061
33.831
33.611
33.407
33.224
33.065
32.934
32.832
32.76
32.718
32.707
32.727
32.773
32.846
32.941
33.057
33.191
33.341
33.504
33.677
33.858
34.043
34.232
34.423
34.614
34.803
34.988
35.167
35.339
35.5
35.649
35.785
35.905
36.008
36.093
36.159
36.206
36.235
36.246
36.24
36.219
36.184
36.135
36.074
36.002
35.92
35.829
35.732
35.627
35.517
35.402
35.281
35.156
35.026
34.893
34.757
34.62
34.483
34.347
34.212
34.077
33.945
33.814
33.685
33.558
33.432
33.309
33.186
33.065
32.944
32.825
32.707
32.591
32.478
32.369
32.266
32.169
32.078
31.994
31.917
31.845
31.781
31.721
31.666
31.615
31.568
31.524
31.481
31.441
31.402
31.364
31.328
31.295
31.263
31.234
31.208
31.183
31.16
31.139
31.117
31.095
31.073
31.049
31.025
31.001
30.977
30.952
30.928
30.907
30.889
30.877
30.875
30.883
30.907
30.951
31.018
31.115
31.249
31.426
31.654
31.94
32.294
32.72
33.222
33.803
34.459
35.186
35.972
36.807
37.675
38.56
39.443
40.305
41.128
41.895
42.592
43.207
43.732
44.163
44.498
44.739
44.888
44.952
44.938
44.857
44.716
44.528
44.301
44.045
43.766
43.473
43.171
42.863
42.553
42.243
41.934
41.625
41.317
41.01
40.703
40.396
40.088
39.78
39.471
39.161
38.852
38.543
38.236
37.932
37.63
37.332
37.039
36.752
36.471
36.196
35.93
35.673
35.427
35.192
34.969
34.759
34.563
34.381
34.215
34.065
33.933
33.819
33.724
33.649
33.595
33.561
33.547
33.553
33.578
33.623
33.687
33.768
33.867
33.983
34.112
34.254
34.406
34.565
34.729
34.896
35.064
35.229
35.39
35.544
35.69
35.824
35.946
36.054
36.147
36.224
36.285
36.329
36.358
36.37
36.367
36.348
36.313
36.263
36.198
36.119
36.027
35.925
35.813
35.694
35.57
35.442
35.312
35.182
35.05
34.919
34.788
34.659
34.531
34.405
34.28
34.155
34.031
33.906
33.78
33.655
33.531
33.408
33.288
33.171
33.059
32.95
32.845
32.743
32.646
32.552
32.462
32.376
32.292
32.212
32.135
32.061
31.992
31.927
31.866
31.809
31.754
31.701
31.649
31.596
31.542
31.49
31.439
31.391
31.348
31.309
31.276
31.249
31.23
31.217
31.21
31.209
31.213
31.219
31.229
31.24
31.251
31.262
31.271
31.277
31.28
31.28
31.279
31.278
31.276
31.278
31.285
31.301
31.329
31.375
31.445
31.544
31.682
31.866
32.106
32.408
32.78
33.226
33.749
34.348
35.017
35.75
36.535
37.358
38.203
39.052
39.888
40.691
41.445
42.134
42.748
43.277
43.716
44.063
44.321
44.492
44.584
44.605
44.562
44.465
44.322
44.14
43.927
43.688
43.429
43.154
42.866
42.569
42.265
41.958
41.647
41.334
41.02
40.706
40.391
40.078
39.766
39.457
39.15
38.844
38.541
38.241
37.946
37.656
37.372
37.095
36.826
36.563
36.308
36.059
35.816
35.578
35.347
35.123
34.908
34.703
34.509
34.329
34.163
34.013
33.879
33.762
33.663
33.584
33.525
33.488
33.472
33.478
33.506
33.556
33.626
33.715
33.824
33.95
34.091
34.244
34.408
34.577
34.75
34.922
35.092
35.255
35.411
35.556
35.691
35.812
35.919
36.01
36.084
36.143
36.185
36.211
36.222
36.218
36.2
36.168
36.124
36.068
36.001
35.924
35.838
35.743
35.64
35.531
35.415
35.295
35.17
35.042
34.912
34.781
34.648
34.515
34.382
34.248
34.114
33.98
33.846
33.712
33.574
33.429
33.276
33.116
32.954
32.792
32.635
32.486
32.349
32.224
32.113
32.016
31.933
31.863
31.803
31.753
31.709
31.67
31.634
31.599
31.564
31.53
31.496
31.463
31.431
31.4
31.371
31.345
31.32
31.299
31.281
31.265
31.253
31.243
31.235
31.229
31.225
31.225
31.228
31.234
31.242
31.251
31.26
31.268
31.274
31.279
31.281
31.283
31.282
31.282
31.281
31.281
31.283
31.288
31.296
31.307
31.325
31.352
31.394
31.454
31.539
31.656
31.812
32.016
32.275
32.598
32.989
33.453
33.991
34.6
35.276
36.009
36.787
37.595
38.417
39.237
40.037
40.801
41.514
42.164
42.741
43.237
43.648
43.972
44.209
44.364
44.441
44.447
44.389
44.276
44.116
43.915
43.683
43.424
43.145
42.852
42.548
42.237
41.922
41.605
41.288
40.971
40.656
40.342
40.03
39.719
39.41
39.102
38.797
38.494
38.19
37.884
37.577
37.271
36.968
36.672
36.384
36.107
35.841
35.587
35.346
35.117
34.9
34.697
34.506
34.329
34.166
34.017
33.883
33.764
33.661
33.577
33.512
33.467
33.443
33.441
33.461
33.502
33.563
33.643
33.739
33.85
33.974
34.108
34.25
34.398
34.552
34.709
34.867
35.026
35.183
35.336
35.484
35.625
35.755
35.873
35.975
36.06
36.127
36.176
36.211
36.237
36.257
36.27
36.274
36.267
36.248
36.215
36.166
36.099
36.015
35.914
35.797
35.667
35.527
35.378
35.224
35.066
34.907
34.748
34.591
34.436
34.286
34.142
34.003
33.872
33.747
33.627
33.513
33.402
33.295
33.189
33.085
32.982
32.878
32.775
32.671
32.568
32.466
32.366
32.268
32.173
32.082
31.994
31.911
31.833
31.76
31.694
31.634
31.58
31.533
31.492
31.456
31.426
31.401
31.38
31.364
31.35
31.339
31.329
31.318
31.304
31.288
31.267
31.243
31.217
31.189
31.162
31.137
31.114
31.095
31.082
31.073
31.07
31.073
31.081
31.095
31.113
31.135
31.16
31.187
31.216
31.247
31.279
31.314
31.353
31.4
31.459
31.535
31.637
31.771
31.945
32.17
32.451
32.795
33.207
33.69
34.243
34.862
35.542
36.272
37.039
37.827
38.623
39.41
40.172
40.894
41.565
42.174
42.711
43.17
43.546
43.838
44.047
44.176
44.23
44.215
44.139
44.008
43.832
43.617
43.37
43.1
42.811
42.511
42.201
41.886
41.567
41.245
40.922
40.598
40.275
39.952
39.632
39.315
39.001
38.69
38.383
38.079
37.779
37.483
37.192
36.905
36.624
36.348
36.077
35.812
35.552
35.298
35.05
34.807
34.573
34.348
34.134
33.935
33.753
33.588
33.443
33.32
33.218
33.138
33.083
33.051
33.045
33.064
33.108
33.174
33.262
33.371
33.497
33.638
33.793
33.959
34.135
34.316
34.503
34.691
34.879
35.063
35.243
35.415
35.578
35.729
35.867
35.991
36.097
36.187
36.259
36.312
36.347
36.363
36.362
36.343
36.31
36.263
36.204
36.133
36.053
35.963
35.864
35.757
35.643
35.522
35.397
35.268
35.137
35.004
34.872
34.74
34.608
34.477
34.346
34.215
34.084
33.952
33.82
33.687
33.556
33.424
33.295
33.167
33.042
32.92
32.802
32.688
32.577
32.471
32.37
32.273
32.182
32.096
32.015
31.939
31.869
31.804
31.743
31.685
31.631
31.58
31.533
31.489
31.448
31.412
31.378
31.348
31.32
31.296
31.275
31.259
31.246
31.238
31.233
31.231
31.23
31.231
31.232
31.233
31.234
31.233
31.233
31.231
31.229
31.226
31.222
31.218
31.217
31.222
31.235
31.258
31.292
31.339
31.402
31.484
31.59
31.727
31.903
32.124
32.399
32.734
33.134
33.604
34.144
34.752
35.423
36.147
36.915
37.711
38.52
39.327
40.114
40.865
41.564
42.2
42.762
43.243
43.64
43.951
44.178
44.323
44.391
44.387
44.318
44.192
44.016
43.799
43.549
43.273
42.977
42.665
42.344
42.016
41.685
41.354
41.025
40.701
40.382
40.07
39.765
39.467
39.175
38.89
38.61
38.335
38.064
37.796
37.53
37.267
37.005
36.745
36.486
36.228
35.974
35.722
35.476
35.236
35.005
34.782
34.569
34.368
34.18
34.006
33.847
33.704
33.579
33.472
33.386
33.321
33.279
33.26
33.266
33.295
33.347
33.421
33.515
33.627
33.755
33.898
34.052
34.214
34.384
34.557
34.732
34.905
35.073
35.235
35.388
35.531
35.663
35.782
35.887
35.977
36.052
36.111
36.153
36.178
36.186
36.177
36.151
36.11
36.053
35.984
35.903
35.813
35.715
35.608
35.495
35.377
35.254
35.126
34.996
34.864
34.729
34.594
34.458
34.324
34.192
34.062
33.935
33.81
33.687
33.566
33.446
33.328
33.21
33.092
32.974
32.857
32.74
32.625
32.511
32.4
32.292
32.188
32.087
31.992
31.901
31.816
31.735
31.661
31.593
31.531
31.476
31.428
31.385
31.343
31.299
31.254
31.207
31.159
31.112
31.068
31.027
30.992
30.963
30.939
30.922
30.911
30.905
30.903
30.906
30.912
30.922
30.936
30.954
30.975
30.999
31.025
31.052
31.078
31.104
31.127
31.149
31.169
31.186
31.203
31.221
31.241
31.268
31.305
31.357
31.43
31.532
31.669
31.85
32.084
32.379
32.743
33.18
33.694
34.284
34.947
35.676
36.458
37.282
38.128
38.98
39.819
40.629
41.393
42.098
42.731
43.283
43.748
44.123
44.407
44.603
44.715
44.749
44.713
44.616
44.466
44.273
44.047
43.795
43.525
43.241
42.949
42.652
42.352
42.049
41.746
41.443
41.139
40.834
40.529
40.223
39.918
39.612
39.306
39.0
38.694
38.389
38.087
37.787
37.493
37.204
36.922
36.647
36.382
36.126
35.879
35.642
35.415
35.199
34.993
34.799
34.617
34.447
34.29
34.148
34.02
33.908
33.81
33.728
33.663
33.617
33.59
33.585
33.601
33.64
33.7
33.78
33.879
33.994
34.125
34.268
34.422
34.583
34.75
34.92
35.089
35.257
35.42
35.575
35.719
35.851
35.969
36.072
36.159
36.23
36.285
36.324
36.347
36.354
36.345
36.321
36.284
36.233
36.169
36.094
36.009
35.915
35.815
35.708
35.596
35.479
35.356
35.231
35.101
34.969
34.834
34.697
34.559
34.419
34.281
34.144
34.009
33.876
33.745
33.617
33.492
33.369
33.249
33.13
33.013
32.898
32.784
32.673
32.566
32.463
32.365
32.271
32.182
32.097
32.015
31.937
31.861
31.789
31.72
31.655
31.596
31.54
31.49
31.444
31.403
31.364
31.329
31.298
31.27
31.245
31.223
31.204
31.188
31.173
31.16
31.148
31.136
31.126
31.116
31.106
31.097
31.09
31.084
31.078
31.072
31.068
31.063
31.06
31.058
31.058
31.06
31.067
31.079
31.099
31.127
31.167
31.221
31.294
31.391
31.519
31.687
31.902
32.172
32.506
32.91
33.386
33.935
34.556
35.243
35.987
36.778
37.601
38.441
39.28
40.101
40.887
41.621
42.29
42.882
43.388
43.805
44.131
44.366
44.514
44.582
44.576
44.505
44.378
44.206
43.997
43.758
43.499
43.225
42.941
42.65
42.355
42.059
41.763
41.468
41.173
40.878
40.583
40.288
39.993
39.698
39.404
39.11
38.818
38.529
38.241
37.958
37.678
37.402
37.129
36.86
36.595
36.333
36.075
35.823
35.576
35.337
35.107
34.888
34.68
34.485
34.303
34.136
33.984
33.848
33.73
33.632
33.555
33.501
33.471
33.465
33.483
33.522
33.583
33.662
33.758
33.869
33.994
34.13
34.275
34.429
34.588
34.751
34.915
35.08
35.241
35.397
35.546
35.684
35.812
35.926
36.024
36.105
36.169
36.215
36.244
36.256
36.251
36.231
36.196
36.147
36.086
36.013
35.929
35.837
35.736
35.629
35.515
35.397
35.275
35.15
35.022
34.892
34.763
34.634
34.507
34.382
34.258
34.136
34.015
33.896
33.778
33.66
33.544
33.428
33.314
33.201
33.09
32.981
32.874
32.77
32.668
32.571
32.476
32.384
32.296
32.211
32.127
32.045
31.966
31.889
31.814
31.744
31.678
31.618
31.564
31.517
31.477
31.443
31.414
31.389
31.368
31.35
31.334
31.32
31.307
31.295
31.284
31.274
31.263
31.25
31.236
31.22
31.202
31.183
31.163
31.142
31.122
31.103
31.085
31.067
31.052
31.04
31.032
31.031
31.039
31.06
31.098
31.157
31.242
31.36
31.518
31.722
31.982
32.302
32.69
33.148
33.677
34.276
34.939
35.658
36.423
37.221
38.036
38.853
39.657
40.431
41.161
41.834
42.438
42.965
43.409
43.768
44.039
44.224
44.327
44.354
44.314
44.214
44.064
43.875
43.654
43.409
43.148
42.875
42.595
42.311
42.027
41.744
41.462
41.183
40.904
40.624
40.345
40.064
39.783
39.5
39.215
38.928
38.639
38.351
38.062
37.774
37.489
37.208
36.932
36.66
36.395
36.137
35.887
35.645
35.411
35.187
34.972
34.771
34.584
34.413
34.26
34.124
34.007
33.907
33.824
33.759
33.711
33.681
33.67
33.676
33.701
33.745
33.806
33.883
33.975
34.079
34.194
34.32
34.454
34.595
34.742
34.891
35.042
35.192
35.338
35.478
35.609
35.729
35.836
35.928
36.004
36.065
36.109
36.137
36.149
36.146
36.128
36.097
36.053
35.997
35.929
35.851
35.764
35.669
35.568
35.462
35.35
35.234
35.115
34.992
34.867
34.739
34.609
34.478
34.347
34.216
34.086
33.958
33.831
33.707
33.587
33.47
33.358
33.249
33.145
33.044
32.946
32.851
32.758
32.667
32.579
32.492
32.406
32.322
32.239
32.157
32.075
31.995
31.916
31.838
31.762
31.687
31.614
31.545
31.48
31.42
31.365
31.317
31.275
31.239
31.208
31.182
31.16
31.141
31.126
31.114
31.105
31.098
31.093
31.089
31.088
31.089
31.092
31.096
31.102
31.11
31.118
31.129
31.14
31.152
31.164
31.177
31.189
31.203
31.219
31.24
31.268
31.309
31.366
31.446
31.553
31.695
31.88
32.114
32.404
32.757
33.177
33.668
34.229
34.856
35.544
36.282
37.059
37.859
38.668
39.469
40.245
40.983
41.668
42.288
42.834
43.3
43.682
43.979
44.192
44.326
44.385
44.376
44.307
44.185
44.019
43.817
43.584
43.327
43.051
42.76
42.458
42.148
41.834
41.519
41.204
40.891
40.58
40.271
39.965
39.662
39.36
39.062
38.768
38.479
38.194
37.916
37.645
37.381
37.124
36.873
36.629
36.391
36.157
35.928
35.702
35.482
35.267
35.06
34.862
34.674
34.5
34.342
34.199
34.075
33.969
33.884
33.82
33.778
33.759
33.761
33.785
33.829
33.894
33.977
34.078
34.195
34.326
34.471
34.626
34.789
34.958
35.129
35.3
35.469
35.632
35.786
35.928
36.056
36.17
36.267
36.348
36.412
36.46
36.492
36.508
36.509
36.495
36.466
36.423
36.366
36.297
36.215
36.124
36.024
35.916
35.803
35.685
35.563
35.438
35.312
35.185
35.057
34.929
34.801
34.674
34.547
34.421
34.296
34.172
34.051
33.931
33.813
33.698
33.587
33.48
33.377
33.278
33.184
33.093
33.005
32.92
32.836
32.755
32.677
32.6
32.526
32.453
32.382
32.314
32.249
32.187
32.129
32.074
32.025
31.98
31.941
31.905
31.872
31.841
31.812
31.782
31.752
31.721
31.689
31.658
31.629
31.601
31.575
31.552
31.533
31.518
31.507
31.5
31.497
31.499
31.507
31.522
31.543
31.574
31.617
31.673
31.749
31.848
31.977
32.142
32.352
32.613
32.931
33.312
33.758
34.271
34.849
35.486
36.176
36.907
37.666
38.438
39.207
39.955
40.669
41.333
41.937
42.471
42.928
43.304
43.598
43.811
43.945
44.006
44.0
43.935
43.819
43.66
43.465
43.242
42.998
42.738
42.467
42.188
41.904
41.618
41.332
41.045
40.759
40.474
40.19
39.907
39.625
39.343
39.06
38.778
38.497
38.215
37.936
37.659
37.384
37.113
36.846
36.582
36.32
36.062
35.808
35.556
35.309
35.069
34.837
34.617
34.412
34.225
34.057
33.911
33.787
33.687
33.612
33.56
33.53
33.523
33.536
33.568
33.619
33.688
33.774
33.876
33.993
34.121
34.261
34.408
34.563
34.722
34.886
35.052
35.216
35.377
35.533
35.678
35.813
35.934
36.04
36.131
36.205
36.264
36.306
36.333
36.346
36.344
36.329
36.302
36.262
36.212
36.15
36.08
36.001
35.914
35.82
35.719
35.612
35.5
35.383
35.26
35.134
35.004
34.871
34.736
34.598
34.461
34.324
34.189
34.058
33.929
33.804
33.682
33.564
33.45
33.34
33.234
33.131
33.033
32.938
32.848
32.761
32.677
32.596
32.519
32.444
32.371
32.301
32.234
32.169
32.107
32.047
31.991
31.938
31.889
31.845
31.806
31.77
31.738
31.709
31.682
31.655
31.628
31.601
31.574
31.547
31.521
31.498
31.478
31.46
31.443
31.426
31.41
31.396
31.385
31.381
31.385
31.403
31.439
31.499
31.59
31.717
31.887
32.107
32.385
32.726
33.135
33.614
34.162
34.775
35.448
36.17
36.932
37.717
38.511
39.298
40.062
40.789
41.465
42.079
42.623
43.091
43.48
43.787
44.015
44.166
44.245
44.258
44.212
44.113
43.969
43.787
43.573
43.335
43.079
42.811
42.536
42.257
41.979
41.7
41.424
41.148
40.874
40.598
40.32
40.041
39.76
39.476
39.19
38.904
38.618
38.331
38.046
37.764
37.485
37.212
36.945
36.684
36.429
36.18
35.938
35.704
35.479
35.264
35.061
34.871
34.697
34.539
34.4
34.28
34.18
34.1
34.039
33.997
33.974
33.968
33.98
34.01
34.057
34.121
34.201
34.298
34.409
34.535
34.672
34.819
34.973
35.131
35.29
35.447
35.601
35.747
35.885
36.014
36.131
36.235
36.324
36.396
36.449
36.482
36.497
36.493
36.471
36.434
36.383
36.318
36.243
36.159
36.068
35.968
35.863
35.753
35.64
35.524
35.407
35.288
35.168
35.045
34.921
34.794
34.665
34.534
34.401
34.266
34.129
33.994
33.859
33.727
33.599
33.475
33.355
33.24
33.129
33.021
32.916
32.814
32.715
32.62
32.53
32.445
32.366
32.294
32.228
32.167
32.11
32.056
32.004
31.954
31.906
31.861
31.821
31.786
31.755
31.729
31.707
31.687
31.668
31.651
31.633
31.616
31.598
31.58
31.562
31.546
31.533
31.522
31.515
31.511
31.511
31.514
31.519
31.527
31.536
31.546
31.558
31.569
31.579
31.59
31.602
31.617
31.636
31.662
31.7
31.752
31.824
31.921
32.05
32.219
32.434
32.704
33.035
33.433
33.9
34.438
35.042
35.707
36.423
37.177
37.954
38.741
39.521
40.279
41.001
41.674
42.286
42.829
43.296
43.685
43.995
44.229
44.39
44.482
44.51
44.481
44.402
44.279
44.118
43.927
43.711
43.475
43.224
42.962
42.692
42.418
42.142
41.866
41.592
41.32
41.051
40.785
40.523
40.262
40.004
39.747
39.491
39.236
38.981
38.727
38.473
38.22
37.968
37.719
37.473
37.232
36.997
36.766
36.541
36.322
36.109
35.903
35.704
35.513
35.334
35.168
35.017
34.882
34.766
34.67
34.597
34.546
34.518
34.512
34.527
34.562
34.616
34.686
34.771
34.868
34.976
35.092
35.216
35.344
35.474
35.604
35.731
35.853
35.969
36.079
36.183
36.278
36.365
36.442
36.509
36.564
36.607
36.636
36.651
36.652
36.639
36.612
36.571
36.519
36.455
36.382
36.299
36.207
36.109
36.005
35.896
35.783
35.665
35.543
35.416
35.286
35.154
35.02
34.884
34.749
34.615
34.482
34.351
34.224
34.099
33.977
33.857
33.739
33.621
33.503
33.387
33.272
33.16
33.052
32.949
32.852
32.76
32.672
32.589
32.51
32.434
32.362
32.294
32.231
32.172
32.118
32.07
32.026
31.987
31.953
31.923
31.898
31.877
31.858
31.842
31.827
31.814
31.802
31.791
31.783
31.778
31.777
31.781
31.791
