Trial 1:0back
37.718
37.647
37.569
37.483
37.39
37.291
37.185
37.074
36.958
36.837
36.714
36.588
36.46
36.332
36.204
36.075
35.948
35.82
35.692
35.563
35.435
35.308
35.181
35.056
34.933
34.812
34.694
34.579
34.468
34.36
34.256
34.157
34.062
33.974
33.891
33.814
33.744
33.68
33.621
33.568
33.521
33.478
33.438
33.402
33.369
33.338
33.309
33.282
33.259
33.238
33.22
33.205
33.193
33.183
33.176
33.171
33.169
33.169
33.171
33.174
33.178
33.183
33.188
33.194
33.199
33.204
33.207
33.208
33.207
33.203
33.198
33.19
33.181
33.169
33.155
33.136
33.114
33.089
33.061
33.033
33.003
32.974
32.945
32.915
32.886
32.855
32.821
32.785
32.745
32.704
32.661
32.617
32.573
32.53
32.487
32.444
32.4
32.354
32.306
32.257
32.208
32.158
32.109
32.06
32.012
31.966
31.922
31.881
31.841
31.803
31.767
31.734
31.701
31.67
31.64
31.61
31.579
31.547
31.513
31.478
31.442
31.405
31.368
31.33
31.292
31.252
31.211
31.17
31.129
31.088
31.048
31.01
30.973
30.939
30.907
30.878
30.852
30.83
30.812
30.801
30.796
30.799
30.812
30.839
30.882
30.948
31.043
31.175
31.352
31.583
31.876
32.238
32.673
33.18
33.758
34.401
35.099
35.842
36.613
37.398
38.181
38.946
39.68
40.37
41.005
41.579
42.087
42.525
42.895
43.197
43.436
43.616
43.741
43.818
43.853
43.852
43.822
43.767
43.693
43.602
43.498
43.382
43.257
43.124
42.984
42.839
42.689
42.535
42.377
42.215
42.05
41.884
41.717
41.55
41.385
41.223
41.065
40.912
40.763
40.619
40.48
40.345
40.216
40.092
39.973
39.86
39.751
39.648
39.547
39.45
39.355
39.261
39.166
39.07
38.971
38.87
38.764
38.655
38.542
38.428
38.312
38.199
38.09
37.986
37.891
37.805
37.73
37.665
37.612
37.571
37.541
37.524
37.518
37.522
37.536
37.557
37.585
37.617
37.653
37.692
37.733
37.774
37.813
37.85
37.881
37.906
37.924
37.935
37.937
37.931
37.919
37.899
37.872
37.837
37.794
37.744
37.685
37.621
37.55
37.472
37.389
37.3
37.205
37.105
37.001
36.892
36.78
36.665
36.548
36.43
36.31
36.189
36.067
35.944
35.822
35.7
35.579
35.458
35.338
35.219
35.1
34.981
34.863
34.747
34.631
34.518
34.407
34.3
34.196
34.097
34.002
33.911
33.826
33.746
33.671
33.601
33.538
33.481
33.431
33.386
33.345
33.308
33.272
33.237
33.203
33.169
33.135
33.1
33.065
33.03
32.996
32.961
32.926
32.89
32.854
32.818
32.783
32.75
32.719
32.691
32.667
32.646
32.627
32.61
32.595
32.58
32.565
32.551
32.538
32.525
32.513
32.501
32.489
32.476
32.464
32.451
32.437
32.422
32.405
32.388
32.369
32.349
32.327
32.305
32.281
32.255
32.226
32.197
32.165
32.132
32.099
32.064
32.029
31.993
31.957
31.92
31.883
31.846
31.81
31.774
31.739
31.705
31.671
31.637
31.603
31.569
31.535
31.5
31.465
31.429
31.394
31.359
31.324
31.291
31.26
31.23
31.204
31.18
31.16
31.142
31.127
31.114
31.102
31.09
31.078
31.067
31.056
31.046
31.037
31.027
31.018
31.009
30.999
30.988
30.975
30.96
30.942
30.923
30.901
30.879
30.855
30.83
30.803
30.776
30.749
30.725
30.703
30.682
30.663
30.646
30.629
30.614
30.599
30.587
30.575
30.566
30.559
30.557
30.56
30.57
30.59
30.622
30.67
30.74
30.837
30.971
31.149
31.379
31.671
32.029
32.458
32.958
33.528
34.163
34.853
35.589
36.356
37.141
37.928
38.702
39.449
40.154
40.807
41.398
41.921
42.372
42.751
43.059
43.3
43.478
43.599
43.67
43.697
43.687
43.645
43.577
43.491
43.389
43.278
43.159
43.036
42.91
42.781
42.65
42.517
42.382
42.243
42.099
41.951
41.798
41.642
41.484
41.325
41.165
41.007
40.85
40.698
40.549
40.407
40.27
40.14
40.016
39.898
39.786
39.679
39.577
39.48
39.386
39.293
39.201
39.107
39.011
38.911
38.807
38.698
38.584
38.467
38.349
38.231
38.116
38.005
37.9
37.805
37.72
37.647
37.587
37.542
37.511
37.494
37.488
37.494
37.509
37.532
37.564
37.602
37.645
37.693
37.744
37.797
37.851
37.904
37.954
37.999
38.037
38.067
38.088
38.1
38.103
38.097
38.082
38.058
38.025
37.984
37.937
37.882
37.821
37.754
37.682
37.602
37.517
37.426
37.328
37.226
37.12
37.012
36.901
36.789
36.676
36.561
36.444
36.325
36.205
36.085
35.966
35.848
35.731
35.616
35.501
35.386
35.272
35.158
35.045
34.935
34.826
34.72
34.618
34.52
34.427
34.339
34.256
34.177
34.102
34.03
33.961
33.893
33.828
33.767
33.709
33.654
33.603
33.556
33.514
33.476
33.442
33.411
33.383
33.358
33.336
33.314
33.294
33.274
33.255
33.237
33.219
33.202
33.186
33.169
33.153
33.136
33.12
33.102
33.084
33.066
33.047
33.029
33.012
32.997
32.981
32.967
32.952
32.936
32.919
32.9
32.881
32.862
32.842
32.822
32.803
32.783
32.762
32.741
32.719
32.696
32.673
32.648
32.621
32.594
32.565
32.536
32.505
32.472
32.44
32.407
32.375
32.342
32.309
32.274
32.239
32.204
32.168
32.131
32.094
32.057
32.019
31.983
31.946
31.91
31.876
31.842
31.811
31.782
31.756
31.732
31.709
31.688
31.668
31.648
31.629
31.609
31.587
31.566
31.543
31.519
31.494
31.467
31.438
31.409
31.378
31.347
31.315
31.283
31.252
31.221
31.191
31.163
31.137
31.113
31.092
31.074
31.059
31.048
31.04
31.037
31.039
31.05
31.072
31.111
31.171
31.258
31.382
31.549
31.767
32.045
32.389
32.805
33.292
33.849
34.47
35.145
35.863
36.609
37.371
38.133
38.881
39.601
40.281
40.911
41.483
41.991
42.432
42.805
43.112
43.355
43.539
43.668
43.748
43.786
43.787
43.758
43.703
43.626
43.531
43.42
43.298
43.165
43.023
42.874
42.72
42.562
42.401
42.239
42.076
41.914
41.752
41.591
41.432
41.276
41.122
40.971
40.822
40.676
40.533
40.392
40.252
40.114
39.978
39.845
39.715
39.59
39.469
39.354
39.243
39.135
39.029
38.923
38.815
38.706
38.594
38.48
38.365
38.249
38.135
38.025
37.918
37.818
37.726
37.643
37.57
37.508
37.456
37.415
37.385
37.366
37.357
37.358
37.369
37.388
37.415
37.449
37.487
37.529
37.574
37.618
37.662
37.703
37.74
37.773
37.801
37.822
37.837
37.845
37.846
37.839
37.823
37.8
37.768
37.73
37.684
37.631
37.57
37.502
37.427
37.344
37.255
37.159
37.056
36.946
36.831
36.71
36.584
36.454
36.322
36.187
36.051
35.916
35.782
35.649
35.517
35.389
35.263
35.14
35.02
34.903
34.789
34.678
34.569
34.462
34.358
34.255
34.154
34.055
33.957
33.862
33.77
33.681
33.596
33.513
33.435
33.36
33.291
33.227
33.168
33.116
33.069
33.027
32.989
32.954
32.921
32.89
32.86
32.831
32.804
32.777
32.753
32.731
32.71
32.691
32.674
32.657
32.641
32.626
32.611
32.597
32.584
32.571
32.557
32.545
32.533
32.52
32.508
32.497
32.486
32.477
32.469
32.461
32.452
32.443
32.431
32.418
32.404
32.388
32.372
32.355
32.338
32.322
32.305
32.288
32.27
32.253
32.233
32.212
32.187
32.159
32.128
32.095
32.06
32.022
31.984
31.945
31.907
31.872
31.839
31.809
31.779
31.749
31.717
31.682
31.645
31.607
31.57
31.533
31.497
31.462
31.429
31.398
31.368
31.341
31.314
31.288
31.262
31.235
31.209
31.183
31.157
31.131
31.106
31.082
31.06
31.039
31.021
31.006
30.992
30.979
30.966
30.952
30.938
30.924
30.911
30.9
30.889
30.878
30.867
30.856
30.845
30.832
30.819
30.803
30.786
30.767
30.747
30.725
30.702
30.678
30.653
30.629
30.604
30.579
30.555
30.531
30.508
30.487
30.469
30.454
30.444
30.441
30.446
30.462
30.494
30.547
30.626
30.738
30.893
31.097
31.36
31.689
32.092
32.57
33.125
33.753
34.445
35.19
35.975
36.785
37.604
38.414
39.2
39.947
40.644
41.28
41.846
42.338
42.754
43.095
43.362
43.561
43.696
43.776
43.807
43.796
43.751
43.678
43.584
43.474
43.352
43.223
43.089
42.952
42.815
42.678
42.541
42.404
42.265
42.124
41.98
41.833
41.684
41.532
41.378
41.223
41.068
40.913
40.761
40.612
40.467
40.329
40.196
40.071
39.951
39.837
39.728
39.622
39.52
39.419
39.32
39.221
39.123
39.025
38.926
38.824
38.72
38.613
38.503
38.391
38.279
38.168
38.058
37.952
37.851
37.756
37.668
37.592
37.527
37.476
37.439
37.414
37.402
37.402
37.41
37.426
37.449
37.477
37.509
37.545
37.584
37.624
37.664
37.703
37.738
37.769
37.794
37.815
37.831
37.842
37.849
37.85
37.846
37.835
37.817
37.791
37.759
37.719
37.673
37.621
37.561
37.495
37.421
37.339
37.249
37.151
37.047
36.936
36.821
36.701
36.578
36.452
36.323
36.191
36.058
35.925
35.792
35.661
35.532
35.406
35.284
35.166
35.053
34.944
34.838
34.737
34.638
34.542
34.449
34.359
34.272
34.186
34.103
34.02
33.939
33.859
33.778
33.697
33.617
33.539
33.462
33.389
33.32
33.257
33.2
33.15
33.106
33.069
33.039
33.015
32.996
32.982
32.97
32.96
32.951
32.943
32.933
32.924
32.913
32.9
32.886
32.871
32.853
32.835
32.814
32.794
32.775
32.757
32.739
32.722
32.704
32.688
32.673
32.658
32.643
32.629
32.615
32.602
32.588
32.573
32.557
32.539
32.518
32.495
32.471
32.444
32.417
32.39
32.363
32.337
32.314
32.291
32.271
32.25
32.231
32.211
32.19
32.169
32.146
32.121
32.094
32.065
32.033
31.999
31.963
31.927
31.89
31.852
31.814
31.776
31.738
31.702
31.667
31.634
31.604
31.576
31.55
31.526
31.505
31.485
31.468
31.451
31.435
31.419
31.404
31.389
31.375
31.361
31.349
31.336
31.324
31.311
31.297
31.284
31.269
31.253
31.237
31.218
31.198
31.176
31.153
31.129
31.105
31.081
31.055
31.027
30.996
30.963
30.93
30.898
30.869
30.842
30.819
30.801
30.787
30.78
30.78
30.787
30.804
30.833
30.88
30.947
31.043
31.173
31.346
31.571
31.854
32.203
32.623
33.114
33.675
34.301
34.983
35.709
36.465
37.235
38.003
38.754
39.473
40.147
40.766
41.322
41.811
42.231
42.582
42.865
43.085
43.246
43.353
43.411
43.427
43.408
43.36
43.287
43.196
43.09
42.971
42.842
42.705
42.56
42.41
42.254
42.093
41.929
41.763
41.594
41.424
41.254
41.083
40.913
40.744
40.575
40.407
40.24
40.076
39.913
39.754
39.597
39.443
39.293
39.148
39.006
38.868
38.733
38.601
38.471
38.344
38.217
38.092
37.967
37.843
37.72
37.599
37.481
37.367
37.257
37.154
37.059
36.973
36.896
36.832
36.78
36.741
36.717
36.707
36.711
36.729
36.759
36.8
36.851
36.909
36.974
37.043
37.114
37.187
37.259
37.329
37.396
37.458
37.515
37.565
37.607
37.641
37.666
37.681
37.685
37.679
37.663
37.637
37.603
37.56
37.51
37.453
37.39
37.32
37.244
37.162
37.075
36.982
36.883
36.78
36.671
36.558
36.441
36.321
36.198
36.072
35.946
35.817
35.688
35.557
35.426
35.294
35.163
35.034
34.906
34.781
34.658
34.537
34.42
34.308
34.199
34.094
33.994
33.898
33.807
33.72
33.636
33.556
33.48
33.409
33.342
33.277
33.214
33.154
33.095
33.039
32.986
32.937
32.892
32.85
32.81
32.773
32.74
32.709
32.682
32.659
32.639
32.621
32.605
32.59
32.576
32.564
32.553
32.542
32.532
32.521
32.51
32.5
32.49
32.481
32.474
32.469
32.465
32.461
32.457
32.451
32.443
32.433
32.42
32.405
32.389
32.372
32.355
32.339
32.323
32.308
32.292
32.275
32.257
32.238
32.217
32.196
32.175
32.153
32.132
32.111
32.09
32.068
32.044
32.018
31.99
31.961
31.931
31.9
31.87
31.841
31.812
31.784
31.756
31.729
31.702
31.675
31.648
31.622
31.595
31.568
31.54
31.512
31.482
31.452
31.421
31.388
31.356
31.324
31.292
31.26
31.228
31.195
31.164
31.132
31.101
31.071
31.043
31.017
30.995
30.975
30.959
30.946
30.937
30.929
30.924
30.921
30.918
30.916
30.915
30.915
30.917
30.92
30.923
30.926
30.928
30.928
30.924
30.918
30.908
30.896
30.882
30.866
30.849
30.831
30.814
30.799
30.786
30.776
30.769
30.764
30.762
30.763
30.766
30.774
30.787
30.808
30.841
30.892
30.968
31.075
31.223
31.42
31.674
31.994
32.386
32.855
33.402
34.025
34.719
35.473
36.273
37.106
37.952
38.795
39.617
40.402
41.136
41.807
42.407
42.929
43.371
43.733
44.016
44.226
44.366
44.446
44.471
44.451
44.392
44.302
44.188
44.054
43.908
43.752
43.591
43.427
43.262
43.097
42.932
42.767
42.603
42.439
42.274
42.108
41.941
41.772
41.603
41.435
41.266
41.1
40.936
40.775
40.619
40.469
40.326
40.19
40.061
39.94
39.826
39.718
39.615
39.516
39.419
39.322
39.224
39.122
39.018
38.91
38.798
38.683
38.566
38.447
38.328
38.208
38.089
37.971
37.857
37.746
37.641
37.543
37.453
37.375
37.308
37.253
37.21
37.179
37.161
37.156
37.162
37.178
37.204
37.238
37.277
37.321
37.368
37.415
37.461
37.506
37.547
37.583
37.613
37.637
37.653
37.66
37.659
37.648
37.629
37.6
37.562
37.516
37.461
37.399
37.329
37.253
37.17
37.082
36.989
36.892
36.791
36.688
36.58
36.47
36.356
36.239
36.121
36.001
35.879
35.755
35.632
35.507
35.381
35.255
35.129
35.003
34.879
34.759
34.644
34.533
34.426
34.322
34.219
34.118
34.017
33.916
33.815
33.714
33.615
33.517
33.422
33.33
33.242
33.16
33.085
33.015
32.95
32.891
32.837
32.787
32.742
32.701
32.665
32.635
32.609
32.586
32.565
32.546
32.528
32.51
32.491
32.472
32.453
32.434
32.416
32.399
32.384
32.372
32.362
32.353
32.345
32.338
32.332
32.326
32.322
32.319
32.315
32.31
32.302
32.291
32.277
32.26
32.241
32.22
32.199
32.178
32.159
32.142
32.126
32.111
32.098
32.084
32.07
32.054
32.037
32.017
31.994
31.97
31.943
31.914
31.885
31.854
31.825
31.796
31.769
31.744
31.719
31.696
31.672
31.649
31.626
31.604
31.581
31.559
31.536
31.514
31.49
31.466
31.44
31.412
31.382
31.35
31.315
31.279
31.242
31.204
31.165
31.128
31.091
31.056
31.024
30.993
30.964
30.938
30.914
30.892
30.872
30.855
30.839
30.826
30.815
30.806
30.799
30.793
30.789
30.786
30.783
30.779
30.773
30.765
30.755
30.742
30.728
30.713
30.696
30.68
30.664
30.649
30.635
30.621
30.608
30.596
30.584
30.572
30.561
30.551
30.542
30.535
30.531
30.53
30.534
30.544
30.562
30.591
30.635
30.699
30.788
30.91
31.074
31.288
31.561
31.9
32.311
32.797
33.358
33.988
34.679
35.42
36.197
36.994
37.795
38.585
39.348
40.07
40.738
41.343
41.879
42.342
42.73
43.046
43.292
43.472
43.593
43.662
43.687
43.674
43.63
43.563
43.476
43.374
43.261
43.138
43.007
42.87
42.728
42.582
42.432
42.277
42.119
41.956
41.789
41.618
41.442
41.264
41.084
40.903
40.722
40.544
40.37
40.2
40.035
39.875
39.72
39.57
39.424
39.283
39.147
39.015
38.89
38.768
38.65
38.535
38.422
38.308
38.195
38.082
37.969
37.86
37.756
37.655
37.558
37.464
37.372
37.285
37.203
37.127
37.06
37.003
36.957
36.922
36.899
36.888
36.891
36.906
36.935
36.975
37.025
37.084
37.15
37.221
37.294
37.366
37.437
37.505
37.567
37.623
37.672
37.711
37.74
37.759
37.767
37.765
37.753
37.732
37.702
37.665
37.621
37.569
37.51
37.443
37.369
37.288
37.2
37.106
37.005
36.898
36.786
36.67
36.55
36.427
36.303
36.177
36.05
35.922
35.795
35.669
35.543
35.419
35.295
35.172
35.05
34.929
34.81
34.693
34.578
34.465
34.354
34.244
34.137
34.032
33.931
33.834
33.741
33.654
33.573
33.498
33.428
33.363
33.302
33.246
33.194
33.144
33.096
33.049
33.005
32.962
32.922
32.885
32.85
32.818
32.791
32.768
32.749
32.733
32.72
32.71
32.702
32.695
32.688
32.682
32.675
32.668
32.662
32.657
32.651
32.646
32.639
32.63
32.619
32.607
32.593
32.579
32.566
32.553
32.542
32.532
32.524
32.518
32.512
32.508
32.504
32.5
32.495
32.489
32.48
32.469
32.455
32.438
32.418
32.396
32.372
32.345
32.316
32.285
32.254
32.222
32.19
32.157
32.124
32.091
32.059
32.027
31.996
31.968
31.941
31.915
31.89
31.866
31.842
31.819
31.797
31.774
31.751
31.728
31.704
31.68
31.656
31.632
31.607
31.582
31.557
31.532
31.506
31.481
31.458
31.436
31.416
31.397
31.381
31.366
31.352
31.34
31.33
31.321
31.313
31.303
31.293
31.28
31.265
31.248
31.229
31.208
31.184
31.159
31.132
31.103
31.075
31.045
31.015
30.986
30.957
30.93
30.905
30.884
30.866
30.854
30.846
30.842
30.844
30.851
30.865
30.889
30.924
30.976
31.048
31.149
31.287
31.471
31.71
32.013
32.388
32.84
33.37
33.976
34.653
35.393
36.184
37.011
37.855
38.701
39.529
40.325
41.073
41.761
42.381
42.924
43.388
43.772
44.075
44.302
44.458
44.551
44.587
44.574
44.521
44.437
44.329
44.202
44.065
43.92
43.771
43.621
43.47
43.319
43.169
43.018
42.865
42.71
42.553
42.392
42.227
42.058
41.885
41.707
41.528
41.347
41.168
40.992
40.82
40.655
40.497
40.347
40.205
40.071
39.943
39.821
39.704
39.589
39.478
39.37
39.264
39.16
39.056
38.95
38.844
38.735
38.626
38.515
38.404
38.294
38.186
38.08
37.979
37.883
37.797
37.72
37.655
37.602
37.563
37.538
37.525
37.525
37.535
37.554
37.581
37.614
37.653
37.696
37.741
37.786
37.831
37.874
37.914
37.951
37.985
38.014
38.039
38.058
38.071
38.075
38.072
38.06
38.04
38.013
37.978
37.935
37.886
37.83
37.767
37.696
37.616
37.529
37.434
37.333
37.227
37.116
37.002
36.885
36.765
36.643
36.52
36.395
36.269
36.144
36.017
35.891
35.766
35.64
35.516
35.392
35.268
35.146
35.025
34.905
34.787
34.671
34.559
34.449
34.345
34.244
34.149
34.058
33.971
33.887
33.807
33.731
33.659
33.591
33.527
33.467
33.41
33.357
33.307
33.259
33.212
33.168
33.125
33.082
33.041
33.001
32.964
32.928
32.896
32.866
32.838
32.812
32.788
32.766
32.747
32.73
32.716
32.706
32.703
32.71
32.723
32.741
32.759
32.774
32.785
32.789
32.785
32.773
32.753
32.725
32.691
32.651
32.606
32.558
32.509
32.46
32.413
32.371
32.332
32.298
32.269
32.243
32.22
32.199
32.179
32.158
32.137
32.115
32.093
32.071
32.047
32.021
31.994
31.967
31.94
31.913
31.886
31.859
31.832
31.805
31.776
31.747
31.718
31.688
31.659
31.63
31.602
31.574
31.545
31.517
31.488
31.459
31.429
31.398
31.367
31.335
31.304
31.274
31.245
31.217
31.192
31.168
31.147
31.129
31.114
31.101
31.091
31.082
31.075
31.067
31.061
31.054
31.046
31.038
31.028
31.016
31.001
30.985
30.965
30.942
30.915
30.886
30.855
30.824
30.793
30.763
30.735
30.71
30.686
30.665
30.647
30.632
30.62
30.613
30.611
30.612
30.619
30.631
30.653
30.686
30.737
30.811
30.915
31.058
31.247
31.492
31.802
32.181
32.635
33.164
33.768
34.438
35.164
35.934
36.731
37.541
38.347
39.134
39.887
40.593
41.243
41.826
42.338
42.774
43.133
43.418
43.631
43.779
43.867
43.904
43.896
43.852
43.78
43.685
43.573
43.449
43.317
43.18
43.041
42.9
42.759
42.618
42.478
42.339
42.201
42.062
41.923
41.781
41.637
41.488
41.336
41.181
41.022
40.862
40.702
40.543
40.387
40.234
40.085
39.94
39.802
39.669
39.543
39.421
39.302
39.184
39.066
38.948
38.83
38.712
38.594
38.476
38.361
38.249
38.139
38.034
37.933
37.838
37.75
37.668
37.596
37.533
37.48
37.438
37.407
37.389
37.383
37.39
37.408
37.437
37.475
37.521
37.573
37.629
37.687
37.745
37.803
37.86
37.913
37.963
38.009
38.049
38.083
38.11
38.127
38.136
38.135
38.124
38.104
38.074
38.036
37.989
37.935
37.873
37.805
37.731
37.65
37.562
37.468
37.367
37.26
37.15
37.036
36.92
36.803
36.686
36.57
36.455
36.34
36.227
36.115
36.004
35.893
35.783
35.672
35.561
35.451
35.342
35.235
35.13
35.027
34.927
34.83
34.735
34.644
34.556
34.472
34.392
34.317
34.244
34.175
34.108
34.044
33.982
33.924
33.869
33.817
33.768
33.723
33.68
33.641
33.605
33.572
33.542
33.514
33.488
33.464
33.442
33.42
33.401
33.383
33.367
33.354
33.342
33.331
33.32
33.306
33.289
33.268
33.247
33.225
33.203
33.183
33.164
33.146
33.13
33.116
33.104
