Trial 1:0back
31.654
31.63
31.607
31.584
31.56
31.534
31.507
31.479
31.448
31.415
31.381
31.344
31.307
31.268
31.228
31.189
31.158
31.139
31.132
31.137
31.153
31.178
31.211
31.251
31.298
31.355
31.425
31.51
31.615
31.744
31.9
32.087
32.309
32.568
32.866
33.201
33.574
33.981
34.419
34.884
35.37
35.871
36.38
36.889
37.394
37.888
38.364
38.819
39.247
39.645
40.011
40.343
40.64
40.9
41.123
41.31
41.462
41.58
41.667
41.724
41.754
41.758
41.741
41.706
41.655
41.591
41.517
41.438
41.355
41.27
41.186
41.102
41.019
40.937
40.854
40.77
40.684
40.595
40.504
40.411
40.317
40.221
40.125
40.028
39.932
39.837
39.742
39.649
39.556
39.462
39.369
39.275
39.18
39.082
38.981
38.877
38.769
38.658
38.544
38.427
38.31
38.195
38.082
37.973
37.869
37.771
37.679
37.594
37.516
37.445
37.381
37.325
37.275
37.231
37.192
37.158
37.127
37.098
37.07
37.043
37.017
36.992
36.969
36.947
36.927
36.908
36.889
36.87
36.848
36.825
36.798
36.768
36.734
36.695
36.651
36.603
36.55
36.494
36.435
36.373
36.31
36.244
36.178
36.11
36.04
35.968
35.896
35.821
35.746
35.669
35.592
35.516
35.44
35.366
35.292
35.219
35.146
35.073
34.999
34.925
34.852
34.78
34.71
34.643
34.578
34.516
34.456
34.397
34.34
34.282
34.224
34.166
34.106
34.045
33.984
33.921
33.859
33.798
33.739
33.682
33.629
33.579
33.531
33.487
33.445
33.405
33.366
33.328
33.288
33.246
33.201
33.153
33.1
33.044
32.986
32.926
32.865
32.807
32.752
32.701
32.655
32.616
32.583
32.555
32.533
32.514
32.499
32.485
32.472
32.459
32.444
32.427
32.407
32.384
32.359
32.332
32.304
32.277
32.25
32.225
32.202
32.18
32.161
32.142
32.125
32.109
32.092
32.075
32.055
32.032
32.007
31.979
31.949
31.917
31.884
31.852
31.819
31.788
31.759
31.733
31.711
31.692
31.678
31.667
31.658
31.65
31.643
31.634
31.623
31.609
31.594
31.575
31.556
31.536
31.519
31.507
31.503
31.511
31.536
31.582
31.654
31.757
31.892
32.063
32.271
32.516
32.798
33.116
33.468
33.852
34.263
34.697
35.151
35.62
36.098
36.579
37.06
37.533
37.996
38.442
38.869
39.272
39.649
39.998
40.317
40.604
40.857
41.077
41.262
41.413
41.533
41.622
41.683
41.718
41.731
41.723
41.699
41.66
41.609
41.549
41.481
41.408
41.329
41.246
41.157
41.064
40.965
40.861
40.752
40.64
40.526
40.412
40.299
40.189
40.082
39.98
39.882
39.786
39.693
39.6
39.506
39.412
39.315
39.215
39.112
39.005
38.896
38.783
38.667
38.549
38.428
38.305
38.183
38.063
37.946
37.835
37.729
37.63
37.538
37.451
37.37
37.294
37.222
37.154
37.091
37.031
36.976
36.924
36.877
36.835
36.798
36.766
36.739
36.716
36.697
36.679
36.663
36.646
36.628
36.608
36.584
36.556
36.525
36.491
36.455
36.415
36.373
36.328
36.281
36.23
36.178
36.123
36.069
36.014
35.959
35.904
35.848
35.79
35.73
35.667
35.6
35.529
35.455
35.376
35.294
35.21
35.124
35.038
34.953
34.869
34.788
34.71
34.634
34.561
34.49
34.421
34.354
34.287
34.221
34.154
34.086
34.017
33.947
33.877
33.806
33.735
33.665
33.597
33.531
33.468
33.408
33.35
33.295
33.242
33.191
33.141
33.092
33.044
32.996
32.949
32.902
32.856
32.809
32.764
32.72
32.678
32.639
32.601
32.566
32.532
32.499
32.468
32.439
32.411
32.385
32.359
32.333
32.307
32.282
32.256
32.23
32.205
32.18
32.155
32.13
32.105
32.079
32.052
32.026
32.0
31.974
31.949
31.925
31.902
31.88
31.859
31.841
31.824
31.809
31.795
31.782
31.769
31.756
31.744
31.732
31.72
31.707
31.692
31.677
31.661
31.643
31.623
31.603
31.581
31.557
31.532
31.506
31.478
31.449
31.419
31.388
31.357
31.325
31.295
31.266
31.241
31.22
31.208
31.208
31.223
31.256
31.313
31.398
31.513
31.662
31.849
32.077
32.345
32.655
33.003
33.387
33.802
34.244
34.707
35.187
35.679
36.179
36.683
37.185
37.681
38.165
38.634
39.08
39.501
39.892
40.251
40.574
40.862
41.112
41.326
41.503
41.645
41.753
41.829
41.876
41.897
41.896
41.875
41.838
41.789
41.728
41.659
41.581
41.498
41.409
41.317
41.223
41.127
41.032
40.937
40.843
40.751
40.661
40.572
40.485
40.4
40.316
40.233
40.15
40.068
39.985
39.899
39.811
39.718
39.619
39.514
39.402
39.284
39.161
39.035
38.906
38.779
38.652
38.528
38.407
38.288
38.171
38.057
37.946
37.838
37.734
37.634
37.537
37.444
37.357
37.277
37.203
37.137
37.077
37.024
36.978
36.937
36.902
36.872
36.846
36.825
36.806
36.79
36.774
36.757
36.738
36.716
36.689
36.659
36.624
36.585
36.543
36.498
36.451
36.404
36.357
36.309
36.26
36.209
36.157
36.101
36.042
35.977
35.907
35.832
35.753
35.67
35.583
35.495
35.404
35.313
35.223
35.136
35.05
34.968
34.889
34.813
34.74
34.669
34.601
34.534
34.469
34.404
34.339
34.273
34.206
34.139
34.072
34.005
33.938
33.872
33.807
33.743
33.68
33.618
33.557
33.498
33.439
33.382
33.326
33.27
33.215
33.16
33.105
33.049
32.992
32.935
32.879
32.823
32.769
32.716
32.665
32.617
32.571
32.528
32.488
32.451
32.416
32.384
32.353
32.322
32.293
32.264
32.235
32.206
32.176
32.145
32.113
32.082
32.05
32.02
31.991
31.964
31.939
31.918
31.9
31.885
31.873
31.862
31.854
31.846
31.839
31.831
31.821
31.81
31.795
31.778
31.758
31.735
31.712
31.687
31.661
31.636
31.612
31.588
31.567
31.548
31.531
31.517
31.503
31.491
31.479
31.465
31.45
31.434
31.414
31.39
31.364
31.336
31.307
31.278
31.25
31.223
31.199
31.178
31.16
31.146
31.136
31.132
31.134
31.142
31.158
31.183
31.219
31.27
31.337
31.424
31.536
31.676
31.849
32.058
32.304
32.59
32.917
33.284
33.687
34.123
34.587
35.073
35.575
36.085
36.592
37.087
37.567
38.028
38.468
38.886
39.28
39.648
39.988
40.301
40.583
40.835
41.057
41.249
41.411
41.551
41.672
41.768
41.838
41.879
41.892
41.878
41.838
41.776
41.696
41.6
41.493
41.378
41.26
41.139
41.019
40.902
40.788
40.679
40.574
40.473
40.373
40.275
40.178
40.08
39.982
39.883
39.783
39.682
39.58
39.478
39.374
39.268
39.16
39.049
38.934
38.817
38.696
38.571
38.444
38.315
38.186
38.06
37.937
37.819
37.706
37.599
37.5
37.408
37.324
37.248
37.181
37.122
37.071
37.029
36.994
36.965
36.941
36.919
36.899
36.879
36.86
36.84
36.82
36.8
36.78
36.76
36.739
36.719
36.698
36.675
36.651
36.624
36.593
36.557
36.518
36.474
36.427
36.376
36.322
36.265
36.206
36.145
36.082
36.018
35.953
35.888
35.821
35.753
35.683
35.611
35.538
35.463
35.388
35.312
35.236
35.159
35.082
35.005
34.927
34.849
34.771
34.693
34.617
34.543
34.472
34.405
34.34
34.279
34.22
34.164
34.109
34.056
34.002
33.948
33.893
33.837
33.779
33.72
33.659
33.596
33.533
33.469
33.408
33.348
33.292
33.239
33.19
33.143
33.1
33.058
33.018
32.978
32.938
32.897
32.854
32.808
32.759
32.709
32.659
32.609
32.561
32.515
32.472
32.435
32.403
32.376
32.354
32.337
32.323
32.31
32.298
32.284
32.268
32.248
32.224
32.196
32.165
32.131
32.097
32.061
32.027
31.996
31.968
31.944
31.923
31.904
31.888
31.874
31.859
31.843
31.826
31.806
31.782
31.756
31.725
31.693
31.657
31.622
31.586
31.552
31.522
31.495
31.475
31.462
31.457
31.46
31.475
31.502
31.544
31.603
31.682
31.785
31.915
32.074
32.266
32.491
32.752
33.048
33.38
33.745
34.14
34.563
35.009
35.473
35.95
36.435
36.922
37.404
37.877
38.334
38.772
39.184
39.568
39.921
40.241
40.527
40.78
41.0
41.19
41.351
41.483
41.587
41.666
41.719
41.749
41.756
41.743
41.711
41.663
41.6
41.524
41.436
41.339
41.235
41.124
41.011
40.897
40.786
40.678
40.576
40.479
40.388
40.302
40.219
40.138
40.058
39.976
39.893
39.808
39.72
39.628
39.534
39.436
39.333
39.226
39.114
38.998
38.877
38.754
38.628
38.5
38.372
38.246
38.121
38.0
37.883
37.769
37.66
37.556
37.456
37.362
37.275
37.194
37.122
37.058
37.002
36.956
36.918
36.886
36.86
36.838
36.818
36.799
36.779
36.759
36.737
36.714
36.688
36.661
36.633
36.603
36.571
36.538
36.503
36.466
36.427
36.385
36.34
36.294
36.246
36.196
36.145
36.091
36.034
35.974
35.911
35.844
35.773
35.7
35.624
35.547
35.469
35.391
35.314
35.24
35.167
35.096
35.027
34.959
34.891
34.822
34.751
34.678
34.601
34.522
34.441
34.358
34.277
34.197
34.12
34.046
33.977
33.913
33.851
33.793
33.738
33.684
33.632
33.579
33.526
33.472
33.416
33.358
33.299
33.24
33.18
33.12
33.061
33.004
32.948
32.895
32.844
32.796
32.749
32.704
32.659
32.614
32.57
32.527
32.485
32.443
32.402
32.362
32.323
32.285
32.25
32.218
32.189
32.164
32.141
32.121
32.103
32.089
32.075
32.064
32.052
32.041
32.027
32.013
31.996
31.978
31.959
31.939
31.919
31.898
31.876
31.853
31.829
31.803
31.776
31.748
31.718
31.686
31.654
31.621
31.587
31.554
31.52
31.486
31.452
31.418
31.384
31.351
31.32
31.291
31.265
31.245
31.231
31.226
31.232
31.252
31.289
31.346
31.427
31.534
31.67
31.838
32.039
32.277
32.551
32.863
33.211
33.595
34.01
34.454
34.921
35.406
35.903
36.405
36.907
37.404
37.89
38.362
38.816
39.248
39.654
40.031
40.378
40.693
40.974
41.22
41.431
41.608
41.752
41.865
41.948
42.004
42.035
42.042
42.028
41.996
41.948
41.887
41.815
41.734
41.645
41.55
41.45
41.347
41.242
41.138
41.036
40.937
40.842
40.751
40.665
40.581
40.499
40.418
40.337
40.255
40.172
40.088
40.0
39.909
39.814
39.714
39.608
39.497
39.38
39.259
39.134
39.007
38.88
38.755
38.631
38.509
38.389
38.27
38.154
38.04
37.928
37.819
37.714
37.613
37.517
37.428
37.345
37.269
37.201
37.14
37.087
37.041
37.001
36.966
36.936
36.909
36.884
36.861
36.838
36.815
36.791
36.764
36.735
36.704
36.669
36.632
36.593
36.553
36.511
36.468
36.423
36.378
36.332
36.284
36.233
36.179
36.121
36.059
35.991
35.917
35.839
35.757
35.673
35.587
35.501
35.415
35.33
35.246
35.164
35.084
35.006
34.93
34.856
34.784
34.712
34.64
34.569
34.499
34.43
34.362
34.296
34.23
34.165
34.099
34.034
33.969
33.904
33.841
33.78
33.721
33.664
33.609
33.556
33.505
33.456
33.407
33.358
33.309
33.258
33.205
33.15
33.092
33.033
32.973
32.913
32.854
32.797
32.742
32.689
32.64
32.593
32.551
32.512
32.476
32.443
32.412
32.382
32.353
32.325
32.297
32.269
32.241
32.213
32.184
32.155
32.127
32.101
32.076
32.055
32.036
32.021
32.007
31.996
31.985
31.974
31.963
31.951
31.937
31.92
31.9
31.877
31.849
31.817
31.782
31.745
31.708
31.672
31.638
31.606
31.578
31.553
31.533
31.516
31.502
31.49
31.478
31.465
31.449
31.431
31.408
31.381
31.35
31.316
31.281
31.246
31.214
31.186
31.166
31.156
31.161
31.183
31.226
31.294
31.391
31.52
31.684
31.884
32.123
32.401
32.716
33.068
33.454
33.871
34.316
34.786
35.275
35.779
36.293
36.809
37.322
37.826
38.315
38.783
39.227
39.644
40.031
40.386
40.707
40.993
41.244
41.46
41.642
41.791
41.908
41.996
42.056
42.091
42.103
42.094
42.065
42.02
41.96
41.889
41.807
41.717
41.621
41.52
41.416
41.308
41.2
41.091
40.983
40.878
40.777
40.681
40.589
40.502
40.417
40.334
40.252
40.169
40.082
39.992
39.897
39.798
39.695
39.589
39.479
39.366
39.25
39.131
39.008
38.884
38.757
38.63
38.502
38.376
38.253
38.135
38.021
37.912
37.81
37.713
37.625
37.544
37.472
37.407
37.349
37.297
37.251
37.21
37.172
37.139
37.108
37.079
37.051
37.023
36.992
36.959
36.922
36.881
36.837
36.792
36.745
36.697
36.65
36.603
36.559
36.521
36.488
36.459
36.432
36.406
36.378
36.348
36.314
36.275
36.229
36.176
36.115
36.046
35.969
35.886
35.797
35.704
35.609
35.513
35.419
35.327
35.238
35.153
35.072
34.995
34.922
34.853
34.785
34.717
34.649
34.581
34.511
34.441
34.371
34.303
34.237
34.174
34.113
34.054
33.997
33.941
33.885
33.829
33.771
33.713
33.653
33.59
33.526
33.459
33.393
33.326
33.261
33.198
33.139
33.083
33.032
32.984
32.94
32.9
32.864
32.831
32.801
32.771
32.742
32.713
32.683
32.654
32.623
32.592
32.561
32.53
32.5
32.472
32.446
32.423
32.403
32.387
32.373
32.36
32.348
32.336
32.324
32.311
32.297
32.282
32.265
32.247
32.227
32.206
32.184
32.161
32.138
32.114
32.09
32.067
32.045
32.025
32.007
31.99
31.976
31.963
31.952
31.941
31.93
31.918
31.906
31.891
31.875
31.855
31.833
31.809
31.781
31.751
31.72
31.687
31.654
31.621
31.589
31.558
31.53
31.506
31.488
31.478
31.477
31.489
31.517
31.563
31.633
31.73
31.858
32.02
32.22
32.457
32.734
33.049
33.403
33.793
34.217
34.671
35.15
35.648
36.16
36.678
37.194
37.702
38.195
38.666
39.11
39.522
39.9
40.242
40.546
40.812
41.041
41.233
41.391
41.516
41.612
41.68
41.724
41.745
41.748
41.733
41.702
41.657
41.598
41.528
41.448
41.359
41.264
41.162
41.056
40.946
40.834
40.72
40.607
40.493
40.379
40.266
40.154
40.043
39.932
39.82
39.71
39.6
39.491
39.383
39.276
39.169
39.062
38.955
38.846
38.735
38.622
38.506
38.389
38.271
38.152
38.033
37.914
37.796
37.68
37.567
37.459
37.356
37.262
37.176
37.099
37.033
36.977
36.93
36.892
36.86
36.834
36.812
36.793
36.774
36.756
36.737
36.717
36.697
36.676
36.654
36.632
36.609
36.584
36.557
36.527
36.496
36.464
36.428
36.391
36.351
36.309
36.265
36.217
36.167
36.113
36.057
35.997
35.934
35.868
35.798
35.726
35.652
35.577
35.502
35.428
35.355
35.284
35.214
35.146
35.08
35.015
34.95
34.883
34.815
34.745
34.672
34.596
34.517
34.439
34.36
34.283
34.207
34.135
34.065
33.999
33.937
33.88
33.826
33.774
33.725
33.677
33.629
33.579
33.527
33.471
33.412
33.351
33.287
33.224
33.161
33.101
33.044
32.99
32.941
32.896
32.856
32.819
32.785
32.752
32.721
32.69
32.659
32.627
32.594
32.561
32.528
32.495
32.463
32.432
32.404
32.379
32.357
32.339
32.323
32.31
32.298
32.288
32.277
32.265
32.25
32.232
32.209
32.182
32.151
32.116
32.079
32.04
32.0
31.961
31.925
31.891
31.861
31.835
31.813
31.793
31.776
31.76
31.745
31.728
31.71
31.69
31.666
31.64
31.612
31.581
31.551
31.523
31.498
31.481
31.473
31.479
31.502
31.544
31.609
31.701
31.823
31.978
32.169
32.397
32.664
32.97
33.312
33.691
34.102
34.542
35.006
35.489
35.985
36.488
36.993
37.492
37.981
38.453
38.905
39.332
39.73
40.098
40.432
40.729
40.99
41.213
41.401
41.554
41.674
41.764
41.827
41.864
41.878
41.871
41.848
41.809
41.758
41.696
41.627
41.551
41.47
41.384
41.294
41.2
41.101
40.998
40.893
40.786
40.679
40.573
40.469
40.367
40.267
40.17
40.074
39.978
39.881
39.782
39.681
39.578
39.471
39.36
39.245
39.127
39.005
38.879
38.751
38.621
38.49
38.359
38.23
38.104
37.982
37.866
37.756
37.652
37.554
37.463
37.378
37.298
37.222
37.151
37.084
37.022
36.965
36.912
36.864
36.821
36.782
36.746
36.714
36.685
36.658
36.633
36.609
36.585
36.561
36.536
36.51
36.482
36.452
36.419
36.382
36.341
36.295
36.244
36.19
36.132
36.072
36.011
35.949
35.888
35.825
35.761
35.696
35.63
35.563
35.494
35.424
35.35
35.274
35.195
35.114
35.032
34.948
34.866
34.785
34.707
34.632
34.562
34.494
34.431
34.371
34.312
34.254
34.196
34.137
34.076
34.011
33.945
33.876
33.805
33.735
33.666
33.599
33.535
33.475
33.418
33.363
33.311
33.261
33.212
33.162
33.112
33.061
33.009
32.956
32.901
32.846
32.791
32.737
32.684
32.634
32.585
32.54
32.497
32.458
32.421
32.388
32.358
32.33
32.304
32.279
32.255
32.231
32.206
32.18
32.152
32.122
32.091
32.059
32.027
31.995
31.964
31.933
31.903
31.874
31.846
31.818
31.791
31.766
31.743
31.721
31.699
31.678
31.659
31.64
31.62
31.601
31.581
31.561
31.539
31.517
31.493
31.468
31.441
31.414
31.385
31.356
31.326
31.294
31.262
31.23
31.2
31.172
31.148
31.129
31.116
31.111
31.117
31.137
31.172
31.226
31.302
31.403
31.531
31.69
31.883
32.111
32.376
32.681
33.025
33.406
33.822
34.27
34.746
35.244
35.758
36.281
36.807
37.33
37.843
38.341
38.819
39.275
39.703
40.102
40.47
40.804
41.103
41.368
41.598
41.792
41.953
42.08
42.175
42.242
42.284
42.302
42.299
42.277
42.239
42.185
42.12
42.043
41.958
41.866
41.769
41.668
41.564
41.458
41.35
41.242
41.134
41.028
40.923
40.821
40.721
40.623
40.529
40.438
40.349
40.262
40.175
40.087
39.997
39.903
39.804
39.7
39.589
39.472
39.347
39.215
39.076
38.932
38.784
38.636
38.489
38.344
38.206
38.075
37.951
37.836
37.73
37.633
37.545
37.464
37.391
37.324
37.264
37.209
37.158
37.112
37.069
37.029
36.992
36.959
36.928
36.899
36.873
36.85
36.829
36.809
36.79
36.77
36.749
36.724
36.695
36.659
36.617
36.569
36.515
36.455
36.392
36.325
36.256
36.187
36.117
36.047
35.978
35.909
35.841
35.773
35.703
35.631
35.557
35.479
35.397
35.314
35.229
35.143
35.056
34.97
34.885
34.801
34.72
34.641
34.564
34.489
34.416
34.345
34.274
34.205
34.137
34.07
34.002
33.935
33.867
33.799
33.732
33.665
33.599
33.534
33.469
33.404
33.34
33.275
33.211
33.147
33.083
33.021
32.96
32.902
32.847
32.794
32.745
32.698
32.653
32.608
32.565
32.523
32.48
32.439
32.398
32.358
32.318
32.28
32.243
32.207
32.174
32.143
32.113
32.084
32.057
32.032
32.009
31.988
31.968
31.95
31.932
31.915
31.897
31.879
31.86
31.838
31.814
31.789
31.762
31.737
31.712
31.69
31.67
31.652
31.637
31.624
31.611
31.598
31.583
31.567
31.549
31.528
31.504
31.476
31.445
31.411
31.372
31.332
31.291
31.252
31.215
31.182
31.151
31.125
31.102
31.081
31.062
31.044
31.027
31.008
30.986
30.955
30.915
30.87
30.825
30.781
30.745
30.72
30.71
30.718
30.748
30.804
30.888
31.003
31.152
31.336
31.559
31.821
32.123
32.464
32.843
33.256
33.701
34.172
34.666
35.177
35.699
36.226
36.754
37.278
37.792
38.292
38.772
39.229
39.657
40.055
40.419
40.748
41.041
41.296
41.513
41.694
41.84
41.953
42.035
42.089
42.118
42.124
42.112
42.082
42.038
41.979
41.909
41.828
41.737
41.637
41.53
41.417
41.298
41.177
41.054
40.932
40.812
40.695
40.582
40.471
40.363
40.258
40.156
40.056
39.957
39.86
39.762
39.663
39.562
39.459
39.351
39.239
39.122
39.001
38.878
38.752
38.627
38.503
38.38
38.26
38.142
38.026
37.912
37.8
37.69
37.583
37.48
37.382
37.29
37.206
37.131
37.065
37.008
36.961
36.922
36.891
36.867
36.847
36.832
36.82
36.81
36.8
36.791
36.781
36.768
36.753
36.733
36.708
36.677
36.641
36.6
36.557
36.511
36.463
36.415
36.367
36.317
36.267
36.214
36.159
36.101
36.038
35.969
35.896
35.818
35.736
35.65
35.562
35.474
35.388
35.305
35.225
35.149
35.076
35.005
34.936
34.869
34.801
34.734
34.665
34.595
34.524
34.451
34.377
34.303
34.229
34.157
34.087
34.019
33.954
33.892
33.833
33.778
33.724
33.672
33.622
33.572
33.524
33.476
33.428
33.379
33.329
33.278
33.225
33.171
33.117
33.062
33.009
32.958
32.909
32.863
32.821
32.782
32.746
32.713
32.682
32.651
32.622
32.594
32.568
32.543
32.519
32.497
32.475
32.453
32.431
32.408
32.385
32.361
32.336
32.311
32.285
32.259
32.234
32.21
32.186
32.164
32.143
32.122
32.101
32.079
32.057
32.032
32.005
31.977
31.945
31.911
31.875
31.837
31.797
31.756
31.714
31.671
31.629
31.589
31.55
31.514
31.483
31.457
31.438
31.427
31.427
31.44
31.468
31.516
31.586
31.682
31.807
31.963
32.155
32.383
32.65
32.956
33.302
33.685
34.104
34.554
35.031
35.53
36.042
36.562
37.082
37.596
38.096
38.579
39.038
