Trial 1:0back
39.744
39.462
39.183
38.904
38.626
38.35
38.077
37.808
37.544
37.287
37.037
36.795
36.563
36.339
36.124
35.917
35.721
35.533
35.354
35.183
35.021
34.866
34.719
34.579
34.448
34.325
34.21
34.106
34.013
33.932
33.866
33.816
33.785
33.774
33.784
33.817
33.871
33.947
34.041
34.152
34.277
34.415
34.563
34.718
34.878
35.039
35.2
35.357
35.506
35.647
35.777
35.892
35.993
36.077
36.144
36.192
36.222
36.233
36.225
36.201
36.159
36.103
36.033
35.95
35.855
35.751
35.639
35.521
35.399
35.275
35.148
35.021
34.892
34.762
34.632
34.501
34.369
34.237
34.106
33.974
33.843
33.713
33.585
33.458
33.332
33.207
33.084
32.962
32.842
32.723
32.606
32.492
32.381
32.274
32.17
32.069
31.972
31.88
31.792
31.709
31.631
31.559
31.492
31.431
31.375
31.325
31.279
31.237
31.199
31.164
31.132
31.102
31.075
31.05
31.028
31.009
30.991
30.976
30.964
30.955
30.948
30.943
30.941
30.94
30.942
30.946
30.953
30.963
30.976
30.992
31.01
31.028
31.046
31.063
31.08
31.096
31.112
31.128
31.144
31.162
31.181
31.2
31.221
31.243
31.266
31.29
31.317
31.348
31.387
31.436
31.502
31.591
31.71
31.868
32.075
32.338
32.666
33.065
33.538
34.087
34.708
35.396
36.142
36.933
37.754
38.589
39.42
40.231
41.007
41.733
42.4
42.995
43.513
43.946
44.293
44.553
44.728
44.821
44.839
44.789
44.679
44.518
44.314
44.076
43.81
43.523
43.222
42.911
42.594
42.276
41.958
41.643
41.332
41.026
40.727
40.434
40.147
39.867
39.592
39.323
39.06
38.803
38.553
38.309
38.071
37.839
37.613
37.391
37.171
36.953
36.737
36.524
36.313
36.104
35.899
35.697
35.499
35.307
35.123
34.95
34.788
34.64
34.506
34.388
34.286
34.204
34.14
34.097
34.074
34.074
34.095
34.138
34.201
34.284
34.384
34.499
34.625
34.761
34.904
35.052
35.202
35.35
35.494
35.63
35.757
35.874
35.979
36.073
36.156
36.226
36.284
36.328
36.359
36.374
36.373
36.355
36.321
36.272
36.207
36.13
36.04
35.94
35.831
35.715
35.593
35.466
35.337
35.204
35.07
34.933
34.795
34.655
34.516
34.377
34.241
34.107
33.977
33.849
33.724
33.6
33.478
33.356
33.234
33.112
32.99
32.869
32.748
32.628
32.511
32.398
32.288
32.182
32.082
31.988
31.901
31.82
31.746
31.678
31.616
31.559
31.507
31.46
31.418
31.381
31.347
31.317
31.29
31.266
31.244
31.225
31.207
31.191
31.177
31.165
31.155
31.147
31.142
31.141
31.145
31.154
31.166
31.182
31.2
31.22
31.241
31.263
31.285
31.307
31.331
31.354
31.378
31.402
31.425
31.447
31.467
31.485
31.499
31.51
31.517
31.521
31.521
31.517
31.51
31.501
31.492
31.486
31.484
31.489
31.504
31.533
31.58
31.653
31.758
31.903
32.098
32.351
32.67
33.062
33.53
34.075
34.695
35.383
36.129
36.919
37.74
38.575
39.405
40.214
40.984
41.701
42.351
42.925
43.418
43.824
44.142
44.375
44.526
44.599
44.602
44.54
44.423
44.258
44.055
43.821
43.565
43.292
43.008
42.719
42.428
42.138
41.849
41.564
41.28
40.998
40.719
40.441
40.166
39.894
39.625
39.359
39.098
38.84
38.586
38.338
38.094
37.854
37.619
37.387
37.157
36.928
36.701
36.474
36.25
36.029
35.812
35.6
35.397
35.205
35.025
34.859
34.71
34.58
34.468
34.377
34.306
34.255
34.224
34.212
34.218
34.24
34.279
34.333
34.4
34.481
34.573
34.676
34.788
34.905
35.027
35.152
35.278
35.403
35.526
35.646
35.762
35.871
35.973
36.065
36.145
36.214
36.269
36.309
36.332
36.338
36.326
36.297
36.251
36.191
36.117
36.032
35.937
35.834
35.725
35.61
35.492
35.369
35.244
35.116
34.987
34.856
34.724
34.591
34.458
34.325
34.193
34.063
33.935
33.809
33.687
33.569
33.454
33.341
33.231
33.122
33.014
32.906
32.798
32.692
32.587
32.483
32.381
32.281
32.184
32.09
31.999
31.912
31.828
31.749
31.674
31.603
31.536
31.473
31.413
31.356
31.309
31.277
31.26
31.256
31.263
31.278
31.297
31.315
31.332
31.345
31.351
31.353
31.349
31.343
31.334
31.326
31.319
31.314
31.313
31.315
31.32
31.328
31.338
31.351
31.365
31.381
31.399
31.417
31.437
31.458
31.479
31.502
31.525
31.548
31.572
31.597
31.626
31.663
31.713
31.784
31.882
32.016
32.197
32.431
32.728
33.094
33.533
34.046
34.633
35.288
36.002
36.762
37.556
38.365
39.173
39.961
40.714
41.418
42.06
42.63
43.122
43.529
43.851
44.086
44.237
44.309
44.309
44.244
44.122
43.953
43.744
43.505
43.241
42.96
42.664
42.36
42.05
41.736
41.42
41.105
40.792
40.482
40.176
39.875
39.579
39.289
39.005
38.729
38.461
38.201
37.948
37.703
37.463
37.229
36.998
36.771
36.547
36.325
36.107
35.89
35.677
35.467
35.261
35.062
34.87
34.688
34.518
34.362
34.222
34.1
33.996
33.913
33.851
33.81
33.79
33.791
33.814
33.855
33.916
33.993
34.085
34.191
34.308
34.435
34.569
34.706
34.845
34.984
35.12
35.252
35.379
35.5
35.615
35.723
35.823
35.914
35.994
36.063
36.121
36.166
36.198
36.217
36.222
36.212
36.187
36.146
36.09
36.017
35.929
35.827
35.711
35.584
35.447
35.302
35.15
34.994
34.838
34.681
34.528
34.38
34.239
34.105
33.979
33.861
33.752
33.649
33.552
33.457
33.364
33.27
33.176
33.078
32.978
32.875
32.769
32.661
32.551
32.441
32.331
32.222
32.114
32.009
31.907
31.808
31.714
31.627
31.546
31.473
31.409
31.352
31.303
31.263
31.229
31.202
31.181
31.164
31.15
31.139
31.132
31.128
31.127
31.129
31.132
31.138
31.145
31.153
31.161
31.17
31.178
31.186
31.192
31.199
31.204
31.21
31.215
31.219
31.221
31.223
31.226
31.231
31.241
31.258
31.285
31.325
31.385
31.469
31.587
31.745
31.955
32.223
32.558
32.965
33.448
34.005
34.634
35.327
36.075
36.864
37.679
38.501
39.315
40.103
40.85
41.541
42.166
42.717
43.186
43.572
43.873
44.091
44.23
44.295
44.291
44.227
44.109
43.946
43.744
43.513
43.257
42.984
42.696
42.399
42.094
41.785
41.472
41.158
40.845
40.533
40.225
39.922
39.625
39.335
39.051
38.776
38.508
38.249
37.997
37.752
37.512
37.276
37.043
36.811
36.579
36.347
36.114
35.88
35.645
35.41
35.177
34.948
34.726
34.515
34.315
34.132
33.967
33.823
33.702
33.606
33.536
33.493
33.474
33.479
33.507
33.556
33.624
33.71
33.811
33.925
34.049
34.181
34.319
34.458
34.598
34.737
34.873
35.005
35.133
35.256
35.374
35.486
35.59
35.684
35.766
35.836
35.893
35.937
35.966
35.983
35.985
35.974
35.95
35.913
35.863
35.801
35.726
35.64
35.543
35.435
35.317
35.19
35.056
34.914
34.767
34.616
34.464
34.31
34.158
34.007
33.858
33.713
33.572
33.436
33.308
33.186
33.071
32.963
32.859
32.761
32.666
32.574
32.484
32.395
32.307
32.219
32.132
32.046
31.961
31.877
31.795
31.715
31.637
31.561
31.489
31.419
31.352
31.289
31.23
31.176
31.127
31.082
31.041
31.006
30.976
30.951
30.932
30.918
30.909
30.905
30.905
30.908
30.914
30.924
30.937
30.952
30.969
30.988
31.008
31.027
31.046
31.064
31.08
31.097
31.113
31.129
31.145
31.161
31.175
31.188
31.199
31.208
31.215
31.22
31.223
31.223
31.222
31.222
31.223
31.227
31.238
31.258
31.292
31.348
31.43
31.549
31.713
31.93
32.209
32.559
32.984
33.489
34.074
34.736
35.466
36.255
37.087
37.946
38.815
39.676
40.51
41.303
42.04
42.707
43.294
43.795
44.204
44.521
44.748
44.886
44.944
44.926
44.843
44.704
44.519
44.296
44.044
43.769
43.478
43.176
42.867
42.554
42.237
41.92
41.603
41.287
40.975
40.666
40.363
40.065
39.774
39.49
39.214
38.946
38.687
38.435
38.189
37.949
37.712
37.478
37.246
37.015
36.787
36.562
36.339
36.119
35.902
35.689
35.48
35.278
35.085
34.901
34.73
34.573
34.43
34.305
34.197
34.109
34.041
33.994
33.968
33.962
33.976
34.009
34.059
34.125
34.205
34.298
34.403
34.518
34.642
34.774
34.91
35.05
35.19
35.329
35.464
35.594
35.717
35.83
35.932
36.021
36.095
36.153
36.194
36.219
36.229
36.223
36.204
36.172
36.126
36.067
35.996
35.912
35.817
35.713
35.598
35.474
35.342
35.203
35.059
34.912
34.762
34.612
34.463
34.316
34.171
34.029
33.89
33.755
33.625
33.498
33.376
33.259
33.145
33.036
32.929
32.824
32.721
32.617
32.514
32.412
32.31
32.209
32.111
32.016
31.924
31.837
31.753
31.675
31.601
31.532
31.465
31.403
31.345
31.292
31.243
31.198
31.159
31.122
31.089
31.059
31.031
31.005
30.98
30.956
30.934
30.915
30.9
30.889
30.884
30.883
30.887
30.894
30.904
30.918
30.934
30.952
30.973
30.994
31.018
31.042
31.068
31.094
31.122
31.151
31.182
31.215
31.248
31.281
31.313
31.342
31.369
31.391
31.408
31.42
31.427
31.431
31.432
31.432
31.43
31.429
31.429
31.432
31.442
31.462
31.498
31.557
31.647
31.777
31.955
32.192
32.494
32.87
33.324
33.857
34.47
35.156
35.907
36.711
37.554
38.417
39.283
40.132
40.946
41.708
42.404
43.022
43.555
43.997
44.347
44.604
44.773
44.857
44.865
44.806
44.687
44.516
44.302
44.052
43.776
43.48
43.17
42.852
42.53
42.207
41.886
41.569
41.256
40.949
40.646
40.349
40.054
39.764
39.477
39.194
38.915
38.639
38.368
38.102
37.84
37.584
37.334
37.088
36.847
36.611
36.379
36.151
35.927
35.708
35.495
35.289
35.091
34.903
34.726
34.559
34.406
34.266
34.141
34.031
33.938
33.863
33.807
33.77
33.753
33.755
33.776
33.816
33.875
33.952
34.047
34.158
34.284
34.422
34.569
34.724
34.882
35.041
35.198
35.352
35.499
35.638
35.765
35.878
35.976
36.056
36.118
36.162
36.188
36.195
36.185
36.157
36.114
36.057
35.987
35.908
35.822
35.729
35.632
35.531
35.426
35.317
35.206
35.091
34.974
34.855
34.734
34.616
34.507
34.41
34.321
34.236
34.152
34.063
33.966
33.858
33.739
33.609
33.467
33.316
33.157
32.992
32.826
32.66
32.499
32.345
32.2
32.066
31.943
31.833
31.736
31.65
31.575
31.51
31.453
31.404
31.359
31.318
31.279
31.241
31.204
31.168
31.133
31.101
31.072
31.048
31.028
31.013
31.002
30.994
30.989
30.985
30.98
30.976
30.971
30.967
30.963
30.961
30.962
30.964
30.967
30.971
30.976
30.982
30.987
30.994
31.001
31.008
31.017
31.026
31.036
31.047
31.059
31.072
31.086
31.101
31.115
31.13
31.147
31.166
31.189
31.216
31.248
31.287
31.335
31.396
31.475
31.578
31.713
31.886
32.106
32.381
32.719
33.125
33.602
34.153
34.774
35.462
36.207
36.998
37.819
38.656
39.492
40.308
41.089
41.819
42.484
43.072
43.577
43.993
44.317
44.552
44.699
44.762
44.751
44.676
44.546
44.371
44.158
43.912
43.64
43.348
43.04
42.72
42.392
42.059
41.724
41.387
41.053
40.722
40.394
40.071
39.754
39.443
39.138
38.839
38.547
38.261
37.98
37.705
37.435
37.17
36.91
36.653
36.402
36.156
35.914
35.677
35.445
35.219
35.001
34.79
34.589
34.398
34.218
34.052
33.9
33.765
33.648
33.551
33.474
33.418
33.383
33.37
33.377
33.406
33.455
33.525
33.615
33.725
33.852
33.995
34.151
34.318
34.492
34.67
34.848
35.024
35.194
35.358
35.513
35.656
35.785
35.898
35.994
36.072
36.134
36.178
36.207
36.22
36.218
36.201
36.171
36.128
36.072
36.003
35.922
35.829
35.724
35.607
35.481
35.346
35.203
35.054
34.902
34.749
34.595
34.444
34.296
34.153
34.014
33.882
33.756
33.636
33.521
33.411
33.305
33.201
33.099
32.998
32.897
32.798
32.7
32.602
32.504
32.406
32.307
32.207
32.106
32.003
31.901
31.799
31.699
31.603
31.511
31.426
31.348
31.279
31.216
31.161
31.113
31.071
31.035
31.004
30.978
30.956
30.939
30.926
30.918
30.914
30.912
30.913
30.916
30.92
30.925
30.93
30.935
30.939
30.943
30.947
30.95
30.954
30.958
30.962
30.969
30.976
30.986
30.996
31.008
31.021
31.033
31.044
31.056
31.07
31.088
31.114
31.153
31.211
31.298
31.422
31.591
31.816
32.103
32.46
32.893
33.403
33.989
34.649
35.375
36.157
36.981
37.835
38.7
39.559
40.395
41.191
41.93
42.6
43.19
43.691
44.1
44.414
44.636
44.769
44.821
44.798
44.709
44.564
44.37
44.138
43.876
43.59
43.288
42.974
42.653
42.327
41.999
41.672
41.346
41.023
40.703
40.387
40.075
39.766
39.462
39.162
38.866
38.574
38.286
38.001
37.718
37.436
37.158
36.883
36.612
36.345
36.084
35.828
35.578
35.336
35.103
34.88
34.669
34.471
34.286
34.115
33.958
33.816
33.69
33.581
33.49
33.419
33.368
33.337
33.326
33.333
33.357
33.397
33.453
33.522
33.605
33.702
33.811
33.932
34.063
34.204
34.354
34.51
34.672
34.836
35.001
35.164
35.322
35.473
35.613
35.74
35.85
35.943
36.015
36.066
36.103
36.128
36.143
36.148
36.14
36.115
36.073
36.013
35.934
35.837
35.724
35.597
35.459
35.312
35.16
35.005
34.849
34.693
34.538
34.386
34.236
34.089
33.944
33.802
33.663
33.527
33.395
33.264
33.135
33.008
32.881
32.756
32.633
32.513
32.396
32.283
32.175
32.072
31.974
31.88
31.792
31.709
31.629
31.554
31.483
31.416
31.353
31.295
31.242
31.193
31.148
31.108
31.073
31.042
31.014
30.989
30.965
30.943
30.921
30.899
30.877
30.853
30.83
30.807
30.786
30.768
30.755
30.746
30.742
30.743
30.749
30.76
30.776
30.794
30.815
30.839
30.864
30.887
30.909
30.929
30.945
30.957
30.965
30.97
30.973
30.974
30.974
30.975
30.977
30.983
30.996
31.017
31.053
31.107
31.187
31.3
31.457
31.666
31.937
32.28
32.701
33.203
33.789
34.455
35.194
35.996
36.848
37.732
38.623
39.501
40.348
41.151
41.896
42.574
43.179
43.703
44.144
44.5
44.771
44.959
45.069
45.107
45.078
44.989
44.849
44.664
44.443
44.191
43.915
43.62
43.31
42.989
42.659
42.324
41.987
41.65
41.315
40.985
40.661
40.343
40.033
39.729
39.432
39.14
38.854
38.573
38.297
38.026
37.76
37.498
37.24
36.985
36.733
36.485
36.241
36.002
35.77
35.545
35.328
35.122
34.927
34.745
34.575
34.419
34.278
34.153
34.044
33.955
33.884
33.833
33.801
33.788
33.793
33.817
33.858
33.917
33.994
34.087
34.195
34.318
34.455
34.602
34.757
34.918
35.081
35.244
35.405
35.559
35.706
35.842
35.964
36.072
36.162
36.234
36.288
36.323
36.34
36.34
36.325
36.295
36.252
36.196
36.13
36.052
35.966
35.871
35.769
35.66
35.546
35.427
35.303
35.174
35.041
34.904
34.764
34.622
34.481
34.34
34.203
34.068
33.935
33.805
33.678
33.554
33.431
33.312
33.194
33.079
32.965
32.852
32.741
32.632
32.524
32.418
32.314
32.212
32.113
32.016
31.923
31.834
31.749
31.671
31.599
31.534
31.477
31.427
31.383
31.343
31.306
31.271
31.235
31.2
31.163
31.126
31.089
31.053
31.018
30.986
30.958
30.933
30.913
30.897
30.885
30.879
30.877
30.88
30.887
30.898
30.911
30.926
30.941
30.957
30.972
30.987
30.999
31.009
31.016
31.02
31.021
31.02
31.018
31.017
31.021
31.031
31.054
31.094
31.157
31.249
31.379
31.554
31.783
32.075
32.437
32.875
33.391
33.984
34.649
35.38
36.166
36.994
37.85
38.716
39.577
40.415
41.215
41.962
42.644
43.249
43.77
44.202
44.54
44.786
44.941
45.012
45.007
44.932
44.798
44.614
44.388
44.129
43.845
43.542
43.225
42.899
42.569
42.242
41.922
41.61
41.305
41.008
40.716
40.428
40.143
39.858
39.573
39.286
38.999
38.711
38.423
38.136
37.851
37.567
37.287
37.01
36.739
36.474
36.216
35.965
35.723
35.489
35.263
35.047
34.842
34.648
34.466
34.297
34.142
34.003
33.881
33.775
33.688
33.619
33.569
33.539
33.527
33.533
33.557
33.598
33.654
33.725
33.811
33.911
34.023
34.148
34.284
34.428
34.579
34.735
34.894
35.052
35.207
35.356
35.494
35.618
35.727
35.819
35.894
35.952
35.994
36.02
36.031
36.029
36.015
35.989
35.951
35.903
35.844
35.775
35.696
35.608
35.51
35.404
35.291
35.172
35.048
34.92
34.789
34.655
34.52
34.385
34.25
34.116
33.984
33.855
33.73
33.608
33.487
33.37
33.254
33.141
33.03
32.921
32.814
32.71
32.609
32.51
32.414
32.32
32.229
32.141
32.055
31.973
31.893
31.816
31.742
31.67
31.603
31.538
31.479
31.423
31.373
31.328
31.288
31.254
31.225
31.201
31.181
31.164
31.15
31.137
31.128
31.12
31.113
31.107
31.101
31.094
31.086
31.076
31.064
31.051
31.036
31.02
31.004
30.989
30.976
30.966
30.96
30.957
30.957
30.961
30.967
30.974
30.983
30.995
31.01
31.03
31.059
31.101
31.159
31.24
31.35
31.496
31.689
31.936
32.245
32.624
33.077
33.614
34.235
34.935
35.703
36.524
37.381
38.255
39.128
39.982
40.799
41.563
42.263
42.888
43.429
43.881
44.243
44.514
44.696
44.796
44.818
44.772
44.665
44.508
44.307
44.071
43.808
43.523
43.224
42.913
42.596
42.275
41.953
41.632
41.314
41.0
40.689
40.382
40.078
39.775
39.475
39.176
38.879
38.584
38.291
38.001
37.716
37.435
37.159
36.89
36.628
36.372
36.122
35.878
35.641
35.409
35.185
34.969
34.762
34.565
34.379
34.206
34.046
33.903
33.776
33.668
33.582
33.518
33.478
33.462
33.471
33.503
33.557
33.633
33.727
33.839
33.966
34.105
34.255
34.413
34.577
34.743
34.91
35.076
35.241
35.401
35.556
35.703
35.842
35.971
36.088
36.192
36.281
36.353
36.408
36.443
36.458
36.454
36.433
36.394
36.339
36.269
36.187
36.093
35.988
35.876
35.758
35.636
35.511
35.385
35.256
35.126
34.995
34.862
34.729
34.596
34.466
34.338
34.21
34.084
33.957
33.831
33.704
33.578
33.452
33.327
33.203
33.082
32.963
32.848
32.737
32.63
32.529
32.433
32.342
32.257
32.177
32.102
32.032
31.966
31.904
31.846
31.794
31.747
31.704
31.667
31.633
31.603
31.575
31.548
31.522
31.497
31.472
31.448
31.422
31.397
31.37
31.343
31.316
31.288
31.26
31.233
31.207
31.182
31.159
31.135
31.106
31.074
31.042
31.012
30.989
30.977
30.977
30.992
31.022
31.071
31.139
31.231
31.35
31.502
31.693
31.931
32.22
32.568
32.979
33.453
33.993
34.598
35.262
35.98
36.741
37.534
38.344
39.156
39.955
40.723
41.448
42.116
42.715
43.238
43.679
44.034
44.304
44.49
44.596
44.627
44.59
44.493
44.345
44.153
43.926
43.67
43.394
43.104
42.803
42.496
42.185
41.872
41.56
41.248
40.938
40.629
40.321
40.015
39.71
39.407
39.106
38.809
38.515
38.225
37.94
37.658
37.38
37.106
36.837
36.573
36.315
36.062
35.816
35.576
35.345
35.122
34.909
34.707
34.517
34.338
34.174
34.026
33.893
33.778
33.682
33.606
33.55
33.513
33.498
33.501
33.525
33.568
33.63
33.711
33.81
33.925
34.056
34.2
34.355
34.516
34.683
34.852
35.021
35.189
35.351
35.507
35.653
35.789
35.911
36.018
36.11
36.184
36.239
36.275
36.293
36.293
36.275
36.241
36.191
36.128
36.055
35.974
35.886
35.792
35.692
35.589
35.48
35.368
35.251
35.13
35.003
34.872
34.737
34.598
34.455
34.31
34.164
34.017
33.87
33.726
33.585
33.449
33.319
33.197
33.082
32.975
32.876
32.784
32.698
32.618
32.54
32.466
32.394
32.324
32.256
32.189
32.123
32.06
31.998
31.938
31.878
31.819
31.762
31.706
31.652
31.6
31.551
31.504
31.461
31.42
31.382
31.345
31.312
31.281
31.252
31.226
31.203
31.183
31.165
31.15
31.139
31.131
31.126
31.125
31.127
31.132
31.14
31.151
31.164
31.178
31.194
31.211
31.23
31.253
31.28
31.314
31.356
31.411
31.483
31.578
31.703
31.869
32.083
32.355
32.693
33.102
33.587
34.148
34.783
35.486
36.248
37.057
37.896
38.749
39.599
40.427
41.216
41.951
42.619
43.207
43.71
44.123
44.445
44.678
44.826
44.895
44.893
44.828
44.708
44.541
44.337
44.1
43.838
43.558
43.264
42.959
42.648
42.333
42.016
41.7
41.386
41.078
40.775
40.478
40.187
39.9
39.617
39.338
39.06
38.785
38.511
38.241
37.974
37.711
37.451
37.196
36.944
36.697
36.455
36.22
35.991
35.768
35.553
35.345
35.146
34.956
34.775
34.606
34.449
34.307
34.182
34.076
33.99
33.927
33.887
33.864
33.854
33.858
33.876
33.912
33.969
34.047
34.147
34.268
34.408
34.564
