Trial 1:0back
31.592
31.732
31.909
32.127
32.385
32.684
33.022
33.398
33.808
34.247
34.711
35.194
35.692
36.198
36.708
37.217
37.718
38.208
38.681
39.132
39.554
39.946
40.302
40.622
40.904
41.148
41.353
41.521
41.653
41.752
41.819
41.857
41.871
41.862
41.833
41.787
41.726
41.653
41.57
41.478
41.379
41.274
41.163
41.049
40.932
40.814
40.695
40.577
40.461
40.348
40.238
40.132
40.03
39.932
39.838
39.746
39.656
39.565
39.472
39.375
39.273
39.165
39.051
38.931
38.805
38.673
38.535
38.395
38.253
38.111
37.971
37.833
37.698
37.566
37.439
37.317
37.201
37.091
36.988
36.892
36.801
36.716
36.636
36.563
36.496
36.435
36.38
36.331
36.29
36.255
36.226
36.201
36.181
36.165
36.151
36.137
36.12
36.098
36.071
36.038
36.001
35.959
35.915
35.87
35.826
35.782
35.74
35.7
35.66
35.62
35.579
35.537
35.494
35.447
35.395
35.342
35.289
35.236
35.181
35.123
35.06
34.991
34.917
34.835
34.747
34.654
34.556
34.455
34.353
34.25
34.147
34.047
33.948
33.853
33.76
33.671
33.586
33.505
33.426
33.35
33.277
33.205
33.135
33.067
33.001
32.936
32.874
32.812
32.752
32.693
32.635
32.578
32.521
32.464
32.408
32.353
32.298
32.245
32.193
32.142
32.093
32.046
32.002
31.959
31.919
31.882
31.848
31.816
31.787
31.76
31.734
31.71
31.685
31.661
31.637
31.612
31.587
31.56
31.531
31.5
31.467
31.433
31.397
31.362
31.327
31.294
31.263
31.236
31.212
31.191
31.175
31.161
31.15
31.139
31.126
31.11
31.09
31.064
31.032
30.994
30.953
30.908
30.861
30.814
30.77
30.732
30.703
30.688
30.69
30.713
30.76
30.835
30.941
31.081
31.256
31.469
31.72
32.008
32.334
32.694
33.088
33.511
33.961
34.433
34.922
35.421
35.925
36.426
36.918
37.395
37.852
38.283
38.686
39.058
39.397
39.701
39.969
40.2
40.395
40.556
40.685
40.782
40.851
40.895
40.915
40.914
40.895
40.858
40.807
40.742
40.664
40.575
40.477
40.372
40.263
40.151
40.038
39.926
39.815
39.705
39.599
39.495
39.393
39.295
39.199
39.104
39.011
38.919
38.827
38.734
38.639
38.543
38.443
38.339
38.231
38.119
38.005
37.888
37.77
37.649
37.527
37.404
37.279
37.153
37.025
36.896
36.765
36.635
36.508
36.384
36.266
36.156
36.055
35.963
35.882
35.81
35.746
35.689
35.639
35.595
35.555
35.518
35.484
35.452
35.421
35.389
35.357
35.325
35.292
35.258
35.224
35.188
35.152
35.113
35.073
35.032
34.989
34.944
34.898
34.851
34.803
34.754
34.703
34.649
34.593
34.533
34.47
34.403
34.333
34.26
34.186
34.112
34.039
33.968
33.898
33.832
33.769
33.708
33.649
33.591
33.533
33.473
33.41
33.344
33.273
33.198
33.119
33.037
32.952
32.867
32.783
32.701
32.623
32.55
32.482
32.421
32.365
32.313
32.265
32.219
32.174
32.128
32.082
32.034
31.985
31.934
31.882
31.829
31.775
31.721
31.668
31.617
31.569
31.523
31.479
31.438
31.4
31.363
31.327
31.291
31.257
31.222
31.188
31.154
31.12
31.087
31.055
31.024
30.995
30.968
30.945
30.924
30.907
30.894
30.884
30.876
30.871
30.868
30.865
30.861
30.856
30.848
30.836
30.819
30.797
30.77
30.739
30.704
30.667
30.628
30.589
30.551
30.516
30.484
30.457
30.433
30.413
30.396
30.381
30.367
30.354
30.341
30.327
30.311
30.294
30.277
30.261
30.249
30.245
30.251
30.271
30.308
30.367
30.451
30.563
30.706
30.883
31.095
31.341
31.622
31.936
32.282
32.656
33.057
33.478
33.916
34.366
34.822
35.28
35.732
36.174
36.601
37.01
37.397
37.76
38.097
38.405
38.682
38.927
39.139
39.317
39.461
39.571
39.649
39.697
39.719
39.716
39.693
39.651
39.596
39.528
39.451
39.368
39.281
39.191
39.099
39.006
38.914
38.822
38.731
38.641
38.553
38.465
38.378
38.29
38.203
38.115
38.027
37.938
37.849
37.759
37.669
37.579
37.487
37.393
37.296
37.195
37.089
36.978
36.863
36.743
36.622
36.501
36.381
36.265
36.153
36.048
35.949
35.859
35.776
35.702
35.634
35.573
35.517
35.466
35.42
35.379
35.342
35.31
35.282
35.259
35.24
35.224
35.21
35.198
35.189
35.18
35.173
35.166
35.159
35.152
35.144
35.134
35.121
35.105
35.085
35.061
35.032
34.997
34.956
34.909
34.855
34.796
34.732
34.666
34.599
34.534
34.47
34.408
34.347
34.289
34.232
34.175
34.118
34.06
34.0
33.937
33.871
33.801
33.73
33.657
33.584
33.511
33.44
33.371
33.306
33.243
33.184
33.128
33.075
33.024
32.974
32.924
32.873
32.82
32.767
32.712
32.656
32.599
32.541
32.484
32.427
32.374
32.323
32.276
32.234
32.195
32.16
32.126
32.095
32.064
32.033
32.002
31.97
31.936
31.901
31.865
31.828
31.79
31.754
31.719
31.686
31.654
31.623
31.594
31.567
31.542
31.519
31.499
31.48
31.463
31.447
31.431
31.415
31.399
31.383
31.368
31.352
31.336
31.32
31.303
31.287
31.27
31.254
31.239
31.224
31.211
31.2
31.191
31.185
31.185
31.192
31.211
31.244
31.296
31.37
31.469
31.596
31.753
31.942
32.163
32.415
32.698
33.009
33.346
33.705
34.083
34.476
34.879
35.288
35.697
36.102
36.499
36.883
37.25
37.596
37.917
38.211
38.477
38.714
38.923
39.106
39.263
39.397
39.51
39.602
39.674
39.728
39.762
39.78
39.781
39.767
39.737
39.693
39.635
39.565
39.483
39.392
39.293
39.189
39.082
38.973
38.865
38.759
38.655
38.554
38.455
38.357
38.259
38.16
38.059
37.957
37.853
37.747
37.641
37.534
37.425
37.315
37.204
37.091
36.978
36.864
36.75
36.636
36.523
36.413
36.306
36.202
36.103
36.008
35.919
35.836
35.759
35.689
35.627
35.571
35.522
35.48
35.445
35.415
35.39
35.37
35.354
35.342
35.333
35.326
35.321
35.316
35.309
35.298
35.283
35.264
35.24
35.214
35.186
35.158
35.129
35.1
35.07
35.039
35.006
34.971
34.934
34.894
34.851
34.804
34.753
34.698
34.64
34.577
34.512
34.445
34.377
34.308
34.238
34.168
34.097
34.027
33.958
33.89
33.824
33.76
33.699
33.641
33.586
33.532
33.48
33.428
33.375
33.321
33.266
33.21
33.154
33.098
33.042
32.988
32.936
32.887
32.84
32.795
32.75
32.707
32.664
32.62
32.573
32.525
32.474
32.42
32.362
32.302
32.24
32.177
32.116
32.056
32.0
31.95
31.906
31.868
31.837
31.813
31.795
31.783
31.776
31.774
31.778
31.791
31.812
31.834
31.852
31.864
31.873
31.876
31.873
31.863
31.847
31.826
31.8
31.769
31.736
31.7
31.662
31.624
31.584
31.543
31.502
31.46
31.419
31.377
31.336
31.295
31.255
31.217
31.182
31.153
31.131
31.118
31.118
31.131
31.161
31.209
31.28
31.373
31.493
31.64
31.814
32.018
32.25
32.512
32.803
33.123
33.47
33.844
34.24
34.654
35.084
35.522
35.966
36.409
36.846
37.273
37.686
38.081
38.453
38.801
39.12
39.409
39.666
39.89
40.083
40.245
40.38
40.49
40.578
40.646
40.696
40.73
40.751
40.758
40.753
40.737
40.71
40.673
40.625
40.568
40.502
40.428
40.346
40.259
40.168
40.076
39.984
39.893
39.805
39.719
39.636
39.555
39.474
39.394
39.313
39.232
39.149
39.064
38.977
38.888
38.796
38.701
38.603
38.502
38.398
38.293
38.185
38.076
37.967
37.858
37.75
37.644
37.54
37.44
37.343
37.25
37.162
37.08
37.003
36.932
36.866
36.806
36.751
36.702
36.659
36.621
36.588
36.56
36.533
36.508
36.481
36.452
36.419
36.383
36.344
36.302
36.259
36.215
36.171
36.128
36.085
36.043
36.001
35.957
35.912
35.864
35.813
35.759
35.702
35.642
35.581
35.518
35.453
35.388
35.322
35.255
35.187
35.119
35.05
34.981
34.912
34.844
34.776
34.709
34.643
34.578
34.513
34.447
34.38
34.31
34.239
34.165
34.09
34.014
33.939
33.864
33.791
33.721
33.655
33.593
33.537
33.484
33.435
33.389
33.343
33.298
33.25
33.199
33.145
33.088
33.026
32.961
32.893
32.825
32.758
32.693
32.634
32.579
32.529
32.485
32.447
32.414
32.385
32.359
32.335
32.313
32.291
32.267
32.242
32.215
32.187
32.157
32.126
32.095
32.064
32.033
32.003
31.975
31.947
31.922
31.898
31.877
31.857
31.837
31.818
31.798
31.778
31.755
31.73
31.704
31.677
31.649
31.622
31.595
31.57
31.546
31.523
31.503
31.484
31.467
31.45
31.432
31.414
31.394
31.374
31.353
31.333
31.315
31.3
31.291
31.289
31.3
31.327
31.375
31.447
31.547
31.678
31.843
32.043
32.281
32.556
32.868
33.215
33.593
33.999
34.428
34.875
35.335
35.803
36.273
36.739
37.196
37.639
38.063
38.466
38.845
39.199
39.527
39.827
40.099
40.342
40.557
40.742
40.899
41.028
41.132
41.211
41.267
41.304
41.323
41.324
41.31
41.281
41.237
41.181
41.115
41.04
40.958
40.872
40.784
40.694
40.602
40.51
40.417
40.324
40.232
40.141
40.053
39.968
39.886
39.807
39.73
39.654
39.577
39.499
39.417
39.331
39.241
39.145
39.044
38.938
38.827
38.711
38.59
38.466
38.338
38.209
38.08
37.952
37.828
37.709
37.596
37.489
37.389
37.298
37.213
37.135
37.062
36.992
36.926
36.863
36.803
36.745
36.691
36.641
36.596
36.557
36.523
36.494
36.468
36.446
36.426
36.406
36.386
36.366
36.344
36.321
36.295
36.265
36.232
36.195
36.155
36.111
36.064
36.014
35.962
35.906
35.848
35.788
35.726
35.662
35.598
35.533
35.468
35.4
35.331
35.258
35.182
35.103
35.022
34.939
34.857
34.775
34.695
34.618
34.544
34.474
34.407
34.342
34.281
34.22
34.161
34.101
34.04
33.977
33.912
33.845
33.776
33.706
33.635
33.566
33.499
33.435
33.374
33.316
33.262
33.211
33.161
33.112
33.064
33.015
32.965
32.914
32.861
32.807
32.751
32.695
32.639
32.584
32.532
32.483
32.437
32.393
32.354
32.318
32.286
32.257
32.232
32.208
32.187
32.166
32.145
32.125
32.105
32.085
32.064
32.043
32.021
31.999
31.976
31.953
31.929
31.906
31.883
31.859
31.835
31.811
31.787
31.765
31.743
31.724
31.706
31.689
31.673
31.658
31.641
31.622
31.601
31.576
31.55
31.52
31.489
31.456
31.424
31.393
31.363
31.337
31.313
31.293
31.275
31.259
31.246
31.233
31.221
31.209
31.196
31.183
31.169
31.156
31.148
31.145
31.153
31.174
31.214
31.276
31.365
31.485
31.64
31.833
32.066
32.339
32.652
33.002
33.388
33.804
34.246
34.709
35.187
35.676
36.171
36.665
37.155
37.635
38.101
38.549
38.974
39.374
39.746
40.089
40.402
40.682
40.928
41.141
41.32
41.467
41.582
41.667
41.725
41.758
41.77
41.763
41.741
41.704
41.655
41.596
41.526
41.449
41.366
41.278
41.187
41.094
41.001
40.908
40.817
40.728
40.642
40.558
40.478
40.399
40.322
40.245
40.166
40.084
39.999
39.908
39.812
39.709
39.6
39.483
39.36
39.231
39.097
38.96
38.821
38.684
38.549
38.418
38.293
38.174
38.061
37.955
37.854
37.759
37.669
37.585
37.506
37.433
37.365
37.305
37.25
37.2
37.155
37.114
37.078
37.046
37.018
36.993
36.97
36.95
36.931
36.912
36.892
36.869
36.843
36.814
36.781
36.745
36.708
36.668
36.626
36.582
36.538
36.493
36.446
36.396
36.34
36.278
36.214
36.15
36.085
36.02
35.955
35.888
35.821
35.751
35.678
35.603
35.526
35.447
35.366
35.282
35.193
35.096
34.992
34.886
34.779
34.675
34.574
34.48
34.393
34.313
34.24
34.174
34.113
34.056
34.003
33.952
33.902
33.852
33.803
33.753
33.703
33.654
33.604
33.556
33.508
33.461
33.415
33.37
33.324
33.278
33.231
33.182
33.13
33.073
33.013
32.95
32.884
32.818
32.751
32.687
32.625
32.568
32.515
32.468
32.427
32.391
32.361
32.334
32.311
32.291
32.272
32.254
32.236
32.216
32.194
32.169
32.143
32.115
32.087
32.061
32.037
32.015
31.996
31.979
31.962
31.946
31.929
31.91
31.89
31.868
31.843
31.816
31.787
31.756
31.723
31.689
31.656
31.623
31.592
31.564
31.54
31.519
31.502
31.489
31.478
31.468
31.457
31.446
31.432
31.415
31.395
31.371
31.344
31.317
31.29
31.267
31.25
31.246
31.257
31.29
31.35
31.442
31.569
31.736
31.942
32.189
32.475
32.799
33.157
33.546
33.963
34.402
34.86
35.331
35.81
36.291
36.768
37.238
37.694
38.134
38.552
38.948
39.318
39.661
39.976
40.26
40.511
40.728
40.91
41.059
41.175
41.259
41.315
41.345
41.354
41.345
41.321
41.283
41.234
41.173
41.104
41.026
40.942
40.851
40.754
40.654
40.551
40.445
40.337
40.228
40.117
40.005
39.894
39.784
39.675
39.567
39.46
39.354
39.248
39.141
39.031
38.918
38.802
38.682
38.558
38.431
38.301
38.171
38.04
37.911
37.784
37.66
37.541
37.427
37.319
37.218
37.124
37.038
36.96
36.889
36.825
36.767
36.715
36.669
36.628
36.59
36.556
36.526
36.499
36.476
36.457
36.443
36.432
36.426
36.423
36.421
36.42
36.418
36.414
36.406
36.393
36.376
36.355
36.328
36.297
36.261
36.222
36.181
36.138
36.092
36.044
35.992
35.937
35.879
35.818
35.753
35.685
35.615
35.544
35.47
35.396
35.319
35.242
35.165
35.087
35.008
34.929
34.851
34.775
34.7
34.628
34.558
34.492
34.428
34.367
34.308
34.25
34.193
34.135
34.076
34.017
33.956
33.894
33.83
33.766
33.703
33.641
33.581
33.523
33.469
33.418
33.37
33.323
33.277
33.232
33.188
33.143
33.098
33.051
33.004
32.955
32.906
32.857
32.81
32.764
32.721
32.68
32.642
32.607
32.577
32.55
32.526
32.504
32.484
32.464
32.442
32.419
32.393
32.365
32.333
32.299
32.262
32.225
32.186
32.149
32.114
32.082
32.053
32.027
32.003
31.982
31.962
31.944
31.928
31.913
31.9
31.889
31.883
31.882
31.891
31.912
31.951
32.011
32.097
32.214
32.364
32.549
32.772
33.033
33.333
33.668
34.037
34.434
34.856
35.298
35.754
36.219
36.687
37.151
37.608
38.052
38.479
38.885
39.266
39.619
39.944
40.239
40.504
40.738
40.942
41.115
41.257
41.37
41.455
41.512
41.543
41.552
41.54
41.51
41.464
41.403
41.331
41.249
41.161
41.067
40.968
40.867
40.764
40.66
40.557
40.454
40.349
40.242
40.134
40.024
39.914
39.803
39.691
39.58
39.469
39.357
39.244
39.129
39.012
38.891
38.768
38.639
38.507
38.37
38.23
38.089
37.946
37.805
37.665
37.529
37.398
37.272
37.155
37.046
36.949
36.863
36.788
36.724
36.67
36.624
36.586
36.554
36.526
36.5
36.476
36.453
36.431
36.41
36.39
36.372
36.357
36.345
36.335
36.326
36.318
36.309
36.298
36.284
36.266
36.243
36.215
36.182
36.143
36.101
36.055
36.006
35.956
35.903
35.849
35.793
35.735
35.676
35.615
35.553
35.491
35.429
35.369
35.308
35.247
35.184
35.12
35.053
34.984
34.913
34.84
34.765
34.69
34.615
34.54
34.467
34.395
34.325
34.257
34.191
34.126
34.062
34.0
33.939
33.877
33.814
33.749
33.68
33.609
33.536
33.462
33.388
33.316
33.247
33.182
33.121
33.065
33.014
32.968
32.926
32.889
32.853
32.819
32.785
32.749
32.712
32.672
32.629
32.584
32.538
32.491
32.445
32.402
32.36
32.322
32.288
32.258
32.23
32.206
32.185
32.166
32.147
32.128
32.108
32.086
32.063
32.037
32.008
31.978
31.947
31.914
31.882
31.85
31.819
31.79
31.763
31.739
31.716
31.696
31.678
31.663
31.65
31.641
31.637
31.64
31.653
31.679
31.722
31.786
31.877
31.998
32.153
32.345
32.576
32.848
33.16
33.513
33.902
34.325
34.78
35.261
35.763
36.28
36.805
37.332
37.853
38.362
38.852
39.319
39.758
40.166
40.54
40.878
41.179
41.446
41.677
41.875
42.039
42.165
42.254
42.31
42.335
42.336
42.316
42.28
42.233
42.176
42.114
42.048
41.98
41.912
41.844
41.776
41.708
41.638
41.567
41.491
41.412
41.327
41.236
41.141
41.041
40.938
40.831
40.722
40.61
40.495
40.376
40.253
40.128
40.0
39.87
39.737
39.603
39.468
39.332
39.196
39.059
38.923
38.787
38.653
38.521
38.394
38.273
38.159
38.053
37.955
37.866
37.782
37.705
37.632
37.564
37.499
37.438
37.381
37.326
37.275
37.228
37.184
37.145
37.11
37.077
37.048
37.02
36.995
36.971
36.948
36.926
36.905
36.883
36.859
36.832
36.801
36.765
36.723
36.676
36.623
36.565
36.503
36.438
36.371
36.302
36.233
36.164
36.096
36.028
35.961
35.894
35.827
35.759
35.689
35.617
35.543
35.466
35.386
35.305
35.222
35.14
35.059
34.978
34.9
34.824
34.751
34.681
34.614
34.548
34.484
34.418
34.352
34.283
34.212
34.139
34.065
33.99
33.915
33.842
33.77
33.701
33.634
33.571
33.51
33.452
33.396
33.341
33.287
33.233
33.18
33.128
33.078
33.028
32.979
32.931
32.883
32.835
32.788
32.743
32.7
32.66
32.622
32.587
32.555
32.526
32.5
32.478
32.459
32.443
32.43
32.417
32.405
32.392
32.377
32.361
32.344
32.325
32.303
32.278
32.251
32.221
32.19
32.157
32.124
32.092
32.06
32.03
32.001
31.975
31.95
31.928
31.908
31.888
31.869
31.849
31.828
31.805
31.779
31.753
31.726
31.702
31.683
31.671
31.672
31.688
31.723
31.781
31.867
31.984
32.135
32.321
32.544
32.806
33.105
33.441
33.812
34.215
34.648
35.107
35.589
36.088
36.598
37.115
37.632
38.142
38.638
39.117
39.573
40.004
40.406
40.778
41.117
41.421
41.689
41.921
42.117
42.28
42.41
42.51
42.582
42.628
42.651
42.652
42.633
42.596
42.543
42.476
42.396
42.306
42.206
42.098
41.983
41.865
41.744
41.622
41.501
41.383
41.268
41.158
41.052
40.95
40.852
40.755
40.66
40.565
40.469
40.37
40.269
40.163
40.052
39.936
39.814
39.687
39.555
39.417
39.277
39.134
38.991
38.848
38.708
38.571
38.439
38.312
38.19
38.073
37.961
37.855
37.755
37.661
37.576
37.498
37.43
37.369
37.316
37.27
37.232
37.199
37.17
37.146
37.124
37.105
37.087
37.07
37.051
37.031
37.009
36.985
36.957
36.927
36.892
36.854
36.813
36.767
36.718
36.667
36.613
36.555
36.496
36.433
36.368
36.3
36.23
36.156
36.079
35.999
35.917
35.834
35.75
35.667
35.585
35.505
35.428
35.352
35.277
35.204
35.131
35.058
34.985
34.91
34.834
34.756
34.678
34.6
34.522
34.446
34.37
34.296
34.223
34.152
34.081
34.011
33.943
33.877
33.812
33.75
33.688
33.628
33.569
33.51
33.452
33.394
33.336
33.278
33.218
33.157
33.094
33.029
32.965
32.901
32.838
32.778
32.722
32.67
32.623
32.58
32.54
32.505
32.473
32.443
32.414
32.386
32.356
32.325
32.292
32.258
32.224
32.191
32.16
32.131
32.102
32.076
32.051
32.028
32.007
31.986
31.967
31.947
31.925
31.901
31.874
31.844
31.813
31.782
31.75
31.72
31.691
31.663
31.637
31.613
31.593
31.576
31.563
31.553
31.545
31.538
31.532
31.525
31.517
31.507
31.493
31.476
31.454
31.431
31.409
31.392
31.386
31.395
31.426
31.484
31.576
31.705
31.877
32.092
32.354
32.66
33.009
33.398
33.823
34.277
34.756
35.255
35.769
36.291
36.816
37.337
37.851
38.35
38.832
39.29
39.72
40.12
40.487
40.818
41.112
41.369
41.588
41.769
41.914
42.025
42.103
42.151
42.174
42.172
42.151
42.113
42.059
41.993
41.917
41.832
41.742
41.648
41.551
41.451
41.348
41.241
41.13
41.013
40.893
40.77
40.646
40.522
40.4
40.281
40.166
40.053
39.944
39.837
39.729
39.618
39.504
39.386
39.263
39.135
39.003
38.87
38.743
38.628
38.521
38.421
38.324
38.228
38.129
38.028
37.924
37.818
37.711
37.605
37.499
37.396
37.297
37.203
37.115
37.033
36.958
36.892
36.833
36.783
36.741
36.706
36.679
36.658
36.642
36.629
36.62
36.61
36.6
36.587
36.571
36.551
36.527
36.499
36.466
36.43
36.391
36.348
36.302
36.253
36.202
36.148
36.091
36.032
35.97
35.904
35.836
35.766
35.694
35.62
35.544
35.465
35.384
35.302
35.218
35.134
35.051
34.968
34.889
34.812
34.739
34.669
34.603
34.539
34.477
34.417
34.357
34.295
34.233
34.168
34.103
34.035
33.966
33.898
33.829
33.762
33.697
33.634
33.575
33.519
33.467
33.418
33.372
33.328
33.286
33.243
33.199
33.153
33.106
33.056
33.006
32.955
32.904
32.855
32.808
32.764
32.723
32.686
32.652
32.622
32.594
32.568
32.543
32.52
32.498
32.476
32.454
32.432
32.41
32.388
32.365
32.343
32.321
32.298
32.276
32.254
32.232
32.209
32.186
32.161
32.136
32.11
32.084
32.058
32.031
32.004
31.977
31.952
31.927
31.904
31.883
31.864
