Trial 1:0back
39.997
40.018
40.025
40.021
40.007
39.986
39.959
39.929
39.896
39.862
39.827
39.791
39.756
39.723
39.691
39.661
39.634
39.61
39.589
39.57
39.553
39.537
39.521
39.504
39.487
39.467
39.445
39.42
39.391
39.358
39.322
39.281
39.237
39.191
39.141
39.091
39.039
38.989
38.94
38.894
38.853
38.815
38.782
38.753
38.729
38.71
38.695
38.683
38.675
38.67
38.668
38.667
38.667
38.668
38.668
38.667
38.664
38.658
38.648
38.634
38.616
38.593
38.565
38.532
38.493
38.449
38.401
38.347
38.289
38.228
38.163
38.096
38.028
37.958
37.887
37.815
37.742
37.668
37.594
37.517
37.44
37.361
37.281
37.201
37.12
37.039
36.958
36.877
36.797
36.716
36.635
36.554
36.473
36.392
36.312
36.233
36.156
36.081
36.008
35.936
35.867
35.798
35.732
35.667
35.604
35.543
35.483
35.425
35.368
35.313
35.258
35.204
35.151
35.098
35.047
34.997
34.949
34.902
34.857
34.814
34.774
34.735
34.698
34.661
34.623
34.586
34.547
34.509
34.47
34.432
34.395
34.359
34.323
34.288
34.253
34.219
34.184
34.15
34.115
34.081
34.047
34.012
33.978
33.944
33.91
33.876
33.844
33.811
33.778
33.744
33.71
33.676
33.641
33.605
33.569
33.534
33.499
33.466
33.434
33.404
33.376
33.35
33.327
33.305
33.285
33.268
33.251
33.234
33.217
33.198
33.177
33.154
33.128
33.1
33.068
33.034
32.998
32.96
32.92
32.879
32.837
32.794
32.751
32.707
32.663
32.618
32.572
32.526
32.479
32.432
32.386
32.343
32.305
32.275
32.255
32.25
32.262
32.295
32.353
32.438
32.555
32.703
32.885
33.101
33.349
33.628
33.935
34.267
34.621
34.992
35.377
35.771
36.169
36.567
36.959
37.341
37.708
38.056
38.382
38.682
38.953
39.195
39.405
39.583
39.73
39.847
39.935
39.997
40.036
40.053
40.052
40.036
40.006
39.966
39.918
39.865
39.807
39.747
39.686
39.627
39.568
39.513
39.461
39.413
39.37
39.333
39.301
39.274
39.252
39.235
39.222
39.213
39.206
39.199
39.192
39.182
39.168
39.15
39.126
39.095
39.059
39.017
38.97
38.918
38.861
38.801
38.74
38.678
38.618
38.561
38.508
38.46
38.417
38.382
38.352
38.33
38.314
38.303
38.298
38.298
38.3
38.305
38.311
38.318
38.323
38.327
38.327
38.323
38.313
38.298
38.277
38.25
38.217
38.178
38.135
38.087
38.035
37.979
37.92
37.859
37.795
37.729
37.661
37.591
37.519
37.445
37.371
37.295
37.219
37.143
37.066
36.989
36.911
36.832
36.753
36.674
36.595
36.516
36.437
36.359
36.281
36.204
36.129
36.055
35.983
35.913
35.845
35.778
35.713
35.649
35.586
35.523
35.461
35.399
35.336
35.275
35.215
35.155
35.098
35.042
34.987
34.935
34.884
34.835
34.787
34.741
34.697
34.654
34.612
34.57
34.53
34.49
34.45
34.41
34.37
34.33
34.289
34.248
34.207
34.166
34.124
34.081
34.038
33.994
33.95
33.906
33.862
33.819
33.775
33.732
33.69
33.648
33.608
33.569
33.531
33.493
33.457
33.42
33.384
33.348
33.313
33.277
33.241
33.204
33.166
33.127
33.086
33.045
33.004
32.963
32.922
32.882
32.843
32.805
32.769
32.735
32.701
32.669
32.637
32.605
32.573
32.54
32.507
32.472
32.436
32.399
32.361
32.322
32.283
32.243
32.203
32.164
32.125
32.086
32.048
32.011
31.975
31.939
31.903
31.869
31.838
31.81
31.787
31.77
31.761
31.763
31.779
31.813
31.867
31.945
32.051
32.187
32.354
32.554
32.786
33.051
33.347
33.671
34.02
34.389
34.775
35.172
35.575
35.979
36.377
36.766
37.141
37.497
37.832
38.141
38.424
38.678
38.902
39.098
39.265
39.404
39.518
39.607
39.673
39.72
39.749
39.763
39.763
39.752
39.733
39.707
39.676
39.642
39.606
39.569
39.531
39.493
39.455
39.417
39.381
39.346
39.312
39.281
39.251
39.223
39.196
39.169
39.143
39.115
39.084
39.051
39.014
38.973
38.928
38.879
38.827
38.771
38.714
38.656
38.597
38.539
38.482
38.428
38.378
38.331
38.29
38.254
38.223
38.199
38.179
38.166
38.157
38.153
38.153
38.155
38.159
38.165
38.17
38.175
38.179
38.18
38.179
38.175
38.167
38.156
38.141
38.121
38.097
38.067
38.032
37.99
37.944
37.893
37.837
37.777
37.715
37.649
37.581
37.511
37.44
37.366
37.292
37.216
37.139
37.06
36.981
36.901
36.819
36.737
36.655
36.572
36.488
36.405
36.322
36.24
36.158
36.077
35.997
35.918
35.84
35.763
35.688
35.614
35.541
35.468
35.397
35.328
35.261
35.196
35.134
35.075
35.018
34.962
34.909
34.858
34.808
34.759
34.711
34.665
34.62
34.576
34.533
34.492
34.452
34.413
34.375
34.339
34.305
34.271
34.238
34.205
34.172
34.139
34.105
34.07
34.034
33.998
33.961
33.923
33.885
33.848
33.812
33.776
33.742
33.709
33.677
33.645
33.615
33.586
33.556
33.527
33.498
33.468
33.437
33.405
33.372
33.337
33.301
33.264
33.225
33.186
33.147
33.108
33.068
33.029
32.99
32.95
32.911
32.872
32.831
32.79
32.748
32.704
32.659
32.612
32.564
32.514
32.463
32.411
32.359
32.308
32.257
32.208
32.161
32.117
32.078
32.044
32.017
31.997
31.986
31.986
32.0
32.029
32.077
32.146
32.24
32.36
32.509
32.687
32.896
33.133
33.399
33.69
34.005
34.341
34.692
35.055
35.425
35.795
36.162
36.52
36.864
37.191
37.496
37.778
38.034
38.264
38.466
38.64
38.788
38.911
39.009
39.085
39.14
39.177
39.198
39.205
39.2
39.184
39.16
39.13
39.093
39.053
39.01
38.965
38.918
38.872
38.825
38.778
38.732
38.688
38.643
38.6
38.556
38.513
38.469
38.423
38.375
38.325
38.271
38.215
38.155
38.092
38.026
37.957
37.888
37.82
37.756
37.695
37.641
37.593
37.553
37.52
37.496
37.478
37.468
37.465
37.467
37.474
37.486
37.501
37.518
37.537
37.557
37.576
37.594
37.61
37.624
37.634
37.641
37.642
37.638
37.63
37.616
37.597
37.574
37.546
37.514
37.479
37.44
37.397
37.351
37.301
37.247
37.189
37.127
37.06
36.989
36.914
36.835
36.753
36.669
36.583
36.497
36.411
36.325
36.24
36.155
36.072
35.988
35.904
35.821
35.738
35.655
35.573
35.49
35.409
35.329
35.252
35.177
35.104
35.034
34.966
34.9
34.837
34.777
34.718
34.662
34.607
34.553
34.501
34.449
34.398
34.349
34.3
34.253
34.208
34.163
34.12
34.08
34.041
34.005
33.971
33.938
33.907
33.876
33.845
33.815
33.784
33.752
33.719
33.686
33.652
33.617
33.583
33.55
33.518
33.489
33.461
33.435
33.411
33.389
33.368
33.348
33.327
33.307
33.285
33.263
33.24
33.216
33.191
33.164
33.136
33.107
33.077
33.047
33.016
32.984
32.952
32.919
32.885
32.849
32.812
32.774
32.733
32.69
32.646
32.6
32.552
32.504
32.456
32.407
32.359
32.313
32.267
32.223
32.182
32.145
32.112
32.086
32.07
32.065
32.076
32.104
32.153
32.225
32.323
32.449
32.604
32.79
33.007
33.254
33.529
33.831
34.156
34.5
34.86
35.231
35.608
35.987
36.363
36.731
37.086
37.426
37.745
38.042
38.314
38.56
38.778
38.968
39.132
39.269
39.382
39.472
39.541
39.592
39.626
39.645
39.651
39.646
39.632
39.61
39.581
39.547
39.509
39.469
39.427
39.386
39.344
39.304
39.265
39.227
39.192
39.158
39.126
39.095
39.066
39.036
39.006
38.976
38.943
38.907
38.868
38.826
38.779
38.73
38.677
38.621
38.563
38.503
38.444
38.386
38.33
38.277
38.228
38.184
38.145
38.111
38.082
38.059
38.04
38.027
38.018
38.013
38.012
38.014
38.018
38.023
38.028
38.031
38.032
38.029
38.023
38.012
37.995
37.974
37.948
37.917
37.881
37.841
37.795
37.745
37.692
37.634
37.573
37.509
37.442
37.372
37.3
37.226
37.15
37.073
36.995
36.915
36.835
36.754
36.673
36.592
36.51
36.427
36.345
36.261
36.177
36.093
36.009
35.925
35.842
35.761
35.681
35.605
35.531
35.462
35.396
35.334
35.275
35.219
35.166
35.115
35.067
35.02
34.974
34.928
34.883
34.837
34.792
34.747
34.704
34.661
34.618
34.577
34.536
34.496
34.457
34.418
34.38
34.342
34.304
34.266
34.227
34.187
34.147
34.107
34.066
34.025
33.982
33.939
33.895
33.851
33.807
33.762
33.718
33.674
33.63
33.587
33.545
33.503
33.461
33.42
33.378
33.337
33.297
33.257
33.217
33.179
33.141
33.106
33.073
33.043
33.015
32.989
32.966
32.944
32.923
32.903
32.884
32.863
32.842
32.82
32.796
32.77
32.741
32.71
32.675
32.638
32.597
32.553
32.506
32.456
32.405
32.352
32.297
32.241
32.186
32.13
32.076
32.023
31.971
31.921
31.872
31.825
31.78
31.736
31.694
31.654
31.616
31.579
31.544
31.511
31.479
31.451
31.427
31.408
31.398
31.4
31.416
31.452
31.51
31.594
31.706
31.849
32.026
32.236
32.482
32.761
33.074
33.417
33.786
34.179
34.588
35.01
35.438
35.867
36.293
36.708
37.11
37.493
37.855
38.19
38.499
38.777
39.026
39.244
39.432
39.592
39.724
39.83
39.914
39.977
40.022
40.051
40.065
40.068
40.06
40.044
40.02
39.991
39.958
39.922
39.884
39.847
39.813
39.781
39.753
39.728
39.708
39.69
39.675
39.663
39.653
39.645
39.639
39.634
39.629
39.624
39.616
39.605
39.59
39.568
39.541
39.506
39.466
39.419
39.369
39.315
39.259
39.201
39.144
39.088
39.034
38.984
38.938
38.898
38.862
38.832
38.807
38.786
38.77
38.757
38.748
38.74
38.733
38.726
38.718
38.707
38.694
38.677
38.656
38.631
38.601
38.567
38.528
38.486
38.439
38.387
38.331
38.271
38.206
38.137
38.064
37.987
37.906
37.823
37.737
37.651
37.564
37.477
37.391
37.305
37.22
37.134
37.048
36.962
36.875
36.787
36.699
36.61
36.52
36.43
36.34
36.251
36.163
36.077
35.992
35.91
35.829
35.749
35.671
35.593
35.516
35.44
35.363
35.288
35.213
35.139
35.068
34.998
34.931
34.867
34.805
34.748
34.693
34.641
34.593
34.547
34.504
34.464
34.426
34.389
34.354
34.32
34.287
34.254
34.221
34.188
34.154
34.12
34.085
34.051
34.016
33.981
33.945
33.908
33.871
33.833
33.794
33.756
33.717
33.679
33.641
33.604
33.567
33.531
33.496
33.462
33.43
33.399
33.369
33.339
33.308
33.277
33.244
33.211
33.177
33.142
33.107
33.07
33.033
32.997
32.96
32.923
32.886
32.849
32.813
32.776
32.739
32.701
32.663
32.624
32.584
32.545
32.505
32.466
32.426
32.385
32.345
32.305
32.265
32.226
32.188
32.151
32.115
32.08
32.046
32.012
31.98
31.948
31.916
31.884
31.853
31.822
31.79
31.758
31.724
31.69
31.654
31.617
31.579
31.539
31.498
31.455
31.412
31.369
31.327
31.287
31.249
31.214
31.184
31.159
31.142
31.134
31.138
31.156
31.192
31.249
31.331
31.441
31.581
31.752
31.957
32.195
32.468
32.774
33.111
33.476
33.867
34.278
34.705
35.143
35.586
36.029
36.465
36.891
37.299
37.686
38.047
38.379
38.681
38.95
39.187
39.392
39.565
39.709
39.825
39.917
39.986
40.036
40.068
40.086
40.091
40.085
40.07
40.048
40.02
39.988
39.954
39.917
39.881
39.845
39.811
39.779
39.749
39.721
39.695
39.671
39.65
39.631
39.613
39.597
39.582
39.566
39.549
39.529
39.506
39.477
39.442
39.402
39.356
39.305
39.251
39.194
39.135
39.076
39.017
38.96
38.905
38.853
38.805
38.761
38.722
38.688
38.659
38.634
38.614
38.598
38.584
38.573
38.563
38.554
38.545
38.535
38.524
38.512
38.497
38.479
38.457
38.432
38.404
38.373
38.339
38.302
38.261
38.216
38.168
38.114
38.056
37.993
37.926
37.854
37.778
37.699
37.616
37.532
37.445
37.358
37.27
37.182
37.093
37.003
36.913
36.821
36.729
36.635
36.54
36.446
36.352
36.258
36.166
36.076
35.988
35.903
35.821
35.742
35.665
35.591
35.52
35.45
35.382
35.314
35.248
35.181
35.116
35.051
34.989
34.928
34.869
34.812
34.758
34.706
34.656
34.608
34.561
34.514
34.468
34.422
34.377
34.333
34.289
34.246
34.204
34.164
34.124
34.086
34.048
34.011
33.975
33.94
33.905
33.871
33.838
33.805
33.771
33.737
33.703
33.667
33.631
33.593
33.554
33.514
33.473
33.432
33.39
33.349
33.308
33.268
33.228
33.188
33.149
33.111
33.073
33.035
32.997
32.959
32.922
32.883
32.844
32.805
32.764
32.722
32.68
32.637
32.593
32.55
32.506
32.461
32.417
32.374
32.331
32.29
32.25
32.211
32.173
32.136
32.098
32.061
32.022
31.984
31.945
31.905
31.866
31.826
31.788
31.75
31.713
31.679
31.645
31.613
31.583
31.553
31.523
31.494
31.465
31.435
31.405
31.374
31.343
31.311
31.278
31.245
31.21
31.175
31.139
31.103
31.066
31.03
30.996
30.963
30.933
30.909
30.891
30.884
30.888
30.909
30.95
31.014
31.104
31.225
31.377
31.564
31.786
32.044
32.336
32.661
33.017
33.399
33.805
34.227
34.663
35.105
35.549
35.99
36.422
36.84
37.24
37.619
37.973
38.3
38.597
38.863
39.098
39.302
39.475
39.619
39.735
39.825
39.891
39.936
39.963
39.974
39.972
39.959
39.937
39.908
39.872
39.832
39.788
39.741
39.692
39.643
39.595
39.547
39.502
39.459
39.419
39.383
39.348
39.315
39.283
39.251
39.218
39.183
39.146
39.106
39.063
39.016
38.967
38.915
38.861
38.804
38.747
38.69
38.634
38.579
38.526
38.476
38.431
38.389
38.353
38.322
38.296
38.275
38.26
38.249
38.243
38.24
38.24
38.24
38.24
38.239
38.236
38.231
38.224
38.214
38.2
38.184
38.164
38.141
38.116
38.087
38.056
38.02
37.981
37.938
37.891
37.841
37.788
37.732
37.673
37.61
37.544
37.476
37.405
37.332
37.257
37.18
37.1
37.018
36.934
36.848
36.762
36.675
36.59
36.505
36.42
36.337
36.254
36.172
36.09
36.009
35.929
35.849
35.769
35.69
35.61
35.531
35.453
35.375
35.299
35.224
35.151
35.081
35.012
34.946
34.882
34.82
34.76
34.701
34.644
34.588
34.532
34.477
34.422
34.367
34.312
34.257
34.203
34.149
34.097
34.045
33.995
33.947
33.901
33.858
33.819
33.783
33.75
33.72
33.692
33.667
33.645
33.625
33.607
33.589
33.572
33.554
33.536
33.515
33.492
33.466
33.438
33.408
33.375
33.339
33.301
33.259
33.215
33.167
33.117
33.063
33.007
32.949
32.89
32.828
32.766
32.704
32.641
32.579
32.519
32.459
32.401
32.345
32.291
32.24
32.191
32.145
32.102
32.062
32.025
31.991
31.959
31.93
31.902
31.876
31.849
31.823
31.796
31.768
31.739
31.708
31.674
31.637
31.597
31.555
31.511
31.465
31.418
31.37
31.323
31.275
31.229
31.183
31.138
31.095
31.052
31.011
30.972
30.935
30.9
30.869
30.841
30.816
30.796
30.781
30.773
30.772
30.782
30.805
30.844
30.903
30.985
31.093
31.23
31.397
31.596
31.829
32.095
32.394
32.723
33.079
33.46
33.861
34.276
34.702
35.132
35.562
35.986
36.4
36.798
37.177
37.534
37.865
38.169
38.443
38.688
38.903
39.088
39.244
39.374
39.478
39.559
39.618
39.658
39.681
39.69
39.685
39.67
39.646
39.614
39.577
39.535
39.488
39.439
39.388
39.335
39.282
39.228
39.174
39.12
39.066
39.011
38.957
38.902
38.846
38.79
38.733
38.673
38.611
38.547
38.481
38.412
38.342
38.272
38.203
38.135
38.069
38.007
37.95
37.898
37.853
37.815
37.783
37.759
37.741
37.729
37.724
37.724
37.73
37.741
37.757
37.775
37.795
37.816
37.837
37.856
37.872
37.885
37.893
37.895
37.891
37.88
37.862
37.838
37.807
37.771
37.729
37.681
37.629
37.573
37.514
37.451
37.385
37.316
37.245
37.171
37.095
37.018
36.94
36.86
36.781
36.7
36.618
36.536
36.452
36.366
36.278
36.188
36.096
36.002
35.907
35.811
35.716
35.622
35.53
35.44
35.353
35.269
35.187
35.108
35.031
34.957
34.886
34.816
34.747
34.681
34.616
34.552
34.491
34.432
34.376
34.323
34.273
34.225
34.18
34.137
34.096
34.056
34.019
33.983
33.949
33.916
33.884
33.854
33.824
33.794
33.764
33.734
33.703
33.672
33.64
33.608
33.577
33.545
33.513
33.482
33.451
33.42
33.388
33.357
33.326
33.295
33.265
33.235
33.206
33.177
33.149
33.121
33.092
33.062
33.031
32.998
32.963
32.928
32.891
32.854
32.816
32.779
32.742
32.707
32.673
32.642
32.612
32.585
32.559
32.535
32.511
32.487
32.462
32.435
32.407
32.376
32.343
32.306
32.266
32.222
32.176
32.127
32.077
32.024
31.971
31.917
31.863
31.809
31.756
31.704
31.653
31.603
31.554
31.508
31.464
31.422
31.383
31.348
31.316
31.291
31.272
31.264
31.268
31.289
31.329
31.393
31.484
31.605
31.761
31.952
32.18
32.445
32.747
33.083
33.452
33.848
34.268
34.705
35.155
35.611
36.066
36.514
36.951
37.37
37.767
38.138
38.48
38.792
39.072
39.32
39.537
39.724
39.882
40.013
40.12
40.204
40.268
40.312
40.339
40.35
40.349
40.336
40.314
40.286
40.252
40.215
40.175
40.132
40.089
40.044
39.999
39.954
39.908
39.864
39.821
39.779
39.739
39.701
39.664
39.627
39.589
39.55
39.508
39.463
39.414
39.362
39.307
39.248
39.187
39.124
39.059
38.993
38.929
38.866
38.806
38.75
38.699
38.653
38.612
38.577
38.547
38.524
38.506
38.494
38.487
38.484
38.484
38.486
38.489
38.492
38.495
38.495
38.492
38.486
38.475
38.46
38.441
38.418
38.39
38.359
38.325
38.286
38.243
38.196
38.145
38.09
38.03
37.967
37.901
37.831
37.758
37.682
37.604
37.522
37.439
37.352
37.264
37.173
37.08
36.985
36.888
36.791
36.692
36.594
36.496
36.399
36.304
36.21
36.118
36.028
35.939
35.851
35.766
35.681
35.599
35.518
35.44
35.364
35.289
35.215
35.143
35.071
35.001
34.933
34.867
34.802
34.739
34.678
34.618
34.559
34.501
34.446
34.392
34.341
34.291
34.244
34.198
34.154
34.113
34.074
34.037
34.002
33.969
33.937
33.906
33.876
33.847
33.817
33.787
33.757
33.725
33.692
33.657
33.622
33.584
33.546
33.508
33.469
33.431
33.393
33.355
33.318
33.283
33.248
33.214
33.181
33.149
33.117
33.085
33.053
33.02
32.986
32.95
32.914
32.876
32.837
32.797
32.755
32.713
32.67
32.627
32.582
32.538
32.493
32.447
32.4
32.354
32.309
32.265
32.223
32.183
32.146
32.112
32.08
32.049
32.019
31.991
31.963
31.935
31.908
31.881
31.853
31.824
31.794
31.762
31.728
31.692
31.655
31.615
31.575
31.533
31.49
31.446
31.402
31.359
31.316
31.273
31.231
31.19
31.151
31.115
31.083
31.055
31.034
31.022
31.022
31.037
31.071
31.13
31.215
31.332
31.483
31.67
31.895
32.159
32.461
32.799
33.172
33.575
34.004
34.455
34.921
35.399
35.88
36.361
36.834
37.295
37.737
38.156
38.549
38.912
39.242
39.54
39.803
40.032
40.227
40.391
40.524
40.63
40.71
40.769
40.807
40.828
40.833
40.826
40.808
40.781
40.748
40.709
40.667
40.623
40.576
40.528
40.48
40.432
40.384
40.337
40.292
40.248
40.206
40.166
40.129
40.092
40.057
40.021
39.985
39.947
39.906
39.861
39.811
39.756
39.698
39.635
39.569
39.502
39.433
39.365
39.3
39.237
39.179
39.124
39.075
39.032
38.994
38.961
38.935
38.915
38.899
38.889
38.883
38.879
38.878
38.877
38.876
38.874
38.869
38.861
38.85
38.834
38.815
38.792
38.765
38.735
38.701
38.662
38.62
38.574
38.524
38.469
38.41
38.347
38.28
38.21
38.136
38.059
37.979
37.895
37.81
37.722
37.633
37.541
37.448
37.353
37.257
37.16
37.061
36.962
36.861
36.761
36.66
36.559
36.46
36.362
36.266
36.172
36.08
35.99
35.904
35.819
35.738
35.658
35.581
35.505
35.431
35.36
35.29
35.221
35.154
35.087
35.021
34.957
34.895
34.835
34.777
34.722
34.669
34.619
34.57
34.523
34.478
34.435
34.392
34.351
34.31
34.27
34.23
34.19
34.15
34.112
34.074
34.037
34.001
33.965
33.931
33.897
33.865
33.833
33.802
33.773
33.746
33.72
33.696
33.674
33.652
33.63
33.609
33.586
33.562
33.536
33.507
33.477
33.444
33.409
33.373
33.335
33.297
33.256
33.215
33.173
33.129
33.084
33.039
32.992
32.944
32.897
32.849
32.802
32.755
32.708
32.66
32.613
32.564
32.515
32.464
32.412
32.359
32.306
32.252
32.199
32.147
32.095
32.045
31.997
31.952
31.908
31.868
31.831
31.796
31.765
31.736
31.71
31.686
31.664
31.645
31.627
31.61
31.595
31.58
31.565
31.549
31.533
31.515
31.495
31.474
31.45
31.424
31.396
31.365
31.331
31.296
31.257
31.217
31.174
31.129
31.082
31.034
30.985
30.936
30.887
30.839
30.793
30.748
