Trial 1:0back
35.328
35.297
35.272
35.255
35.246
35.244
35.248
35.257
35.271
35.29
35.311
35.335
35.361
35.388
35.416
35.445
35.474
35.502
35.529
35.554
35.576
35.595
35.609
35.618
35.623
35.621
35.615
35.603
35.587
35.565
35.539
35.508
35.474
35.435
35.395
35.352
35.307
35.262
35.216
35.169
35.122
35.074
35.026
34.978
34.929
34.881
34.832
34.782
34.731
34.679
34.625
34.571
34.515
34.459
34.402
34.345
34.288
34.231
34.176
34.121
34.068
34.018
33.969
33.922
33.877
33.833
33.791
33.75
33.709
33.669
33.628
33.587
33.546
33.505
33.464
33.422
33.38
33.339
33.298
33.258
33.219
33.181
33.144
33.108
33.072
33.037
33.003
32.97
32.937
32.905
32.873
32.841
32.808
32.776
32.744
32.711
32.678
32.645
32.613
32.581
32.552
32.526
32.506
32.494
32.493
32.505
32.534
32.584
32.658
32.758
32.887
33.046
33.235
33.454
33.701
33.973
34.268
34.58
34.905
35.239
35.577
35.915
36.248
36.573
36.886
37.184
37.465
37.726
37.966
38.184
38.379
38.551
38.699
38.823
38.925
39.004
39.063
39.101
39.12
39.122
39.108
39.08
39.038
38.985
38.922
38.851
38.771
38.687
38.597
38.505
38.411
38.315
38.219
38.122
38.024
37.925
37.827
37.729
37.631
37.533
37.437
37.341
37.246
37.152
37.059
36.966
36.874
36.783
36.693
36.604
36.516
36.429
36.343
36.26
36.179
36.101
36.028
35.959
35.895
35.839
35.789
35.748
35.713
35.687
35.668
35.655
35.648
35.646
35.649
35.655
35.664
35.675
35.688
35.702
35.718
35.733
35.749
35.763
35.777
35.789
35.8
35.809
35.816
35.82
35.822
35.821
35.816
35.808
35.796
35.78
35.759
35.735
35.706
35.674
35.638
35.598
35.555
35.509
35.461
35.41
35.359
35.305
35.251
35.196
35.14
35.084
35.029
34.974
34.919
34.864
34.81
34.756
34.702
34.648
34.594
34.54
34.485
34.431
34.376
34.321
34.267
34.214
34.162
34.111
34.062
34.014
33.966
33.92
33.873
33.827
33.78
33.733
33.686
33.639
33.591
33.544
33.497
33.449
33.402
33.355
33.309
33.264
33.219
33.175
33.131
33.088
33.045
33.002
32.961
32.92
32.88
32.841
32.803
32.766
32.731
32.696
32.663
32.632
32.601
32.57
32.54
32.51
32.481
32.452
32.425
32.398
32.375
32.355
32.341
32.336
32.343
32.365
32.406
32.471
32.562
32.682
32.833
33.015
33.229
33.473
33.746
34.044
34.364
34.703
35.054
35.415
35.779
36.143
36.501
36.85
37.186
37.505
37.805
38.083
38.338
38.569
38.774
38.953
39.107
39.236
39.342
39.426
39.49
39.535
39.562
39.573
39.57
39.552
39.522
39.481
39.43
39.37
39.302
39.227
39.146
39.06
38.97
38.876
38.779
38.679
38.578
38.476
38.373
38.271
38.17
38.07
37.972
37.878
37.785
37.695
37.607
37.52
37.434
37.349
37.264
37.18
37.096
37.013
36.93
36.849
36.768
36.689
36.612
36.538
36.468
36.402
36.34
36.282
36.23
36.182
36.141
36.105
36.076
36.052
36.034
36.022
36.014
36.01
36.01
36.013
36.018
36.026
36.034
36.043
36.053
36.062
36.071
36.079
36.087
36.092
36.096
36.096
36.093
36.085
36.073
36.057
36.035
36.009
35.978
35.945
35.908
35.87
35.829
35.788
35.745
35.7
35.654
35.606
35.555
35.502
35.447
35.39
35.332
35.273
35.213
35.154
35.094
35.034
34.975
34.917
34.859
34.801
34.743
34.685
34.626
34.566
34.505
34.443
34.38
34.317
34.254
34.192
34.131
34.071
34.013
33.956
33.901
33.848
33.796
33.744
33.693
33.643
33.594
33.545
33.496
33.448
33.401
33.355
33.309
33.263
33.219
33.176
33.133
33.092
33.052
33.012
32.972
32.933
32.894
32.854
32.814
32.775
32.736
32.698
32.661
32.624
32.588
32.553
32.518
32.484
32.45
32.417
32.385
32.354
32.327
32.305
32.293
32.292
32.307
32.341
32.398
32.48
32.592
32.735
32.909
33.116
33.353
33.619
33.911
34.225
34.558
34.904
35.259
35.618
35.976
36.33
36.675
37.007
37.324
37.624
37.903
38.161
38.395
38.606
38.792
38.953
39.09
39.203
39.294
39.363
39.411
39.44
39.45
39.445
39.424
39.39
39.345
39.29
39.225
39.153
39.073
38.988
38.897
38.802
38.704
38.604
38.501
38.397
38.293
38.189
38.085
37.982
37.88
37.78
37.681
37.584
37.489
37.395
37.303
37.211
37.12
37.03
36.939
36.849
36.758
36.667
36.577
36.487
36.4
36.315
36.235
36.16
36.09
36.027
35.969
35.917
35.871
35.831
35.795
35.765
35.741
35.721
35.707
35.698
35.694
35.694
35.699
35.706
35.717
35.73
35.744
35.758
35.772
35.786
35.798
35.807
35.814
35.817
35.817
35.812
35.802
35.788
35.771
35.751
35.728
35.703
35.674
35.644
35.61
35.574
35.536
35.496
35.454
35.41
35.364
35.316
35.266
35.214
35.159
35.102
35.044
34.984
34.923
34.861
34.798
34.733
34.668
34.602
34.535
34.469
34.402
34.337
34.272
34.209
34.147
34.086
34.027
33.969
33.912
33.856
33.801
33.746
33.692
33.638
33.585
33.533
33.482
33.431
33.381
33.332
33.282
33.232
33.182
33.132
33.082
33.032
32.984
32.937
32.891
32.847
32.804
32.762
32.722
32.684
32.647
32.611
32.576
32.542
32.507
32.472
32.437
32.402
32.366
32.33
32.294
32.257
32.22
32.184
32.148
32.116
32.088
32.067
32.057
32.06
32.081
32.123
32.191
32.286
32.411
32.568
32.756
32.975
33.224
33.5
33.8
34.121
34.459
34.809
35.166
35.525
35.883
36.234
36.576
36.903
37.214
37.506
37.777
38.026
38.251
38.452
38.629
38.782
38.911
39.017
39.101
39.163
39.205
39.228
39.233
39.222
39.195
39.154
39.1
39.035
38.961
38.878
38.789
38.694
38.596
38.494
38.39
38.284
38.177
38.069
37.959
37.85
37.74
37.631
37.523
37.416
37.309
37.204
37.1
36.996
36.892
36.789
36.686
36.584
36.483
36.383
36.286
36.191
36.099
36.011
35.927
35.847
35.774
35.706
35.646
35.593
35.547
35.51
35.481
35.458
35.443
35.434
35.431
35.434
35.441
35.453
35.469
35.488
35.511
35.535
35.561
35.587
35.613
35.638
35.662
35.683
35.701
35.715
35.726
35.733
35.736
35.734
35.728
35.718
35.704
35.686
35.663
35.637
35.607
35.574
35.538
35.499
35.459
35.416
35.371
35.323
35.272
35.219
35.164
35.107
35.049
34.99
34.932
34.873
34.814
34.755
34.696
34.637
34.578
34.518
34.458
34.398
34.338
34.277
34.216
34.156
34.096
34.037
33.98
33.925
33.871
33.819
33.767
33.717
33.667
33.618
33.569
33.521
33.472
33.424
33.375
33.326
33.277
33.228
33.179
33.13
33.082
33.036
32.99
32.945
32.9
32.857
32.813
32.77
32.727
32.684
32.641
32.599
32.557
32.517
32.48
32.447
32.42
32.403
32.399
32.412
32.445
32.503
32.588
32.702
32.849
33.028
33.238
33.48
33.751
34.049
34.368
34.706
35.058
35.418
35.781
36.144
36.501
36.848
37.183
37.502
37.802
38.083
38.342
38.579
38.792
38.981
39.145
39.284
39.399
39.49
39.56
39.608
39.636
39.646
39.64
39.619
39.585
39.538
39.479
39.411
39.333
39.248
39.155
39.057
38.953
38.845
38.734
38.62
38.505
38.388
38.271
38.154
38.037
37.921
37.805
37.69
37.575
37.461
37.347
37.233
37.12
37.006
36.893
36.781
36.669
36.559
36.452
36.349
36.249
36.155
36.068
35.988
35.917
35.855
35.801
35.758
35.723
35.697
35.679
35.668
35.663
35.664
35.67
35.679
35.692
35.707
35.725
35.744
35.763
35.782
35.801
35.818
35.832
35.845
35.855
35.861
35.864
35.863
35.858
35.847
35.832
35.812
35.789
35.764
35.736
35.706
35.675
35.642
35.607
35.57
35.532
35.491
35.448
35.402
35.354
35.303
35.249
35.192
35.133
35.072
35.01
34.946
34.881
34.815
34.748
34.681
34.613
34.545
34.479
34.414
34.35
34.288
34.227
34.168
34.11
34.052
33.996
33.94
33.885
33.83
33.775
33.719
33.663
33.607
33.55
33.493
33.436
33.38
33.325
33.271
33.218
33.167
33.116
33.067
33.02
32.973
32.928
32.883
32.838
32.793
32.749
32.705
32.661
32.618
32.574
32.531
32.487
32.443
32.399
32.356
32.314
32.274
32.238
32.209
32.189
32.183
32.192
32.223
32.278
32.362
32.477
32.625
32.808
33.027
33.281
33.568
33.885
34.229
34.596
34.981
35.379
35.786
36.195
36.603
37.003
37.392
37.765
38.12
38.454
38.765
39.05
39.309
39.541
39.747
39.924
40.075
40.2
40.3
40.376
40.43
40.463
40.477
40.473
40.453
40.418
40.369
40.309
40.237
40.157
40.069
39.975
39.876
39.774
39.669
39.562
39.453
39.345
39.236
39.128
39.021
38.915
38.81
38.706
38.603
38.501
38.399
38.297
38.195
38.093
37.99
37.887
37.784
37.68
37.577
37.473
37.37
37.269
37.169
37.073
36.98
36.892
36.809
36.731
36.66
36.595
36.537
36.485
36.441
36.404
36.374
36.35
36.333
36.322
36.316
36.313
36.314
36.317
36.321
36.325
36.33
36.334
36.338
36.34
36.341
36.34
36.338
36.333
36.326
36.316
36.303
36.287
36.268
36.244
36.218
36.187
36.152
36.114
36.072
36.027
35.979
35.929
35.875
35.82
35.761
35.7
35.636
35.569
35.5
35.43
35.359
35.287
35.216
35.145
35.074
35.004
34.935
34.867
34.801
34.736
34.672
34.608
34.544
34.479
34.415
34.35
34.285
34.22
34.154
34.089
34.024
33.959
33.895
33.832
33.77
33.708
33.649
33.59
33.533
33.476
33.42
33.364
33.308
33.252
33.196
33.139
33.082
33.025
32.968
32.911
32.855
32.8
32.745
32.693
32.641
32.592
32.545
32.5
32.458
32.42
32.388
32.364
32.351
32.352
32.371
32.411
32.476
32.57
32.696
32.855
33.049
33.279
33.542
33.837
34.161
34.51
34.879
35.263
35.657
36.054
36.45
36.839
37.218
37.581
37.926
38.25
38.551
38.826
39.077
39.301
39.499
39.672
39.818
39.94
40.037
40.111
40.162
40.192
40.202
40.194
40.169
40.129
40.075
40.008
39.931
39.843
39.748
39.646
39.538
39.426
39.311
39.194
39.077
38.959
38.843
38.728
38.613
38.5
38.388
38.276
38.166
38.056
37.947
37.838
37.729
37.62
37.51
37.4
37.29
37.18
37.071
36.962
36.855
36.75
36.649
36.551
36.457
36.369
36.287
36.211
36.142
36.079
36.024
35.976
35.935
35.9
35.871
35.847
35.829
35.814
35.805
35.799
35.796
35.797
35.8
35.805
35.812
35.819
35.826
35.833
35.838
35.842
35.843
35.842
35.836
35.826
35.811
35.79
35.764
35.732
35.696
35.655
35.611
35.564
35.515
35.465
35.414
35.363
35.312
35.26
35.206
35.151
35.094
35.035
34.974
34.911
34.846
34.779
34.711
34.642
34.572
34.502
34.432
34.363
34.295
34.228
34.161
34.095
34.029
33.963
33.897
33.831
33.765
33.699
33.634
33.569
33.504
33.44
33.377
33.314
33.253
33.192
33.133
33.074
33.017
32.96
32.904
32.849
32.794
32.739
32.684
32.629
32.575
32.523
32.472
32.422
32.374
32.327
32.282
32.239
32.197
32.155
32.114
32.073
32.033
31.995
31.959
31.928
31.904
31.89
31.891
31.91
31.951
32.019
32.116
32.246
32.409
32.607
32.84
33.104
33.398
33.719
34.061
34.421
34.792
35.17
35.548
35.922
36.288
36.641
36.977
37.293
37.587
37.857
38.1
38.317
38.506
38.668
38.803
38.913
38.997
39.059
39.099
39.12
39.122
39.107
39.078
39.034
38.978
38.911
38.835
38.751
38.659
38.561
38.458
38.35
38.238
38.123
38.004
37.883
37.76
37.637
37.514
37.392
37.272
37.153
37.037
36.922
36.81
36.699
36.59
36.482
36.375
36.269
36.164
36.06
35.957
35.856
35.758
35.663
35.573
35.488
35.41
35.338
35.274
35.218
35.169
35.128
35.095
35.068
35.048
35.035
35.027
35.025
35.027
35.033
35.044
35.057
35.074
35.092
35.113
35.134
35.155
35.175
35.194
35.211
35.226
35.238
35.247
35.253
35.255
35.252
35.245
35.233
35.216
35.192
35.163
35.129
35.091
35.048
35.002
34.953
34.901
34.847
34.791
34.734
34.676
34.617
34.557
34.497
34.438
34.378
34.318
34.257
34.197
34.136
34.075
34.014
33.953
33.893
33.833
33.774
33.716
33.66
33.605
33.55
33.497
33.444
33.392
33.34
33.289
33.239
33.189
33.139
33.09
33.041
32.992
32.943
32.893
32.842
32.791
32.74
32.689
32.637
32.586
32.535
32.484
32.435
32.386
32.339
32.292
32.246
32.2
32.155
32.112
32.069
32.03
31.995
31.967
31.948
31.943
31.953
31.984
32.038
32.119
32.229
32.37
32.543
32.747
32.981
33.243
33.53
33.84
34.167
34.506
34.855
35.206
35.557
35.901
36.234
36.554
36.856
37.137
37.396
37.629
37.836
38.015
38.168
38.294
38.395
38.472
38.527
38.561
38.576
38.573
38.555
38.522
38.477
38.421
38.355
38.282
38.201
38.114
38.022
37.927
37.828
37.726
37.622
37.516
37.409
37.301
37.192
37.083
36.974
36.865
36.757
36.649
36.541
36.433
36.324
36.216
36.106
35.997
35.888
35.779
35.672
35.566
35.464
35.366
35.273
35.186
35.107
35.036
34.973
34.92
34.875
34.839
34.81
34.788
34.772
34.762
34.758
34.758
34.762
34.769
34.779
34.792
34.807
34.823
34.84
34.859
34.877
34.895
34.912
34.927
34.94
34.951
34.959
34.963
34.964
34.962
34.956
34.946
34.931
34.912
34.89
34.863
34.833
34.799
34.763
34.724
34.682
34.638
34.591
34.543
34.493
34.442
34.389
34.335
34.28
34.224
34.168
34.112
34.054
33.996
33.937
33.877
33.817
33.756
33.696
33.635
33.576
33.516
33.457
33.4
33.343
33.288
33.234
33.181
33.129
33.078
33.028
32.977
32.927
32.877
32.827
32.778
32.729
32.68
32.632
32.585
32.539
32.495
32.451
32.407
32.364
32.321
32.279
32.236
32.194
32.153
32.112
32.072
32.032
31.992
31.952
31.913
31.875
31.838
31.803
31.771
31.743
31.721
31.708
31.707
31.721
31.753
31.808
31.889
31.999
32.139
32.312
32.517
32.753
33.02
33.315
33.634
33.974
34.331
34.7
35.076
35.454
35.829
36.197
36.553
36.894
37.215
37.514
37.79
38.041
38.265
38.463
38.635
38.78
38.9
38.994
39.064
39.11
39.136
39.142
39.131
39.105
39.066
39.016
38.957
38.89
38.817
38.738
38.654
38.566
38.474
38.381
38.286
38.19
38.094
37.998
37.903
37.809
37.716
37.624
37.532
37.441
37.351
37.26
37.17
37.08
36.991
36.901
36.813
36.724
36.636
36.548
36.462
36.378
36.295
36.215
36.138
36.065
35.995
35.93
35.869
35.813
35.762
35.717
35.678
35.644
35.616
35.593
35.574
35.56
35.549
35.543
35.539
35.538
35.539
35.542
35.546
35.55
35.555
35.56
35.565
35.569
35.572
35.575
35.576
35.575
35.571
35.564
35.553
35.539
35.52
35.497
35.469
35.438
35.402
35.363
35.32
35.274
35.224
35.173
35.118
35.061
35.002
34.941
34.879
34.816
34.752
34.687
34.622
34.558
34.493
34.429
34.366
34.302
34.239
34.176
34.114
34.051
33.989
33.927
33.865
33.804
33.742
33.682
33.622
33.563
33.504
33.447
33.391
33.336
33.282
33.229
33.178
33.127
33.078
33.029
32.98
32.931
32.882
32.833
32.783
32.734
32.684
32.634
32.586
32.537
32.49
32.442
32.396
32.349
32.302
32.256
32.21
32.164
32.119
32.077
32.037
32.003
31.975
31.956
31.95
31.959
31.987
32.038
32.114
32.217
32.35
32.514
32.707
32.93
33.181
33.457
33.754
34.068
34.396
34.733
35.074
35.415
35.75
36.076
36.39
36.689
36.969
37.23
37.47
37.686
37.879
38.047
38.19
38.308
38.401
38.472
38.52
38.548
38.556
38.547
38.521
38.481
38.429
38.365
38.291
38.21
38.121
38.028
37.932
37.833
37.733
37.632
37.532
37.431
37.331
37.231
37.132
37.035
36.938
36.843
36.749
36.656
36.564
36.474
36.384
36.295
36.207
36.119
36.033
35.948
35.863
35.78
35.697
35.617
35.539
35.464
35.392
35.324
35.26
35.2
35.143
35.091
35.042
34.997
34.957
34.922
34.891
34.866
34.845
34.829
34.817
34.809
34.804
34.801
34.802
34.805
34.809
34.814
34.82
34.825
34.83
34.832
34.832
34.829
34.824
34.815
34.803
34.787
34.767
34.744
34.718
34.688
34.656
34.621
34.583
34.542
34.499
34.453
34.405
34.355
34.303
34.25
34.196
34.141
34.084
34.027
33.97
33.912
33.853
33.795
33.736
33.678
33.621
33.563
33.505
33.448
33.389
33.331
33.273
33.214
33.156
33.097
33.039
32.982
32.925
32.87
32.816
32.765
32.715
32.667
32.62
32.575
32.53
32.485
32.441
32.397
32.352
32.308
32.264
32.22
32.176
32.134
32.091
32.05
32.009
31.969
31.928
31.887
31.847
31.806
31.766
31.727
31.688
31.65
31.612
31.576
31.542
31.513
31.49
31.477
31.477
31.493
31.529
31.588
31.672
31.784
31.925
32.095
32.294
32.52
32.769
33.039
33.325
33.622
33.927
34.234
34.54
34.84
35.13
35.407
35.668
35.91
36.132
36.331
36.507
36.66
36.789
36.896
36.98
37.043
37.085
37.108
37.113
37.104
37.08
37.044
36.997
36.94
36.874
36.801
36.721
36.635
36.544
36.45
36.354
36.256
36.158
36.061
35.965
35.869
35.775
35.682
35.591
35.503
35.416
35.333
35.252
35.173
35.095
35.018
34.942
34.865
34.789
34.713
34.637
34.562
34.486
34.412
34.339
34.268
34.201
34.136
34.076
34.021
33.971
33.927
33.889
33.857
33.832
33.813
33.801
33.796
33.797
33.804
33.815
33.831
33.85
33.871
33.895
33.919
33.943
33.966
33.988
34.008
34.025
34.04
34.052
34.06
34.064
34.064
34.059
34.05
34.037
34.02
33.999
33.976
33.951
33.925
33.897
33.867
33.836
33.803
33.768
33.731
33.693
33.653
33.611
33.568
33.523
33.477
33.43
33.383
33.335
33.286
33.236
33.186
33.136
33.087
33.039
32.991
32.944
32.898
32.852
32.807
32.762
32.717
32.672
32.627
32.583
32.539
32.497
32.455
32.415
32.377
32.339
32.304
32.269
32.236
32.205
32.174
32.144
32.115
32.085
32.054
32.022
31.99
31.956
31.922
31.887
31.852
31.816
31.779
31.743
31.707
31.673
31.639
31.607
31.576
31.546
31.52
31.498
31.483
31.476
31.481
31.5
31.537
31.594
31.674
31.779
31.91
32.068
32.251
32.459
32.689
32.939
33.205
33.484
33.772
34.063
34.355
34.642
34.921
35.187
35.439
35.672
35.885
36.077
36.247
36.393
36.516
36.618
36.698
36.757
36.798
36.82
36.825
36.816
36.794
36.76
36.716
36.664
36.604
36.537
36.465
36.387
36.305
36.219
36.13
36.039
35.948
35.856
35.764
35.674
35.587
35.501
35.418
35.338
35.261
35.187
35.115
35.044
34.974
34.904
34.835
34.765
34.695
34.625
34.555
34.485
34.416
34.349
34.283
34.219
34.157
34.099
34.045
33.995
33.95
33.91
33.876
33.848
33.826
33.81
33.801
33.797
33.799
33.806
33.818
33.834
33.853
33.875
33.899
33.925
33.95
33.976
34.001
34.024
34.045
34.064
34.08
34.092
34.1
34.105
34.106
34.102
34.095
34.084
34.07
34.053
34.033
34.01
33.985
33.958
33.929
33.899
33.867
33.834
33.801
33.765
33.729
33.692
33.654
33.614
33.573
33.532
33.489
33.446
33.403
33.359
33.315
33.271
33.226
33.183
33.139
33.097
33.055
33.015
32.975
32.937
32.9
32.863
32.827
32.791
32.755
32.719
32.683
32.647
32.61
32.572
32.534
32.496
32.458
32.42
32.383
32.346
32.31
32.275
32.242
32.21
32.179
32.15
32.122
32.095
32.068
32.042
32.015
31.989
31.963
31.937
31.912
31.888
31.864
31.841
31.818
31.796
31.774
31.752
31.731
31.71
31.69
31.672
31.657
31.648
31.646
31.653
31.674
31.71
31.765
31.841
31.941
32.067
32.219
32.398
32.603
32.831
33.081
33.348
33.629
33.921
34.22
34.52
34.818
35.11
35.393
35.664
35.918
36.154
36.37
36.563
36.734
36.88
37.003
37.102
37.179
37.234
37.27
37.288
37.289
37.275
37.249
37.211
37.163
37.107
37.044
36.975
36.901
36.823
36.742
36.659
36.575
36.491
36.406
36.321
36.238
36.156
36.075
35.997
35.922
35.849
35.78
35.713
35.648
35.586
35.525
35.466
35.408
35.35
35.293
35.236
35.179
35.122
35.066
35.011
34.957
34.904
34.853
34.804
34.757
34.714
34.673
34.636
34.603
34.575
34.551
34.533
34.52
34.512
34.507
34.507
34.51
34.515
34.522
34.532
34.542
34.554
34.566
34.579
34.591
34.604
34.616
34.629
34.64
34.65
34.658
34.664
34.668
34.669
34.667
34.663
34.656
34.646
34.633
34.618
34.6
34.58
34.557
34.532
34.504
34.474
34.442
34.408
34.372
34.334
34.296
34.256
34.215
34.173
34.131
34.089
34.046
34.003
33.96
33.917
33.873
33.83
33.786
33.742
33.698
33.654
33.609
33.565
33.521
33.478
33.435
33.393
