Trial 1:0back
35.028
34.963
34.899
34.836
34.776
34.719
34.664
34.612
34.561
34.511
34.461
34.412
34.365
34.318
34.271
34.225
34.179
34.134
34.09
34.048
34.008
33.97
33.934
33.899
33.864
33.83
33.796
33.762
33.728
33.695
33.664
33.635
33.607
33.581
33.557
33.536
33.518
33.503
33.493
33.485
33.478
33.471
33.462
33.45
33.435
33.415
33.389
33.359
33.326
33.291
33.255
33.221
33.19
33.163
33.142
33.127
33.118
33.118
33.129
33.153
33.195
33.256
33.34
33.448
33.582
33.744
33.932
34.147
34.387
34.651
34.935
35.236
35.55
35.87
36.191
36.507
36.814
37.107
37.383
37.638
37.871
38.081
38.267
38.427
38.56
38.667
38.749
38.807
38.844
38.862
38.863
38.848
38.82
38.78
38.729
38.668
38.599
38.523
38.44
38.354
38.263
38.169
38.072
37.973
37.872
37.769
37.666
37.564
37.462
37.362
37.263
37.165
37.068
36.972
36.876
36.78
36.685
36.59
36.496
36.404
36.315
36.228
36.145
36.066
35.99
35.919
35.854
35.795
35.743
35.698
35.661
35.634
35.616
35.606
35.604
35.609
35.62
35.638
35.66
35.685
35.714
35.745
35.776
35.808
35.839
35.87
35.899
35.926
35.951
35.972
35.989
36.001
36.008
36.011
36.008
36.001
35.99
35.973
35.949
35.92
35.885
35.845
35.8
35.752
35.702
35.649
35.596
35.54
35.482
35.42
35.356
35.291
35.226
35.162
35.099
35.038
34.978
34.919
34.86
34.801
34.742
34.681
34.62
34.559
34.5
34.442
34.387
34.334
34.282
34.232
34.185
34.14
34.098
34.06
34.025
33.993
33.964
33.937
33.911
33.885
33.859
33.831
33.803
33.774
33.747
33.721
33.697
33.675
33.654
33.634
33.615
33.597
33.579
33.561
33.543
33.524
33.505
33.485
33.463
33.44
33.417
33.394
33.37
33.348
33.326
33.305
33.288
33.274
33.263
33.258
33.258
33.266
33.285
33.315
33.36
33.423
33.505
33.61
33.741
33.898
34.083
34.293
34.529
34.785
35.06
35.349
35.646
35.947
36.247
36.543
36.829
37.105
37.365
37.609
37.832
38.033
38.209
38.359
38.482
38.58
38.654
38.705
38.735
38.745
38.735
38.708
38.666
38.613
38.551
38.481
38.406
38.326
38.242
38.155
38.065
37.972
37.879
37.787
37.696
37.605
37.514
37.425
37.335
37.245
37.156
37.067
36.979
36.892
36.806
36.72
36.635
36.548
36.46
36.371
36.282
36.194
36.109
36.028
35.953
35.883
35.822
35.767
35.72
35.681
35.649
35.626
35.611
35.605
35.606
35.616
35.631
35.652
35.678
35.709
35.743
35.781
35.82
35.86
35.899
35.939
35.976
36.01
36.041
36.068
36.09
36.106
36.114
36.114
36.108
36.093
36.072
36.044
36.012
35.976
35.935
35.892
35.846
35.796
35.744
35.689
35.632
35.573
35.512
35.45
35.388
35.325
35.262
35.198
35.133
35.067
35.001
34.937
34.876
34.819
34.763
34.709
34.657
34.606
34.557
34.508
34.46
34.413
34.369
34.327
34.288
34.251
34.215
34.181
34.146
34.112
34.078
34.045
34.015
33.986
33.959
33.935
33.914
33.895
33.878
33.864
33.851
33.839
33.829
33.82
33.811
33.803
33.794
33.782
33.768
33.749
33.726
33.701
33.673
33.644
33.614
33.585
33.556
33.529
33.503
33.478
33.456
33.437
33.425
33.421
33.429
33.449
33.485
33.539
33.613
33.711
33.835
33.988
34.169
34.375
34.603
34.851
35.114
35.389
35.673
35.961
36.249
36.534
36.812
37.081
37.335
37.574
37.796
37.998
38.179
38.341
38.482
38.603
38.705
38.788
38.851
38.897
38.924
38.934
38.929
38.91
38.876
38.829
38.769
38.697
38.615
38.526
38.432
38.334
38.234
38.134
38.033
37.932
37.832
37.733
37.636
37.543
37.454
37.369
37.288
37.207
37.127
37.046
36.965
36.883
36.8
36.716
36.632
36.549
36.469
36.392
36.318
36.249
36.185
36.127
36.076
36.032
35.995
35.964
35.94
35.921
35.908
35.899
35.893
35.891
35.895
35.903
35.917
35.936
35.958
35.983
36.01
36.039
36.068
36.096
36.123
36.147
36.167
36.182
36.193
36.199
36.2
36.197
36.19
36.177
36.158
36.133
36.102
36.068
36.03
35.989
35.944
35.897
35.846
35.79
35.73
35.664
35.593
35.519
35.443
35.366
35.289
35.213
35.139
35.068
34.998
34.931
34.866
34.804
34.744
34.687
34.633
34.583
34.537
34.493
34.451
34.412
34.375
34.341
34.308
34.278
34.25
34.224
34.2
34.179
34.159
34.139
34.117
34.093
34.067
34.04
34.012
33.983
33.953
33.923
33.893
33.863
33.834
33.804
33.775
33.747
33.722
33.7
33.68
33.662
33.643
33.623
33.603
33.584
33.565
33.547
33.529
33.512
33.495
33.481
33.469
33.462
33.461
33.468
33.487
33.52
33.569
33.638
33.73
33.846
33.989
34.158
34.353
34.573
34.816
35.079
35.358
35.648
35.944
36.24
36.534
36.819
37.094
37.354
37.598
37.825
38.034
38.224
38.395
38.546
38.677
38.789
38.882
38.956
39.01
39.045
39.06
39.058
39.039
39.005
38.957
38.898
38.829
38.752
38.666
38.573
38.475
38.373
38.268
38.164
38.061
37.961
37.863
37.768
37.676
37.587
37.501
37.417
37.336
37.257
37.181
37.105
37.029
36.953
36.875
36.797
36.719
36.643
36.568
36.495
36.427
36.364
36.306
36.253
36.205
36.162
36.124
36.092
36.067
36.049
36.038
36.034
36.038
36.049
36.065
36.085
36.108
36.133
36.159
36.183
36.207
36.228
36.246
36.261
36.273
36.28
36.284
36.284
36.279
36.269
36.257
36.242
36.224
36.203
36.177
36.146
36.111
36.07
36.024
35.974
35.921
35.864
35.804
35.74
35.673
35.602
35.528
35.452
35.376
35.299
35.225
35.154
35.085
35.02
34.957
34.897
34.839
34.783
34.73
34.678
34.629
34.583
34.539
34.496
34.456
34.418
34.38
34.344
34.309
34.276
34.244
34.215
34.187
34.162
34.139
34.118
34.098
34.078
34.057
34.034
34.009
33.98
33.949
33.917
33.885
33.855
33.826
33.8
33.776
33.756
33.74
33.725
33.71
33.696
33.681
33.665
33.65
33.634
33.617
33.598
33.578
33.557
33.535
33.516
33.498
33.486
33.481
33.488
33.508
33.546
33.602
33.679
33.779
33.904
34.055
34.233
34.437
34.666
34.916
35.184
35.466
35.758
36.055
36.353
36.647
36.933
37.208
37.47
37.716
37.944
38.153
38.34
38.506
38.648
38.768
38.866
38.942
38.998
39.036
39.056
39.058
39.043
39.015
38.973
38.922
38.861
38.793
38.718
38.637
38.551
38.459
38.363
38.264
38.163
38.059
37.955
37.851
37.749
37.648
37.55
37.455
37.363
37.275
37.19
37.107
37.026
36.947
36.871
36.797
36.724
36.653
36.583
36.514
36.446
36.381
36.318
36.258
36.202
36.153
36.11
36.074
36.044
36.021
36.003
35.99
35.983
35.98
35.982
35.988
35.999
36.013
36.032
36.052
36.074
36.097
36.12
36.144
36.167
36.189
36.207
36.221
36.229
36.231
36.226
36.213
36.194
36.167
36.134
36.096
36.053
36.007
35.956
35.901
35.843
35.782
35.72
35.656
35.591
35.525
35.457
35.388
35.318
35.246
35.174
35.102
35.031
34.961
34.895
34.832
34.771
34.713
34.656
34.601
34.548
34.497
34.447
34.399
34.354
34.312
34.272
34.236
34.202
34.17
34.141
34.113
34.086
34.061
34.036
34.012
33.988
33.965
33.942
33.919
33.897
33.876
33.855
33.836
33.816
33.798
33.779
33.761
33.744
33.726
33.707
33.689
33.67
33.65
33.631
33.611
33.591
33.57
33.548
33.527
33.507
33.487
33.469
33.451
33.433
33.418
33.405
33.395
33.39
33.392
33.405
33.432
33.475
33.538
33.624
33.735
33.871
34.033
34.221
34.434
34.67
34.928
35.204
35.492
35.79
36.091
36.39
36.685
36.971
37.246
37.509
37.756
37.985
38.193
38.38
38.546
38.69
38.812
38.914
38.996
39.06
39.106
39.136
39.148
39.144
39.124
39.089
39.04
38.978
38.903
38.818
38.723
38.62
38.51
38.395
38.278
38.161
38.047
37.936
37.83
37.729
37.632
37.54
37.453
37.37
37.29
37.213
37.136
37.06
36.985
36.91
36.835
36.762
36.692
36.624
36.559
36.497
36.438
36.384
36.334
36.29
36.251
36.219
36.193
36.172
36.156
36.144
36.136
36.133
36.135
36.142
36.154
36.169
36.187
36.208
36.23
36.252
36.273
36.292
36.308
36.322
36.333
36.341
36.345
36.344
36.336
36.321
36.299
36.269
36.234
36.194
36.152
36.107
36.061
36.012
35.961
35.907
35.85
35.791
35.732
35.672
35.612
35.551
35.491
35.432
35.374
35.317
35.26
35.203
35.148
35.094
35.043
34.992
34.943
34.895
34.847
34.8
34.753
34.708
34.663
34.618
34.574
34.531
34.489
34.448
34.408
34.369
34.331
34.293
34.256
34.219
34.184
34.15
34.118
34.087
34.057
34.029
34.002
33.976
33.952
33.929
33.907
33.885
33.864
33.843
33.821
33.799
33.776
33.752
33.728
33.704
33.679
33.652
33.623
33.591
33.558
33.523
33.489
33.456
33.427
33.402
33.382
33.366
33.357
33.355
33.362
33.381
33.414
33.464
33.535
33.629
33.748
33.893
34.063
34.258
34.476
34.717
34.977
35.253
35.542
35.838
36.137
36.435
36.727
37.011
37.282
37.54
37.783
38.009
38.215
38.399
38.56
38.699
38.814
38.906
38.977
39.026
39.055
39.066
39.059
39.034
38.994
38.94
38.874
38.798
38.713
38.623
38.528
38.43
38.331
38.232
38.135
38.038
37.944
37.851
37.76
37.671
37.584
37.497
37.412
37.328
37.245
37.161
37.078
36.994
36.911
36.83
36.749
36.671
36.595
36.522
36.452
36.384
36.32
36.26
36.204
36.152
36.104
36.063
36.028
36.0
35.978
35.962
35.951
35.945
35.945
35.949
35.96
35.975
35.994
36.016
36.04
36.063
36.086
36.107
36.125
36.141
36.154
36.164
36.17
36.171
36.166
36.155
36.138
36.116
36.089
36.058
36.022
35.982
35.939
35.892
35.842
35.788
35.73
35.668
35.604
35.538
35.472
35.406
35.34
35.277
35.215
35.154
35.094
35.034
34.974
34.913
34.852
34.794
34.738
34.686
34.635
34.584
34.535
34.486
34.438
34.391
34.345
34.3
34.258
34.219
34.182
34.149
34.119
34.09
34.063
34.037
34.013
33.99
33.968
33.947
33.927
33.906
33.886
33.866
33.846
33.826
33.805
33.783
33.76
33.735
33.708
33.68
33.652
33.624
33.596
33.569
33.543
33.519
33.496
33.475
33.454
33.432
33.411
33.388
33.365
33.342
33.32
33.303
33.29
33.284
33.286
33.3
33.326
33.369
33.429
33.511
33.615
33.744
33.899
34.08
34.285
34.512
34.758
35.019
35.293
35.574
35.86
36.145
36.427
36.701
36.965
37.214
37.447
37.665
37.867
38.053
38.221
38.371
38.502
38.614
38.705
38.777
38.83
38.863
38.878
38.875
38.855
38.819
38.768
38.705
38.63
38.547
38.457
38.362
38.264
38.163
38.061
37.959
37.855
37.752
37.648
37.546
37.447
37.352
37.26
37.17
37.081
36.994
36.909
36.827
36.746
36.667
36.59
36.515
36.442
36.37
36.301
36.235
36.172
36.112
36.054
36.0
35.951
35.906
35.868
35.836
35.812
35.795
35.785
35.782
35.784
35.793
35.807
35.825
35.847
35.873
35.9
35.929
35.957
35.984
36.008
36.028
36.043
36.053
36.058
36.057
36.05
36.037
36.019
35.995
35.965
35.93
35.888
35.842
35.792
35.738
35.682
35.623
35.562
35.499
35.435
35.369
35.303
35.235
35.166
35.098
35.031
34.967
34.907
34.85
34.796
34.744
34.694
34.645
34.596
34.547
34.498
34.448
34.398
34.347
34.296
34.244
34.192
34.141
34.091
34.043
33.998
33.956
33.917
33.882
33.851
33.824
33.801
33.782
33.763
33.745
33.727
33.708
33.691
33.673
33.658
33.645
33.633
33.623
33.613
33.603
33.591
33.578
33.562
33.543
33.522
33.498
33.472
33.444
33.412
33.379
33.344
33.309
33.273
33.237
33.202
33.167
33.134
33.103
33.075
33.051
33.032
33.021
33.017
33.025
33.045
33.08
33.133
33.205
33.297
33.411
33.549
33.713
33.904
34.12
34.361
34.622
34.901
35.193
35.493
35.797
36.1
36.398
36.688
36.967
37.231
37.48
37.709
37.919
38.108
38.277
38.424
38.552
38.658
38.744
38.809
38.852
38.876
38.88
38.866
38.835
38.789
38.73
38.66
38.579
38.489
38.392
38.29
38.184
38.078
37.973
37.869
37.768
37.669
37.574
37.481
37.391
37.304
37.218
37.135
37.053
36.972
36.891
36.81
36.729
36.648
36.567
36.488
36.409
36.332
36.256
36.183
36.113
36.047
35.984
35.925
35.87
35.821
35.779
35.744
35.717
35.699
35.688
35.685
35.691
35.704
35.724
35.75
35.779
35.81
35.842
35.873
35.902
35.929
35.953
35.974
35.993
36.008
36.019
36.026
36.029
36.028
36.022
36.01
35.991
35.965
35.933
35.896
35.855
35.809
35.76
35.707
35.652
35.593
35.531
35.465
35.397
35.327
35.253
35.178
35.1
35.023
34.946
34.871
34.799
34.731
34.667
34.606
34.548
34.492
34.438
34.385
34.333
34.282
34.232
34.185
34.14
34.096
34.055
34.016
33.979
33.945
33.914
33.885
33.858
33.834
33.811
33.791
33.772
33.753
33.735
33.715
33.694
33.673
33.65
33.629
33.608
33.589
33.57
33.552
33.536
33.52
33.505
33.49
33.474
33.458
33.441
33.423
33.406
33.389
33.371
33.351
33.329
33.305
33.278
33.248
33.218
33.186
33.155
33.125
33.097
33.074
33.056
33.045
33.044
33.055
33.082
33.129
33.198
33.292
33.412
33.56
33.736
33.939
34.169
34.422
34.696
34.985
35.286
35.593
35.903
36.211
36.514
36.81
37.094
37.365
37.618
37.851
38.061
38.249
38.413
38.553
38.67
38.765
38.838
38.891
38.924
38.939
38.936
38.917
38.884
38.838
38.781
38.714
38.639
38.556
38.467
38.372
38.274
38.173
38.071
37.968
37.866
37.765
37.664
37.565
37.466
37.369
37.274
37.181
37.091
37.004
36.921
36.842
36.766
36.691
36.617
36.544
36.473
36.402
36.332
36.263
36.195
36.131
36.071
36.016
35.966
35.92
35.878
35.842
35.812
35.788
35.772
35.762
35.758
35.761
35.771
35.786
35.806
35.829
35.854
35.88
35.907
35.933
35.957
35.978
35.996
36.01
36.02
36.024
36.023
36.015
36.001
35.982
35.957
35.926
35.89
35.848
35.802
35.75
35.693
35.633
35.569
35.503
35.436
35.369
35.302
35.236
35.181
35.145
35.13
35.132
35.145
35.159
35.17
35.17
35.155
35.122
35.07
35.0
34.913
34.812
34.701
34.584
34.464
34.345
34.232
34.127
34.032
33.949
33.878
33.819
33.769
33.729
33.697
33.671
33.651
33.635
33.624
33.616
33.61
33.605
33.6
33.595
33.587
33.576
33.563
33.548
33.531
33.513
33.494
33.473
33.452
33.43
33.407
33.384
33.36
33.335
33.308
33.28
33.251
33.223
33.196
33.169
33.142
33.115
33.089
33.063
33.04
33.02
33.005
33.003
33.017
33.048
33.097
33.162
33.242
33.337
33.447
33.573
33.717
33.879
34.061
34.262
34.482
34.719
34.971
35.235
35.508
35.788
36.071
36.352
36.629
36.897
37.154
37.396
37.621
37.828
38.016
38.183
38.329
38.452
38.554
38.633
38.691
38.728
38.745
38.745
38.728
38.695
38.648
38.588
38.518
38.439
38.353
38.261
38.164
38.063
37.959
37.854
37.748
37.642
37.537
37.434
37.334
37.237
37.144
37.053
36.965
36.879
36.796
36.714
36.633
36.555
36.479
36.407
36.336
36.267
36.199
36.129
36.06
35.99
35.922
35.856
35.792
35.732
35.676
35.626
35.583
35.547
35.519
35.499
35.488
35.486
35.493
35.507
35.528
35.554
35.584
35.616
35.648
35.678
35.706
35.73
35.752
35.77
35.785
35.795
35.802
35.804
35.802
35.797
35.788
35.775
35.756
35.73
35.699
35.663
35.621
35.573
35.519
35.46
35.397
35.33
35.259
35.185
35.109
35.033
34.957
34.882
34.809
34.736
34.664
34.593
34.522
34.453
34.386
34.323
34.264
34.208
34.155
34.105
34.056
34.009
33.963
33.917
33.873
33.83
33.788
33.748
33.708
33.671
33.636
33.604
33.574
33.546
33.52
33.496
33.474
33.454
33.436
33.419
33.404
33.39
33.377
33.365
33.353
33.339
33.323
33.304
33.285
33.264
33.243
33.223
33.201
33.178
33.154
33.127
33.099
33.069
33.039
33.009
32.979
32.95
32.924
32.901
32.881
32.864
32.85
32.839
32.833
32.83
32.834
32.844
32.863
32.894
32.939
33.003
33.088
33.196
33.329
33.487
33.671
33.882
34.116
34.374
34.652
34.946
35.251
35.562
35.874
36.183
36.484
36.774
37.048
37.304
37.539
37.751
37.939
38.103
38.243
38.358
38.45
38.521
38.57
38.602
38.617
38.617
38.605
38.58
38.543
38.495
38.437
38.369
38.292
38.209
38.12
38.028
37.937
37.858
37.792
37.739
37.694
37.652
37.609
37.559
37.5
37.43
37.346
37.249
37.139
37.019
36.889
36.752
36.612
36.471
36.334
36.201
36.076
35.961
35.856
35.763
35.681
35.612
35.556
35.511
35.476
35.451
35.434
35.425
35.421
35.42
35.422
35.426
35.432
35.442
35.454
35.468
35.485
35.505
35.529
35.555
35.585
35.616
35.646
35.676
35.704
35.729
35.752
35.77
35.783
35.79
35.791
35.785
35.772
35.752
35.724
35.688
35.645
35.596
35.541
35.48
35.414
35.343
35.265
35.184
35.1
35.014
34.929
34.845
34.766
34.691
34.62
34.554
34.492
34.432
34.375
34.321
34.27
34.224
34.181
34.142
34.106
34.071
34.036
34.002
33.966
33.93
33.892
33.854
33.816
33.779
33.743
33.708
33.674
33.642
33.612
33.584
33.557
33.531
33.507
33.486
33.467
33.452
33.438
33.426
33.414
33.403
33.392
33.379
33.366
33.351
33.334
33.316
33.298
33.28
33.262
33.243
33.224
33.204
33.182
33.158
33.133
33.108
33.082
33.058
33.038
33.023
33.014
33.012
33.018
33.033
33.06
33.102
33.161
33.241
33.345
33.474
33.63
33.814
34.025
34.262
34.521
34.797
35.087
35.385
35.689
35.992
36.292
36.585
36.868
37.137
37.388
37.619
37.829
38.015
38.18
38.323
38.445
38.547
38.63
38.693
38.738
38.766
38.778
38.776
38.76
38.732
38.693
38.644
38.584
38.515
38.437
38.352
38.26
38.164
38.065
37.965
37.867
37.77
37.674
37.58
37.487
37.395
37.305
37.216
37.129
37.043
36.959
36.877
36.795
36.713
36.632
36.551
36.469
36.388
36.306
36.225
36.146
36.071
36.001
35.936
35.877
35.824
35.777
35.737
35.703
35.674
35.651
35.635
35.625
35.623
35.627
35.638
35.652
35.671
35.692
35.715
35.74
35.766
35.791
35.815
35.837
35.856
35.873
35.886
35.895
35.9
35.899
35.893
35.883
35.869
35.851
35.827
35.798
35.764
35.726
35.683
35.634
35.581
35.523
35.46
35.395
35.327
35.257
35.183
35.108
35.031
34.953
34.875
34.798
34.723
34.649
34.578
34.51
34.447
34.39
34.339
34.293
34.251
34.211
34.173
34.136
34.099
34.061
34.022
33.981
33.939
33.896
33.852
33.809
33.768
33.728
33.692
33.659
33.631
33.606
33.584
33.565
33.548
33.533
33.519
33.506
33.492
33.478
33.462
33.443
33.423
33.401
33.375
33.346
33.314
33.279
33.241
33.201
33.16
33.119
33.081
33.045
33.014
32.986
32.963
32.945
32.93
32.918
32.91
32.905
32.904
32.911
32.927
32.957
33.004
33.071
33.159
33.271
33.409
33.573
33.764
33.981
34.223
34.487
34.77
35.068
35.376
35.692
36.008
36.321
36.627
36.921
37.201
37.466
37.711
37.935
38.138
38.316
38.47
38.6
38.704
38.786
38.847
38.889
38.914
38.921
38.913
38.889
38.853
38.805
38.747
38.68
38.606
38.527
38.444
38.357
38.267
38.173
38.076
37.977
37.876
37.776
37.676
37.577
37.48
37.386
37.295
37.206
37.118
37.031
36.944
36.857
36.771
36.686
36.602
36.518
36.436
36.357
36.279
36.204
36.133
36.066
36.005
35.95
35.902
35.86
35.826
35.798
35.776
35.761
35.753
35.752
35.758
35.769
35.784
35.802
35.823
35.845
35.868
35.891
35.914
35.935
35.953
35.968
35.98
35.989
35.994
35.994
35.99
35.981
35.967
35.949
35.926
35.899
35.867
35.83
35.79
35.745
35.696
35.64
35.578
35.509
35.435
35.359
35.279
35.198
35.118
35.038
34.96
34.887
34.817
34.749
34.682
34.617
34.552
34.49
34.429
34.371
34.315
34.263
34.213
34.167
34.124
34.082
34.041
34.002
33.962
33.924
33.887
33.851
33.816
33.782
33.748
33.716
33.686
33.658
33.632
33.609
33.588
33.57
33.556
33.544
33.535
33.527
33.52
33.512
33.502
33.49
33.476
33.458
33.437
33.413
33.386
33.358
33.329
33.298
33.267
33.234
33.2
33.165
33.128
33.09
33.052
33.016
32.983
32.955
32.932
32.915
32.906
32.906
32.916
32.939
32.977
33.033
33.109
33.209
33.334
33.486
33.667
33.875
34.108
34.364
34.64
34.932
35.237
35.548
35.863
36.175
36.481
36.777
37.057
37.319
37.56
37.78
37.98
38.165
38.34
38.503
38.652
38.783
