Trial 1:0back
34.268
34.264
34.267
34.277
34.292
34.313
34.338
34.368
34.401
34.436
34.473
34.512
34.552
34.592
34.632
34.672
34.711
34.748
34.784
34.818
34.849
34.875
34.898
34.917
34.93
34.939
34.943
34.942
34.936
34.926
34.911
34.892
34.869
34.842
34.812
34.778
34.741
34.703
34.663
34.622
34.581
34.54
34.501
34.463
34.427
34.394
34.363
34.336
34.311
34.29
34.271
34.255
34.242
34.229
34.219
34.208
34.199
34.189
34.179
34.17
34.16
34.151
34.142
34.133
34.124
34.115
34.108
34.101
34.095
34.09
34.086
34.084
34.082
34.081
34.081
34.082
34.084
34.086
34.088
34.09
34.091
34.092
34.092
34.091
34.09
34.088
34.086
34.084
34.083
34.082
34.083
34.083
34.085
34.086
34.087
34.087
34.087
34.086
34.086
34.085
34.085
34.085
34.085
34.085
34.085
34.084
34.082
34.08
34.077
34.073
34.069
34.066
34.062
34.059
34.057
34.056
34.054
34.053
34.052
34.051
34.049
34.047
34.043
34.038
34.032
34.025
34.016
34.006
33.995
33.984
33.971
33.958
33.945
33.932
33.919
33.907
33.897
33.887
33.879
33.873
33.871
33.872
33.879
33.893
33.916
33.949
33.994
34.053
34.126
34.214
34.318
34.438
34.571
34.717
34.872
35.033
35.197
35.36
35.52
35.672
35.815
35.945
36.061
36.161
36.244
36.308
36.354
36.382
36.391
36.384
36.36
36.321
36.27
36.208
36.137
36.059
35.977
35.892
35.807
35.723
35.642
35.564
35.491
35.424
35.361
35.304
35.252
35.205
35.162
35.123
35.087
35.055
35.026
34.999
34.973
34.949
34.925
34.901
34.876
34.851
34.823
34.794
34.764
34.732
34.7
34.668
34.637
34.609
34.584
34.563
34.546
34.533
34.526
34.525
34.53
34.542
34.558
34.581
34.607
34.638
34.673
34.71
34.75
34.791
34.833
34.875
34.916
34.956
34.995
35.031
35.065
35.094
35.12
35.141
35.156
35.166
35.17
35.168
35.16
35.147
35.129
35.106
35.079
35.05
35.02
34.988
34.956
34.924
34.892
34.86
34.828
34.796
34.764
34.731
34.699
34.668
34.637
34.607
34.578
34.55
34.524
34.499
34.476
34.454
34.436
34.419
34.404
34.392
34.381
34.372
34.364
34.358
34.353
34.348
34.345
34.342
34.339
34.335
34.332
34.328
34.323
34.316
34.309
34.301
34.292
34.284
34.276
34.269
34.263
34.258
34.253
34.248
34.244
34.241
34.238
34.235
34.234
34.232
34.232
34.232
34.233
34.235
34.237
34.24
34.243
34.246
34.249
34.252
34.254
34.256
34.257
34.257
34.256
34.255
34.253
34.251
34.249
34.247
34.245
34.242
34.238
34.233
34.228
34.222
34.215
34.209
34.204
34.198
34.194
34.19
34.186
34.184
34.181
34.179
34.176
34.173
34.169
34.164
34.159
34.152
34.145
34.137
34.129
34.121
34.113
34.105
34.095
34.086
34.075
34.064
34.053
34.042
34.03
34.019
34.007
33.995
33.982
33.97
33.958
33.948
33.94
33.935
33.935
33.94
33.953
33.975
34.007
34.052
34.112
34.186
34.275
34.38
34.5
34.632
34.777
34.93
35.089
35.252
35.414
35.572
35.724
35.867
35.997
36.114
36.214
36.298
36.363
36.408
36.435
36.443
36.434
36.409
36.371
36.32
36.258
36.188
36.112
36.032
35.949
35.866
35.783
35.703
35.625
35.55
35.48
35.414
35.352
35.295
35.243
35.197
35.156
35.122
35.092
35.067
35.045
35.027
35.01
34.994
34.978
34.96
34.94
34.918
34.894
34.868
34.84
34.812
34.782
34.754
34.726
34.701
34.68
34.662
34.65
34.643
34.642
34.646
34.656
34.671
34.691
34.716
34.745
34.777
34.812
34.849
34.886
34.924
34.962
34.998
35.033
35.065
35.094
35.12
35.142
35.16
35.173
35.181
35.185
35.185
35.18
35.17
35.156
35.138
35.115
35.09
35.062
35.032
35.0
34.968
34.935
34.903
34.87
34.837
34.804
34.771
34.738
34.705
34.672
34.639
34.606
34.574
34.544
34.515
34.489
34.465
34.443
34.424
34.408
34.394
34.383
34.373
34.365
34.358
34.352
34.348
34.344
34.341
34.339
34.338
34.337
34.336
34.335
34.333
34.331
34.329
34.326
34.323
34.32
34.316
34.314
34.311
34.311
34.311
34.313
34.316
34.32
34.325
34.331
34.336
34.342
34.346
34.35
34.352
34.353
34.354
34.354
34.353
34.352
34.35
34.348
34.344
34.341
34.336
34.331
34.326
34.321
34.315
34.309
34.303
34.296
34.29
34.283
34.277
34.271
34.265
34.259
34.254
34.248
34.241
34.234
34.226
34.218
34.21
34.201
34.192
34.183
34.173
34.164
34.154
34.144
34.135
34.126
34.117
34.109
34.101
34.094
34.086
34.079
34.071
34.064
34.056
34.049
34.041
34.033
34.025
34.017
34.009
34.001
33.994
33.986
33.979
33.972
33.966
33.96
33.955
33.953
33.954
33.959
33.97
33.986
34.009
34.041
34.084
34.139
34.208
34.29
34.386
34.497
34.621
34.757
34.903
35.056
35.213
35.371
35.527
35.678
35.82
35.951
36.068
36.17
36.255
36.323
36.372
36.403
36.417
36.413
36.393
36.358
36.309
36.249
36.179
36.102
36.019
35.932
35.844
35.756
35.67
35.587
35.509
35.435
35.366
35.303
35.245
35.191
35.143
35.099
35.06
35.025
34.993
34.964
34.938
34.914
34.891
34.869
34.847
34.823
34.798
34.77
34.74
34.709
34.677
34.645
34.614
34.585
34.56
34.539
34.523
34.512
34.507
34.507
34.512
34.523
34.539
34.562
34.588
34.62
34.655
34.694
34.736
34.78
34.825
34.871
34.917
34.962
35.005
35.046
35.084
35.117
35.145
35.168
35.187
35.199
35.206
35.207
35.202
35.191
35.175
35.154
35.129
35.1
35.069
35.037
35.003
34.969
34.934
34.899
34.864
34.83
34.796
34.762
34.73
34.698
34.667
34.637
34.609
34.582
34.557
34.534
34.513
34.493
34.475
34.459
34.444
34.43
34.418
34.406
34.396
34.387
34.379
34.372
34.366
34.361
34.358
34.356
34.355
34.355
34.354
34.353
34.352
34.35
34.347
34.342
34.337
34.332
34.326
34.321
34.316
34.311
34.305
34.3
34.295
34.29
34.285
34.28
34.277
34.274
34.271
34.269
34.267
34.265
34.263
34.26
34.257
34.254
34.251
34.248
34.245
34.243
34.241
34.239
34.238
34.236
34.233
34.229
34.224
34.219
34.213
34.207
34.202
34.196
34.192
34.189
34.186
34.184
34.183
34.183
34.183
34.181
34.179
34.176
34.173
34.168
34.162
34.156
34.149
34.142
34.136
34.131
34.127
34.124
34.121
34.119
34.116
34.111
34.105
34.096
34.086
34.074
34.062
34.049
34.037
34.025
34.014
34.004
33.995
33.986
33.98
33.975
33.973
33.973
33.975
33.981
33.993
34.013
34.042
34.082
34.136
34.204
34.288
34.388
34.503
34.632
34.774
34.926
35.084
35.247
35.409
35.567
35.718
35.858
35.985
36.096
36.189
36.263
36.317
36.353
36.371
36.372
36.357
36.327
36.285
36.23
36.166
36.093
36.014
35.93
35.844
35.758
35.672
35.588
35.507
35.429
35.356
35.288
35.225
35.167
35.114
35.066
35.021
34.981
34.945
34.912
34.883
34.855
34.83
34.806
34.782
34.758
34.732
34.706
34.678
34.649
34.621
34.592
34.565
34.54
34.518
34.499
34.485
34.475
34.471
34.473
34.48
34.493
34.513
34.538
34.568
34.602
34.64
34.681
34.725
34.771
34.819
34.867
34.914
34.961
35.006
35.048
35.087
35.121
35.15
35.175
35.195
35.209
35.218
35.222
35.221
35.214
35.202
35.186
35.165
35.141
35.113
35.083
35.049
35.014
34.978
34.941
34.904
34.868
34.833
34.799
34.766
34.734
34.704
34.675
34.647
34.622
34.599
34.577
34.557
34.539
34.523
34.508
34.495
34.484
34.474
34.465
34.458
34.452
34.446
34.441
34.435
34.431
34.426
34.423
34.42
34.417
34.416
34.415
34.416
34.417
34.419
34.421
34.424
34.427
34.429
34.431
34.432
34.431
34.43
34.427
34.424
34.42
34.416
34.413
34.411
34.41
34.41
34.411
34.413
34.414
34.416
34.418
34.418
34.418
34.416
34.414
34.411
34.408
34.405
34.402
34.398
34.395
34.391
34.388
34.384
34.381
34.378
34.374
34.371
34.367
34.363
34.359
34.354
34.35
34.345
34.341
34.337
34.332
34.326
34.32
34.313
34.306
34.298
34.29
34.282
34.272
34.262
34.251
34.24
34.229
34.218
34.207
34.196
34.186
34.177
34.167
34.159
34.152
34.147
34.143
34.142
34.143
34.146
34.154
34.167
34.187
34.216
34.256
34.307
34.372
34.451
34.545
34.654
34.776
34.909
35.051
35.198
35.348
35.497
35.641
35.779
35.908
36.025
36.129
36.218
36.29
36.346
36.385
36.407
36.414
36.405
36.383
36.348
36.301
36.244
36.179
36.108
36.031
35.95
35.867
35.782
35.696
35.612
35.529
35.45
35.376
35.306
35.243
35.185
35.134
35.088
35.047
35.01
34.975
34.943
34.912
34.882
34.852
34.822
34.79
34.759
34.727
34.695
34.664
34.634
34.606
34.581
34.561
34.545
34.535
34.532
34.535
34.545
34.562
34.585
34.614
34.648
34.687
34.729
34.775
34.823
34.872
34.921
34.971
35.02
35.068
35.113
35.156
35.195
35.231
35.262
35.289
35.312
35.33
35.343
35.352
35.356
35.355
35.35
35.341
35.327
35.31
35.29
35.266
35.239
35.21
35.178
35.144
35.108
35.072
35.035
34.998
34.961
34.926
34.891
34.858
34.826
34.796
34.769
34.743
34.718
34.694
34.671
34.65
34.629
34.61
34.593
34.578
34.564
34.552
34.541
34.532
34.526
34.522
34.519
34.518
34.518
34.518
34.519
34.519
34.52
34.52
34.52
34.52
34.52
34.519
34.518
34.517
34.515
34.514
34.513
34.513
34.512
34.512
34.512
34.513
34.514
34.515
34.516
34.517
34.519
34.521
34.524
34.527
34.531
34.536
34.541
34.546
34.551
34.555
34.559
34.562
34.564
34.566
34.567
34.568
34.568
34.567
34.565
34.563
34.56
34.557
34.553
34.55
34.546
34.542
34.537
34.533
34.527
34.522
34.516
34.509
34.502
34.495
34.487
34.48
34.472
34.466
34.459
34.453
34.448
34.443
34.438
34.435
34.432
34.43
34.429
34.429
34.433
34.441
34.455
34.477
34.51
34.555
34.615
34.69
34.781
34.887
35.007
35.139
35.281
35.43
35.584
35.738
35.889
36.036
36.176
36.304
36.42
36.522
36.607
36.675
36.726
36.758
36.773
36.769
36.75
36.717
36.671
36.614
36.548
36.476
36.399
36.318
36.235
36.151
36.068
35.986
35.907
35.832
35.761
35.696
35.636
35.582
35.534
35.491
35.454
35.421
35.391
35.363
35.337
35.312
35.288
35.264
35.239
35.214
35.187
35.16
35.132
35.104
35.076
35.049
35.024
35.002
34.984
34.969
34.959
34.954
34.955
34.961
34.972
34.989
35.011
35.038
35.069
35.103
35.141
35.181
35.224
35.267
35.312
35.356
35.4
35.441
35.479
35.514
35.545
35.572
35.595
35.614
35.629
35.64
35.647
35.65
35.649
35.644
35.635
35.621
35.602
35.579
35.552
35.522
35.488
35.451
35.413
35.374
35.335
35.296
35.259
35.222
35.186
35.152
35.12
35.09
35.062
35.038
35.016
34.996
34.978
34.962
34.947
34.934
34.923
34.913
34.904
34.897
34.89
34.885
34.879
34.874
34.869
34.865
34.861
34.857
34.853
34.849
34.845
34.841
34.837
34.834
34.832
34.83
34.83
34.83
34.831
34.833
34.835
34.838
34.84
34.842
34.843
34.844
34.844
34.843
34.842
34.841
34.841
34.842
34.843
34.844
34.846
34.848
34.85
34.851
34.851
34.851
34.849
34.846
34.843
34.837
34.831
34.824
34.817
34.811
34.805
34.799
34.795
34.79
34.786
34.783
34.78
34.777
34.773
34.77
34.765
34.76
34.754
34.747
34.738
34.729
34.72
34.71
34.699
34.688
34.677
34.667
34.657
34.648
34.639
34.63
34.621
34.613
34.606
34.6
34.595
34.592
34.593
34.597
34.607
34.624
34.649
34.686
34.734
34.796
34.873
34.963
35.069
35.188
35.321
35.464
35.615
35.773
35.934
36.094
36.25
36.399
36.538
36.664
36.776
36.872
36.952
37.016
37.062
37.091
37.104
37.1
37.081
37.049
37.006
36.953
36.891
36.824
36.752
36.677
36.6
36.524
36.448
36.375
36.303
36.235
36.171
36.111
36.056
36.006
35.961
35.923
35.89
35.862
35.838
35.818
35.799
35.782
35.765
35.746
35.727
35.705
35.681
35.656
35.628
35.6
35.572
35.544
35.516
35.491
35.467
35.447
35.43
35.417
35.41
35.407
35.41
35.419
35.432
35.451
35.474
35.501
35.532
35.565
35.601
35.639
35.678
35.717
35.756
35.794
35.83
35.863
35.893
35.919
35.94
35.957
35.968
35.974
35.975
35.971
35.962
35.949
35.933
35.914
35.892
35.867
35.839
35.809
35.777
35.742
35.707
35.671
35.635
35.599
35.563
35.529
35.496
35.464
35.435
35.407
35.382
35.36
35.34
35.322
35.306
35.291
35.278
35.265
35.253
35.241
35.23
35.219
35.208
35.197
35.187
35.178
35.168
35.16
35.151
35.144
35.137
35.131
35.126
35.12
35.115
35.11
35.105
35.101
35.098
35.096
35.096
35.097
35.099
35.101
35.104
35.107
35.109
35.111
35.113
35.114
35.114
35.113
35.112
35.109
35.107
35.104
35.101
35.099
35.097
35.095
35.093
35.091
35.088
35.085
35.081
35.077
35.072
35.067
35.061
35.055
35.049
35.044
35.038
35.032
35.025
35.019
35.012
35.006
34.999
34.994
34.988
34.983
34.979
34.974
34.969
34.964
34.958
34.953
34.948
34.942
34.936
34.93
34.924
34.917
34.909
34.902
34.894
34.887
34.88
34.872
34.865
34.86
34.855
34.851
34.848
34.846
34.848
34.852
34.862
34.879
34.904
34.94
34.987
35.049
35.125
35.217
35.324
35.446
35.581
35.727
35.883
36.045
36.209
36.371
36.529
36.677
36.815
36.938
37.044
37.134
37.206
37.259
37.294
37.311
37.312
37.297
37.268
37.227
37.177
37.117
37.052
36.98
36.906
36.829
36.752
36.676
36.602
36.531
36.464
36.401
36.341
36.285
36.233
36.185
36.142
36.104
36.072
36.044
36.021
36.001
35.984
35.967
35.951
35.934
35.916
35.897
35.874
35.849
35.821
35.792
35.763
35.734
35.706
35.68
35.657
35.638
35.624
35.615
35.611
35.614
35.623
35.638
35.657
35.681
35.707
35.736
35.768
35.801
35.836
35.872
35.908
35.944
35.98
36.014
36.046
36.076
36.102
36.125
36.142
36.154
36.16
36.16
36.154
36.143
36.128
36.11
36.088
36.064
36.037
36.008
35.977
35.944
35.91
35.876
35.842
35.809
35.776
35.744
35.713
35.682
35.651
35.621
35.591
35.562
35.535
35.509
35.486
35.465
35.446
35.429
35.414
35.401
35.389
35.378
35.368
35.358
35.349
35.341
35.333
35.326
35.32
35.316
35.311
35.307
35.302
35.297
35.292
35.287
35.283
35.278
35.273
35.268
35.262
35.256
35.251
35.245
35.24
35.236
35.233
35.231
35.231
35.231
35.233
35.235
35.238
35.24
35.242
35.243
35.244
35.243
35.241
35.238
35.235
35.23
35.226
35.222
35.219
35.216
35.214
35.211
35.209
35.205
35.201
35.196
35.191
35.184
35.177
35.169
35.16
35.151
35.141
35.13
35.119
35.108
35.096
35.085
35.074
35.064
35.054
35.046
35.039
35.033
35.027
35.022
35.016
35.01
35.002
34.993
34.981
34.968
34.953
34.938
34.923
34.908
34.893
34.879
34.865
34.851
34.837
34.824
34.811
34.8
34.79
34.782
34.777
34.775
34.778
34.788
34.806
34.833
34.873
34.926
34.994
35.076
35.175
35.289
35.417
35.559
35.712
35.872
36.037
36.203
36.366
36.523
36.67
36.805
36.926
37.03
37.117
37.185
37.233
37.262
37.272
37.265
37.242
37.206
37.157
37.1
37.034
36.963
36.888
36.811
36.734
36.658
36.584
36.514
36.448
36.387
36.33
36.279
36.233
36.192
36.157
36.125
36.098
36.074
36.052
36.032
36.014
35.996
35.978
35.959
35.938
35.915
35.891
35.865
35.838
35.811
35.783
35.756
35.73
35.705
35.681
35.661
35.644
35.631
35.623
35.62
35.622
35.629
35.64
35.656
35.675
35.698
35.726
35.758
35.793
35.831
35.87
35.911
35.951
35.99
36.026
36.059
36.089
36.113
36.133
36.146
36.153
36.155
36.151
36.142
36.128
36.11
36.088
36.062
36.033
36.002
35.969
35.936
35.902
35.868
35.834
35.801
35.767
35.735
35.702
35.67
35.638
35.607
35.577
35.548
35.521
35.495
35.471
35.45
35.43
35.412
35.396
35.382
35.369
35.358
35.347
35.336
35.325
35.314
35.304
35.293
35.282
35.273
35.264
35.256
35.249
35.244
35.238
35.234
35.23
35.227
35.223
35.22
35.216
35.212
35.207
35.201
35.195
35.188
35.18
35.172
35.164
35.157
35.151
35.147
35.144
35.143
35.143
35.143
35.143
35.143
35.142
35.14
35.138
35.134
35.129
35.124
35.117
35.111
35.103
35.095
35.087
35.078
35.068
35.058
35.048
35.037
35.026
35.014
35.002
34.99
34.977
34.965
34.954
34.943
34.934
34.926
34.918
34.911
34.905
34.9
34.895
34.89
34.886
34.881
34.875
34.867
34.859
34.849
34.839
34.827
34.815
34.803
34.792
34.78
34.768
34.757
34.745
34.733
34.722
34.71
34.699
34.688
34.677
34.666
34.655
34.645
34.636
34.628
34.62
34.613
34.608
34.604
34.603
34.605
34.612
34.624
34.643
34.672
34.712
34.765
34.832
34.915
35.014
35.129
35.258
35.401
35.554
35.715
35.88
36.046
36.21
36.368
36.518
36.655
36.778
36.884
36.972
37.042
37.093
37.125
37.14
37.138
37.119
37.087
37.041
36.986
36.923
36.854
36.782
36.708
36.633
36.559
36.486
36.415
36.346
36.281
36.219
36.16
36.105
36.054
36.006
35.963
35.925
35.89
35.86
35.834
35.81
35.789
35.77
35.751
35.731
35.711
35.689
35.664
35.638
35.609
35.58
35.551
35.522
35.495
35.471
35.45
35.433
35.422
35.416
35.417
35.424
35.438
35.457
35.483
35.513
35.547
35.585
35.625
35.667
35.71
35.754
35.798
35.841
35.883
35.922
35.959
35.991
36.019
36.042
36.06
36.073
36.081
36.083
36.081
36.073
36.06
36.043
36.022
35.998
35.971
35.941
35.908
35.874
35.838
35.801
35.765
35.728
35.692
35.657
35.622
35.589
35.557
35.526
35.496
35.467
35.441
35.416
35.392
35.37
35.349
35.33
35.312
35.295
35.279
35.265
35.252
35.24
35.229
35.219
35.209
35.201
35.193
35.186
35.18
35.174
35.168
35.162
35.156
35.149
35.143
35.136
35.13
35.124
35.12
35.116
35.113
35.11
35.108
35.106
35.104
35.102
35.1
35.099
35.098
35.097
35.096
35.094
35.092
35.089
35.086
35.082
35.077
35.073
35.068
35.064
35.06
35.057
35.054
35.05
35.046
35.042
35.037
35.031
35.025
35.019
35.013
35.006
35.0
34.994
34.988
34.981
34.974
34.967
34.959
34.951
34.942
34.932
34.923
34.913
34.903
34.892
34.882
34.872
34.862
34.853
34.844
34.837
34.831
34.826
34.822
34.818
34.813
34.808
34.802
34.795
34.787
34.776
34.764
34.75
34.736
34.72
34.705
34.691
34.678
34.666
34.654
34.644
34.635
34.628
34.623
34.621
34.624
34.634
34.651
34.679
34.718
34.772
34.842
34.928
35.032
35.154
35.29
35.441
35.601
35.769
35.942
36.115
36.285
36.449
36.604
36.746
36.874
36.985
37.078
37.153
37.211
37.25
37.271
37.276
37.266
37.242
37.206
37.158
37.1
37.035
36.965
36.889
36.811
36.731
36.651
36.572
36.495
36.421
36.352
36.288
36.23
36.178
36.131
36.09
36.055
36.024
35.997
35.974
35.953
35.935
35.918
35.901
35.884
35.864
35.842
35.818
35.79
35.761
35.729
35.697
35.664
35.633
35.603
35.577
35.556
35.54
35.531
35.527
35.53
35.539
35.555
35.576
35.603
35.636
35.672
35.713
35.757
35.802
35.848
35.894
35.939
35.981
36.022
36.058
36.091
36.119
36.142
36.159
36.172
36.179
36.181
36.178
36.171
36.16
36.145
36.127
36.105
36.081
36.053
36.024
35.992
35.959
35.925
35.891
35.856
35.821
35.787
35.753
35.719
35.683
35.648
35.612
35.576
35.54
35.505
35.473
35.442
35.413
35.388
35.365
35.345
35.328
35.314
35.302
35.293
35.284
35.276
35.269
35.26
35.251
35.241
35.23
35.219
35.208
35.197
35.186
35.177
35.169
35.163
35.157
35.153
35.15
35.147
35.144
35.141
35.139
35.135
35.132
35.128
35.125
35.121
35.118
35.115
35.112
35.109
35.107
35.105
35.103
35.101
35.1
35.097
35.094
35.091
35.086
35.08
35.074
35.066
35.056
35.046
35.034
35.022
35.01
34.999
34.988
34.977
34.967
34.956
34.946
34.936
34.927
34.918
34.909
34.901
34.892
34.883
34.874
34.864
34.855
34.847
34.838
34.831
34.823
34.817
34.811
34.805
34.8
34.793
34.786
34.778
34.769
34.758
34.746
34.734
34.721
34.708
34.695
34.682
34.669
34.657
34.645
34.634
34.622
34.611
34.601
34.591
34.582
34.572
34.562
34.552
34.543
34.534
34.528
34.525
34.527
34.537
34.556
34.587
34.633
34.695
34.775
34.874
34.99
35.123
35.271
35.431
35.602
