Trial 1:0back
33.69
33.665
33.643
33.623
33.605
33.587
33.571
33.555
33.538
33.521
33.503
33.484
33.464
33.442
33.419
33.393
33.366
33.337
33.308
33.277
33.246
33.214
33.182
33.149
33.115
33.082
33.049
33.016
32.984
32.953
32.922
32.892
32.864
32.838
32.816
32.8
32.792
32.795
32.811
32.844
32.896
32.972
33.073
33.203
33.364
33.555
33.779
34.034
34.319
34.631
34.968
35.325
35.699
36.084
36.475
36.867
37.253
37.628
37.989
38.33
38.647
38.939
39.202
39.438
39.643
39.82
39.967
40.088
40.182
40.254
40.303
40.334
40.348
40.346
40.331
40.304
40.267
40.221
40.168
40.109
40.045
39.976
39.903
39.827
39.748
39.666
39.582
39.496
39.408
39.319
39.229
39.139
39.049
38.959
38.869
38.781
38.695
38.611
38.53
38.452
38.378
38.306
38.238
38.174
38.114
38.061
38.013
37.971
37.935
37.905
37.881
37.863
37.85
37.842
37.84
37.841
37.845
37.852
37.86
37.869
37.878
37.886
37.892
37.897
37.901
37.901
37.899
37.894
37.884
37.87
37.853
37.831
37.806
37.777
37.746
37.712
37.675
37.636
37.595
37.553
37.508
37.462
37.414
37.363
37.31
37.255
37.196
37.134
37.068
36.999
36.925
36.847
36.764
36.678
36.588
36.495
36.4
36.303
36.205
36.106
36.007
35.909
35.813
35.719
35.627
35.538
35.451
35.368
35.288
35.212
35.138
35.068
35.0
34.935
34.873
34.812
34.753
34.696
34.641
34.587
34.533
34.48
34.428
34.376
34.324
34.273
34.223
34.174
34.127
34.082
34.038
33.995
33.954
33.914
33.875
33.839
33.804
33.771
33.74
33.71
33.682
33.657
33.632
33.61
33.588
33.568
33.548
33.528
33.508
33.488
33.469
33.45
33.431
33.413
33.394
33.376
33.356
33.336
33.315
33.294
33.272
33.249
33.225
33.2
33.173
33.146
33.117
33.087
33.057
33.026
32.992
32.957
32.919
32.878
32.836
32.791
32.745
32.699
32.652
32.606
32.56
32.516
32.475
32.437
32.406
32.383
32.371
32.373
32.394
32.437
32.505
32.602
32.73
32.891
33.088
33.319
33.586
33.885
34.215
34.573
34.953
35.352
35.763
36.18
36.598
37.012
37.414
37.803
38.172
38.52
38.842
39.135
39.4
39.634
39.837
40.01
40.154
40.269
40.359
40.423
40.466
40.489
40.495
40.486
40.464
40.431
40.39
40.341
40.288
40.23
40.171
40.11
40.048
39.985
39.922
39.86
39.798
39.736
39.676
39.617
39.559
39.503
39.448
39.393
39.338
39.282
39.224
39.164
39.102
39.037
38.972
38.905
38.838
38.771
38.704
38.64
38.578
38.52
38.467
38.42
38.378
38.343
38.314
38.292
38.275
38.265
38.26
38.259
38.263
38.27
38.281
38.293
38.307
38.322
38.336
38.349
38.359
38.366
38.368
38.366
38.359
38.347
38.328
38.304
38.275
38.24
38.199
38.153
38.103
38.049
37.991
37.929
37.865
37.797
37.725
37.65
37.572
37.49
37.406
37.318
37.227
37.134
37.039
36.941
36.843
36.744
36.643
36.543
36.443
36.343
36.243
36.145
36.047
35.951
35.857
35.764
35.674
35.586
35.499
35.415
35.333
35.253
35.175
35.099
35.024
34.951
34.88
34.81
34.742
34.676
34.611
34.548
34.487
34.429
34.373
34.319
34.267
34.218
34.171
34.127
34.083
34.042
34.002
33.962
33.924
33.886
33.849
33.813
33.778
33.743
33.708
33.674
33.641
33.609
33.577
33.547
33.517
33.488
33.46
33.432
33.405
33.378
33.35
33.323
33.295
33.267
33.237
33.205
33.172
33.139
33.105
33.072
33.04
33.01
32.98
32.952
32.924
32.896
32.869
32.842
32.814
32.786
32.757
32.726
32.693
32.66
32.624
32.587
32.549
32.509
32.467
32.425
32.381
32.337
32.292
32.247
32.202
32.158
32.115
32.073
32.033
31.998
31.967
31.945
31.935
31.939
31.962
32.007
32.08
32.183
32.318
32.489
32.697
32.942
33.224
33.541
33.891
34.268
34.67
35.091
35.525
35.968
36.412
36.852
37.282
37.696
38.089
38.457
38.797
39.106
39.382
39.624
39.833
40.009
40.153
40.267
40.354
40.417
40.456
40.477
40.48
40.468
40.443
40.407
40.362
40.31
40.251
40.187
40.119
40.048
39.974
39.899
39.824
39.748
39.674
39.601
39.53
39.461
39.394
39.329
39.265
39.201
39.136
39.07
39.002
38.931
38.857
38.779
38.7
38.618
38.536
38.454
38.374
38.298
38.225
38.158
38.099
38.047
38.003
37.969
37.943
37.925
37.916
37.914
37.919
37.931
37.948
37.968
37.991
38.016
38.04
38.064
38.086
38.104
38.119
38.13
38.135
38.135
38.13
38.12
38.102
38.078
38.046
38.007
37.96
37.908
37.851
37.789
37.724
37.657
37.587
37.516
37.443
37.369
37.293
37.215
37.135
37.052
36.968
36.882
36.794
36.704
36.612
36.519
36.425
36.33
36.235
36.14
36.046
35.953
35.86
35.768
35.676
35.585
35.494
35.403
35.313
35.224
35.136
35.05
34.965
34.883
34.802
34.724
34.649
34.578
34.51
34.445
34.384
34.327
34.272
34.221
34.171
34.124
34.079
34.035
33.993
33.95
33.908
33.867
33.826
33.785
33.745
33.705
33.664
33.625
33.585
33.547
33.509
33.473
33.438
33.405
33.372
33.339
33.308
33.277
33.247
33.217
33.189
33.16
33.132
33.104
33.076
33.047
33.018
32.988
32.959
32.93
32.901
32.873
32.847
32.821
32.796
32.772
32.749
32.726
32.702
32.679
32.654
32.628
32.6
32.569
32.536
32.5
32.463
32.424
32.384
32.342
32.299
32.256
32.211
32.166
32.12
32.073
32.027
31.981
31.936
31.893
31.853
31.815
31.782
31.753
31.732
31.72
31.72
31.734
31.766
31.818
31.895
31.998
32.132
32.297
32.497
32.733
33.004
33.309
33.647
34.013
34.405
34.816
35.242
35.676
36.113
36.547
36.973
37.384
37.777
38.147
38.491
38.806
39.09
39.341
39.558
39.743
39.896
40.017
40.109
40.173
40.212
40.23
40.228
40.21
40.177
40.132
40.076
40.012
39.94
39.863
39.782
39.698
39.613
39.528
39.444
39.36
39.279
39.199
39.121
39.044
38.968
38.892
38.816
38.74
38.661
38.579
38.494
38.406
38.315
38.221
38.126
38.03
37.937
37.847
37.763
37.686
37.619
37.561
37.515
37.479
37.454
37.439
37.433
37.435
37.444
37.458
37.478
37.501
37.528
37.556
37.586
37.616
37.646
37.676
37.703
37.729
37.751
37.77
37.785
37.795
37.801
37.8
37.794
37.782
37.763
37.738
37.706
37.667
37.62
37.567
37.507
37.441
37.372
37.299
37.223
37.147
37.069
36.99
36.91
36.828
36.746
36.663
36.578
36.493
36.407
36.319
36.232
36.144
36.056
35.968
35.879
35.791
35.703
35.616
35.529
35.443
35.358
35.275
35.194
35.114
35.037
34.96
34.885
34.812
34.74
34.67
34.603
34.538
34.476
34.416
34.36
34.306
34.255
34.207
34.161
34.118
34.077
34.037
33.998
33.958
33.918
33.878
33.838
33.798
33.757
33.716
33.674
33.631
33.587
33.543
33.5
33.456
33.414
33.373
33.333
33.295
33.26
33.226
33.196
33.168
33.143
33.12
33.1
33.083
33.068
33.054
33.042
33.031
33.021
33.012
33.002
32.991
32.977
32.962
32.943
32.921
32.896
32.866
32.832
32.795
32.753
32.707
32.658
32.606
32.552
32.495
32.438
32.381
32.325
32.273
32.225
32.186
32.158
32.145
32.15
32.178
32.232
32.317
32.434
32.587
32.776
33.001
33.262
33.557
33.883
34.237
34.613
35.007
35.413
35.827
36.242
36.652
37.053
37.439
37.805
38.148
38.464
38.75
39.007
39.232
39.425
39.586
39.718
39.821
39.898
39.951
39.982
39.992
39.985
39.963
39.928
39.882
39.826
39.762
39.692
39.618
39.54
39.46
39.379
39.298
39.217
39.136
39.057
38.978
38.9
38.822
38.745
38.666
38.587
38.506
38.423
38.338
38.251
38.163
38.073
37.984
37.894
37.806
37.719
37.636
37.558
37.487
37.424
37.369
37.324
37.289
37.264
37.25
37.244
37.248
37.26
37.279
37.304
37.335
37.37
37.409
37.449
37.49
37.53
37.567
37.601
37.631
37.654
37.672
37.683
37.687
37.683
37.673
37.656
37.633
37.605
37.572
37.533
37.49
37.441
37.388
37.329
37.266
37.198
37.125
37.049
36.968
36.883
36.794
36.703
36.609
36.514
36.418
36.321
36.225
36.128
36.033
35.938
35.844
35.751
35.66
35.569
35.478
35.388
35.299
35.209
35.121
35.033
34.946
34.86
34.776
34.695
34.617
34.543
34.472
34.403
34.339
34.277
34.218
34.161
34.106
34.053
34.001
33.95
33.899
33.849
33.8
33.753
33.706
33.661
33.616
33.573
33.532
33.493
33.455
33.418
33.382
33.348
33.314
33.281
33.249
33.218
33.188
33.159
33.131
33.105
33.079
33.053
33.028
33.004
32.98
32.957
32.934
32.913
32.892
32.873
32.854
32.835
32.816
32.797
32.779
32.759
32.739
32.717
32.693
32.667
32.639
32.61
32.579
32.547
32.515
32.481
32.447
32.412
32.376
32.339
32.3
32.261
32.221
32.181
32.141
32.101
32.061
32.022
31.985
31.951
31.922
31.899
31.887
31.888
31.907
31.946
32.01
32.102
32.226
32.385
32.581
32.814
33.085
33.393
33.734
34.107
34.508
34.93
35.369
35.82
36.275
36.728
37.174
37.606
38.019
38.409
38.773
39.107
39.409
39.678
39.914
40.116
40.287
40.426
40.536
40.618
40.674
40.708
40.721
40.716
40.696
40.664
40.62
40.568
40.509
40.445
40.377
40.306
40.234
40.16
40.085
40.011
39.937
39.865
39.794
39.724
39.657
39.591
39.526
39.463
39.399
39.335
39.269
39.2
39.128
39.053
38.975
38.895
38.813
38.73
38.647
38.565
38.486
38.411
38.342
38.279
38.224
38.177
38.139
38.109
38.087
38.073
38.067
38.067
38.072
38.081
38.092
38.105
38.117
38.13
38.141
38.149
38.155
38.156
38.154
38.148
38.138
38.124
38.104
38.08
38.051
38.017
37.978
37.934
37.887
37.836
37.781
37.722
37.659
37.592
37.522
37.448
37.37
37.288
37.203
37.114
37.022
36.928
36.831
36.734
36.635
36.536
36.437
36.338
36.238
36.139
36.039
35.941
35.843
35.747
35.653
35.559
35.468
35.379
35.292
35.208
35.127
35.049
34.973
34.9
34.827
34.755
34.684
34.613
34.543
34.474
34.405
34.339
34.274
34.212
34.153
34.096
34.042
33.991
33.941
33.893
33.847
33.801
33.756
33.712
33.669
33.628
33.589
33.551
33.514
33.478
33.443
33.408
33.373
33.338
33.304
33.269
33.234
33.199
33.164
33.13
33.096
33.063
33.031
33.0
32.971
32.942
32.914
32.886
32.858
32.831
32.803
32.776
32.749
32.722
32.694
32.666
32.635
32.603
32.569
32.532
32.493
32.451
32.408
32.362
32.314
32.263
32.21
32.155
32.098
32.04
31.982
31.924
31.867
31.812
31.759
31.709
31.665
31.629
31.602
31.589
31.592
31.615
31.662
31.736
31.84
31.977
32.147
32.353
32.594
32.869
33.177
33.515
33.878
34.263
34.664
35.075
35.49
35.903
36.31
36.704
37.081
37.436
37.766
38.068
38.342
38.585
38.797
38.978
39.13
39.253
39.35
39.422
39.47
39.497
39.505
39.496
39.473
39.437
39.392
39.339
39.278
39.213
39.143
39.072
39.0
38.928
38.856
38.786
38.716
38.647
38.58
38.515
38.451
38.39
38.329
38.27
38.212
38.153
38.093
38.031
37.967
37.901
37.83
37.756
37.679
37.601
37.522
37.445
37.369
37.296
37.227
37.162
37.103
37.048
37.0
36.958
36.921
36.891
36.867
36.848
36.834
36.826
36.82
36.818
36.817
36.817
36.817
36.815
36.813
36.809
36.803
36.795
36.782
36.766
36.746
36.72
36.69
36.655
36.614
36.569
36.52
36.467
36.411
36.352
36.29
36.226
36.159
36.09
36.019
35.946
35.871
35.795
35.717
35.638
35.556
35.473
35.387
35.299
35.21
35.119
35.028
34.936
34.845
34.754
34.665
34.576
34.489
34.404
34.322
34.241
34.164
34.09
34.02
33.952
33.888
33.825
33.764
33.704
33.647
33.59
33.535
33.481
33.427
33.373
33.32
33.268
33.218
33.169
33.122
33.078
33.034
32.993
32.952
32.912
32.873
32.836
32.798
32.762
32.726
32.691
32.656
32.621
32.586
32.551
32.516
32.482
32.45
32.419
32.389
32.36
32.332
32.304
32.276
32.249
32.22
32.191
32.16
32.127
32.091
32.053
32.013
31.97
31.926
31.882
31.836
31.789
31.742
31.693
31.644
31.594
31.543
31.492
31.442
31.392
31.344
31.299
31.255
31.214
31.175
31.14
31.109
31.084
31.068
31.066
31.079
31.111
31.166
31.246
31.352
31.486
31.649
31.84
32.058
32.303
32.571
32.86
33.166
33.483
33.808
34.136
34.462
34.782
35.092
35.388
35.666
35.925
36.16
36.371
36.556
36.715
36.849
36.956
37.039
37.098
37.136
37.155
37.157
37.144
37.119
37.082
37.036
36.982
36.923
36.861
36.795
36.727
36.658
36.59
36.522
36.456
36.393
36.332
36.275
36.221
36.169
36.119
36.07
36.021
35.973
35.925
35.876
35.826
35.773
35.719
35.662
35.603
35.544
35.484
35.425
35.368
35.313
35.263
35.216
35.175
35.141
35.114
35.095
35.083
35.078
35.081
35.09
35.106
35.127
35.154
35.184
35.216
35.25
35.284
35.317
35.347
35.374
35.396
35.413
35.424
35.428
35.426
35.418
35.404
35.384
35.359
35.328
35.292
35.252
35.207
35.159
35.108
35.054
34.998
34.941
34.882
34.821
34.759
34.695
34.629
34.561
34.491
34.418
34.343
34.265
34.184
34.101
34.015
33.928
33.84
33.753
33.666
33.581
33.497
33.416
33.338
33.263
33.194
33.13
33.071
33.018
32.97
32.925
32.885
32.848
32.814
32.784
32.756
32.73
32.705
32.681
32.656
32.631
32.604
32.577
32.548
32.518
32.486
32.452
32.416
32.378
32.338
32.297
32.256
32.214
32.173
32.133
32.093
32.054
32.015
31.977
31.939
31.903
31.867
31.832
31.799
31.768
31.738
31.709
31.682
31.657
31.633
31.61
31.588
31.566
31.544
31.52
31.496
31.471
31.446
31.42
31.396
31.373
31.354
31.341
31.334
31.337
31.351
31.379
31.424
31.489
31.576
31.686
31.821
31.979
32.161
32.364
32.587
32.827
33.079
33.341
33.608
33.876
34.141
34.398
34.645
34.878
35.094
35.291
35.468
35.624
35.757
35.869
35.96
36.029
36.079
36.111
36.126
36.127
36.114
36.091
36.058
36.017
35.97
35.918
35.863
35.806
35.747
35.688
35.63
35.572
35.515
35.459
35.405
35.352
35.303
35.255
35.211
35.168
35.127
35.086
35.045
35.004
34.962
34.919
34.874
34.829
34.782
34.735
34.688
34.641
34.597
34.554
34.516
34.481
34.452
34.428
34.409
34.397
34.389
34.387
34.391
34.399
34.411
34.427
34.447
34.468
34.491
34.515
34.539
34.562
34.583
34.601
34.614
34.623
34.628
34.627
34.621
34.609
34.593
34.573
34.548
34.519
34.486
34.45
34.411
34.369
34.324
34.278
34.23
34.18
34.129
34.077
34.024
33.971
33.915
33.859
33.802
33.743
33.684
33.626
33.567
33.509
33.45
33.392
33.334
33.276
33.219
33.163
33.109
33.056
33.005
32.956
32.909
32.863
32.819
32.778
32.738
32.7
32.663
32.627
32.592
32.559
32.526
32.495
32.465
32.437
32.41
32.386
32.364
32.344
32.325
32.308
32.292
32.276
32.26
32.244
32.228
32.211
32.193
32.174
32.154
32.133
32.111
32.089
32.067
32.045
32.024
32.003
31.982
31.962
31.942
31.922
31.903
31.884
31.866
31.85
31.834
31.82
31.807
31.796
31.788
31.782
31.781
31.786
31.801
31.827
31.866
31.921
31.994
32.085
32.196
32.327
32.478
32.647
32.834
33.036
33.252
33.478
33.71
33.946
34.181
34.414
34.639
34.854
35.057
35.245
35.415
35.566
35.697
35.809
35.9
35.97
36.022
36.054
36.07
36.07
36.056
36.031
35.995
35.952
35.902
35.849
35.793
35.735
35.678
35.622
35.568
35.515
35.465
35.416
35.368
35.322
35.277
35.233
35.189
35.145
35.1
35.054
35.007
34.959
34.911
34.861
34.811
34.76
34.709
34.658
34.61
34.565
34.524
34.487
34.454
34.427
34.405
34.389
34.379
34.374
34.376
34.383
34.395
34.412
34.433
34.458
34.485
34.513
34.543
34.572
34.6
34.627
34.651
34.672
34.69
34.705
34.716
34.724
34.728
34.73
34.728
34.722
34.714
34.702
34.687
34.669
34.648
34.623
34.595
34.563
34.529
34.492
34.454
34.413
34.371
34.327
34.282
34.237
34.191
34.146
34.1
34.054
34.009
33.963
33.916
33.869
33.822
33.775
33.727
33.68
33.632
33.585
33.538
33.492
33.447
33.404
33.363
33.324
33.288
33.253
33.221
33.189
33.159
33.13
33.101
33.073
33.046
33.018
32.992
32.965
32.94
32.915
32.891
32.869
32.849
32.831
32.814
32.799
32.785
32.772
32.758
32.745
32.73
32.715
32.696
32.675
32.652
32.626
32.598
32.569
32.54
32.511
32.482
32.454
32.427
32.401
32.376
32.352
32.331
32.313
32.296
32.283
32.273
32.269
32.27
32.278
32.296
32.324
32.365
32.42
32.49
32.577
32.681
32.802
32.941
33.096
33.266
33.449
33.644
33.847
34.055
34.265
34.474
34.679
34.877
35.064
35.238
35.397
35.539
35.664
35.769
35.857
35.926
35.977
36.012
36.033
36.041
36.037
36.022
35.999
35.968
35.93
35.886
35.837
35.784
35.727
35.669
35.609
35.548
35.487
35.428
35.369
35.313
35.259
35.207
35.158
35.111
35.065
35.021
34.978
34.937
34.895
34.854
34.812
34.77
34.727
34.684
34.642
34.6
34.561
34.524
34.491
34.463
34.44
34.425
34.416
34.414
34.418
34.429
34.446
34.468
34.494
34.525
34.558
34.593
34.628
34.662
34.696
34.728
34.757
34.783
34.805
34.823
34.835
34.843
34.846
34.844
34.837
34.826
34.81
34.79
34.766
34.74
34.711
34.681
34.648
34.613
34.576
34.536
34.495
34.452
34.408
34.364
34.32
34.275
34.231
34.185
34.14
34.095
34.05
34.006
33.962
33.919
33.876
33.834
33.791
33.748
33.705
33.661
33.617
33.574
33.532
33.49
33.449
33.411
33.373
33.338
33.305
33.273
33.244
33.217
33.191
33.168
33.146
33.126
33.107
33.089
33.072
33.056
33.041
33.025
33.009
32.993
32.977
32.961
32.944
32.926
32.907
32.887
32.866
32.844
32.821
32.797
32.772
32.747
32.723
32.698
32.674
32.651
32.63
32.609
32.589
32.571
32.554
32.538
32.524
32.511
32.502
32.497
32.498
32.505
32.522
32.549
32.588
32.641
32.71
32.795
32.899
33.02
33.157
33.311
33.478
33.657
33.845
34.04
34.238
34.437
34.632
34.822
35.003
35.172
35.328
35.469
35.594
35.703
35.796
35.872
35.932
35.978
36.009
36.027
36.033
36.028
36.015
35.993
35.964
35.929
35.89
35.847
35.802
35.754
35.705
35.654
35.602
35.55
35.498
35.447
35.397
35.349
35.303
35.259
35.217
35.176
35.136
35.097
35.059
35.019
34.98
34.94
34.9
34.861
34.822
34.784
34.747
34.712
34.679
34.648
34.621
34.598
34.581
34.569
34.563
34.564
34.571
34.584
34.601
34.624
34.65
34.679
34.71
34.741
34.772
34.8
34.827
34.851
34.872
34.889
34.902
34.91
34.913
34.911
34.905
34.894
34.88
34.863
34.843
34.82
34.795
34.769
34.741
34.712
34.682
34.65
34.617
34.582
34.545
34.508
34.47
34.431
34.391
34.35
34.308
34.266
34.223
34.181
34.14
34.1
34.063
34.027
33.994
33.963
33.933
33.905
33.879
33.855
33.832
33.81
33.79
33.771
33.752
33.734
33.715
33.696
33.677
33.658
33.639
33.62
33.6
33.579
33.559
33.537
33.516
33.494
33.472
33.45
33.428
33.407
33.386
33.366
33.346
33.327
33.307
33.287
33.266
33.245
33.224
33.202
33.179
33.155
33.13
33.104
33.076
33.046
33.016
32.985
32.954
32.923
32.895
32.868
32.843
32.82
32.799
32.78
32.763
32.748
32.734
32.722
32.71
32.699
32.688
32.677
32.666
32.654
32.641
32.627
32.611
32.591
32.569
32.544
32.517
32.489
32.459
32.429
32.399
32.37
32.344
32.321
32.304
32.294
32.294
32.307
32.335
32.381
32.445
32.53
32.635
32.761
32.907
33.072
33.254
33.451
33.659
33.875
34.098
34.321
34.543
34.76
34.968
35.165
35.349
35.516
35.667
35.799
35.912
36.006
36.082
36.14
36.181
36.208
36.223
36.225
36.219
36.204
36.183
36.156
36.126
36.093
36.059
36.025
35.992
35.959
35.927
35.897
35.869
35.843
35.82
35.8
35.783
35.769
35.757
35.746
35.736
35.727
35.717
35.707
35.695
35.682
35.667
35.649
35.629
35.607
35.583
35.557
35.53
35.502
35.475
35.448
35.424
35.402
35.384
35.37
35.36
35.354
35.352
35.354
35.36
35.37
35.382
35.398
35.415
35.434
35.454
35.475
35.495
35.514
35.531
35.545
35.555
35.562
35.566
35.566
35.563
35.557
35.548
35.535
35.519
35.499
35.476
35.45
35.422
35.392
35.359
35.325
35.289
35.251
35.212
35.172
35.131
35.089
35.046
35.002
34.958
34.913
34.868
34.824
34.779
34.735
34.691
34.648
34.606
34.564
34.522
34.481
34.44
