Trial 1:0back
33.063
33.089
33.128
33.178
33.243
33.322
33.414
33.52
33.639
33.768
33.908
34.055
34.208
34.365
34.523
34.679
34.831
34.977
35.114
35.241
35.355
35.456
35.543
35.617
35.676
35.722
35.757
35.781
35.796
35.805
35.808
35.806
35.802
35.795
35.788
35.78
35.772
35.764
35.757
35.751
35.745
35.741
35.736
35.732
35.729
35.727
35.726
35.725
35.726
35.729
35.733
35.738
35.746
35.754
35.763
35.771
35.778
35.783
35.786
35.785
35.782
35.775
35.765
35.751
35.734
35.714
35.693
35.67
35.646
35.623
35.601
35.58
35.561
35.543
35.528
35.516
35.506
35.499
35.494
35.491
35.491
35.491
35.493
35.494
35.496
35.498
35.499
35.5
35.501
35.502
35.503
35.504
35.505
35.505
35.505
35.505
35.503
35.5
35.495
35.488
35.478
35.465
35.449
35.429
35.405
35.377
35.346
35.312
35.276
35.239
35.202
35.165
35.128
35.092
35.058
35.025
34.993
34.963
34.934
34.907
34.882
34.858
34.836
34.815
34.795
34.776
34.756
34.734
34.712
34.689
34.665
34.642
34.619
34.597
34.575
34.554
34.533
34.512
34.491
34.47
34.449
34.428
34.406
34.384
34.361
34.338
34.315
34.291
34.266
34.241
34.216
34.19
34.165
34.14
34.116
34.093
34.07
34.049
34.029
34.009
33.99
33.972
33.955
33.938
33.923
33.908
33.894
33.881
33.869
33.856
33.844
33.831
33.818
33.805
33.79
33.775
33.759
33.742
33.723
33.704
33.684
33.663
33.643
33.622
33.602
33.582
33.563
33.544
33.527
33.51
33.495
33.481
33.468
33.456
33.445
33.435
33.426
33.418
33.41
33.402
33.394
33.386
33.376
33.365
33.354
33.341
33.327
33.311
33.294
33.276
33.257
33.238
33.219
33.2
33.182
33.164
33.148
33.132
33.118
33.104
33.091
33.079
33.068
33.057
33.046
33.036
33.025
33.015
33.004
32.993
32.982
32.971
32.959
32.946
32.932
32.917
32.9
32.882
32.863
32.843
32.824
32.805
32.786
32.769
32.753
32.74
32.729
32.722
32.718
32.719
32.725
32.737
32.756
32.783
32.82
32.867
32.926
32.997
33.079
33.174
33.281
33.4
33.53
33.67
33.817
33.971
34.129
34.287
34.444
34.598
34.745
34.885
35.015
35.134
35.242
35.336
35.416
35.483
35.536
35.577
35.604
35.621
35.629
35.629
35.623
35.613
35.599
35.584
35.568
35.552
35.536
35.522
35.51
35.5
35.492
35.487
35.484
35.485
35.488
35.494
35.501
35.509
35.519
35.529
35.541
35.552
35.564
35.575
35.585
35.594
35.6
35.604
35.604
35.601
35.595
35.587
35.577
35.565
35.552
35.537
35.521
35.505
35.49
35.476
35.464
35.453
35.445
35.439
35.436
35.437
35.439
35.445
35.453
35.463
35.475
35.487
35.499
35.511
35.522
35.532
35.539
35.544
35.548
35.549
35.549
35.547
35.542
35.536
35.529
35.519
35.508
35.495
35.48
35.464
35.445
35.426
35.405
35.382
35.358
35.333
35.306
35.278
35.25
35.221
35.193
35.166
35.14
35.115
35.092
35.07
35.049
35.029
35.008
34.987
34.967
34.945
34.923
34.901
34.877
34.853
34.828
34.803
34.779
34.755
34.733
34.711
34.691
34.672
34.655
34.64
34.627
34.616
34.606
34.597
34.589
34.581
34.572
34.562
34.551
34.538
34.524
34.508
34.492
34.476
34.46
34.445
34.43
34.417
34.404
34.394
34.384
34.376
34.368
34.36
34.352
34.343
34.334
34.324
34.313
34.301
34.287
34.272
34.256
34.239
34.221
34.203
34.184
34.165
34.147
34.129
34.111
34.095
34.08
34.067
34.055
34.045
34.035
34.026
34.016
34.006
33.996
33.984
33.972
33.958
33.944
33.929
33.913
33.896
33.879
33.861
33.843
33.824
33.804
33.785
33.765
33.746
33.727
33.708
33.69
33.673
33.657
33.642
33.629
33.617
33.606
33.596
33.586
33.577
33.566
33.556
33.544
33.531
33.517
33.501
33.483
33.464
33.444
33.424
33.404
33.385
33.367
33.35
33.336
33.323
33.313
33.304
33.296
33.289
33.281
33.273
33.264
33.254
33.243
33.229
33.214
33.198
33.18
33.163
33.146
33.13
33.115
33.101
33.089
33.078
33.069
33.062
33.059
33.06
33.067
33.081
33.105
33.138
33.183
33.242
33.314
33.401
33.501
33.615
33.742
33.879
34.025
34.178
34.335
34.494
34.652
34.807
34.957
35.1
35.235
35.36
35.474
35.577
35.668
35.747
35.814
35.87
35.916
35.951
35.977
35.995
36.006
36.01
36.008
36.001
35.99
35.977
35.96
35.943
35.924
35.905
35.887
35.869
35.854
35.84
35.828
35.82
35.814
35.811
35.81
35.812
35.814
35.817
35.821
35.823
35.825
35.824
35.821
35.816
35.807
35.796
35.783
35.768
35.751
35.733
35.715
35.697
35.68
35.662
35.645
35.628
35.611
35.596
35.581
35.569
35.559
35.552
35.547
35.545
35.546
35.549
35.555
35.562
35.572
35.583
35.595
35.609
35.622
35.633
35.643
35.649
35.651
35.651
35.647
35.64
35.631
35.619
35.604
35.589
35.572
35.553
35.534
35.513
35.492
35.471
35.448
35.425
35.402
35.378
35.354
35.329
35.304
35.278
35.253
35.227
35.202
35.176
35.151
35.127
35.103
35.081
35.059
35.038
35.018
34.999
34.98
34.963
34.946
34.929
34.913
34.897
34.881
34.866
34.851
34.835
34.82
34.804
34.788
34.773
34.759
34.745
34.734
34.723
34.714
34.705
34.698
34.692
34.688
34.684
34.681
34.677
34.673
34.669
34.664
34.659
34.653
34.646
34.639
34.63
34.621
34.611
34.602
34.592
34.582
34.572
34.562
34.551
34.54
34.53
34.52
34.51
34.501
34.492
34.483
34.473
34.464
34.453
34.441
34.428
34.413
34.396
34.375
34.353
34.329
34.303
34.276
34.249
34.222
34.196
34.172
34.15
34.13
34.112
34.096
34.081
34.069
34.059
34.05
34.043
34.034
34.025
34.014
34.001
33.984
33.965
33.943
33.918
33.89
33.859
33.827
33.794
33.759
33.725
33.692
33.66
33.629
33.601
33.574
33.55
33.529
33.512
33.5
33.494
33.494
33.503
33.521
33.55
33.591
33.644
33.71
33.79
33.882
33.987
34.105
34.233
34.371
34.516
34.665
34.815
34.965
35.113
35.255
35.39
35.517
35.634
35.739
35.833
35.913
35.981
36.036
36.08
36.113
36.136
36.149
36.155
36.155
36.152
36.145
36.137
36.129
36.12
36.111
36.103
36.095
36.087
36.079
36.07
36.062
36.054
36.046
36.037
36.029
36.022
36.015
36.008
36.002
35.995
35.988
35.981
35.972
35.962
35.951
35.94
35.927
35.914
35.899
35.883
35.866
35.847
35.827
35.806
35.785
35.765
35.746
35.73
35.715
35.703
35.695
35.688
35.685
35.684
35.685
35.69
35.697
35.706
35.717
35.729
35.742
35.756
35.771
35.785
35.8
35.813
35.825
35.833
35.839
35.842
35.841
35.836
35.827
35.814
35.798
35.778
35.755
35.73
35.703
35.676
35.648
35.621
35.595
35.569
35.543
35.518
35.493
35.469
35.445
35.419
35.393
35.364
35.334
35.303
35.27
35.236
35.202
35.167
35.133
35.1
35.067
35.037
35.008
34.981
34.956
34.933
34.911
34.892
34.874
34.858
34.842
34.826
34.809
34.79
34.77
34.748
34.725
34.701
34.676
34.651
34.628
34.605
34.583
34.562
34.544
34.527
34.512
34.498
34.486
34.475
34.464
34.452
34.44
34.428
34.415
34.401
34.387
34.373
34.358
34.343
34.328
34.313
34.299
34.286
34.273
34.262
34.251
34.242
34.233
34.224
34.216
34.207
34.197
34.186
34.175
34.162
34.148
34.134
34.12
34.105
34.091
34.078
34.065
34.052
34.041
34.03
34.02
34.01
34.001
33.991
33.982
33.973
33.964
33.954
33.943
33.931
33.918
33.905
33.89
33.874
33.857
33.84
33.821
33.803
33.784
33.766
33.749
33.732
33.717
33.702
33.687
33.673
33.659
33.645
33.631
33.617
33.603
33.588
33.573
33.558
33.542
33.525
33.507
33.488
33.468
33.448
33.427
33.406
33.384
33.363
33.342
33.322
33.303
33.285
33.269
33.253
33.24
33.228
33.218
33.21
33.207
33.208
33.215
33.229
33.253
33.287
33.334
33.394
33.468
33.557
33.66
33.778
33.909
34.052
34.205
34.366
34.532
34.702
34.873
35.042
35.207
35.365
35.515
35.653
35.78
35.893
35.992
36.077
36.148
36.207
36.253
36.287
36.311
36.327
36.334
36.335
36.331
36.322
36.31
36.295
36.279
36.262
36.243
36.225
36.207
36.19
36.174
36.16
36.148
36.137
36.129
36.124
36.12
36.117
36.116
36.115
36.114
36.113
36.111
36.108
36.104
36.098
36.091
36.083
36.074
36.063
36.052
36.038
36.023
36.005
35.986
35.966
35.943
35.921
35.898
35.875
35.855
35.836
35.821
35.808
35.8
35.795
35.795
35.799
35.807
35.819
35.833
35.848
35.864
35.88
35.894
35.905
35.913
35.918
35.918
35.914
35.906
35.895
35.881
35.864
35.847
35.828
35.809
35.791
35.773
35.755
35.737
35.72
35.703
35.686
35.669
35.651
35.633
35.615
35.595
35.574
35.553
35.531
35.508
35.484
35.459
35.432
35.404
35.374
35.343
35.311
35.278
35.245
35.212
35.179
35.147
35.116
35.086
35.059
35.033
35.009
34.988
34.969
34.952
34.937
34.924
34.911
34.9
34.888
34.876
34.864
34.85
34.834
34.817
34.799
34.779
34.757
34.734
34.711
34.687
34.664
34.643
34.622
34.602
34.584
34.567
34.552
34.539
34.527
34.516
34.507
34.498
34.489
34.48
34.471
34.461
34.45
34.439
34.427
34.413
34.4
34.387
34.373
34.36
34.348
34.336
34.325
34.314
34.304
34.292
34.28
34.266
34.25
34.232
34.213
34.193
34.172
34.151
34.13
34.11
34.092
34.074
34.057
34.042
34.027
34.014
34.001
33.989
33.978
33.966
33.953
33.939
33.924
33.907
33.89
33.872
33.853
33.835
33.818
33.802
33.787
33.775
33.763
33.753
33.744
33.736
33.728
33.72
33.711
33.7
33.687
33.672
33.655
33.636
33.614
33.591
33.567
33.543
33.519
33.495
33.473
33.453
33.434
33.417
33.402
33.387
33.374
33.362
33.35
33.341
33.335
33.333
33.337
33.349
33.371
33.405
33.451
33.513
33.589
33.681
33.788
33.91
34.044
34.19
34.345
34.508
34.676
34.847
35.018
35.186
35.348
35.503
35.649
35.784
35.907
36.017
36.112
36.193
36.26
36.312
36.35
36.376
36.391
36.395
36.391
36.38
36.365
36.346
36.326
36.305
36.284
36.264
36.245
36.228
36.213
36.199
36.186
36.173
36.161
36.15
36.14
36.131
36.124
36.119
36.115
36.112
36.11
36.107
36.105
36.103
36.1
36.096
36.091
36.083
36.074
36.061
36.046
36.028
36.008
35.986
35.962
35.938
35.913
35.889
35.866
35.844
35.824
35.807
35.792
35.782
35.774
35.771
35.771
35.776
35.784
35.795
35.809
35.825
35.844
35.864
35.884
35.903
35.921
35.935
35.946
35.952
35.953
35.95
35.942
35.931
35.915
35.895
35.873
35.848
35.821
35.794
35.765
35.737
35.71
35.683
35.657
35.632
35.607
35.583
35.56
35.536
35.513
35.49
35.467
35.443
35.419
35.394
35.37
35.346
35.322
35.299
35.275
35.251
35.227
35.204
35.18
35.156
35.133
35.11
35.088
35.067
35.046
35.027
35.009
34.992
34.976
34.962
34.948
34.934
34.92
34.905
34.889
34.872
34.854
34.836
34.816
34.796
34.775
34.754
34.732
34.71
34.689
34.669
34.649
34.632
34.615
34.601
34.589
34.579
34.572
34.568
34.567
34.567
34.567
34.567
34.564
34.559
34.552
34.541
34.528
34.513
34.496
34.477
34.458
34.437
34.417
34.397
34.377
34.358
34.34
34.322
34.305
34.29
34.275
34.262
34.25
34.239
34.229
34.22
34.212
34.204
34.196
34.189
34.182
34.174
34.167
34.159
34.15
34.142
34.133
34.124
34.115
34.106
34.097
34.086
34.075
34.062
34.047
34.032
34.016
33.998
33.98
33.962
33.945
33.929
33.914
33.901
33.888
33.877
33.867
33.857
33.848
33.838
33.827
33.816
33.803
33.79
33.776
33.761
33.747
33.733
33.72
33.708
33.698
33.69
33.685
33.683
33.686
33.693
33.706
33.726
33.755
33.795
33.846
33.91
33.987
34.078
34.183
34.3
34.429
34.568
34.717
34.873
35.034
35.197
35.361
35.522
35.68
35.831
35.974
36.107
36.228
36.337
36.433
36.514
36.582
36.636
36.677
36.706
36.723
36.729
36.728
36.719
36.704
36.685
36.663
36.639
36.615
36.591
36.569
36.548
36.528
36.511
36.494
36.48
36.467
36.456
36.445
36.436
36.427
36.42
36.414
36.41
36.406
36.402
36.398
36.393
36.386
36.377
36.365
36.35
36.332
36.311
36.286
36.259
36.229
36.199
36.167
36.137
36.108
36.082
36.059
36.041
36.027
36.017
36.011
36.009
36.011
36.016
36.024
36.034
36.047
36.061
36.077
36.093
36.11
36.126
36.142
36.156
36.168
36.179
36.187
36.192
36.195
36.195
36.191
36.185
36.176
36.165
36.152
36.138
36.123
36.109
36.094
36.081
36.068
36.056
36.044
36.032
36.019
36.005
35.989
35.972
35.953
35.933
35.91
35.886
35.861
35.836
35.81
35.785
35.76
35.735
35.712
35.689
35.667
35.646
35.626
35.606
35.587
35.568
35.548
35.528
35.507
35.485
35.463
35.441
35.418
35.396
35.375
35.355
35.336
35.318
35.303
35.289
35.278
35.269
35.261
35.256
35.25
35.245
35.24
35.233
35.225
35.216
35.205
35.193
35.18
35.167
35.154
35.141
35.129
35.116
35.103
35.089
35.075
35.06
35.046
35.03
35.015
34.998
34.982
34.965
34.948
34.931
34.915
34.9
34.887
34.875
34.865
34.855
34.846
34.838
34.83
34.822
34.813
34.804
34.793
34.78
34.766
34.75
34.731
34.711
34.688
34.663
34.636
34.608
34.578
34.547
34.515
34.483
34.452
34.421
34.392
34.366
34.343
34.323
34.306
34.291
34.279
34.269
34.261
34.256
34.253
34.255
34.262
34.276
34.298
34.331
34.376
34.434
34.505
34.591
34.69
34.802
34.925
35.058
35.198
35.344
35.495
35.646
35.797
35.946
36.091
36.231
36.365
36.491
36.608
36.716
36.813
36.9
36.975
37.039
37.091
37.133
37.164
37.187
37.201
37.208
37.209
37.205
37.195
37.182
37.167
37.15
37.133
37.116
37.099
37.083
37.068
37.053
37.039
37.027
37.015
37.004
36.993
36.982
36.971
36.961
36.952
36.944
36.936
36.929
36.922
36.915
36.907
36.898
36.887
36.873
36.857
36.838
36.816
36.793
36.77
36.746
36.724
36.704
36.686
36.671
36.66
36.653
36.651
36.652
36.658
36.668
36.679
36.692
36.705
36.718
36.731
36.742
36.754
36.764
36.774
36.782
36.789
36.793
36.796
36.796
36.794
36.789
36.781
36.771
36.758
36.742
36.724
36.704
36.682
36.659
36.635
36.611
36.586
36.562
36.539
36.517
36.496
36.475
36.455
36.435
36.415
36.395
36.373
36.349
36.323
36.295
36.265
36.233
36.2
36.167
36.133
36.1
36.066
36.034
36.002
35.972
35.943
35.915
35.889
35.864
35.841
35.818
35.796
35.775
35.755
35.735
35.716
35.696
35.677
35.657
35.637
35.616
35.595
35.575
35.555
35.536
35.52
35.506
35.495
35.486
35.479
35.474
35.47
35.466
35.462
35.457
35.452
35.446
35.439
35.432
35.425
35.418
35.41
35.402
35.393
35.382
35.369
35.355
35.338
35.319
35.297
35.274
35.249
35.223
35.197
35.17
35.144
35.117
35.093
35.069
35.047
35.027
35.009
34.991
34.976
34.962
34.95
34.94
34.931
34.926
34.924
34.927
34.936
34.952
34.979
35.017
35.068
35.132
35.21
35.301
35.407
35.525
35.654
35.794
35.942
36.095
36.253
36.413
36.572
36.73
36.883
37.031
37.172
37.304
37.427
37.539
37.639
37.727
37.802
37.865
37.917
37.958
37.989
38.012
38.028
38.038
38.043
38.043
38.041
38.036
38.029
38.021
38.013
38.004
37.995
37.986
37.979
37.972
37.966
37.962
37.959
37.957
37.956
37.955
37.954
37.953
37.951
37.948
37.944
37.938
37.93
37.919
37.905
37.889
37.871
37.85
37.828
37.805
37.781
37.759
37.737
37.717
37.7
37.685
37.673
37.664
37.658
37.656
37.657
37.66
37.667
37.677
37.69
37.704
37.72
37.737
37.754
37.77
37.784
37.797
37.808
37.817
37.823
37.826
37.828
37.826
37.822
37.816
37.807
37.795
37.779
37.761
37.739
37.715
37.689
37.661
37.632
37.601
37.57
37.539
37.507
37.475
37.442
37.41
37.377
37.343
37.31
37.277
37.244
37.21
37.176
37.142
37.108
37.074
37.042
37.009
36.978
36.948
36.919
36.89
36.863
36.835
36.808
36.781
36.753
36.725
36.697
36.668
36.639
36.609
36.578
36.547
36.516
36.486
36.455
36.426
36.398
36.371
36.345
36.321
36.297
36.275
36.253
36.231
36.21
36.188
36.167
36.145
36.123
36.102
36.08
36.058
36.037
36.016
35.996
35.976
35.956
35.935
35.913
35.891
35.868
35.845
35.821
35.796
35.77
35.744
35.718
35.692
35.666
35.641
35.618
35.596
35.576
35.557
35.538
35.521
35.504
35.487
35.469
35.451
35.431
35.41
35.388
35.364
35.338
35.311
35.283
35.255
35.227
35.198
35.171
35.144
35.118
35.094
35.071
35.05
35.03
35.012
34.997
34.985
34.978
34.976
34.982
34.996
35.02
35.058
35.109
35.176
35.26
35.359
35.476
35.608
35.755
35.915
36.086
36.263
36.446
36.63
36.813
36.993
37.168
37.335
37.493
37.641
37.777
37.901
38.011
38.108
38.19
38.259
38.314
38.356
38.387
38.407
38.419
38.423
38.42
38.413
38.401
38.387
38.37
38.352
38.334
38.316
38.298
38.281
38.266
38.251
38.238
38.227
38.217
38.21
38.205
38.203
38.204
38.207
38.211
38.216
38.221
38.226
38.23
38.232
38.232
38.23
38.224
38.215
38.202
38.187
38.168
38.146
38.122
38.096
38.069
38.042
38.015
37.99
37.966
37.946
37.928
37.915
37.905
37.898
37.895
37.895
37.896
37.899
37.902
37.905
37.909
37.911
37.913
37.912
37.91
37.905
37.898
37.889
37.878
37.866
37.851
37.834
37.814
37.791
37.764
37.734
37.702
37.667
37.631
37.593
37.556
37.519
37.482
37.445
37.409
37.373
37.338
37.303
37.267
37.231
37.193
37.155
37.116
37.076
37.037
36.997
36.958
36.919
36.882
36.845
36.808
36.772
36.737
36.703
36.669
36.636
36.603
36.57
36.537
36.505
36.473
36.442
36.412
36.381
36.352
36.324
36.298
36.273
36.248
36.225
36.201
36.177
36.153
36.129
36.105
36.081
36.056
36.031
36.006
35.982
35.958
35.933
35.908
35.881
35.852
35.821
35.786
35.75
35.711
35.67
35.627
35.583
35.538
35.492
35.446
35.4
35.355
35.312
35.271
35.231
35.193
35.158
35.124
35.091
35.06
35.029
34.998
34.969
34.941
34.913
34.887
34.862
34.838
34.815
34.792
34.771
34.749
34.728
34.708
34.686
34.664
34.641
34.615
34.588
34.558
34.525
34.49
34.453
34.415
34.376
34.337
34.298
34.26
34.223
34.189
34.158
34.129
34.104
34.081
34.06
34.04
34.019
33.998
33.976
33.954
33.93
33.907
33.883
33.86
33.838
33.817
33.801
33.788
33.783
33.785
33.798
33.822
33.859
33.911
33.979
34.062
34.161
34.275
34.404
34.546
34.7
34.863
35.033
35.207
35.383
35.558
35.728
35.892
36.047
36.191
36.323
36.441
36.546
36.635
36.71
36.771
36.819
36.855
36.879
36.894
36.9
36.899
36.89
36.877
36.86
36.839
36.818
36.796
36.773
36.752
36.732
36.714
36.699
36.685
36.674
36.665
36.658
36.652
36.649
36.646
36.645
36.644
36.644
36.644
36.645
36.647
36.649
36.652
36.653
36.654
36.653
36.65
36.644
36.635
36.622
36.605
36.585
36.562
36.536
36.509
36.48
36.452
36.424
36.399
36.376
36.355
36.338
36.324
36.312
36.302
36.294
36.288
36.283
36.28
36.278
36.278
36.279
36.281
36.284
36.288
36.291
36.292
36.292
36.29
36.284
36.274
36.261
36.243
36.221
36.194
36.163
36.129
36.092
36.054
36.014
35.974
35.935
35.896
35.859
35.824
35.79
35.757
35.725
35.693
35.661
35.628
35.594
35.559
35.523
35.487
35.45
35.413
35.376
35.34
35.305
35.27
35.236
35.203
35.171
35.139
35.107
35.076
35.045
35.015
34.986
34.958
34.932
34.907
34.883
34.86
34.838
34.816
34.795
34.772
34.75
34.726
34.702
34.677
34.652
34.627
34.602
34.577
34.553
34.53
34.507
34.486
34.466
34.447
34.429
34.412
34.395
34.377
34.36
34.341
34.322
34.302
34.28
34.257
34.232
34.206
34.178
34.149
34.12
34.092
34.064
34.038
34.014
33.991
33.971
33.952
33.935
33.919
33.903
33.887
33.87
33.853
33.835
33.816
33.795
33.774
33.751
33.728
33.705
33.682
33.66
33.638
33.617
33.596
33.576
33.557
33.539
33.523
33.507
33.492
33.477
33.461
33.446
33.43
33.414
33.398
33.381
33.364
33.346
33.327
33.308
33.288
33.267
33.246
33.223
33.2
33.176
33.153
33.128
33.104
33.078
33.052
33.027
33.001
32.977
32.953
32.931
32.91
32.892
32.878
32.869
32.864
32.867
32.877
32.896
32.925
32.965
33.016
