Trial 1:0back
33.351
33.31
33.27
33.23
33.191
33.153
33.117
33.081
33.047
33.012
32.978
32.945
32.912
32.88
32.849
32.817
32.787
32.757
32.728
32.699
32.671
32.643
32.616
32.59
32.564
32.54
32.516
32.493
32.471
32.449
32.428
32.408
32.388
32.369
32.348
32.326
32.303
32.279
32.254
32.228
32.203
32.178
32.153
32.129
32.106
32.086
32.068
32.056
32.051
32.055
32.072
32.104
32.153
32.223
32.315
32.432
32.573
32.738
32.927
33.139
33.37
33.619
33.881
34.153
34.431
34.71
34.987
35.257
35.518
35.767
36.001
36.219
36.418
36.598
36.757
36.895
37.012
37.107
37.182
37.237
37.273
37.292
37.294
37.282
37.256
37.219
37.171
37.115
37.05
36.98
36.904
36.824
36.741
36.658
36.574
36.491
36.409
36.329
36.25
36.173
36.098
36.025
35.953
35.883
35.814
35.747
35.681
35.617
35.555
35.495
35.436
35.378
35.321
35.266
35.211
35.156
35.102
35.047
34.993
34.94
34.887
34.837
34.789
34.744
34.702
34.664
34.631
34.603
34.579
34.56
34.546
34.536
34.53
34.528
34.53
34.535
34.543
34.554
34.568
34.584
34.602
34.621
34.641
34.66
34.678
34.695
34.71
34.722
34.731
34.737
34.741
34.741
34.738
34.733
34.724
34.712
34.698
34.68
34.661
34.639
34.616
34.591
34.565
34.537
34.508
34.479
34.448
34.417
34.384
34.351
34.315
34.279
34.241
34.202
34.162
34.122
34.082
34.042
34.003
33.963
33.923
33.884
33.844
33.805
33.765
33.726
33.687
33.648
33.609
33.57
33.531
33.492
33.452
33.413
33.374
33.336
33.298
33.26
33.224
33.188
33.154
33.121
33.089
33.06
33.031
33.005
32.979
32.955
32.931
32.907
32.883
32.858
32.833
32.807
32.78
32.753
32.726
32.7
32.674
32.648
32.622
32.597
32.572
32.547
32.522
32.497
32.473
32.449
32.426
32.405
32.385
32.367
32.351
32.339
32.331
32.33
32.336
32.353
32.383
32.428
32.491
32.575
32.681
32.81
32.962
33.136
33.331
33.544
33.775
34.018
34.272
34.532
34.796
35.059
35.32
35.574
35.817
36.047
36.261
36.456
36.632
36.787
36.921
37.034
37.125
37.197
37.249
37.283
37.299
37.3
37.287
37.262
37.226
37.181
37.129
37.07
37.006
36.938
36.867
36.793
36.718
36.642
36.565
36.486
36.407
36.327
36.246
36.166
36.085
36.006
35.929
35.855
35.783
35.713
35.647
35.582
35.518
35.454
35.391
35.327
35.264
35.201
35.138
35.077
35.016
34.958
34.902
34.85
34.803
34.759
34.721
34.687
34.658
34.634
34.615
34.601
34.591
34.587
34.588
34.594
34.605
34.62
34.639
34.661
34.685
34.711
34.739
34.767
34.794
34.821
34.847
34.872
34.895
34.916
34.934
34.95
34.962
34.971
34.977
34.979
34.978
34.972
34.963
34.951
34.935
34.916
34.893
34.869
34.841
34.812
34.781
34.748
34.713
34.678
34.642
34.604
34.567
34.528
34.487
34.446
34.404
34.362
34.319
34.277
34.235
34.193
34.153
34.114
34.077
34.04
34.005
33.971
33.937
33.904
33.872
33.839
33.806
33.773
33.739
33.705
33.67
33.634
33.599
33.563
33.527
33.493
33.459
33.426
33.394
33.363
33.332
33.302
33.272
33.242
33.213
33.183
33.154
33.124
33.094
33.063
33.033
33.004
32.975
32.947
32.919
32.892
32.866
32.841
32.816
32.793
32.77
32.749
32.731
32.715
32.705
32.701
32.707
32.725
32.757
32.806
32.874
32.963
33.076
33.211
33.371
33.553
33.756
33.978
34.218
34.471
34.734
35.004
35.276
35.548
35.816
36.077
36.327
36.563
36.785
36.99
37.176
37.342
37.49
37.617
37.726
37.815
37.887
37.941
37.979
38.002
38.01
38.005
37.988
37.959
37.92
37.872
37.817
37.756
37.69
37.62
37.548
37.472
37.394
37.314
37.233
37.152
37.07
36.99
36.911
36.833
36.758
36.684
36.612
36.541
36.473
36.406
36.339
36.274
36.209
36.145
36.08
36.015
35.95
35.885
35.82
35.755
35.691
35.629
35.57
35.514
35.462
35.415
35.372
35.336
35.305
35.281
35.263
35.252
35.247
35.248
35.254
35.265
35.279
35.296
35.315
35.336
35.358
35.38
35.403
35.424
35.444
35.463
35.479
35.494
35.507
35.517
35.525
35.53
35.532
35.531
35.527
35.518
35.507
35.491
35.472
35.451
35.428
35.403
35.376
35.347
35.316
35.283
35.248
35.211
35.172
35.131
35.089
35.047
35.004
34.961
34.918
34.875
34.831
34.788
34.744
34.702
34.659
34.616
34.573
34.529
34.485
34.44
34.395
34.351
34.307
34.263
34.22
34.177
34.134
34.092
34.052
34.012
33.974
33.936
33.9
33.864
33.829
33.794
33.76
33.726
33.694
33.663
33.632
33.603
33.573
33.544
33.515
33.486
33.456
33.426
33.396
33.365
33.334
33.303
33.272
33.241
33.21
33.179
33.148
33.116
33.085
33.054
33.024
32.995
32.967
32.942
32.922
32.907
32.899
32.901
32.916
32.946
32.994
33.064
33.157
33.274
33.418
33.588
33.784
34.005
34.248
34.51
34.789
35.081
35.382
35.688
35.995
36.3
36.599
36.888
37.165
37.428
37.675
37.903
38.113
38.303
38.472
38.621
38.75
38.859
38.949
39.021
39.074
39.112
39.135
39.144
39.141
39.127
39.103
39.071
39.03
38.982
38.928
38.868
38.804
38.737
38.667
38.596
38.523
38.449
38.374
38.299
38.225
38.151
38.078
38.007
37.937
37.868
37.801
37.734
37.669
37.603
37.538
37.473
37.407
37.342
37.276
37.211
37.146
37.082
37.019
36.956
36.895
36.836
36.779
36.725
36.674
36.627
36.585
36.547
36.515
36.488
36.467
36.452
36.441
36.436
36.435
36.439
36.446
36.455
36.467
36.48
36.495
36.51
36.525
36.539
36.552
36.564
36.573
36.581
36.587
36.591
36.592
36.589
36.584
36.574
36.561
36.545
36.525
36.501
36.475
36.446
36.414
36.38
36.344
36.306
36.266
36.226
36.185
36.143
36.1
36.057
36.013
35.969
35.924
35.879
35.833
35.786
35.739
35.691
35.643
35.595
35.547
35.499
35.451
35.403
35.355
35.308
35.261
35.213
35.165
35.116
35.065
35.014
34.961
34.906
34.852
34.797
34.743
34.689
34.636
34.585
34.536
34.49
34.446
34.405
34.366
34.33
34.296
34.263
34.23
34.197
34.164
34.13
34.095
34.06
34.024
33.987
33.95
33.913
33.876
33.839
33.803
33.767
33.732
33.698
33.664
33.63
33.596
33.563
33.53
33.498
33.467
33.438
33.412
33.389
33.372
33.364
33.366
33.383
33.416
33.47
33.546
33.647
33.774
33.928
34.11
34.317
34.55
34.806
35.081
35.372
35.674
35.984
36.297
36.608
36.915
37.213
37.499
37.77
38.024
38.26
38.476
38.671
38.845
38.999
39.133
39.247
39.342
39.419
39.477
39.519
39.546
39.558
39.557
39.544
39.521
39.487
39.445
39.394
39.336
39.272
39.204
39.131
39.055
38.976
38.895
38.813
38.73
38.646
38.563
38.48
38.398
38.317
38.238
38.161
38.084
38.008
37.932
37.856
37.779
37.702
37.625
37.548
37.47
37.393
37.316
37.24
37.166
37.094
37.025
36.958
36.895
36.835
36.78
36.729
36.684
36.644
36.609
36.58
36.556
36.536
36.52
36.509
36.502
36.499
36.499
36.503
36.508
36.516
36.525
36.536
36.546
36.556
36.565
36.571
36.576
36.577
36.574
36.567
36.556
36.542
36.523
36.501
36.475
36.446
36.414
36.378
36.34
36.3
36.258
36.214
36.168
36.12
36.071
36.02
35.968
35.915
35.861
35.806
35.75
35.693
35.636
35.579
35.522
35.465
35.409
35.353
35.297
35.242
35.187
35.132
35.079
35.025
34.973
34.92
34.867
34.814
34.76
34.705
34.65
34.595
34.54
34.486
34.433
34.381
34.33
34.281
34.232
34.185
34.139
34.095
34.052
34.01
33.967
33.925
33.882
33.838
33.793
33.746
33.698
33.65
33.601
33.551
33.501
33.451
33.401
33.352
33.303
33.256
33.211
33.169
33.131
33.1
33.075
33.061
33.059
33.073
33.104
33.155
33.229
33.326
33.448
33.595
33.767
33.964
34.182
34.421
34.677
34.947
35.226
35.511
35.798
36.084
36.365
36.638
36.9
37.148
37.381
37.596
37.792
37.967
38.121
38.253
38.365
38.456
38.528
38.581
38.617
38.636
38.639
38.627
38.602
38.565
38.516
38.459
38.393
38.322
38.244
38.163
38.078
37.991
37.902
37.812
37.72
37.628
37.536
37.443
37.349
37.256
37.162
37.069
36.977
36.884
36.792
36.699
36.605
36.511
36.417
36.324
36.231
36.141
36.052
35.966
35.883
35.804
35.73
35.66
35.597
35.539
35.489
35.444
35.406
35.373
35.346
35.325
35.308
35.296
35.29
35.288
35.29
35.295
35.304
35.315
35.329
35.344
35.36
35.377
35.394
35.412
35.428
35.444
35.457
35.469
35.477
35.482
35.483
35.48
35.472
35.459
35.441
35.419
35.392
35.362
35.329
35.294
35.257
35.218
35.177
35.136
35.093
35.048
35.002
34.954
34.906
34.856
34.805
34.754
34.702
34.649
34.596
34.543
34.49
34.436
34.383
34.331
34.278
34.225
34.172
34.119
34.066
34.014
33.963
33.912
33.863
33.815
33.768
33.722
33.677
33.633
33.589
33.546
33.505
33.464
33.424
33.385
33.347
33.307
33.268
33.227
33.186
33.145
33.102
33.06
33.017
32.974
32.932
32.892
32.853
32.818
32.787
32.763
32.747
32.741
32.75
32.775
32.819
32.886
32.976
33.092
33.234
33.403
33.596
33.813
34.051
34.306
34.574
34.853
35.137
35.424
35.709
35.989
36.262
36.525
36.774
37.007
37.223
37.419
37.595
37.75
37.883
37.996
38.087
38.158
38.21
38.245
38.263
38.266
38.254
38.229
38.192
38.145
38.089
38.025
37.955
37.878
37.797
37.712
37.623
37.533
37.442
37.35
37.257
37.165
37.074
36.983
36.894
36.805
36.717
36.63
36.544
36.458
36.372
36.286
36.199
36.111
36.022
35.933
35.845
35.757
35.67
35.585
35.504
35.426
35.352
35.284
35.222
35.167
35.119
35.079
35.046
35.019
35.0
34.986
34.979
34.976
34.979
34.984
34.993
35.004
35.016
35.03
35.044
35.058
35.072
35.084
35.096
35.106
35.114
35.121
35.125
35.127
35.127
35.124
35.119
35.112
35.103
35.091
35.076
35.059
35.038
35.014
34.988
34.958
34.926
34.891
34.855
34.817
34.776
34.735
34.691
34.646
34.599
34.551
34.501
34.451
34.4
34.348
34.295
34.243
34.192
34.141
34.092
34.044
33.997
33.952
33.908
33.864
33.821
33.779
33.738
33.698
33.658
33.619
33.579
33.54
33.5
33.459
33.417
33.375
33.331
33.287
33.242
33.197
33.152
33.107
33.061
33.014
32.968
32.921
32.874
32.827
32.781
32.735
32.691
32.649
32.609
32.573
32.541
32.515
32.499
32.494
32.504
32.532
32.581
32.654
32.753
32.88
33.034
33.216
33.423
33.655
33.909
34.181
34.468
34.765
35.068
35.374
35.676
35.973
36.258
36.53
36.785
37.022
37.238
37.433
37.606
37.757
37.886
37.993
38.079
38.144
38.189
38.217
38.228
38.224
38.206
38.175
38.134
38.082
38.022
37.955
37.882
37.803
37.721
37.636
37.549
37.46
37.371
37.28
37.189
37.097
37.006
36.915
36.826
36.738
36.653
36.57
36.49
36.412
36.336
36.263
36.191
36.12
36.051
35.982
35.914
35.846
35.777
35.709
35.642
35.575
35.509
35.445
35.383
35.323
35.266
35.214
35.165
35.122
35.083
35.05
35.022
34.998
34.979
34.964
34.952
34.944
34.94
34.938
34.94
34.943
34.948
34.954
34.962
34.97
34.978
34.986
34.994
34.999
35.003
35.003
35.001
34.996
34.987
34.974
34.958
34.938
34.914
34.887
34.856
34.822
34.784
34.743
34.701
34.656
34.61
34.564
34.517
34.47
34.422
34.374
34.326
34.278
34.231
34.183
34.137
34.09
34.042
33.995
33.946
33.897
33.847
33.797
33.747
33.697
33.647
33.598
33.55
33.502
33.455
33.407
33.36
33.313
33.267
33.221
33.175
33.13
33.086
33.042
32.999
32.956
32.914
32.872
32.832
32.791
32.751
32.712
32.673
32.634
32.596
32.559
32.525
32.494
32.467
32.446
32.435
32.436
32.453
32.488
32.545
32.625
32.731
32.864
33.024
33.21
33.419
33.65
33.899
34.163
34.437
34.718
35.002
35.285
35.562
35.829
36.084
36.322
36.542
36.741
36.918
37.073
37.204
37.312
37.398
37.463
37.507
37.533
37.541
37.535
37.513
37.48
37.434
37.379
37.316
37.245
37.168
37.087
37.001
36.911
36.819
36.725
36.629
36.532
36.436
36.34
36.245
36.151
36.06
35.971
35.885
35.802
35.721
35.642
35.565
35.49
35.416
35.344
35.274
35.204
35.134
35.065
34.995
34.927
34.859
34.792
34.727
34.665
34.604
34.546
34.49
34.437
34.389
34.344
34.304
34.269
34.239
34.215
34.196
34.183
34.174
34.171
34.173
34.179
34.189
34.202
34.216
34.231
34.247
34.262
34.276
34.29
34.303
34.315
34.327
34.337
34.345
34.351
34.353
34.352
34.345
34.334
34.318
34.298
34.272
34.243
34.21
34.173
34.133
34.091
34.047
34.002
33.957
33.912
33.867
33.823
33.78
33.737
33.696
33.654
33.614
33.574
33.535
33.496
33.457
33.419
33.38
33.34
33.3
33.26
33.218
33.175
33.132
33.088
33.045
33.002
32.96
32.92
32.882
32.845
32.809
32.775
32.742
32.709
32.677
32.644
32.612
32.578
32.545
32.511
32.477
32.443
32.409
32.376
32.342
32.309
32.277
32.246
32.217
32.19
32.165
32.143
32.124
32.109
32.098
32.093
32.096
32.108
32.133
32.174
32.233
32.313
32.415
32.541
32.691
32.865
33.061
33.277
33.51
33.758
34.014
34.276
34.54
34.8
35.054
35.298
35.528
35.742
35.938
36.114
36.268
36.399
36.508
36.593
36.656
36.697
36.717
36.719
36.704
36.673
36.629
36.573
36.508
36.434
36.354
36.269
36.18
36.088
35.996
35.902
35.809
35.716
35.623
35.533
35.444
35.357
35.272
35.19
35.109
35.03
34.952
34.875
34.799
34.724
34.651
34.579
34.508
34.439
34.37
34.303
34.237
34.173
34.111
34.052
33.997
33.945
33.897
33.853
33.813
33.778
33.747
33.719
33.697
33.679
33.665
33.657
33.653
33.654
33.66
33.67
33.684
33.702
33.723
33.745
33.769
33.794
33.818
33.843
33.867
33.889
33.91
33.93
33.947
33.961
33.972
33.979
33.982
33.981
33.975
33.966
33.952
33.936
33.916
33.893
33.869
33.842
33.815
33.786
33.757
33.727
33.697
33.665
33.633
33.6
33.566
33.531
33.497
33.462
33.428
33.395
33.364
33.333
33.304
33.275
33.247
33.219
33.192
33.165
33.137
33.109
33.081
33.052
33.023
32.994
32.965
32.936
32.907
32.878
32.848
32.819
32.789
32.76
32.731
32.702
32.674
32.646
32.62
32.594
32.569
32.544
32.52
32.496
32.472
32.449
32.426
32.403
32.381
32.36
32.342
32.328
32.321
32.322
32.335
32.363
32.407
32.471
32.556
32.664
32.794
32.947
33.122
33.316
33.529
33.756
33.994
34.239
34.488
34.735
34.977
35.209
35.429
35.634
35.82
35.988
36.135
36.26
36.364
36.447
36.509
36.551
36.574
36.58
36.571
36.547
36.511
36.464
36.408
36.344
36.273
36.196
36.116
36.033
35.949
35.863
35.778
35.693
35.609
35.526
35.445
35.366
35.288
35.212
35.137
35.065
34.994
34.926
34.859
34.793
34.73
34.667
34.605
34.543
34.483
34.424
34.366
34.31
34.256
34.204
34.154
34.108
34.065
34.026
33.989
33.956
33.927
33.9
33.877
33.856
33.839
33.825
33.815
33.809
33.807
33.808
33.814
33.822
33.833
33.847
33.862
33.879
33.896
33.914
33.932
33.951
33.97
33.988
34.005
34.02
34.035
34.047
34.058
34.066
34.072
34.075
34.075
34.071
34.064
34.052
34.037
34.018
33.997
33.973
33.948
33.921
33.892
33.861
33.83
33.798
33.765
33.733
33.701
33.669
33.637
33.605
33.574
33.543
33.513
33.483
33.455
33.427
33.399
33.373
33.347
33.321
33.296
33.272
33.248
33.224
33.2
33.176
33.152
33.128
33.103
33.078
33.051
33.025
32.998
32.972
32.946
32.921
32.896
32.872
32.848
32.823
32.799
32.775
32.752
32.729
32.707
32.685
32.663
32.643
32.624
32.606
32.591
32.579
32.571
32.568
32.573
32.588
32.615
32.656
32.715
32.794
32.893
33.013
33.156
33.319
33.503
33.705
33.922
34.152
34.39
34.633
34.877
35.116
35.349
35.57
35.779
35.971
36.146
36.302
36.438
36.553
36.647
36.721
36.774
36.808
36.823
36.821
36.802
36.77
36.726
36.671
36.609
36.539
36.464
36.384
36.302
36.217
36.131
36.045
35.96
35.875
35.791
35.709
35.629
35.55
35.474
35.4
35.329
35.26
35.195
35.133
35.073
35.016
34.962
34.91
34.86
34.813
34.769
34.725
34.683
34.643
34.603
34.564
34.526
34.489
34.453
34.419
34.387
34.357
34.33
34.305
34.282
34.262
34.245
34.231
34.22
34.212
34.206
34.203
34.203
34.204
34.208
34.214
34.222
34.231
34.242
34.254
34.267
34.28
34.295
34.309
34.323
34.337
34.35
34.362
34.372
34.381
34.387
34.392
34.393
34.393
34.39
34.385
34.376
34.365
34.351
34.333
34.313
34.29
34.265
34.238
34.211
34.184
34.157
34.129
34.101
34.073
34.044
34.016
33.988
33.959
33.931
33.903
33.875
33.847
33.819
33.791
33.763
33.735
33.706
33.677
33.647
33.616
33.585
33.554
33.523
33.493
33.463
33.434
33.406
33.379
33.353
33.329
33.307
33.287
33.268
33.251
33.234
33.217
33.2
33.183
33.165
33.147
33.129
33.111
33.092
33.074
33.056
33.038
33.022
33.006
32.993
32.982
32.975
32.974
32.98
32.996
33.023
33.065
33.123
33.199
33.295
33.412
33.549
33.707
33.885
34.079
34.289
34.51
34.739
34.972
35.206
35.436
35.659
35.872
36.071
36.253
36.417
36.562
36.687
36.791
36.876
36.941
36.988
37.017
37.031
37.029
37.013
36.985
36.946
36.897
36.84
36.776
36.705
36.63
36.55
36.468
36.383
36.296
36.208
36.12
36.032
35.946
35.861
35.779
35.7
35.624
35.552
35.484
35.42
35.362
35.307
35.257
35.211
35.167
35.127
35.088
35.051
35.014
34.977
34.941
34.904
34.867
34.829
34.79
34.751
34.713
34.676
34.64
34.608
34.58
34.555
34.534
34.518
34.507
34.499
34.495
34.494
34.496
34.501
34.509
34.519
34.532
34.547
34.565
34.585
34.607
34.63
34.655
34.68
34.705
34.729
34.75
34.77
34.786
34.799
34.807
34.812
34.813
34.81
34.803
34.794
34.782
34.767
34.749
34.729
34.708
34.686
34.662
34.638
34.612
34.584
34.556
34.527
34.497
34.467
34.436
34.406
34.376
34.346
34.316
34.286
34.255
34.224
34.194
34.163
34.133
34.105
34.076
34.049
34.022
33.996
33.97
33.945
33.92
33.895
33.871
33.848
33.824
33.801
33.779
33.757
33.735
33.714
33.694
33.675
33.656
33.638
33.621
33.604
33.587
33.57
33.553
33.537
33.52
33.504
33.487
33.471
33.455
33.44
33.424
33.409
33.394
33.38
33.367
33.354
33.343
33.335
33.329
33.328
33.332
33.344
33.365
33.399
33.448
33.514
33.6
33.705
33.833
33.981
34.149
34.336
34.538
34.754
34.978
35.208
35.44
35.671
35.896
36.112
36.317
36.508
36.682
36.836
36.97
37.083
37.174
37.244
37.293
37.323
37.336
37.334
37.318
37.29
37.251
37.202
37.145
37.081
37.011
36.935
36.854
36.769
36.682
36.593
36.504
36.415
36.327
36.239
36.154
36.07
35.989
35.911
35.836
35.764
35.695
35.63
35.568
35.509
35.452
35.398
35.346
35.295
35.245
35.197
35.149
35.103
35.058
35.015
34.973
34.933
34.896
34.862
34.831
34.804
34.78
34.762
34.749
34.741
34.738
34.741
34.75
34.763
34.781
34.803
34.829
34.857
34.888
34.921
34.954
34.988
35.022
35.055
35.086
35.116
35.142
35.165
35.184
35.199
35.211
35.218
35.222
35.222
35.219
35.213
35.203
35.192
35.178
35.162
35.145
35.126
35.105
35.083
35.06
35.036
35.011
34.985
34.957
34.929
34.899
34.869
34.837
34.805
34.772
34.738
34.703
34.669
34.635
34.603
34.571
34.541
34.512
34.484
34.457
34.432
34.408
34.385
34.363
34.342
34.32
34.299
34.277
34.255
34.233
34.212
34.19
34.168
34.146
34.124
34.103
34.082
34.061
34.041
34.021
34.001
33.981
33.962
33.942
33.923
33.903
33.883
33.863
33.842
33.822
33.801
33.781
33.761
33.742
33.725
33.712
33.701
33.697
33.699
33.71
33.732
33.767
33.818
33.885
33.97
34.076
34.201
34.347
34.511
34.694
34.892
35.103
35.324
35.549
35.777
36.002
36.221
36.431
36.63
36.814
36.983
37.133
37.264
37.376
37.467
37.539
37.591
37.625
37.642
37.642
37.629
37.602
37.564
37.516
37.459
37.393
37.322
37.245
37.165
37.083
36.999
36.915
36.83
36.746
36.661
36.578
36.495
36.414
36.334
36.256
36.181
36.107
36.036
35.968
35.902
35.838
35.776
35.717
35.659
35.604
35.55
35.499
35.449
35.401
35.356
35.312
35.271
35.232
35.197
35.164
35.135
35.109
35.087
35.069
