Trial 1:0back
30.845
30.831
30.817
30.804
30.792
30.781
30.772
30.765
30.759
30.754
30.749
30.745
30.74
30.733
30.725
30.715
30.703
30.688
30.67
30.649
30.625
30.599
30.571
30.542
30.513
30.487
30.464
30.447
30.435
30.432
30.439
30.458
30.491
30.542
30.616
30.717
30.851
31.024
31.243
31.516
31.851
32.255
32.733
33.288
33.918
34.618
35.38
36.191
37.039
37.907
38.78
39.642
40.477
41.269
42.008
42.681
43.282
43.804
44.246
44.606
44.887
45.092
45.226
45.297
45.311
45.275
45.198
45.087
44.948
44.788
44.613
44.427
44.235
44.038
43.842
43.646
43.455
43.269
43.09
42.917
42.752
42.595
42.445
42.302
42.166
42.036
41.912
41.792
41.677
41.564
41.454
41.343
41.233
41.12
41.005
40.886
40.761
40.629
40.491
40.345
40.193
40.034
39.87
39.701
39.528
39.351
39.172
38.992
38.813
38.634
38.458
38.286
38.119
37.96
37.811
37.673
37.549
37.44
37.344
37.263
37.194
37.137
37.09
37.051
37.021
36.995
36.972
36.951
36.928
36.904
36.877
36.847
36.814
36.777
36.736
36.689
36.637
36.579
36.514
36.444
36.369
36.289
36.205
36.117
36.028
35.936
35.844
35.75
35.656
35.558
35.454
35.342
35.223
35.098
34.969
34.838
34.706
34.576
34.447
34.322
34.201
34.085
33.975
33.87
33.771
33.677
33.587
33.499
33.412
33.326
33.239
33.152
33.066
32.979
32.893
32.807
32.723
32.639
32.557
32.475
32.395
32.317
32.24
32.164
32.091
32.02
31.952
31.885
31.821
31.758
31.697
31.638
31.579
31.52
31.463
31.406
31.351
31.299
31.248
31.201
31.157
31.116
31.077
31.041
31.008
30.977
30.947
30.919
30.893
30.869
30.846
30.826
30.806
30.788
30.769
30.751
30.732
30.713
30.694
30.674
30.654
30.634
30.613
30.59
30.567
30.545
30.525
30.507
30.492
30.478
30.466
30.456
30.447
30.44
30.434
30.428
30.422
30.416
30.41
30.403
30.394
30.383
30.369
30.353
30.335
30.315
30.295
30.273
30.252
30.233
30.216
30.204
30.198
30.202
30.218
30.252
30.309
30.396
30.519
30.688
30.909
31.194
31.549
31.982
32.496
33.091
33.763
34.504
35.304
36.149
37.022
37.907
38.786
39.643
40.463
41.232
41.939
42.574
43.133
43.611
44.007
44.323
44.562
44.73
44.832
44.875
44.868
44.818
44.733
44.621
44.486
44.334
44.17
43.996
43.815
43.629
43.442
43.252
43.063
42.873
42.684
42.498
42.316
42.14
41.97
41.808
41.655
41.512
41.378
41.255
41.141
41.034
40.933
40.835
40.738
40.639
40.538
40.431
40.317
40.195
40.064
39.924
39.774
39.615
39.447
39.274
39.097
38.917
38.737
38.558
38.38
38.204
38.034
37.87
37.713
37.565
37.427
37.301
37.186
37.084
36.994
36.917
36.85
36.792
36.743
36.699
36.659
36.622
36.586
36.551
36.516
36.48
36.443
36.404
36.364
36.321
36.276
36.228
36.177
36.12
36.058
35.989
35.915
35.834
35.749
35.659
35.565
35.468
35.367
35.264
35.158
35.051
34.943
34.834
34.724
34.614
34.502
34.39
34.278
34.168
34.061
33.96
33.864
33.773
33.684
33.595
33.505
33.411
33.312
33.21
33.104
32.995
32.882
32.768
32.654
32.54
32.428
32.319
32.213
32.112
32.017
31.929
31.85
31.778
31.713
31.653
31.598
31.544
31.493
31.441
31.389
31.337
31.284
31.231
31.178
31.124
31.072
31.019
30.969
30.92
30.874
30.83
30.788
30.747
30.709
30.671
30.635
30.599
30.564
30.531
30.5
30.471
30.444
30.419
30.394
30.37
30.347
30.324
30.303
30.283
30.265
30.251
30.239
30.23
30.223
30.216
30.211
30.206
30.202
30.199
30.196
30.193
30.19
30.187
30.183
30.178
30.173
30.165
30.155
30.144
30.13
30.116
30.101
30.087
30.073
30.061
30.05
30.04
30.03
30.02
30.008
29.994
29.98
29.965
29.951
29.938
29.927
29.921
29.922
29.933
29.961
30.009
30.084
30.193
30.343
30.544
30.805
31.134
31.538
32.023
32.59
33.236
33.955
34.735
35.563
36.423
37.299
38.173
39.027
39.847
40.618
41.327
41.966
42.53
43.013
43.416
43.738
43.983
44.154
44.256
44.297
44.281
44.217
44.111
43.971
43.804
43.615
43.41
43.195
42.974
42.751
42.529
42.31
42.098
41.893
41.697
41.508
41.327
41.155
40.991
40.837
40.695
40.563
40.439
40.322
40.209
40.098
39.987
39.875
39.76
39.641
39.518
39.39
39.257
39.118
38.974
38.824
38.669
38.509
38.345
38.178
38.01
37.842
37.678
37.518
37.366
37.223
37.091
36.971
36.862
36.767
36.684
36.613
36.554
36.507
36.469
36.441
36.42
36.406
36.398
36.394
36.392
36.393
36.392
36.389
36.381
36.368
36.349
36.325
36.294
36.257
36.213
36.163
36.107
36.044
35.977
35.904
35.828
35.748
35.663
35.574
35.479
35.381
35.279
35.174
35.069
34.964
34.858
34.753
34.647
34.54
34.433
34.324
34.216
34.109
34.002
33.896
33.792
33.689
33.588
33.488
33.387
33.285
33.182
33.077
32.971
32.866
32.762
32.662
32.566
32.475
32.39
32.309
32.233
32.16
32.09
32.022
31.956
31.891
31.829
31.769
31.71
31.653
31.597
31.54
31.484
31.427
31.371
31.315
31.26
31.206
31.155
31.106
31.06
31.016
30.975
30.938
30.905
30.875
30.85
30.829
30.811
30.796
30.783
30.772
30.761
30.749
30.738
30.725
30.712
30.699
30.685
30.671
30.657
30.643
30.627
30.61
30.593
30.575
30.558
30.54
30.524
30.508
30.492
30.477
30.463
30.448
30.434
30.42
30.406
30.394
30.384
30.374
30.364
30.354
30.343
30.332
30.32
30.308
30.296
30.285
30.276
30.269
30.267
30.27
30.283
30.309
30.352
30.418
30.513
30.645
30.821
31.052
31.345
31.71
32.15
32.668
33.262
33.927
34.654
35.433
36.248
37.083
37.923
38.751
39.55
40.308
41.013
41.653
42.222
42.716
43.133
43.471
43.734
43.925
44.049
44.111
44.118
44.076
43.992
43.873
43.723
43.55
43.358
43.151
42.936
42.715
42.491
42.269
42.049
41.834
41.625
41.425
41.233
41.051
40.878
40.716
40.562
40.417
40.279
40.146
40.018
39.893
39.768
39.643
39.516
39.386
39.251
39.11
38.964
38.814
38.659
38.499
38.337
38.172
38.006
37.838
37.671
37.505
37.342
37.183
37.029
36.881
36.741
36.612
36.495
36.389
36.297
36.218
36.152
36.098
36.055
36.021
35.994
35.973
35.957
35.945
35.938
35.935
35.936
35.94
35.946
35.952
35.956
35.957
35.953
35.942
35.924
35.898
35.864
35.822
35.772
35.714
35.65
35.579
35.503
35.423
35.339
35.25
35.156
35.058
34.955
34.849
34.74
34.63
34.519
34.408
34.298
34.189
34.079
33.968
33.857
33.745
33.634
33.524
33.415
33.308
33.204
33.102
33.003
32.908
32.814
32.723
32.634
32.547
32.462
32.38
32.301
32.226
32.154
32.085
32.016
31.948
31.88
31.81
31.739
31.667
31.595
31.523
31.453
31.386
31.322
31.261
31.204
31.15
31.102
31.058
31.02
30.987
30.959
30.936
30.916
30.9
30.885
30.872
30.857
30.841
30.823
30.803
30.782
30.759
30.735
30.71
30.685
30.66
30.635
30.609
30.584
30.559
30.535
30.511
30.487
30.464
30.443
30.423
30.405
30.39
30.378
30.368
30.361
30.357
30.355
30.355
30.357
30.36
30.362
30.365
30.367
30.368
30.368
30.368
30.365
30.361
30.355
30.346
30.333
30.318
30.301
30.28
30.258
30.236
30.214
30.191
30.169
30.149
30.131
30.12
30.117
30.128
30.157
30.207
30.286
30.399
30.553
30.757
31.02
31.351
31.757
32.244
32.813
33.462
34.184
34.969
35.804
36.672
37.558
38.442
39.307
40.138
40.919
41.637
42.284
42.852
43.338
43.741
44.062
44.304
44.473
44.575
44.617
44.609
44.557
44.469
44.353
44.215
44.06
43.893
43.718
43.538
43.357
43.175
42.995
42.818
42.644
42.474
42.306
42.142
41.981
41.824
41.671
41.521
41.376
41.234
41.097
40.963
40.834
40.709
40.589
40.471
40.358
40.246
40.136
40.025
39.91
39.792
39.667
39.536
39.398
39.253
39.101
38.941
38.773
38.599
38.421
38.242
38.065
37.894
37.731
37.579
37.441
37.319
37.214
37.125
37.053
36.997
36.955
36.926
36.908
36.901
36.902
36.91
36.923
36.938
36.955
36.97
36.982
36.988
36.986
36.975
36.954
36.921
36.878
36.825
36.764
36.696
36.623
36.544
36.458
36.368
36.273
36.173
36.07
35.964
35.855
35.744
35.632
35.518
35.405
35.291
35.176
35.062
34.946
34.829
34.71
34.589
34.468
34.348
34.23
34.115
34.004
33.897
33.793
33.692
33.591
33.49
33.39
33.291
33.193
33.098
33.006
32.919
32.836
32.757
32.681
32.608
32.538
32.471
32.406
32.343
32.282
32.223
32.166
32.109
32.052
31.995
31.938
31.879
31.821
31.764
31.708
31.654
31.603
31.555
31.509
31.466
31.427
31.391
31.359
31.33
31.305
31.285
31.269
31.257
31.248
31.241
31.235
31.228
31.221
31.212
31.201
31.189
31.175
31.159
31.142
31.123
31.103
31.083
31.063
31.043
31.024
31.005
30.986
30.968
30.949
30.93
30.911
30.892
30.873
30.854
30.835
30.816
30.797
30.779
30.76
30.741
30.723
30.704
30.686
30.669
30.653
30.642
30.638
30.644
30.665
30.704
30.769
30.866
31.003
31.19
31.438
31.754
32.147
32.617
33.165
33.787
34.473
35.215
35.998
36.809
37.63
38.446
39.24
39.997
40.706
41.356
41.939
42.449
42.884
43.242
43.525
43.736
43.879
43.961
43.987
43.964
43.899
43.799
43.671
43.522
43.357
43.182
43.001
42.817
42.633
42.452
42.274
42.1
41.93
41.763
41.6
41.441
41.285
41.133
40.985
40.841
40.702
40.567
40.437
40.311
40.189
40.071
39.955
39.84
39.725
39.608
39.489
39.367
39.241
39.11
38.974
38.833
38.688
38.538
38.385
38.231
38.076
37.925
37.777
37.636
37.503
37.378
37.262
37.155
37.058
36.971
36.894
36.827
36.77
36.723
36.686
36.659
36.641
36.631
36.629
36.633
36.64
36.648
36.653
36.653
36.645
36.63
36.606
36.573
36.531
36.482
36.426
36.364
36.295
36.221
36.141
36.055
35.964
35.869
35.769
35.666
35.561
35.455
35.348
35.24
35.132
35.024
34.917
34.809
34.701
34.593
34.485
34.377
34.27
34.165
34.062
33.961
33.863
33.767
33.672
33.577
33.482
33.386
33.288
33.189
33.09
32.991
32.895
32.801
32.71
32.623
32.539
32.458
32.379
32.302
32.228
32.157
32.091
32.031
31.975
31.924
31.875
31.826
31.777
31.726
31.675
31.622
31.57
31.52
31.471
31.425
31.38
31.336
31.294
31.254
31.216
31.182
31.152
31.124
31.1
31.078
31.059
31.042
31.026
31.012
30.998
30.985
30.972
30.959
30.946
30.931
30.915
30.897
30.879
30.859
30.84
30.822
30.806
30.792
30.778
30.764
30.749
30.733
30.715
30.697
30.681
30.668
30.661
30.664
30.678
30.708
30.758
30.834
30.945
31.098
31.304
31.571
31.903
32.306
32.779
33.32
33.921
34.574
35.267
35.986
36.717
37.445
38.156
38.836
39.475
40.061
40.587
41.049
41.442
41.766
42.024
42.217
42.351
42.428
42.454
42.436
42.378
42.287
42.17
42.032
41.878
41.713
41.54
41.364
41.186
41.008
40.83
40.654
40.479
40.305
40.133
39.963
39.797
39.636
39.48
39.331
39.188
39.052
38.921
38.796
38.677
38.562
38.45
38.341
38.231
38.121
38.008
37.891
37.77
37.645
37.516
37.383
37.249
37.115
36.982
36.852
36.726
36.603
36.486
36.375
36.272
36.177
36.09
36.013
35.945
35.887
35.839
35.801
35.774
35.756
35.748
35.748
35.753
35.763
35.776
35.788
35.799
35.807
35.814
35.817
35.818
35.815
35.808
35.796
35.779
35.756
35.726
35.688
35.642
35.586
35.522
35.45
35.37
35.286
35.197
35.106
35.013
34.919
34.823
34.725
34.625
34.523
34.42
34.315
34.211
34.108
34.007
33.909
33.812
33.717
33.623
33.527
33.43
33.332
33.233
33.134
33.036
32.94
32.845
32.752
32.66
32.57
32.481
32.395
32.311
32.23
32.151
32.075
32.001
31.93
31.86
31.792
31.725
31.658
31.593
31.53
31.47
31.415
31.362
31.313
31.266
31.22
31.177
31.134
31.094
31.055
31.02
30.988
30.96
30.936
30.915
30.898
30.883
30.869
30.857
30.846
30.837
30.829
30.822
30.814
30.806
30.796
30.784
30.769
30.752
30.732
30.71
30.687
30.662
30.636
30.609
30.583
30.557
30.533
30.51
30.489
30.47
30.452
30.437
30.425
30.416
30.41
30.406
30.407
30.411
30.422
30.442
30.473
30.519
30.586
30.681
30.812
30.99
31.223
31.521
31.888
32.326
32.834
33.407
34.036
34.71
35.418
36.144
36.874
37.592
38.284
38.937
39.541
40.086
40.568
40.981
41.325
41.599
41.806
41.95
42.035
42.067
42.054
42.0
41.914
41.8
41.665
41.513
41.348
41.175
40.996
40.814
40.63
40.447
40.265
40.084
39.907
39.733
39.563
39.396
39.233
39.073
38.917
38.764
38.616
38.471
38.331
38.195
38.063
37.935
37.81
37.687
37.566
37.446
37.325
37.204
37.081
36.956
36.831
36.705
36.581
36.461
36.346
36.238
36.14
36.052
35.974
35.906
35.847
35.797
35.754
35.718
35.688
35.666
35.649
35.639
35.634
35.635
35.642
35.656
35.676
35.699
35.723
35.748
35.769
35.787
35.801
35.808
35.809
35.805
35.794
35.778
35.757
35.73
35.697
35.659
35.614
35.562
35.504
35.439
35.367
35.29
35.208
35.122
35.035
34.946
34.855
34.764
34.671
34.578
34.483
34.387
34.29
34.193
34.096
33.998
33.902
33.808
33.716
33.625
33.535
33.445
33.356
33.267
33.179
33.094
33.012
32.935
32.862
32.793
32.728
32.665
32.605
32.546
32.488
32.432
32.379
32.326
32.275
32.225
32.176
32.126
32.075
32.024
31.973
31.924
31.877
31.834
31.794
31.759
31.727
31.697
31.67
31.644
31.619
31.596
31.575
31.555
31.538
31.525
31.514
31.506
31.499
31.493
31.487
31.481
31.474
31.467
31.459
31.451
31.443
31.436
31.428
31.42
31.41
31.399
31.386
31.371
31.354
31.335
31.315
31.293
31.271
31.248
31.226
31.204
31.183
31.163
31.145
31.131
31.122
31.121
31.132
31.159
31.208
31.284
31.396
31.554
31.765
32.038
32.377
32.785
33.26
33.797
34.388
35.021
35.685
36.366
37.048
37.719
38.364
38.973
39.536
40.047
40.5
40.893
41.222
41.49
41.697
41.847
41.944
41.993
41.998
41.965
41.899
41.805
41.687
41.549
41.394
41.226
41.046
40.859
40.667
40.471
40.274
40.077
39.882
39.69
39.503
39.321
39.145
38.976
38.813
38.657
38.506
38.361
38.221
38.086
37.955
37.826
37.699
37.574
37.451
37.33
37.21
37.092
36.975
36.859
36.744
36.632
36.522
36.415
36.313
36.215
36.125
36.042
35.967
35.902
35.848
35.805
35.773
35.752
35.742
35.741
35.749
35.766
35.789
35.819
35.854
35.892
35.932
35.972
36.012
36.05
36.084
36.114
36.139
36.157
36.169
36.174
36.17
36.156
36.132
36.097
36.053
35.997
35.933
35.86
35.78
35.694
35.605
35.514
35.421
35.328
35.235
35.14
35.044
34.945
34.844
34.743
34.641
34.541
34.443
34.346
34.252
34.159
34.067
33.976
33.885
33.794
33.705
33.617
33.531
33.448
33.367
33.287
33.21
33.134
33.059
32.986
32.915
32.846
32.78
32.716
32.657
32.6
32.546
32.495
32.445
32.396
32.348
32.3
32.253
32.208
32.166
32.126
32.088
32.051
32.014
31.975
31.936
31.895
31.854
31.814
31.775
31.739
31.706
31.677
31.652
31.629
31.609
31.59
31.573
31.557
31.544
31.534
31.526
31.522
31.52
31.52
31.52
31.52
31.519
31.518
31.515
31.512
31.507
31.501
31.494
31.485
31.474
31.46
31.444
31.427
31.409
31.39
31.372
31.355
31.339
31.325
31.313
31.303
31.295
31.29
31.291
31.302
31.327
31.374
31.451
31.567
31.732
31.951
32.232
32.579
32.993
33.475
34.02
34.621
35.269
35.952
36.657
37.37
38.078
38.768
39.427
40.045
40.613
41.124
41.574
41.96
42.279
42.533
42.722
42.851
42.924
42.947
42.925
42.866
42.775
42.659
42.522
42.372
42.212
42.047
41.88
41.713
41.55
41.391
41.236
41.088
40.944
40.805
40.672
40.546
40.425
40.308
40.193
40.079
39.965
39.851
39.735
39.619
39.502
39.384
39.265
39.147
39.028
38.91
38.792
38.674
38.557
38.439
38.32
38.202
38.083
37.965
37.848
37.733
37.622
37.515
37.413
37.317
37.23
37.152
37.083
37.023
36.973
36.932
36.9
36.876
36.86
36.85
36.846
36.847
36.852
36.86
36.869
36.877
36.884
36.889
36.89
36.887
36.879
36.866
36.846
36.82
36.788
36.749
36.704
36.653
36.597
36.535
36.468
36.397
36.321
36.241
36.156
36.066
35.972
35.874
35.772
35.669
35.564
35.458
35.351
35.246
35.142
35.042
34.944
34.848
34.753
34.659
34.564
34.471
34.377
34.285
34.193
34.102
34.013
33.925
33.839
33.754
33.67
33.589
33.509
33.431
33.355
33.283
33.213
33.146
33.083
33.023
32.966
32.911
32.86
32.811
32.764
32.72
32.678
32.637
32.597
32.558
32.52
32.483
32.445
32.408
32.37
32.333
32.295
32.256
32.216
32.176
32.136
32.097
32.058
32.02
31.983
31.947
31.913
31.881
31.851
31.824
31.799
31.776
31.757
31.739
31.724
31.711
31.699
31.688
31.679
31.671
31.664
31.659
31.654
31.648
31.641
31.633
31.622
31.609
31.593
31.576
31.557
31.535
31.511
31.483
31.452
31.417
31.38
31.341
31.302
31.265
31.231
31.204
31.186
31.179
31.188
31.217
31.272
31.359
31.487
31.665
31.901
32.202
32.574
33.019
33.536
34.12
34.762
35.451
36.175
36.918
37.666
38.405
39.119
39.795
40.424
40.995
41.504
41.947
42.322
42.629
42.87
43.05
43.173
43.245
43.272
43.259
43.213
43.138
43.041
42.925
42.796
42.656
42.508
42.355
42.197
42.037
41.875
41.713
41.551
41.389
41.229
41.072
40.919
40.77
40.625
40.485
40.35
40.22
40.097
39.981
39.872
39.768
39.668
39.568
39.468
39.366
39.26
39.151
39.037
38.918
38.794
38.664
38.531
38.397
38.262
38.129
37.999
37.874
37.756
37.644
37.541
37.449
37.366
37.295
37.235
37.186
37.15
37.124
37.11
37.104
37.107
37.116
37.13
37.147
37.164
37.181
37.196
37.205
37.209
37.206
37.195
37.177
37.15
37.117
37.076
37.028
36.974
36.913
36.847
36.775
36.698
36.617
36.533
36.446
36.357
36.267
36.176
36.084
35.992
35.897
35.802
35.704
35.604
35.502
35.399
35.294
35.188
35.082
34.977
34.874
34.772
34.671
34.572
34.474
34.377
34.279
34.183
34.086
33.989
33.894
33.801
33.709
33.621
33.534
33.45
33.367
33.288
33.211
33.136
33.065
32.996
32.931
32.868
32.807
32.749
32.693
32.639
32.586
32.534
32.483
32.433
32.384
32.336
32.289
32.244
32.201
32.16
32.12
32.08
32.041
32.002
31.962
31.923
31.883
31.843
31.804
31.766
31.729
31.694
31.66
31.627
31.595
31.566
31.539
31.515
31.494
31.476
31.462
31.451
31.442
31.434
31.427
31.42
31.412
31.405
31.396
31.386
31.374
31.361
31.345
31.326
31.304
31.281
31.257
31.233
31.21
31.188
31.165
31.144
31.121
31.098
31.074
31.05
31.024
31.0
30.976
30.956
30.937
30.923
30.912
30.907
30.908
30.919
30.943
30.983
31.047
31.141
31.275
31.458
31.698
32.004
32.381
32.832
33.356
33.948
34.6
35.302
36.041
36.803
37.573
38.337
39.079
39.788
40.451
41.061
41.609
42.09
42.502
42.842
43.113
43.316
43.456
43.536
43.561
43.537
43.471
43.368
43.236
43.082
42.911
42.731
42.545
42.356
42.169
41.985
41.806
41.632
41.463
41.299
41.139
40.985
40.834
40.688
40.543
40.401
40.26
40.12
39.981
39.844
39.71
39.578
39.449
39.323
39.2
39.079
38.959
38.838
38.716
38.592
38.466
38.337
38.206
38.075
37.943
37.812
37.684
37.561
37.445
37.339
37.244
37.159
37.086
37.025
36.976
36.94
36.915
36.902
36.899
36.905
36.918
36.936
36.958
36.983
37.009
37.035
37.06
37.081
37.098
37.108
37.11
37.104
37.088
37.064
37.031
36.989
36.94
36.883
36.82
36.752
36.68
36.604
36.525
36.441
36.351
36.257
36.159
36.057
35.954
35.849
35.743
35.638
35.533
35.428
35.323
35.217
35.111
35.004
34.896
34.789
34.681
34.575
34.47
34.367
34.266
34.167
34.07
33.976
33.884
33.794
33.706
33.621
33.538
33.459
33.384
33.312
33.244
33.178
33.116
33.056
32.999
32.944
32.89
32.837
32.784
32.73
32.674
32.619
32.564
32.509
32.454
32.401
32.349
32.299
32.253
32.209
32.169
32.132
32.098
32.067
32.039
32.014
31.992
31.973
31.955
31.938
31.922
31.904
31.885
31.864
31.841
31.818
31.794
31.771
31.748
31.726
31.704
31.682
31.661
31.641
31.622
31.606
31.592
31.582
31.574
