Trial 1:0back
33.78
33.966
34.191
34.456
34.762
35.106
35.482
35.885
36.304
36.732
37.16
37.577
37.973
38.342
38.675
38.967
39.213
39.412
39.561
39.664
39.723
39.742
39.725
39.676
39.599
39.499
39.38
39.246
39.101
38.95
38.794
38.637
38.482
38.329
38.179
38.033
37.893
37.757
37.628
37.506
37.391
37.283
37.185
37.096
37.015
36.941
36.873
36.81
36.752
36.697
36.644
36.59
36.533
36.473
36.408
36.337
36.26
36.177
36.085
35.987
35.884
35.776
35.665
35.553
35.44
35.328
35.218
35.112
35.012
34.92
34.836
34.762
34.7
34.65
34.612
34.588
34.575
34.573
34.581
34.599
34.627
34.663
34.705
34.753
34.804
34.857
34.911
34.963
35.012
35.056
35.093
35.122
35.143
35.153
35.154
35.144
35.124
35.096
35.058
35.013
34.961
34.904
34.843
34.779
34.714
34.647
34.58
34.513
34.447
34.382
34.318
34.255
34.193
34.133
34.075
34.02
33.966
33.915
33.867
33.819
33.774
33.73
33.689
33.648
33.609
33.57
33.533
33.497
33.461
33.427
33.394
33.361
33.33
33.301
33.274
33.252
33.234
33.222
33.214
33.211
33.214
33.221
33.234
33.251
33.27
33.289
33.309
33.328
33.345
33.361
33.374
33.384
33.391
33.395
33.397
33.397
33.394
33.388
33.378
33.365
33.349
33.332
33.314
33.296
33.276
33.256
33.237
33.221
33.207
33.196
33.188
33.183
33.184
33.192
33.211
33.241
33.286
33.347
33.429
33.536
33.673
33.845
34.056
34.307
34.598
34.929
35.293
35.686
36.1
36.528
36.96
37.387
37.801
38.192
38.552
38.875
39.155
39.388
39.572
39.705
39.79
39.829
39.827
39.79
39.722
39.629
39.517
39.39
39.252
39.11
38.966
38.825
38.688
38.558
38.434
38.318
38.21
38.109
38.015
37.927
37.844
37.764
37.686
37.611
37.539
37.468
37.397
37.325
37.251
37.177
37.101
37.024
36.944
36.859
36.771
36.678
36.583
36.486
36.387
36.287
36.185
36.082
35.979
35.877
35.776
35.677
35.58
35.486
35.396
35.313
35.236
35.164
35.099
35.041
34.992
34.952
34.92
34.898
34.883
34.876
34.877
34.884
34.899
34.918
34.941
34.965
34.989
35.011
35.033
35.052
35.069
35.082
35.093
35.1
35.105
35.106
35.103
35.095
35.081
35.061
35.036
35.005
34.967
34.924
34.875
34.821
34.763
34.702
34.636
34.569
34.499
34.427
34.354
34.281
34.208
34.137
34.068
34.001
33.937
33.879
33.825
33.776
33.732
33.691
33.655
33.624
33.596
33.573
33.554
33.537
33.523
33.51
33.5
33.49
33.48
33.471
33.462
33.454
33.446
33.439
33.431
33.422
33.412
33.403
33.394
33.385
33.377
33.369
33.363
33.36
33.359
33.361
33.365
33.373
33.382
33.393
33.404
33.416
33.427
33.438
33.448
33.456
33.462
33.466
33.466
33.463
33.457
33.45
33.442
33.433
33.421
33.409
33.397
33.385
33.376
33.37
33.369
33.375
33.391
33.422
33.472
33.545
33.647
33.781
33.952
34.164
34.418
34.715
35.053
35.426
35.83
36.256
36.696
37.14
37.576
37.994
38.384
38.738
39.05
39.313
39.525
39.686
39.796
39.857
39.872
39.844
39.781
39.686
39.568
39.432
39.284
39.129
38.974
38.821
38.675
38.537
38.408
38.289
38.179
38.081
37.993
37.914
37.843
37.779
37.719
37.664
37.612
37.562
37.514
37.467
37.42
37.371
37.318
37.262
37.199
37.13
37.056
36.975
36.887
36.792
36.69
36.581
36.468
36.35
36.229
36.104
35.977
35.85
35.724
35.601
35.482
35.368
35.26
35.162
35.075
35.002
34.942
34.895
34.862
34.841
34.833
34.837
34.849
34.87
34.896
34.925
34.957
34.989
35.021
35.05
35.075
35.095
35.111
35.121
35.126
35.124
35.116
35.101
35.082
35.057
35.029
34.998
34.963
34.926
34.887
34.847
34.805
34.761
34.713
34.663
34.609
34.553
34.494
34.433
34.37
34.305
34.239
34.171
34.102
34.032
33.962
33.893
33.823
33.755
33.688
33.622
33.557
33.494
33.434
33.377
33.325
33.278
33.235
33.197
33.165
33.139
33.119
33.105
33.097
33.094
33.095
33.1
33.108
33.118
33.131
33.145
33.159
33.174
33.189
33.204
33.221
33.238
33.256
33.272
33.288
33.301
33.313
33.324
33.335
33.344
33.353
33.36
33.367
33.373
33.379
33.385
33.389
33.393
33.397
33.401
33.405
33.409
33.412
33.413
33.415
33.415
33.415
33.412
33.406
33.399
33.391
33.384
33.38
33.381
33.39
33.409
33.442
33.495
33.572
33.68
33.822
34.004
34.228
34.496
34.806
35.155
35.54
35.951
36.383
36.825
37.269
37.702
38.114
38.495
38.839
39.137
39.388
39.587
39.736
39.836
39.89
39.903
39.877
39.819
39.732
39.624
39.499
39.362
39.216
39.067
38.917
38.769
38.626
38.487
38.354
38.228
38.109
37.998
37.895
37.801
37.713
37.63
37.552
37.478
37.408
37.341
37.277
37.217
37.16
37.105
37.053
37.001
36.949
36.895
36.838
36.777
36.709
36.632
36.546
36.45
36.345
36.231
36.111
35.987
35.86
35.735
35.613
35.497
35.388
35.289
35.201
35.126
35.064
35.016
34.981
34.956
34.942
34.938
34.943
34.955
34.975
35.001
35.032
35.067
35.106
35.147
35.189
35.23
35.269
35.303
35.332
35.355
35.37
35.377
35.373
35.359
35.334
35.3
35.256
35.202
35.14
35.072
35.0
34.928
34.857
34.789
34.725
34.665
34.609
34.558
34.511
34.468
34.425
34.381
34.337
34.291
34.243
34.194
34.143
34.089
34.034
33.978
33.921
33.866
33.813
33.762
33.715
33.673
33.638
33.609
33.586
33.569
33.555
33.546
33.541
33.54
33.541
33.544
33.548
33.552
33.556
33.559
33.563
33.567
33.572
33.576
33.581
33.586
33.589
33.592
33.592
33.59
33.586
33.579
33.57
33.559
33.546
33.531
33.514
33.497
33.478
33.459
33.439
33.419
33.398
33.379
33.361
33.345
33.332
33.32
33.311
33.305
33.304
33.31
33.325
33.351
33.391
33.448
33.525
33.626
33.753
33.907
34.093
34.312
34.565
34.85
35.166
35.509
35.871
36.248
36.632
37.014
37.386
37.742
38.073
38.374
38.64
38.868
39.055
39.202
39.308
39.375
39.405
39.401
39.364
39.301
39.214
39.11
38.991
38.86
38.722
38.581
38.438
38.297
38.158
38.024
37.895
37.772
37.657
37.547
37.444
37.347
37.258
37.174
37.094
37.018
36.944
36.874
36.808
36.744
36.681
36.617
36.551
36.482
36.41
36.335
36.254
36.168
36.076
35.977
35.874
35.765
35.652
35.535
35.417
35.299
35.185
35.077
34.975
34.882
34.797
34.723
34.661
34.611
34.574
34.548
34.533
34.526
34.527
34.537
34.556
34.58
34.61
34.644
34.682
34.722
34.764
34.805
34.845
34.881
34.913
34.941
34.964
34.98
34.989
34.988
34.978
34.961
34.935
34.902
34.862
34.815
34.762
34.703
34.641
34.577
34.512
34.445
34.378
34.311
34.245
34.18
34.118
34.058
33.999
33.943
33.89
33.842
33.797
33.755
33.717
33.681
33.65
33.623
33.6
33.579
33.561
33.544
33.528
33.514
33.502
33.491
33.48
33.47
33.458
33.447
33.435
33.421
33.407
33.39
33.371
33.353
33.335
33.318
33.301
33.285
33.271
33.261
33.255
33.251
33.25
33.25
33.252
33.256
33.262
33.269
33.276
33.283
33.289
33.293
33.297
33.298
33.297
33.294
33.288
33.281
33.273
33.265
33.259
33.255
33.256
33.266
33.287
33.322
33.374
33.448
33.547
33.676
33.839
34.039
34.278
34.556
34.872
35.222
35.6
36.002
36.417
36.837
37.252
37.653
38.037
38.402
38.741
39.049
39.318
39.54
39.713
39.833
39.903
39.926
39.904
39.843
39.748
39.624
39.475
39.308
39.129
38.943
38.756
38.57
38.389
38.217
38.057
37.909
37.776
37.656
37.549
37.456
37.373
37.301
37.237
37.179
37.126
37.076
37.028
36.98
36.931
36.879
36.823
36.762
36.695
36.62
36.537
36.445
36.346
36.24
36.128
36.01
35.885
35.756
35.625
35.493
35.363
35.238
35.118
35.006
34.902
34.81
34.731
34.665
34.612
34.572
34.545
34.53
34.528
34.536
34.553
34.577
34.606
34.64
34.678
34.718
34.758
34.796
34.829
34.858
34.882
34.9
34.911
34.915
34.909
34.895
34.872
34.843
34.809
34.769
34.724
34.676
34.627
34.577
34.526
34.475
34.424
34.372
34.321
34.271
34.223
34.176
34.129
34.082
34.036
33.991
33.949
33.908
33.867
33.827
33.786
33.745
33.705
33.665
33.625
33.586
33.548
33.511
33.475
33.439
33.405
33.372
33.342
33.317
33.298
33.283
33.273
33.265
33.261
33.26
33.263
33.269
33.277
33.285
33.293
33.301
33.308
33.314
33.318
33.319
33.316
33.312
33.306
33.3
33.294
33.287
33.28
33.272
33.265
33.258
33.253
33.247
33.242
33.236
33.231
33.226
33.222
33.217
33.213
33.211
33.212
33.218
33.23
33.249
33.277
33.315
33.367
33.436
33.524
33.636
33.774
33.942
34.144
34.382
34.657
34.966
35.308
35.675
36.064
36.465
36.873
37.276
37.666
38.034
38.373
38.677
38.941
39.165
39.345
39.482
39.578
39.632
39.648
39.629
39.581
39.508
39.413
39.301
39.175
39.038
38.897
38.753
38.61
38.469
38.332
38.2
38.074
37.956
37.847
37.747
37.655
37.571
37.494
37.422
37.356
37.294
37.233
37.172
37.111
37.047
36.981
36.91
36.836
36.758
36.675
36.588
36.495
36.397
36.293
36.185
36.072
35.955
35.836
35.716
35.597
35.482
35.37
35.264
35.163
35.069
34.981
34.901
34.828
34.763
34.705
34.654
34.611
34.578
34.554
34.538
34.532
34.535
34.546
34.567
34.596
34.632
34.673
34.715
34.757
34.794
34.825
34.849
34.866
34.876
34.88
34.876
34.866
34.849
34.825
34.793
34.754
34.708
34.657
34.6
34.539
34.473
34.405
34.336
34.266
34.195
34.125
34.056
33.988
33.923
33.862
33.805
33.753
33.706
33.665
33.629
33.598
33.571
33.548
33.529
33.514
33.501
33.488
33.476
33.465
33.453
33.44
33.427
33.413
33.398
33.382
33.367
33.35
33.333
33.315
33.296
33.276
33.258
33.242
33.228
33.216
33.205
33.196
33.189
33.184
33.183
33.184
33.186
33.19
33.196
33.202
33.208
33.215
33.22
33.223
33.223
33.22
33.215
33.207
33.197
33.186
33.175
33.163
33.153
33.143
33.134
33.126
33.119
33.113
33.109
33.106
33.105
33.106
33.111
33.121
33.139
33.167
33.208
33.265
33.341
33.44
33.566
33.722
33.911
34.136
34.398
34.697
35.032
35.399
35.791
36.201
36.622
37.043
37.455
37.851
38.221
38.558
38.855
39.11
39.318
39.481
39.597
39.671
39.704
39.701
39.668
39.607
39.523
39.421
39.304
39.175
39.037
38.893
38.746
38.598
38.453
38.314
38.18
38.054
37.937
37.829
37.73
37.639
37.554
37.476
37.404
37.337
37.273
37.212
37.153
37.092
37.03
36.964
36.893
36.815
36.73
36.636
36.535
36.426
36.311
36.19
36.065
35.935
35.804
35.672
35.542
35.415
35.295
35.182
35.077
34.981
34.895
34.818
34.751
34.694
34.647
34.61
34.583
34.565
34.555
34.552
34.556
34.566
34.58
34.599
34.622
34.647
34.674
34.701
34.728
34.755
34.78
34.802
34.819
34.83
34.834
34.832
34.822
34.805
34.782
34.754
34.721
34.683
34.641
34.594
34.542
34.486
34.426
34.364
34.299
34.233
34.164
34.094
34.023
33.951
33.881
33.814
33.75
33.689
33.633
33.582
33.537
33.498
33.466
33.439
33.416
33.399
33.385
33.376
33.369
33.364
33.361
33.357
33.354
33.35
33.345
33.339
33.331
33.322
33.311
33.298
33.283
33.267
33.249
33.231
33.212
33.193
33.176
33.158
33.138
33.118
33.098
33.08
33.066
33.057
33.052
33.054
33.062
33.077
33.095
33.116
33.139
33.161
33.183
33.203
33.219
33.231
33.238
33.24
33.238
33.233
33.226
33.217
33.207
33.195
33.183
33.17
33.157
33.145
33.134
33.125
33.117
33.111
33.107
33.104
33.105
33.109
33.116
33.128
33.143
33.162
33.188
33.221
33.266
33.323
33.396
33.488
33.603
33.744
33.916
34.122
34.364
34.642
34.956
35.303
35.678
36.076
36.49
36.91
37.328
37.734
38.12
38.478
38.802
39.088
39.331
39.531
39.684
39.792
39.856
39.88
39.866
39.819
39.742
39.639
39.517
39.38
39.231
39.076
38.917
38.757
38.6
38.447
38.3
38.161
38.03
37.91
37.8
37.701
37.611
37.527
37.449
37.376
37.305
37.234
37.163
37.091
37.018
36.944
36.87
36.793
36.715
36.632
36.546
36.454
36.358
36.255
36.147
36.035
35.92
35.803
35.687
35.573
35.462
35.356
35.255
35.162
35.075
34.995
34.923
34.859
34.802
34.753
34.712
34.679
34.653
34.635
34.623
34.618
34.618
34.623
34.631
34.643
34.658
34.675
34.694
34.712
34.73
34.746
34.76
34.771
34.779
34.784
34.785
34.783
34.777
34.768
34.753
34.734
34.711
34.682
34.649
34.613
34.571
34.525
34.473
34.416
34.357
34.295
34.232
34.168
34.104
34.039
33.975
33.911
33.85
33.791
33.735
33.683
33.637
33.597
33.564
33.536
33.512
33.492
33.475
33.46
33.447
33.435
33.425
33.414
33.403
33.392
33.38
33.367
33.354
33.34
33.326
33.312
33.299
33.288
33.279
33.273
33.269
33.268
33.269
33.273
33.281
33.291
33.303
33.318
33.333
33.348
33.363
33.376
33.387
33.396
33.403
33.407
33.408
33.406
33.402
33.395
33.386
33.373
33.357
33.339
33.319
33.299
33.279
33.26
33.245
33.233
33.224
33.219
33.217
33.217
33.218
33.218
33.219
33.22
33.22
33.22
33.219
33.218
33.219
33.222
33.227
33.235
33.244
33.257
33.275
33.302
33.337
33.385
33.447
33.526
33.627
33.755
33.914
34.107
34.337
34.606
34.913
35.256
35.632
36.036
36.461
36.899
37.339
37.771
38.186
38.576
38.933
39.253
39.528
39.754
39.929
40.051
40.122
40.144
40.121
40.06
39.967
39.848
39.71
39.558
39.392
39.216
39.033
38.847
38.66
38.477
38.299
38.131
37.975
37.834
37.707
37.595
37.496
37.408
37.33
37.26
37.197
37.14
37.087
37.036
36.985
36.934
36.88
36.822
36.759
36.691
36.617
36.536
36.448
36.354
36.255
36.151
36.044
35.934
35.823
35.712
35.604
35.499
35.4
35.306
35.218
35.139
35.07
35.012
34.965
34.929
34.903
34.886
34.877
34.876
34.88
34.889
34.902
34.918
34.936
34.957
34.979
35.001
35.022
35.042
35.059
35.075
35.087
35.096
35.099
35.096
35.087
35.071
35.049
35.021
34.987
34.946
34.899
34.847
34.793
34.735
34.673
34.609
34.542
34.475
34.408
34.342
34.277
34.212
34.149
34.09
34.034
33.982
33.935
33.891
33.851
33.815
33.783
33.753
33.725
33.698
33.671
33.645
33.621
33.599
33.578
33.556
33.535
33.514
33.496
33.48
33.467
33.456
33.448
33.443
33.441
33.445
33.452
33.462
33.474
33.487
33.501
33.515
33.528
33.54
33.549
33.556
33.563
33.568
33.571
33.573
33.572
33.57
33.566
33.561
33.555
33.548
33.54
33.53
33.519
33.509
33.498
33.488
33.479
33.469
33.46
33.452
33.445
33.441
33.438
33.437
33.438
33.44
33.442
33.445
33.449
33.451
33.454
33.457
33.459
33.463
33.466
33.471
33.476
33.484
33.495
33.512
33.536
33.571
33.617
33.68
33.76
33.863
33.991
34.149
34.34
34.567
34.831
35.132
35.465
35.827
36.211
36.609
37.012
37.413
37.803
38.174
38.518
38.83
39.105
39.339
39.529
39.672
39.769
39.82
39.829
39.798
39.732
39.635
39.511
39.364
39.2
39.023
38.836
38.644
38.451
38.262
38.079
37.905
37.742
37.593
37.457
37.336
37.23
37.138
37.059
36.991
36.934
36.885
36.841
36.799
36.758
36.714
36.667
36.615
36.557
36.492
36.419
36.338
36.248
36.151
36.048
35.939
35.827
35.713
35.6
35.489
35.38
35.276
35.175
35.079
34.988
34.905
34.83
34.766
34.713
34.672
34.643
34.627
34.622
34.628
34.643
34.666
34.696
34.73
34.767
34.806
34.846
34.885
34.921
34.952
34.979
35.0
35.016
35.025
35.03
35.029
35.025
35.015
35.002
34.985
34.965
34.942
34.917
34.888
34.855
34.817
34.774
34.727
34.678
34.626
34.574
34.522
34.471
34.422
34.375
34.33
34.288
34.247
34.207
34.169
34.132
34.096
34.06
34.025
33.99
33.955
33.921
33.888
33.856
33.824
33.794
33.764
33.735
33.708
33.684
33.663
33.643
33.627
33.613
33.601
33.592
33.584
33.576
33.567
33.557
33.547
33.538
33.529
33.522
33.516
33.513
33.511
33.512
33.514
33.517
33.52
33.526
33.532
33.538
33.544
33.547
33.548
33.545
33.541
33.535
33.528
33.52
33.512
33.506
33.502
33.499
33.498
33.497
33.496
33.495
33.495
33.496
33.497
33.498
33.498
33.495
33.49
33.482
33.473
33.46
33.446
33.429
33.411
33.392
33.374
33.357
33.344
33.336
33.335
33.344
33.368
33.412
33.479
33.571
33.693
33.848
34.039
34.265
34.528
34.824
35.153
35.51
35.89
36.286
36.69
37.093
37.485
37.858
38.202
38.51
38.776
38.997
39.172
39.301
39.386
39.428
39.43
39.396
39.331
39.239
39.124
38.991
38.845
38.689
38.528
38.364
38.2
38.038
37.88
37.728
37.583
37.447
37.319
37.2
37.09
36.988
36.894
36.807
36.726
36.65
36.58
36.513
36.449
36.387
36.326
36.263
36.199
36.131
36.058
35.979
35.894
35.804
35.708
35.609
35.506
35.402
35.297
35.194
35.095
35.001
34.914
34.834
34.762
34.697
34.641
34.593
34.553
34.521
34.499
34.486
34.482
34.488
34.502
34.524
34.552
34.587
34.627
34.671
34.718
34.764
34.808
34.848
34.882
34.909
34.928
34.936
34.935
34.925
34.908
34.884
34.854
34.819
34.781
34.74
34.699
34.657
34.615
34.574
34.532
34.49
34.447
34.404
34.359
34.312
34.265
34.217
34.168
34.12
34.072
34.025
33.978
33.934
33.892
33.855
33.821
33.792
33.765
33.74
33.718
33.698
33.681
33.666
33.652
33.64
33.63
33.622
33.618
33.615
33.615
33.619
33.627
33.638
33.649
33.659
33.666
33.671
33.672
33.672
33.671
33.669
33.664
33.657
33.647
33.635
33.619
33.601
33.58
33.556
33.53
33.504
33.478
33.454
33.431
33.411
33.394
33.38
33.37
33.362
33.357
33.355
33.356
33.361
33.372
33.388
33.413
33.447
33.492
33.55
33.624
33.717
33.832
33.971
34.137
34.333
34.56
34.818
35.108
35.426
35.767
36.127
36.498
36.875
37.249
37.61
37.951
38.265
38.548
38.795
39.002
39.168
39.293
39.377
39.423
39.433
39.41
39.357
39.28
39.183
39.069
38.943
38.808
38.667
38.522
38.376
38.23
38.085
37.942
37.801
37.663
37.53
37.403
37.281
37.167
37.059
36.958
36.862
36.77
36.682
36.598
36.518
36.44
36.365
36.29
36.215
36.139
36.061
35.983
35.902
35.818
35.73
35.637
35.542
35.444
35.343
35.242
35.142
35.046
34.956
34.875
34.801
34.737
34.682
34.637
34.602
34.577
34.561
34.551
34.547
34.549
34.555
34.565
34.581
34.6
34.622
34.646
34.671
34.698
34.727
34.756
34.786
34.815
34.844
34.87
34.892
34.909
34.92
34.923
34.92
34.91
34.892
34.867
34.835
34.796
34.75
34.698
34.64
34.578
34.511
34.44
34.367
34.293
34.219
34.148
34.079
34.014
33.954
33.899
33.85
33.807
33.77
33.738
33.711
33.689
33.671
33.66
33.653
33.651
33.651
33.655
33.661
33.669
33.677
33.683
33.686
33.687
33.684
33.68
33.673
33.664
33.652
33.637
33.621
33.605
33.589
33.574
33.558
33.542
33.525
33.509
33.495
33.483
33.472
33.462
33.454
33.447
33.442
33.44
33.437
33.436
33.437
33.439
33.443
33.449
33.457
33.466
33.478
33.494
33.518
33.55
33.595
33.655
33.733
33.834
33.964
34.127
34.326
34.561
34.833
35.142
35.484
35.855
36.248
36.656
37.069
37.478
37.873
38.246
38.589
38.897
39.163
39.385
39.56
39.686
39.765
39.799
39.791
39.747
39.67
39.565
39.437
39.294
39.139
38.978
38.813
38.648
38.484
38.325
38.172
38.026
37.89
37.762
37.643
37.532
37.428
37.33
37.238
37.152
37.071
36.994
36.921
36.85
36.782
36.714
36.647
36.579
36.509
36.437
36.361
36.282
36.2
36.115
36.026
35.933
35.832
35.719
35.593
35.457
35.315
35.17
35.028
34.893
34.771
34.664
34.575
34.505
34.454
34.421
34.407
34.408
34.424
34.451
34.487
34.53
34.58
34.634
34.692
34.75
34.807
34.862
34.913
34.958
34.998
35.03
35.054
35.069
35.076
35.073
35.062
35.042
35.014
34.979
34.937
34.89
34.838
34.783
34.724
34.663
34.601
34.539
34.479
34.419
34.361
34.304
34.249
34.196
34.145
34.096
34.048
34.003
33.961
33.921
33.882
33.845
33.809
33.773
33.739
33.706
33.674
33.644
33.616
33.589
33.562
33.536
33.511
33.488
33.468
33.45
33.435
33.423
33.413
33.407
33.403
33.402
33.404
33.408
33.414
33.422
33.432
33.444
33.457
33.47
33.484
