Trial 1:0back
35.979
35.963
35.945
35.925
35.903
35.879
35.852
35.824
35.793
35.76
35.726
35.69
35.653
35.615
35.577
35.54
35.503
35.467
35.43
35.392
35.354
35.315
35.275
35.235
35.194
35.153
35.111
35.068
35.023
34.977
34.93
34.881
34.832
34.785
34.738
34.694
34.653
34.614
34.58
34.549
34.521
34.494
34.47
34.446
34.424
34.402
34.38
34.358
34.335
34.313
34.289
34.266
34.242
34.218
34.193
34.169
34.143
34.118
34.091
34.064
34.038
34.014
33.991
33.97
33.952
33.937
33.924
33.911
33.9
33.887
33.874
33.86
33.845
33.83
33.815
33.799
33.783
33.768
33.753
33.738
33.724
33.71
33.697
33.685
33.675
33.668
33.667
33.672
33.685
33.708
33.743
33.79
33.85
33.922
34.007
34.103
34.211
34.33
34.459
34.597
34.743
34.897
35.055
35.218
35.381
35.544
35.703
35.859
36.01
36.155
36.294
36.427
36.55
36.664
36.767
36.859
36.941
37.013
37.076
37.129
37.176
37.216
37.249
37.277
37.299
37.316
37.327
37.333
37.335
37.334
37.329
37.321
37.311
37.298
37.284
37.268
37.251
37.233
37.212
37.19
37.164
37.136
37.106
37.074
37.041
37.006
36.968
36.928
36.884
36.837
36.788
36.737
36.685
36.633
36.581
36.53
36.48
36.429
36.378
36.327
36.275
36.224
36.173
36.125
36.079
36.035
35.995
35.957
35.922
35.889
35.858
35.828
35.801
35.775
35.752
35.732
35.715
35.701
35.689
35.678
35.67
35.662
35.654
35.647
35.64
35.634
35.629
35.625
35.621
35.617
35.613
35.606
35.597
35.585
35.571
35.554
35.535
35.514
35.491
35.466
35.439
35.41
35.377
35.341
35.302
35.261
35.219
35.177
35.135
35.093
35.051
35.011
34.972
34.933
34.895
34.857
34.821
34.786
34.753
34.722
34.693
34.664
34.637
34.611
34.585
34.559
34.533
34.506
34.479
34.452
34.426
34.401
34.378
34.355
34.334
34.314
34.295
34.276
34.258
34.239
34.221
34.201
34.182
34.162
34.144
34.126
34.11
34.094
34.077
34.059
34.039
34.017
33.994
33.968
33.942
33.915
33.89
33.865
33.842
33.822
33.803
33.787
33.774
33.764
33.756
33.751
33.748
33.748
33.75
33.756
33.768
33.786
33.813
33.848
33.892
33.948
34.014
34.09
34.177
34.274
34.38
34.495
34.62
34.754
34.895
35.042
35.192
35.342
35.492
35.638
35.779
35.916
36.047
36.173
36.294
36.409
36.518
36.62
36.715
36.802
36.88
36.949
37.007
37.056
37.094
37.124
37.144
37.156
37.16
37.155
37.143
37.125
37.103
37.079
37.054
37.029
37.006
36.984
36.964
36.944
36.924
36.902
36.878
36.852
36.823
36.791
36.758
36.722
36.683
36.641
36.596
36.548
36.496
36.441
36.385
36.327
36.27
36.214
36.159
36.105
36.053
36.002
35.952
35.903
35.855
35.809
35.766
35.727
35.692
35.663
35.639
35.62
35.606
35.595
35.587
35.583
35.581
35.582
35.585
35.59
35.597
35.604
35.612
35.619
35.622
35.623
35.621
35.617
35.612
35.605
35.595
35.584
35.571
35.557
35.54
35.52
35.495
35.467
35.435
35.399
35.362
35.322
35.283
35.244
35.208
35.174
35.143
35.113
35.084
35.056
35.026
34.996
34.965
34.933
34.899
34.864
34.83
34.795
34.76
34.725
34.69
34.654
34.619
34.584
34.55
34.518
34.488
34.46
34.433
34.408
34.383
34.36
34.336
34.313
34.29
34.266
34.242
34.217
34.191
34.164
34.136
34.108
34.08
34.054
34.03
34.007
33.988
33.97
33.953
33.939
33.926
33.914
33.902
33.892
33.881
33.871
33.86
33.849
33.838
33.826
33.813
33.8
33.787
33.775
33.763
33.752
33.743
33.735
33.73
33.729
33.732
33.742
33.758
33.782
33.815
33.856
33.906
33.966
34.037
34.119
34.214
34.321
34.442
34.575
34.72
34.875
35.038
35.208
35.381
35.555
35.728
35.898
36.064
36.223
36.374
36.517
36.651
36.774
36.886
36.988
37.081
37.163
37.235
37.298
37.352
37.396
37.432
37.461
37.481
37.494
37.501
37.502
37.498
37.49
37.479
37.464
37.447
37.428
37.407
37.385
37.362
37.337
37.311
37.284
37.257
37.228
37.2
37.171
37.141
37.11
37.078
37.045
37.009
36.971
36.93
36.888
36.844
36.797
36.75
36.701
36.651
36.601
36.55
36.5
36.451
36.403
36.357
36.313
36.272
36.232
36.194
36.158
36.123
36.09
36.06
36.032
36.007
35.986
35.966
35.949
35.934
35.92
35.908
35.898
35.889
35.88
35.871
35.861
35.85
35.838
35.824
35.808
35.79
35.77
35.748
35.725
35.701
35.676
35.65
35.623
35.596
35.569
35.543
35.518
35.493
35.469
35.445
35.421
35.397
35.372
35.345
35.317
35.286
35.254
35.22
35.184
35.146
35.106
35.064
35.021
34.977
34.932
34.886
34.841
34.798
34.758
34.722
34.687
34.654
34.623
34.594
34.566
34.54
34.517
34.495
34.475
34.456
34.438
34.418
34.397
34.375
34.351
34.327
34.301
34.274
34.246
34.218
34.19
34.161
34.132
34.103
34.075
34.049
34.024
34.001
33.979
33.958
33.939
33.922
33.907
33.893
33.882
33.872
33.864
33.857
33.849
33.841
33.833
33.824
33.815
33.807
33.8
33.796
33.795
33.796
33.8
33.806
33.815
33.828
33.843
33.863
33.886
33.912
33.943
33.979
34.021
34.072
34.132
34.203
34.283
34.374
34.473
34.582
34.699
34.824
34.96
35.105
35.26
35.424
35.596
35.773
35.953
36.132
36.31
36.483
36.651
36.812
36.965
37.108
37.24
37.36
37.466
37.557
37.632
37.692
37.737
37.771
37.793
37.808
37.816
37.818
37.816
37.808
37.794
37.776
37.754
37.729
37.702
37.674
37.646
37.618
37.591
37.563
37.534
37.505
37.476
37.447
37.423
37.407
37.395
37.388
37.381
37.372
37.358
37.337
37.309
37.273
37.228
37.177
37.119
37.058
36.995
36.93
36.866
36.802
36.741
36.683
36.629
36.579
36.536
36.499
36.469
36.444
36.426
36.413
36.403
36.394
36.385
36.375
36.363
36.349
36.334
36.316
36.297
36.277
36.255
36.232
36.207
36.18
36.15
36.12
36.089
36.058
36.027
35.997
35.967
35.938
35.908
35.878
35.848
35.817
35.786
35.755
35.724
35.693
35.661
35.63
35.597
35.563
35.528
35.491
35.454
35.415
35.376
35.334
35.292
35.248
35.204
35.159
35.114
35.069
35.025
34.983
34.943
34.906
34.873
34.844
34.817
34.792
34.768
34.743
34.716
34.687
34.655
34.619
34.581
34.541
34.498
34.455
34.412
34.37
34.33
34.291
34.254
34.219
34.187
34.157
34.129
34.103
34.081
34.061
34.043
34.027
34.011
33.997
33.984
33.972
33.96
33.948
33.936
33.923
33.909
33.894
33.879
33.864
33.849
33.834
33.821
33.807
33.794
33.781
33.768
33.755
33.741
33.728
33.715
33.702
33.689
33.676
33.664
33.652
33.64
33.626
33.613
33.601
33.589
33.577
33.568
33.561
33.559
33.563
33.575
33.595
33.626
33.667
33.721
33.789
33.869
33.962
34.068
34.186
34.316
34.459
34.613
34.777
34.949
35.128
35.312
35.498
35.684
35.868
36.051
36.229
36.402
36.569
36.727
36.876
37.013
37.139
37.253
37.354
37.443
37.521
37.588
37.646
37.695
37.737
37.772
37.8
37.821
37.835
37.844
37.846
37.845
37.84
37.833
37.824
37.812
37.799
37.783
37.765
37.745
37.723
37.701
37.679
37.656
37.632
37.608
37.581
37.552
37.52
37.485
37.447
37.404
37.358
37.308
37.255
37.199
37.14
37.079
37.015
36.948
36.879
36.81
36.742
36.675
36.613
36.555
36.501
36.452
36.406
36.362
36.32
36.281
36.244
36.21
36.179
36.151
36.127
36.104
36.084
36.065
36.046
36.026
36.007
35.987
35.967
35.947
35.926
35.906
35.885
35.864
35.841
35.818
35.794
35.77
35.745
35.721
35.698
35.675
35.652
35.629
35.604
35.577
35.548
35.516
35.483
35.447
35.41
35.372
35.333
35.294
35.254
35.215
35.175
35.135
35.093
35.051
35.007
34.962
34.918
34.873
34.829
34.787
34.746
34.708
34.671
34.634
34.597
34.558
34.518
34.477
34.435
34.394
34.355
34.318
34.284
34.253
34.224
34.198
34.174
34.151
34.128
34.106
34.084
34.063
34.042
34.022
34.003
33.986
33.971
33.956
33.943
33.927
33.908
33.885
33.861
33.836
33.81
33.787
33.766
33.747
33.732
33.718
33.705
33.693
33.681
33.67
33.66
33.65
33.641
33.632
33.623
33.615
33.607
33.599
33.592
33.584
33.575
33.564
33.55
33.535
33.518
33.501
33.484
33.469
33.456
33.446
33.442
33.445
33.454
33.472
33.5
33.539
33.59
33.653
33.73
33.819
33.921
34.036
34.163
34.301
34.449
34.607
34.773
34.946
35.126
35.31
35.495
35.68
35.862
36.039
36.21
36.374
36.53
36.677
36.813
36.939
37.053
37.156
37.247
37.326
37.392
37.447
37.491
37.526
37.552
37.569
37.579
37.581
37.576
37.565
37.549
37.528
37.503
37.477
37.449
37.421
37.392
37.363
37.335
37.306
37.278
37.25
37.223
37.195
37.166
37.136
37.105
37.071
37.034
36.995
36.952
36.905
36.855
36.801
36.745
36.686
36.625
36.563
36.501
36.439
36.377
36.317
36.259
36.204
36.153
36.105
36.062
36.024
35.992
35.964
35.942
35.924
35.911
35.9
35.893
35.888
35.884
35.882
35.881
35.878
35.875
35.871
35.866
35.86
35.851
35.84
35.827
35.811
35.791
35.769
35.744
35.716
35.687
35.657
35.628
35.598
35.569
35.54
35.511
35.481
35.45
35.418
35.387
35.355
35.323
35.291
35.257
35.222
35.185
35.146
35.104
35.059
35.013
34.965
34.918
34.874
34.831
34.791
34.753
34.716
34.68
34.643
34.606
34.567
34.529
34.49
34.453
34.416
34.382
34.35
34.319
34.29
34.263
34.237
34.212
34.187
34.162
34.137
34.112
34.088
34.065
34.045
34.027
34.01
33.994
33.978
33.962
33.945
33.927
33.908
33.888
33.868
33.849
33.831
33.815
33.801
33.788
33.775
33.763
33.751
33.738
33.724
33.709
33.693
33.677
33.662
33.649
33.64
33.634
33.632
33.633
33.639
33.647
33.659
33.676
33.699
33.73
33.771
33.824
33.89
33.968
34.059
34.161
34.273
34.396
34.53
34.674
34.827
34.989
35.159
35.336
35.518
35.702
35.886
36.069
36.247
36.419
36.583
36.738
36.883
37.016
37.139
37.25
37.347
37.43
37.5
37.555
37.597
37.628
37.649
37.662
37.667
37.666
37.66
37.649
37.634
37.615
37.591
37.565
37.537
37.508
37.479
37.45
37.42
37.389
37.355
37.32
37.282
37.241
37.198
37.154
37.107
37.06
37.012
36.963
36.91
36.855
36.795
36.732
36.667
36.601
36.534
36.469
36.405
36.343
36.284
36.227
36.173
36.121
36.073
36.03
35.992
35.962
35.938
35.92
35.906
35.894
35.884
35.873
35.86
35.844
35.826
35.805
35.784
35.761
35.738
35.716
35.694
35.674
35.656
35.639
35.623
35.608
35.594
35.582
35.571
35.561
35.553
35.545
35.537
35.528
35.516
35.501
35.481
35.454
35.423
35.386
35.346
35.304
35.26
35.215
35.168
35.119
35.069
35.017
34.963
34.909
34.854
34.801
34.75
34.701
34.655
34.614
34.575
34.538
34.503
34.468
34.433
34.397
34.36
34.322
34.282
34.242
34.202
34.163
34.126
34.09
34.054
34.02
33.986
33.951
33.915
33.878
33.84
33.802
33.765
33.728
33.693
33.659
33.626
33.593
33.559
33.523
33.486
33.448
33.411
33.375
33.342
33.311
33.285
33.264
33.249
33.239
33.235
33.235
33.237
33.242
33.248
33.254
33.26
33.268
33.275
33.282
33.288
33.294
33.299
33.303
33.308
33.315
33.323
33.334
33.349
33.371
33.401
33.44
33.49
33.552
33.627
33.715
33.816
33.929
34.052
34.185
34.327
34.476
34.632
34.793
34.957
35.123
35.29
35.456
35.621
35.781
35.935
36.082
36.22
36.349
36.468
36.578
36.679
36.77
36.852
36.925
36.989
37.042
37.086
37.121
37.148
37.169
37.183
37.193
37.2
37.205
37.207
37.207
37.205
37.2
37.193
37.181
37.165
37.143
37.118
37.088
37.053
37.013
36.97
36.924
36.875
36.823
36.771
36.718
36.666
36.616
36.566
36.516
36.465
36.413
36.36
36.307
36.254
36.202
36.149
36.096
36.041
35.986
35.928
35.87
35.81
35.751
35.694
35.639
35.589
35.542
35.5
35.464
35.431
35.403
35.379
35.358
35.341
35.327
35.317
35.309
35.303
35.297
35.29
35.283
35.273
35.261
35.246
35.229
35.208
35.185
35.16
35.133
35.106
35.077
35.048
35.019
34.99
34.961
34.932
34.902
34.872
34.842
34.811
34.778
34.745
34.71
34.675
34.641
34.607
34.573
34.538
34.502
34.466
34.429
34.392
34.356
34.319
34.282
34.246
34.21
34.174
34.138
34.102
34.068
34.034
34.001
33.969
33.936
33.902
33.868
33.833
33.799
33.764
33.73
33.695
33.661
33.627
33.594
33.562
33.532
33.505
33.48
33.457
33.437
33.417
33.399
33.38
33.361
33.341
33.322
33.303
33.285
33.268
33.252
33.236
33.221
33.206
33.193
33.18
33.168
33.157
33.146
33.137
33.129
33.122
33.115
33.109
33.101
33.092
33.081
33.069
33.054
33.039
33.022
33.006
32.99
32.976
32.964
32.957
32.953
32.955
32.962
32.975
32.996
33.024
33.061
33.108
33.165
33.233
33.313
33.407
33.514
33.634
33.767
33.91
34.062
34.22
34.382
34.546
34.709
34.871
35.03
35.184
35.332
35.474
35.607
35.731
35.844
35.947
36.038
36.119
36.189
36.25
36.301
36.343
36.377
36.404
36.424
36.437
36.445
36.448
36.447
36.443
36.437
36.429
36.419
36.409
36.398
36.387
36.376
36.364
36.351
36.336
36.321
36.305
36.287
36.268
36.246
36.221
36.194
36.164
36.132
36.097
36.06
36.021
35.98
35.938
35.896
35.853
35.811
35.769
35.727
35.687
35.648
35.611
35.574
35.538
35.502
35.468
35.435
35.402
35.369
35.337
35.305
35.274
35.244
35.214
35.186
35.16
35.136
35.114
35.094
35.076
35.06
35.045
35.031
35.018
35.006
34.995
34.986
34.98
34.976
34.973
34.972
34.969
34.965
34.96
34.951
34.94
34.926
34.909
34.888
34.865
34.839
34.811
34.78
34.746
34.712
34.675
34.637
34.596
34.554
34.51
34.465
34.42
34.376
34.334
34.296
34.262
34.231
34.203
34.177
34.151
34.125
34.099
34.073
34.047
34.021
33.997
33.972
33.948
33.923
33.898
33.871
33.843
33.814
33.785
33.756
33.728
33.7
33.674
33.649
33.626
33.605
33.585
33.567
33.548
33.529
33.509
33.488
33.465
33.441
33.416
33.392
33.369
33.349
33.331
33.315
33.302
33.291
33.282
33.274
33.266
33.256
33.244
33.23
33.214
33.198
33.182
33.168
33.156
33.147
33.141
33.137
33.134
33.132
33.13
33.13
33.129
33.13
33.133
33.139
33.15
33.169
33.199
33.239
33.292
33.356
33.432
33.517
33.61
33.71
33.815
33.926
34.039
34.156
34.275
34.396
34.52
34.643
34.767
34.89
35.009
35.125
35.236
35.341
35.441
35.534
35.621
35.702
35.777
35.846
35.91
35.967
36.016
36.058
36.091
36.116
36.132
36.14
36.141
36.137
36.128
36.116
36.103
36.087
36.068
36.047
36.025
36.001
35.976
35.953
35.93
35.911
35.894
35.879
35.866
35.854
35.84
35.823
35.802
35.777
35.747
35.713
35.674
35.633
35.589
35.545
35.5
35.456
35.412
35.368
35.325
35.284
35.244
35.206
35.169
35.135
35.104
35.078
35.056
35.038
35.025
35.014
35.006
34.998
34.99
34.982
34.973
34.966
34.959
34.954
34.951
34.949
34.948
34.949
34.949
34.95
34.949
34.947
34.944
34.94
34.936
34.931
34.924
34.916
34.904
34.89
34.872
34.85
34.825
34.796
34.765
34.732
34.7
34.669
34.641
34.616
34.595
34.576
34.559
34.541
34.524
34.505
34.483
34.459
34.433
34.406
34.379
34.352
34.325
34.3
34.275
34.251
34.228
34.206
34.185
34.164
34.142
34.12
34.099
34.079
34.059
34.042
34.026
34.011
33.998
33.983
33.968
33.951
33.932
33.911
33.889
33.865
33.842
33.82
33.799
33.78
33.762
33.746
33.731
33.717
33.703
33.688
33.672
33.655
33.639
33.623
33.61
33.599
33.592
33.586
33.583
33.582
33.582
33.582
33.583
33.585
33.588
33.593
33.599
33.61
33.625
33.648
33.678
33.717
33.764
33.821
33.887
33.962
34.046
34.137
34.235
34.342
34.455
34.575
34.7
34.83
34.962
35.094
35.225
35.351
35.472
35.585
35.691
35.789
35.88
35.963
36.038
36.106
36.166
36.219
36.264
36.3
36.328
36.349
36.362
36.369
36.369
36.366
36.36
36.351
36.34
36.327
36.311
36.294
36.274
36.253
36.23
36.206
36.181
36.157
36.134
36.113
36.093
36.073
36.052
36.029
36.004
35.976
35.945
35.911
35.875
35.84
35.805
35.771
35.737
35.703
35.668
35.632
35.594
35.556
35.517
35.479
35.443
35.409
35.379
35.355
35.334
35.318
35.306
35.297
35.291
35.288
35.286
35.286
35.286
35.286
35.287
35.288
35.289
35.289
35.288
35.283
35.276
35.265
35.251
35.235
35.217
35.199
35.179
35.16
35.141
35.124
35.108
35.093
35.078
35.063
35.046
35.029
35.012
34.997
34.983
34.971
34.961
34.953
34.946
34.939
34.932
34.922
34.909
34.893
34.875
34.854
34.832
34.811
34.791
34.772
34.755
34.74
34.726
34.713
34.7
34.685
34.67
34.653
34.635
34.616
34.594
34.571
34.545
34.517
34.487
34.455
34.421
34.385
34.347
34.308
34.267
34.226
34.185
34.145
34.106
34.07
34.036
34.006
33.98
33.959
33.941
33.928
33.919
33.913
33.91
33.909
33.91
33.913
33.916
33.92
33.923
33.925
33.926
33.926
33.926
33.924
33.921
33.917
33.911
33.904
33.895
33.886
33.877
33.869
33.864
33.863
33.867
33.876
33.893
33.917
33.951
33.995
34.051
34.119
34.2
34.293
34.398
34.515
34.642
34.778
34.924
35.076
35.232
35.391
35.549
35.705
35.855
35.999
36.133
36.259
36.374
36.48
36.576
36.662
36.74
36.808
36.868
36.918
36.96
36.995
37.024
37.047
37.066
37.08
37.09
37.098
37.101
37.101
37.097
37.088
37.075
37.059
37.038
37.014
36.987
36.959
36.929
36.899
36.867
36.833
36.797
36.76
36.72
36.681
36.641
36.602
36.563
36.524
36.485
36.447
36.409
36.371
36.333
36.294
36.257
36.219
36.183
36.148
36.116
36.086
36.059
36.034
36.012
35.991
35.97
35.947
35.923
35.898
35.873
35.849
35.828
35.809
35.792
35.778
35.764
35.751
35.737
35.724
35.711
35.7
35.69
35.682
35.676
35.672
35.668
35.664
35.658
35.65
35.64
35.627
35.611
35.594
35.575
35.557
35.538
35.52
35.501
35.482
35.462
35.441
35.419
35.395
35.368
35.34
35.31
35.279
35.249
35.219
35.19
35.16
35.129
35.097
35.064
35.03
34.995
34.962
34.93
34.899
34.87
34.843
34.817
34.793
34.77
34.748
34.725
34.7
34.674
34.645
34.613
34.58
34.546
34.512
34.479
34.449
34.422
34.399
34.379
34.362
34.346
34.332
34.317
34.302
34.287
34.272
34.259
34.246
34.235
34.225
34.217
34.21
34.204
34.197
34.189
34.179
34.167
34.154
34.139
34.123
34.107
34.092
34.08
34.069
34.062
34.056
34.051
34.047
34.044
34.04
34.038
34.038
34.043
34.054
34.072
34.099
34.135
34.181
34.238
34.305
34.38
34.465
34.558
34.659
34.767
34.881
35.0
35.124
35.253
35.387
35.525
35.667
35.809
35.951
36.091
36.229
36.362
36.492
36.616
36.736
36.849
36.956
37.053
37.141
37.216
37.278
37.328
37.368
37.397
37.419
37.435
37.445
37.451
37.453
37.451
37.445
37.435
37.421
37.405
37.388
37.371
37.355
37.34
37.325
37.311
37.297
37.281
37.263
37.242
37.218
37.191
37.162
37.132
37.1
37.067
37.034
37.001
36.966
36.931
36.895
36.857
36.819
36.78
36.741
36.703
36.665
36.628
36.591
36.555
36.518
36.482
36.445
36.408
36.373
36.341
36.311
36.286
36.264
36.247
36.234
36.224
36.217
36.211
36.206
36.202
36.198
36.195
36.191
36.186
36.18
36.172
36.162
36.149
36.133
36.112
36.088
36.063
36.036
36.008
35.981
35.955
35.929
35.903
35.875
35.847
35.816
35.783
35.748
35.712
35.675
35.639
35.604
35.572
35.541
35.512
35.485
35.459
35.435
35.411
35.387
35.361
35.334
35.304
35.274
35.243
35.212
35.181
35.151
35.12
35.088
35.054
35.018
34.981
34.943
34.906
34.871
34.837
34.805
34.777
34.751
34.726
34.703
34.679
34.654
34.628
34.599
34.569
34.537
34.505
34.475
34.446
34.42
34.398
34.38
34.364
34.351
34.338
34.325
34.313
34.3
34.289
34.278
34.267
34.258
34.25
34.243
34.238
34.233
34.227
34.22
34.213
34.204
34.193
34.182
34.169
34.156
34.145
34.136
34.133
34.136
34.147
34.166
34.193
34.226
34.268
34.32
34.382
34.454
34.538
34.633
34.74
34.857
34.984
35.12
35.263
35.411
35.562
35.715
35.868
36.018
36.165
36.308
36.446
36.577
36.703
36.821
36.932
37.034
37.128
