Trial 1:0back
36.356
36.347
36.34
36.334
36.328
36.321
36.312
36.3
36.285
36.267
36.246
36.224
36.201
36.178
36.156
36.136
36.12
36.108
36.1
36.098
36.098
36.102
36.108
36.116
36.125
36.135
36.146
36.157
36.17
36.183
36.196
36.209
36.222
36.234
36.244
36.251
36.255
36.255
36.253
36.247
36.239
36.23
36.22
36.209
36.197
36.184
36.169
36.152
36.134
36.112
36.087
36.059
36.028
35.994
35.958
35.921
35.885
35.849
35.816
35.785
35.755
35.727
35.699
35.673
35.648
35.624
35.601
35.578
35.556
35.535
35.514
35.494
35.474
35.456
35.438
35.421
35.406
35.391
35.377
35.364
35.353
35.343
35.333
35.324
35.314
35.305
35.296
35.288
35.28
35.271
35.263
35.255
35.248
35.241
35.235
35.23
35.225
35.22
35.216
35.21
35.204
35.197
35.19
35.183
35.177
35.171
35.165
35.16
35.155
35.151
35.148
35.145
35.143
35.14
35.137
35.133
35.128
35.123
35.117
35.111
35.105
35.099
35.094
35.089
35.083
35.077
35.07
35.062
35.051
35.038
35.024
35.008
34.992
34.977
34.963
34.95
34.939
34.928
34.918
34.91
34.902
34.894
34.886
34.878
34.868
34.857
34.844
34.83
34.816
34.802
34.788
34.774
34.76
34.747
34.735
34.724
34.714
34.706
34.699
34.692
34.684
34.673
34.66
34.645
34.628
34.612
34.595
34.58
34.567
34.556
34.549
34.545
34.544
34.544
34.544
34.545
34.544
34.543
34.541
34.537
34.533
34.527
34.521
34.515
34.509
34.504
34.5
34.498
34.496
34.495
34.494
34.493
34.492
34.491
34.488
34.485
34.48
34.474
34.467
34.459
34.45
34.438
34.425
34.41
34.395
34.378
34.361
34.343
34.327
34.312
34.3
34.292
34.291
34.298
34.315
34.344
34.387
34.446
34.523
34.617
34.73
34.861
35.008
35.169
35.34
35.518
35.699
35.88
36.058
36.231
36.396
36.551
36.695
36.826
36.944
37.048
37.137
37.211
37.269
37.313
37.343
37.359
37.362
37.355
37.338
37.312
37.281
37.244
37.204
37.161
37.118
37.075
37.032
36.99
36.949
36.909
36.87
36.831
36.794
36.759
36.725
36.693
36.664
36.637
36.614
36.592
36.574
36.557
36.541
36.526
36.511
36.495
36.477
36.458
36.437
36.414
36.392
36.369
36.346
36.322
36.299
36.276
36.252
36.228
36.204
36.181
36.158
36.138
36.12
36.105
36.092
36.082
36.075
36.072
36.071
36.072
36.076
36.081
36.088
36.096
36.104
36.113
36.122
36.132
36.143
36.154
36.165
36.176
36.187
36.197
36.206
36.213
36.216
36.216
36.211
36.201
36.187
36.17
36.149
36.126
36.102
36.077
36.052
36.026
35.999
35.973
35.949
35.926
35.904
35.88
35.855
35.827
35.797
35.766
35.733
35.7
35.666
35.633
35.6
35.57
35.54
35.513
35.488
35.466
35.447
35.431
35.419
35.41
35.404
35.401
35.399
35.398
35.396
35.394
35.39
35.385
35.379
35.372
35.364
35.355
35.345
35.336
35.326
35.317
35.309
35.303
35.298
35.294
35.29
35.286
35.282
35.276
35.27
35.263
35.255
35.246
35.237
35.226
35.215
35.204
35.193
35.182
35.171
35.16
35.149
35.139
35.128
35.117
35.106
35.094
35.082
35.069
35.057
35.046
35.036
35.028
35.021
35.015
35.009
35.002
34.996
34.988
34.979
34.97
34.96
34.949
34.937
34.926
34.914
34.902
34.891
34.881
34.874
34.868
34.863
34.857
34.85
34.842
34.832
34.82
34.805
34.789
34.771
34.752
34.733
34.713
34.694
34.675
34.658
34.643
34.629
34.616
34.604
34.594
34.584
34.575
34.567
34.559
34.553
34.549
34.547
34.548
34.551
34.554
34.559
34.563
34.567
34.57
34.571
34.569
34.565
34.557
34.546
34.53
34.512
34.492
34.471
34.451
34.434
34.42
34.409
34.401
34.396
34.393
34.391
34.389
34.387
34.383
34.378
34.37
34.36
34.347
34.331
34.312
34.292
34.27
34.249
34.229
34.212
34.198
34.189
34.186
34.189
34.201
34.222
34.253
34.294
34.347
34.413
34.493
34.588
34.699
34.825
34.967
35.122
35.294
35.487
35.699
35.923
36.154
36.382
36.601
36.805
36.987
37.146
37.278
37.382
37.459
37.511
37.54
37.547
37.536
37.51
37.471
37.425
37.373
37.317
37.26
37.205
37.152
37.103
37.058
37.018
36.981
36.948
36.917
36.889
36.861
36.834
36.806
36.778
36.752
36.727
36.705
36.686
36.67
36.654
36.641
36.628
36.617
36.606
36.594
36.582
36.568
36.554
36.537
36.519
36.5
36.48
36.459
36.439
36.418
36.397
36.375
36.354
36.332
36.31
36.287
36.263
36.239
36.214
36.19
36.168
36.149
36.134
36.124
36.118
36.117
36.121
36.128
36.137
36.149
36.161
36.174
36.186
36.198
36.209
36.219
36.229
36.238
36.246
36.252
36.255
36.257
36.256
36.253
36.247
36.239
36.227
36.214
36.198
36.179
36.159
36.137
36.114
36.091
36.068
36.046
36.025
36.005
35.985
35.965
35.944
35.923
35.9
35.876
35.85
35.822
35.792
35.762
35.732
35.703
35.675
35.648
35.622
35.598
35.574
35.553
35.534
35.517
35.502
35.488
35.475
35.463
35.451
35.442
35.435
35.431
35.429
35.431
35.435
35.441
35.447
35.453
35.456
35.457
35.454
35.446
35.433
35.414
35.391
35.364
35.336
35.306
35.276
35.248
35.221
35.197
35.177
35.159
35.145
35.133
35.124
35.117
35.112
35.106
35.102
35.097
35.092
35.087
35.083
35.078
35.073
35.068
35.064
35.061
35.057
35.053
35.048
35.042
35.035
35.026
35.016
35.005
34.993
34.982
34.971
34.961
34.952
34.944
34.938
34.932
34.927
34.921
34.914
34.906
34.898
34.888
34.878
34.866
34.854
34.84
34.827
34.813
34.798
34.784
34.77
34.757
34.745
34.732
34.72
34.708
34.697
34.685
34.672
34.658
34.643
34.626
34.61
34.594
34.578
34.562
34.548
34.534
34.522
34.512
34.503
34.495
34.489
34.483
34.478
34.474
34.47
34.466
34.462
34.459
34.455
34.45
34.446
34.441
34.435
34.43
34.425
34.419
34.414
34.409
34.404
34.399
34.395
34.39
34.385
34.378
34.37
34.36
34.349
34.338
34.328
34.32
34.316
34.313
34.313
34.314
34.315
34.315
34.314
34.312
34.307
34.3
34.292
34.282
34.27
34.258
34.245
34.232
34.221
34.212
34.209
34.213
34.227
34.254
34.296
34.356
34.436
34.534
34.653
34.79
34.943
35.11
35.287
35.472
35.661
35.852
36.042
36.227
36.405
36.574
36.733
36.879
37.009
37.122
37.217
37.293
37.351
37.392
37.416
37.425
37.421
37.406
37.38
37.348
37.309
37.266
37.22
37.171
37.12
37.069
37.017
36.968
36.92
36.876
36.835
36.799
36.766
36.737
36.711
36.69
36.672
36.657
36.644
36.632
36.621
36.611
36.602
36.594
36.588
36.583
36.579
36.58
36.587
36.599
36.613
36.627
36.637
36.641
36.638
36.626
36.604
36.574
36.536
36.493
36.446
36.398
36.349
36.302
36.257
36.215
36.179
36.148
36.123
36.105
36.093
36.087
36.086
36.09
36.098
36.108
36.122
36.137
36.153
36.168
36.181
36.191
36.198
36.201
36.201
36.197
36.191
36.181
36.168
36.154
36.139
36.122
36.103
36.082
36.06
36.036
36.011
35.986
35.96
35.934
35.907
35.879
35.851
35.823
35.796
35.769
35.744
35.721
35.699
35.679
35.66
35.642
35.624
35.606
35.587
35.567
35.545
35.521
35.497
35.472
35.449
35.426
35.405
35.386
35.37
35.356
35.344
35.333
35.322
35.312
35.301
35.288
35.272
35.254
35.234
35.214
35.195
35.177
35.162
35.15
35.142
35.138
35.137
35.14
35.144
35.151
35.159
35.168
35.179
35.19
35.203
35.218
35.237
35.258
35.284
35.313
35.346
35.382
35.421
35.462
35.505
35.547
35.589
35.629
35.667
35.701
35.73
35.756
35.778
35.796
35.811
35.82
35.825
35.825
35.821
35.812
35.799
35.781
35.758
35.73
35.697
35.659
35.616
35.568
35.516
35.459
35.399
35.335
35.269
35.201
35.132
35.063
34.996
34.93
34.867
34.808
34.753
34.704
34.661
34.624
34.594
34.572
34.557
34.55
34.55
34.559
34.575
34.599
34.629
34.664
34.705
34.749
34.796
34.845
34.894
34.941
34.986
35.026
35.062
35.094
35.122
35.148
35.17
35.188
35.202
35.213
35.218
35.22
35.218
35.211
35.201
35.188
35.172
35.153
35.132
35.109
35.084
35.056
35.028
34.998
34.966
34.934
34.901
34.87
34.84
34.811
34.785
34.76
34.738
34.717
34.698
34.681
34.664
34.649
34.635
34.622
34.61
34.598
34.587
34.576
34.565
34.554
34.541
34.526
34.51
34.492
34.473
34.452
34.43
34.408
34.386
34.365
34.345
34.329
34.315
34.305
34.299
34.298
34.3
34.306
34.316
34.329
34.343
34.358
34.372
34.385
34.396
34.405
34.412
34.415
34.415
34.414
34.411
34.408
34.404
34.399
34.394
34.389
34.385
34.379
34.371
34.361
34.35
34.339
34.326
34.313
34.3
34.288
34.275
34.262
34.251
34.241
34.232
34.226
34.222
34.22
34.22
34.222
34.224
34.227
34.23
34.231
34.231
34.23
34.227
34.222
34.215
34.205
34.195
34.183
34.171
34.158
34.146
34.136
34.127
34.12
34.115
34.112
34.11
34.108
34.107
34.105
34.103
34.1
34.098
34.096
34.093
34.09
34.087
34.083
34.079
34.075
34.071
34.068
34.065
34.063
34.062
34.06
34.059
34.058
34.057
34.054
34.049
34.043
34.036
34.027
34.016
34.004
33.992
33.979
33.967
33.955
33.943
33.933
33.925
33.919
33.915
33.913
33.912
33.913
33.914
33.917
33.921
33.926
33.931
33.938
33.944
33.951
33.956
33.959
33.961
33.961
33.959
33.955
33.951
33.947
33.944
33.941
33.937
33.933
33.927
33.92
33.912
33.903
33.893
33.883
33.874
33.869
33.868
33.875
33.894
33.927
33.98
34.056
34.159
34.289
34.449
34.639
34.857
35.099
35.361
35.638
35.922
36.209
36.492
36.766
37.024
37.263
37.481
37.675
37.844
37.987
38.104
38.194
38.258
38.299
38.318
38.318
38.301
38.271
38.23
38.181
38.126
38.067
38.006
37.946
37.886
37.828
37.771
37.717
37.665
37.616
37.57
37.526
37.485
37.447
37.414
37.384
37.358
37.337
37.32
37.306
37.294
37.284
37.275
37.265
37.256
37.247
37.238
37.229
37.22
37.21
37.199
37.188
37.176
37.161
37.145
37.125
37.101
37.072
37.04
37.005
36.969
36.933
36.897
36.863
36.83
36.8
36.772
36.748
36.727
36.71
36.697
36.687
36.679
36.674
36.672
36.671
36.673
36.676
36.68
36.684
36.687
36.69
36.691
36.691
36.689
36.684
36.677
36.668
36.657
36.644
36.63
36.615
36.599
36.584
36.57
36.555
36.539
36.521
36.502
36.481
36.459
36.435
36.41
36.382
36.354
36.325
36.294
36.262
36.228
36.195
36.16
36.126
36.091
36.056
36.02
35.986
35.952
35.921
35.893
35.867
35.845
35.825
35.808
35.794
35.781
35.77
35.76
35.751
35.743
35.732
35.719
35.705
35.689
35.673
35.657
35.641
35.626
35.61
35.595
35.58
35.566
35.552
35.539
35.526
35.514
35.502
35.491
35.48
35.469
35.459
35.449
35.44
35.431
35.422
35.414
35.405
35.397
35.388
35.378
35.366
35.353
35.339
35.323
35.306
35.289
35.272
35.256
35.241
35.227
35.215
35.204
35.195
35.186
35.176
35.166
35.154
35.139
35.122
35.103
35.083
35.062
35.041
35.02
34.998
34.977
34.957
34.94
34.925
34.913
34.903
34.894
34.887
34.881
34.876
34.871
34.867
34.863
34.859
34.855
34.851
34.847
34.844
34.84
34.836
34.831
34.826
34.819
34.81
34.8
34.789
34.777
34.763
34.75
34.737
34.724
34.711
34.701
34.692
34.686
34.68
34.674
34.668
34.662
34.655
34.648
34.639
34.629
34.619
34.607
34.593
34.578
34.562
34.546
34.529
34.514
34.5
34.486
34.474
34.464
34.454
34.446
34.437
34.429
34.421
34.414
34.407
34.401
34.396
34.391
34.388
34.387
34.387
34.389
34.391
34.393
34.395
34.395
34.391
34.382
34.369
34.353
34.335
34.317
34.301
34.29
34.288
34.298
34.324
34.369
34.434
34.521
34.631
34.761
34.911
35.078
35.259
35.45
35.649
35.85
36.051
36.249
36.44
36.623
36.796
36.955
37.099
37.228
37.338
37.431
37.506
37.564
37.607
37.634
37.649
37.653
37.645
37.629
37.605
37.574
37.539
37.499
37.457
37.413
37.369
37.325
37.282
37.24
37.201
37.164
37.132
37.104
37.078
37.055
37.034
37.016
37.0
36.986
36.973
36.962
36.952
36.943
36.935
36.927
36.92
36.913
36.905
36.896
36.886
36.874
36.859
36.84
36.817
36.79
36.759
36.725
36.689
36.652
36.615
36.58
36.547
36.516
36.487
36.46
36.435
36.413
36.395
36.38
36.368
36.362
36.359
36.361
36.367
36.377
36.389
36.403
36.417
36.43
36.44
36.448
36.452
36.452
36.449
36.443
36.434
36.423
36.41
36.398
36.385
36.373
36.359
36.346
36.332
36.317
36.3
36.282
36.261
36.238
36.212
36.185
36.156
36.125
36.094
36.063
36.036
36.013
35.994
35.978
35.963
35.948
35.932
35.915
35.897
35.877
35.856
35.834
35.811
35.786
35.761
35.736
35.712
35.689
35.668
35.649
35.631
35.615
35.599
35.583
35.569
35.555
35.541
35.528
35.515
35.503
35.491
35.479
35.468
35.458
35.448
35.437
35.426
35.415
35.403
35.391
35.38
35.369
35.359
35.35
35.341
35.332
35.322
35.312
35.301
35.29
35.278
35.267
35.257
35.247
35.238
35.23
35.224
35.218
35.213
35.209
35.205
35.202
35.198
35.195
35.192
35.187
35.182
35.176
35.167
35.157
35.146
35.133
35.12
35.106
35.093
35.08
35.067
35.055
35.042
35.029
35.016
35.002
34.987
34.971
34.953
34.935
34.915
34.895
34.875
34.857
34.841
34.829
34.82
34.814
34.811
34.81
34.811
34.812
34.812
34.811
34.807
34.801
34.793
34.783
34.773
34.761
34.749
34.737
34.725
34.715
34.705
34.697
34.691
34.686
34.683
34.68
34.676
34.672
34.666
34.659
34.65
34.639
34.627
34.614
34.602
34.59
34.578
34.568
34.56
34.553
34.546
34.538
34.53
34.522
34.514
34.505
34.495
34.484
34.473
34.461
34.45
34.439
34.428
34.419
34.41
34.403
34.397
34.394
34.393
34.397
34.406
34.421
34.444
34.476
34.521
34.579
34.653
34.743
34.849
34.971
35.108
35.257
35.417
35.586
35.76
35.936
36.112
36.285
36.451
36.607
36.752
36.882
36.996
37.094
37.175
37.237
37.283
37.313
37.329
37.333
37.327
37.313
37.292
37.267
37.238
37.207
37.173
37.139
37.103
37.068
37.032
36.997
36.964
36.933
36.904
36.877
36.851
36.828
36.807
36.789
36.773
36.759
36.746
36.733
36.721
36.709
36.698
36.688
36.677
36.665
36.653
36.641
36.626
36.609
36.588
36.565
36.539
36.511
36.482
36.454
36.426
36.401
36.378
36.358
36.341
36.327
36.316
36.309
36.306
36.306
36.308
36.313
36.319
36.327
36.337
36.348
36.359
36.369
36.379
36.388
36.395
36.4
36.403
36.403
36.4
36.394
36.385
36.372
36.357
36.34
36.322
36.303
36.284
36.264
36.243
36.223
36.202
36.182
36.162
36.141
36.119
36.096
36.071
36.045
36.018
35.991
35.964
35.938
35.913
35.889
35.867
35.846
35.826
35.807
35.789
35.772
35.756
35.742
35.728
35.714
35.701
35.689
35.678
35.667
35.658
35.648
35.638
35.627
35.615
35.602
35.589
35.575
35.56
35.545
35.53
35.516
35.503
35.491
35.482
35.473
35.464
35.456
35.447
35.437
35.426
35.414
35.401
35.387
35.373
35.357
35.343
35.329
35.317
35.306
35.297
35.29
35.285
35.279
35.275
35.271
35.268
35.266
35.264
35.262
35.259
35.254
35.248
35.24
35.23
35.219
35.207
35.195
35.184
35.173
35.162
35.152
35.142
35.133
35.124
35.115
35.107
35.098
35.089
35.078
35.065
35.051
35.036
35.022
35.009
34.997
34.986
34.976
34.967
34.96
34.952
34.945
34.937
34.928
34.918
34.908
34.898
34.889
34.882
34.877
34.874
34.873
34.873
34.874
34.875
34.876
34.876
34.874
34.87
34.864
34.855
34.845
34.832
34.819
34.805
34.791
34.778
34.767
34.756
34.746
34.731
34.711
34.686
34.657
34.627
34.597
34.57
34.546
34.525
34.51
34.501
34.497
34.498
34.504
34.513
34.525
34.538
34.551
34.564
34.574
34.581
34.584
34.582
34.576
34.567
34.555
34.541
34.526
34.512
34.498
34.487
34.477
34.471
34.467
34.468
34.473
34.482
34.498
34.52
34.552
34.593
34.645
34.71
34.789
34.882
34.989
35.109
35.243
35.387
35.539
35.698
35.859
36.02
36.178
36.33
36.474
36.609
36.733
36.845
36.945
37.032
37.107
37.17
37.22
37.257
37.282
37.297
37.303
37.3
37.291
37.275
37.256
37.233
37.207
37.179
37.151
37.121
37.092
37.064
37.037
37.012
36.988
36.967
36.948
36.932
36.92
36.91
36.903
36.897
36.893
36.89
36.886
36.88
36.873
36.863
36.853
36.841
36.828
36.814
36.799
36.782
36.763
36.744
36.724
36.702
36.676
36.646
36.614
36.579
36.543
36.506
36.471
36.438
36.409
36.384
36.363
36.347
36.335
36.329
36.327
36.329
36.332
36.338
36.345
36.352
36.359
36.366
36.372
36.377
36.38
36.383
36.384
36.383
36.381
36.376
36.37
36.363
36.353
36.342
36.328
36.311
36.294
36.276
36.258
36.24
36.224
36.208
36.192
36.176
36.16
36.144
36.127
36.109
36.089
36.068
36.046
36.022
35.997
35.973
35.948
35.925
35.904
35.884
35.866
35.85
35.835
35.823
35.812
35.802
35.791
35.78
35.768
35.755
35.742
35.727
35.713
35.698
35.685
35.673
35.663
35.655
35.648
35.642
35.636
35.63
35.622
35.612
35.6
35.587
35.572
35.556
35.54
35.523
35.508
35.493
35.481
35.47
35.459
35.45
35.44
35.431
35.422
35.412
35.401
35.389
35.377
35.364
35.351
35.338
35.326
35.313
35.301
35.288
35.274
35.261
35.247
35.235
35.223
35.211
35.2
35.188
35.176
35.165
35.155
35.147
35.139
35.132
35.126
35.12
35.113
35.106
35.097
35.087
35.076
35.064
35.051
35.036
35.021
35.007
34.993
34.979
34.968
34.958
34.95
34.944
34.939
34.936
34.933
34.93
34.926
34.921
34.915
34.908
34.9
34.89
34.879
34.865
34.85
34.834
34.817
34.802
34.788
34.776
34.766
34.759
34.753
34.748
34.744
34.741
34.738
34.736
34.734
34.734
34.734
34.737
34.74
34.744
34.749
34.754
34.757
34.758
34.757
34.753
34.747
34.74
34.731
34.721
34.709
34.696
34.683
34.669
34.655
34.64
34.625
34.609
34.593
34.578
34.562
34.546
34.528
34.508
34.486
34.464
34.44
34.417
34.397
34.379
34.364
34.352
34.344
34.339
34.337
34.338
34.342
34.348
34.356
34.367
34.381
34.398
34.42
34.449
34.485
34.532
34.589
34.657
34.737
34.83
34.935
35.051
35.178
35.314
35.455
35.6
35.747
35.892
36.034
36.172
36.302
36.423
36.535
36.636
36.727
36.808
36.877
36.934
36.982
37.018
37.045
37.061
37.068
37.066
37.055
37.038
37.015
36.986
36.955
36.921
36.888
36.855
36.823
36.792
36.762
36.736
36.713
36.694
36.678
36.665
36.657
36.651
36.648
36.648
36.65
36.652
36.656
36.66
36.663
36.666
36.665
36.661
36.652
36.639
36.621
36.598
36.57
36.538
36.503
36.466
36.428
36.392
36.357
36.325
36.296
36.27
36.247
36.225
36.205
36.187
36.171
36.158
36.148
36.142
36.138
36.138
36.141
36.146
36.154
36.164
36.175
36.186
36.195
36.202
36.207
36.209
36.208
36.207
36.203
36.199
36.194
36.188
36.182
36.176
36.17
36.162
36.153
36.141
36.128
36.112
36.095
36.075
36.054
36.031
36.006
35.981
35.955
35.929
35.904
35.879
35.855
35.832
35.81
35.788
35.766
35.744
35.722
35.702
35.682
35.664
35.646
35.63
35.614
35.598
35.584
35.571
35.558
35.547
35.537
35.528
35.519
35.51
35.501
35.493
35.485
35.477
35.47
35.463
35.457
35.451
35.444
35.436
35.426
35.414
35.402
35.389
35.376
35.365
35.354
35.344
35.336
35.332
35.33
35.331
35.336
35.345
35.358
35.375
35.396
35.422
35.453
35.487
35.525
35.566
35.607
35.649
35.69
35.731
35.769
35.805
35.838
35.869
35.897
35.922
35.946
35.967
35.985
35.999
36.011
36.018
36.019
36.015
36.004
35.989
35.969
35.946
35.92
35.891
35.861
35.829
35.797
35.764
35.731
35.696
35.659
35.62
35.579
35.534
35.488
35.439
35.389
35.338
35.288
35.238
35.19
35.144
35.101
35.061
35.025
34.994
34.968
34.948
34.934
34.927
34.927
34.934
34.946
34.963
34.985
35.01
35.037
35.066
35.095
35.124
35.151
35.177
35.201
35.221
35.237
35.251
35.261
35.269
35.274
35.277
35.278
35.277
35.276
35.274
35.271
35.267
35.261
35.254
35.244
35.232
35.218
35.202
35.184
35.165
35.146
35.127
35.108
35.089
35.072
35.056
35.039
35.022
35.005
34.987
34.969
34.952
34.935
34.919
34.904
34.891
