Trial 1:0back
32.862
32.839
32.838
32.861
32.91
32.985
33.086
33.211
33.358
33.523
33.704
33.896
34.096
34.298
34.5
34.698
34.887
35.066
35.232
35.384
35.52
35.641
35.746
35.837
35.913
35.976
36.027
36.067
36.098
36.119
36.13
36.133
36.126
36.109
36.083
36.048
36.003
35.948
35.885
35.814
35.735
35.65
35.559
35.463
35.364
35.263
35.161
35.059
34.957
34.856
34.756
34.657
34.557
34.457
34.355
34.252
34.148
34.041
33.931
33.82
33.707
33.592
33.476
33.359
33.243
33.128
33.014
32.901
32.79
32.68
32.571
32.465
32.362
32.261
32.164
32.069
31.978
31.889
31.803
31.719
31.638
31.561
31.486
31.415
31.347
31.282
31.221
31.162
31.108
31.059
31.015
30.976
30.944
30.917
30.897
30.882
30.873
30.868
30.867
30.87
30.877
30.888
30.901
30.916
30.933
30.951
30.968
30.984
30.997
31.006
31.01
31.011
31.006
30.997
30.984
30.966
30.945
30.92
30.893
30.864
30.834
30.805
30.778
30.754
30.733
30.716
30.705
30.699
30.698
30.703
30.713
30.729
30.749
30.772
30.799
30.828
30.857
30.886
30.913
30.937
30.957
30.973
30.983
30.988
30.986
30.977
30.961
30.939
30.912
30.88
30.845
30.809
30.774
30.742
30.717
30.702
30.699
30.711
30.742
30.793
30.867
30.964
31.085
31.229
31.396
31.581
31.783
31.997
32.221
32.449
32.677
32.902
33.12
33.326
33.519
33.697
33.858
34.001
34.126
34.233
34.323
34.397
34.457
34.502
34.536
34.56
34.576
34.585
34.59
34.592
34.593
34.594
34.595
34.598
34.603
34.611
34.621
34.634
34.651
34.671
34.694
34.722
34.752
34.785
34.82
34.856
34.892
34.928
34.962
34.993
35.021
35.045
35.064
35.078
35.086
35.087
35.082
35.071
35.053
35.029
35.0
34.965
34.927
34.884
34.838
34.787
34.733
34.673
34.608
34.538
34.46
34.374
34.281
34.179
34.069
33.95
33.825
33.695
33.561
33.426
33.292
33.162
33.038
32.922
32.816
32.723
32.644
32.581
32.533
32.503
32.489
32.491
32.507
32.535
32.573
32.62
32.671
32.726
32.781
32.836
32.889
32.939
32.987
33.033
33.075
33.112
33.146
33.176
33.207
33.243
33.285
33.333
33.381
33.424
33.452
33.457
33.433
33.377
33.29
33.177
33.046
32.907
32.772
32.651
32.551
32.477
32.43
32.407
32.404
32.414
32.43
32.444
32.452
32.45
32.435
32.409
32.373
32.332
32.288
32.245
32.206
32.173
32.144
32.119
32.094
32.068
32.036
31.997
31.949
31.89
31.822
31.746
31.665
31.586
31.513
31.452
31.408
31.386
31.387
31.414
31.463
31.532
31.618
31.716
31.82
31.929
32.038
32.145
32.25
32.351
32.45
32.546
32.642
32.737
32.831
32.923
33.012
33.095
33.171
33.237
33.291
33.334
33.364
33.382
33.391
33.391
33.386
33.377
33.367
33.357
33.349
33.346
33.347
33.353
33.366
33.383
33.404
33.428
33.453
33.478
33.501
33.523
33.542
33.561
33.578
33.595
33.612
33.63
33.648
33.665
33.68
33.692
33.7
33.703
33.7
33.69
33.673
33.65
33.621
33.586
33.547
33.506
33.465
33.426
33.39
33.357
33.329
33.303
33.281
33.259
33.238
33.217
33.195
33.172
33.149
33.126
33.104
33.084
33.067
33.052
33.039
33.028
33.019
33.012
33.005
33.0
32.995
32.991
32.988
32.984
32.982
32.981
32.98
32.981
32.983
32.985
32.986
32.985
32.983
32.977
32.968
32.956
32.94
32.921
32.901
32.88
32.86
32.842
32.827
32.815
32.808
32.804
32.803
32.804
32.806
32.806
32.804
32.799
32.79
32.779
32.765
32.748
32.73
32.711
32.691
32.671
32.649
32.627
32.604
32.581
32.557
32.533
32.51
32.487
32.465
32.444
32.425
32.407
32.392
32.378
32.365
32.355
32.345
32.338
32.333
32.331
32.335
32.345
32.363
32.392
32.433
32.487
32.556
32.639
32.737
32.847
32.968
33.097
33.232
33.369
33.506
33.64
33.768
33.888
33.999
34.099
34.185
34.257
34.314
34.355
34.38
34.388
34.38
34.357
34.319
34.269
34.208
34.138
34.06
33.975
33.885
33.791
33.695
33.597
33.498
33.398
33.298
33.199
33.102
33.005
32.909
32.814
32.718
32.623
32.527
32.43
32.333
32.235
32.136
32.036
31.936
31.837
31.737
31.639
31.541
31.445
31.35
31.256
31.164
31.073
30.984
30.897
30.813
30.732
30.655
30.584
30.521
30.466
30.421
30.388
30.367
30.359
30.364
30.382
30.412
30.453
30.506
30.568
30.639
30.718
30.804
30.896
30.992
31.092
31.195
31.297
31.399
31.499
31.595
31.687
31.773
31.854
31.929
31.998
32.062
32.121
32.177
32.23
32.279
32.326
32.37
32.412
32.451
32.487
32.519
32.549
32.576
32.6
32.622
32.64
32.654
32.666
32.673
32.677
32.677
32.673
32.664
32.651
32.633
32.613
32.588
32.561
32.531
32.498
32.463
32.426
32.388
32.349
32.309
32.269
32.228
32.188
32.147
32.107
32.068
32.03
31.993
31.959
31.927
31.899
31.874
31.853
31.837
31.823
31.812
31.803
31.796
31.792
31.789
31.789
31.793
31.801
31.815
31.837
31.867
31.908
31.962
32.029
32.112
32.21
32.325
32.455
32.601
32.761
32.933
33.115
33.305
33.5
33.698
33.895
34.087
34.273
34.449
34.611
34.759
34.891
35.006
35.104
35.184
35.247
35.296
35.329
35.349
35.356
35.352
35.338
35.316
35.287
35.252
35.212
35.169
35.124
35.078
35.032
34.988
34.944
34.903
34.865
34.83
34.798
34.769
34.743
34.719
34.697
34.676
34.656
34.636
34.615
34.594
34.574
34.553
34.534
34.517
34.502
34.489
34.478
34.468
34.459
34.45
34.442
34.433
34.424
34.415
34.405
34.395
34.384
34.372
34.359
34.344
34.328
34.311
34.295
34.278
34.262
34.247
34.235
34.226
34.221
34.22
34.223
34.232
34.246
34.264
34.286
34.312
34.341
34.371
34.401
34.429
34.454
34.473
34.487
34.493
34.494
34.488
34.476
34.461
34.442
34.422
34.402
34.381
34.362
34.344
34.329
34.315
34.303
34.292
34.283
34.275
34.267
34.259
34.251
34.242
34.232
34.222
34.21
34.198
34.184
34.169
34.153
34.135
34.116
34.096
34.073
34.05
34.025
34.0
33.975
33.95
33.924
33.899
33.874
33.848
33.823
33.798
33.773
33.748
33.722
33.695
33.667
33.638
33.607
33.575
33.542
33.508
33.474
33.44
33.408
33.379
33.352
33.33
33.313
33.303
33.301
33.308
33.326
33.357
33.402
33.46
33.531
33.615
33.71
33.814
33.927
34.047
34.172
34.297
34.422
34.543
34.658
34.765
34.863
34.951
35.029
35.098
35.156
35.204
35.244
35.275
35.299
35.316
35.326
35.328
35.325
35.315
35.298
35.277
35.251
35.222
35.19
35.157
35.124
35.091
35.058
35.025
34.993
34.962
34.93
34.9
34.87
34.842
34.814
34.787
34.761
34.736
34.713
34.69
34.669
34.648
34.627
34.605
34.583
34.559
34.533
34.505
34.474
34.442
34.409
34.375
34.341
34.307
34.274
34.243
34.215
34.19
34.169
34.153
34.141
34.136
34.135
34.141
34.151
34.167
34.187
34.212
34.24
34.272
34.307
34.345
34.383
34.423
34.462
34.501
34.539
34.575
34.609
34.64
34.669
34.695
34.719
34.739
34.757
34.771
34.782
34.789
34.793
34.793
34.789
34.782
34.772
34.758
34.741
34.721
34.698
34.672
34.645
34.614
34.582
34.546
34.508
34.467
34.423
34.376
34.326
34.274
34.218
34.16
34.099
34.035
33.968
33.898
33.824
33.746
33.664
33.578
33.489
33.398
33.305
33.212
33.119
33.027
32.939
32.856
32.778
32.707
32.644
32.588
32.54
32.499
32.465
32.437
32.415
32.397
32.382
32.368
32.355
32.342
32.327
32.311
32.294
32.276
32.256
32.237
32.219
32.206
32.198
32.2
32.214
32.242
32.286
32.348
32.428
32.526
32.64
32.768
32.909
33.06
33.217
33.378
33.539
33.697
33.849
33.993
34.128
34.25
34.36
34.456
34.538
34.606
34.662
34.706
34.74
34.764
34.781
34.792
34.797
34.798
34.796
34.792
34.785
34.777
34.767
34.755
34.742
34.727
34.71
34.692
34.673
34.654
34.634
34.614
34.595
34.576
34.557
34.538
34.519
34.501
34.482
34.465
34.448
34.432
34.417
34.402
34.387
34.372
34.358
34.342
34.326
34.308
34.29
34.271
34.252
34.234
34.216
34.2
34.186
34.174
34.164
34.157
34.154
34.154
34.158
34.166
34.176
34.189
34.203
34.218
34.233
34.248
34.261
34.273
34.283
34.291
34.296
34.299
34.301
34.3
34.299
34.298
34.297
34.296
34.297
34.299
34.304
34.31
34.319
34.329
34.341
34.352
34.362
34.371
34.377
34.379
34.377
34.371
34.36
34.345
34.327
34.307
34.284
34.26
34.235
34.209
34.184
34.161
34.139
34.12
34.103
34.09
34.08
34.073
34.069
34.067
34.069
34.073
34.079
34.087
34.097
34.107
34.118
34.129
34.139
34.148
34.155
34.16
34.162
34.162
34.159
34.154
34.146
34.137
34.125
34.111
34.095
34.077
34.057
34.035
34.011
33.986
33.961
33.935
33.911
33.888
33.868
33.852
33.841
33.837
33.842
33.859
33.891
33.938
34.003
34.086
34.188
34.308
34.444
34.594
34.757
34.93
35.11
35.293
35.476
35.657
35.831
35.998
36.154
36.298
36.428
36.545
36.648
36.737
36.812
36.873
36.921
36.956
36.98
36.994
36.997
36.992
36.979
36.958
36.929
36.894
36.852
36.806
36.754
36.699
36.641
36.581
36.519
36.457
36.395
36.334
36.274
36.217
36.161
36.107
36.055
36.004
35.954
35.905
35.856
35.808
35.76
35.713
35.667
35.62
35.575
35.529
35.483
35.438
35.392
35.345
35.296
35.246
35.195
35.142
35.088
35.034
34.98
34.927
34.875
34.824
34.776
34.73
34.686
34.646
34.61
34.578
34.551
34.528
34.51
34.497
34.488
34.484
34.484
34.488
34.495
34.506
34.519
34.534
34.55
34.566
34.581
34.594
34.604
34.612
34.617
34.62
34.62
34.618
34.615
34.609
34.602
34.594
34.583
34.571
34.557
34.541
34.523
34.502
34.48
34.454
34.427
34.397
34.365
34.331
34.297
34.262
34.228
34.194
34.163
34.135
34.111
34.09
34.073
34.059
34.048
34.039
34.031
34.025
34.019
34.011
34.003
33.992
33.98
33.964
33.946
33.924
33.899
33.87
33.837
33.8
33.76
33.718
33.675
33.631
33.587
33.545
33.505
33.468
33.435
33.408
33.385
33.369
33.36
33.358
33.364
33.38
33.405
33.443
33.493
33.557
33.636
33.729
33.836
33.957
34.09
34.232
34.383
34.54
34.7
34.861
35.019
35.174
35.322
35.462
35.591
35.708
35.811
35.9
35.974
36.033
36.077
36.108
36.125
36.13
36.125
36.109
36.085
36.052
36.014
35.97
35.922
35.872
35.821
35.769
35.718
35.667
35.617
35.568
35.519
35.471
35.423
35.377
35.333
35.29
35.249
35.211
35.176
35.141
35.108
35.076
35.043
35.01
34.976
34.942
34.907
34.871
34.835
34.799
34.765
34.732
34.701
34.673
34.647
34.625
34.606
34.592
34.582
34.578
34.579
34.586
34.598
34.616
34.64
34.667
34.698
34.73
34.764
34.797
34.83
34.862
34.892
34.921
34.948
34.972
34.994
35.012
35.027
35.038
35.044
35.047
35.046
35.043
35.036
35.028
35.018
35.008
34.998
34.988
34.979
34.97
34.962
34.955
34.948
34.941
34.935
34.928
34.921
34.914
34.907
34.899
34.891
34.883
34.875
34.867
34.858
34.849
34.839
34.827
34.813
34.795
34.775
34.751
34.724
34.694
34.662
34.627
34.59
34.55
34.508
34.464
34.417
34.369
34.32
34.271
34.221
34.171
34.122
34.073
34.025
33.979
33.934
33.89
33.847
33.806
33.767
33.731
33.697
33.665
33.637
33.612
33.592
33.576
33.566
33.563
33.568
33.585
33.613
33.657
33.716
33.793
33.889
34.003
34.134
34.283
34.448
34.626
34.815
35.011
35.212
35.415
35.616
35.812
36.001
36.181
36.35
36.506
36.65
36.78
36.896
36.998
37.086
37.161
37.222
37.27
37.306
37.33
37.343
37.346
37.339
37.324
37.302
37.274
37.242
37.205
37.166
37.124
37.08
37.035
36.989
36.942
36.895
36.847
36.8
36.752
36.705
36.659
36.614
36.57
36.527
36.485
36.444
36.403
36.363
36.323
36.283
36.242
36.201
36.161
36.12
36.079
36.038
35.996
35.955
35.913
35.872
35.831
35.79
35.751
35.713
35.676
35.643
35.613
35.586
35.563
35.544
35.528
35.517
35.509
35.504
35.503
35.504
35.507
35.512
35.518
35.526
35.536
35.546
35.557
35.568
35.58
35.591
35.602
35.612
35.62
35.626
35.629
35.63
35.629
35.625
35.618
35.606
35.591
35.572
35.55
35.525
35.496
35.464
35.429
35.389
35.346
35.298
35.247
35.192
35.134
35.074
35.012
34.95
34.888
34.827
34.768
34.711
34.656
34.603
34.553
34.505
34.459
34.415
34.372
34.331
34.292
34.254
34.218
34.183
34.15
34.119
34.091
34.065
34.042
34.022
34.003
33.987
33.971
33.955
33.939
33.922
33.905
33.888
33.87
33.853
33.836
33.822
33.81
33.804
33.804
33.813
33.833
33.865
33.913
33.978
34.061
34.164
34.287
34.43
34.592
34.772
34.968
35.178
35.398
35.626
35.858
36.091
36.321
36.546
36.762
36.967
37.16
37.338
37.501
37.649
37.781
37.898
38.0
38.089
38.165
38.229
38.283
38.328
38.364
38.393
38.416
38.434
38.447
38.456
38.462
38.464
38.464
38.461
38.456
38.449
38.439
38.426
38.41
38.392
38.37
38.346
38.319
38.289
38.256
38.219
38.179
38.134
38.085
38.032
37.974
37.913
37.849
37.782
37.713
37.643
37.571
37.498
37.425
37.351
37.278
37.207
37.138
37.071
37.008
36.949
36.895
36.846
36.802
36.763
36.729
36.701
36.676
36.654
36.635
36.619
36.606
36.594
36.586
36.579
36.575
36.573
36.572
36.572
36.572
36.573
36.573
36.572
36.57
36.566
36.56
36.55
36.539
36.525
36.509
36.492
36.474
36.456
36.438
36.419
36.401
36.383
36.364
36.345
36.324
36.301
36.277
36.25
36.221
36.188
36.154
36.116
36.075
36.032
35.986
35.939
35.889
35.839
35.789
35.738
35.687
35.636
35.585
35.533
35.481
35.427
35.373
35.317
35.261
35.203
35.146
35.088
35.031
34.974
34.917
34.861
34.807
34.753
34.702
34.653
34.606
34.561
34.518
34.476
34.436
34.398
34.363
34.33
34.303
34.282
34.271
34.27
34.283
34.312
34.358
34.425
34.512
34.621
34.751
34.903
35.074
35.263
35.466
35.68
35.903
36.13
36.36
36.588
36.813
37.031
37.24
37.439
37.626
37.801
37.962
38.111
38.245
38.366
38.473
38.566
38.645
38.709
38.76
38.798
38.824
38.838
38.842
38.836
38.821
38.799
38.768
38.731
38.688
38.64
38.588
38.531
38.471
38.408
38.343
38.276
38.207
38.138
38.068
37.998
37.927
37.855
37.783
37.711
37.639
37.566
37.492
37.418
37.343
37.267
37.19
37.112
37.034
36.956
36.878
36.8
36.723
36.647
36.574
36.503
36.436
36.374
36.316
36.264
36.217
36.177
36.142
36.112
36.088
36.068
36.052
36.039
36.028
36.019
36.009
35.999
35.987
35.974
35.958
35.94
35.919
35.897
35.872
35.845
35.818
35.79
35.762
35.734
35.707
35.681
35.655
35.629
35.604
35.577
35.55
35.521
35.49
35.457
35.422
35.385
35.346
35.305
35.262
35.217
35.17
35.12
35.069
35.016
34.963
34.91
34.858
34.807
34.758
34.709
34.662
34.616
34.571
34.527
34.484
34.442
34.402
34.363
34.326
34.29
34.255
34.221
34.187
34.153
34.12
34.086
34.051
34.015
33.979
33.942
33.905
33.868
33.83
33.793
33.755
33.718
33.682
33.647
33.615
33.588
33.569
33.559
33.563
33.583
33.622
33.684
33.769
33.878
34.012
34.17
34.351
34.554
34.776
35.013
35.261
35.518
35.779
36.042
36.302
36.556
36.803
37.038
37.26
37.468
37.661
37.837
37.996
38.138
38.263
38.37
38.461
38.535
38.594
38.638
38.669
38.687
38.693
38.69
38.679
38.66
38.636
38.606
38.57
38.531
38.487
38.44
38.389
38.335
38.277
38.215
38.149
38.079
38.005
37.927
37.847
37.764
37.679
37.593
37.505
37.417
37.329
37.242
37.158
37.076
36.998
36.925
36.857
36.795
36.738
36.687
36.642
36.604
36.574
36.551
36.535
36.526
36.522
36.525
36.532
36.544
36.56
36.579
36.601
36.625
36.649
36.675
36.701
36.727
36.753
36.779
36.804
36.828
36.849
36.867
36.881
36.892
36.899
36.902
36.901
36.896
36.888
36.876
36.861
36.844
36.824
36.801
36.776
36.748
36.717
36.684
36.649
36.611
36.57
36.527
36.481
36.431
36.379
36.324
36.266
36.207
36.145
36.084
36.022
35.959
35.898
35.838
35.779
35.722
35.668
35.616
35.566
35.519
35.475
35.434
35.396
35.36
35.324
35.289
35.252
35.214
35.173
35.13
35.084
35.036
34.985
34.931
34.874
34.814
34.751
34.687
34.621
34.554
34.488
34.422
34.359
34.299
34.246
34.2
34.165
34.145
34.142
34.158
34.198
34.262
34.351
34.467
34.609
34.775
34.965
35.176
35.404
35.646
35.9
36.16
36.422
36.684
36.941
37.19
37.429
37.657
37.87
38.067
38.249
38.412
38.558
38.685
38.794
38.884
38.957
39.012
39.05
39.073
39.081
39.077
39.06
39.033
38.997
38.953
38.901
38.843
38.78
38.713
38.642
38.567
38.49
38.411
38.329
38.244
38.157
38.066
37.971
37.874
37.775
37.674
37.572
37.47
37.368
37.266
37.165
37.065
36.966
36.868
36.772
36.678
36.586
36.498
36.414
36.334
36.258
36.189
36.128
36.076
36.034
36.003
35.981
35.968
35.961
35.96
35.962
35.966
35.971
35.975
35.978
35.98
35.979
35.977
35.973
35.967
35.96
35.951
35.942
35.932
35.923
35.915
35.909
35.904
35.901
35.901
35.904
35.911
35.923
35.94
35.962
35.988
36.017
36.045
36.069
36.087
36.095
36.093
36.08
36.058
36.028
35.991
35.95
35.905
35.857
35.808
35.758
35.707
35.657
35.608
35.56
35.512
35.464
35.416
35.368
35.319
35.269
35.218
35.167
35.114
35.062
35.009
34.956
34.904
34.852
34.801
34.751
34.704
34.658
34.615
34.573
34.534
34.496
34.461
34.428
34.4
34.379
34.365
34.363
34.374
34.4
34.445
34.509
34.594
34.701
34.83
34.98
35.152
35.344
35.554
35.78
36.018
36.266
36.52
36.775
37.03
37.28
37.523
37.755
37.976
38.182
38.373
38.547
38.704
38.842
38.963
39.066
39.153
39.223
39.278
39.317
39.343
39.356
39.357
39.347
39.326
39.297
39.26
39.215
39.164
39.106
39.044
38.978
38.907
38.833
38.756
38.677
38.595
38.511
38.424
38.335
38.243
38.148
38.05
37.95
37.848
37.743
37.636
37.528
37.42
37.313
37.208
37.108
37.012
36.923
36.839
36.762
36.693
36.632
36.578
36.533
36.495
36.465
36.441
36.424
36.413
36.409
36.409
36.415
36.424
36.437
36.453
36.47
36.488
36.506
36.523
36.539
36.553
36.563
36.569
36.57
36.566
36.557
36.542
36.522
36.498
36.47
36.438
36.405
36.369
36.331
36.292
36.251
36.209
36.165
36.12
36.073
36.026
35.976
35.926
35.873
35.819
35.764
35.707
35.648
35.588
35.526
35.464
35.401
35.338
35.277
35.217
35.158
35.102
35.048
34.997
34.948
34.9
34.854
34.809
34.763
34.717
34.669
34.62
34.569
34.517
34.464
34.41
34.357
34.304
34.252
34.202
34.153
34.107
34.064
34.026
33.993
33.968
33.953
33.951
33.965
33.997
34.05
34.127
34.23
34.36
34.518
34.704
34.917
35.157
35.422
35.709
36.016
36.339
36.676
37.021
37.371
37.72
38.065
38.4
38.722
39.026
39.309
39.57
39.805
40.014
40.196
40.351
40.479
40.581
40.661
40.718
40.755
40.774
40.776
40.764
40.739
40.705
40.664
40.616
40.565
40.512
40.458
40.404
40.35
40.298
40.246
40.195
40.144
40.091
40.037
39.98
39.92
39.856
39.789
39.717
39.641
39.561
39.476
39.388
39.296
39.201
39.104
39.007
38.909
38.812
38.717
38.626
38.539
38.457
38.38
38.308
38.244
38.186
38.136
38.093
38.056
38.026
38.0
37.978
37.958
37.94
37.924
37.907
37.89
37.872
37.853
37.832
37.81
37.785
37.759
37.731
37.701
37.671
37.639
37.606
37.571
37.534
37.495
37.453
37.408
37.358
37.304
37.245
37.182
37.114
37.041
36.965
36.885
36.802
36.717
36.629
36.539
36.447
36.356
36.264
36.175
36.09
36.008
35.932
35.861
35.798
35.741
35.691
35.648
35.612
35.581
35.556
35.536
35.518
35.502
35.487
35.471
35.454
35.435
35.412
35.385
35.353
35.316
35.272
35.222
35.167
35.107
35.043
34.977
34.911
34.847
34.789
34.74
34.704
34.684
34.684
34.708
34.759
34.839
34.949
35.09
35.261
35.461
35.689
35.941
36.214
36.505
36.811
37.127
37.448
37.772
38.094
38.409
38.714
39.006
39.281
39.537
39.771
39.983
40.171
40.335
40.476
40.592
40.686
40.758
40.809
40.842
40.858
40.859
40.847
40.823
40.789
40.748
40.699
40.646
40.588
40.528
40.466
