Trial 1:0back
34.943
34.937
34.929
34.919
34.908
34.895
34.882
34.87
34.858
34.848
34.839
34.831
34.824
34.819
34.815
34.814
34.814
34.816
34.819
34.822
34.826
34.83
34.834
34.839
34.843
34.847
34.849
34.85
34.849
34.846
34.844
34.84
34.836
34.83
34.823
34.815
34.806
34.796
34.786
34.776
34.767
34.759
34.751
34.744
34.738
34.733
34.729
34.727
34.726
34.726
34.726
34.726
34.725
34.726
34.726
34.727
34.728
34.728
34.727
34.725
34.72
34.714
34.706
34.697
34.688
34.677
34.667
34.656
34.646
34.638
34.631
34.626
34.621
34.616
34.61
34.605
34.599
34.594
34.591
34.589
34.589
34.59
34.592
34.594
34.597
34.601
34.606
34.611
34.617
34.622
34.63
34.639
34.652
34.669
34.691
34.72
34.755
34.797
34.846
34.902
34.966
35.036
35.112
35.193
35.277
35.362
35.447
35.53
35.609
35.684
35.752
35.811
35.859
35.897
35.924
35.941
35.948
35.948
35.94
35.925
35.904
35.878
35.849
35.818
35.786
35.756
35.727
35.699
35.673
35.649
35.626
35.605
35.584
35.565
35.546
35.528
35.509
35.489
35.467
35.446
35.424
35.401
35.379
35.356
35.332
35.307
35.283
35.259
35.235
35.213
35.192
35.172
35.154
35.137
35.122
35.109
35.098
35.089
35.082
35.076
35.071
35.068
35.067
35.068
35.072
35.078
35.087
35.098
35.111
35.124
35.139
35.154
35.17
35.187
35.204
35.222
35.239
35.255
35.271
35.286
35.3
35.314
35.325
35.335
35.343
35.348
35.351
35.353
35.353
35.353
35.351
35.347
35.343
35.337
35.33
35.322
35.313
35.303
35.292
35.28
35.266
35.252
35.237
35.223
35.21
35.198
35.186
35.175
35.162
35.15
35.137
35.124
35.111
35.097
35.083
35.068
35.053
35.037
35.021
35.006
34.994
34.983
34.973
34.965
34.957
34.949
34.942
34.936
34.932
34.928
34.924
34.921
34.917
34.913
34.909
34.905
34.9
34.895
34.889
34.881
34.873
34.865
34.856
34.848
34.841
34.834
34.828
34.822
34.816
34.809
34.803
34.798
34.793
34.789
34.785
34.782
34.779
34.777
34.775
34.776
34.777
34.78
34.783
34.786
34.789
34.791
34.793
34.794
34.794
34.791
34.787
34.781
34.775
34.77
34.766
34.763
34.762
34.761
34.762
34.763
34.764
34.766
34.768
34.77
34.771
34.772
34.771
34.77
34.768
34.766
34.762
34.758
34.754
34.749
34.743
34.738
34.732
34.727
34.723
34.722
34.724
34.73
34.742
34.759
34.782
34.813
34.851
34.897
34.949
35.008
35.073
35.143
35.216
35.292
35.369
35.446
35.52
35.59
35.655
35.713
35.764
35.808
35.844
35.873
35.895
35.91
35.918
35.92
35.916
35.908
35.895
35.879
35.859
35.837
35.813
35.786
35.759
35.731
35.703
35.676
35.649
35.623
35.599
35.575
35.552
35.529
35.506
35.483
35.46
35.438
35.415
35.393
35.372
35.35
35.33
35.31
35.29
35.271
35.252
35.233
35.215
35.198
35.182
35.168
35.155
35.145
35.137
35.131
35.127
35.124
35.124
35.125
35.127
35.129
35.132
35.135
35.139
35.144
35.151
35.16
35.171
35.185
35.2
35.217
35.235
35.252
35.27
35.288
35.305
35.321
35.334
35.346
35.355
35.361
35.365
35.367
35.367
35.364
35.359
35.352
35.342
35.331
35.318
35.305
35.292
35.279
35.267
35.256
35.245
35.234
35.223
35.213
35.204
35.195
35.187
35.179
35.171
35.163
35.154
35.144
35.133
35.121
35.109
35.095
35.08
35.063
35.046
35.028
35.012
34.998
34.985
34.974
34.965
34.958
34.953
34.949
34.946
34.944
34.942
34.939
34.935
34.93
34.924
34.918
34.912
34.906
34.899
34.89
34.88
34.868
34.855
34.842
34.829
34.817
34.805
34.794
34.785
34.778
34.772
34.769
34.768
34.768
34.769
34.769
34.77
34.77
34.771
34.772
34.774
34.776
34.779
34.781
34.783
34.784
34.786
34.787
34.788
34.789
34.79
34.789
34.789
34.789
34.791
34.793
34.797
34.801
34.804
34.805
34.806
34.804
34.802
34.799
34.795
34.789
34.782
34.774
34.765
34.755
34.746
34.738
34.731
34.724
34.718
34.711
34.705
34.699
34.695
34.691
34.69
34.69
34.692
34.698
34.707
34.721
34.742
34.768
34.801
34.839
34.884
34.936
34.994
35.058
35.129
35.204
35.283
35.363
35.444
35.523
35.599
35.671
35.738
35.801
35.858
35.907
35.95
35.984
36.012
36.033
36.049
36.06
36.066
36.067
36.063
36.053
36.04
36.023
36.004
35.984
35.963
35.94
35.916
35.889
35.861
35.833
35.804
35.776
35.749
35.724
35.698
35.673
35.646
35.62
35.594
35.569
35.547
35.525
35.505
35.485
35.466
35.448
35.43
35.414
35.398
35.382
35.366
35.349
35.332
35.315
35.3
35.287
35.277
35.269
35.263
35.258
35.257
35.257
35.261
35.267
35.276
35.285
35.295
35.307
35.319
35.332
35.346
35.36
35.375
35.389
35.402
35.413
35.424
35.435
35.446
35.456
35.467
35.476
35.483
35.49
35.496
35.502
35.508
35.513
35.517
35.519
35.518
35.514
35.506
35.496
35.483
35.468
35.451
35.431
35.41
35.388
35.366
35.345
35.324
35.305
35.286
35.269
35.254
35.241
35.231
35.223
35.218
35.214
35.212
35.21
35.208
35.204
35.198
35.191
35.184
35.175
35.166
35.157
35.147
35.136
35.124
35.113
35.102
35.09
35.079
35.066
35.054
35.042
35.03
35.019
35.01
35.002
34.996
34.99
34.984
34.979
34.973
34.968
34.962
34.956
34.95
34.943
34.936
34.929
34.923
34.916
34.91
34.904
34.897
34.891
34.884
34.878
34.871
34.866
34.861
34.857
34.854
34.853
34.853
34.854
34.857
34.861
34.867
34.872
34.877
34.882
34.886
34.889
34.891
34.893
34.894
34.894
34.893
34.891
34.887
34.881
34.875
34.869
34.862
34.855
34.847
34.838
34.83
34.823
34.817
34.814
34.812
34.811
34.813
34.815
34.82
34.827
34.836
34.849
34.864
34.884
34.907
34.935
34.969
35.008
35.055
35.107
35.166
35.231
35.3
35.372
35.447
35.522
35.598
35.672
35.743
35.811
35.874
35.931
35.983
36.029
36.068
36.101
36.127
36.146
36.159
36.165
36.165
36.159
36.148
36.132
36.112
36.089
36.063
36.035
36.006
35.977
35.947
35.919
35.893
35.868
35.844
35.822
35.8
35.78
35.76
35.742
35.724
35.707
35.689
35.671
35.651
35.63
35.608
35.585
35.561
35.537
35.512
35.485
35.458
35.431
35.405
35.381
35.359
35.34
35.324
35.311
35.301
35.294
35.291
35.292
35.298
35.307
35.319
35.332
35.347
35.361
35.376
35.392
35.408
35.423
35.438
35.451
35.463
35.474
35.484
35.494
35.503
35.511
35.519
35.526
35.533
35.539
35.546
35.553
35.561
35.568
35.575
35.58
35.583
35.585
35.586
35.585
35.583
35.578
35.569
35.558
35.543
35.526
35.508
35.488
35.467
35.446
35.423
35.4
35.377
35.355
35.335
35.317
35.301
35.287
35.274
35.262
35.252
35.243
35.235
35.229
35.222
35.214
35.206
35.196
35.185
35.174
35.163
35.152
35.141
35.131
35.121
35.111
35.101
35.092
35.083
35.075
35.068
35.061
35.054
35.047
35.042
35.037
35.034
35.031
35.028
35.025
35.021
35.016
35.011
35.006
35.003
35.001
34.999
34.998
34.997
34.996
34.995
34.995
34.995
34.996
34.996
34.996
34.996
34.995
34.995
34.995
34.995
34.995
34.994
34.992
34.988
34.982
34.976
34.969
34.962
34.953
34.944
34.934
34.924
34.914
34.905
34.898
34.892
34.888
34.884
34.88
34.876
34.872
34.868
34.864
34.861
34.857
34.853
34.849
34.844
34.841
34.839
34.84
34.843
34.849
34.856
34.866
34.879
34.896
34.919
34.948
34.984
35.027
35.077
35.133
35.196
35.266
35.341
35.422
35.507
35.595
35.683
35.77
35.853
35.932
36.004
36.071
36.131
36.183
36.226
36.259
36.283
36.297
36.303
36.301
36.292
36.278
36.258
36.235
36.208
36.18
36.151
36.122
36.093
36.064
36.036
36.007
35.979
35.951
35.925
35.9
35.876
35.852
35.828
35.804
35.778
35.751
35.724
35.698
35.672
35.648
35.625
35.602
35.581
35.56
35.541
35.523
35.506
35.488
35.47
35.451
35.431
35.41
35.39
35.371
35.355
35.34
35.329
35.319
35.313
35.31
35.31
35.314
35.321
35.331
35.344
35.36
35.377
35.396
35.417
35.438
35.46
35.481
35.502
35.521
35.539
35.557
35.574
35.59
35.606
35.62
35.632
35.64
35.644
35.647
35.647
35.645
35.643
35.639
35.634
35.628
35.62
35.61
35.6
35.589
35.577
35.565
35.552
35.538
35.523
35.507
35.491
35.475
35.459
35.444
35.43
35.417
35.405
35.393
35.381
35.369
35.356
35.344
35.33
35.316
35.301
35.284
35.268
35.253
35.238
35.225
35.214
35.203
35.192
35.181
35.171
35.16
35.15
35.139
35.13
35.12
35.112
35.104
35.097
35.09
35.083
35.076
35.067
35.058
35.049
35.039
35.03
35.02
35.012
35.004
34.998
34.994
34.991
34.991
34.993
34.996
34.999
35.002
35.005
35.007
35.009
35.01
35.012
35.013
35.015
35.016
35.015
35.014
35.01
35.005
34.999
34.99
34.981
34.971
34.961
34.951
34.942
34.933
34.926
34.92
34.915
34.913
34.912
34.912
34.914
34.918
34.923
34.93
34.937
34.944
34.951
34.959
34.969
34.981
34.996
35.015
35.037
35.064
35.096
35.134
35.178
35.229
35.286
35.35
35.418
35.49
35.564
35.64
35.717
35.793
35.867
35.937
36.001
36.058
36.108
36.149
36.182
36.206
36.222
36.229
36.227
36.219
36.204
36.185
36.162
36.136
36.108
36.08
36.052
36.025
35.999
35.974
35.949
35.926
35.903
35.882
35.861
35.84
35.819
35.797
35.775
35.751
35.727
35.702
35.676
35.649
35.62
35.591
35.561
35.532
35.504
35.478
35.455
35.433
35.414
35.396
35.382
35.369
35.358
35.349
35.342
35.337
35.333
35.331
35.33
35.33
35.332
35.335
35.34
35.347
35.355
35.365
35.377
35.391
35.407
35.426
35.447
35.469
35.493
35.516
35.539
35.56
35.58
35.598
35.614
35.627
35.637
35.643
35.646
35.647
35.644
35.639
35.632
35.624
35.613
35.601
35.588
35.573
35.557
35.541
35.526
35.511
35.497
35.484
35.471
35.46
35.45
35.441
35.432
35.424
35.414
35.404
35.394
35.382
35.371
35.359
35.347
35.335
35.323
35.311
35.299
35.287
35.274
35.262
35.248
35.234
35.22
35.204
35.188
35.173
35.159
35.147
35.137
35.127
35.119
35.111
35.104
35.098
35.092
35.086
35.081
35.076
35.07
35.064
35.058
35.052
35.045
35.038
35.03
35.023
35.017
35.011
35.005
34.999
34.994
34.99
34.987
34.984
34.982
34.98
34.978
34.975
34.973
34.971
34.969
34.967
34.964
34.962
34.959
34.956
34.952
34.949
34.946
34.944
34.942
34.942
34.945
34.951
34.963
34.98
35.003
35.033
35.071
35.117
35.171
35.233
35.302
35.377
35.457
35.538
35.622
35.705
35.788
35.87
35.949
36.026
36.098
36.165
36.226
36.281
36.33
36.371
36.405
36.433
36.453
36.468
36.476
36.478
36.473
36.463
36.447
36.426
36.402
36.374
36.344
36.311
36.276
36.24
36.205
36.17
36.137
36.106
36.076
36.046
36.016
35.986
35.956
35.927
35.9
35.874
35.85
35.828
35.806
35.785
35.765
35.745
35.727
35.709
35.691
35.672
35.653
35.633
35.613
35.595
35.579
35.564
35.553
35.543
35.535
35.529
35.526
35.526
35.528
35.533
35.54
35.55
35.561
35.574
35.587
35.6
35.614
35.627
35.64
35.652
35.663
35.674
35.683
35.693
35.702
35.713
35.724
35.735
35.745
35.753
35.761
35.767
35.771
35.775
35.777
35.778
35.777
35.773
35.768
35.761
35.752
35.742
35.732
35.721
35.708
35.695
35.681
35.668
35.654
35.642
35.629
35.617
35.604
35.59
35.575
35.559
35.542
35.525
35.507
35.488
35.468
35.446
35.423
35.4
35.378
35.357
35.337
35.319
35.302
35.286
35.271
35.258
35.247
35.239
35.232
35.226
35.223
35.22
35.219
35.219
35.219
35.22
35.221
35.22
35.218
35.212
35.205
35.196
35.186
35.176
35.166
35.156
35.146
35.135
35.126
35.118
35.112
35.107
35.104
35.103
35.103
35.104
35.105
35.107
35.11
35.112
35.113
35.112
35.108
35.101
35.093
35.083
35.073
35.063
35.053
35.044
35.034
35.025
35.017
35.01
35.004
35.0
34.998
34.996
34.996
34.997
35.001
35.008
35.018
35.033
35.052
35.076
35.106
35.143
35.188
35.241
35.303
35.371
35.446
35.526
35.61
35.698
35.789
35.882
35.975
36.066
36.153
36.236
36.313
36.384
36.449
36.507
36.558
36.602
36.637
36.663
36.68
36.686
36.684
36.673
36.656
36.633
36.607
36.577
36.545
36.513
36.48
36.449
36.42
36.393
36.37
36.349
36.33
36.311
36.294
36.278
36.263
36.249
36.235
36.22
36.202
36.181
36.157
36.131
36.103
36.074
36.045
36.017
35.989
35.961
35.934
35.908
35.884
35.861
35.84
35.821
35.803
35.787
35.772
35.759
35.749
35.742
35.739
35.738
35.74
35.745
35.752
35.76
35.77
35.781
35.794
35.809
35.825
35.843
35.862
35.882
35.902
35.922
35.942
35.961
35.977
35.991
36.001
36.008
36.013
36.016
36.017
36.014
36.01
36.002
35.993
35.982
35.97
35.959
35.947
35.935
35.922
35.909
35.894
35.879
35.864
35.848
35.832
35.817
35.801
35.785
35.768
35.75
35.73
35.71
35.69
35.67
35.649
35.628
35.607
35.588
35.57
35.553
35.538
35.523
35.508
35.493
35.478
35.463
35.45
35.438
35.428
35.418
35.408
35.398
35.387
35.377
35.366
35.355
35.344
35.331
35.318
35.305
35.291
35.277
35.265
35.254
35.244
35.234
35.226
35.218
35.212
35.207
35.204
35.202
35.203
35.205
35.208
35.21
35.211
35.211
35.21
35.208
35.205
35.2
35.194
35.186
35.177
35.166
35.156
35.148
35.141
35.135
35.13
35.125
35.12
35.116
35.113
35.11
35.108
35.106
35.104
35.101
35.098
35.094
35.091
35.086
35.081
35.075
35.068
35.059
35.051
35.044
35.039
35.037
35.04
35.048
35.063
35.084
35.114
35.152
35.2
35.257
35.322
35.394
35.473
35.558
35.649
35.744
35.842
35.942
36.042
36.139
36.232
36.32
36.401
36.476
36.542
36.601
36.65
36.691
36.724
36.748
36.766
36.777
36.782
36.781
36.774
36.763
36.746
36.726
36.701
36.675
36.646
36.616
36.585
36.553
36.52
36.488
36.457
36.427
36.399
36.371
36.345
36.319
36.293
36.269
36.245
36.221
36.198
36.174
36.15
36.125
36.099
36.072
36.045
36.018
35.992
35.966
35.939
35.912
35.884
35.856
35.829
35.804
35.781
35.762
35.747
35.736
35.729
35.727
35.731
35.74
35.753
35.77
35.789
35.81
35.831
35.853
35.874
35.895
35.915
35.934
35.95
35.963
35.972
35.978
35.981
35.982
35.981
35.978
35.974
35.969
35.963
35.957
35.951
35.945
35.941
35.937
35.932
35.927
35.919
35.91
35.9
35.89
35.88
35.87
35.859
35.847
35.833
35.818
35.802
35.786
35.769
35.75
35.732
35.712
35.691
35.67
35.65
35.631
35.615
35.602
35.59
35.58
35.57
35.561
35.552
35.544
35.534
35.524
35.511
35.496
35.478
35.458
35.437
35.414
35.392
35.37
35.348
35.326
35.305
35.286
35.269
35.254
35.243
35.233
35.225
35.218
35.212
35.206
35.201
35.196
35.192
35.186
35.18
35.173
35.165
35.156
35.148
35.139
35.131
35.121
35.112
35.101
35.09
35.079
35.069
35.061
35.054
35.048
35.042
35.036
35.031
35.025
35.02
35.016
35.011
35.006
35.001
34.996
34.991
34.987
34.985
34.984
34.985
34.987
34.989
34.991
34.994
34.999
35.004
35.011
35.018
35.026
35.034
35.042
35.052
35.063
35.075
35.09
35.107
35.126
35.149
35.176
35.208
35.248
35.295
35.35
35.414
35.485
35.563
35.647
35.736
35.828
35.923
36.018
36.113
36.206
36.296
36.381
36.459
36.531
36.593
36.647
36.69
36.724
36.747
36.761
36.765
36.76
36.747
36.728
36.704
36.675
36.644
36.61
36.575
36.539
36.505
36.473
36.443
36.416
36.391
36.367
36.344
36.322
36.301
36.28
36.259
36.238
36.215
36.19
36.162
36.131
36.098
36.063
36.026
35.987
35.946
35.904
35.861
35.817
35.775
35.735
35.698
35.665
35.637
35.614
35.594
35.579
35.568
35.561
35.558
35.559
35.562
35.566
35.572
35.579
35.587
35.598
35.61
35.625
35.641
35.658
35.676
35.694
35.713
35.732
35.752
35.773
35.793
35.814
35.834
35.854
35.872
35.888
35.903
35.916
35.925
35.932
35.935
35.936
35.934
35.931
35.925
35.917
35.908
35.897
35.883
35.869
35.853
35.838
35.822
35.806
35.791
35.775
35.76
35.745
35.73
35.715
35.699
35.683
35.666
35.646
35.625
35.602
35.577
35.551
35.525
35.499
35.473
35.448
35.424
35.4
35.378
35.357
35.338
35.321
35.306
35.292
35.279
35.268
35.257
35.249
35.241
35.236
35.231
35.227
35.224
35.219
35.214
35.208
35.201
35.193
35.183
35.173
35.161
35.148
35.134
35.122
35.11
35.099
35.09
35.082
35.075
35.068
35.063
35.059
35.056
35.055
35.054
35.053
35.053
35.052
35.05
35.049
35.047
35.044
35.04
35.034
35.028
35.02
35.012
35.004
34.995
34.987
34.979
34.971
34.964
34.957
34.953
34.951
34.953
34.959
34.97
34.985
35.007
35.035
35.071
35.115
35.166
35.225
35.291
35.363
35.441
35.525
35.613
35.706
35.8
35.894
35.987
36.076
36.161
36.241
36.316
36.386
36.449
36.505
36.553
36.593
36.624
36.646
36.66
36.667
36.666
36.657
36.641
36.619
36.591
36.56
36.527
36.493
36.46
36.426
36.394
36.362
36.331
36.301
36.272
36.244
36.217
36.192
36.166
36.141
36.114
36.086
36.056
36.025
35.992
35.958
35.922
35.884
35.845
35.805
35.766
35.728
35.693
35.661
35.632
35.606
35.583
35.563
35.546
35.533
35.525
35.521
35.522
35.527
35.536
35.549
35.564
35.581
35.599
35.618
35.635
35.652
35.667
35.68
35.692
35.703
35.714
35.725
35.737
35.747
35.757
35.765
35.772
35.778
35.782
35.787
35.79
35.792
35.793
35.793
35.792
35.79
35.788
35.785
35.78
35.773
35.763
35.751
35.737
35.723
35.708
35.694
35.679
35.665
35.651
35.635
35.619
35.602
35.585
35.568
35.551
35.533
35.515
35.495
35.474
35.453
35.432
35.412
35.392
35.372
35.351
35.331
35.311
35.292
35.274
35.257
35.242
35.227
35.212
35.197
35.183
35.17
35.157
35.145
35.133
35.122
35.111
35.099
35.088
35.077
35.065
35.054
35.043
35.032
35.021
35.009
34.999
34.99
34.982
34.976
34.972
34.969
34.967
34.965
34.964
34.963
34.962
34.961
34.959
34.955
34.95
34.943
34.935
34.926
34.917
34.907
34.897
34.886
34.875
34.863
34.852
34.843
34.834
34.827
34.821
34.816
34.813
34.811
34.812
34.817
34.827
34.842
34.862
34.889
34.925
34.969
35.023
35.088
35.163
35.248
35.341
35.442
35.548
35.659
35.772
35.887
36.002
36.115
36.224
36.328
36.427
36.519
36.606
36.685
36.758
36.823
36.879
36.925
36.962
36.989
37.007
37.018
37.021
37.018
37.01
36.997
36.98
36.959
36.936
36.911
36.884
36.855
36.824
36.792
36.759
36.726
36.693
36.661
36.63
36.6
36.571
36.543
36.516
36.489
36.462
36.435
36.408
36.38
36.353
36.325
36.295
36.264
36.232
36.199
36.166
36.132
36.097
36.063
36.029
35.996
35.965
35.936
35.911
35.89
35.874
35.862
35.854
35.852
35.854
35.86
35.87
35.883
35.898
35.914
35.929
35.944
35.959
35.974
35.988
36.003
36.017
36.03
36.042
36.053
36.063
36.073
36.082
36.092
36.102
36.11
36.118
36.123
36.127
36.128
36.128
36.126
36.12
36.112
36.1
36.086
36.07
36.052
36.035
36.017
36.0
35.982
35.965
35.948
35.931
35.916
35.902
35.888
35.875
35.862
35.847
35.832
35.815
35.797
35.776
35.753
35.728
35.699
35.668
35.634
35.599
35.565
35.532
35.5
35.469
35.441
35.415
35.391
35.368
35.348
35.329
35.312
35.296
35.283
35.27
35.26
35.252
35.244
35.238
35.233
35.227
35.221
35.213
35.204
35.194
35.183
35.171
35.158
35.145
35.13
35.115
35.1
35.085
35.072
35.06
35.05
35.041
35.034
35.028
35.023
35.02
35.018
35.017
35.018
35.02
35.022
35.026
35.03
35.036
35.045
35.055
35.069
35.086
35.107
35.133
35.165
35.203
35.248
35.301
35.362
35.431
35.509
35.593
35.685
35.784
35.889
35.997
36.109
36.222
36.333
36.442
36.548
36.648
36.742
36.83
36.909
36.979
37.039
37.088
37.125
37.152
37.168
37.175
37.173
37.164
37.149
37.129
37.104
37.078
37.05
37.021
36.992
36.964
36.936
36.909
36.882
36.855
36.83
36.804
36.779
36.752
36.724
36.694
36.66
36.624
36.585
36.545
36.505
36.464
36.424
36.384
36.346
36.308
36.271
36.234
36.196
36.158
36.12
36.084
36.049
36.017
35.988
