Trial 1:0back
36.453
36.416
36.379
36.34
36.298
36.253
36.205
36.154
36.102
36.049
35.998
35.948
35.9
35.853
35.807
35.763
35.72
35.678
35.637
35.596
35.556
35.515
35.473
35.43
35.385
35.34
35.294
35.25
35.207
35.165
35.124
35.085
35.049
35.014
34.981
34.949
34.918
34.889
34.861
34.834
34.808
34.783
34.759
34.736
34.713
34.691
34.67
34.65
34.631
34.614
34.596
34.58
34.562
34.545
34.527
34.511
34.496
34.483
34.473
34.463
34.455
34.447
34.438
34.429
34.421
34.421
34.43
34.447
34.467
34.487
34.505
34.516
34.519
34.511
34.494
34.466
34.429
34.383
34.331
34.275
34.216
34.156
34.098
34.043
33.992
33.946
33.906
33.87
33.841
33.816
33.796
33.779
33.765
33.753
33.743
33.733
33.723
33.714
33.702
33.689
33.674
33.657
33.637
33.614
33.589
33.561
33.532
33.502
33.472
33.443
33.415
33.389
33.363
33.339
33.315
33.292
33.269
33.245
33.222
33.199
33.176
33.154
33.135
33.118
33.106
33.099
33.1
33.109
33.13
33.163
33.21
33.273
33.354
33.454
33.573
33.711
33.869
34.044
34.237
34.444
34.663
34.891
35.125
35.363
35.602
35.839
36.072
36.299
36.516
36.722
36.914
37.094
37.26
37.412
37.548
37.669
37.773
37.86
37.932
37.986
38.025
38.049
38.06
38.059
38.047
38.026
37.999
37.967
37.931
37.894
37.856
37.818
37.781
37.745
37.711
37.679
37.649
37.622
37.596
37.571
37.545
37.517
37.484
37.444
37.398
37.345
37.285
37.219
37.149
37.075
36.999
36.922
36.846
36.771
36.696
36.624
36.555
36.489
36.429
36.374
36.325
36.284
36.249
36.223
36.203
36.19
36.183
36.181
36.182
36.186
36.19
36.192
36.191
36.186
36.177
36.165
36.151
36.135
36.118
36.1
36.082
36.063
36.044
36.023
36.0
35.974
35.945
35.914
35.88
35.843
35.804
35.762
35.716
35.667
35.615
35.558
35.495
35.429
35.363
35.297
35.235
35.177
35.126
35.08
35.042
35.008
34.979
34.954
34.932
34.912
34.892
34.872
34.851
34.828
34.803
34.777
34.75
34.722
34.695
34.669
34.644
34.618
34.592
34.567
34.541
34.515
34.49
34.466
34.444
34.424
34.406
34.389
34.373
34.359
34.347
34.336
34.327
34.318
34.309
34.299
34.289
34.277
34.265
34.253
34.239
34.225
34.211
34.194
34.177
34.157
34.137
34.116
34.094
34.073
34.052
34.031
34.01
33.989
33.968
33.945
33.923
33.901
33.88
33.859
33.839
33.82
33.802
33.783
33.766
33.749
33.732
33.716
33.701
33.686
33.671
33.655
33.638
33.62
33.601
33.582
33.562
33.544
33.528
33.514
33.5
33.487
33.474
33.462
33.449
33.437
33.426
33.415
33.403
33.39
33.378
33.364
33.35
33.335
33.319
33.303
33.285
33.268
33.25
33.232
33.214
33.197
33.182
33.169
33.159
33.151
33.145
33.142
33.144
33.152
33.17
33.2
33.246
33.31
33.394
33.5
33.629
33.782
33.958
34.158
34.379
34.619
34.876
35.146
35.425
35.71
35.996
36.279
36.554
36.82
37.073
37.311
37.533
37.737
37.922
38.089
38.236
38.363
38.473
38.565
38.64
38.701
38.747
38.78
38.803
38.817
38.822
38.82
38.812
38.798
38.78
38.76
38.737
38.713
38.69
38.667
38.645
38.624
38.604
38.584
38.562
38.538
38.51
38.48
38.447
38.413
38.376
38.338
38.298
38.256
38.212
38.166
38.117
38.065
38.009
37.949
37.885
37.82
37.753
37.683
37.613
37.541
37.469
37.397
37.324
37.254
37.186
37.123
37.066
37.014
36.968
36.927
36.892
36.862
36.835
36.812
36.792
36.775
36.759
36.746
36.732
36.718
36.701
36.674
36.636
36.587
36.53
36.467
36.402
36.34
36.282
36.232
36.188
36.152
36.122
36.096
36.075
36.056
36.039
36.021
36.001
35.979
35.954
35.926
35.892
35.854
35.81
35.763
35.711
35.657
35.6
35.541
35.48
35.417
35.354
35.29
35.228
35.169
35.114
35.062
35.015
34.973
34.936
34.904
34.874
34.847
34.821
34.795
34.77
34.745
34.72
34.695
34.668
34.64
34.611
34.581
34.551
34.522
34.494
34.467
34.442
34.419
34.396
34.374
34.353
34.332
34.311
34.291
34.271
34.25
34.229
34.207
34.185
34.162
34.138
34.115
34.091
34.068
34.046
34.024
34.003
33.984
33.966
33.949
33.935
33.921
33.909
33.896
33.882
33.867
33.851
33.834
33.816
33.798
33.779
33.759
33.738
33.716
33.694
33.67
33.646
33.62
33.595
33.571
33.548
33.527
33.507
33.488
33.469
33.45
33.43
33.41
33.39
33.368
33.346
33.322
33.298
33.273
33.248
33.224
33.202
33.182
33.165
33.151
33.139
33.128
33.115
33.1
33.082
33.062
33.038
33.012
32.984
32.955
32.924
32.894
32.866
32.841
32.82
32.802
32.79
32.784
32.786
32.798
32.822
32.862
32.919
32.996
33.094
33.215
33.356
33.519
33.703
33.907
34.131
34.373
34.63
34.898
35.175
35.456
35.739
36.021
36.298
36.566
36.824
37.069
37.3
37.516
37.717
37.899
38.063
38.204
38.322
38.417
38.493
38.551
38.594
38.624
38.644
38.657
38.664
38.668
38.67
38.67
38.669
38.667
38.664
38.661
38.657
38.653
38.649
38.645
38.64
38.635
38.63
38.624
38.617
38.608
38.597
38.583
38.567
38.547
38.522
38.492
38.457
38.416
38.368
38.314
38.252
38.184
38.111
38.032
37.951
37.867
37.783
37.7
37.619
37.54
37.463
37.389
37.319
37.254
37.195
37.143
37.098
37.06
37.029
37.003
36.982
36.963
36.945
36.928
36.913
36.897
36.882
36.866
36.848
36.827
36.803
36.776
36.747
36.717
36.686
36.653
36.618
36.584
36.548
36.512
36.473
36.433
36.391
36.348
36.303
36.256
36.208
36.158
36.106
36.051
35.995
35.935
35.872
35.806
35.737
35.666
35.594
35.521
35.447
35.374
35.302
35.232
35.166
35.103
35.045
34.993
34.948
34.909
34.874
34.843
34.814
34.787
34.76
34.733
34.705
34.677
34.648
34.618
34.588
34.558
34.527
34.498
34.469
34.442
34.419
34.399
34.382
34.369
34.359
34.351
34.345
34.339
34.335
34.33
34.325
34.32
34.312
34.302
34.29
34.276
34.259
34.242
34.223
34.204
34.186
34.17
34.155
34.143
34.134
34.129
34.127
34.128
34.13
34.134
34.136
34.137
34.134
34.127
34.117
34.103
34.085
34.065
34.042
34.018
33.994
33.97
33.947
33.925
33.904
33.885
33.867
33.851
33.835
33.818
33.799
33.779
33.757
33.734
33.711
33.689
33.669
33.652
33.638
33.627
33.619
33.613
33.609
33.606
33.604
33.602
33.599
33.594
33.585
33.573
33.557
33.538
33.518
33.496
33.471
33.446
33.419
33.392
33.366
33.342
33.32
33.301
33.286
33.276
33.27
33.268
33.272
33.282
33.3
33.329
33.372
33.431
33.508
33.606
33.727
33.872
34.043
34.237
34.454
34.692
34.946
35.215
35.494
35.779
36.066
36.351
36.63
36.899
37.154
37.394
37.615
37.816
37.997
38.156
38.293
38.409
38.505
38.583
38.644
38.69
38.724
38.745
38.757
38.762
38.76
38.752
38.74
38.724
38.704
38.68
38.653
38.622
38.589
38.554
38.518
38.48
38.443
38.406
38.371
38.337
38.305
38.274
38.244
38.215
38.184
38.151
38.114
38.074
38.029
37.977
37.917
37.849
37.773
37.691
37.603
37.511
37.419
37.327
37.238
37.153
37.074
37.001
36.934
36.875
36.822
36.775
36.734
36.699
36.669
36.645
36.626
36.61
36.596
36.583
36.57
36.557
36.545
36.533
36.521
36.509
36.496
36.481
36.464
36.444
36.422
36.395
36.364
36.329
36.292
36.251
36.209
36.165
36.119
36.072
36.022
35.97
35.917
35.863
35.808
35.754
35.699
35.645
35.591
35.536
35.48
35.422
35.362
35.3
35.237
35.173
35.111
35.051
34.993
34.937
34.883
34.832
34.783
34.738
34.695
34.655
34.619
34.585
34.552
34.521
34.492
34.464
34.436
34.409
34.383
34.357
34.331
34.305
34.278
34.252
34.226
34.2
34.174
34.148
34.124
34.101
34.079
34.059
34.039
34.02
34.001
33.982
33.962
33.941
33.918
33.894
33.868
33.839
33.808
33.774
33.74
33.704
33.669
33.636
33.607
33.581
33.559
33.54
33.525
33.51
33.497
33.484
33.471
33.457
33.441
33.423
33.403
33.38
33.356
33.331
33.305
33.281
33.256
33.233
33.209
33.186
33.164
33.142
33.122
33.103
33.084
33.067
33.05
33.034
33.019
33.005
32.992
32.981
32.971
32.962
32.952
32.941
32.928
32.911
32.892
32.87
32.845
32.82
32.794
32.77
32.747
32.728
32.712
32.699
32.689
32.682
32.678
32.675
32.674
32.673
32.673
32.672
32.67
32.666
32.66
32.652
32.641
32.628
32.613
32.595
32.577
32.558
32.539
32.522
32.507
32.495
32.487
32.484
32.486
32.497
32.519
32.556
32.612
32.69
32.791
32.917
33.069
33.246
33.448
33.675
33.923
34.189
34.471
34.763
35.061
35.36
35.657
35.947
36.227
36.493
36.745
36.977
37.191
37.385
37.559
37.713
37.847
37.962
38.058
38.137
38.199
38.247
38.281
38.303
38.316
38.32
38.318
38.311
38.302
38.289
38.275
38.26
38.243
38.225
38.207
38.189
38.172
38.157
38.144
38.133
38.122
38.11
38.096
38.08
38.061
38.039
38.013
37.983
37.947
37.907
37.863
37.814
37.761
37.704
37.644
37.58
37.513
37.442
37.37
37.297
37.225
37.154
37.086
37.021
36.96
36.903
36.85
36.799
36.752
36.709
36.669
36.633
36.601
36.573
36.55
36.531
36.514
36.499
36.484
36.469
36.454
36.438
36.417
36.388
36.35
36.306
36.258
36.208
36.159
36.111
36.068
36.028
35.994
35.966
35.942
35.923
35.905
35.888
35.869
35.848
35.822
35.793
35.76
35.722
35.68
35.634
35.585
35.532
35.477
35.419
35.359
35.299
35.237
35.177
35.118
35.061
35.008
34.959
34.914
34.873
34.838
34.808
34.784
34.765
34.751
34.739
34.73
34.723
34.717
34.712
34.706
34.699
34.689
34.677
34.662
34.643
34.622
34.597
34.571
34.543
34.516
34.49
34.465
34.443
34.422
34.402
34.383
34.365
34.346
34.327
34.306
34.285
34.264
34.243
34.224
34.204
34.185
34.164
34.143
34.121
34.098
34.076
34.053
34.029
34.006
33.982
33.956
33.93
33.902
33.872
33.84
33.806
33.772
33.737
33.702
33.668
33.634
33.602
33.572
33.544
33.521
33.5
33.482
33.467
33.454
33.442
33.431
33.42
33.407
33.391
33.374
33.354
33.333
33.311
33.288
33.265
33.244
33.224
33.207
33.192
33.181
33.173
33.168
33.165
33.163
33.162
33.163
33.163
33.164
33.164
33.164
33.162
33.157
33.148
33.134
33.116
33.095
33.072
33.049
33.025
33.001
32.978
32.956
32.936
32.918
32.902
32.888
32.877
32.869
32.865
32.866
32.877
32.898
32.932
32.984
33.056
33.149
33.266
33.409
33.576
33.766
33.979
34.209
34.456
34.714
34.979
35.248
35.515
35.777
36.029
36.267
36.489
36.692
36.873
37.032
37.169
37.286
37.387
37.473
37.546
37.609
37.663
37.709
37.748
37.781
37.808
37.83
37.848
37.862
37.87
37.874
37.872
37.866
37.856
37.842
37.825
37.805
37.782
37.757
37.731
37.705
37.677
37.648
37.618
37.585
37.551
37.516
37.479
37.441
37.401
37.36
37.316
37.27
37.22
37.168
37.113
37.054
36.991
36.925
36.857
36.787
36.717
36.649
36.583
36.521
36.463
36.408
36.357
36.309
36.265
36.223
36.185
36.151
36.121
36.095
36.076
36.061
36.051
36.044
36.04
36.038
36.037
36.036
36.033
36.029
36.022
36.012
35.999
35.983
35.962
35.939
35.912
35.882
35.85
35.815
35.777
35.737
35.693
35.645
35.594
35.54
35.484
35.427
35.371
35.316
35.262
35.209
35.157
35.104
35.052
35.0
34.948
34.896
34.844
34.794
34.745
34.697
34.651
34.607
34.566
34.528
34.492
34.459
34.428
34.399
34.372
34.344
34.315
34.285
34.252
34.218
34.183
34.149
34.116
34.085
34.056
34.029
34.004
33.983
33.963
33.945
33.927
33.909
33.89
33.872
33.853
33.835
33.817
33.8
33.784
33.769
33.754
33.74
33.726
33.712
33.696
33.679
33.659
33.637
33.612
33.586
33.559
33.534
33.509
33.486
33.462
33.439
33.416
33.393
33.371
33.348
33.327
33.305
33.285
33.266
33.249
33.233
33.219
33.206
33.194
33.181
33.166
33.149
33.129
33.107
33.084
33.06
33.035
33.012
32.989
32.968
32.949
32.932
32.917
32.904
32.891
32.879
32.868
32.856
32.845
32.834
32.822
32.809
32.795
32.779
32.761
32.743
32.723
32.703
32.682
32.661
32.639
32.616
32.594
32.572
32.551
32.53
32.51
32.49
32.47
32.451
32.432
32.409
32.38
32.348
32.314
32.283
32.261
32.253
32.264
32.299
32.362
32.455
32.579
32.731
32.912
33.118
33.346
33.589
33.842
34.098
34.354
34.603
34.842
35.07
35.284
35.483
35.665
35.831
35.98
36.112
36.229
36.331
36.42
36.498
36.567
36.626
36.678
36.722
36.759
36.791
36.815
36.831
36.84
36.844
36.842
36.833
36.812
36.781
36.741
36.695
36.647
36.599
36.556
36.521
36.493
36.475
36.467
36.468
36.477
36.491
36.508
36.525
36.541
36.554
36.562
36.565
36.562
36.553
36.538
36.515
36.485
36.448
36.405
36.357
36.303
36.247
36.191
36.136
36.084
36.038
35.997
35.962
35.931
35.904
35.882
35.864
35.85
35.838
35.828
35.818
35.81
35.803
35.797
35.792
35.788
35.785
35.782
35.779
35.776
35.774
35.772
35.769
35.765
35.758
35.746
35.731
35.71
35.685
35.656
35.622
35.585
35.543
35.498
35.448
35.395
35.34
35.283
35.226
35.169
35.114
35.061
35.01
34.962
34.916
34.872
34.83
34.789
34.75
34.713
34.679
34.647
34.617
34.59
34.565
34.542
34.519
34.497
34.475
34.454
34.432
34.409
34.386
34.362
34.337
34.311
34.286
34.261
34.237
34.215
34.196
34.179
34.163
34.148
34.135
34.121
34.108
34.093
34.078
34.062
34.045
34.026
34.007
33.987
33.968
33.948
33.929
33.912
33.897
33.883
33.87
33.857
33.842
33.826
33.809
33.791
33.771
33.75
33.728
33.703
33.677
33.649
33.62
33.593
33.566
33.541
33.52
33.5
33.483
33.467
33.452
33.438
33.425
33.413
33.402
33.392
33.381
33.368
33.352
33.333
33.311
33.284
33.253
33.219
33.184
33.148
33.114
33.081
33.051
33.023
32.998
32.976
32.956
32.94
32.928
32.918
32.91
32.902
32.894
32.885
32.875
32.864
32.852
32.841
32.833
32.83
32.832
32.844
32.865
32.899
32.947
33.01
33.089
33.184
33.294
33.418
33.555
33.705
33.866
34.037
34.215
34.397
34.581
34.763
34.939
35.109
35.269
35.417
35.552
35.674
35.782
35.878
35.963
36.036
36.099
36.153
36.195
36.228
36.252
36.268
36.276
36.276
36.272
36.262
36.25
36.237
36.223
36.208
36.193
36.178
36.162
36.147
36.134
36.121
36.111
36.103
36.097
36.093
36.09
36.086
36.08
36.073
36.062
36.047
36.028
36.003
35.973
35.939
35.899
35.856
35.808
35.758
35.707
35.656
35.607
35.561
35.518
35.479
35.445
35.415
35.39
35.368
35.349
35.333
35.32
35.309
35.3
35.293
35.289
35.287
35.288
35.292
35.296
35.3
35.304
35.307
35.309
35.308
35.304
35.296
35.284
35.27
35.253
35.235
35.214
35.193
35.172
35.151
35.132
35.113
35.094
35.075
35.054
35.032
35.009
34.986
34.961
34.935
34.907
34.876
34.843
34.807
34.766
34.716
34.659
34.598
34.535
34.473
34.416
34.365
34.322
34.287
34.259
34.237
34.222
34.21
34.203
34.197
34.192
34.186
34.178
34.167
34.154
34.14
34.123
34.105
34.087
34.068
34.049
34.03
34.012
33.995
33.979
33.965
33.951
33.938
33.926
33.913
33.9
33.885
33.868
33.848
33.827
33.805
33.785
33.771
33.762
33.759
33.76
33.763
33.765
33.765
33.761
33.755
33.744
33.731
33.714
33.693
33.669
33.643
33.615
33.585
33.556
33.527
33.498
33.469
33.44
33.411
33.382
33.353
33.325
33.299
33.277
33.258
33.244
33.234
33.226
33.222
33.22
33.219
33.219
33.218
33.216
33.212
33.206
33.198
33.188
33.177
33.164
33.15
33.137
33.123
33.109
33.095
33.079
33.063
33.045
33.026
33.006
32.987
32.97
32.954
32.941
32.93
32.924
32.924
32.931
32.948
32.978
33.023
33.085
33.163
33.259
33.371
33.499
33.642
33.799
33.967
34.145
34.329
34.517
34.705
34.891
35.072
35.243
35.404
35.553
35.688
35.81
35.918
36.013
36.096
36.167
36.226
36.276
36.317
36.353
36.384
36.412
36.438
36.463
36.488
36.513
36.537
36.56
36.582
36.601
36.619
36.634
36.647
36.658
36.666
36.673
36.676
36.677
36.677
36.675
36.671
36.665
36.656
36.643
36.627
36.608
36.586
36.561
36.534
36.505
36.473
36.438
36.402
36.364
36.325
36.286
36.247
36.209
36.173
36.139
36.109
36.082
36.058
36.037
36.019
36.004
35.992
35.984
35.978
35.974
35.972
35.971
35.97
35.969
35.965
35.96
35.951
35.939
35.924
35.905
35.883
35.86
35.836
35.813
35.79
35.767
35.745
35.725
35.706
35.688
35.671
35.654
35.637
35.618
35.598
35.575
35.549
35.517
35.482
35.449
35.423
35.406
35.395
35.387
35.379
35.368
35.351
35.327
35.295
35.255
35.207
35.155
35.098
35.038
34.978
34.918
34.861
34.808
34.76
34.718
34.682
34.652
34.628
34.61
34.597
34.587
34.578
34.57
34.561
34.55
34.538
34.524
34.506
34.486
34.463
34.437
34.409
34.379
34.347
34.315
34.283
34.251
34.221
34.194
34.169
34.145
34.123
34.102
34.081
34.062
34.043
34.025
34.009
33.995
33.981
33.968
33.956
33.943
33.93
33.916
33.902
33.888
33.874
33.859
33.844
33.828
33.812
33.795
33.777
33.759
33.74
33.721
33.701
33.68
33.658
33.634
33.608
33.581
33.553
33.526
33.5
33.476
33.455
33.442
33.44
33.447
33.461
33.479
33.499
33.517
33.531
33.539
33.54
33.532
33.515
33.491
33.459
33.421
33.38
33.336
33.293
33.251
33.212
33.176
33.142
33.113
33.088
33.068
33.054
33.047
33.047
33.056
33.075
33.105
33.146
33.2
33.266
33.346
33.439
33.545
33.662
33.79
33.927
34.07
34.219
34.371
34.525
34.682
34.84
35.0
35.158
35.312
35.46
35.599
35.725
35.838
35.938
36.025
36.097
36.156
36.203
36.239
36.265
36.283
36.293
36.299
36.301
36.301
36.299
36.296
36.292
36.287
36.283
36.277
36.271
36.262
36.251
36.238
36.223
36.207
36.19
36.173
36.156
36.141
36.127
36.114
36.102
36.091
36.081
36.069
36.058
36.047
36.035
36.021
36.006
35.989
35.968
35.944
35.916
35.885
35.851
35.816
35.78
35.745
35.71
35.678
35.649
35.624
35.603
35.586
35.572
35.56
35.549
35.539
35.531
35.525
35.52
35.515
35.511
35.509
35.507
35.506
35.505
35.504
35.502
35.499
35.495
35.491
35.484
35.476
35.465
35.45
35.433
35.412
35.389
35.364
35.337
35.31
35.282
35.255
35.229
35.203
35.177
35.15
35.122
35.094
35.064
35.034
35.004
34.974
34.946
34.918
34.891
34.862
34.833
34.802
34.77
34.738
34.705
34.671
34.637
34.603
34.569
34.536
34.502
34.469
34.438
34.408
34.382
34.36
34.343
34.33
34.321
34.316
34.314
34.314
34.316
34.319
34.323
34.327
34.33
34.331
34.329
34.323
34.314
34.301
34.284
34.265
34.242
34.217
34.19
34.163
34.136
34.109
34.083
34.057
34.03
34.004
33.979
33.955
33.933
33.912
33.892
33.874
33.857
33.84
33.824
33.807
33.79
33.773
33.756
33.739
33.723
33.709
33.695
33.681
33.666
33.652
33.638
33.625
33.613
33.602
33.592
33.583
33.574
33.566
33.559
33.552
33.546
33.539
33.532
33.525
33.517
33.508
33.498
33.486
33.473
33.459
33.442
33.425
33.407
33.39
33.374
33.359
33.345
33.332
33.32
33.309
33.299
33.289
33.28
33.27
33.259
33.249
33.238
33.227
33.217
33.208
33.202
33.199
33.201
33.211
33.229
33.257
33.298
33.353
33.423
33.507
33.606
33.719
33.845
33.982
34.127
34.278
34.431
34.585
34.737
34.884
35.025
35.159
35.284
35.4
35.508
35.605
35.692
35.768
35.832
35.885
35.928
35.961
35.985
36.0
36.008
36.01
36.006
35.998
35.986
35.971
35.954
35.936
35.917
35.897
35.879
35.863
35.849
35.837
35.829
35.823
35.819
35.817
35.815
35.814
35.811
35.807
35.8
35.79
35.778
35.762
35.744
35.722
35.699
35.673
35.647
35.619
35.592
35.565
35.539
35.514
35.49
35.467
35.444
35.423
35.404
35.387
35.372
35.359
35.348
35.34
35.336
35.335
35.338
35.342
35.349
35.356
35.364
35.37
35.376
35.38
35.383
35.382
35.38
35.374
35.364
35.352
35.336
35.318
35.297
35.273
35.249
35.225
35.202
35.182
35.163
35.146
35.131
35.116
35.103
35.089
35.075
35.06
35.044
35.027
35.008
34.988
34.967
34.943
34.915
34.884
34.849
34.812
34.774
34.736
34.698
