Trial 1:0back
33.045
33.031
33.019
33.011
33.012
33.025
33.056
33.111
33.196
33.317
33.478
33.685
33.94
34.244
34.593
34.982
35.404
35.851
36.314
36.781
37.243
37.691
38.115
38.509
38.866
39.182
39.453
39.677
39.854
39.986
40.075
40.124
40.137
40.12
40.075
40.009
39.924
39.824
39.713
39.594
39.471
39.347
39.226
39.108
38.996
38.89
38.791
38.7
38.617
38.54
38.471
38.408
38.352
38.3
38.251
38.205
38.161
38.118
38.075
38.031
37.985
37.936
37.881
37.818
37.747
37.67
37.59
37.507
37.421
37.33
37.23
37.121
37.002
36.872
36.734
36.589
36.439
36.288
36.138
35.992
35.851
35.72
35.602
35.501
35.418
35.353
35.307
35.279
35.269
35.274
35.292
35.322
35.36
35.403
35.45
35.498
35.546
35.592
35.632
35.666
35.693
35.713
35.724
35.725
35.717
35.699
35.671
35.635
35.59
35.536
35.476
35.409
35.336
35.259
35.178
35.095
35.011
34.926
34.842
34.757
34.674
34.591
34.508
34.425
34.344
34.264
34.186
34.111
34.038
33.967
33.897
33.83
33.765
33.701
33.64
33.582
33.527
33.476
33.43
33.391
33.358
33.331
33.31
33.292
33.279
33.269
33.261
33.255
33.248
33.242
33.235
33.228
33.22
33.21
33.198
33.183
33.168
33.151
33.134
33.117
33.101
33.087
33.073
33.061
33.05
33.041
33.034
33.03
33.028
33.027
33.028
33.03
33.034
33.04
33.047
33.054
33.062
33.068
33.074
33.077
33.077
33.072
33.063
33.049
33.032
33.011
32.987
32.959
32.928
32.895
32.86
32.824
32.788
32.753
32.719
32.687
32.658
32.633
32.614
32.604
32.605
32.619
32.649
32.699
32.77
32.87
33.002
33.171
33.38
33.634
33.931
34.271
34.651
35.065
35.505
35.961
36.426
36.889
37.342
37.774
38.179
38.551
38.884
39.174
39.42
39.62
39.776
39.89
39.963
40.0
40.004
39.979
39.929
39.861
39.778
39.685
39.583
39.478
39.369
39.26
39.151
39.044
38.939
38.837
38.738
38.642
38.548
38.457
38.367
38.28
38.195
38.113
38.034
37.958
37.885
37.814
37.746
37.679
37.613
37.548
37.483
37.416
37.346
37.271
37.189
37.102
37.007
36.906
36.8
36.688
36.57
36.448
36.324
36.201
36.078
35.957
35.841
35.731
35.63
35.539
35.461
35.397
35.346
35.308
35.283
35.27
35.27
35.28
35.299
35.325
35.358
35.397
35.44
35.485
35.531
35.575
35.618
35.657
35.691
35.718
35.737
35.749
35.76
35.772
35.785
35.796
35.799
35.788
35.762
35.718
35.657
35.577
35.481
35.371
35.249
35.121
34.988
34.855
34.722
34.591
34.464
34.344
34.23
34.124
34.026
33.935
33.851
33.774
33.702
33.636
33.576
33.522
33.475
33.432
33.393
33.357
33.324
33.294
33.267
33.24
33.214
33.188
33.162
33.137
33.113
33.089
33.066
33.041
33.018
32.997
32.978
32.964
32.952
32.944
32.939
32.936
32.938
32.944
32.954
32.968
32.984
33.002
33.02
33.037
33.053
33.066
33.076
33.081
33.08
33.075
33.065
33.051
33.034
33.013
32.988
32.961
32.933
32.904
32.876
32.847
32.819
32.791
32.766
32.746
32.732
32.722
32.718
32.72
32.73
32.749
32.781
32.828
32.894
32.984
33.105
33.262
33.458
33.696
33.977
34.299
34.658
35.051
35.468
35.9
36.338
36.771
37.192
37.592
37.964
38.3
38.597
38.851
39.06
39.226
39.351
39.436
39.486
39.504
39.495
39.463
39.411
39.346
39.268
39.183
39.089
38.989
38.884
38.774
38.66
38.542
38.422
38.3
38.175
38.049
37.923
37.798
37.674
37.553
37.434
37.319
37.209
37.107
37.011
36.92
36.834
36.752
36.674
36.599
36.525
36.45
36.372
36.29
36.203
36.11
36.013
35.909
35.8
35.687
35.57
35.452
35.336
35.223
35.115
35.013
34.921
34.84
34.772
34.717
34.676
34.648
34.633
34.631
34.64
34.658
34.683
34.713
34.749
34.788
34.829
34.871
34.914
34.956
34.994
35.029
35.058
35.082
35.099
35.109
35.11
35.102
35.085
35.06
35.025
34.983
34.932
34.874
34.81
34.74
34.667
34.592
34.514
34.436
34.357
34.28
34.203
34.128
34.054
33.981
33.91
33.841
33.775
33.713
33.653
33.595
33.538
33.483
33.429
33.376
33.323
33.272
33.221
33.17
33.121
33.073
33.031
32.993
32.962
32.938
32.92
32.908
32.901
32.899
32.901
32.905
32.911
32.917
32.922
32.926
32.93
32.93
32.928
32.922
32.912
32.9
32.886
32.871
32.855
32.838
32.82
32.802
32.783
32.763
32.743
32.721
32.7
32.677
32.656
32.636
32.62
32.608
32.601
32.601
32.612
32.637
32.678
32.741
32.83
32.948
33.102
33.295
33.531
33.812
34.137
34.503
34.904
35.335
35.788
36.253
36.719
37.177
37.615
38.026
38.401
38.737
39.029
39.276
39.476
39.632
39.745
39.816
39.851
39.851
39.821
39.765
39.687
39.591
39.478
39.355
39.224
39.088
38.951
38.813
38.678
38.547
38.419
38.295
38.175
38.06
37.949
37.843
37.742
37.645
37.554
37.465
37.379
37.295
37.212
37.13
37.047
36.961
36.872
36.779
36.683
36.582
36.478
36.37
36.258
36.144
36.028
35.911
35.793
35.676
35.558
35.443
35.329
35.219
35.112
35.008
34.91
34.817
34.732
34.656
34.591
34.536
34.493
34.463
34.447
34.444
34.456
34.48
34.516
34.561
34.616
34.678
34.744
34.812
34.878
34.941
34.997
35.047
35.087
35.118
35.136
35.143
35.136
35.118
35.088
35.048
34.997
34.938
34.87
34.794
34.713
34.626
34.534
34.438
34.338
34.235
34.13
34.027
33.925
33.828
33.736
33.65
33.569
33.494
33.425
33.361
33.303
33.249
33.198
33.151
33.107
33.067
33.029
32.993
32.958
32.926
32.895
32.867
32.841
32.815
32.79
32.767
32.743
32.72
32.698
32.678
32.66
32.644
32.63
32.619
32.61
32.606
32.607
32.61
32.617
32.626
32.638
32.651
32.664
32.676
32.686
32.694
32.698
32.7
32.698
32.692
32.682
32.667
32.648
32.625
32.6
32.575
32.553
32.537
32.53
32.534
32.553
32.591
32.654
32.747
32.875
33.045
33.262
33.529
33.847
34.216
34.633
35.09
35.577
36.081
36.589
37.087
37.564
38.011
38.421
38.789
39.109
39.38
39.601
39.77
39.891
39.967
40.002
40.002
39.972
39.918
39.845
39.758
39.661
39.557
39.45
39.339
39.228
39.117
39.007
38.897
38.787
38.677
38.568
38.459
38.352
38.247
38.143
38.04
37.939
37.84
37.742
37.645
37.549
37.455
37.361
37.267
37.174
37.08
36.985
36.89
36.792
36.693
36.589
36.481
36.368
36.25
36.129
36.006
35.881
35.757
35.632
35.509
35.391
35.279
35.175
35.08
34.994
34.916
34.848
34.788
34.739
34.701
34.671
34.651
34.638
34.633
34.636
34.645
34.659
34.677
34.698
34.722
34.748
34.775
34.802
34.828
34.85
34.868
34.88
34.886
34.885
34.875
34.856
34.83
34.798
34.759
34.715
34.664
34.607
34.544
34.475
34.401
34.321
34.237
34.148
34.056
33.962
33.867
33.772
33.679
33.588
33.501
33.418
33.342
33.271
33.207
33.15
33.1
33.056
33.019
32.987
32.961
32.939
32.92
32.902
32.884
32.865
32.844
32.823
32.8
32.774
32.746
32.716
32.684
32.652
32.621
32.591
32.564
32.539
32.517
32.498
32.483
32.471
32.464
32.459
32.458
32.46
32.464
32.469
32.477
32.487
32.496
32.504
32.51
32.514
32.517
32.518
32.518
32.514
32.507
32.496
32.482
32.467
32.451
32.435
32.421
32.409
32.402
32.402
32.411
32.432
32.468
32.522
32.599
32.705
32.844
33.024
33.247
33.517
33.835
34.201
34.612
35.06
35.539
36.038
36.546
37.052
37.543
38.01
38.442
38.831
39.171
39.459
39.693
39.873
40.002
40.082
40.117
40.114
40.078
40.013
39.926
39.82
39.702
39.576
39.447
39.316
39.187
39.062
38.94
38.822
38.708
38.596
38.487
38.381
38.277
38.173
38.071
37.969
37.868
37.769
37.671
37.575
37.48
37.383
37.286
37.188
37.091
36.992
36.891
36.788
36.682
36.573
36.462
36.348
36.23
36.11
35.989
35.867
35.747
35.629
35.514
35.402
35.297
35.197
35.105
35.02
34.941
34.869
34.804
34.746
34.695
34.651
34.614
34.585
34.562
34.548
34.54
34.541
34.548
34.563
34.583
34.607
34.634
34.664
34.693
34.72
34.744
34.763
34.775
34.781
34.779
34.768
34.751
34.726
34.694
34.654
34.608
34.555
34.495
34.428
34.354
34.273
34.185
34.091
33.995
33.897
33.798
33.699
33.602
33.509
33.423
33.343
33.271
33.205
33.147
33.095
33.051
33.013
32.981
32.953
32.929
32.907
32.887
32.867
32.847
32.825
32.802
32.778
32.752
32.725
32.696
32.668
32.641
32.614
32.589
32.564
32.54
32.517
32.498
32.482
32.469
32.462
32.459
32.463
32.473
32.486
32.502
32.52
32.537
32.555
32.572
32.587
32.601
32.613
32.622
32.628
32.632
32.632
32.629
32.622
32.614
32.603
32.59
32.575
32.559
32.544
32.53
32.516
32.505
32.495
32.487
32.482
32.481
32.482
32.485
32.489
32.495
32.503
32.515
32.535
32.565
32.608
32.668
32.751
32.861
33.005
33.187
33.415
33.693
34.02
34.398
34.82
35.28
35.768
36.273
36.784
37.289
37.777
38.239
38.664
39.047
39.383
39.668
39.902
40.083
40.212
40.293
40.33
40.327
40.29
40.223
40.13
40.017
39.887
39.746
39.597
39.443
39.287
39.13
38.974
38.82
38.671
38.525
38.385
38.25
38.121
37.999
37.883
37.774
37.673
37.58
37.494
37.413
37.337
37.265
37.198
37.133
37.069
37.003
36.932
36.856
36.774
36.684
36.584
36.474
36.354
36.224
36.086
35.941
35.792
35.64
35.486
35.334
35.187
35.046
34.916
34.797
34.693
34.604
34.532
34.476
34.438
34.414
34.405
34.409
34.426
34.453
34.488
34.53
34.574
34.62
34.666
34.709
34.749
34.784
34.814
34.838
34.856
34.866
34.868
34.861
34.846
34.824
34.792
34.753
34.706
34.653
34.597
34.539
34.48
34.419
34.358
34.296
34.235
34.175
34.116
34.058
34.0
33.941
33.882
33.822
33.76
33.696
33.63
33.563
33.494
33.426
33.36
33.294
33.23
33.167
33.107
33.051
32.998
32.95
32.906
32.866
32.83
32.797
32.767
32.741
32.718
32.698
32.682
32.668
32.657
32.648
32.642
32.636
32.632
32.628
32.624
32.621
32.619
32.616
32.614
32.61
32.605
32.6
32.593
32.587
32.58
32.573
32.567
32.56
32.553
32.547
32.548
32.56
32.58
32.609
32.642
32.674
32.702
32.725
32.741
32.749
32.749
32.741
32.728
32.71
32.687
32.66
32.628
32.592
32.552
32.51
32.467
32.427
32.39
32.359
32.333
32.313
32.299
32.291
32.288
32.292
32.304
32.324
32.354
32.398
32.459
32.541
32.648
32.785
32.957
33.168
33.422
33.72
34.064
34.452
34.878
35.338
35.822
36.32
36.821
37.313
37.786
38.23
38.636
38.997
39.31
39.57
39.778
39.933
40.038
40.096
40.109
40.083
40.024
39.937
39.828
39.702
39.565
39.421
39.273
39.123
38.974
38.826
38.682
38.542
38.407
38.277
38.149
38.025
37.904
37.786
37.671
37.56
37.451
37.344
37.24
37.139
37.039
36.941
36.846
36.751
36.657
36.564
36.469
36.373
36.274
36.172
36.067
35.961
35.852
35.743
35.633
35.525
35.418
35.314
35.215
35.121
35.035
34.955
34.885
34.824
34.773
34.732
34.7
34.676
34.659
34.65
34.649
34.655
34.669
34.69
34.718
34.752
34.791
34.833
34.877
34.92
34.962
35.002
35.04
35.075
35.104
35.125
35.137
35.137
35.128
35.107
35.076
35.035
34.985
34.926
34.859
34.786
34.708
34.625
34.54
34.452
34.363
34.275
34.19
34.108
34.032
33.961
33.893
33.829
33.768
33.711
33.656
33.602
33.55
33.498
33.446
33.395
33.345
33.294
33.244
33.194
33.146
33.1
33.057
33.018
32.983
32.953
32.927
32.906
32.891
32.881
32.876
32.877
32.882
32.889
32.897
32.907
32.919
32.93
32.942
32.952
32.96
32.966
32.97
32.972
32.973
32.971
32.967
32.961
32.952
32.943
32.933
32.922
32.911
32.899
32.888
32.877
32.867
32.858
32.849
32.84
32.831
32.821
32.811
32.801
32.791
32.782
32.771
32.761
32.75
32.74
32.731
32.723
32.716
32.709
32.704
32.7
32.7
32.707
32.723
32.751
32.795
32.858
32.946
33.063
33.216
33.408
33.644
33.927
34.257
34.634
35.051
35.502
35.979
36.472
36.97
37.461
37.935
38.382
38.791
39.155
39.469
39.728
39.93
40.075
40.164
40.201
40.192
40.141
40.054
39.938
39.798
39.64
39.469
39.289
39.103
38.917
38.732
38.551
38.374
38.204
38.041
37.886
37.74
37.603
37.476
37.358
37.25
37.154
37.066
36.986
36.909
36.834
36.758
36.679
36.597
36.512
36.422
36.326
36.223
36.113
35.998
35.878
35.754
35.629
35.502
35.376
35.252
35.131
35.015
34.908
34.809
34.722
34.646
34.583
34.534
34.499
34.478
34.469
34.471
34.484
34.506
34.538
34.577
34.622
34.672
34.724
34.777
34.83
34.881
34.928
34.97
35.005
35.032
35.051
35.062
35.064
35.058
35.044
35.023
34.996
34.962
34.923
34.879
34.829
34.775
34.718
34.658
34.597
34.534
34.469
34.404
34.339
34.276
34.215
34.155
34.096
34.036
33.975
33.914
33.853
33.791
33.729
33.664
33.597
33.53
33.465
33.402
33.343
33.289
33.24
33.196
33.156
33.121
33.091
33.066
33.045
33.027
33.012
33.0
32.991
32.986
32.984
32.984
32.984
32.983
32.981
32.98
32.978
32.976
32.973
32.967
32.959
32.949
32.939
32.929
32.919
32.911
32.905
32.901
32.9
32.903
32.907
32.914
32.921
32.928
32.934
32.938
32.942
32.945
32.946
32.947
32.946
32.942
32.936
32.928
32.916
32.901
32.881
32.858
32.833
32.808
32.785
32.769
32.761
32.764
32.781
32.816
32.872
32.953
33.059
33.196
33.367
33.577
33.828
34.123
34.461
34.841
35.26
35.712
36.192
36.691
37.197
37.7
38.187
38.649
39.076
39.46
39.794
40.073
40.292
40.453
40.556
40.604
40.604
40.559
40.478
40.367
40.232
40.08
39.916
39.747
39.577
39.409
39.246
39.09
38.942
38.804
38.676
38.558
38.448
38.346
38.25
38.16
38.076
37.994
37.915
37.836
37.756
37.676
37.594
37.511
37.425
37.334
37.237
37.136
37.031
36.921
36.807
36.689
36.567
36.443
36.319
36.196
36.075
35.958
35.844
35.735
35.633
35.539
35.452
35.373
35.303
35.244
35.197
35.16
35.133
35.114
35.103
35.098
35.099
35.106
35.118
35.133
35.151
35.171
35.192
35.214
35.235
35.254
35.271
35.284
35.294
35.299
35.3
35.296
35.288
35.275
35.257
35.234
35.204
35.169
35.127
35.081
35.028
34.972
34.911
34.847
34.78
34.711
34.64
34.566
34.49
34.411
34.332
34.253
34.174
34.097
34.02
33.945
33.874
33.807
33.745
33.688
33.637
33.59
33.55
33.515
33.485
33.459
33.435
33.411
33.389
33.366
33.343
33.32
33.297
33.274
33.252
33.232
33.213
33.195
33.179
33.163
33.148
33.133
33.12
33.108
33.1
33.096
33.097
33.101
33.107
33.114
33.123
33.135
33.148
33.16
33.173
33.185
33.195
33.205
33.214
33.221
33.229
33.24
33.255
33.273
33.291
33.305
33.312
33.311
33.302
33.286
33.266
33.241
33.213
33.186
33.16
33.137
33.119
33.109
33.108
33.121
33.148
33.192
33.253
33.335
33.441
33.575
33.743
33.948
34.192
34.479
34.807
35.175
35.58
36.015
36.472
36.942
37.415
37.88
38.328
38.75
39.135
39.479
39.775
40.02
40.214
40.357
40.452
40.503
40.513
40.488
40.431
40.348
40.245
40.127
39.998
39.861
39.721
39.58
39.441
39.305
39.172
39.042
38.916
38.793
38.675
38.562
38.454
38.35
38.251
38.156
38.066
37.98
37.897
37.819
37.744
37.672
37.602
37.533
37.464
37.392
37.318
37.24
37.158
37.071
36.977
36.878
36.773
36.663
36.549
36.432
36.313
36.194
36.077
35.962
35.852
35.746
35.647
35.555
35.472
35.396
35.33
35.272
35.224
35.184
35.154
35.134
35.123
35.123
35.131
35.146
35.169
35.196
35.228
35.262
35.295
35.325
35.351
35.371
35.385
35.391
35.389
35.379
35.36
35.333
35.299
35.256
35.206
35.15
35.087
35.02
34.949
34.874
34.797
34.718
34.638
34.555
34.47
34.386
34.302
34.222
34.145
34.072
34.003
33.941
33.883
33.832
33.785
33.742
33.701
33.661
33.624
33.588
33.554
33.521
33.489
33.459
33.431
33.404
33.381
33.359
33.34
33.323
33.306
33.291
33.277
33.263
33.249
33.236
33.223
33.211
33.198
33.187
33.177
33.168
33.161
33.154
33.148
33.143
33.14
33.139
33.14
33.14
33.14
33.139
33.138
33.135
33.13
33.122
33.113
33.103
33.091
33.078
33.063
33.049
33.035
33.021
33.009
32.998
32.988
32.978
32.967
32.957
32.945
32.933
32.92
32.906
32.891
32.875
32.858
32.841
32.824
32.811
32.803
32.8
32.805
32.819
32.846
32.888
32.951
33.038
33.154
33.304
33.492
33.723
33.999
34.32
34.685
35.089
35.526
35.99
36.471
36.958
37.442
37.913
38.36
38.776
39.153
39.485
39.767
39.998
40.177
40.306
40.386
40.423
40.42
40.38
40.308
40.21
40.09
39.953
39.804
39.647
39.487
39.327
39.169
39.015
38.867
38.726
38.592
38.468
38.353
38.247
38.149
38.061
37.981
37.909
37.845
37.787
37.735
37.688
37.646
37.605
37.564
37.52
37.472
37.422
37.368
37.303
37.224
37.127
37.012
36.88
36.734
36.578
36.414
36.248
36.082
35.922
35.772
35.636
35.517
35.415
35.332
35.268
35.223
35.195
35.183
35.184
35.198
35.22
35.249
35.285
35.324
35.364
35.404
35.442
35.476
35.505
35.529
35.546
35.558
35.562
35.561
35.554
35.544
35.531
35.515
35.496
35.474
35.45
35.422
35.391
35.357
35.319
35.277
35.23
35.178
35.121
35.061
34.997
34.928
34.854
34.775
34.691
34.605
34.518
34.43
34.344
34.26
34.179
34.103
34.03
33.962
33.897
33.835
33.778
33.724
33.675
33.63
33.587
33.547
33.51
33.476
33.445
33.419
33.398
33.381
33.367
33.356
33.347
33.339
33.334
33.331
33.328
33.326
33.325
33.323
33.321
33.319
33.315
33.31
33.303
33.296
33.288
33.279
33.271
33.263
33.254
33.243
33.234
33.226
33.219
33.213
33.208
33.203
33.197
33.192
33.185
33.176
33.164
33.148
33.128
33.104
33.076
33.047
33.018
32.99
32.965
32.942
32.925
32.915
32.916
32.929
32.958
33.005
33.071
33.163
33.283
33.437
33.627
33.856
34.127
34.441
34.796
35.19
35.616
36.067
36.534
37.007
37.477
37.932
38.362
38.758
39.111
39.417
39.672
39.875
40.025
40.124
40.175
40.182
40.149
40.081
39.983
39.86
39.719
39.565
39.401
39.232
39.061
38.891
38.725
38.564
38.411
38.265
38.128
38.002
37.887
37.781
37.684
37.595
37.51
37.43
37.352
37.276
37.2
37.122
37.042
36.957
36.869
36.778
36.682
36.581
36.477
36.368
36.256
36.141
36.024
35.906
35.789
35.673
35.56
35.452
35.35
35.254
35.164
35.083
35.011
34.949
34.897
34.855
34.822
34.798
34.785
34.782
34.788
34.803
34.825
34.852
34.884
34.92
34.958
34.999
35.04
35.081
35.12
35.155
35.185
35.211
35.23
35.243
35.247
35.242
35.228
35.204
35.172
35.132
35.085
35.032
34.975
34.913
34.847
34.777
34.703
34.626
34.547
34.465
34.384
34.304
34.224
34.146
34.068
33.992
33.918
33.847
33.781
33.719
33.662
33.611
33.564
33.521
33.483
33.45
33.42
33.393
33.373
33.357
33.346
33.34
33.337
33.333
33.329
33.322
33.313
33.301
33.286
33.268
33.248
33.224
33.198
33.17
33.142
33.116
33.092
33.07
33.051
33.035
33.022
33.013
33.009
33.009
33.012
33.018
33.025
33.033
33.043
33.053
33.062
33.069
33.072
33.072
33.068
33.059
33.048
33.032
33.012
32.989
32.964
32.939
32.915
32.895
32.878
32.868
32.866
32.875
32.897
32.935
32.993
33.073
33.179
33.314
33.483
33.69
33.939
34.232
34.569
34.947
35.363
35.809
36.278
36.762
37.25
37.731
38.194
38.631
39.03
39.386
39.693
39.948
40.149
40.298
40.396
40.446
40.451
40.418
40.353
40.261
40.149
40.021
39.883
39.739
39.592
39.445
39.301
39.161
39.027
38.899
38.78
38.671
38.571
38.479
38.395
38.318
38.245
38.177
38.11
38.045
37.979
37.91
37.837
37.758
37.672
37.58
37.482
37.38
37.274
37.165
37.053
36.939
36.824
36.707
36.591
36.475
36.36
36.246
36.134
36.025
35.919
35.817
35.721
35.633
35.554
35.482
35.419
35.365
35.318
35.28
35.251
35.229
35.214
35.207
35.205
35.209
35.219
35.233
35.252
35.274
35.298
35.324
35.348
35.371
35.392
35.409
35.422
35.43
35.431
35.424
35.409
35.385
35.353
35.314
35.27
35.219
35.163
35.103
35.037
34.968
34.894
34.815
34.731
34.642
34.551
34.458
34.365
34.273
