Trial 1:0back
39.754
39.598
39.452
39.315
39.187
39.066
38.95
38.839
38.731
38.625
38.519
38.41
38.298
38.181
38.059
37.93
37.795
37.655
37.51
37.361
37.211
37.062
36.916
36.774
36.638
36.511
36.393
36.286
36.193
36.114
36.049
35.996
35.955
35.924
35.901
35.885
35.874
35.866
35.86
35.856
35.853
35.852
35.852
35.854
35.857
35.86
35.863
35.866
35.866
35.863
35.856
35.843
35.823
35.796
35.761
35.719
35.669
35.613
35.551
35.485
35.417
35.348
35.279
35.212
35.145
35.08
35.016
34.952
34.888
34.823
34.758
34.69
34.619
34.544
34.465
34.384
34.299
34.213
34.125
34.037
33.952
33.871
33.794
33.722
33.656
33.594
33.536
33.481
33.429
33.378
33.328
33.279
33.232
33.186
33.143
33.102
33.065
33.032
33.002
32.975
32.951
32.929
32.908
32.887
32.866
32.844
32.821
32.797
32.771
32.746
32.721
32.698
32.678
32.66
32.646
32.635
32.628
32.624
32.623
32.625
32.629
32.634
32.639
32.644
32.649
32.655
32.662
32.67
32.678
32.686
32.694
32.7
32.703
32.704
32.702
32.698
32.691
32.682
32.673
32.663
32.654
32.646
32.639
32.632
32.625
32.616
32.605
32.592
32.577
32.562
32.546
32.529
32.512
32.493
32.472
32.45
32.427
32.403
32.377
32.351
32.325
32.299
32.275
32.254
32.237
32.227
32.225
32.233
32.256
32.296
32.36
32.452
32.579
32.745
32.956
33.215
33.524
33.885
34.297
34.757
35.26
35.799
36.367
36.953
37.546
38.136
38.713
39.265
39.785
40.263
40.693
41.069
41.388
41.648
41.847
41.988
42.072
42.103
42.086
42.025
41.927
41.796
41.638
41.458
41.261
41.053
40.839
40.622
40.406
40.194
39.987
39.789
39.599
39.418
39.247
39.084
38.931
38.787
38.649
38.517
38.389
38.264
38.143
38.025
37.909
37.792
37.672
37.55
37.422
37.288
37.148
37.002
36.852
36.698
36.543
36.39
36.242
36.1
35.968
35.847
35.74
35.646
35.568
35.504
35.454
35.418
35.395
35.381
35.377
35.379
35.388
35.401
35.417
35.433
35.448
35.462
35.473
35.481
35.486
35.485
35.481
35.472
35.459
35.443
35.424
35.402
35.379
35.353
35.324
35.293
35.257
35.216
35.169
35.117
35.057
34.992
34.921
34.846
34.769
34.691
34.614
34.539
34.466
34.396
34.328
34.262
34.197
34.131
34.064
33.995
33.922
33.847
33.77
33.692
33.614
33.541
33.478
33.427
33.387
33.355
33.327
33.302
33.277
33.249
33.216
33.178
33.134
33.084
33.029
32.969
32.907
32.844
32.783
32.726
32.676
32.632
32.596
32.566
32.54
32.517
32.496
32.478
32.46
32.444
32.429
32.416
32.405
32.397
32.391
32.389
32.391
32.394
32.398
32.402
32.407
32.411
32.415
32.42
32.425
32.429
32.433
32.436
32.439
32.441
32.444
32.448
32.453
32.458
32.463
32.467
32.471
32.473
32.475
32.475
32.474
32.471
32.467
32.462
32.457
32.451
32.445
32.438
32.43
32.422
32.412
32.4
32.388
32.376
32.363
32.349
32.333
32.316
32.298
32.28
32.26
32.241
32.222
32.204
32.187
32.172
32.159
32.151
32.147
32.151
32.162
32.185
32.224
32.283
32.368
32.487
32.645
32.848
33.102
33.411
33.776
34.198
34.677
35.207
35.782
36.393
37.03
37.682
38.336
38.981
39.604
40.195
40.743
41.242
41.683
42.063
42.379
42.628
42.813
42.936
42.999
43.009
42.969
42.886
42.765
42.612
42.434
42.234
42.02
41.797
41.57
41.344
41.123
40.909
40.706
40.514
40.335
40.168
40.014
39.872
39.742
39.623
39.515
39.415
39.322
39.233
39.145
39.056
38.961
38.86
38.75
38.632
38.503
38.366
38.22
38.069
37.913
37.756
37.599
37.445
37.294
37.149
37.011
36.879
36.755
36.64
36.535
36.44
36.355
36.28
36.217
36.167
36.13
36.105
36.092
36.09
36.098
36.113
36.133
36.157
36.182
36.206
36.227
36.243
36.253
36.256
36.251
36.236
36.212
36.179
36.137
36.088
36.033
35.973
35.911
35.846
35.781
35.717
35.653
35.59
35.528
35.465
35.4
35.332
35.261
35.185
35.105
35.021
34.935
34.847
34.758
34.67
34.584
34.5
34.418
34.339
34.262
34.186
34.112
34.04
33.969
33.9
33.833
33.77
33.709
33.653
33.601
33.553
33.509
33.468
33.43
33.395
33.362
33.33
33.299
33.268
33.236
33.202
33.167
33.131
33.094
33.057
33.022
32.99
32.963
32.94
32.924
32.913
32.908
32.907
32.91
32.916
32.923
32.931
32.938
32.946
32.953
32.96
32.967
32.972
32.976
32.978
32.979
32.978
32.976
32.971
32.965
32.956
32.947
32.938
32.929
32.92
32.913
32.907
32.901
32.896
32.892
32.888
32.884
32.88
32.875
32.869
32.863
32.855
32.845
32.831
32.813
32.792
32.766
32.737
32.706
32.675
32.643
32.612
32.583
32.555
32.529
32.504
32.481
32.46
32.442
32.426
32.413
32.4
32.387
32.374
32.362
32.352
32.345
32.343
32.348
32.363
32.393
32.442
32.516
32.62
32.76
32.942
33.169
33.445
33.774
34.157
34.593
35.081
35.615
36.189
36.794
37.418
38.051
38.68
39.292
39.877
40.425
40.926
41.374
41.764
42.092
42.357
42.56
42.701
42.783
42.812
42.792
42.728
42.628
42.496
42.34
42.165
41.977
41.78
41.581
41.382
41.186
40.997
40.814
40.639
40.47
40.306
40.148
39.999
39.858
39.727
39.607
39.495
39.391
39.294
39.203
39.114
39.026
38.937
38.844
38.745
38.638
38.522
38.396
38.261
38.118
37.969
37.816
37.662
37.509
37.361
37.22
37.088
36.965
36.855
36.756
36.668
36.592
36.526
36.47
36.424
36.386
36.357
36.336
36.321
36.313
36.31
36.311
36.315
36.32
36.326
36.33
36.332
36.332
36.328
36.321
36.309
36.294
36.273
36.248
36.217
36.178
36.131
36.075
36.011
35.939
35.859
35.774
35.685
35.593
35.501
35.41
35.322
35.238
35.158
35.081
35.008
34.936
34.865
34.794
34.724
34.653
34.581
34.51
34.439
34.368
34.297
34.226
34.157
34.088
34.021
33.954
33.888
33.825
33.765
33.708
33.655
33.605
33.559
33.516
33.476
33.44
33.409
33.382
33.358
33.337
33.317
33.3
33.283
33.268
33.253
33.237
33.22
33.201
33.18
33.157
33.135
33.113
33.092
33.074
33.057
33.044
33.034
33.027
33.023
33.021
33.02
33.019
33.02
33.021
33.023
33.026
33.029
33.032
33.034
33.035
33.033
33.03
33.027
33.022
33.017
33.011
33.005
32.999
32.992
32.986
32.979
32.973
32.965
32.957
32.948
32.938
32.928
32.918
32.908
32.899
32.89
32.881
32.872
32.863
32.854
32.844
32.833
32.821
32.807
32.792
32.774
32.754
32.731
32.705
32.678
32.649
32.618
32.587
32.557
32.528
32.501
32.478
32.459
32.444
32.431
32.422
32.416
32.414
32.418
32.429
32.451
32.488
32.543
32.622
32.729
32.87
33.05
33.273
33.544
33.865
34.235
34.655
35.12
35.626
36.166
36.732
37.314
37.903
38.487
39.058
39.603
40.115
40.586
41.009
41.38
41.695
41.953
42.154
42.297
42.386
42.427
42.429
42.397
42.335
42.245
42.131
41.995
41.839
41.667
41.483
41.291
41.093
40.892
40.693
40.499
40.312
40.133
39.965
39.808
39.663
39.53
39.409
39.299
39.196
39.1
39.008
38.917
38.824
38.728
38.626
38.517
38.399
38.274
38.141
38.001
37.855
37.706
37.554
37.404
37.258
37.119
36.989
36.87
36.762
36.669
36.589
36.524
36.472
36.434
36.408
36.393
36.388
36.39
36.399
36.411
36.425
36.44
36.452
36.462
36.469
36.474
36.474
36.471
36.463
36.452
36.436
36.416
36.39
36.359
36.322
36.278
36.226
36.168
36.103
36.031
35.952
35.868
35.779
35.686
35.591
35.495
35.4
35.306
35.215
35.127
35.043
34.963
34.886
34.813
34.742
34.674
34.609
34.544
34.479
34.414
34.348
34.283
34.218
34.154
34.092
34.034
33.978
33.926
33.877
33.831
33.787
33.746
33.707
33.668
33.63
33.592
33.556
33.52
33.487
33.456
33.428
33.403
33.381
33.361
33.344
33.33
33.317
33.307
33.297
33.288
33.279
33.27
33.262
33.254
33.245
33.237
33.228
33.218
33.209
33.2
33.191
33.184
33.179
33.176
33.175
33.175
33.176
33.178
33.18
33.182
33.183
33.184
33.183
33.18
33.174
33.164
33.149
33.13
33.107
33.081
33.051
33.02
32.989
32.959
32.93
32.903
32.878
32.854
32.831
32.808
32.784
32.76
32.735
32.711
32.687
32.665
32.644
32.624
32.605
32.588
32.572
32.557
32.544
32.534
32.528
32.528
32.538
32.56
32.6
32.663
32.755
32.881
33.046
33.254
33.511
33.818
34.176
34.586
35.043
35.544
36.082
36.648
37.234
37.829
38.42
38.997
39.549
40.067
40.542
40.965
41.333
41.643
41.893
42.085
42.22
42.3
42.331
42.317
42.266
42.181
42.07
41.939
41.795
41.643
41.488
41.333
41.182
41.038
40.902
40.775
40.657
40.547
40.444
40.348
40.257
40.172
40.092
40.015
39.941
39.868
39.795
39.721
39.644
39.562
39.475
39.38
39.278
39.167
39.046
38.917
38.777
38.629
38.472
38.31
38.142
37.972
37.8
37.63
37.463
37.302
37.15
37.006
36.875
36.757
36.653
36.565
36.493
36.436
36.394
36.365
36.348
36.342
36.344
36.352
36.364
36.378
36.39
36.399
36.404
36.403
36.394
36.377
36.351
36.316
36.275
36.227
36.175
36.121
36.067
36.013
35.961
35.909
35.857
35.805
35.752
35.696
35.636
35.573
35.504
35.43
35.351
35.267
35.179
35.088
34.997
34.907
34.821
34.737
34.658
34.584
34.514
34.447
34.385
34.324
34.265
34.206
34.147
34.087
34.027
33.967
33.907
33.847
33.789
33.732
33.677
33.626
33.579
33.537
33.498
33.464
33.434
33.407
33.382
33.358
33.336
33.315
33.293
33.271
33.249
33.228
33.208
33.189
33.172
33.156
33.141
33.128
33.115
33.102
33.088
33.075
33.063
33.05
33.039
33.029
33.02
33.013
33.008
33.006
33.007
33.011
33.017
33.024
33.031
33.037
33.043
33.047
33.048
33.047
33.042
33.032
33.018
33.0
32.977
32.95
32.921
32.889
32.856
32.823
32.791
32.761
32.733
32.707
32.684
32.663
32.644
32.626
32.61
32.593
32.577
32.56
32.542
32.523
32.502
32.48
32.458
32.435
32.412
32.391
32.371
32.355
32.344
32.338
32.34
32.352
32.379
32.424
32.492
32.589
32.721
32.895
33.114
33.384
33.706
34.081
34.508
34.982
35.498
36.049
36.625
37.218
37.816
38.409
38.985
39.536
40.051
40.521
40.937
41.293
41.588
41.821
41.995
42.115
42.183
42.206
42.188
42.137
42.06
41.96
41.845
41.719
41.586
41.45
41.314
41.179
41.049
40.925
40.808
40.699
40.598
40.505
40.419
40.339
40.264
40.194
40.126
40.061
39.997
39.934
39.869
39.8
39.725
39.643
39.553
39.453
39.344
39.224
39.095
38.956
38.81
38.655
38.494
38.327
38.157
37.986
37.815
37.646
37.481
37.322
37.171
37.032
36.905
36.794
36.701
36.625
36.566
36.525
36.498
36.483
36.479
36.482
36.488
36.494
36.499
36.501
36.498
36.488
36.472
36.449
36.421
36.386
36.347
36.304
36.259
36.213
36.165
36.117
36.068
36.017
35.964
35.908
35.849
35.786
35.719
35.649
35.575
35.497
35.414
35.327
35.238
35.147
35.056
34.965
34.876
34.791
34.711
34.636
34.565
34.5
34.439
34.381
34.325
34.27
34.216
34.162
34.107
34.052
33.996
33.94
33.884
33.829
33.774
33.721
33.67
33.621
33.573
33.528
33.485
33.443
33.404
33.368
33.333
33.301
33.271
33.243
33.218
33.198
33.181
33.167
33.156
33.147
33.138
33.131
33.123
33.115
33.106
33.096
33.084
33.07
33.056
33.041
33.026
33.01
32.994
32.978
32.962
32.947
32.931
32.914
32.898
32.881
32.864
32.848
32.832
32.819
32.806
32.796
32.788
32.781
32.775
32.77
32.765
32.76
32.754
32.748
32.74
32.731
32.72
32.707
32.692
32.676
32.657
32.637
32.616
32.595
32.574
32.554
32.535
32.518
32.5
32.483
32.465
32.447
32.428
32.409
32.39
32.371
32.352
32.333
32.313
32.294
32.275
32.255
32.234
32.213
32.193
32.174
32.156
32.142
32.133
32.131
32.137
32.156
32.192
32.253
32.346
32.473
32.639
32.849
33.104
33.407
33.757
34.153
34.593
35.072
35.583
36.12
36.676
37.24
37.804
38.359
38.897
39.409
39.886
40.323
40.714
41.055
41.344
41.58
41.763
41.895
41.98
42.022
42.026
41.996
41.938
41.857
41.757
41.644
41.522
41.396
41.267
41.14
41.016
40.897
40.785
40.682
40.586
40.499
40.42
40.346
40.279
40.214
40.151
40.089
40.026
39.96
39.889
39.812
39.728
39.634
39.53
39.416
39.29
39.154
39.007
38.85
38.686
38.517
38.344
38.172
38.003
37.838
37.682
37.534
37.398
37.274
37.166
37.081
37.02
36.979
36.955
36.941
36.934
36.928
36.919
36.905
36.885
36.858
36.824
36.784
36.739
36.69
36.64
36.589
36.538
36.488
36.437
36.388
36.338
36.289
36.24
36.193
36.145
36.098
36.051
36.001
35.95
35.897
35.841
35.783
35.722
35.659
35.596
35.531
35.466
35.399
35.332
35.263
35.192
35.119
35.044
34.967
34.889
34.81
34.73
34.651
34.574
34.5
34.43
34.364
34.301
34.242
34.187
34.135
34.088
34.043
34.001
33.961
33.921
33.882
33.842
33.802
33.762
33.722
33.682
33.645
33.609
33.577
33.547
33.521
33.497
33.474
33.451
33.428
33.404
33.381
33.358
33.335
33.313
33.293
33.274
33.257
33.242
33.23
33.218
33.207
33.196
33.183
33.17
33.156
33.142
33.128
33.116
33.106
33.098
33.091
33.086
33.081
33.077
33.071
33.065
33.059
33.051
33.042
33.032
33.022
33.011
32.999
32.987
32.973
32.958
32.941
32.922
32.902
32.88
32.858
32.835
32.812
32.789
32.766
32.741
32.717
32.691
32.665
32.639
32.613
32.588
32.562
32.536
32.511
32.486
32.461
32.437
32.415
32.394
32.376
32.36
32.348
32.34
32.339
32.345
32.361
32.389
32.433
32.498
32.587
32.707
32.864
33.061
33.304
33.595
33.936
34.326
34.763
35.242
35.754
36.293
36.846
37.405
37.959
38.496
39.008
39.486
39.922
40.312
40.651
40.938
41.171
41.353
41.485
41.57
41.611
41.615
41.585
41.528
41.448
41.352
41.242
41.124
41.002
40.878
40.754
40.632
40.514
40.4
40.29
40.186
40.087
39.993
39.905
39.822
39.741
39.664
39.589
39.514
39.438
39.359
39.274
39.183
39.084
38.977
38.859
38.732
38.594
38.446
38.29
38.125
37.954
37.778
37.603
37.43
37.263
37.104
36.954
36.813
36.684
36.565
36.458
36.361
36.278
36.206
36.147
36.101
36.067
36.045
36.034
36.034
36.041
36.054
36.071
36.089
36.107
36.123
36.134
36.138
36.135
36.122
36.098
36.065
36.023
35.973
35.916
35.853
35.787
35.719
35.651
35.581
35.512
35.444
35.376
35.31
35.244
35.18
35.114
35.048
34.979
34.908
34.834
34.757
34.678
34.598
34.516
34.435
34.354
34.275
34.198
34.124
34.053
33.985
33.919
33.856
33.794
33.734
33.676
33.621
33.57
33.521
33.474
33.431
33.389
33.349
33.311
33.276
33.242
33.209
33.178
33.148
33.118
33.09
33.063
33.038
33.014
32.992
32.972
32.955
32.939
32.926
32.915
32.906
32.899
32.893
32.887
32.881
32.874
32.866
32.857
32.848
32.838
32.828
32.818
32.808
32.798
32.786
32.774
32.762
32.748
32.734
32.718
32.702
32.686
32.671
32.657
32.645
32.635
32.625
32.617
32.608
32.599
32.589
32.577
32.563
32.547
32.53
32.512
32.493
32.475
32.457
32.439
32.421
32.404
32.388
32.374
32.362
32.35
32.34
32.332
32.323
32.314
32.304
32.292
32.278
32.262
32.245
32.227
32.21
32.194
32.181
32.171
32.163
32.157
32.152
32.146
32.139
32.129
32.117
32.103
32.086
32.067
32.047
32.025
32.004
31.984
31.966
31.95
31.937
31.928
31.923
31.924
31.929
31.942
31.965
32.0
32.052
32.126
32.227
32.362
32.539
32.763
33.04
33.373
33.765
34.213
34.716
35.267
35.857
36.477
37.117
37.762
38.402
39.024
39.617
40.169
40.672
41.119
41.504
41.824
42.079
42.27
42.399
42.473
42.496
42.475
42.416
42.326
42.211
42.079
41.934
41.783
41.631
41.481
41.335
41.198
41.071
40.953
40.848
40.753
40.67
40.597
40.532
40.474
40.421
40.373
40.328
40.285
40.24
40.193
40.141
40.084
40.019
39.944
39.858
39.76
39.648
39.521
39.38
39.225
39.058
38.881
38.697
38.507
38.314
38.123
37.937
37.757
37.586
37.428
37.283
37.153
37.038
36.938
36.854
36.784
36.727
36.683
36.649
36.623
36.605
36.593
36.585
36.58
36.576
36.573
36.567
36.559
36.547
36.53
36.507
36.476
36.437
36.392
36.341
36.286
36.228
36.168
36.106
36.042
35.978
35.912
35.847
35.781
35.714
35.645
35.573
35.498
35.421
35.342
35.26
35.176
35.091
35.005
34.918
34.831
34.744
34.657
34.571
34.488
34.408
34.332
34.26
34.193
34.131
34.073
34.017
33.965
33.914
33.866
33.818
33.771
33.723
33.675
33.627
33.58
33.532
33.486
33.439
33.394
33.349
33.307
33.266
33.229
33.194
33.163
33.135
33.112
33.093
33.077
33.066
33.056
33.048
33.041
33.033
33.025
33.018
33.011
33.004
32.998
32.992
32.983
32.972
32.959
32.943
32.925
32.905
32.884
32.861
32.838
32.814
32.79
32.765
32.741
32.717
32.693
32.67
32.649
32.629
32.612
32.597
32.584
32.573
32.562
32.55
32.537
32.522
32.506
32.488
32.47
32.451
32.432
32.414
32.397
32.381
32.367
32.353
32.339
32.325
32.309
32.293
32.277
32.26
32.243
32.226
32.209
32.192
32.176
32.161
32.147
32.135
32.124
32.115
32.106
32.096
32.086
32.073
32.059
32.042
32.023
32.002
31.98
31.959
31.94
31.923
31.907
31.891
31.877
31.865
31.853
31.844
31.838
31.833
31.831
31.831
31.835
31.845
31.864
31.896
31.946
32.019
32.12
32.255
32.431
32.652
32.924
33.249
33.628
34.06
34.541
35.067
35.63
36.222
36.832
37.45
38.065
38.665
39.241
39.783
40.281
40.73
41.123
41.458
41.734
41.95
42.107
42.21
42.262
42.269
42.236
42.171
42.078
41.963
41.833
41.692
41.544
41.392
41.241
41.094
40.952
40.817
40.689
40.569
40.457
40.353
40.256
40.165
40.081
40.002
39.927
39.856
39.786
39.715
39.641
39.562
39.477
39.385
39.285
39.174
39.052
38.918
38.774
38.619
38.455
38.283
38.106
37.927
37.75
37.575
37.405
37.244
37.092
36.95
36.821
36.703
36.599
36.507
36.429
36.361
36.304
36.257
36.22
36.192
36.171
36.158
36.151
36.149
36.149
36.15
36.15
36.146
36.139
36.126
36.109
36.086
36.058
36.025
35.987
35.944
35.895
35.843
35.787
35.727
35.664
35.599
35.532
35.465
35.397
35.33
35.263
35.196
35.13
35.064
34.996
34.928
34.859
34.787
34.714
34.639
34.563
34.486
34.41
34.336
34.262
34.19
34.121
34.054
33.989
33.928
33.869
33.814
33.76
33.709
33.66
33.611
33.563
33.514
33.465
33.417
33.37
33.326
33.284
33.245
33.209
33.177
33.148
33.124
33.104
33.088
33.074
33.062
33.052
33.042
33.033
33.024
33.014
33.004
32.994
32.983
32.973
32.963
32.955
32.948
32.941
32.934
32.924
32.913
32.899
32.883
32.865
32.846
32.826
32.805
32.785
32.766
32.748
32.733
32.72
32.71
32.702
32.697
32.693
32.69
32.689
32.687
32.683
32.677
32.67
32.662
32.653
32.643
32.634
32.625
32.616
32.607
32.598
32.587
32.576
32.563
32.548
32.531
32.513
32.494
32.474
32.455
32.437
32.421
32.406
32.392
32.378
32.364
32.349
32.332
32.313
32.292
32.27
32.247
32.222
32.198
32.173
32.148
32.123
32.099
32.074
32.051
32.029
32.009
31.992
31.98
31.972
31.969
31.974
31.988
32.015
32.059
32.123
32.215
32.34
32.503
32.71
32.964
33.27
33.627
34.036
34.494
34.994
35.53
36.094
36.676
37.266
37.852
38.424
38.974
39.491
39.969
40.401
40.783
41.111
41.383
41.598
41.758
41.863
41.918
41.925
41.889
41.816
41.71
41.577
41.422
41.251
41.069
40.882
40.692
40.505
40.324
40.15
39.987
39.834
39.694
39.565
39.448
39.342
39.245
39.157
39.075
38.998
38.922
38.846
38.767
38.683
38.594
38.496
38.389
38.273
38.147
38.012
37.868
37.716
37.559
37.398
37.234
37.07
36.908
36.749
36.596
36.452
36.317
36.193
36.081
35.982
35.898
35.828
35.773
35.732
35.704
35.687
35.683
35.689
35.706
35.731
35.762
35.796
35.831
35.863
35.889
35.909
35.92
35.92
35.91
35.889
35.858
35.817
35.767
35.708
35.641
35.57
35.495
35.419
35.343
35.268
35.194
35.122
35.052
34.982
34.912
34.841
34.769
34.695
34.618
34.538
34.457
34.374
34.29
34.205
34.12
34.036
33.953
33.872
33.795
33.723
33.655
33.593
33.535
33.482
33.432
33.385
33.34
33.296
