Trial 1:0back
33.911
33.893
33.875
33.856
33.836
33.816
33.794
33.77
33.746
33.72
33.692
33.664
33.636
33.607
33.579
33.552
33.527
33.502
33.48
33.461
33.443
33.429
33.419
33.413
33.413
33.42
33.436
33.461
33.498
33.546
33.608
33.682
33.769
33.868
33.979
34.102
34.235
34.377
34.526
34.681
34.839
34.999
35.158
35.314
35.464
35.607
35.741
35.863
35.972
36.068
36.149
36.216
36.269
36.307
36.333
36.346
36.348
36.34
36.324
36.3
36.27
36.236
36.197
36.156
36.112
36.065
36.018
35.969
35.92
35.871
35.823
35.775
35.729
35.684
35.64
35.598
35.555
35.513
35.472
35.43
35.387
35.344
35.3
35.255
35.209
35.163
35.117
35.071
35.026
34.982
34.939
34.898
34.859
34.823
34.79
34.761
34.737
34.718
34.704
34.695
34.691
34.691
34.695
34.703
34.714
34.728
34.744
34.761
34.78
34.8
34.819
34.838
34.855
34.871
34.885
34.896
34.905
34.911
34.912
34.91
34.904
34.893
34.877
34.858
34.836
34.81
34.782
34.752
34.721
34.689
34.657
34.625
34.592
34.561
34.531
34.503
34.476
34.451
34.426
34.402
34.378
34.354
34.33
34.305
34.28
34.253
34.225
34.197
34.167
34.137
34.106
34.076
34.046
34.018
33.99
33.964
33.939
33.915
33.892
33.87
33.849
33.83
33.811
33.793
33.776
33.758
33.74
33.721
33.702
33.683
33.663
33.643
33.623
33.603
33.584
33.565
33.546
33.529
33.512
33.496
33.483
33.471
33.463
33.459
33.46
33.468
33.484
33.509
33.545
33.593
33.654
33.729
33.819
33.923
34.041
34.174
34.319
34.475
34.641
34.814
34.991
35.171
35.35
35.526
35.697
35.859
36.01
36.15
36.276
36.387
36.484
36.566
36.632
36.685
36.724
36.75
36.764
36.767
36.761
36.747
36.726
36.699
36.668
36.633
36.595
36.555
36.513
36.47
36.427
36.383
36.339
36.295
36.25
36.206
36.163
36.119
36.075
36.03
35.986
35.941
35.897
35.853
35.809
35.766
35.723
35.681
35.64
35.6
35.562
35.525
35.491
35.458
35.427
35.399
35.374
35.352
35.335
35.321
35.31
35.303
35.3
35.299
35.3
35.302
35.307
35.312
35.32
35.328
35.337
35.347
35.358
35.369
35.381
35.393
35.404
35.415
35.424
35.432
35.438
35.443
35.445
35.445
35.443
35.439
35.432
35.423
35.412
35.399
35.384
35.367
35.348
35.327
35.304
35.28
35.255
35.228
35.201
35.172
35.142
35.112
35.081
35.049
35.018
34.986
34.955
34.924
34.894
34.864
34.835
34.807
34.78
34.754
34.729
34.706
34.683
34.662
34.642
34.623
34.606
34.59
34.575
34.56
34.545
34.531
34.517
34.505
34.493
34.482
34.472
34.464
34.456
34.45
34.444
34.439
34.435
34.432
34.429
34.427
34.426
34.427
34.428
34.431
34.434
34.438
34.444
34.453
34.467
34.487
34.515
34.553
34.602
34.662
34.737
34.824
34.927
35.043
35.172
35.314
35.466
35.627
35.795
35.968
36.142
36.314
36.483
36.645
36.8
36.944
37.077
37.197
37.303
37.396
37.474
37.538
37.589
37.626
37.651
37.665
37.667
37.661
37.646
37.624
37.595
37.56
37.52
37.476
37.429
37.379
37.328
37.275
37.222
37.169
37.118
37.069
37.022
36.977
36.936
36.896
36.858
36.821
36.785
36.748
36.71
36.672
36.633
36.593
36.551
36.509
36.465
36.42
36.375
36.33
36.286
36.243
36.202
36.164
36.13
36.099
36.073
36.051
36.034
36.021
36.012
36.007
36.005
36.007
36.012
36.019
36.028
36.036
36.045
36.053
36.06
36.066
36.071
36.074
36.076
36.076
36.073
36.067
36.058
36.047
36.032
36.015
35.997
35.976
35.955
35.932
35.909
35.885
35.86
35.836
35.811
35.787
35.762
35.739
35.715
35.692
35.668
35.645
35.623
35.6
35.579
35.557
35.535
35.514
35.492
35.47
35.448
35.426
35.405
35.383
35.363
35.343
35.323
35.305
35.287
35.27
35.253
35.235
35.217
35.199
35.179
35.159
35.138
35.116
35.094
35.071
35.049
35.026
35.003
34.98
34.957
34.935
34.912
34.89
34.869
34.849
34.83
34.811
34.794
34.778
34.763
34.749
34.736
34.723
34.711
34.699
34.689
34.679
34.67
34.663
34.657
34.653
34.653
34.659
34.67
34.69
34.719
34.759
34.811
34.875
34.953
35.043
35.146
35.261
35.388
35.525
35.67
35.82
35.973
36.128
36.281
36.431
36.575
36.712
36.839
36.956
37.061
37.153
37.232
37.298
37.35
37.389
37.416
37.432
37.437
37.433
37.421
37.402
37.376
37.347
37.313
37.276
37.237
37.196
37.154
37.112
37.071
37.031
36.992
36.955
36.921
36.888
36.857
36.827
36.798
36.77
36.743
36.715
36.687
36.657
36.626
36.593
36.557
36.52
36.48
36.439
36.397
36.354
36.311
36.27
36.23
36.192
36.157
36.125
36.096
36.071
36.049
36.032
36.017
36.006
35.998
35.993
35.989
35.987
35.987
35.989
35.991
35.993
35.995
35.996
35.997
35.997
35.995
35.992
35.987
35.979
35.971
35.961
35.95
35.938
35.925
35.911
35.896
35.88
35.864
35.846
35.827
35.807
35.787
35.765
35.743
35.721
35.7
35.679
35.658
35.639
35.621
35.603
35.587
35.57
35.553
35.535
35.516
35.497
35.476
35.454
35.432
35.41
35.388
35.367
35.347
35.329
35.313
35.298
35.284
35.272
35.26
35.249
35.238
35.227
35.216
35.204
35.193
35.181
35.17
35.157
35.145
35.133
35.121
35.108
35.095
35.082
35.067
35.051
35.034
35.017
34.998
34.978
34.957
34.936
34.915
34.895
34.874
34.855
34.836
34.817
34.799
34.78
34.76
34.741
34.721
34.702
34.683
34.666
34.651
34.641
34.636
34.638
34.65
34.672
34.706
34.753
34.813
34.888
34.975
35.076
35.188
35.309
35.439
35.574
35.711
35.847
35.98
36.107
36.226
36.334
36.431
36.515
36.585
36.641
36.683
36.711
36.726
36.728
36.719
36.7
36.672
36.637
36.598
36.554
36.508
36.462
36.414
36.368
36.322
36.278
36.235
36.193
36.154
36.116
36.081
36.047
36.015
35.985
35.957
35.929
35.903
35.877
35.852
35.827
35.802
35.777
35.751
35.725
35.699
35.672
35.644
35.617
35.588
35.56
35.531
35.503
35.476
35.45
35.426
35.404
35.385
35.369
35.357
35.347
35.34
35.335
35.333
35.332
35.332
35.334
35.336
35.34
35.345
35.35
35.354
35.356
35.358
35.357
35.354
35.349
35.342
35.332
35.32
35.306
35.29
35.271
35.25
35.228
35.202
35.175
35.145
35.113
35.079
35.044
35.008
34.971
34.934
34.896
34.859
34.822
34.786
34.751
34.719
34.688
34.66
34.635
34.611
34.589
34.569
34.549
34.531
34.513
34.496
34.479
34.462
34.444
34.426
34.408
34.389
34.369
34.349
34.328
34.306
34.284
34.261
34.239
34.217
34.196
34.174
34.154
34.134
34.114
34.095
34.076
34.058
34.04
34.023
34.007
33.992
33.979
33.967
33.957
33.947
33.938
33.93
33.923
33.916
33.911
33.906
33.903
33.902
33.903
33.909
33.92
33.937
33.961
33.993
34.033
34.084
34.145
34.216
34.298
34.389
34.489
34.596
34.707
34.822
34.938
35.053
35.165
35.272
35.372
35.463
35.545
35.616
35.676
35.725
35.764
35.793
35.812
35.823
35.825
35.82
35.808
35.791
35.769
35.743
35.715
35.685
35.654
35.623
35.593
35.563
35.534
35.507
35.482
35.458
35.436
35.416
35.397
35.379
35.362
35.344
35.326
35.308
35.288
35.266
35.243
35.219
35.194
35.168
35.142
35.115
35.088
35.061
35.035
35.008
34.982
34.957
34.933
34.91
34.889
34.871
34.855
34.842
34.831
34.822
34.816
34.812
34.81
34.81
34.811
34.813
34.815
34.818
34.822
34.825
34.827
34.828
34.828
34.826
34.821
34.814
34.805
34.793
34.78
34.765
34.749
34.732
34.714
34.695
34.676
34.656
34.634
34.611
34.588
34.563
34.538
34.511
34.485
34.458
34.43
34.403
34.375
34.347
34.319
34.292
34.266
34.24
34.216
34.192
34.17
34.149
34.129
34.11
34.092
34.076
34.06
34.046
34.033
34.021
34.01
34.001
33.992
33.984
33.976
33.969
33.961
33.954
33.947
33.94
33.933
33.927
33.92
33.913
33.906
33.899
33.89
33.881
33.871
33.86
33.849
33.837
33.825
33.812
33.8
33.788
33.777
33.767
33.757
33.748
33.741
33.735
33.731
33.731
33.734
33.743
33.759
33.782
33.813
33.855
33.906
33.969
34.043
34.128
34.224
34.33
34.444
34.565
34.692
34.821
34.951
35.081
35.206
35.327
35.44
35.544
35.638
35.721
35.792
35.852
35.9
35.937
35.964
35.98
35.988
35.987
35.98
35.967
35.949
35.928
35.905
35.879
35.853
35.826
35.798
35.77
35.741
35.713
35.685
35.657
35.631
35.605
35.58
35.557
35.535
35.514
35.495
35.477
35.461
35.446
35.432
35.419
35.406
35.394
35.381
35.368
35.355
35.341
35.327
35.313
35.299
35.284
35.27
35.255
35.241
35.227
35.213
35.2
35.188
35.177
35.168
35.161
35.155
35.152
35.151
35.152
35.156
35.162
35.17
35.179
35.189
35.2
35.211
35.221
35.23
35.238
35.244
35.248
35.25
35.25
35.249
35.245
35.24
35.233
35.225
35.215
35.204
35.191
35.177
35.163
35.147
35.131
35.114
35.096
35.079
35.061
35.043
35.026
35.009
34.993
34.976
34.96
34.944
34.927
34.91
34.893
34.877
34.861
34.845
34.831
34.817
34.803
34.789
34.775
34.761
34.747
34.733
34.719
34.704
34.69
34.676
34.66
34.645
34.629
34.612
34.595
34.579
34.563
34.548
34.534
34.521
34.509
34.499
34.489
34.481
34.474
34.468
34.462
34.457
34.451
34.445
34.439
34.432
34.424
34.415
34.406
34.396
34.386
34.375
34.366
34.358
34.354
34.353
34.359
34.371
34.393
34.424
34.466
34.52
34.587
34.667
34.758
34.861
34.974
35.096
35.225
35.359
35.496
35.634
35.771
35.904
36.032
36.152
36.262
36.362
36.449
36.524
36.586
36.636
36.672
36.696
36.71
36.713
36.707
36.694
36.675
36.649
36.62
36.588
36.555
36.521
36.488
36.455
36.425
36.397
36.372
36.349
36.33
36.312
36.296
36.281
36.267
36.252
36.237
36.222
36.205
36.187
36.167
36.145
36.122
36.098
36.072
36.046
36.02
35.993
35.967
35.94
35.915
35.891
35.869
35.848
35.828
35.811
35.795
35.78
35.768
35.756
35.747
35.739
35.732
35.727
35.724
35.722
35.721
35.721
35.721
35.722
35.723
35.724
35.724
35.725
35.725
35.724
35.723
35.721
35.719
35.716
35.712
35.709
35.705
35.7
35.695
35.69
35.683
35.674
35.664
35.651
35.637
35.62
35.601
35.581
35.558
35.534
35.509
35.482
35.455
35.427
35.399
35.371
35.344
35.317
35.291
35.266
35.243
35.221
35.201
35.183
35.166
35.151
35.137
35.124
35.112
35.101
35.09
35.079
35.068
35.058
35.048
35.038
35.028
35.018
35.008
34.998
34.988
34.977
34.967
34.956
34.945
34.935
34.924
34.914
34.904
34.894
34.884
34.873
34.862
34.85
34.838
34.825
34.813
34.8
34.787
34.773
34.76
34.746
34.733
34.72
34.707
34.693
34.68
34.667
34.654
34.642
34.631
34.622
34.616
34.615
34.619
34.631
34.653
34.685
34.73
34.789
34.861
34.946
35.044
35.155
35.275
35.404
35.539
35.679
35.819
35.959
36.095
36.225
36.347
36.458
36.559
36.647
36.723
36.785
36.833
36.869
36.893
36.905
36.907
36.9
36.885
36.865
36.84
36.81
36.778
36.744
36.709
36.673
36.638
36.603
36.57
36.537
36.506
36.476
36.448
36.421
36.395
36.369
36.345
36.32
36.296
36.271
36.246
36.221
36.195
36.168
36.14
36.11
36.08
36.049
36.017
35.985
35.954
35.924
35.894
35.867
35.842
35.819
35.799
35.781
35.766
35.753
35.743
35.734
35.726
35.721
35.716
35.714
35.712
35.712
35.712
35.713
35.714
35.716
35.718
35.72
35.721
35.723
35.723
35.722
35.72
35.717
35.712
35.707
35.699
35.69
35.679
35.665
35.649
35.631
35.611
35.589
35.565
35.54
35.515
35.488
35.462
35.436
35.409
35.383
35.358
35.332
35.308
35.284
35.26
35.236
35.213
35.188
35.164
35.14
35.117
35.093
35.07
35.047
35.025
35.003
34.982
34.962
34.943
34.923
34.904
34.885
34.865
34.846
34.826
34.805
34.785
34.765
34.744
34.725
34.706
34.687
34.67
34.654
34.639
34.625
34.612
34.6
34.588
34.577
34.566
34.554
34.542
34.53
34.516
34.502
34.487
34.472
34.455
34.438
34.421
34.404
34.387
34.37
34.353
34.338
34.324
34.312
34.304
34.3
34.302
34.31
34.327
34.353
34.389
34.437
34.496
34.568
34.652
34.748
34.853
34.968
35.09
35.216
35.345
35.474
35.6
35.723
35.839
35.948
36.047
36.135
36.212
36.277
36.329
36.369
36.397
36.415
36.422
36.421
36.412
36.397
36.377
36.352
36.323
36.29
36.255
36.219
36.182
36.144
36.107
36.07
36.034
35.999
35.965
35.933
35.903
35.874
35.846
35.821
35.796
35.771
35.747
35.722
35.697
35.671
35.644
35.616
35.588
35.559
35.53
35.499
35.468
35.437
35.405
35.374
35.345
35.317
35.292
35.269
35.25
35.234
35.22
35.211
35.204
35.201
35.201
35.204
35.209
35.215
35.222
35.23
35.238
35.247
35.255
35.264
35.272
35.279
35.285
35.29
35.294
35.296
35.296
35.295
35.292
35.287
35.28
35.27
35.258
35.244
35.227
35.209
35.19
35.169
35.148
35.126
35.103
35.08
35.056
35.031
35.006
34.981
34.956
34.931
34.907
34.884
34.86
34.838
34.816
34.794
34.773
34.753
34.734
34.716
34.698
34.682
34.666
34.652
34.638
34.624
34.61
34.597
34.584
34.571
34.557
34.544
34.53
34.514
34.498
34.481
34.463
34.444
34.424
34.402
34.379
34.356
34.331
34.307
34.283
34.259
34.235
34.211
34.187
34.164
34.14
34.118
34.096
34.075
34.055
34.036
34.019
34.005
33.994
33.987
33.985
33.99
34.002
34.023
34.054
34.096
34.15
34.217
34.298
34.392
34.498
34.617
34.745
34.882
35.026
35.174
35.325
35.475
35.622
35.764
35.898
36.022
36.136
36.236
36.324
36.397
36.457
36.503
36.535
36.555
36.563
36.56
36.548
36.528
36.502
36.471
36.436
36.398
36.359
36.319
36.278
36.238
36.199
36.161
36.124
36.09
36.057
36.027
35.999
35.973
35.948
35.925
35.902
35.88
35.858
35.834
35.81
35.783
35.756
35.726
35.696
35.664
35.631
35.598
35.564
35.531
35.498
35.467
35.438
35.411
35.387
35.365
35.346
35.329
35.314
35.303
35.294
35.288
35.286
35.287
35.291
35.299
35.31
35.324
35.34
35.358
35.378
35.397
35.416
35.434
35.449
35.463
35.474
35.481
35.486
35.488
35.486
35.482
35.475
35.466
35.455
35.442
35.426
35.408
35.388
35.366
35.342
35.317
35.292
35.266
35.241
35.217
35.193
35.171
35.151
35.132
35.114
35.098
35.083
35.069
35.055
35.042
35.029
35.016
35.003
34.99
34.977
34.964
34.95
34.936
34.921
34.905
34.888
34.869
34.85
34.829
34.807
34.786
34.764
34.743
34.722
34.703
34.685
34.668
34.652
34.638
34.625
34.613
34.602
34.593
34.585
34.579
34.574
34.569
34.564
34.559
34.552
34.546
34.538
34.53
34.523
34.516
34.513
34.514
34.52
34.535
34.559
34.593
34.64
34.699
34.771
34.855
34.951
35.059
35.177
35.302
35.434
35.57
35.707
35.843
35.976
36.103
36.224
36.337
36.439
36.531
36.612
36.68
36.737
36.781
36.813
36.833
36.843
36.844
36.836
36.82
36.798
36.771
36.74
36.705
36.667
36.626
36.584
36.542
36.5
36.459
36.42
36.383
36.348
36.315
36.285
36.257
36.231
36.206
36.182
36.16
36.138
36.116
36.094
36.071
36.047
36.022
35.995
35.968
35.941
35.913
35.886
35.86
35.835
35.811
35.788
35.766
35.746
35.727
35.71
35.696
35.683
35.674
35.667
35.664
35.663
35.665
35.669
35.675
35.682
35.692
35.702
35.714
35.725
35.737
35.747
35.755
35.762
35.765
35.766
35.763
35.758
35.749
35.738
35.724
35.708
35.691
35.673
35.653
35.634
35.614
35.594
35.574
35.554
35.534
35.516
35.497
35.48
35.463
35.445
35.428
35.41
35.391
35.371
35.349
35.327
35.302
35.277
35.252
35.226
35.2
35.175
35.151
35.128
35.106
35.084
35.064
35.044
35.025
35.007
34.989
34.972
34.955
34.938
34.92
34.903
34.885
34.866
34.848
34.828
34.808
34.788
34.767
34.745
34.724
34.702
34.681
34.661
34.641
34.622
34.603
34.586
34.57
34.557
34.547
34.541
34.542
34.55
34.567
34.594
34.632
34.681
34.741
34.813
34.896
34.989
35.09
35.198
35.312
35.43
35.55
35.671
35.79
35.907
36.019
36.124
36.222
36.31
36.387
36.454
36.508
36.551
36.582
36.602
36.612
36.613
36.607
36.595
36.577
36.554
36.528
36.499
36.466
36.432
36.397
36.361
36.324
36.287
36.25
36.212
36.175
36.139
36.102
36.067
36.031
35.996
35.962
35.928
35.893
35.859
35.824
35.79
35.757
35.724
35.691
35.66
35.629
35.6
35.572
35.547
35.523
35.501
35.481
35.463
35.446
35.432
35.419
35.408
35.399
35.392
35.386
35.382
35.379
35.377
35.376
35.377
35.378
35.38
35.382
35.385
35.387
35.39
35.391
35.392
35.392
35.391
35.389
35.386
35.382
35.377
35.371
35.362
35.352
35.339
35.323
35.306
35.288
35.268
35.248
35.227
35.206
35.184
35.161
35.138
35.114
35.089
35.063
35.036
35.008
34.978
34.948
34.917
34.885
34.853
34.822
34.791
34.762
34.734
34.707
34.683
34.661
34.641
34.623
34.606
34.592
34.578
34.566
34.555
34.545
34.534
34.524
34.514
34.504
34.493
34.481
34.469
34.456
34.442
34.426
34.41
34.391
34.372
34.351
34.33
34.308
34.286
34.264
34.244
34.226
34.211
34.201
34.196
34.199
34.211
34.233
34.268
34.314
34.374
34.446
34.53
34.625
34.728
34.838
34.954
35.073
35.192
35.311
35.427
35.538
35.643
35.739
35.826
35.903
35.968
36.023
36.067
36.101
36.124
36.138
36.142
36.138
36.127
36.11
36.087
36.06
36.029
35.996
35.96
35.924
35.887
35.85
35.814
35.779
35.746
35.714
35.684
35.655
35.628
35.602
35.577
35.552
35.528
35.502
35.476
35.449
35.42
35.389
35.357
35.323
35.289
35.255
35.221
35.188
35.156
35.125
35.097
35.07
35.046
35.025
35.006
34.99
34.977
34.966
34.958
34.952
34.948
34.946
34.945
34.946
34.947
34.949
34.951
34.952
34.954
34.956
34.958
34.959
34.96
34.961
34.962
34.961
34.96
34.958
34.955
34.951
34.946
34.938
34.929
34.918
34.904
34.889
34.873
34.855
34.836
34.815
34.794
34.771
34.747
34.722
34.696
34.669
34.64
34.612
34.583
34.555
34.527
34.499
34.473
34.447
34.422
34.398
34.375
34.355
34.337
34.32
34.306
34.294
34.283
34.274
34.266
34.258
34.252
34.245
34.239
34.233
34.226
34.217
34.207
34.195
34.181
34.166
34.149
34.131
34.112
34.093
34.073
34.054
34.035
34.017
33.999
33.983
33.969
33.959
33.952
33.951
33.957
33.972
33.995
34.03
34.076
34.134
34.205
34.287
34.381
34.486
34.6
34.722
34.852
34.985
35.121
35.256
35.389
35.516
35.636
35.747
35.847
35.937
36.014
36.08
36.135
36.178
36.211
36.233
36.246
36.251
36.249
36.24
36.226
36.207
36.184
36.158
36.13
36.1
36.069
36.038
36.007
35.975
35.944
35.914
35.884
35.854
35.825
35.796
35.767
35.739
35.711
35.684
35.656
35.628
35.6
35.572
35.544
35.516
35.487
35.458
35.429
35.4
35.371
35.343
35.316
35.291
35.267
35.245
35.226
35.21
35.196
35.185
35.176
35.169
35.164
35.161
35.16
35.159
35.159
35.16
35.161
35.163
35.165
35.167
35.17
35.172
35.173
35.174
35.175
35.175
35.174
35.173
35.17
35.167
35.163
35.157
35.149
35.14
35.13
35.119
35.107
35.094
35.081
35.067
35.052
35.037
35.021
35.004
34.986
34.968
34.951
34.933
34.917
34.9
34.885
34.869
34.855
34.84
34.826
34.812
34.799
34.785
34.772
34.76
34.748
34.736
34.724
34.712
34.699
34.687
34.673
34.659
34.645
34.63
34.614
34.598
34.583
34.568
34.552
34.538
34.523
34.51
34.497
34.485
34.474
34.463
34.454
34.445
34.437
34.43
34.423
34.418
34.414
34.414
34.418
34.428
34.445
34.47
34.506
34.551
34.608
34.677
34.758
34.85
34.954
35.066
35.187
35.314
35.445
35.578
35.71
35.839
35.962
36.078
36.184
36.281
36.366
36.439
36.5
36.549
36.586
36.612
36.628
36.634
36.632
36.623
36.607
36.586
36.561
36.533
36.502
36.469
36.435
36.4
36.364
36.328
36.294
36.26
36.227
36.197
36.168
36.141
36.115
36.091
36.067
36.043
36.02
35.997
35.973
35.949
35.924
35.898
35.871
35.843
35.815
35.785
35.755
35.725
35.695
35.665
35.635
35.607
35.579
35.553
35.528
35.506
35.486
35.469
35.456
35.446
35.441
35.439
35.441
35.446
35.453
35.462
35.474
35.486
35.5
35.514
