Trial 1:0back
37.235
37.03
36.833
36.642
36.459
36.283
36.117
35.959
35.811
35.673
35.546
35.429
35.324
35.231
35.151
35.083
35.029
34.989
34.964
34.955
34.962
34.985
35.024
35.081
35.154
35.243
35.347
35.464
35.593
35.732
35.877
36.026
36.176
36.324
36.467
36.603
36.728
36.843
36.944
37.032
37.106
37.166
37.214
37.247
37.268
37.276
37.273
37.259
37.234
37.2
37.155
37.1
37.036
36.964
36.883
36.794
36.698
36.595
36.484
36.367
36.244
36.115
35.983
35.848
35.712
35.575
35.44
35.307
35.176
35.047
34.921
34.798
34.678
34.561
34.445
34.331
34.217
34.101
33.986
33.87
33.756
33.644
33.534
33.428
33.325
33.226
33.131
33.039
32.952
32.869
32.791
32.717
32.647
32.581
32.518
32.461
32.407
32.358
32.313
32.271
32.232
32.195
32.161
32.129
32.098
32.069
32.041
32.014
31.988
31.963
31.939
31.916
31.894
31.871
31.849
31.826
31.802
31.777
31.751
31.724
31.697
31.67
31.645
31.62
31.597
31.576
31.558
31.542
31.529
31.52
31.515
31.514
31.515
31.52
31.527
31.535
31.544
31.554
31.564
31.573
31.583
31.592
31.601
31.608
31.614
31.619
31.624
31.629
31.633
31.638
31.644
31.65
31.657
31.664
31.671
31.678
31.685
31.692
31.698
31.703
31.707
31.709
31.71
31.71
31.71
31.71
31.709
31.709
31.71
31.711
31.712
31.715
31.718
31.722
31.726
31.732
31.74
31.753
31.771
31.798
31.835
31.885
31.955
32.05
32.178
32.348
32.57
32.852
33.202
33.624
34.122
34.693
35.335
36.037
36.787
37.572
38.374
39.178
39.966
40.724
41.438
42.097
42.693
43.219
43.67
44.047
44.349
44.579
44.741
44.841
44.885
44.88
44.834
44.751
44.641
44.507
44.358
44.195
44.025
43.848
43.668
43.485
43.301
43.116
42.931
42.747
42.563
42.38
42.197
42.015
41.834
41.654
41.476
41.3
41.127
40.956
40.786
40.618
40.452
40.289
40.128
39.97
39.816
39.664
39.518
39.376
39.238
39.104
38.973
38.844
38.717
38.592
38.467
38.343
38.221
38.1
37.98
37.864
37.751
37.643
37.541
37.447
37.363
37.291
37.23
37.182
37.148
37.126
37.117
37.12
37.136
37.163
37.201
37.249
37.305
37.368
37.436
37.509
37.584
37.66
37.734
37.805
37.872
37.932
37.985
38.029
38.063
38.086
38.097
38.096
38.082
38.055
38.015
37.963
37.901
37.83
37.751
37.665
37.573
37.476
37.376
37.273
37.168
37.061
36.953
36.842
36.731
36.618
36.502
36.385
36.267
36.146
36.024
35.902
35.779
35.657
35.535
35.414
35.294
35.175
35.058
34.944
34.831
34.721
34.612
34.505
34.399
34.294
34.191
34.09
33.992
33.897
33.805
33.717
33.634
33.557
33.486
33.421
33.361
33.308
33.26
33.217
33.179
33.146
33.117
33.093
33.072
33.053
33.035
33.016
32.996
32.974
32.949
32.924
32.898
32.871
32.844
32.818
32.794
32.772
32.754
32.739
32.728
32.721
32.718
32.717
32.718
32.72
32.723
32.724
32.725
32.723
32.719
32.711
32.701
32.687
32.67
32.65
32.627
32.603
32.577
32.548
32.517
32.485
32.453
32.421
32.39
32.361
32.332
32.304
32.275
32.247
32.218
32.189
32.157
32.124
32.089
32.053
32.016
31.977
31.937
31.897
31.857
31.817
31.78
31.744
31.711
31.679
31.649
31.621
31.593
31.566
31.539
31.511
31.482
31.45
31.415
31.378
31.338
31.296
31.254
31.21
31.165
31.121
31.079
31.039
31.001
30.967
30.936
30.91
30.889
30.872
30.86
30.855
30.857
30.869
30.892
30.93
30.99
31.076
31.199
31.368
31.591
31.876
32.231
32.659
33.163
33.739
34.382
35.082
35.829
36.606
37.4
38.192
38.967
39.709
40.407
41.048
41.624
42.128
42.558
42.913
43.194
43.405
43.551
43.64
43.678
43.673
43.634
43.565
43.475
43.369
43.249
43.122
42.989
42.852
42.713
42.572
42.43
42.289
42.147
42.005
41.86
41.714
41.566
41.417
41.267
41.117
40.969
40.824
40.683
40.547
40.415
40.289
40.167
40.05
39.938
39.828
39.722
39.616
39.511
39.406
39.3
39.194
39.088
38.98
38.871
38.761
38.65
38.538
38.425
38.311
38.198
38.085
37.974
37.864
37.757
37.655
37.559
37.47
37.391
37.322
37.265
37.22
37.189
37.171
37.164
37.169
37.184
37.208
37.24
37.279
37.323
37.37
37.419
37.469
37.518
37.566
37.613
37.657
37.698
37.734
37.763
37.785
37.799
37.802
37.795
37.776
37.745
37.703
37.65
37.587
37.515
37.435
37.349
37.258
37.162
37.062
36.959
36.854
36.746
36.638
36.527
36.413
36.29
36.16
36.023
35.882
35.74
35.6
35.464
35.334
35.211
35.097
34.99
34.891
34.799
34.712
34.63
34.549
34.469
34.388
34.306
34.221
34.134
34.045
33.952
33.858
33.764
33.671
33.58
33.493
33.41
33.333
33.263
33.199
33.141
33.09
33.045
33.007
32.974
32.946
32.922
32.903
32.885
32.87
32.855
32.842
32.827
32.812
32.794
32.775
32.755
32.734
32.713
32.691
32.671
32.653
32.638
32.626
32.617
32.61
32.603
32.597
32.59
32.582
32.573
32.564
32.555
32.546
32.537
32.527
32.518
32.509
32.501
32.493
32.484
32.475
32.466
32.457
32.447
32.437
32.427
32.418
32.409
32.401
32.394
32.386
32.379
32.372
32.365
32.355
32.344
32.331
32.315
32.296
32.274
32.249
32.22
32.188
32.153
32.114
32.072
32.028
31.981
31.933
31.884
31.833
31.782
31.729
31.677
31.626
31.577
31.532
31.491
31.456
31.427
31.405
31.393
31.391
31.405
31.436
31.491
31.576
31.698
31.866
32.089
32.373
32.727
33.153
33.651
34.217
34.846
35.526
36.246
36.99
37.743
38.489
39.213
39.901
40.541
41.123
41.641
42.093
42.475
42.788
43.034
43.216
43.338
43.406
43.427
43.408
43.355
43.277
43.178
43.065
42.942
42.814
42.682
42.55
42.417
42.283
42.149
42.012
41.875
41.737
41.599
41.461
41.323
41.185
41.049
40.916
40.784
40.656
40.53
40.406
40.285
40.166
40.048
39.932
39.818
39.706
39.595
39.484
39.374
39.262
39.148
39.032
38.913
38.79
38.664
38.534
38.403
38.271
38.14
38.011
37.884
37.762
37.645
37.534
37.432
37.34
37.258
37.187
37.126
37.076
37.037
37.009
36.99
36.98
36.978
36.984
36.997
37.017
37.042
37.071
37.102
37.135
37.169
37.203
37.237
37.268
37.296
37.322
37.345
37.364
37.379
37.387
37.388
37.381
37.365
37.339
37.302
37.255
37.196
37.127
37.048
36.958
36.861
36.757
36.649
36.537
36.423
36.309
36.194
36.078
35.963
35.848
35.734
35.62
35.508
35.396
35.285
35.175
35.064
34.954
34.843
34.733
34.622
34.511
34.399
34.289
34.179
34.07
33.962
33.856
33.753
33.653
33.555
33.46
33.366
33.276
33.189
33.106
33.028
32.953
32.882
32.816
32.754
32.696
32.642
32.593
32.547
32.504
32.465
32.427
32.391
32.355
32.321
32.286
32.251
32.217
32.183
32.149
32.116
32.082
32.049
32.017
31.986
31.958
31.932
31.91
31.892
31.876
31.864
31.854
31.846
31.839
31.832
31.824
31.815
31.804
31.791
31.775
31.757
31.737
31.717
31.695
31.674
31.652
31.631
31.612
31.595
31.58
31.567
31.556
31.546
31.537
31.529
31.519
31.509
31.498
31.486
31.471
31.454
31.433
31.408
31.38
31.35
31.318
31.284
31.249
31.213
31.177
31.141
31.106
31.072
31.039
31.008
30.979
30.951
30.925
30.902
30.883
30.869
30.86
30.858
30.865
30.885
30.92
30.977
31.06
31.178
31.339
31.55
31.82
32.155
32.557
33.029
33.567
34.166
34.818
35.51
36.228
36.957
37.682
38.389
39.065
39.698
40.279
40.799
41.254
41.641
41.958
42.208
42.392
42.515
42.583
42.602
42.58
42.522
42.437
42.328
42.201
42.061
41.911
41.754
41.592
41.427
41.261
41.094
40.929
40.766
40.605
40.447
40.292
40.141
39.992
39.846
39.701
39.558
39.417
39.279
39.142
39.007
38.874
38.744
38.616
38.489
38.364
38.24
38.117
37.995
37.873
37.75
37.627
37.503
37.378
37.25
37.121
36.991
36.862
36.735
36.612
36.494
36.383
36.281
36.19
36.11
36.044
35.991
35.951
35.924
35.909
35.908
35.917
35.93
35.946
35.965
35.988
36.016
36.051
36.094
36.146
36.205
36.271
36.342
36.418
36.496
36.573
36.646
36.713
36.772
36.821
36.858
36.881
36.89
36.885
36.866
36.834
36.791
36.738
36.675
36.604
36.526
36.441
36.351
36.258
36.16
36.059
35.956
35.85
35.742
35.633
35.524
35.415
35.307
35.2
35.094
34.989
34.886
34.785
34.686
34.589
34.495
34.402
34.311
34.222
34.134
34.047
33.961
33.876
33.792
33.71
33.629
33.551
33.474
33.399
33.326
33.256
33.191
33.129
33.073
33.021
32.973
32.929
32.887
32.849
32.813
32.779
32.746
32.715
32.684
32.654
32.625
32.598
32.575
32.555
32.539
32.527
32.516
32.509
32.503
32.499
32.495
32.49
32.484
32.477
32.468
32.458
32.448
32.437
32.425
32.414
32.404
32.393
32.382
32.371
32.361
32.352
32.343
32.336
32.329
32.324
32.319
32.315
32.311
32.307
32.3
32.29
32.276
32.258
32.236
32.21
32.181
32.148
32.113
32.076
32.038
32.001
31.966
31.932
31.9
31.87
31.84
31.812
31.784
31.757
31.73
31.703
31.677
31.652
31.63
31.611
31.598
31.591
31.594
31.609
31.641
31.694
31.775
31.891
32.049
32.258
32.523
32.851
33.243
33.701
34.223
34.803
35.432
36.099
36.793
37.499
38.203
38.89
39.549
40.166
40.733
41.24
41.684
42.061
42.37
42.615
42.798
42.923
42.996
43.022
43.008
42.96
42.883
42.783
42.666
42.535
42.395
42.25
42.102
41.954
41.806
41.658
41.51
41.362
41.211
41.057
40.9
40.74
40.577
40.413
40.248
40.082
39.917
39.753
39.592
39.434
39.28
39.129
38.98
38.834
38.69
38.548
38.407
38.267
38.128
37.988
37.849
37.71
37.572
37.435
37.3
37.167
37.037
36.911
36.79
36.675
36.568
36.47
36.384
36.31
36.252
36.209
36.181
36.168
36.17
36.185
36.214
36.254
36.306
36.367
36.436
36.51
36.587
36.665
36.744
36.82
36.892
36.96
37.022
37.079
37.129
37.171
37.206
37.231
37.246
37.25
37.243
37.224
37.194
37.153
37.102
37.042
36.974
36.899
36.815
36.724
36.627
36.525
36.419
36.311
36.2
36.087
35.972
35.854
35.734
35.612
35.487
35.36
35.23
35.099
34.967
34.834
34.699
34.565
34.431
34.299
34.171
34.049
33.932
33.821
33.718
33.62
33.529
33.442
33.361
33.285
33.213
33.144
33.077
33.012
32.948
32.886
32.826
32.768
32.712
32.659
32.609
32.561
32.517
32.476
32.438
32.404
32.373
32.346
32.323
32.304
32.288
32.276
32.266
32.259
32.252
32.246
32.24
32.233
32.224
32.214
32.202
32.187
32.17
32.152
32.133
32.114
32.095
32.077
32.062
32.049
32.039
32.03
32.022
32.015
32.009
32.002
31.994
31.985
31.975
31.963
31.949
31.934
31.918
31.901
31.885
31.87
31.856
31.842
31.829
31.815
31.8
31.784
31.767
31.749
31.73
31.711
31.689
31.666
31.642
31.618
31.593
31.568
31.543
31.52
31.498
31.478
31.461
31.445
31.432
31.422
31.414
31.407
31.402
31.397
31.391
31.383
31.372
31.358
31.34
31.319
31.295
31.269
31.24
31.209
31.178
31.146
31.112
31.078
31.043
31.008
30.975
30.943
30.913
30.885
30.861
30.84
30.825
30.816
30.815
30.824
30.848
30.89
30.956
31.053
31.191
31.381
31.633
31.955
32.356
32.84
33.406
34.051
34.767
35.542
36.36
37.206
38.061
38.907
39.725
40.501
41.22
41.872
42.447
42.942
43.353
43.679
43.924
44.093
44.193
44.231
44.217
44.158
44.064
43.941
43.796
43.634
43.46
43.279
43.094
42.907
42.72
42.535
42.353
42.174
41.997
41.824
41.652
41.482
41.313
41.145
40.978
40.811
40.647
40.484
40.324
40.168
40.014
39.865
39.72
39.578
39.44
39.304
39.171
39.041
38.914
38.789
38.668
38.55
38.434
38.32
38.205
38.09
37.974
37.856
37.738
37.619
37.5
37.382
37.266
37.154
37.047
36.947
36.855
36.774
36.705
36.649
36.608
36.582
36.569
36.569
36.58
36.602
36.633
36.671
36.714
36.76
36.807
36.855
36.902
36.946
36.986
37.022
37.053
37.077
37.094
37.106
37.111
37.11
37.102
37.087
37.063
37.029
36.985
36.932
36.869
36.798
36.719
36.634
36.542
36.445
36.344
36.237
36.128
36.015
35.901
35.785
35.669
35.552
35.436
35.321
35.207
35.094
34.981
34.87
34.759
34.649
34.54
34.433
34.327
34.223
34.12
34.02
33.922
33.826
33.732
33.64
33.55
33.46
33.372
33.285
33.2
33.117
33.038
32.961
32.888
32.819
32.754
32.694
32.639
32.588
32.543
32.502
32.466
32.434
32.405
32.379
32.357
32.337
32.32
32.304
32.291
32.278
32.267
32.258
32.251
32.245
32.24
32.234
32.227
32.22
32.212
32.204
32.195
32.186
32.176
32.165
32.153
32.14
32.125
32.109
32.092
32.075
32.058
32.04
32.023
32.006
31.989
31.973
31.958
31.944
31.931
31.919
31.909
31.898
31.887
31.875
31.862
31.849
31.834
31.819
31.803
31.787
31.77
31.753
31.736
31.719
31.701
31.682
31.663
31.642
31.62
31.597
31.574
31.551
31.528
31.505
31.483
31.461
31.44
31.419
31.398
31.376
31.355
31.333
31.308
31.282
31.255
31.228
31.202
31.177
31.154
31.132
31.113
31.096
31.081
31.067
31.055
31.044
31.032
31.019
31.005
30.99
30.972
30.954
30.936
30.917
30.899
30.882
30.865
30.849
30.834
30.819
30.804
30.789
30.773
30.756
30.738
30.72
30.703
30.687
30.674
30.663
30.656
30.652
30.654
30.663
30.682
30.715
30.767
30.843
30.95
31.097
31.291
31.543
31.861
32.251
32.718
33.262
33.88
34.564
35.304
36.084
36.891
37.706
38.514
39.297
40.041
40.732
41.358
41.914
42.393
42.795
43.119
43.368
43.546
43.66
43.717
43.724
43.688
43.617
43.518
43.398
43.261
43.114
42.96
42.802
42.641
42.478
42.315
42.152
41.989
41.826
41.663
41.5
41.337
41.172
41.006
40.838
40.668
40.497
40.325
40.151
39.977
39.804
39.632
39.462
39.297
39.137
38.981
38.83
38.682
38.538
38.396
38.257
38.119
37.981
37.843
37.706
37.571
37.438
37.31
37.186
37.069
36.96
36.86
36.77
36.69
36.622
36.565
36.522
36.491
36.475
36.473
36.485
36.509
36.546
36.594
36.653
36.721
36.796
36.878
36.964
37.051
37.139
37.225
37.308
37.385
37.454
37.516
37.569
37.613
37.648
37.675
37.692
37.7
37.698
37.686
37.663
37.629
37.583
37.525
37.457
37.379
37.292
37.198
37.097
36.99
36.878
36.763
36.646
36.529
36.41
36.293
36.176
36.059
35.942
35.824
35.706
35.588
35.468
35.346
35.224
35.102
34.981
34.862
34.745
34.632
34.521
34.413
34.309
34.209
34.111
34.017
33.925
33.836
33.748
33.662
33.577
33.496
33.417
33.343
33.271
33.204
33.141
33.083
33.03
32.982
32.938
32.9
32.865
32.834
32.805
32.78
32.758
32.738
32.72
32.704
32.689
32.675
32.661
32.649
32.638
32.628
32.619
32.611
32.604
32.596
32.587
32.576
32.565
32.553
32.541
32.529
32.517
32.506
32.496
32.487
32.477
32.467
32.457
32.446
32.434
32.422
32.411
32.401
32.391
32.381
32.371
32.361
32.351
32.339
32.327
32.313
32.297
32.281
32.263
32.243
32.223
32.2
32.175
32.147
32.117
32.085
32.052
32.019
31.987
31.955
31.924
31.895
31.869
31.845
31.824
31.806
31.79
31.774
31.757
31.739
31.72
31.7
31.677
31.651
31.622
31.589
31.552
31.512
31.469
31.424
31.378
31.332
31.288
31.245
31.204
31.167
31.132
31.101
31.075
31.052
31.034
31.021
31.013
31.012
31.019
31.036
31.064
31.108
31.173
31.267
31.401
31.584
31.828
32.141
32.531
33.003
33.557
34.19
34.893
35.655
36.462
37.298
38.143
38.979
39.789
40.555
41.264
41.906
42.472
42.959
43.365
43.69
43.939
44.115
44.224
44.273
44.268
44.218
44.13
44.013
43.872
43.713
43.543
43.366
43.187
43.007
42.829
42.653
42.479
42.308
42.138
41.967
41.797
41.627
41.457
41.288
41.12
40.953
40.788
40.624
40.462
40.302
40.146
39.993
39.844
39.699
39.558
39.422
39.291
39.163
39.039
38.917
38.798
38.68
38.563
38.444
38.325
38.204
38.082
37.957
37.832
37.708
37.586
37.466
37.35
37.241
37.139
37.048
36.968
36.901
36.845
36.801
36.769
36.748
36.739
36.74
36.752
36.774
36.805
36.845
36.893
36.945
37.001
37.061
37.122
37.183
37.243
37.298
37.348
37.392
37.428
37.456
37.474
37.484
37.484
37.474
37.454
37.426
37.387
37.339
37.282
37.217
37.143
37.061
36.972
36.878
36.779
36.678
36.575
36.469
36.362
36.252
36.14
36.025
35.908
35.789
35.669
35.548
35.425
35.299
35.172
35.043
34.912
34.779
34.645
34.512
34.379
34.247
34.118
33.993
33.873
33.757
33.648
33.545
33.449
33.36
33.279
33.205
33.138
33.077
33.023
32.973
32.929
32.889
32.853
32.819
32.786
32.753
32.72
32.686
32.651
32.615
32.579
32.544
32.509
32.475
32.443
32.415
32.392
32.373
32.358
32.347
32.34
32.336
32.335
32.336
32.337
32.339
32.34
32.34
32.339
32.336
32.333
32.329
32.323
32.317
32.309
32.298
32.285
32.268
32.248
32.226
32.203
32.178
32.153
32.127
32.101
32.075
32.05
32.026
32.001
31.976
31.95
31.923
31.895
31.866
31.836
31.807
31.779
31.751
31.724
31.698
31.673
31.649
31.624
31.598
31.57
31.541
31.509
31.474
31.438
31.399
31.358
31.317
31.276
31.235
31.195
31.157
31.121
31.086
31.053
31.02
30.989
30.96
30.934
30.908
30.883
30.859
30.835
30.811
30.788
30.766
30.744
30.724
30.706
30.688
30.672
30.656
30.641
30.628
30.616
30.606
30.597
30.59
30.582
30.573
30.563
30.552
30.539
30.524
30.507
30.488
30.467
30.445
30.423
30.401
30.381
30.363
30.347
30.334
30.325
30.319
30.317
30.317
30.319
30.325
30.333
30.344
30.358
30.377
30.403
30.437
30.483
30.547
30.632
30.749
30.905
31.112
31.38
31.719
32.135
32.633
33.213
33.872
34.602
35.39
36.222
37.08
37.948
38.806
39.637
40.424
41.154
41.815
42.399
42.9
43.316
43.648
43.896
44.068
44.169
44.206
44.188
44.123
44.019
43.884
43.727
43.554
43.371
43.182
42.993
42.806
42.621
42.44
42.262
42.088
41.917
41.748
41.58
41.414
41.248
41.083
40.918
40.753
40.589
40.427
40.266
40.106
39.949
39.795
39.645
39.5
39.361
39.228
39.099
38.973
38.851
38.73
38.612
38.495
38.378
38.262
38.144
38.027
37.908
37.791
37.673
37.557
37.442
37.333
37.23
37.137
37.055
36.984
36.924
36.876
36.839
36.812
36.797
36.792
36.796
36.812
36.838
36.875
36.92
36.974
37.034
37.096
37.161
37.225
37.288
37.348
37.404
37.456
37.501
37.541
37.574
37.602
37.623
37.638
37.646
37.646
37.639
37.624
37.602
37.571
37.532
37.485
37.428
37.362
37.29
37.21
37.125
37.034
36.94
36.841
36.738
36.632
36.523
36.41
36.296
36.18
36.064
35.947
35.829
35.71
35.592
35.472
35.353
35.233
35.114
34.998
34.884
34.773
34.666
34.562
34.464
34.371
34.284
34.203
34.129
34.06
33.995
33.935
33.878
33.825
33.774
33.725
33.678
33.632
33.586
33.541
33.497
33.455
33.416
33.379
33.347
33.318
33.293
33.273
33.256
33.241
33.227
33.215
33.204
33.193
33.183
33.174
33.165
33.156
33.147
33.139
33.129
33.119
33.108
33.093
33.076
33.057
33.034
33.009
32.982
32.955
32.928
32.904
32.882
32.863
32.849
32.838
32.831
32.828
32.827
32.828
32.829
32.829
32.826
32.821
32.812
32.799
32.783
32.764
32.742
32.716
32.688
32.658
32.626
32.594
32.56
32.526
32.492
32.46
32.428
32.396
32.366
32.337
32.311
32.287
32.266
32.248
32.231
32.216
32.201
32.187
32.172
32.156
32.138
32.118
32.096
32.07
32.041
32.009
31.974
31.936
31.897
31.856
31.813
31.768
31.723
31.677
31.63
31.584
31.539
31.496
31.455
31.419
31.388
31.363
31.343
31.33
31.323
31.321
31.325
31.336
31.356
31.387
31.434
31.503
31.6
31.733
31.912
32.145
32.442
32.808
33.248
33.763
34.351
35.006
35.717
36.474
37.258
38.054
38.845
39.614
40.347
41.032
41.658
42.218
42.706
43.119
43.457
43.723
43.92
44.052
44.127
44.151
44.13
44.071
43.98
43.866
43.734
43.59
43.438
43.282
43.124
42.964
42.803
42.643
42.482
42.32
42.157
41.992
41.826
41.657
41.486
41.312
41.137
40.962
40.787
40.612
40.437
40.262
40.089
39.917
39.747
39.58
39.416
39.257
39.102
38.952
38.805
38.661
38.518
38.377
38.236
38.096
37.955
37.814
37.672
37.53
37.391
