Trial 1:0back
32.942
33.195
33.503
33.868
34.291
34.77
35.3
35.874
36.483
37.118
37.766
38.415
39.052
39.665
40.243
40.774
41.251
41.669
42.023
42.312
42.535
42.695
42.795
42.838
42.831
42.779
42.687
42.561
42.408
42.231
42.037
41.829
41.61
41.383
41.15
40.915
40.679
40.444
40.211
39.98
39.753
39.528
39.306
39.086
38.869
38.654
38.442
38.232
38.023
37.816
37.61
37.405
37.202
37.0
36.8
36.603
36.41
36.221
36.038
35.861
35.69
35.527
35.373
35.229
35.096
34.976
34.87
34.779
34.703
34.643
34.597
34.566
34.549
34.547
34.558
34.582
34.619
34.667
34.727
34.798
34.877
34.966
35.061
35.162
35.266
35.373
35.479
35.584
35.686
35.784
35.875
35.959
36.034
36.099
36.153
36.194
36.221
36.235
36.235
36.222
36.196
36.158
36.109
36.051
35.985
35.912
35.835
35.754
35.671
35.587
35.501
35.414
35.326
35.236
35.145
35.05
34.954
34.855
34.755
34.653
34.548
34.442
34.335
34.226
34.117
34.007
33.896
33.785
33.674
33.562
33.45
33.34
33.231
33.125
33.021
32.92
32.822
32.728
32.637
32.552
32.472
32.398
32.332
32.271
32.216
32.166
32.12
32.079
32.041
32.005
31.973
31.945
31.921
31.902
31.887
31.876
31.868
31.862
31.859
31.856
31.854
31.853
31.851
31.849
31.848
31.848
31.851
31.856
31.864
31.875
31.889
31.908
31.93
31.957
31.986
32.019
32.054
32.089
32.125
32.159
32.191
32.22
32.246
32.268
32.288
32.307
32.325
32.341
32.357
32.369
32.378
32.384
32.385
32.382
32.375
32.365
32.351
32.334
32.315
32.296
32.278
32.263
32.253
32.251
32.263
32.291
32.343
32.422
32.537
32.694
32.898
33.157
33.473
33.849
34.282
34.77
35.307
35.885
36.496
37.128
37.771
38.412
39.042
39.647
40.216
40.74
41.21
41.62
41.966
42.247
42.462
42.613
42.703
42.736
42.718
42.654
42.55
42.411
42.243
42.051
41.84
41.615
41.38
41.14
40.896
40.65
40.406
40.163
39.924
39.689
39.457
39.228
39.002
38.778
38.556
38.334
38.112
37.89
37.668
37.446
37.225
37.004
36.784
36.567
36.354
36.145
35.941
35.745
35.556
35.376
35.205
35.044
34.897
34.773
34.678
34.612
34.572
34.553
34.549
34.556
34.57
34.587
34.606
34.626
34.648
34.672
34.699
34.731
34.769
34.814
34.868
34.931
35.004
35.088
35.18
35.28
35.386
35.496
35.609
35.721
35.83
35.934
36.03
36.115
36.188
36.249
36.295
36.327
36.345
36.348
36.336
36.31
36.269
36.215
36.149
36.071
35.983
35.887
35.784
35.678
35.568
35.456
35.344
35.233
35.123
35.013
34.902
34.791
34.679
34.566
34.452
34.337
34.221
34.105
33.988
33.87
33.752
33.634
33.515
33.396
33.279
33.167
33.059
32.958
32.864
32.776
32.695
32.619
32.549
32.484
32.423
32.365
32.31
32.257
32.208
32.16
32.115
32.074
32.037
32.006
31.98
31.961
31.948
31.942
31.942
31.949
31.962
31.979
32.0
32.024
32.05
32.076
32.102
32.127
32.151
32.173
32.195
32.219
32.246
32.276
32.309
32.343
32.376
32.407
32.436
32.46
32.479
32.493
32.502
32.508
32.511
32.513
32.516
32.523
32.535
32.554
32.583
32.625
32.683
32.762
32.867
33.004
33.178
33.397
33.664
33.982
34.353
34.774
35.242
35.751
36.292
36.856
37.432
38.011
38.581
39.133
39.655
40.14
40.58
40.968
41.302
41.577
41.794
41.953
42.057
42.11
42.115
42.078
42.002
41.893
41.755
41.591
41.406
41.202
40.984
40.755
40.518
40.274
40.027
39.778
39.529
39.279
39.031
38.783
38.536
38.292
38.051
37.813
37.579
37.35
37.124
36.903
36.685
36.472
36.264
36.059
35.859
35.663
35.469
35.278
35.091
34.908
34.729
34.556
34.39
34.234
34.089
33.958
33.844
33.749
33.673
33.618
33.585
33.571
33.577
33.602
33.643
33.702
33.775
33.861
33.962
34.075
34.2
34.337
34.482
34.633
34.789
34.949
35.109
35.269
35.424
35.573
35.712
35.84
35.954
36.054
36.138
36.205
36.255
36.288
36.303
36.301
36.283
36.248
36.2
36.14
36.07
35.991
35.904
35.81
35.712
35.61
35.505
35.397
35.288
35.177
35.064
34.949
34.832
34.713
34.591
34.467
34.34
34.211
34.08
33.947
33.814
33.682
33.552
33.424
33.301
33.184
33.074
32.971
32.876
32.79
32.711
32.638
32.57
32.504
32.439
32.373
32.308
32.243
32.181
32.123
32.071
32.027
31.991
31.963
31.945
31.934
31.93
31.932
31.938
31.948
31.958
31.969
31.979
31.988
31.994
31.998
31.999
31.998
31.995
31.991
31.987
31.983
31.979
31.978
31.979
31.982
31.988
31.997
32.012
32.032
32.062
32.105
32.166
32.251
32.367
32.521
32.72
32.97
33.276
33.641
34.065
34.545
35.077
35.653
36.264
36.899
37.547
38.193
38.827
39.437
40.011
40.542
41.021
41.442
41.801
42.095
42.324
42.489
42.593
42.638
42.632
42.577
42.483
42.354
42.196
42.014
41.813
41.597
41.371
41.137
40.897
40.652
40.404
40.154
39.903
39.651
39.4
39.152
38.905
38.66
38.417
38.176
37.938
37.702
37.47
37.241
37.016
36.796
36.581
36.372
36.169
35.972
35.781
35.596
35.416
35.24
35.067
34.897
34.729
34.566
34.407
34.256
34.116
33.989
33.879
33.786
33.715
33.665
33.638
33.635
33.656
33.699
33.764
33.849
33.951
34.068
34.198
34.337
34.483
34.633
34.784
34.934
35.08
35.221
35.353
35.476
35.588
35.69
35.782
35.865
35.937
36.0
36.053
36.096
36.129
36.152
36.164
36.165
36.155
36.134
36.1
36.055
35.998
35.929
35.848
35.754
35.648
35.532
35.405
35.268
35.124
34.975
34.824
34.674
34.526
34.383
34.244
34.112
33.986
33.866
33.749
33.637
33.527
33.419
33.312
33.207
33.103
33.001
32.902
32.804
32.709
32.616
32.525
32.437
32.353
32.271
32.193
32.118
32.046
31.978
31.914
31.855
31.8
31.751
31.706
31.667
31.635
31.607
31.585
31.568
31.555
31.548
31.544
31.542
31.543
31.545
31.549
31.557
31.568
31.584
31.604
31.628
31.653
31.68
31.706
31.731
31.756
31.779
31.801
31.821
31.841
31.859
31.877
31.894
31.91
31.926
31.941
31.956
31.971
31.989
32.012
32.042
32.081
32.133
32.204
32.3
32.429
32.599
32.817
33.091
33.428
33.83
34.298
34.83
35.42
36.06
36.74
37.446
38.164
38.88
39.578
40.242
40.861
41.423
41.919
42.343
42.692
42.965
43.162
43.286
43.342
43.336
43.274
43.163
43.01
42.821
42.605
42.368
42.116
41.857
41.594
41.331
41.071
40.814
40.561
40.312
40.066
39.822
39.579
39.338
39.098
38.86
38.623
38.388
38.156
37.928
37.706
37.488
37.276
37.07
36.868
36.67
36.476
36.282
36.09
35.898
35.707
35.518
35.333
35.153
34.982
34.821
34.674
34.54
34.422
34.322
34.24
34.177
34.134
34.109
34.102
34.111
34.135
34.171
34.219
34.277
34.344
34.42
34.503
34.592
34.688
34.79
34.895
35.005
35.116
35.229
35.34
35.449
35.553
35.652
35.744
35.827
35.901
35.963
36.013
36.049
36.07
36.076
36.068
36.048
36.015
35.971
35.916
35.852
35.778
35.696
35.608
35.513
35.413
35.308
35.2
35.089
34.976
34.862
34.747
34.632
34.517
34.401
34.284
34.166
34.047
33.928
33.808
33.687
33.567
33.448
33.329
33.212
33.097
32.984
32.875
32.771
32.675
32.585
32.501
32.421
32.346
32.274
32.206
32.141
32.077
32.017
31.959
31.902
31.848
31.795
31.745
31.698
31.653
31.611
31.573
31.539
31.51
31.486
31.466
31.452
31.442
31.436
31.434
31.436
31.441
31.449
31.461
31.474
31.491
31.51
31.532
31.557
31.585
31.615
31.646
31.68
31.714
31.749
31.784
31.819
31.854
31.888
31.921
31.955
31.987
32.018
32.046
32.07
32.09
32.107
32.12
32.129
32.135
32.139
32.14
32.138
32.135
32.129
32.122
32.112
32.1
32.086
32.072
32.059
32.048
32.039
32.032
32.031
32.038
32.057
32.093
32.155
32.248
32.383
32.569
32.814
33.124
33.505
33.958
34.483
35.074
35.723
36.42
37.151
37.9
38.651
39.388
40.096
40.761
41.371
41.917
42.391
42.79
43.109
43.349
43.513
43.604
43.629
43.597
43.517
43.396
43.242
43.059
42.854
42.63
42.392
42.144
41.891
41.634
41.374
41.113
40.853
40.593
40.335
40.078
39.822
39.568
39.315
39.061
38.808
38.554
38.3
38.048
37.797
37.549
37.305
37.067
36.836
36.612
36.394
36.183
35.979
35.782
35.592
35.41
35.234
35.068
34.91
34.763
34.627
34.505
34.398
34.307
34.232
34.175
34.135
34.113
34.108
34.122
34.152
34.2
34.265
34.345
34.436
34.534
34.639
34.75
34.866
34.988
35.115
35.246
35.38
35.515
35.65
35.785
35.918
36.045
36.165
36.272
36.365
36.44
36.496
36.529
36.541
36.53
36.498
36.447
36.379
36.296
36.201
36.096
35.983
35.865
35.744
35.62
35.494
35.369
35.244
35.119
34.995
34.871
34.747
34.624
34.5
34.375
34.248
34.118
33.985
33.849
33.71
33.569
33.426
33.284
33.143
33.005
32.872
32.744
32.623
32.511
32.407
32.312
32.224
32.144
32.069
31.999
31.932
31.868
31.806
31.746
31.689
31.633
31.58
31.53
31.482
31.438
31.398
31.363
31.334
31.309
31.29
31.274
31.263
31.254
31.249
31.245
31.245
31.247
31.254
31.264
31.277
31.295
31.316
31.339
31.364
31.391
31.419
31.448
31.478
31.507
31.537
31.566
31.596
31.626
31.657
31.689
31.721
31.753
31.784
31.813
31.84
31.867
31.892
31.916
31.937
31.956
31.972
31.984
31.993
31.997
31.998
31.996
31.991
31.984
31.975
31.965
31.954
31.941
31.926
31.911
31.897
31.888
31.888
31.904
31.942
32.01
32.12
32.279
32.497
32.781
33.137
33.567
34.072
34.648
35.287
35.979
36.71
37.467
38.234
38.993
39.73
40.43
41.08
41.669
42.189
42.634
43.0
43.288
43.499
43.635
43.702
43.706
43.658
43.565
43.435
43.274
43.086
42.874
42.64
42.389
42.123
41.844
41.555
41.258
40.956
40.648
40.339
40.029
39.719
39.413
39.11
38.811
38.518
38.23
37.947
37.67
37.4
37.136
36.879
36.628
36.385
36.149
35.92
35.698
35.484
35.278
35.078
34.886
34.702
34.526
34.36
34.205
34.062
33.931
33.815
33.715
33.631
33.565
33.519
33.492
33.484
33.496
33.528
33.579
33.649
33.738
33.846
33.972
34.116
34.275
34.449
34.635
34.832
35.037
35.246
35.456
35.662
35.861
36.05
36.226
36.385
36.525
36.643
36.739
36.81
36.858
36.881
36.879
36.854
36.806
36.738
36.651
36.547
36.431
36.304
36.169
36.029
35.888
35.747
35.609
35.475
35.344
35.216
35.09
34.965
34.84
34.713
34.583
34.45
34.313
34.17
34.024
33.876
33.725
33.574
33.424
33.279
33.139
33.006
32.88
32.762
32.652
32.549
32.453
32.365
32.282
32.204
32.131
32.062
31.995
31.932
31.872
31.816
31.764
31.716
31.672
31.633
31.598
31.568
31.543
31.522
31.505
31.493
31.487
31.486
31.489
31.497
31.508
31.523
31.541
31.56
31.581
31.603
31.625
31.647
31.668
31.688
31.707
31.725
31.742
31.758
31.773
31.787
31.8
31.814
31.827
31.841
31.856
31.871
31.887
31.901
31.916
31.933
31.955
31.989
32.04
32.117
32.228
32.38
32.581
32.839
33.161
33.55
34.009
34.535
35.123
35.765
36.448
37.162
37.892
38.624
39.345
40.039
40.693
41.296
41.838
42.312
42.712
43.034
43.281
43.451
43.55
43.582
43.552
43.468
43.336
43.164
42.959
42.728
42.475
42.207
41.926
41.638
41.345
41.049
40.751
40.454
40.158
39.864
39.575
39.291
39.012
38.738
38.47
38.208
37.952
37.703
37.459
37.218
36.98
36.742
36.503
36.262
36.02
35.775
35.529
35.283
35.039
34.798
34.564
34.339
34.125
33.924
33.737
33.566
33.412
33.276
33.16
33.064
32.988
32.933
32.901
32.891
32.902
32.936
32.992
33.071
33.173
33.298
33.444
33.609
33.792
33.989
34.198
34.416
34.639
34.864
35.086
35.301
35.507
35.699
35.875
36.032
36.168
36.282
36.373
36.441
36.488
36.515
36.522
36.51
36.48
36.432
36.369
36.291
36.202
36.101
35.992
35.874
35.749
35.617
35.481
35.339
35.194
35.045
34.892
34.734
34.573
34.409
34.245
34.081
33.917
33.756
33.597
33.443
33.294
33.152
33.016
32.888
32.766
32.651
32.542
32.437
32.337
32.24
32.146
32.055
31.967
31.882
31.801
31.725
31.653
31.586
31.524
31.469
31.419
31.376
31.338
31.306
31.277
31.251
31.226
31.203
31.182
31.164
31.149
31.137
31.13
31.126
31.127
31.131
31.139
31.15
31.163
31.18
31.2
31.221
31.242
31.262
31.28
31.296
31.31
31.325
31.34
31.359
31.385
31.423
31.479
31.56
31.676
31.834
32.045
32.318
32.658
33.073
33.564
34.131
34.769
35.47
36.222
37.011
37.819
38.631
39.429
40.197
40.919
41.584
42.181
42.702
43.142
43.498
43.77
43.959
44.068
44.102
44.069
43.975
43.83
43.641
43.416
43.165
42.894
42.608
42.313
42.012
41.709
41.404
41.1
40.796
40.492
40.19
39.89
39.593
39.299
39.008
38.721
38.436
38.155
37.877
37.605
37.337
37.074
36.816
36.563
36.317
36.076
35.841
35.612
35.39
35.172
34.959
34.751
34.547
34.348
34.154
33.967
33.789
33.622
33.467
33.328
33.207
33.106
33.028
32.974
32.945
32.942
32.964
33.012
33.085
33.182
33.301
33.441
33.6
33.774
33.961
34.157
34.361
34.567
34.774
34.977
35.174
35.361
35.538
35.702
35.85
35.982
36.095
36.189
36.263
36.318
36.353
36.37
36.371
36.355
36.324
36.278
36.219
36.148
36.066
35.975
35.876
35.77
35.657
35.539
35.417
35.291
35.161
35.029
34.893
34.755
34.614
34.47
34.324
34.177
34.029
33.882
33.735
33.59
33.446
33.304
33.164
33.026
32.891
32.76
32.634
32.512
32.394
32.281
32.173
32.068
31.967
31.87
31.777
31.689
31.607
31.529
31.457
31.39
31.329
31.272
31.22
31.172
31.129
31.091
31.057
31.027
31.002
30.981
30.966
30.957
30.953
30.954
30.961
30.97
30.983
30.999
31.015
31.034
31.053
31.073
31.092
31.112
31.131
31.148
31.164
31.18
31.195
31.21
31.226
31.241
31.255
31.268
31.28
31.293
31.309
31.33
31.363
31.411
31.484
31.59
31.738
31.937
32.197
32.527
32.935
33.423
33.995
34.646
35.369
36.152
36.981
37.837
38.704
39.561
40.392
41.181
41.912
42.574
43.159
43.659
44.071
44.394
44.629
44.778
44.848
44.846
44.778
44.654
44.482
44.272
44.031
43.767
43.487
43.195
42.896
42.595
42.292
41.991
41.691
41.393
41.096
40.8
40.503
40.205
39.905
39.604
39.301
38.999
38.7
38.405
38.118
37.839
37.569
37.311
37.063
36.827
36.6
36.382
36.171
35.966
35.767
35.571
35.38
35.191
35.005
34.822
34.645
34.474
34.311
34.159
34.02
33.895
33.788
33.701
33.636
33.595
33.58
33.59
33.624
33.683
33.765
33.868
33.991
34.131
34.286
34.452
34.628
34.811
34.997
35.185
35.373
35.556
35.734
35.901
36.057
36.198
36.323
36.429
36.52
36.593
36.649
36.686
36.703
36.699
36.675
36.632
36.571
36.495
36.406
36.306
36.195
36.076
35.95
35.819
35.683
35.543
35.4
35.256
35.111
34.966
34.82
34.675
34.528
34.381
34.231
34.08
33.928
33.778
33.629
33.484
33.342
33.206
33.075
32.951
32.832
32.719
32.61
32.506
32.405
32.307
32.212
32.119
32.027
31.936
31.847
31.759
31.673
31.591
31.512
31.437
31.365
31.297
31.235
31.179
31.128
31.083
31.042
31.008
30.981
30.962
30.95
30.945
30.948
30.956
30.97
30.989
31.011
31.035
31.06
31.085
31.108
31.129
31.147
31.161
31.173
31.182
31.19
31.197
31.204
31.211
31.22
31.23
31.242
31.257
31.274
31.294
31.319
31.35
31.39
31.444
31.515
31.611
31.74
31.912
32.136
32.422
32.78
33.218
33.737
34.338
35.017
35.763
36.563
37.401
38.26
39.122
39.968
40.783
41.548
42.251
42.88
43.426
43.884
44.25
44.524
44.708
44.808
44.83
44.783
44.675
44.516
44.315
44.082
43.824
43.548
43.26
42.966
42.667
42.368
42.071
41.775
41.482
41.192
40.902
40.614
40.325
40.035
39.746
39.455
39.164
38.872
38.579
38.287
37.996
37.708
37.423
37.144
36.872
36.607
36.349
36.099
35.857
35.624
35.4
35.187
34.983
34.792
34.613
34.445
34.289
34.146
34.017
33.903
33.807
33.729
33.672
33.634
33.617
33.621
33.644
33.688
33.751
33.834
33.933
34.048
34.177
34.318
34.469
34.629
34.794
34.963
35.134
35.303
35.468
35.628
35.779
35.921
36.051
36.168
36.271
36.358
36.429
36.485
36.523
36.544
36.547
36.533
36.501
36.453
36.388
36.307
36.212
36.105
35.987
35.86
35.726
35.586
35.443
35.298
35.15
34.999
34.848
34.698
34.55
34.406
34.265
34.129
33.997
33.867
33.74
33.612
33.484
33.353
33.222
33.089
32.955
32.821
32.688
32.557
32.429
32.307
32.191
32.082
31.98
31.884
31.795
31.712
31.633
31.557
31.484
31.416
31.352
31.292
31.237
31.188
31.143
31.103
31.069
31.04
31.016
30.996
30.98
30.967
30.957
30.95
30.946
30.945
30.948
30.956
30.968
30.985
31.004
31.022
31.038
31.053
31.066
31.079
31.093
31.108
31.126
31.147
31.172
31.201
31.232
31.267
31.304
31.342
31.38
31.416
31.449
31.478
31.504
31.525
31.542
31.556
31.57
31.587
31.608
31.638
31.682
31.745
31.836
31.961
32.132
32.358
32.648
33.009
33.448
33.966
34.563
35.236
35.974
36.765
37.595
38.445
39.298
40.135
40.938
41.693
42.384
43.001
43.536
43.983
44.34
44.608
44.789
44.89
44.914
44.869
44.765
44.61
44.414
44.186
43.934
43.664
43.381
43.09
42.792
42.491
42.187
41.881
41.575
41.268
40.96
40.652
40.344
40.037
39.729
39.424
39.121
38.821
38.524
38.23
37.94
37.655
37.376
37.104
36.839
36.582
36.332
36.089
35.852
35.622
35.399
35.183
34.976
34.778
34.59
34.414
34.251
34.104
33.975
33.865
33.776
33.707
33.66
33.634
33.629
33.647
33.693
33.767
33.867
33.991
34.134
34.292
34.461
34.637
34.817
34.998
35.178
35.355
35.529
35.697
35.859
36.014
36.16
36.297
36.421
36.531
36.628
36.708
36.771
36.815
36.839
36.843
36.825
36.787
36.729
36.651
36.556
36.444
36.32
36.184
36.04
35.892
35.741
35.589
35.44
35.294
35.153
35.016
34.883
34.753
34.626
34.501
34.375
34.248
34.117
33.983
33.845
33.704
33.56
33.416
33.273
33.134
33.002
32.88
32.767
32.665
32.571
32.485
32.405
32.328
32.253
32.178
32.1
32.02
31.937
31.852
31.766
31.68
31.594
31.51
31.431
31.358
31.292
31.236
31.188
31.15
31.121
31.1
31.086
31.079
31.076
31.077
31.08
31.086
31.095
31.106
31.119
31.135
31.153
31.172
31.193
31.217
31.242
31.27
31.299
31.331
31.364
31.397
31.43
31.462
31.494
31.524
31.553
31.581
31.606
31.628
31.647
31.662
31.674
31.682
31.688
31.692
31.694
31.695
31.697
31.699
31.705
31.716
31.738
31.773
31.828
31.909
32.023
32.179
32.386
32.654
32.992
33.408
33.905
34.484
35.142
35.871
36.66
37.493
38.353
39.218
40.07
40.89
41.66
42.364
42.992
43.534
43.985
44.342
44.607
44.783
44.876
44.892
44.84
44.73
44.571
44.37
44.137
43.879
43.602
43.313
43.016
42.715
42.413
42.111
41.81
41.511
41.213
40.916
40.62
40.324
40.029
39.733
39.438
39.144
38.849
38.556
38.263
37.973
37.684
37.398
37.115
36.837
36.565
36.3
36.043
35.795
35.557
35.33
35.114
34.91
34.72
34.544
34.383
34.239
34.112
34.003
33.913
33.841
33.79
33.757
33.743
33.747
33.77
33.812
33.873
33.953
34.053
34.172
34.31
34.464
34.634
34.816
35.007
35.205
35.408
35.614
35.821
36.024
36.219
36.399
36.562
36.703
36.821
36.913
36.979
37.018
37.03
37.018
36.982
36.924
36.847
36.753
36.646
36.528
36.402
36.269
36.131
35.99
35.847
35.702
35.558
35.413
35.268
35.123
34.977
34.831
34.683
34.535
34.386
34.237
34.088
33.94
33.792
33.646
33.5
33.356
33.214
33.076
32.942
32.814
32.691
32.575
32.465
32.362
32.265
32.174
32.087
32.003
31.923
31.844
31.768
31.693
31.621
31.55
31.483
31.42
31.361
31.306
31.255
31.209
31.167
31.132
31.102
31.08
31.064
31.056
31.053
31.056
31.062
31.073
31.087
31.106
31.127
31.149
31.173
31.197
31.222
31.247
31.271
31.296
31.321
31.344
31.367
31.388
31.408
31.425
31.44
31.453
31.464
31.474
31.482
31.489
31.494
31.498
31.502
31.506
31.511
31.52
31.534
31.555
31.587
31.631
31.694
31.78
31.895
32.048
32.246
32.497
32.807
33.183
