Trial 1:0back
33.987
34.073
34.18
34.307
34.452
34.614
34.791
34.981
35.183
35.396
35.618
35.847
36.078
36.308
36.535
36.754
36.962
37.156
37.334
37.496
37.638
37.761
37.865
37.95
38.017
38.067
38.103
38.125
38.136
38.137
38.13
38.116
38.096
38.07
38.041
38.011
37.981
37.952
37.924
37.898
37.875
37.853
37.833
37.814
37.795
37.776
37.757
37.738
37.718
37.697
37.676
37.655
37.632
37.609
37.585
37.56
37.535
37.51
37.483
37.455
37.423
37.387
37.347
37.302
37.254
37.203
37.148
37.092
37.035
36.976
36.918
36.861
36.806
36.752
36.702
36.656
36.614
36.577
36.545
36.517
36.495
36.478
36.466
36.459
36.458
36.462
36.47
36.48
36.489
36.497
36.502
36.504
36.505
36.503
36.5
36.496
36.491
36.484
36.475
36.465
36.452
36.436
36.418
36.397
36.374
36.348
36.32
36.29
36.258
36.224
36.189
36.153
36.116
36.079
36.041
36.002
35.962
35.921
35.881
35.841
35.802
35.765
35.728
35.691
35.655
35.617
35.577
35.537
35.496
35.455
35.414
35.372
35.33
35.286
35.241
35.195
35.147
35.099
35.049
34.999
34.949
34.9
34.852
34.804
34.758
34.714
34.671
34.63
34.591
34.556
34.523
34.493
34.465
34.439
34.416
34.395
34.376
34.36
34.345
34.331
34.316
34.299
34.282
34.264
34.244
34.222
34.201
34.178
34.155
34.132
34.108
34.084
34.06
34.038
34.019
34.001
33.983
33.965
33.945
33.924
33.902
33.878
33.855
33.833
33.813
33.794
33.777
33.762
33.748
33.735
33.723
33.711
33.699
33.688
33.677
33.666
33.652
33.636
33.618
33.596
33.573
33.549
33.525
33.502
33.48
33.46
33.442
33.427
33.416
33.412
33.416
33.431
33.462
33.509
33.576
33.664
33.773
33.904
34.057
34.231
34.425
34.636
34.861
35.097
35.339
35.585
35.83
36.071
36.307
36.532
36.745
36.941
37.118
37.273
37.406
37.518
37.608
37.678
37.729
37.764
37.783
37.79
37.786
37.772
37.752
37.725
37.696
37.664
37.633
37.602
37.572
37.544
37.517
37.491
37.468
37.446
37.428
37.411
37.395
37.38
37.364
37.346
37.326
37.304
37.28
37.253
37.225
37.194
37.16
37.123
37.081
37.036
36.987
36.935
36.879
36.821
36.761
36.701
36.641
36.581
36.522
36.465
36.411
36.362
36.318
36.279
36.244
36.214
36.186
36.161
36.137
36.116
36.097
36.081
36.068
36.058
36.05
36.046
36.045
36.048
36.053
36.06
36.069
36.078
36.087
36.094
36.1
36.104
36.104
36.102
36.096
36.086
36.073
36.056
36.035
36.01
35.981
35.949
35.914
35.878
35.844
35.812
35.782
35.755
35.729
35.703
35.677
35.65
35.622
35.592
35.56
35.528
35.495
35.461
35.428
35.396
35.364
35.333
35.301
35.269
35.236
35.202
35.166
35.128
35.09
35.051
35.014
34.977
34.941
34.907
34.874
34.841
34.808
34.775
34.744
34.713
34.685
34.659
34.635
34.614
34.593
34.573
34.552
34.53
34.508
34.487
34.466
34.446
34.426
34.407
34.386
34.365
34.343
34.321
34.299
34.277
34.256
34.236
34.218
34.202
34.188
34.175
34.164
34.154
34.145
34.138
34.132
34.126
34.118
34.11
34.1
34.088
34.075
34.061
34.047
34.031
34.016
34.001
33.988
33.977
33.969
33.967
33.972
33.986
34.011
34.048
34.101
34.169
34.255
34.359
34.482
34.625
34.785
34.962
35.153
35.355
35.565
35.779
35.995
36.21
36.42
36.622
36.814
36.993
37.157
37.303
37.432
37.541
37.631
37.702
37.754
37.789
37.808
37.813
37.805
37.788
37.763
37.734
37.703
37.669
37.635
37.6
37.564
37.528
37.491
37.453
37.415
37.377
37.34
37.304
37.27
37.236
37.203
37.171
37.14
37.11
37.08
37.051
37.024
36.997
36.972
36.945
36.918
36.888
36.856
36.82
36.782
36.741
36.698
36.653
36.607
36.561
36.515
36.47
36.428
36.389
36.355
36.325
36.3
36.279
36.263
36.251
36.241
36.233
36.226
36.22
36.216
36.212
36.208
36.203
36.198
36.192
36.186
36.18
36.173
36.166
36.16
36.152
36.143
36.133
36.12
36.106
36.09
36.074
36.058
36.041
36.025
36.008
35.991
35.972
35.951
35.928
35.902
35.872
35.84
35.804
35.765
35.725
35.684
35.642
35.599
35.555
35.511
35.465
35.418
35.37
35.32
35.271
35.222
35.176
35.133
35.095
35.062
35.033
35.008
34.984
34.961
34.937
34.912
34.886
34.859
34.831
34.801
34.77
34.737
34.703
34.667
34.63
34.593
34.556
34.521
34.488
34.457
34.43
34.405
34.384
34.366
34.349
34.335
34.322
34.31
34.301
34.292
34.285
34.279
34.273
34.266
34.258
34.249
34.238
34.225
34.211
34.195
34.176
34.157
34.138
34.119
34.101
34.084
34.067
34.05
34.03
34.008
33.984
33.958
33.932
33.905
33.879
33.853
33.828
33.803
33.779
33.755
33.73
33.707
33.684
33.663
33.645
33.634
33.631
33.639
33.659
33.693
33.744
33.814
33.905
34.02
34.158
34.319
34.503
34.707
34.929
35.166
35.414
35.667
35.92
36.168
36.404
36.626
36.83
37.014
37.177
37.32
37.442
37.544
37.626
37.69
37.738
37.771
37.79
37.799
37.799
37.791
37.779
37.763
37.744
37.723
37.703
37.686
37.672
37.663
37.66
37.662
37.668
37.677
37.689
37.703
37.716
37.729
37.742
37.754
37.765
37.773
37.779
37.781
37.78
37.776
37.767
37.754
37.736
37.713
37.686
37.653
37.614
37.57
37.521
37.468
37.413
37.355
37.297
37.238
37.179
37.121
37.064
37.009
36.956
36.907
36.863
36.824
36.791
36.763
36.739
36.719
36.703
36.69
36.679
36.671
36.664
36.659
36.654
36.651
36.647
36.642
36.636
36.629
36.619
36.607
36.591
36.571
36.547
36.52
36.492
36.462
36.433
36.404
36.375
36.347
36.32
36.294
36.268
36.243
36.218
36.192
36.166
36.14
36.112
36.082
36.051
36.017
35.981
35.943
35.904
35.864
35.826
35.79
35.756
35.724
35.693
35.663
35.633
35.602
35.57
35.538
35.503
35.467
35.429
35.388
35.346
35.301
35.255
35.207
35.158
35.109
35.061
35.014
34.968
34.924
34.883
34.846
34.812
34.783
34.758
34.736
34.717
34.7
34.684
34.668
34.654
34.64
34.626
34.612
34.597
34.58
34.561
34.539
34.516
34.491
34.465
34.44
34.415
34.39
34.367
34.345
34.324
34.304
34.285
34.267
34.249
34.232
34.214
34.195
34.176
34.156
34.137
34.117
34.099
34.082
34.067
34.055
34.045
34.038
34.035
34.036
34.042
34.054
34.075
34.105
34.146
34.199
34.264
34.342
34.433
34.539
34.66
34.798
34.952
35.123
35.307
35.502
35.705
35.913
36.121
36.325
36.522
36.707
36.879
37.035
37.173
37.292
37.39
37.468
37.526
37.564
37.585
37.588
37.577
37.552
37.515
37.466
37.41
37.348
37.284
37.221
37.16
37.103
37.049
37.0
36.953
36.907
36.863
36.817
36.769
36.717
36.663
36.604
36.542
36.477
36.41
36.341
36.272
36.204
36.137
36.073
36.014
35.959
35.909
35.863
35.824
35.789
35.76
35.735
35.713
35.691
35.667
35.64
35.609
35.573
35.534
35.492
35.449
35.406
35.365
35.326
35.291
35.259
35.232
35.21
35.192
35.181
35.176
35.178
35.187
35.203
35.225
35.254
35.288
35.325
35.366
35.409
35.453
35.497
35.54
35.58
35.618
35.653
35.684
35.711
35.735
35.754
35.768
35.779
35.785
35.788
35.789
35.788
35.786
35.785
35.784
35.783
35.782
35.783
35.784
35.786
35.789
35.792
35.796
35.8
35.802
35.803
35.8
35.794
35.785
35.772
35.756
35.738
35.717
35.695
35.67
35.644
35.615
35.587
35.558
35.53
35.503
35.478
35.454
35.432
35.41
35.388
35.367
35.347
35.327
35.307
35.288
35.268
35.249
35.229
35.209
35.19
35.172
35.155
35.139
35.125
35.113
35.101
35.089
35.075
35.06
35.043
35.023
35.001
34.976
34.948
34.917
34.883
34.848
34.813
34.779
34.746
34.718
34.693
34.673
34.657
34.644
34.632
34.622
34.611
34.599
34.586
34.571
34.555
34.536
34.514
34.49
34.462
34.432
34.401
34.369
34.338
34.309
34.282
34.259
34.243
34.234
34.236
34.252
34.284
34.334
34.405
34.496
34.61
34.744
34.899
35.072
35.262
35.465
35.679
35.899
36.121
36.342
36.558
36.764
36.959
37.139
37.303
37.449
37.576
37.683
37.771
37.84
37.889
37.921
37.938
37.94
37.932
37.915
37.891
37.862
37.828
37.791
37.752
37.712
37.671
37.631
37.592
37.554
37.518
37.484
37.452
37.42
37.39
37.36
37.33
37.3
37.268
37.235
37.2
37.163
37.125
37.084
37.043
37.001
36.959
36.917
36.872
36.826
36.775
36.721
36.662
36.601
36.537
36.471
36.406
36.342
36.281
36.224
36.173
36.126
36.086
36.052
36.024
36.002
35.986
35.975
35.968
35.966
35.966
35.969
35.973
35.977
35.982
35.987
35.99
35.99
35.987
35.98
35.972
35.962
35.952
35.942
35.932
35.923
35.913
35.902
35.891
35.879
35.865
35.851
35.836
35.82
35.803
35.785
35.765
35.745
35.723
35.701
35.678
35.653
35.628
35.601
35.571
35.539
35.504
35.466
35.427
35.385
35.342
35.298
35.253
35.207
35.16
35.112
35.065
35.018
34.975
34.935
34.899
34.867
34.838
34.814
34.795
34.782
34.773
34.766
34.759
34.75
34.738
34.721
34.698
34.669
34.635
34.596
34.553
34.507
34.46
34.412
34.364
34.318
34.274
34.234
34.199
34.168
34.143
34.122
34.105
34.091
34.078
34.066
34.054
34.043
34.034
34.025
34.017
34.009
34.0
33.99
33.979
33.966
33.953
33.939
33.925
33.912
33.9
33.89
33.883
33.879
33.88
33.889
33.906
33.935
33.977
34.035
34.11
34.202
34.314
34.444
34.593
34.758
34.94
35.134
35.34
35.554
35.772
35.992
36.208
36.417
36.617
36.803
36.974
37.127
37.261
37.374
37.467
37.538
37.591
37.627
37.648
37.657
37.655
37.645
37.627
37.603
37.574
37.542
37.509
37.475
37.442
37.411
37.381
37.354
37.328
37.303
37.279
37.257
37.235
37.215
37.196
37.173
37.146
37.113
37.077
37.039
37.0
36.963
36.929
36.899
36.873
36.848
36.825
36.802
36.779
36.754
36.729
36.703
36.675
36.646
36.614
36.579
36.543
36.504
36.463
36.423
36.384
36.347
36.313
36.282
36.254
36.229
36.206
36.186
36.168
36.151
36.136
36.123
36.111
36.101
36.092
36.083
36.074
36.065
36.055
36.045
36.032
36.018
36.002
35.984
35.964
35.943
35.922
35.901
35.88
35.86
35.841
35.82
35.798
35.775
35.749
35.721
35.69
35.657
35.621
35.582
35.54
35.496
35.449
35.4
35.349
35.296
35.242
35.187
35.132
35.077
35.024
34.972
34.922
34.875
34.831
34.792
34.756
34.724
34.694
34.665
34.635
34.605
34.573
34.54
34.506
34.472
34.438
34.401
34.363
34.323
34.281
34.236
34.191
34.146
34.101
34.059
34.021
33.987
33.958
33.934
33.913
33.896
33.882
33.87
33.861
33.853
33.845
33.838
33.83
33.821
33.81
33.798
33.783
33.766
33.747
33.727
33.707
33.687
33.669
33.651
33.636
33.621
33.608
33.596
33.584
33.573
33.562
33.553
33.545
33.539
33.535
33.533
33.535
33.539
33.55
33.569
33.601
33.649
33.717
33.806
33.919
34.055
34.213
34.392
34.59
34.804
35.032
35.27
35.515
35.761
36.006
36.246
36.475
36.69
36.887
37.065
37.22
37.353
37.462
37.549
37.615
37.66
37.687
37.698
37.697
37.687
37.668
37.642
37.61
37.574
37.534
37.492
37.448
37.405
37.364
37.325
37.289
37.258
37.23
37.208
37.189
37.175
37.164
37.156
37.151
37.147
37.145
37.142
37.137
37.129
37.118
37.103
37.084
37.061
37.034
37.003
36.967
36.927
36.883
36.835
36.782
36.728
36.672
36.616
36.56
36.506
36.453
36.403
36.354
36.307
36.263
36.222
36.184
36.149
36.118
36.09
36.066
36.045
36.027
36.013
36.001
35.994
35.988
35.985
35.982
35.979
35.975
35.971
35.966
35.961
35.955
35.949
35.941
35.932
35.92
35.905
35.887
35.866
35.843
35.819
35.794
35.768
35.742
35.716
35.69
35.663
35.635
35.607
35.577
35.545
35.511
35.475
35.436
35.395
35.352
35.306
35.258
35.21
35.161
35.112
35.064
35.016
34.97
34.927
34.886
34.848
34.81
34.774
34.738
34.701
34.665
34.628
34.591
34.553
34.515
34.477
34.439
34.4
34.361
34.323
34.286
34.25
34.216
34.186
34.158
34.133
34.111
34.092
34.075
34.059
34.043
34.028
34.013
33.996
33.979
33.96
33.94
33.918
33.894
33.869
33.843
33.817
33.793
33.77
33.748
33.727
33.707
33.688
33.67
33.653
33.638
33.624
33.61
33.598
33.585
33.571
33.555
33.537
33.518
33.497
33.476
33.456
33.439
33.426
33.419
33.42
33.431
33.454
33.491
33.546
33.618
33.71
33.823
33.954
34.104
34.272
34.454
34.651
34.859
35.074
35.294
35.513
35.728
35.934
36.13
36.312
36.478
36.629
36.765
36.89
37.005
37.106
37.192
37.261
37.312
37.343
37.356
37.35
37.327
37.29
37.241
37.184
37.122
37.057
36.992
36.928
36.867
36.81
36.756
36.706
36.661
36.62
36.584
36.554
36.531
36.514
36.502
36.493
36.485
36.476
36.464
36.449
36.428
36.404
36.375
36.342
36.306
36.267
36.225
36.181
36.134
36.085
36.033
35.98
35.925
35.869
35.813
35.759
35.705
35.653
35.604
35.558
35.514
35.474
35.436
35.401
35.368
35.339
35.312
35.29
35.272
35.259
35.251
35.245
35.241
35.237
35.233
35.229
35.225
35.221
35.217
35.213
35.21
35.205
35.2
35.194
35.185
35.173
35.158
35.14
35.119
35.095
35.069
35.04
35.01
34.978
34.945
34.911
34.877
34.843
34.81
34.778
34.748
34.719
34.692
34.667
34.644
34.623
34.601
34.58
34.556
34.528
34.497
34.463
34.425
34.384
34.343
34.3
34.258
34.216
34.176
34.138
34.102
34.069
34.04
34.015
33.994
33.976
33.96
33.945
33.931
33.915
33.896
33.876
33.852
33.827
33.8
33.771
33.743
33.714
33.686
33.658
33.632
33.608
33.585
33.565
33.547
33.532
33.519
33.508
33.498
33.49
33.483
33.476
33.469
33.461
33.451
33.44
33.427
33.413
33.398
33.384
33.369
33.353
33.337
33.32
33.302
33.286
33.272
33.261
33.255
33.255
33.262
33.277
33.303
33.341
33.395
33.465
33.554
33.665
33.796
33.947
34.116
34.301
34.5
34.709
34.924
35.142
35.358
35.569
35.771
35.961
36.134
36.289
36.427
36.552
36.664
36.762
36.845
36.911
36.96
36.992
37.005
37.002
36.982
36.949
36.903
36.849
36.787
36.722
36.654
36.585
36.518
36.454
36.394
36.339
36.29
36.247
36.209
36.175
36.146
36.12
36.099
36.081
36.066
36.053
36.041
36.028
36.014
35.995
35.972
35.945
35.912
35.876
35.836
35.791
35.743
35.691
35.636
35.579
35.52
35.46
35.4
35.342
35.286
35.233
35.185
35.141
35.102
35.067
35.036
35.01
34.987
34.969
34.953
34.94
34.93
34.92
34.912
34.906
34.899
34.894
34.887
34.88
34.872
34.864
34.854
34.845
34.837
34.829
34.821
34.812
34.803
34.792
34.779
34.764
34.747
34.727
34.704
34.68
34.653
34.624
34.593
34.559
34.523
34.487
34.45
34.414
34.379
34.345
34.313
34.284
34.256
34.232
34.209
34.189
34.17
34.153
34.136
34.118
34.099
34.078
34.054
34.028
34.001
33.972
33.943
33.912
33.88
33.845
33.808
33.769
33.731
33.696
33.664
33.637
33.614
33.594
33.577
33.561
33.547
33.534
33.523
33.513
33.504
33.496
33.489
33.481
33.471
33.46
33.446
33.43
33.413
33.396
33.378
33.362
33.345
33.33
33.315
33.301
33.288
33.276
33.266
33.259
33.253
33.248
33.245
33.243
33.241
33.239
33.237
33.236
33.234
33.234
33.234
33.236
33.24
33.247
33.258
33.274
33.298
33.329
33.371
33.424
33.49
33.572
33.671
33.787
33.921
34.072
34.236
34.412
34.595
34.782
34.968
35.151
35.327
35.495
35.65
35.792
35.918
36.028
36.12
36.193
36.25
36.291
36.317
36.33
36.332
36.326
36.311
36.291
36.265
36.236
36.205
36.172
36.138
36.102
36.066
36.027
35.987
35.946
35.905
35.865
35.826
35.789
35.755
35.724
35.695
35.669
35.645
35.623
35.603
35.585
35.567
35.549
35.529
35.507
35.482
35.453
35.42
35.384
35.343
35.298
35.25
35.2
35.148
35.096
35.044
34.996
34.952
34.914
34.883
34.86
34.844
34.836
34.834
34.839
34.851
34.869
34.893
34.92
34.95
34.981
35.012
35.04
35.065
35.085
35.1
35.111
35.117
35.12
35.119
35.115
35.108
35.098
35.087
35.075
35.062
35.049
35.036
35.023
35.01
34.997
34.983
34.97
34.955
34.94
34.922
34.903
34.882
34.86
34.836
34.809
34.779
34.747
34.712
34.674
34.633
34.591
34.546
34.501
34.455
34.409
34.364
34.32
34.278
34.237
34.199
34.163
34.13
34.099
34.071
34.045
34.022
34.002
33.983
33.966
33.948
33.929
33.909
33.887
33.864
33.84
33.814
33.787
33.759
33.73
33.699
33.669
33.639
33.61
33.583
33.558
33.536
33.517
33.499
33.482
33.467
33.452
33.439
33.426
33.413
33.401
33.389
33.375
33.36
33.343
33.325
33.304
33.284
33.263
33.244
33.227
33.213
33.202
33.196
33.195
33.199
33.21
33.228
33.255
33.292
33.341
33.403
33.479
33.571
33.679
33.802
33.939
34.089
34.249
34.418
34.591
34.769
34.947
35.124
35.297
35.465
35.624
35.77
35.901
36.014
36.108
36.183
36.24
36.279
36.302
36.311
36.306
36.289
36.261
36.224
36.181
36.132
36.081
36.028
35.976
35.925
35.877
35.832
35.79
35.752
35.716
35.684
35.656
35.631
35.61
35.59
35.572
35.554
35.537
35.521
35.506
35.491
35.475
35.456
35.434
35.408
35.377
35.341
35.3
35.255
35.206
35.156
35.104
35.053
35.003
34.955
34.911
34.87
34.835
34.804
34.777
34.756
34.739
34.726
34.717
34.71
34.706
34.704
34.703
34.703
34.704
34.706
34.708
34.71
34.714
34.717
34.722
34.726
34.729
34.732
34.732
34.731
34.728
34.723
34.718
34.712
34.705
34.697
34.687
34.674
34.657
34.636
34.613
34.588
34.563
34.539
34.517
34.495
34.474
34.454
34.433
34.413
34.392
34.37
34.348
34.326
34.304
34.282
34.26
34.237
34.215
34.191
34.167
34.141
34.114
34.085
34.056
34.025
33.992
33.959
33.925
33.892
33.86
33.83
33.802
33.776
33.753
33.733
33.717
33.704
33.694
33.686
33.679
33.672
33.664
33.655
33.644
33.63
33.614
33.596
33.575
33.553
33.53
33.506
33.482
33.459
33.438
33.42
33.406
33.396
33.39
33.386
33.383
33.383
33.383
33.384
33.386
33.389
33.391
33.393
33.393
33.392
33.387
33.381
33.372
33.362
33.351
33.339
33.327
33.314
33.3
33.286
33.272
33.261
33.253
33.25
33.252
33.262
33.279
33.306
33.345
33.398
33.467
33.554
33.66
33.786
33.93
34.091
34.266
34.452
34.647
34.846
35.045
35.242
35.432
35.613
35.782
35.935
36.072
36.19
36.289
36.368
36.427
36.467
36.489
36.495
36.487
36.466
36.434
36.395
36.349
36.301
36.25
36.199
36.149
36.101
36.056
36.014
35.977
35.945
35.918
35.896
35.878
35.865
35.855
35.848
35.844
35.841
35.839
35.837
35.834
35.828
35.819
35.805
35.785
35.759
35.727
35.691
35.65
35.607
35.562
35.514
35.465
35.415
35.364
35.314
35.266
35.221
35.179
35.141
35.108
35.077
35.05
35.026
35.005
34.986
34.97
34.955
34.941
34.929
34.918
34.907
34.896
34.885
34.875
34.864
34.854
34.844
34.835
34.827
34.82
34.814
34.808
34.803
34.798
34.791
34.783
34.773
34.759
34.743
34.725
34.704
34.682
34.661
34.641
34.62
34.598
34.573
34.545
34.514
34.481
34.448
34.415
34.384
34.355
34.328
34.303
34.279
34.256
34.234
34.212
34.19
34.168
34.145
34.12
34.093
34.064
34.033
34.0
33.966
33.931
33.897
33.865
33.834
33.805
33.779
33.755
33.734
33.714
33.696
33.68
33.665
33.649
33.634
33.617
33.6
33.581
33.561
33.54
33.519
33.496
33.471
33.445
33.419
33.392
33.366
33.342
33.32
33.301
33.283
33.267
33.251
33.235
33.22
33.206
33.193
33.183
33.175
33.169
33.164
33.16
33.156
33.151
33.146
33.141
33.136
33.13
33.125
33.119
33.115
33.11
33.106
33.102
33.097
33.09
33.083
33.073
33.063
33.05
33.037
33.023
33.009
32.998
32.991
32.99
32.998
33.014
33.04
33.078
33.13
33.195
33.276
33.373
33.484
33.61
33.749
33.9
34.06
34.229
34.404
34.582
34.76
34.935
35.103
35.26
35.404
35.533
35.647
35.744
35.827
35.895
35.95
35.992
36.021
36.038
36.045
36.043
36.032
36.015
35.994
35.969
35.942
35.915
35.886
35.858
35.829
35.8
35.771
35.744
35.717
35.693
35.669
35.647
35.627
35.609
35.594
35.581
35.571
35.564
35.558
35.553
35.548
35.541
35.533
35.522
