Trial 1:0back
37.555
37.488
37.422
37.356
37.291
37.226
37.161
37.098
37.035
36.974
36.914
36.856
36.8
36.746
36.695
36.645
36.597
36.548
36.5
36.45
36.398
36.345
36.289
36.231
36.174
36.117
36.064
36.014
35.97
35.932
35.901
35.878
35.863
35.858
35.863
35.876
35.898
35.927
35.962
36.002
36.046
36.093
36.142
36.193
36.245
36.296
36.346
36.393
36.437
36.475
36.508
36.536
36.557
36.572
36.58
36.582
36.577
36.566
36.548
36.524
36.494
36.459
36.419
36.377
36.331
36.284
36.236
36.188
36.139
36.09
36.042
35.993
35.943
35.894
35.844
35.795
35.747
35.699
35.653
35.609
35.566
35.524
35.484
35.445
35.407
35.369
35.332
35.295
35.257
35.219
35.181
35.143
35.107
35.073
35.041
35.012
34.987
34.964
34.942
34.923
34.905
34.887
34.871
34.854
34.837
34.821
34.803
34.786
34.769
34.753
34.737
34.722
34.708
34.694
34.68
34.666
34.652
34.637
34.62
34.603
34.585
34.566
34.548
34.531
34.515
34.5
34.486
34.474
34.462
34.451
34.44
34.43
34.421
34.412
34.404
34.395
34.386
34.377
34.369
34.36
34.351
34.341
34.329
34.316
34.301
34.284
34.267
34.248
34.229
34.208
34.185
34.161
34.136
34.111
34.086
34.062
34.04
34.019
34.0
33.982
33.965
33.947
33.929
33.911
33.892
33.873
33.854
33.836
33.817
33.799
33.782
33.764
33.747
33.729
33.713
33.699
33.689
33.687
33.694
33.715
33.751
33.807
33.885
33.987
34.116
34.271
34.451
34.656
34.881
35.124
35.38
35.644
35.911
36.178
36.442
36.699
36.947
37.182
37.404
37.609
37.797
37.966
38.114
38.242
38.349
38.435
38.5
38.545
38.572
38.581
38.576
38.556
38.525
38.485
38.436
38.382
38.322
38.261
38.198
38.134
38.072
38.01
37.949
37.891
37.835
37.781
37.73
37.682
37.635
37.589
37.545
37.502
37.46
37.417
37.375
37.332
37.289
37.247
37.204
37.16
37.117
37.073
37.028
36.983
36.938
36.894
36.851
36.811
36.773
36.74
36.713
36.693
36.68
36.675
36.677
36.686
36.702
36.724
36.751
36.781
36.814
36.846
36.878
36.909
36.938
36.965
36.99
37.014
37.035
37.052
37.067
37.079
37.087
37.091
37.092
37.089
37.081
37.068
37.05
37.024
36.993
36.956
36.915
36.869
36.819
36.766
36.712
36.655
36.598
36.54
36.483
36.427
36.373
36.32
36.268
36.218
36.17
36.122
36.076
36.031
35.987
35.944
35.901
35.859
35.817
35.776
35.736
35.698
35.661
35.627
35.593
35.562
35.531
35.5
35.469
35.439
35.41
35.381
35.352
35.323
35.295
35.267
35.24
35.214
35.19
35.166
35.144
35.123
35.103
35.084
35.064
35.043
35.022
35.002
34.981
34.963
34.945
34.929
34.915
34.901
34.888
34.875
34.863
34.852
34.84
34.828
34.814
34.8
34.783
34.765
34.745
34.726
34.706
34.686
34.668
34.65
34.634
34.618
34.603
34.587
34.572
34.556
34.54
34.524
34.506
34.488
34.468
34.448
34.427
34.406
34.385
34.363
34.342
34.322
34.301
34.28
34.258
34.235
34.211
34.186
34.161
34.136
34.111
34.087
34.064
34.041
34.019
33.998
33.976
33.955
33.933
33.911
33.888
33.864
33.839
33.813
33.787
33.763
33.742
33.726
33.715
33.712
33.719
33.74
33.775
33.828
33.901
33.994
34.11
34.25
34.413
34.599
34.807
35.035
35.279
35.537
35.803
36.074
36.345
36.61
36.866
37.109
37.335
37.544
37.731
37.896
38.037
38.155
38.249
38.321
38.372
38.403
38.417
38.417
38.403
38.38
38.347
38.308
38.263
38.213
38.16
38.104
38.046
37.987
37.927
37.866
37.805
37.746
37.688
37.632
37.578
37.527
37.478
37.432
37.389
37.347
37.308
37.269
37.232
37.194
37.155
37.114
37.07
37.023
36.974
36.921
36.866
36.808
36.751
36.694
36.639
36.588
36.541
36.501
36.466
36.439
36.418
36.405
36.398
36.398
36.404
36.415
36.429
36.448
36.47
36.494
36.52
36.548
36.577
36.606
36.635
36.662
36.688
36.712
36.732
36.748
36.759
36.765
36.765
36.759
36.746
36.727
36.703
36.673
36.639
36.601
36.56
36.517
36.471
36.424
36.375
36.326
36.275
36.224
36.172
36.119
36.065
36.009
35.953
35.896
35.839
35.782
35.726
35.672
35.62
35.57
35.521
35.475
35.429
35.385
35.343
35.301
35.259
35.218
35.177
35.137
35.098
35.059
35.022
34.985
34.95
34.917
34.885
34.855
34.827
34.801
34.777
34.755
34.733
34.714
34.695
34.678
34.661
34.646
34.631
34.617
34.603
34.589
34.574
34.559
34.543
34.525
34.506
34.484
34.461
34.437
34.414
34.391
34.371
34.354
34.339
34.327
34.316
34.307
34.298
34.29
34.28
34.27
34.258
34.244
34.228
34.211
34.192
34.172
34.153
34.133
34.113
34.093
34.072
34.051
34.028
34.005
33.98
33.954
33.927
33.9
33.873
33.846
33.819
33.793
33.768
33.744
33.72
33.697
33.674
33.652
33.629
33.607
33.586
33.566
33.548
33.531
33.516
33.503
33.491
33.479
33.467
33.453
33.437
33.419
33.399
33.376
33.352
33.328
33.303
33.278
33.254
33.23
33.207
33.184
33.162
33.139
33.115
33.09
33.065
33.04
33.016
32.994
32.974
32.959
32.949
32.947
32.953
32.969
32.998
33.04
33.097
33.173
33.268
33.383
33.521
33.681
33.863
34.065
34.286
34.521
34.767
35.019
35.274
35.527
35.775
36.013
36.24
36.451
36.645
36.818
36.969
37.097
37.203
37.286
37.348
37.389
37.412
37.418
37.409
37.385
37.35
37.305
37.251
37.19
37.124
37.056
36.986
36.917
36.848
36.78
36.715
36.651
36.591
36.533
36.479
36.428
36.381
36.337
36.295
36.255
36.216
36.177
36.14
36.101
36.062
36.02
35.976
35.929
35.879
35.827
35.774
35.722
35.669
35.619
35.57
35.523
35.48
35.44
35.405
35.375
35.351
35.332
35.318
35.311
35.311
35.317
35.329
35.348
35.372
35.402
35.435
35.472
35.511
35.551
35.59
35.628
35.663
35.695
35.723
35.746
35.764
35.777
35.784
35.786
35.783
35.775
35.762
35.743
35.719
35.691
35.658
35.622
35.581
35.538
35.492
35.443
35.391
35.339
35.284
35.229
35.172
35.116
35.06
35.005
34.951
34.899
34.849
34.801
34.756
34.714
34.675
34.639
34.606
34.577
34.55
34.525
34.502
34.48
34.46
34.44
34.422
34.403
34.383
34.363
34.341
34.317
34.293
34.267
34.242
34.216
34.192
34.169
34.148
34.129
34.111
34.094
34.079
34.064
34.05
34.037
34.025
34.013
34.001
33.989
33.976
33.963
33.948
33.934
33.92
33.907
33.894
33.882
33.871
33.861
33.851
33.842
33.833
33.825
33.816
33.807
33.796
33.786
33.774
33.762
33.749
33.734
33.718
33.702
33.684
33.665
33.646
33.627
33.609
33.592
33.576
33.562
33.55
33.54
33.531
33.524
33.517
33.511
33.504
33.496
33.486
33.475
33.463
33.45
33.437
33.423
33.408
33.394
33.378
33.363
33.346
33.329
33.311
33.293
33.274
33.255
33.236
33.218
33.201
33.186
33.173
33.161
33.151
33.142
33.133
33.125
33.117
33.109
33.099
33.089
33.078
33.067
33.054
33.041
33.028
33.015
33.001
32.986
32.972
32.956
32.941
32.925
32.91
32.895
32.882
32.871
32.863
32.861
32.866
32.881
32.908
32.949
33.007
33.083
33.177
33.291
33.425
33.578
33.749
33.938
34.142
34.357
34.581
34.81
35.039
35.266
35.486
35.695
35.892
36.072
36.234
36.377
36.499
36.599
36.678
36.735
36.772
36.789
36.788
36.772
36.742
36.7
36.649
36.59
36.525
36.455
36.381
36.304
36.225
36.146
36.067
35.989
35.914
35.841
35.772
35.708
35.648
35.592
35.54
35.492
35.448
35.407
35.368
35.33
35.292
35.253
35.213
35.17
35.124
35.076
35.025
34.973
34.92
34.867
34.815
34.767
34.723
34.684
34.652
34.626
34.608
34.597
34.593
34.597
34.606
34.622
34.644
34.671
34.703
34.74
34.78
34.825
34.872
34.921
34.972
35.023
35.073
35.121
35.165
35.205
35.24
35.268
35.29
35.305
35.312
35.313
35.307
35.294
35.274
35.249
35.218
35.183
35.146
35.105
35.063
35.019
34.973
34.927
34.88
34.833
34.787
34.742
34.698
34.654
34.612
34.57
34.529
34.49
34.453
34.417
34.383
34.351
34.32
34.29
34.261
34.233
34.206
34.179
34.154
34.131
34.11
34.091
34.074
34.059
34.045
34.032
34.02
34.008
33.996
33.984
33.973
33.963
33.953
33.945
33.937
33.932
33.928
33.927
33.927
33.928
33.929
33.93
33.93
33.928
33.924
33.918
33.912
33.904
33.898
33.893
33.889
33.888
33.887
33.887
33.887
33.888
33.889
33.888
33.887
33.883
33.878
33.871
33.862
33.853
33.845
33.838
33.833
33.828
33.825
33.822
33.82
33.818
33.816
33.813
33.809
33.803
33.794
33.784
33.771
33.756
33.741
33.724
33.708
33.691
33.676
33.661
33.647
33.635
33.624
33.614
33.605
33.598
33.592
33.587
33.584
33.581
33.578
33.576
33.574
33.571
33.568
33.563
33.557
33.549
33.541
33.53
33.518
33.504
33.489
33.473
33.457
33.442
33.429
33.417
33.407
33.398
33.389
33.38
33.371
33.361
33.35
33.338
33.326
33.313
33.3
33.287
33.274
33.262
33.251
33.24
33.23
33.22
33.212
33.204
33.198
33.194
33.192
33.194
33.203
33.22
33.248
33.29
33.349
33.428
33.528
33.65
33.796
33.963
34.15
34.355
34.575
34.805
35.043
35.283
35.523
35.758
35.985
36.2
36.401
36.586
36.751
36.896
37.019
37.121
37.2
37.259
37.297
37.317
37.318
37.304
37.275
37.234
37.183
37.122
37.053
36.979
36.901
36.821
36.741
36.663
36.587
36.515
36.447
36.384
36.325
36.27
36.221
36.177
36.137
36.101
36.069
36.038
36.009
35.982
35.954
35.926
35.898
35.868
35.837
35.804
35.769
35.731
35.69
35.645
35.597
35.546
35.494
35.44
35.385
35.331
35.278
35.227
35.18
35.138
35.103
35.075
35.057
35.047
35.046
35.053
35.069
35.092
35.122
35.158
35.198
35.241
35.285
35.328
35.369
35.406
35.439
35.467
35.49
35.507
35.518
35.522
35.519
35.509
35.493
35.47
35.441
35.406
35.366
35.321
35.273
35.221
35.167
35.112
35.057
35.002
34.95
34.9
34.852
34.807
34.763
34.721
34.68
34.64
34.599
34.556
34.511
34.463
34.412
34.358
34.302
34.245
34.188
34.132
34.078
34.026
33.978
33.933
33.893
33.856
33.823
33.792
33.765
33.739
33.713
33.687
33.661
33.633
33.604
33.574
33.54
33.504
33.465
33.422
33.375
33.323
33.266
33.205
33.14
33.073
33.004
32.935
32.866
32.801
32.739
32.681
32.629
32.581
32.539
32.499
32.463
32.428
32.393
32.357
32.32
32.281
32.24
32.197
32.153
32.108
32.063
32.019
31.975
31.932
31.891
31.852
31.815
31.782
31.753
31.727
31.705
31.686
31.671
31.658
31.647
31.637
31.628
31.619
31.61
31.602
31.593
31.584
31.574
31.564
31.555
31.548
31.542
31.539
31.538
31.539
31.542
31.547
31.553
31.561
31.57
31.58
31.592
31.605
31.621
31.638
31.66
31.685
31.715
31.75
31.79
31.835
31.883
31.935
31.99
32.047
32.106
32.166
32.225
32.282
32.335
32.385
32.429
32.468
32.5
32.524
32.541
32.549
32.549
32.542
32.53
32.514
32.495
32.474
32.452
32.431
32.411
32.392
32.375
32.36
32.348
32.341
32.339
32.345
32.361
32.388
32.428
32.484
32.557
32.649
32.762
32.896
33.05
33.224
33.414
33.618
33.833
34.055
34.281
34.508
34.731
34.948
35.156
35.352
35.533
35.698
35.844
35.972
36.079
36.164
36.229
36.273
36.297
36.302
36.289
36.259
36.215
36.158
36.09
36.014
35.932
35.847
35.761
35.676
35.594
35.519
35.45
35.388
35.335
35.289
35.25
35.218
35.193
35.172
35.156
35.142
35.129
35.117
35.104
35.088
35.069
35.046
35.017
34.983
34.942
34.894
34.84
34.781
34.716
34.649
34.578
34.507
34.436
34.365
34.298
34.235
34.177
34.124
34.076
34.035
34.0
33.971
33.947
33.926
33.908
33.889
33.872
33.855
33.841
33.83
33.824
33.823
33.827
33.835
33.844
33.85
33.85
33.839
33.815
33.774
33.716
33.641
33.553
33.456
33.354
33.25
33.147
33.049
32.956
32.872
32.796
32.731
32.674
32.624
32.581
32.541
32.504
32.466
32.427
32.385
32.338
32.288
32.234
32.176
32.115
32.054
31.992
31.933
31.878
31.828
31.785
31.748
31.717
31.694
31.677
31.668
31.665
31.669
31.679
31.694
31.713
31.735
31.758
31.781
31.8
31.816
31.828
31.835
31.838
31.836
31.831
31.823
31.813
31.803
31.795
31.791
31.79
31.794
31.803
31.816
31.833
31.854
31.879
31.906
31.936
31.967
31.999
32.032
32.066
32.099
32.133
32.167
32.203
32.24
32.279
32.321
32.365
32.412
32.463
32.517
32.573
32.632
32.692
32.752
32.812
32.87
32.926
32.977
33.025
33.068
33.106
33.139
33.168
33.192
33.211
33.227
33.238
33.245
33.248
33.249
33.246
33.242
33.235
33.227
33.218
33.208
33.198
33.187
33.176
33.165
33.155
33.144
33.134
33.124
33.115
33.108
33.102
33.097
33.094
33.091
33.089
33.086
33.085
33.083
33.081
33.079
33.076
33.073
33.069
33.065
33.06
33.057
33.054
33.054
33.057
33.064
33.078
33.099
33.13
33.173
33.23
33.303
33.392
33.498
33.622
33.764
33.922
34.096
34.283
34.481
34.688
34.899
35.112
35.324
35.53
35.728
35.915
36.09
36.249
36.391
36.515
36.619
36.703
36.766
36.809
36.833
36.838
36.826
36.799
36.76
36.71
36.652
36.589
36.522
36.455
36.389
36.326
36.266
36.211
36.163
36.119
36.081
36.047
36.016
35.986
35.957
35.928
35.899
35.868
35.837
35.803
35.767
35.729
35.689
35.645
35.601
35.554
35.507
35.459
35.411
35.364
35.32
35.28
35.245
35.215
35.191
35.173
35.16
35.153
35.151
35.155
35.164
35.179
35.2
35.227
35.26
35.297
35.34
35.388
35.438
35.491
35.546
35.601
35.654
35.705
35.753
35.796
35.835
35.868
35.896
35.918
35.935
35.947
35.954
35.956
35.953
35.946
35.935
35.921
35.903
35.882
35.858
35.832
35.805
35.777
35.748
35.719
35.689
35.658
35.626
35.593
35.559
35.524
35.487
35.449
35.409
35.368
35.327
35.285
35.243
35.202
35.162
35.124
35.086
35.049
35.013
34.978
34.945
34.914
34.885
34.858
34.834
34.813
34.795
34.779
34.764
34.751
34.74
34.729
34.72
34.71
34.701
34.691
34.682
34.672
34.662
34.652
34.643
34.634
34.626
34.618
34.611
34.605
34.6
34.596
34.593
34.59
34.588
34.586
34.584
34.581
34.577
34.573
34.567
34.561
34.553
34.544
34.533
34.52
34.507
34.494
34.481
34.471
34.464
34.458
34.454
34.451
34.448
34.446
34.443
34.439
34.435
34.429
34.422
34.412
34.401
34.388
34.373
34.357
34.339
34.321
34.302
34.285
34.269
34.254
34.242
34.233
34.225
34.219
34.214
34.209
34.203
34.197
34.189
34.182
34.174
34.167
34.16
34.154
34.15
34.147
34.146
34.148
34.154
34.165
34.182
34.207
34.242
34.29
34.353
34.431
34.528
34.644
34.778
34.93
35.099
35.282
35.476
35.679
35.887
36.096
36.303
36.504
36.696
36.874
37.036
37.18
37.304
37.407
37.489
37.55
37.591
37.612
37.615
37.601
37.574
37.535
37.485
37.427
37.363
37.295
37.223
37.15
37.077
37.004
36.933
36.863
36.796
36.731
36.669
36.61
36.555
36.503
36.455
36.409
36.367
36.326
36.286
36.248
36.212
36.176
36.14
36.105
36.069
36.032
35.993
35.953
35.909
35.864
35.817
35.769
35.72
35.67
35.621
35.574
35.529
35.489
35.453
35.423
35.4
35.384
35.375
35.373
35.379
35.391
35.408
35.43
35.455
35.482
35.51
35.539
35.567
35.595
35.621
35.646
35.67
35.692
35.712
35.73
35.746
35.76
35.772
35.781
35.786
35.788
35.785
35.779
35.768
35.752
35.733
35.709
35.681
35.649
35.615
35.578
35.54
35.5
35.459
35.417
35.375
35.333
35.292
35.25
35.209
35.169
35.129
35.089
35.049
35.01
34.971
34.932
34.894
34.858
34.822
34.789
34.756
34.724
34.694
34.664
34.635
34.606
34.578
34.551
34.524
34.498
34.473
34.448
34.425
34.404
34.384
34.366
34.351
34.337
34.325
34.314
34.305
34.297
34.291
34.286
34.283
34.281
34.279
34.278
34.275
34.271
34.267
34.262
34.258
34.254
34.25
34.247
34.245
34.242
34.239
34.235
34.229
34.222
34.214
34.204
34.192
34.178
34.163
34.148
34.133
34.119
34.105
34.093
34.083
34.074
34.067
34.061
34.057
34.054
34.051
34.048
34.044
34.039
34.031
34.021
34.009
33.995
33.978
33.961
33.942
33.924
33.906
33.888
33.872
33.858
33.845
33.834
33.824
33.817
33.814
33.815
33.822
33.836
33.86
33.896
33.944
34.007
34.086
34.182
34.295
34.425
34.57
34.73
34.901
35.08
35.265
35.453
35.639
35.822
35.997
36.162
36.315
36.454
36.576
36.681
36.767
36.836
36.886
36.919
36.935
36.935
36.92
36.89
36.848
36.794
36.73
36.659
36.581
36.498
36.414
36.327
36.241
36.156
36.074
35.996
35.923
35.856
35.793
35.737
35.685
35.638
35.595
35.556
35.52
35.486
35.454
35.423
35.394
35.364
35.334
35.304
35.271
35.237
35.202
35.164
35.125
35.084
35.042
34.998
34.954
34.911
34.87
34.831
34.795
34.764
34.737
34.716
34.701
34.692
34.689
34.693
34.704
34.722
34.746
34.775
34.809
34.847
34.887
34.929
34.97
35.01
35.047
35.08
35.11
35.135
35.155
35.171
35.181
35.187
35.187
35.183
35.176
35.164
35.149
35.131
35.11
35.087
35.062
35.034
35.004
34.973
34.939
34.904
34.867
34.827
34.785
34.742
34.696
34.649
34.6
34.551
34.502
34.452
34.403
34.353
34.303
34.254
34.206
34.159
34.114
34.07
34.027
33.985
33.944
33.905
33.867
33.833
33.801
33.773
33.747
33.725
33.704
33.686
33.67
33.656
33.644
33.633
33.624
33.615
33.608
33.601
33.597
33.594
33.594
33.595
33.599
33.603
33.608
33.613
33.618
33.623
33.628
33.633
33.638
33.642
33.648
33.653
33.659
33.667
33.675
33.686
33.698
33.711
33.724
33.738
33.75
33.762
33.772
33.782
33.79
33.796
33.801
33.805
33.806
33.806
33.805
33.802
33.798
33.794
33.789
33.783
33.778
33.771
33.764
33.757
33.749
33.741
33.734
33.727
33.721
33.715
33.71
33.705
33.7
33.696
33.693
33.691
33.69
33.692
33.697
33.705
33.719
33.74
33.77
33.812
33.866
33.934
34.018
34.118
34.235
34.367
34.514
34.674
34.843
35.018
35.196
35.372
35.543
35.706
35.859
35.998
36.122
36.229
36.318
36.387
36.438
36.469
36.482
36.478
36.46
36.428
36.386
36.335
36.278
36.216
36.15
36.083
36.015
35.948
35.881
35.817
35.756
35.699
35.644
35.593
35.545
35.501
35.459
35.42
35.384
35.35
35.317
35.286
35.255
35.225
35.196
35.167
35.137
35.105
35.073
35.038
35.001
34.962
34.921
34.878
34.834
34.791
34.749
34.709
34.672
34.638
34.608
34.582
34.561
34.546
34.538
34.536
34.541
34.553
34.57
34.593
34.621
34.652
34.686
34.723
34.76
34.799
34.838
34.876
34.914
34.95
34.984
35.016
35.044
35.069
35.09
35.106
35.117
35.122
35.122
35.117
35.106
35.091
35.071
35.046
35.018
34.986
34.953
34.918
34.883
34.848
34.813
34.78
34.747
34.714
34.682
34.65
34.618
34.586
34.553
34.52
34.486
34.452
34.419
34.387
34.356
34.328
34.303
34.28
34.259
34.242
34.227
34.214
34.202
34.192
34.182
34.172
34.162
34.152
34.141
34.129
34.118
34.106
34.095
34.084
34.074
34.065
34.057
34.05
34.044
34.039
34.035
34.031
34.027
34.022
34.016
34.008
33.999
33.989
33.978
33.967
33.956
33.946
33.936
33.926
33.917
33.908
33.899
33.891
33.884
33.879
33.874
33.87
33.867
33.864
33.862
33.86
33.858
33.857
33.857
33.857
33.856
33.855
33.853
33.85
33.845
33.839
33.831
33.823
33.812
33.801
33.789
33.776
33.763
33.751
33.739
33.727
33.716
33.705
33.695
33.686
33.678
33.671
33.665
33.66
33.656
33.653
33.653
33.655
33.661
33.674
33.694
33.725
33.768
33.826
33.899
33.989
34.097
34.22
34.36
34.512
34.676
34.849
35.026
35.205
35.382
35.554
35.716
35.867
36.004
36.125
36.228
36.313
36.381
36.43
36.461
36.475
36.471
36.451
36.417
36.37
36.313
36.246
36.172
36.092
36.007
35.918
35.827
35.735
35.644
35.555
35.469
35.388
35.312
35.242
35.178
35.12
35.067
35.021
34.98
34.943
34.91
34.881
34.853
34.827
34.8
34.772
34.743
34.711
34.678
34.642
34.603
34.563
34.522
34.48
34.439
34.4
34.363
34.329
34.3
34.276
34.257
34.245
34.239
34.239
34.245
34.256
34.272
34.292
34.317
34.347
34.38
34.416
34.456
34.498
34.542
34.587
34.632
