Trial 1:0back
33.671
33.639
33.606
33.572
33.537
33.503
33.469
33.436
33.405
33.376
33.35
33.329
33.314
33.304
33.301
33.307
33.322
33.349
33.388
33.442
33.51
33.595
33.695
33.812
33.944
34.09
34.248
34.418
34.597
34.782
34.972
35.163
35.353
35.539
35.719
35.89
36.052
36.201
36.336
36.456
36.561
36.651
36.727
36.789
36.84
36.88
36.909
36.93
36.942
36.948
36.948
36.944
36.935
36.923
36.908
36.891
36.872
36.853
36.833
36.814
36.794
36.776
36.758
36.742
36.727
36.713
36.701
36.69
36.68
36.67
36.66
36.65
36.639
36.628
36.617
36.604
36.592
36.579
36.566
36.553
36.541
36.53
36.52
36.51
36.501
36.494
36.487
36.482
36.479
36.477
36.478
36.482
36.49
36.5
36.513
36.53
36.549
36.571
36.594
36.617
36.64
36.661
36.681
36.698
36.712
36.723
36.73
36.733
36.732
36.727
36.719
36.706
36.69
36.671
36.648
36.623
36.597
36.569
36.54
36.511
36.481
36.45
36.418
36.386
36.352
36.318
36.283
36.248
36.212
36.175
36.137
36.099
36.06
36.023
35.986
35.951
35.917
35.884
35.853
35.824
35.795
35.768
35.74
35.712
35.685
35.657
35.629
35.6
35.571
35.542
35.514
35.486
35.458
35.432
35.405
35.379
35.354
35.33
35.307
35.284
35.262
35.24
35.218
35.196
35.173
35.149
35.125
35.101
35.076
35.051
35.026
35.003
34.98
34.959
34.939
34.92
34.903
34.886
34.87
34.854
34.838
34.822
34.807
34.792
34.776
34.761
34.745
34.728
34.711
34.694
34.678
34.661
34.646
34.63
34.615
34.601
34.586
34.572
34.559
34.546
34.534
34.521
34.508
34.495
34.48
34.465
34.448
34.43
34.409
34.387
34.362
34.336
34.308
34.278
34.247
34.213
34.178
34.141
34.104
34.066
34.027
33.988
33.949
33.91
33.873
33.839
33.808
33.781
33.759
33.744
33.737
33.741
33.756
33.785
33.831
33.894
33.975
34.075
34.194
34.333
34.489
34.661
34.848
35.048
35.258
35.475
35.697
35.922
36.145
36.364
36.577
36.781
36.973
37.153
37.317
37.467
37.601
37.719
37.823
37.911
37.987
38.049
38.1
38.141
38.171
38.192
38.205
38.211
38.21
38.204
38.193
38.178
38.161
38.141
38.12
38.098
38.077
38.058
38.042
38.029
38.02
38.014
38.012
38.012
38.016
38.021
38.029
38.038
38.048
38.057
38.065
38.071
38.075
38.077
38.075
38.071
38.063
38.052
38.039
38.025
38.009
37.994
37.978
37.964
37.952
37.941
37.932
37.924
37.917
37.911
37.906
37.902
37.899
37.896
37.895
37.896
37.899
37.903
37.908
37.915
37.921
37.928
37.935
37.94
37.943
37.943
37.941
37.934
37.923
37.909
37.89
37.868
37.841
37.81
37.776
37.737
37.694
37.647
37.598
37.546
37.493
37.438
37.382
37.325
37.268
37.211
37.154
37.097
37.041
36.985
36.929
36.874
36.82
36.765
36.711
36.657
36.603
36.549
36.495
36.441
36.388
36.335
36.283
36.232
36.183
36.133
36.085
36.037
35.99
35.944
35.898
35.852
35.807
35.762
35.719
35.676
35.635
35.596
35.559
35.523
35.488
35.454
35.42
35.387
35.353
35.32
35.287
35.254
35.221
35.188
35.155
35.122
35.09
35.058
35.028
34.999
34.971
34.943
34.915
34.887
34.858
34.828
34.798
34.769
34.74
34.711
34.684
34.657
34.631
34.605
34.58
34.555
34.531
34.507
34.482
34.458
34.435
34.411
34.386
34.361
34.336
34.31
34.285
34.259
34.234
34.209
34.184
34.16
34.136
34.112
34.087
34.061
34.034
34.007
33.978
33.948
33.917
33.886
33.855
33.825
33.796
33.769
33.745
33.722
33.702
33.682
33.663
33.645
33.627
33.609
33.591
33.573
33.555
33.539
33.526
33.518
33.518
33.528
33.551
33.59
33.648
33.726
33.825
33.948
34.093
34.26
34.448
34.655
34.88
35.12
35.372
35.632
35.899
36.168
36.437
36.702
36.96
37.208
37.444
37.664
37.867
38.052
38.217
38.363
38.489
38.596
38.684
38.755
38.809
38.847
38.871
38.88
38.877
38.862
38.837
38.802
38.761
38.714
38.662
38.607
38.551
38.494
38.439
38.385
38.333
38.283
38.238
38.197
38.162
38.133
38.112
38.096
38.087
38.082
38.081
38.082
38.085
38.087
38.087
38.085
38.081
38.073
38.063
38.051
38.036
38.02
38.001
37.982
37.963
37.943
37.923
37.904
37.887
37.871
37.859
37.849
37.844
37.842
37.844
37.85
37.86
37.872
37.886
37.902
37.918
37.933
37.946
37.957
37.965
37.97
37.971
37.97
37.966
37.958
37.947
37.933
37.914
37.892
37.866
37.836
37.803
37.767
37.729
37.689
37.648
37.605
37.56
37.513
37.466
37.417
37.368
37.318
37.267
37.216
37.166
37.116
37.066
37.018
36.972
36.927
36.883
36.84
36.797
36.753
36.708
36.66
36.61
36.558
36.502
36.444
36.384
36.323
36.262
36.199
36.137
36.076
36.015
35.955
35.897
35.84
35.783
35.727
35.672
35.617
35.564
35.512
35.461
35.412
35.366
35.322
35.28
35.241
35.205
35.171
35.139
35.109
35.079
35.048
35.016
34.984
34.95
34.915
34.879
34.844
34.808
34.774
34.741
34.709
34.677
34.647
34.617
34.587
34.557
34.527
34.497
34.466
34.436
34.405
34.374
34.344
34.315
34.287
34.26
34.235
34.213
34.192
34.174
34.157
34.142
34.128
34.114
34.099
34.084
34.066
34.046
34.024
33.998
33.97
33.939
33.906
33.871
33.835
33.799
33.764
33.729
33.694
33.661
33.629
33.597
33.567
33.537
33.507
33.479
33.451
33.425
33.401
33.379
33.362
33.35
33.347
33.355
33.376
33.412
33.466
33.539
33.634
33.749
33.886
34.042
34.217
34.408
34.614
34.832
35.06
35.296
35.535
35.776
36.015
36.25
36.477
36.694
36.898
37.087
37.26
37.415
37.552
37.67
37.77
37.853
37.92
37.972
38.01
38.036
38.05
38.055
38.052
38.041
38.025
38.003
37.977
37.949
37.918
37.887
37.856
37.826
37.797
37.77
37.746
37.723
37.701
37.681
37.663
37.645
37.627
37.609
37.591
37.573
37.554
37.533
37.511
37.488
37.462
37.434
37.405
37.374
37.343
37.31
37.278
37.248
37.219
37.194
37.172
37.154
37.141
37.132
37.129
37.129
37.135
37.144
37.156
37.171
37.188
37.206
37.224
37.242
37.26
37.277
37.292
37.306
37.317
37.325
37.33
37.331
37.328
37.321
37.31
37.295
37.276
37.254
37.228
37.2
37.168
37.135
37.098
37.06
37.02
36.978
36.935
36.89
36.844
36.796
36.747
36.696
36.643
36.589
36.533
36.476
36.419
36.361
36.304
36.247
36.191
36.135
36.079
36.023
35.968
35.914
35.859
35.805
35.75
35.694
35.638
35.581
35.524
35.468
35.413
35.359
35.306
35.255
35.206
35.158
35.113
35.068
35.025
34.984
34.944
34.905
34.869
34.834
34.801
34.769
34.738
34.71
34.683
34.658
34.634
34.612
34.591
34.571
34.553
34.535
34.517
34.5
34.483
34.466
34.448
34.429
34.409
34.389
34.369
34.348
34.327
34.306
34.284
34.261
34.239
34.216
34.193
34.17
34.147
34.123
34.099
34.074
34.049
34.023
33.997
33.972
33.946
33.921
33.897
33.873
33.85
33.828
33.808
33.792
33.78
33.774
33.777
33.79
33.815
33.854
33.91
33.984
34.077
34.19
34.323
34.476
34.649
34.84
35.048
35.27
35.505
35.749
35.999
36.253
36.508
36.759
37.003
37.236
37.456
37.659
37.843
38.007
38.149
38.271
38.371
38.45
38.51
38.553
38.58
38.594
38.596
38.588
38.571
38.549
38.521
38.489
38.455
38.421
38.386
38.351
38.318
38.287
38.259
38.232
38.207
38.184
38.162
38.141
38.121
38.101
38.081
38.061
38.04
38.018
37.994
37.969
37.944
37.916
37.887
37.855
37.821
37.784
37.745
37.704
37.664
37.624
37.586
37.551
37.52
37.492
37.47
37.453
37.442
37.437
37.438
37.443
37.452
37.465
37.479
37.494
37.511
37.527
37.543
37.557
37.57
37.58
37.587
37.591
37.591
37.587
37.58
37.568
37.553
37.534
37.512
37.486
37.457
37.425
37.39
37.351
37.309
37.265
37.218
37.168
37.116
37.062
37.007
36.952
36.896
36.839
36.783
36.728
36.673
36.618
36.564
36.511
36.458
36.405
36.353
36.302
36.251
36.2
36.149
36.098
36.048
35.998
35.949
35.901
35.854
35.808
35.763
35.72
35.678
35.638
35.598
35.56
35.523
35.486
35.449
35.413
35.376
35.34
35.305
35.27
35.235
35.202
35.169
35.137
35.106
35.075
35.043
35.012
34.98
34.948
34.915
34.882
34.849
34.816
34.784
34.753
34.722
34.692
34.662
34.633
34.603
34.575
34.547
34.52
34.493
34.466
34.439
34.412
34.386
34.36
34.335
34.311
34.288
34.265
34.242
34.219
34.195
34.171
34.145
34.118
34.089
34.059
34.026
33.992
33.956
33.918
33.879
33.839
33.797
33.756
33.716
33.677
33.64
33.605
33.571
33.539
33.509
33.481
33.457
33.438
33.424
33.419
33.425
33.444
33.478
33.53
33.603
33.698
33.817
33.962
34.131
34.325
34.541
34.779
35.035
35.307
35.59
35.881
36.176
36.469
36.758
37.039
37.309
37.566
37.806
38.03
38.234
38.417
38.58
38.721
38.842
38.942
39.023
39.086
39.133
39.165
39.184
39.192
39.191
39.183
39.17
39.152
39.131
39.108
39.083
39.058
39.032
39.008
38.985
38.964
38.945
38.929
38.915
38.903
38.893
38.885
38.878
38.872
38.865
38.858
38.848
38.837
38.822
38.805
38.783
38.759
38.731
38.7
38.667
38.633
38.596
38.558
38.518
38.479
38.44
38.404
38.37
38.339
38.312
38.289
38.27
38.256
38.245
38.239
38.235
38.234
38.235
38.237
38.239
38.241
38.241
38.24
38.238
38.233
38.226
38.215
38.201
38.183
38.162
38.136
38.106
38.071
38.033
37.991
37.947
37.9
37.853
37.803
37.752
37.7
37.647
37.592
37.537
37.482
37.425
37.368
37.31
37.251
37.191
37.131
37.069
37.007
36.944
36.88
36.815
36.749
36.682
36.615
36.548
36.481
36.416
36.351
36.287
36.224
36.163
36.103
36.044
35.987
35.932
35.879
35.826
35.774
35.722
35.671
35.622
35.573
35.527
35.482
35.438
35.395
35.353
35.312
35.272
35.232
35.193
35.155
35.118
35.082
35.046
35.01
34.975
34.941
34.906
34.873
34.84
34.809
34.779
34.75
34.724
34.699
34.677
34.656
34.637
34.618
34.6
34.582
34.565
34.546
34.529
34.511
34.493
34.474
34.455
34.434
34.411
34.385
34.357
34.326
34.292
34.256
34.217
34.176
34.134
34.09
34.044
33.996
33.946
33.894
33.84
33.784
33.727
33.668
33.608
33.547
33.487
33.426
33.366
33.306
33.248
33.191
33.137
33.087
33.039
32.996
32.956
32.921
32.89
32.863
32.841
32.824
32.812
32.807
32.81
32.822
32.846
32.883
32.936
33.005
33.094
33.203
33.334
33.489
33.668
33.87
34.095
34.341
34.606
34.888
35.182
35.484
35.79
36.097
36.399
36.692
36.974
37.24
37.488
37.716
37.922
38.106
38.267
38.407
38.525
38.624
38.705
38.768
38.816
38.849
38.868
38.875
38.87
38.855
38.832
38.802
38.767
38.729
38.689
38.648
38.609
38.571
38.537
38.506
38.479
38.456
38.436
38.42
38.407
38.396
38.387
38.378
38.37
38.361
38.352
38.341
38.328
38.314
38.297
38.278
38.256
38.231
38.203
38.172
38.138
38.103
38.068
38.032
37.997
37.964
37.933
37.906
37.882
37.863
37.847
37.835
37.826
37.82
37.817
37.816
37.816
37.817
37.818
37.819
37.819
37.819
37.817
37.813
37.806
37.797
37.785
37.769
37.748
37.721
37.69
37.654
37.614
37.57
37.523
37.474
37.423
37.37
37.317
37.262
37.206
37.149
37.09
37.03
36.967
36.903
36.836
36.767
36.696
36.625
36.552
36.481
36.41
36.341
36.274
36.208
36.143
36.08
36.017
35.954
35.891
35.828
35.764
35.699
35.633
35.567
35.502
35.438
35.374
35.312
35.251
35.191
35.133
35.076
35.02
34.965
34.911
34.859
34.809
34.761
34.714
34.67
34.626
34.584
34.543
34.502
34.462
34.422
34.382
34.342
34.302
34.262
34.222
34.183
34.143
34.105
34.067
34.03
33.994
33.959
33.924
33.889
33.855
33.822
33.788
33.755
33.722
33.69
33.659
33.629
33.6
33.573
33.546
33.519
33.492
33.465
33.436
33.406
33.374
33.341
33.307
33.273
33.238
33.203
33.169
33.136
33.105
33.075
33.047
33.022
32.997
32.975
32.954
32.933
32.913
32.894
32.874
32.854
32.834
32.812
32.789
32.763
32.733
32.7
32.664
32.624
32.582
32.537
32.491
32.445
32.399
32.354
32.311
32.271
32.233
32.2
32.17
32.145
32.127
32.115
32.113
32.121
32.142
32.177
32.228
32.299
32.392
32.507
32.648
32.815
33.009
33.228
33.473
33.74
34.028
34.332
34.65
34.976
35.306
35.637
35.963
36.281
36.586
36.874
37.143
37.39
37.613
37.81
37.982
38.127
38.247
38.344
38.418
38.472
38.507
38.527
38.532
38.525
38.508
38.481
38.448
38.409
38.366
38.321
38.276
38.23
38.185
38.142
38.102
38.063
38.027
37.993
37.962
37.934
37.908
37.884
37.863
37.842
37.822
37.802
37.781
37.758
37.733
37.705
37.674
37.64
37.602
37.56
37.517
37.472
37.426
37.381
37.337
37.296
37.258
37.225
37.195
37.171
37.151
37.136
37.126
37.119
37.117
37.118
37.122
37.128
37.135
37.143
37.15
37.157
37.162
37.165
37.167
37.165
37.16
37.151
37.137
37.118
37.095
37.068
37.038
37.004
36.968
36.93
36.89
36.849
36.805
36.761
36.714
36.665
36.614
36.56
36.504
36.446
36.385
36.322
36.256
36.189
36.119
36.048
35.975
35.901
35.828
35.754
35.682
35.611
35.541
35.473
35.407
35.343
35.28
35.218
35.157
35.097
35.038
34.979
34.921
34.864
34.808
34.753
34.7
34.649
34.599
34.55
34.502
34.455
34.408
34.361
34.313
34.265
34.218
34.171
34.125
34.081
34.04
34.0
33.961
33.924
33.889
33.856
33.825
33.794
33.765
33.737
33.708
33.68
33.651
33.622
33.592
33.561
33.529
33.495
33.461
33.427
33.393
33.359
33.326
33.294
33.261
33.229
33.197
33.166
33.135
33.104
33.074
33.045
33.016
32.988
32.959
32.931
32.902
32.873
32.842
32.811
32.778
32.745
32.711
32.677
32.642
32.606
32.57
32.533
32.496
32.457
32.417
32.377
32.335
32.295
32.254
32.215
32.176
32.138
32.103
32.069
32.038
32.009
31.985
31.966
31.952
31.947
31.951
31.967
31.997
32.042
32.105
32.188
32.292
32.418
32.568
32.74
32.935
33.15
33.385
33.635
33.898
34.172
34.452
34.734
35.015
35.289
35.554
35.806
36.041
36.257
36.452
36.625
36.775
36.902
37.007
37.09
37.154
37.199
37.228
37.243
37.244
37.234
37.215
37.188
37.155
37.118
37.078
37.036
36.993
36.95
36.908
36.866
36.826
36.787
36.75
36.713
36.677
36.641
36.606
36.57
36.535
36.5
36.464
36.428
36.39
36.351
36.31
36.268
36.224
36.178
36.132
36.086
36.041
35.996
35.954
35.916
35.881
35.85
35.825
35.806
35.792
35.785
35.783
35.787
35.796
35.81
35.829
35.851
35.877
35.905
35.933
35.96
35.986
36.009
36.028
36.042
36.051
36.053
36.05
36.042
36.027
36.008
35.985
35.958
35.928
35.896
35.862
35.826
35.787
35.748
35.706
35.662
35.616
35.568
35.518
35.466
35.411
35.354
35.294
35.233
35.17
35.106
35.042
34.977
34.914
34.851
34.789
34.728
34.669
34.612
34.557
34.505
34.456
34.409
34.365
34.322
34.279
34.237
34.195
34.153
34.11
34.067
34.022
33.978
33.933
33.887
33.842
33.797
33.754
33.711
33.671
33.633
33.597
33.564
33.533
33.503
33.475
33.448
33.421
33.395
33.37
33.346
33.322
33.298
33.274
33.25
33.227
33.203
33.18
33.157
33.134
33.111
33.088
33.065
33.041
33.017
32.993
32.968
32.942
32.916
32.89
32.864
32.838
32.812
32.786
32.761
32.734
32.708
32.68
32.653
32.625
32.597
32.568
32.539
32.51
32.48
32.449
32.419
32.389
32.36
32.333
32.309
32.29
32.276
32.271
32.276
32.294
32.328
32.379
32.449
32.541
32.654
32.79
32.947
33.125
33.324
33.54
33.772
34.016
34.269
34.527
34.787
35.044
35.296
35.538
35.769
35.985
36.186
36.37
36.535
36.681
36.809
36.917
37.006
37.078
37.132
37.171
37.195
37.206
37.206
37.197
37.179
37.154
37.124
37.089
37.051
37.01
36.97
36.929
36.89
36.852
36.816
36.781
36.749
36.72
36.693
36.668
36.644
36.621
36.598
36.574
36.55
36.523
36.495
36.464
36.432
36.398
36.362
36.325
36.287
36.249
36.212
36.176
36.141
36.11
36.082
36.059
36.041
36.028
36.021
36.02
36.023
36.03
36.041
36.055
36.072
36.091
36.111
36.133
36.155
36.178
36.2
36.222
36.243
36.261
36.277
36.29
36.298
36.302
36.301
36.294
36.281
36.262
36.238
36.21
36.177
36.141
36.101
36.06
36.016
35.972
35.926
35.88
35.832
35.783
35.733
35.682
35.63
35.575
35.519
35.46
35.399
35.335
35.269
35.2
35.128
35.054
34.978
34.902
34.825
34.747
34.671
34.595
34.521
34.449
34.381
34.316
34.254
34.197
34.145
34.098
34.057
34.021
33.99
33.964
33.943
33.925
33.91
33.898
33.886
33.875
33.863
33.849
33.833
33.814
33.79
33.763
33.73
33.693
33.65
33.603
33.552
33.497
33.441
33.383
33.324
33.265
33.207
33.151
33.097
33.047
32.999
32.955
32.915
32.878
32.846
32.818
32.793
32.773
32.755
32.739
32.726
32.714
32.703
32.693
32.684
32.673
32.662
32.649
32.634
32.616
32.596
32.573
32.548
32.52
32.49
32.457
32.423
32.386
32.347
32.308
32.267
32.225
32.183
32.142
32.101
32.06
32.021
31.981
31.943
31.906
31.87
31.836
31.804
31.774
31.747
31.725
31.708
31.699
31.7
31.713
31.741
31.785
31.847
31.93
32.034
32.161
32.31
32.481
32.674
32.887
33.119
33.365
33.623
33.889
34.159
34.428
34.695
34.954
35.203
35.44
35.662
35.866
36.053
36.22
36.367
36.495
36.604
36.694
36.767
36.823
36.863
36.889
36.903
36.905
36.898
36.884
36.862
36.836
36.806
36.773
36.739
36.705
36.672
36.641
36.613
36.588
36.567
36.55
36.535
36.524
36.514
36.507
36.502
36.498
36.493
36.489
36.483
36.475
36.464
36.451
36.434
36.414
36.391
36.364
36.335
36.303
36.269
36.233
36.197
36.16
36.123
36.088
36.055
36.025
35.999
35.977
35.96
35.947
35.94
35.937
35.938
35.944
35.952
35.962
35.973
35.982
35.99
35.996
35.998
35.996
35.99
35.979
35.963
35.942
35.917
35.887
35.854
35.818
35.78
35.741
35.7
35.658
35.616
35.574
35.531
35.488
35.444
35.398
35.352
35.304
35.255
35.205
35.154
35.102
35.05
34.997
34.944
34.89
34.838
34.786
34.736
34.687
34.64
34.594
34.55
34.506
34.462
34.418
34.373
34.328
34.281
34.233
34.185
34.136
34.088
34.042
33.996
33.953
33.911
33.87
33.831
33.794
33.758
33.725
33.693
33.663
33.634
33.606
33.577
33.549
33.519
33.489
33.458
33.425
33.392
33.358
33.323
33.288
33.254
33.221
33.19
33.16
33.132
33.105
33.079
33.054
33.029
33.003
32.977
32.95
32.923
32.895
32.867
32.838
32.808
32.777
32.745
32.713
32.681
32.648
32.616
32.583
32.55
32.518
32.485
32.452
32.419
32.387
32.356
32.324
32.294
32.263
32.233
32.203
32.174
32.146
32.12
32.094
32.07
32.047
32.024
32.002
31.979
31.956
31.932
31.906
31.878
31.848
31.815
31.78
31.742
31.702
31.66
31.618
31.574
31.531
31.489
31.448
31.41
31.373
31.338
31.305
31.274
31.245
31.217
31.192
31.169
31.149
31.134
31.124
31.123
31.132
31.153
31.189
31.241
31.31
31.397
31.502
31.627
31.769
31.929
32.103
32.292
32.491
32.698
32.911
33.126
33.342
33.554
33.761
33.96
34.147
34.322
34.483
34.627
34.756
34.867
34.961
35.038
35.098
35.142
35.172
35.187
35.19
35.183
35.166
35.143
35.115
35.083
35.048
35.012
34.975
34.939
34.904
34.871
34.84
34.812
34.786
34.762
34.741
34.724
34.71
34.698
34.69
34.684
34.679
34.677
34.675
34.674
34.672
34.671
34.668
34.663
34.656
34.647
34.634
34.619
34.602
34.582
34.559
34.535
34.51
34.484
34.458
34.434
34.411
34.39
34.372
34.358
34.347
34.339
34.335
34.334
34.337
34.343
34.352
34.362
34.372
34.383
34.392
34.399
34.404
34.407
34.406
34.403
34.395
34.385
34.371
34.354
34.334
34.311
34.286
34.26
34.232
34.203
34.173
34.143
34.111
34.079
34.046
34.012
33.977
33.941
33.903
33.864
33.825
33.785
33.744
33.704
33.663
33.622
33.582
33.543
33.505
33.467
33.431
33.396
33.362
33.329
33.297
33.266
33.235
33.205
33.175
33.147
33.119
33.091
33.063
33.034
33.005
32.975
32.946
32.917
32.888
32.861
32.835
32.81
32.787
32.765
32.745
32.727
32.709
32.692
32.676
32.659
32.643
32.626
32.609
