Trial 1:0back
37.861
38.526
39.175
39.795
40.374
40.903
41.373
41.781
42.121
42.393
42.598
42.739
42.819
42.844
42.819
42.751
42.648
42.518
42.367
42.201
42.024
41.842
41.655
41.466
41.277
41.089
40.904
40.725
40.551
40.382
40.218
40.059
39.902
39.747
39.593
39.439
39.284
39.127
38.967
38.806
38.643
38.481
38.32
38.162
38.007
37.856
37.708
37.565
37.427
37.295
37.17
37.051
36.938
36.831
36.73
36.635
36.547
36.467
36.395
36.33
36.272
36.221
36.175
36.136
36.105
36.085
36.075
36.072
36.073
36.073
36.071
36.064
36.05
36.029
36.001
35.966
35.924
35.875
35.82
35.759
35.693
35.623
35.549
35.474
35.398
35.321
35.247
35.174
35.104
35.036
34.97
34.906
34.843
34.781
34.717
34.652
34.586
34.518
34.45
34.38
34.309
34.238
34.165
34.092
34.018
33.942
33.867
33.792
33.717
33.642
33.567
33.495
33.423
33.354
33.286
33.219
33.155
33.092
33.03
32.972
32.916
32.865
32.816
32.769
32.724
32.679
32.635
32.59
32.541
32.487
32.43
32.371
32.313
32.257
32.204
32.154
32.108
32.065
32.024
31.985
31.951
31.923
31.901
31.887
31.882
31.887
31.903
31.931
31.973
32.03
32.107
32.205
32.327
32.478
32.666
32.9
33.189
33.539
33.955
34.437
34.983
35.585
36.235
36.92
37.626
38.339
39.045
39.729
40.377
40.979
41.526
42.011
42.428
42.775
43.051
43.256
43.394
43.467
43.481
43.444
43.361
43.242
43.095
42.925
42.741
42.547
42.35
42.153
41.958
41.767
41.583
41.403
41.226
41.05
40.877
40.705
40.535
40.368
40.202
40.036
39.87
39.704
39.538
39.37
39.202
39.034
38.867
38.7
38.534
38.368
38.203
38.042
37.883
37.728
37.577
37.432
37.293
37.162
37.038
36.924
36.82
36.725
36.64
36.565
36.498
36.44
36.388
36.342
36.3
36.261
36.223
36.187
36.152
36.117
36.082
36.045
36.007
35.967
35.924
35.88
35.835
35.79
35.745
35.699
35.652
35.604
35.555
35.506
35.455
35.403
35.349
35.292
35.231
35.166
35.096
35.024
34.948
34.869
34.786
34.701
34.613
34.524
34.434
34.343
34.252
34.162
34.075
33.99
33.907
33.828
33.752
33.68
33.612
33.545
33.479
33.414
33.348
33.282
33.214
33.146
33.078
33.011
32.944
32.878
32.813
32.748
32.684
32.62
32.557
32.496
32.436
32.378
32.322
32.268
32.216
32.166
32.116
32.066
32.016
31.966
31.919
31.872
31.827
31.784
31.744
31.706
31.67
31.638
31.609
31.587
31.573
31.569
31.578
31.602
31.644
31.707
31.794
31.906
32.05
32.232
32.462
32.749
33.101
33.521
34.011
34.567
35.184
35.853
36.562
37.296
38.04
38.778
39.494
40.174
40.806
41.378
41.884
42.317
42.677
42.962
43.177
43.324
43.411
43.445
43.434
43.385
43.304
43.196
43.066
42.919
42.758
42.585
42.404
42.216
42.024
41.83
41.633
41.436
41.241
41.047
40.857
40.67
40.486
40.306
40.13
39.958
39.789
39.622
39.456
39.291
39.125
38.958
38.788
38.617
38.445
38.273
38.102
37.933
37.766
37.603
37.445
37.292
37.147
37.008
36.877
36.754
36.639
36.534
36.439
36.356
36.283
36.217
36.159
36.106
36.057
36.011
35.966
35.921
35.876
35.83
35.785
35.741
35.698
35.655
35.613
35.571
35.528
35.483
35.438
35.393
35.347
35.301
35.253
35.202
35.147
35.088
35.025
34.957
34.886
34.811
34.731
34.648
34.562
34.475
34.388
34.299
34.211
34.122
34.035
33.949
33.864
33.782
33.701
33.623
33.548
33.475
33.404
33.336
33.268
33.203
33.138
33.074
33.01
32.947
32.884
32.819
32.746
32.661
32.564
32.458
32.35
32.242
32.139
32.043
31.958
31.883
31.82
31.77
31.731
31.701
31.677
31.657
31.641
31.626
31.609
31.591
31.569
31.545
31.518
31.489
31.458
31.424
31.389
31.351
31.313
31.274
31.238
31.208
31.188
31.18
31.188
31.214
31.261
31.332
31.428
31.554
31.715
31.918
32.172
32.485
32.861
33.304
33.811
34.378
34.994
35.648
36.327
37.017
37.702
38.369
39.003
39.596
40.137
40.619
41.036
41.387
41.67
41.888
42.043
42.141
42.186
42.186
42.146
42.075
41.984
41.88
41.766
41.644
41.514
41.373
41.223
41.064
40.896
40.72
40.539
40.354
40.167
39.982
39.799
39.619
39.443
39.271
39.104
38.94
38.778
38.616
38.452
38.287
38.119
37.949
37.778
37.609
37.442
37.28
37.123
36.971
36.825
36.685
36.55
36.422
36.299
36.184
36.076
35.976
35.883
35.798
35.721
35.651
35.587
35.527
35.472
35.421
35.373
35.327
35.283
35.239
35.195
35.153
35.111
35.071
35.032
34.993
34.954
34.915
34.875
34.833
34.789
34.742
34.691
34.636
34.578
34.518
34.457
34.395
34.333
34.271
34.208
34.145
34.082
34.019
33.957
33.895
33.834
33.772
33.71
33.647
33.585
33.523
33.46
33.398
33.334
33.271
33.207
33.142
33.077
33.011
32.946
32.88
32.814
32.747
32.679
32.61
32.539
32.467
32.394
32.322
32.251
32.181
32.113
32.046
31.981
31.917
31.855
31.795
31.736
31.679
31.622
31.567
31.513
31.461
31.411
31.363
31.315
31.268
31.221
31.175
31.129
31.084
31.04
30.996
30.956
30.92
30.89
30.865
30.848
30.837
30.836
30.844
30.863
30.896
30.945
31.011
31.097
31.206
31.339
31.499
31.69
31.916
32.182
32.493
32.853
33.262
33.717
34.213
34.743
35.295
35.859
36.42
36.966
37.485
37.966
38.401
38.782
39.106
39.371
39.576
39.722
39.814
39.855
39.854
39.816
39.748
39.656
39.547
39.425
39.295
39.159
39.019
38.877
38.735
38.594
38.454
38.317
38.183
38.051
37.924
37.8
37.678
37.559
37.442
37.327
37.213
37.097
36.98
36.861
36.74
36.617
36.493
36.37
36.248
36.128
36.011
35.897
35.787
35.68
35.577
35.478
35.382
35.291
35.205
35.127
35.055
34.991
34.934
34.885
34.843
34.806
34.773
34.742
34.713
34.685
34.656
34.628
34.601
34.575
34.55
34.526
34.502
34.477
34.451
34.425
34.398
34.368
34.338
34.306
34.273
34.238
34.203
34.166
34.129
34.088
34.046
34.0
33.952
33.901
33.848
33.793
33.735
33.676
33.615
33.552
33.489
33.426
33.364
33.305
33.248
33.193
33.139
33.085
33.029
32.97
32.907
32.843
32.777
32.71
32.643
32.575
32.506
32.439
32.372
32.306
32.242
32.178
32.115
32.053
31.993
31.935
31.88
31.828
31.779
31.731
31.685
31.643
31.603
31.566
31.531
31.497
31.466
31.436
31.408
31.38
31.352
31.324
31.295
31.265
31.235
31.205
31.174
31.144
31.114
31.083
31.055
31.031
31.013
31.002
31.0
31.009
31.033
31.071
31.128
31.203
31.3
31.419
31.562
31.729
31.925
32.155
32.423
32.735
33.093
33.498
33.948
34.436
34.954
35.49
36.032
36.568
37.086
37.574
38.023
38.425
38.773
39.064
39.296
39.469
39.587
39.652
39.671
39.648
39.589
39.499
39.385
39.251
39.102
38.943
38.778
38.612
38.448
38.289
38.137
37.993
37.858
37.73
37.607
37.489
37.373
37.259
37.144
37.028
36.91
36.79
36.667
36.542
36.414
36.287
36.16
36.036
35.914
35.795
35.678
35.563
35.45
35.341
35.236
35.137
35.045
34.96
34.884
34.815
34.752
34.696
34.647
34.604
34.566
34.532
34.501
34.474
34.449
34.428
34.409
34.393
34.379
34.366
34.353
34.338
34.321
34.301
34.279
34.255
34.23
34.204
34.177
34.149
34.12
34.089
34.058
34.024
33.989
33.952
33.912
33.87
33.826
33.782
33.737
33.69
33.643
33.595
33.545
33.493
33.439
33.385
33.33
33.274
33.218
33.161
33.103
33.045
32.986
32.926
32.865
32.803
32.741
32.68
32.619
32.559
32.5
32.441
32.381
32.322
32.264
32.206
32.148
32.091
32.034
31.979
31.926
31.876
31.828
31.782
31.738
31.698
31.66
31.625
31.592
31.561
31.531
31.499
31.467
31.433
31.398
31.361
31.321
31.28
31.238
31.196
31.155
31.116
31.079
31.045
31.016
30.991
30.972
30.96
30.956
30.96
30.975
31.003
31.045
31.103
31.18
31.277
31.394
31.532
31.693
31.877
32.085
32.318
32.578
32.869
33.191
33.547
33.935
34.351
34.79
35.242
35.697
36.145
36.573
36.974
37.337
37.657
37.929
38.149
38.317
38.435
38.503
38.526
38.508
38.455
38.373
38.267
38.144
38.01
37.87
37.728
37.587
37.448
37.313
37.182
37.057
36.937
36.823
36.714
36.612
36.515
36.423
36.332
36.243
36.155
36.065
35.972
35.876
35.777
35.675
35.571
35.466
35.361
35.259
35.161
35.066
34.976
34.891
34.81
34.736
34.666
34.6
34.54
34.485
34.436
34.392
34.355
34.323
34.297
34.277
34.261
34.249
34.238
34.23
34.224
34.218
34.215
34.212
34.211
34.21
34.207
34.203
34.199
34.203
34.219
34.243
34.273
34.305
34.333
34.353
34.363
34.358
34.338
34.302
34.25
34.183
34.105
34.018
33.926
33.832
33.739
33.648
33.562
33.48
33.404
33.332
33.266
33.205
33.15
33.101
33.058
33.019
32.986
32.956
32.929
32.902
32.874
32.843
32.809
32.773
32.733
32.691
32.648
32.604
32.559
32.512
32.463
32.413
32.361
32.309
32.258
32.207
32.156
32.106
32.057
32.007
31.96
31.914
31.871
31.83
31.792
31.755
31.72
31.687
31.655
31.625
31.597
31.568
31.541
31.515
31.489
31.464
31.441
31.42
31.402
31.39
31.385
31.391
31.411
31.444
31.495
31.564
31.653
31.763
31.896
32.05
32.224
32.417
32.624
32.844
33.074
33.312
33.557
33.806
34.059
34.314
34.572
34.832
35.095
35.357
35.618
35.873
36.12
36.355
36.572
36.77
36.944
37.092
37.211
37.299
37.358
37.387
37.39
37.367
37.32
37.254
37.171
37.075
36.97
36.86
36.747
36.635
36.525
36.418
36.315
36.219
36.131
36.052
35.978
35.907
35.837
35.767
35.695
35.619
35.54
35.457
35.37
35.279
35.185
35.089
34.993
34.899
34.808
34.721
34.639
34.563
34.493
34.432
34.378
34.332
34.294
34.264
34.241
34.223
34.211
34.202
34.197
34.194
34.195
34.198
34.203
34.211
34.218
34.224
34.229
34.232
34.232
34.23
34.227
34.221
34.213
34.204
34.193
34.178
34.161
34.141
34.118
34.09
34.058
34.024
33.987
33.951
33.914
33.877
33.84
33.804
33.768
33.73
33.69
33.648
33.605
33.562
33.519
33.477
33.435
33.392
33.349
33.304
33.257
33.209
33.161
33.112
33.062
33.012
32.962
32.914
32.868
32.822
32.777
32.731
32.685
32.638
32.589
32.54
32.492
32.445
32.4
32.357
32.316
32.28
32.246
32.215
32.186
32.159
32.134
32.11
32.088
32.068
32.048
32.03
32.011
31.992
31.972
31.952
31.933
31.915
31.898
31.884
31.876
31.875
31.884
31.906
31.943
31.997
32.072
32.168
32.285
32.425
32.585
32.765
32.961
33.172
33.397
33.632
33.879
34.138
34.408
34.692
34.991
35.306
35.635
35.974
36.319
36.661
36.994
37.309
37.6
37.86
38.084
38.268
38.409
38.505
38.557
38.568
38.541
38.482
38.396
38.289
38.166
38.032
37.892
37.748
37.604
37.464
37.329
37.199
37.077
36.961
36.852
36.751
36.655
36.564
36.476
36.39
36.306
36.222
36.139
36.056
35.973
35.891
35.808
35.725
35.642
35.56
35.479
35.401
35.324
35.25
35.18
35.115
35.056
35.004
34.959
34.922
34.893
34.871
34.857
34.849
34.845
34.845
34.846
34.848
34.849
34.85
34.851
34.849
34.847
34.843
34.838
34.831
34.82
34.807
34.79
34.771
34.749
34.725
34.699
34.672
34.643
34.615
34.586
34.555
34.524
34.492
34.458
34.423
34.386
34.347
34.308
34.267
34.224
34.182
34.14
34.098
34.055
34.011
33.965
33.917
33.867
33.817
33.766
33.716
33.668
33.621
33.576
33.53
33.484
33.438
33.391
33.344
33.296
33.249
33.202
33.156
33.111
33.068
33.024
32.982
32.938
32.89
32.839
32.785
32.73
32.676
32.623
32.572
32.525
32.481
32.441
32.403
32.367
32.335
32.307
32.281
32.258
32.239
32.222
32.209
32.199
32.192
32.189
32.191
32.201
32.221
32.253
32.3
32.365
32.447
32.549
32.67
32.811
32.972
33.153
33.355
33.578
33.824
34.098
34.402
34.74
35.11
35.512
35.938
36.381
36.831
37.275
37.704
38.106
38.472
38.794
39.065
39.282
39.446
39.558
39.62
39.636
39.611
39.549
39.457
39.34
39.202
39.051
38.891
38.728
38.567
38.409
38.257
38.113
37.978
37.852
37.734
37.623
37.518
37.418
37.321
37.225
37.132
37.041
36.952
36.863
36.774
36.685
36.597
36.509
36.423
36.336
36.25
36.165
36.08
35.996
35.913
35.832
35.754
35.678
35.605
35.535
35.468
35.406
35.35
35.3
35.256
35.218
35.187
35.162
35.144
35.132
35.126
35.126
35.13
35.135
35.141
35.145
35.147
35.146
35.14
35.131
35.117
35.099
35.077
35.053
35.026
34.998
34.968
34.936
34.904
34.87
34.836
34.8
34.761
34.721
34.678
34.635
34.591
34.547
34.502
34.458
34.413
34.368
34.32
34.271
34.22
34.168
34.115
34.061
34.006
33.949
33.894
33.839
33.785
33.731
33.676
33.622
33.567
33.513
33.461
33.41
33.362
33.316
33.271
33.227
33.185
33.143
33.102
33.062
33.023
32.984
32.946
32.909
32.872
32.835
32.799
32.763
32.725
32.687
32.647
32.608
32.568
32.531
32.495
32.462
32.43
32.4
32.371
32.345
32.322
32.306
32.299
32.304
32.323
32.359
32.415
32.49
32.586
32.701
32.836
32.992
33.167
33.364
33.582
33.827
34.1
34.407
34.749
35.127
35.537
35.975
36.43
36.892
37.348
37.787
38.199
38.575
38.907
39.19
39.421
39.599
39.724
39.798
39.824
39.808
39.755
39.671
39.561
39.43
39.284
39.126
38.962
38.795
38.63
38.47
38.318
38.174
38.041
37.917
37.803
37.697
37.599
37.506
37.416
37.328
37.239
37.149
37.058
36.965
36.87
36.774
36.677
36.58
36.484
36.391
36.3
36.213
36.13
36.052
35.98
35.912
35.849
35.79
35.734
35.681
35.63
35.582
35.535
35.492
35.453
35.419
35.39
35.365
35.343
35.324
35.31
35.299
35.291
35.286
35.282
35.278
35.273
35.265
35.255
35.242
35.225
35.205
35.18
35.151
35.119
35.084
35.046
35.006
34.966
34.924
34.882
34.841
34.799
34.758
34.717
34.677
34.638
34.597
34.556
34.515
34.474
34.431
34.387
34.341
34.293
34.244
34.194
34.143
34.092
34.04
33.987
33.932
33.877
33.821
33.768
33.716
33.663
33.609
33.553
33.497
33.44
33.384
33.329
33.277
33.226
33.177
33.13
33.086
33.045
33.007
32.973
32.939
32.906
32.874
32.841
32.809
32.776
32.744
32.712
32.68
32.649
32.617
32.587
32.556
32.527
32.499
32.472
32.448
32.429
32.419
32.42
32.435
32.467
32.519
32.593
32.687
32.802
32.938
33.095
33.272
33.471
33.692
33.938
34.214
34.523
34.868
35.247
35.659
36.097
36.553
37.016
37.474
37.913
38.324
38.696
39.021
39.292
39.509
39.669
39.773
39.823
39.825
39.783
39.705
39.597
39.466
39.318
39.159
38.996
38.832
38.67
38.514
38.365
38.225
38.095
37.977
37.869
37.771
37.682
37.599
37.519
37.44
37.359
37.275
37.186
37.091
36.991
36.888
36.783
36.678
36.574
36.472
36.374
36.28
36.189
36.103
36.02
35.943
35.871
35.804
35.741
35.683
35.63
35.583
35.544
35.511
35.484
35.462
35.445
35.431
35.418
35.407
35.399
35.392
35.386
35.38
35.374
35.366
35.357
35.347
35.335
35.321
35.307
35.29
35.272
35.25
35.227
35.201
35.173
35.144
35.112
35.078
35.042
35.003
34.962
34.917
34.87
34.82
34.768
34.715
34.661
34.606
34.552
34.498
34.443
34.389
34.335
34.284
34.234
34.186
34.139
34.093
34.048
34.004
33.961
33.917
33.874
33.83
33.786
33.74
33.694
33.648
33.603
33.559
33.513
33.466
33.417
33.368
33.318
33.267
33.215
33.162
33.109
33.056
33.005
32.955
32.907
32.862
32.82
32.781
32.744
32.711
32.68
32.65
32.621
32.591
32.562
32.532
32.505
32.48
32.46
32.447
32.444
32.452
32.473
32.512
32.569
32.647
32.746
32.868
33.012
33.179
33.37
33.584
33.823
34.093
34.397
34.74
35.122
35.542
35.995
36.472
36.964
37.457
37.94
38.399
38.824
39.205
39.535
39.807
40.019
40.169
40.26
40.295
40.277
40.215
40.115
39.986
39.835
39.669
39.495
39.319
39.145
38.977
38.814
38.659
38.513
38.375
38.246
38.124
38.008
37.898
37.793
37.693
37.596
37.501
37.407
37.313
37.219
37.123
37.025
36.925
36.823
36.719
36.613
36.506
36.398
36.294
36.194
36.1
36.012
35.932
35.86
35.793
35.733
35.678
35.628
35.584
35.545
35.51
35.48
35.456
35.436
35.422
35.412
35.407
35.405
35.405
35.406
35.405
35.403
35.4
35.395
35.388
35.379
35.369
35.358
35.344
35.328
35.308
35.284
35.257
35.227
35.194
35.159
35.122
35.083
35.043
35.001
34.956
34.91
34.863
34.815
34.766
34.716
34.666
34.616
34.565
34.515
34.467
34.42
34.374
34.329
34.284
34.239
34.195
34.152
34.109
34.066
34.021
33.974
33.926
33.877
33.827
33.777
33.727
33.678
33.628
33.578
33.527
33.477
33.428
33.379
33.33
33.282
33.236
33.192
33.151
33.11
33.07
33.031
32.993
32.956
32.919
32.883
32.847
32.811
32.775
32.741
32.708
32.68
32.656
32.636
32.622
32.617
32.623
32.642
32.677
32.73
32.802
32.894
33.007
33.142
33.3
33.482
33.69
33.926
34.191
34.489
34.823
35.194
35.602
36.039
36.497
36.968
37.439
37.899
38.338
38.744
39.109
39.427
39.693
39.904
40.06
40.162
40.212
40.214
40.174
40.095
39.983
39.845
39.686
39.512
39.328
39.14
38.954
38.774
38.602
38.44
38.289
38.15
38.022
37.904
37.795
37.694
37.599
37.508
37.418
37.327
37.233
37.137
37.038
36.936
36.834
36.731
36.63
36.531
36.433
36.335
36.238
36.143
36.051
35.963
35.88
35.804
35.737
35.68
35.633
35.595
35.567
35.547
35.532
35.522
35.513
35.506
35.497
35.48
35.449
35.404
35.352
35.298
35.246
35.2
35.163
35.137
35.121
35.115
35.119
35.129
35.145
35.165
35.187
35.207
35.224
35.236
35.244
35.245
35.238
35.223
35.199
35.168
35.131
35.087
35.039
34.986
34.931
34.874
34.815
34.756
34.696
34.635
34.572
34.508
34.443
34.377
34.311
34.247
34.185
34.125
34.068
34.013
33.96
33.907
33.856
33.805
33.756
33.708
33.662
33.617
33.574
33.533
33.493
33.453
33.413
33.374
33.334
33.294
33.254
33.214
33.173
33.132
33.092
33.051
33.012
32.972
32.934
32.896
32.859
32.824
32.791
32.762
32.738
32.721
32.713
32.714
32.728
32.756
32.802
32.867
32.953
33.058
33.182
33.324
33.482
33.656
33.844
34.047
34.266
34.501
34.756
35.033
35.333
35.658
36.007
36.373
36.751
37.133
37.508
37.869
38.205
38.509
38.772
38.99
39.161
39.284
39.358
39.388
39.377
39.33
39.253
39.15
39.027
38.889
38.742
38.59
38.437
38.287
38.142
38.003
37.871
37.747
37.63
37.52
37.416
37.318
37.223
37.132
37.041
36.951
36.86
36.769
36.675
36.579
36.482
36.385
36.289
36.195
36.104
36.018
35.938
35.863
35.793
35.731
35.677
35.631
35.59
35.555
35.525
35.5
35.478
35.46
35.447
35.437
35.43
35.425
35.423
35.42
35.418
35.415
35.412
35.408
35.401
35.393
35.384
35.375
35.365
35.354
35.344
35.333
35.319
35.303
35.281
35.256
35.226
35.192
35.155
35.116
35.077
35.038
34.999
34.96
34.918
34.874
34.828
34.779
34.727
34.672
34.616
34.559
34.503
34.449
34.395
34.344
34.293
34.241
34.189
34.135
34.08
34.024
33.969
33.915
33.863
33.815
33.77
33.729
33.69
33.652
33.614
33.577
33.54
33.504
33.467
33.431
33.396
33.359
33.322
33.284
33.245
33.205
33.163
33.12
33.075
33.032
32.991
32.952
32.918
32.888
32.862
32.84
32.824
32.814
32.813
32.823
32.846
32.884
32.938
33.011
33.104
33.217
33.35
33.503
33.677
33.875
34.1
34.357
34.652
34.992
35.376
35.803
36.266
36.756
37.263
37.775
38.278
38.76
39.21
39.618
39.975
40.275
40.515
40.693
40.811
40.871
40.877
40.833
40.745
40.621
40.469
40.296
40.112
39.921
39.729
39.541
39.358
39.184
39.018
38.863
38.718
38.583
38.457
38.337
38.223
38.115
38.01
37.908
37.807
37.705
37.604
37.501
37.396
37.289
37.18
37.069
36.957
36.844
36.732
36.622
36.516
36.416
36.323
36.237
36.158
36.086
36.02
35.961
35.907
35.859
35.818
35.782
35.749
35.721
35.699
35.683
35.671
35.664
35.658
35.652
35.646
35.638
35.628
35.616
35.601
35.585
35.566
35.545
35.521
35.496
35.47
35.441
35.41
35.376
35.339
35.298
35.253
35.205
35.154
35.101
35.048
34.995
34.94
34.886
34.831
34.776
34.719
34.661
34.603
34.544
