Trial 1:0back
31.973
31.923
31.877
31.835
31.797
31.764
31.736
31.713
31.693
31.676
31.663
31.651
31.639
31.627
31.614
31.599
31.582
31.562
31.539
31.514
31.487
31.459
31.432
31.405
31.381
31.358
31.338
31.32
31.304
31.288
31.274
31.258
31.243
31.226
31.208
31.188
31.169
31.15
31.131
31.113
31.096
31.08
31.064
31.05
31.036
31.023
31.011
30.999
30.987
30.973
30.958
30.94
30.92
30.896
30.869
30.841
30.81
30.779
30.748
30.72
30.696
30.68
30.675
30.685
30.716
30.771
30.857
30.976
31.134
31.334
31.577
31.867
32.202
32.58
33.0
33.458
33.948
34.464
35.0
35.549
36.102
36.654
37.196
37.722
38.226
38.705
39.156
39.575
39.962
40.315
40.634
40.919
41.171
41.388
41.572
41.722
41.841
41.929
41.989
42.023
42.034
42.025
41.996
41.951
41.891
41.818
41.734
41.641
41.542
41.436
41.326
41.214
41.1
40.984
40.868
40.751
40.633
40.515
40.397
40.278
40.158
40.039
39.921
39.805
39.689
39.575
39.462
39.349
39.236
39.121
39.003
38.882
38.758
38.629
38.497
38.36
38.22
38.078
37.936
37.795
37.658
37.527
37.403
37.288
37.183
37.088
37.005
36.931
36.866
36.81
36.76
36.716
36.676
36.641
36.61
36.582
36.557
36.534
36.512
36.491
36.471
36.451
36.431
36.411
36.39
36.369
36.347
36.324
36.302
36.279
36.255
36.231
36.206
36.179
36.15
36.117
36.08
36.039
35.992
35.939
35.881
35.818
35.75
35.679
35.604
35.526
35.448
35.369
35.291
35.213
35.137
35.062
34.989
34.918
34.849
34.781
34.715
34.65
34.586
34.521
34.455
34.389
34.322
34.255
34.187
34.119
34.05
33.982
33.914
33.847
33.78
33.714
33.649
33.586
33.524
33.465
33.407
33.352
33.297
33.242
33.188
33.134
33.081
33.027
32.974
32.922
32.87
32.82
32.771
32.725
32.681
32.639
32.601
32.565
32.531
32.5
32.471
32.442
32.415
32.388
32.362
32.337
32.312
32.287
32.264
32.241
32.219
32.197
32.175
32.152
32.128
32.103
32.077
32.05
32.021
31.991
31.961
31.93
31.9
31.87
31.84
31.81
31.781
31.752
31.724
31.697
31.671
31.647
31.625
31.606
31.594
31.589
31.594
31.611
31.643
31.691
31.76
31.853
31.972
32.121
32.304
32.52
32.772
33.059
33.382
33.739
34.13
34.551
34.999
35.47
35.959
36.461
36.968
37.476
37.977
38.464
38.933
39.379
39.796
40.181
40.532
40.847
41.124
41.365
41.569
41.738
41.872
41.973
42.046
42.093
42.117
42.12
42.105
42.074
42.029
41.97
41.9
41.819
41.728
41.628
41.521
41.408
41.288
41.165
41.037
40.907
40.776
40.645
40.515
40.387
40.261
40.137
40.015
39.894
39.774
39.653
39.531
39.407
39.279
39.147
39.01
38.867
38.717
38.563
38.406
38.247
38.088
37.932
37.78
37.634
37.495
37.365
37.242
37.128
37.021
36.921
36.828
36.741
36.661
36.588
36.521
36.459
36.404
36.354
36.309
36.269
36.233
36.202
36.176
36.154
36.136
36.12
36.106
36.092
36.078
36.063
36.046
36.026
36.004
35.979
35.95
35.917
35.881
35.841
35.798
35.753
35.706
35.659
35.612
35.564
35.516
35.466
35.414
35.357
35.296
35.23
35.158
35.08
34.997
34.911
34.822
34.732
34.641
34.551
34.463
34.379
34.297
34.22
34.148
34.081
34.02
33.963
33.91
33.857
33.804
33.748
33.689
33.625
33.558
33.487
33.414
33.339
33.263
33.187
33.111
33.037
32.966
32.898
32.835
32.777
32.725
32.678
32.637
32.599
32.565
32.533
32.503
32.473
32.443
32.411
32.374
32.335
32.292
32.246
32.196
32.145
32.093
32.043
31.994
31.949
31.908
31.874
31.853
31.847
31.852
31.865
31.881
31.897
31.911
31.92
31.922
31.916
31.901
31.878
31.848
31.81
31.765
31.715
31.662
31.605
31.548
31.489
31.432
31.379
31.329
31.284
31.244
31.211
31.185
31.165
31.153
31.149
31.156
31.175
31.206
31.251
31.311
31.391
31.492
31.62
31.78
31.978
32.218
32.503
32.834
33.211
33.631
34.091
34.586
35.109
35.654
36.213
36.78
37.346
37.904
38.449
38.974
39.473
39.942
40.378
40.777
41.137
41.457
41.738
41.98
42.185
42.355
42.493
42.6
42.679
42.731
42.757
42.758
42.737
42.696
42.637
42.564
42.479
42.384
42.282
42.175
42.064
41.95
41.834
41.718
41.602
41.486
41.371
41.259
41.148
41.041
40.937
40.835
40.735
40.634
40.533
40.431
40.326
40.218
40.106
39.991
39.871
39.747
39.618
39.484
39.344
39.198
39.049
38.896
38.74
38.583
38.425
38.268
38.113
37.962
37.816
37.676
37.544
37.423
37.311
37.21
37.12
37.04
36.971
36.911
36.858
36.813
36.772
36.735
36.7
36.667
36.633
36.598
36.56
36.521
36.481
36.44
36.401
36.363
36.326
36.292
36.258
36.226
36.194
36.162
36.127
36.089
36.047
35.999
35.944
35.883
35.815
35.74
35.66
35.574
35.486
35.396
35.305
35.216
35.128
35.043
34.96
34.879
34.8
34.722
34.644
34.564
34.484
34.401
34.317
34.231
34.142
34.052
33.962
33.871
33.781
33.694
33.611
33.532
33.457
33.389
33.325
33.266
33.21
33.156
33.103
33.05
32.997
32.943
32.889
32.833
32.776
32.718
32.659
32.599
32.538
32.477
32.417
32.359
32.304
32.251
32.203
32.158
32.117
32.08
32.046
32.014
31.983
31.953
31.923
31.893
31.862
31.83
31.797
31.763
31.728
31.691
31.653
31.615
31.575
31.536
31.499
31.464
31.432
31.405
31.382
31.364
31.35
31.34
31.334
31.331
31.329
31.328
31.326
31.322
31.315
31.304
31.29
31.273
31.251
31.227
31.198
31.167
31.132
31.096
31.057
31.016
30.975
30.934
30.894
30.855
30.819
30.785
30.755
30.731
30.714
30.707
30.711
30.73
30.767
30.827
30.912
31.028
31.178
31.365
31.592
31.86
32.172
32.526
32.922
33.355
33.822
34.319
34.839
35.376
35.923
36.475
37.025
37.567
38.095
38.606
39.094
39.558
39.993
40.399
40.771
41.11
41.414
41.682
41.916
42.116
42.284
42.42
42.525
42.602
42.65
42.67
42.664
42.635
42.584
42.515
42.432
42.338
42.236
42.128
42.018
41.907
41.796
41.688
41.582
41.478
41.377
41.28
41.185
41.092
41.001
40.911
40.822
40.731
40.639
40.543
40.443
40.338
40.229
40.114
39.995
39.872
39.744
39.613
39.477
39.336
39.192
39.043
38.89
38.734
38.576
38.417
38.258
38.102
37.951
37.807
37.673
37.549
37.436
37.334
37.243
37.162
37.09
37.026
36.969
36.916
36.869
36.824
36.782
36.742
36.704
36.666
36.629
36.592
36.554
36.516
36.477
36.437
36.395
36.351
36.305
36.256
36.204
36.149
36.091
36.031
35.968
35.904
35.838
35.771
35.703
35.634
35.564
35.493
35.422
35.35
35.278
35.206
35.135
35.063
34.991
34.92
34.849
34.779
34.709
34.64
34.569
34.497
34.424
34.349
34.273
34.195
34.114
34.031
33.947
33.86
33.773
33.685
33.6
33.516
33.436
33.36
33.287
33.219
33.155
33.095
33.038
32.984
32.932
32.881
32.831
32.781
32.732
32.681
32.63
32.578
32.526
32.475
32.425
32.377
32.33
32.286
32.243
32.203
32.163
32.125
32.087
32.048
32.01
31.971
31.931
31.89
31.849
31.807
31.765
31.724
31.683
31.643
31.606
31.571
31.539
31.512
31.488
31.467
31.449
31.432
31.417
31.402
31.388
31.372
31.357
31.341
31.324
31.305
31.284
31.261
31.236
31.208
31.179
31.149
31.119
31.09
31.063
31.037
31.016
30.998
30.985
30.975
30.967
30.961
30.955
30.949
30.942
30.932
30.921
30.906
30.888
30.867
30.844
30.82
30.793
30.766
30.738
30.709
30.679
30.65
30.62
30.591
30.563
30.537
30.511
30.487
30.464
30.443
30.422
30.403
30.387
30.375
30.37
30.374
30.392
30.425
30.478
30.554
30.659
30.796
30.97
31.182
31.437
31.735
32.076
32.459
32.882
33.342
33.836
34.358
34.903
35.464
36.034
36.607
37.176
37.736
38.279
38.801
39.297
39.763
40.196
40.595
40.957
41.284
41.574
41.829
42.05
42.236
42.388
42.509
42.599
42.659
42.693
42.702
42.688
42.654
42.601
42.534
42.453
42.363
42.265
42.161
42.054
41.944
41.834
41.724
41.617
41.511
41.407
41.306
41.206
41.106
41.005
40.902
40.797
40.689
40.578
40.465
40.35
40.234
40.116
39.997
39.877
39.754
39.628
39.498
39.365
39.227
39.085
38.939
38.791
38.642
38.494
38.349
38.208
38.074
37.947
37.829
37.72
37.62
37.529
37.446
37.37
37.301
37.237
37.177
37.121
37.069
37.019
36.972
36.927
36.883
36.841
36.8
36.761
36.723
36.686
36.649
36.611
36.572
36.532
36.491
36.449
36.404
36.358
36.309
36.259
36.207
36.154
36.099
36.043
35.985
35.924
35.861
35.795
35.726
35.654
35.58
35.504
35.426
35.346
35.266
35.185
35.103
35.022
34.94
34.859
34.778
34.697
34.618
34.538
34.46
34.382
34.306
34.232
34.158
34.085
34.013
33.944
33.877
33.813
33.752
33.694
33.637
33.58
33.522
33.462
33.401
33.337
33.27
33.201
33.13
33.057
32.984
32.911
32.84
32.77
32.704
32.64
32.58
32.522
32.467
32.415
32.365
32.318
32.272
32.227
32.184
32.143
32.103
32.063
32.025
31.988
31.952
31.916
31.881
31.848
31.815
31.785
31.756
31.729
31.704
31.681
31.66
31.639
31.619
31.599
31.579
31.558
31.537
31.515
31.492
31.467
31.44
31.41
31.379
31.346
31.312
31.279
31.246
31.215
31.185
31.158
31.134
31.114
31.098
31.087
31.08
31.077
31.078
31.08
31.083
31.085
31.085
31.082
31.074
31.06
31.04
31.015
30.985
30.951
30.914
30.877
30.839
30.802
30.766
30.733
30.702
30.675
30.652
30.635
30.626
30.625
30.636
30.663
30.709
30.779
30.878
31.011
31.182
31.393
31.647
31.943
32.281
32.657
33.069
33.513
33.983
34.475
34.984
35.502
36.024
36.542
37.049
37.54
38.011
38.456
38.871
39.254
39.602
39.914
40.192
40.434
40.641
40.814
40.956
41.068
41.152
41.213
41.25
41.268
41.267
41.25
41.217
41.168
41.106
41.03
40.943
40.846
40.741
40.631
40.518
40.403
40.287
40.171
40.056
39.943
39.831
39.721
39.613
39.505
39.399
39.29
39.18
39.068
38.954
38.838
38.719
38.595
38.463
38.323
38.176
38.025
37.873
37.722
37.572
37.425
37.284
37.147
37.016
36.888
36.76
36.632
36.507
36.391
36.285
36.191
36.111
36.044
35.989
35.945
35.91
35.885
35.866
35.853
35.845
35.841
35.839
35.839
35.839
35.839
35.837
35.834
35.827
35.817
35.801
35.78
35.753
35.721
35.684
35.643
35.597
35.548
35.496
35.443
35.389
35.336
35.283
35.23
35.177
35.124
35.069
35.014
34.958
34.899
34.836
34.769
34.696
34.617
34.534
34.447
34.357
34.266
34.175
34.085
33.998
33.914
33.836
33.763
33.695
33.633
33.576
33.522
33.472
33.423
33.374
33.324
33.272
33.215
33.153
33.087
33.017
32.944
32.868
32.793
32.718
32.647
32.58
32.518
32.462
32.411
32.364
32.323
32.286
32.253
32.223
32.195
32.167
32.138
32.107
32.073
32.036
31.995
31.952
31.906
31.858
31.808
31.759
31.71
31.664
31.622
31.584
31.549
31.519
31.493
31.471
31.451
31.433
31.417
31.402
31.386
31.369
31.351
31.332
31.312
31.29
31.268
31.244
31.22
31.197
31.175
31.154
31.133
31.114
31.096
31.079
31.061
31.043
31.026
31.008
30.992
30.978
30.969
30.968
30.978
31.003
31.047
31.116
31.214
31.344
31.511
31.718
31.965
32.252
32.58
32.944
33.342
33.77
34.222
34.693
35.178
35.67
36.162
36.65
37.127
37.59
38.034
38.456
38.852
39.22
39.559
39.868
40.147
40.395
40.613
40.8
40.958
41.087
41.188
41.262
41.309
41.332
41.333
41.312
41.273
41.218
41.149
41.069
40.98
40.886
40.788
40.688
40.587
40.486
40.385
40.283
40.18
40.076
39.972
39.866
39.76
39.654
39.547
39.44
39.331
39.221
39.108
38.994
38.877
38.756
38.631
38.503
38.371
38.236
38.098
37.959
37.819
37.68
37.541
37.403
37.266
37.132
37.002
36.877
36.759
36.648
36.546
36.452
36.368
36.293
36.229
36.174
36.128
36.09
36.059
36.033
36.01
35.989
35.969
35.947
35.924
35.898
35.871
35.842
35.813
35.784
35.755
35.727
35.701
35.675
35.651
35.628
35.604
35.581
35.555
35.528
35.498
35.465
35.427
35.383
35.333
35.277
35.215
35.148
35.077
35.004
34.929
34.855
34.782
34.71
34.642
34.577
34.514
34.452
34.391
34.329
34.266
34.2
34.132
34.061
33.987
33.91
33.831
33.752
33.672
33.593
33.517
33.443
33.372
33.304
33.24
33.18
33.122
33.067
33.013
32.961
32.908
32.854
32.797
32.739
32.678
32.615
32.55
32.483
32.416
32.349
32.284
32.222
32.165
32.112
32.066
32.026
31.992
31.964
31.941
31.922
31.905
31.889
31.873
31.855
31.834
31.812
31.786
31.755
31.721
31.683
31.643
31.601
31.559
31.52
31.484
31.453
31.426
31.405
31.39
31.38
31.375
31.374
31.376
31.379
31.381
31.382
31.38
31.374
31.362
31.346
31.324
31.296
31.264
31.228
31.189
31.149
31.109
31.071
31.037
31.009
30.99
30.981
30.987
31.009
31.051
31.117
31.21
31.334
31.49
31.681
31.91
32.176
32.481
32.823
33.202
33.616
34.061
34.531
35.022
35.527
36.043
36.562
37.08
37.59
38.087
38.565
39.02
39.448
39.845
40.208
40.535
40.827
41.082
41.302
41.487
41.64
41.763
41.859
41.93
41.979
42.007
42.016
42.007
41.983
41.943
41.89
41.825
41.749
41.663
41.57
41.471
41.367
41.261
41.155
41.048
40.942
40.838
40.737
40.641
40.547
40.457
40.369
40.283
40.196
40.109
40.017
39.922
39.823
39.718
39.609
39.494
39.373
39.248
39.118
38.983
38.846
38.705
38.563
38.418
38.273
38.129
37.987
37.847
37.712
37.582
37.46
37.344
37.237
37.138
37.047
36.964
36.89
36.823
36.764
36.711
36.664
36.623
36.587
36.554
36.525
36.498
36.472
36.446
36.419
36.39
36.36
36.327
36.291
36.251
36.208
36.161
36.111
36.058
36.003
35.947
35.89
35.833
35.776
35.72
35.662
35.603
35.543
35.479
35.412
35.339
35.262
35.179
35.092
35.001
34.907
34.812
34.718
34.625
34.536
34.45
34.368
34.29
34.218
34.149
34.085
34.024
33.964
33.904
33.842
33.779
33.714
33.645
33.572
33.496
33.417
33.336
33.255
33.175
33.097
33.021
32.95
32.883
32.822
32.768
32.719
32.675
32.635
32.598
32.563
32.53
32.498
32.466
32.433
32.395
32.355
32.31
32.261
32.21
32.156
32.101
32.046
31.993
31.943
31.896
31.854
31.815
31.78
31.75
31.723
31.699
31.678
31.658
31.639
31.619
31.598
31.574
31.548
31.519
31.487
31.454
31.419
31.384
31.347
31.31
31.274
31.238
31.204
31.172
31.142
31.115
31.089
31.067
31.047
31.03
31.015
31.003
30.992
30.983
30.975
30.968
30.962
30.956
30.95
30.943
30.934
30.922
30.908
30.892
30.872
30.851
30.826
30.8
30.772
30.742
30.712
30.68
30.648
30.614
30.578
30.541
30.505
30.469
30.436
30.408
30.388
30.378
30.384
30.408
30.456
30.531
30.637
30.779
30.96
31.18
31.441
31.743
32.084
32.461
32.871
33.31
33.773
34.255
34.751
35.256
35.765
36.274
36.777
37.271
37.752
38.215
38.656
39.074
39.463
39.822
40.149
40.442
40.7
40.924
41.114
41.271
41.398
41.494
41.563
41.606
41.626
41.625
41.606
41.571
41.522
41.463
41.393
41.316
41.232
41.143
41.051
40.954
40.854
40.752
40.649
40.545
40.442
40.341
40.243
40.149
40.058
39.972
39.889
39.808
39.727
39.645
39.559
39.47
39.375
39.274
39.166
39.05
38.926
38.794
38.656
38.513
38.367
38.221
38.075
37.931
37.792
37.657
37.528
37.406
37.292
37.185
37.086
36.995
36.911
36.834
36.764
36.698
36.636
36.577
36.522
36.469
36.419
36.371
36.326
36.285
36.246
36.209
36.174
36.139
36.106
36.073
36.04
36.006
35.97
35.932
35.891
35.847
35.798
35.745
35.686
35.624
35.558
35.491
35.421
35.351
35.282
35.213
35.147
35.083
35.02
34.957
34.893
34.827
34.757
34.684
34.606
34.524
34.437
34.349
34.264
34.18
34.093
34.004
33.912
33.819
33.727
33.637
33.553
33.474
33.401
33.333
33.27
33.211
33.155
33.101
33.047
32.992
32.936
32.877
32.817
32.756
32.695
32.634
32.575
32.518
32.464
32.414
32.366
32.322
32.28
32.24
32.201
32.161
32.121
32.078
32.033
31.986
31.936
31.882
31.827
31.769
31.71
31.652
31.594
31.538
31.485
31.436
31.39
31.348
31.311
31.278
31.248
31.221
31.197
31.176
31.156
31.137
31.117
31.096
31.074
31.05
31.026
31.001
30.975
30.949
30.923
30.897
30.872
30.846
30.822
30.797
30.774
30.751
30.729
30.708
30.686
30.664
30.641
30.618
30.595
30.572
30.55
30.527
30.505
30.483
30.462
30.442
30.422
30.404
30.387
30.37
30.353
30.336
30.319
30.302
30.284
30.265
30.246
30.227
30.208
30.187
30.166
30.142
30.115
30.086
30.053
30.02
29.986
29.957
29.934
29.921
29.924
29.945
29.99
30.063
30.168
30.309
30.488
30.706
30.965
31.262
31.597
31.967
32.368
32.797
33.247
33.714
34.193
34.677
35.159
35.636
36.102
36.554
36.988
37.402
37.794
38.163
38.507
38.824
39.114
39.376
39.609
39.813
39.988
40.134
40.251
40.342
40.408
40.453
40.478
40.486
40.48
40.461
40.432
40.393
40.344
40.287
40.224
40.155
40.082
40.006
39.928
39.849
39.769
39.689
39.609
39.529
39.448
39.367
39.287
39.207
39.127
39.046
38.966
38.884
38.802
38.717
38.63
38.538
38.442
38.339
38.229
38.111
37.986
37.855
37.718
37.579
37.438
37.299
37.163
37.033
36.91
36.795
36.689
36.592
36.505
36.426
36.355
36.29
36.23
36.175
36.123
36.074
36.027
35.982
35.94
35.9
35.863
35.829
35.799
35.771
35.746
35.723
35.703
35.683
35.662
35.641
35.616
35.588
35.557
35.521
35.481
35.436
35.387
35.334
35.277
35.218
35.156
35.094
35.032
34.97
34.909
34.849
34.79
34.731
34.673
34.614
34.554
34.493
34.43
34.365
34.3
34.233
34.167
34.101
34.035
33.969
33.905
33.841
33.778
33.715
33.652
33.587
33.52
33.452
33.382
33.31
33.236
33.161
33.086
33.011
32.936
32.863
32.793
32.727
32.665
32.609
32.558
32.513
32.472
32.436
32.403
32.372
32.343
32.315
32.286
32.255
32.222
32.185
32.145
32.101
32.053
32.002
31.948
31.892
31.836
31.781
31.729
31.679
31.633
31.592
31.555
31.524
31.498
31.477
31.46
31.445
31.434
31.424
31.415
31.407
31.4
31.392
31.383
31.374
31.362
31.347
31.329
31.308
31.283
31.256
31.225
31.193
31.159
31.124
31.089
31.056
31.026
30.999
30.976
30.957
30.942
30.93
30.921
30.912
30.903
30.893
30.882
30.867
30.849
30.829
30.806
30.78
30.753
30.724
30.696
30.668
30.642
30.618
30.598
30.584
30.578
30.582
30.599
30.631
30.684
30.76
30.864
30.997
31.164
31.365
31.601
31.872
32.177
32.514
32.879
33.27
33.682
34.11
34.551
34.999
35.451
35.902
36.346
36.778
37.196
37.593
37.969
38.318
38.64
38.933
39.196
39.427
39.626
39.795
39.934
40.046
40.133
40.198
40.243
40.27
40.282
40.278
40.259
40.228
40.185
40.132
40.069
39.998
39.92
39.836
39.748
39.657
39.566
39.474
39.382
39.292
39.203
39.117
39.032
38.949
38.867
38.785
38.703
38.619
38.533
38.444
38.35
38.25
38.146
38.037
37.922
37.803
37.681
37.556
37.43
37.304
37.18
37.059
36.943
36.831
36.724
36.623
36.529
36.443
36.363
36.289
36.221
36.159
36.1
36.046
35.996
35.951
35.912
35.879
35.852
35.832
35.817
35.808
35.803
35.802
35.804
35.807
35.809
35.809
35.806
35.798
35.786
35.769
35.748
35.722
35.694
35.663
35.63
35.598
35.565
35.531
35.496
35.459
35.419
35.376
35.329
35.277
35.221
35.159
35.092
35.022
34.948
34.871
34.792
34.713
34.634
34.557
34.482
34.411
34.341
34.275
34.211
34.15
34.091
34.035
33.98
33.926
33.871
33.816
33.76
33.703
33.646
33.589
33.531
33.474
33.418
33.363
33.311
33.261
33.213
33.167
33.123
33.081
33.04
33.0
32.959
32.918
32.877
32.834
32.792
32.748
32.703
32.659
32.614
32.569
32.524
32.48
32.438
32.397
32.358
32.321
32.287
32.255
32.228
32.204
32.184
32.166
32.15
32.135
32.118
32.101
32.081
32.059
32.034
32.007
31.978
31.946
31.913
31.879
31.846
31.813
31.783
31.754
31.728
31.704
31.683
31.663
31.647
31.633
31.623
31.617
31.613
31.612
31.615
31.621
31.632
31.649
31.674
31.71
31.759
31.827
31.918
32.038
32.188
32.374
32.595
32.854
33.15
33.482
33.847
34.24
34.657
35.093
