Trial 1:0back
35.202
35.193
35.183
35.171
35.157
35.143
35.126
35.108
35.087
35.063
35.035
35.003
34.968
34.93
34.89
34.849
34.81
34.772
34.735
34.7
34.667
34.634
34.6
34.566
34.529
34.489
34.447
34.402
34.355
34.305
34.253
34.199
34.144
34.088
34.03
33.971
33.911
33.85
33.79
33.729
33.67
33.613
33.558
33.507
33.457
33.41
33.363
33.316
33.271
33.226
33.182
33.141
33.1
33.06
33.021
32.982
32.944
32.907
32.872
32.837
32.803
32.769
32.733
32.696
32.659
32.622
32.586
32.549
32.514
32.482
32.456
32.437
32.426
32.427
32.441
32.472
32.521
32.592
32.684
32.801
32.944
33.116
33.32
33.564
33.855
34.199
34.597
35.047
35.543
36.077
36.637
37.21
37.782
38.337
38.861
39.341
39.768
40.131
40.427
40.653
40.811
40.903
40.934
40.909
40.836
40.721
40.572
40.396
40.202
39.996
39.785
39.572
39.363
39.161
38.967
38.783
38.61
38.448
38.295
38.151
38.016
37.889
37.769
37.654
37.541
37.428
37.314
37.198
37.079
36.957
36.834
36.709
36.583
36.457
36.331
36.207
36.086
35.97
35.859
35.753
35.655
35.562
35.476
35.396
35.321
35.252
35.188
35.13
35.078
35.031
34.991
34.956
34.926
34.901
34.88
34.862
34.845
34.83
34.814
34.797
34.779
34.761
34.743
34.725
34.708
34.693
34.678
34.663
34.645
34.625
34.601
34.573
34.542
34.508
34.472
34.435
34.397
34.358
34.318
34.278
34.236
34.193
34.146
34.097
34.045
33.991
33.935
33.879
33.823
33.77
33.72
33.673
33.627
33.581
33.534
33.485
33.435
33.384
33.333
33.282
33.233
33.185
33.137
33.091
33.046
33.002
32.959
32.916
32.872
32.83
32.79
32.751
32.715
32.682
32.65
32.618
32.586
32.552
32.518
32.484
32.449
32.415
32.381
32.349
32.317
32.286
32.257
32.23
32.205
32.185
32.171
32.166
32.171
32.19
32.225
32.279
32.354
32.451
32.574
32.723
32.903
33.12
33.38
33.692
34.058
34.482
34.959
35.482
36.04
36.62
37.206
37.784
38.339
38.859
39.332
39.748
40.099
40.381
40.593
40.734
40.809
40.82
40.775
40.681
40.547
40.38
40.189
39.979
39.76
39.537
39.316
39.1
38.893
38.697
38.513
38.343
38.185
38.04
37.906
37.783
37.666
37.554
37.445
37.337
37.23
37.123
37.015
36.905
36.795
36.682
36.568
36.454
36.34
36.227
36.117
36.01
35.905
35.803
35.704
35.611
35.522
35.44
35.363
35.293
35.229
35.172
35.122
35.078
35.041
35.011
34.987
34.968
34.954
34.945
34.939
34.935
34.933
34.931
34.93
34.935
34.949
34.969
34.993
35.017
35.036
35.047
35.047
35.037
35.015
34.984
34.942
34.892
34.833
34.77
34.704
34.636
34.57
34.506
34.444
34.385
34.329
34.273
34.219
34.167
34.118
34.071
34.026
33.983
33.942
33.903
33.863
33.822
33.78
33.736
33.691
33.644
33.597
33.55
33.503
33.457
33.412
33.366
33.321
33.275
33.228
33.18
33.131
33.082
33.036
32.992
32.951
32.914
32.88
32.849
32.818
32.787
32.755
32.724
32.693
32.663
32.635
32.608
32.583
32.561
32.542
32.525
32.51
32.5
32.495
32.496
32.507
32.531
32.572
32.633
32.717
32.824
32.957
33.119
33.311
33.54
33.813
34.136
34.514
34.948
35.433
35.962
36.524
37.106
37.695
38.275
38.834
39.358
39.835
40.256
40.613
40.901
41.116
41.261
41.337
41.349
41.304
41.209
41.074
40.907
40.717
40.512
40.3
40.087
39.878
39.677
39.485
39.305
39.137
38.982
38.837
38.702
38.573
38.449
38.327
38.206
38.086
37.966
37.845
37.724
37.602
37.479
37.354
37.228
37.101
36.975
36.848
36.723
36.598
36.477
36.359
36.244
36.134
36.03
35.932
35.84
35.754
35.676
35.604
35.539
35.482
35.43
35.383
35.341
35.303
35.27
35.241
35.217
35.197
35.181
35.167
35.155
35.145
35.136
35.129
35.121
35.111
35.098
35.081
35.06
35.036
35.009
34.978
34.945
34.908
34.868
34.825
34.78
34.734
34.689
34.643
34.598
34.554
34.511
34.468
34.427
34.388
34.35
34.312
34.275
34.238
34.199
34.159
34.117
34.075
34.031
33.984
33.936
33.887
33.837
33.787
33.737
33.686
33.638
33.591
33.546
33.503
33.459
33.416
33.373
33.331
33.29
33.249
33.21
33.171
33.131
33.089
33.047
33.006
32.967
32.93
32.896
32.864
32.833
32.803
32.773
32.744
32.718
32.695
32.679
32.67
32.67
32.682
32.709
32.753
32.814
32.897
33.003
33.137
33.305
33.516
33.779
34.1
34.483
34.93
35.435
35.991
36.586
37.208
37.84
38.466
39.071
39.64
40.161
40.625
41.022
41.349
41.604
41.789
41.906
41.96
41.955
41.898
41.799
41.665
41.504
41.323
41.13
40.931
40.73
40.531
40.336
40.146
39.963
39.787
39.618
39.455
39.298
39.146
38.997
38.849
38.701
38.552
38.402
38.251
38.098
37.945
37.792
37.638
37.485
37.331
37.179
37.027
36.877
36.729
36.586
36.448
36.316
36.192
36.078
35.973
35.878
35.792
35.716
35.648
35.588
35.535
35.488
35.448
35.414
35.386
35.362
35.342
35.326
35.313
35.303
35.294
35.287
35.28
35.273
35.266
35.256
35.244
35.23
35.213
35.193
35.17
35.144
35.114
35.083
35.049
35.013
34.975
34.934
34.889
34.836
34.776
34.708
34.636
34.562
34.487
34.414
34.345
34.283
34.226
34.175
34.13
34.088
34.05
34.014
33.98
33.945
33.91
33.874
33.835
33.792
33.747
33.699
33.649
33.598
33.543
33.487
33.429
33.371
33.313
33.255
33.197
33.139
33.081
33.024
32.966
32.911
32.858
32.808
32.76
32.712
32.667
32.622
32.581
32.542
32.505
32.472
32.443
32.419
32.402
32.393
32.397
32.413
32.445
32.495
32.564
32.657
32.778
32.934
33.134
33.387
33.703
34.087
34.539
35.056
35.631
36.252
36.905
37.574
38.242
38.895
39.519
40.101
40.632
41.101
41.504
41.835
42.094
42.281
42.401
42.459
42.459
42.411
42.321
42.198
42.047
41.877
41.691
41.495
41.292
41.085
40.878
40.672
40.469
40.27
40.074
39.883
39.697
39.514
39.335
39.159
38.985
38.813
38.643
38.475
38.308
38.142
37.976
37.81
37.643
37.475
37.306
37.136
36.967
36.8
36.636
36.476
36.322
36.176
36.04
35.913
35.797
35.691
35.597
35.513
35.437
35.37
35.309
35.254
35.206
35.164
35.129
35.102
35.081
35.066
35.055
35.048
35.042
35.036
35.029
35.02
35.009
34.996
34.982
34.967
34.951
34.933
34.915
34.895
34.873
34.847
34.816
34.781
34.742
34.698
34.651
34.601
34.551
34.501
34.451
34.403
34.355
34.308
34.262
34.214
34.165
34.115
34.064
34.013
33.962
33.911
33.861
33.813
33.765
33.717
33.667
33.614
33.558
33.498
33.435
33.37
33.304
33.237
33.17
33.103
33.036
32.97
32.903
32.838
32.773
32.709
32.646
32.587
32.531
32.478
32.43
32.386
32.344
32.304
32.266
32.231
32.201
32.178
32.164
32.159
32.167
32.19
32.231
32.293
32.381
32.501
32.665
32.884
33.169
33.529
33.969
34.49
35.089
35.76
36.492
37.271
38.085
38.917
39.75
40.571
41.364
42.118
42.823
43.468
44.05
44.563
45.008
45.386
45.697
45.945
46.132
46.262
46.341
46.373
46.363
46.314
46.233
46.123
45.99
45.837
45.667
45.482
45.286
45.081
44.868
44.649
44.427
44.201
43.972
43.742
43.508
43.27
43.029
42.784
42.536
42.286
42.035
41.785
41.536
41.29
41.048
40.81
40.577
40.35
40.131
39.918
39.712
39.515
39.327
39.151
38.986
38.835
38.697
38.572
38.46
38.36
38.27
38.19
38.12
38.059
38.004
37.954
37.909
37.87
37.835
37.804
37.778
37.755
37.735
37.717
37.699
37.68
37.658
37.632
37.6
37.562
37.518
37.468
37.412
37.353
37.289
37.22
37.149
37.074
36.996
36.916
36.833
36.747
36.659
36.567
36.472
36.372
36.27
36.165
36.059
35.953
35.848
35.744
35.642
35.543
35.444
35.346
35.25
35.157
35.066
34.977
34.891
34.808
34.727
34.646
34.567
34.488
34.41
34.335
34.262
34.19
34.12
34.052
33.986
33.924
33.865
33.809
33.756
33.704
33.654
33.603
33.552
33.501
33.452
33.405
33.362
33.324
33.295
33.275
33.269
33.278
33.305
33.355
33.435
33.554
33.723
33.951
34.25
34.625
35.08
35.613
36.224
36.904
37.644
38.432
39.254
40.095
40.94
41.772
42.576
43.34
44.05
44.698
45.277
45.782
46.21
46.558
46.829
47.025
47.15
47.208
47.206
47.152
47.052
46.916
46.75
46.557
46.342
46.112
45.873
45.628
45.384
45.142
44.905
44.675
44.451
44.233
44.017
43.805
43.595
43.386
43.178
42.97
42.762
42.553
42.345
42.136
41.928
41.72
41.516
41.314
41.115
40.92
40.729
40.542
40.362
40.186
40.016
39.851
39.69
39.533
39.379
39.23
39.086
38.949
38.82
38.698
38.584
38.477
38.375
38.278
38.187
38.101
38.02
37.944
37.872
37.804
37.738
37.674
37.611
37.55
37.491
37.431
37.372
37.313
37.253
37.192
37.129
37.064
36.996
36.926
36.854
36.778
36.699
36.618
36.536
36.451
36.365
36.278
36.19
36.104
36.018
35.933
35.848
35.763
35.677
35.59
35.5
35.41
35.319
35.228
35.137
35.046
34.956
34.867
34.78
34.696
34.614
34.533
34.455
34.377
34.301
34.225
34.149
34.076
34.004
33.933
33.865
33.797
33.731
33.665
33.599
33.533
33.467
33.402
33.339
33.279
33.224
33.177
33.141
33.118
33.112
33.125
33.162
33.228
33.33
33.477
33.678
33.943
34.279
34.693
35.186
35.758
36.403
37.116
37.885
38.697
39.536
40.385
41.229
42.05
42.834
43.567
44.236
44.834
45.353
45.79
46.142
46.41
46.596
46.705
46.742
46.714
46.63
46.498
46.327
46.124
45.899
45.658
45.408
45.155
44.903
44.656
44.416
44.185
43.966
43.758
43.558
43.367
43.181
43.0
42.82
42.64
42.457
42.27
42.079
41.882
41.679
41.471
41.258
41.042
40.825
40.607
40.392
40.18
39.975
39.778
39.591
39.413
39.246
39.089
38.943
38.807
38.678
38.559
38.447
38.343
38.246
38.153
38.066
37.983
37.906
37.835
37.769
37.708
37.651
37.599
37.549
37.503
37.458
37.414
37.37
37.327
37.282
37.235
37.186
37.134
37.079
37.021
36.96
36.895
36.827
36.756
36.682
36.605
36.526
36.446
36.365
36.283
36.201
36.118
36.036
35.953
35.869
35.784
35.698
35.611
35.523
35.435
35.348
35.262
35.177
35.092
35.006
34.92
34.832
34.745
34.658
34.573
34.49
34.409
34.331
34.255
34.181
34.11
34.04
33.971
33.904
33.837
33.77
33.705
33.64
33.576
33.512
33.451
33.391
33.334
33.28
33.231
33.188
33.155
33.133
33.127
33.141
33.184
33.264
33.389
33.567
33.808
34.12
34.506
34.969
35.51
36.122
36.799
37.53
38.301
39.097
39.901
40.698
41.472
42.208
42.894
43.52
44.076
44.557
44.959
45.28
45.521
45.685
45.776
45.802
45.767
45.68
45.548
45.382
45.189
44.976
44.751
44.52
44.287
44.056
43.832
43.614
43.404
43.202
43.008
42.821
42.64
42.461
42.284
42.108
41.931
41.751
41.566
41.375
41.179
40.978
40.772
40.564
40.355
40.148
39.944
39.745
39.553
39.369
39.193
39.025
38.865
38.715
38.583
38.467
38.365
38.275
38.19
38.108
38.027
37.944
37.858
37.769
37.679
37.589
37.5
37.414
37.331
37.252
37.176
37.104
37.036
36.971
36.911
36.855
36.805
36.759
36.717
36.679
36.644
36.61
36.575
36.538
36.497
36.451
36.399
36.34
36.275
36.204
36.13
36.052
35.972
35.891
35.808
35.724
35.64
35.554
35.467
35.379
35.29
35.202
35.115
35.029
34.944
34.861
34.778
34.696
34.614
34.533
34.454
34.374
34.293
34.21
34.126
34.043
33.959
33.872
33.782
33.689
33.595
33.502
33.411
33.323
33.238
33.158
33.081
33.007
32.936
32.867
32.802
32.74
32.683
32.631
32.584
32.546
32.52
32.508
32.514
32.544
32.605
32.703
32.846
33.042
33.299
33.623
34.017
34.481
35.015
35.614
36.268
36.968
37.702
38.454
39.21
39.956
40.676
41.356
41.984
42.55
43.048
43.473
43.823
44.096
44.295
44.423
44.484
44.483
44.429
44.327
44.188
44.018
43.825
43.615
43.393
43.166
42.938
42.71
42.487
42.268
42.056
41.85
41.649
41.453
41.262
41.074
40.89
40.706
40.523
40.339
40.154
39.968
39.781
39.594
39.408
39.224
39.042
38.863
38.687
38.513
38.342
38.176
38.015
37.858
37.707
37.561
37.421
37.286
37.156
37.033
36.916
36.807
36.705
36.61
36.522
36.441
36.366
36.296
36.23
36.167
36.106
36.047
35.991
35.936
35.884
35.835
35.788
35.743
35.698
35.654
35.609
35.563
35.515
35.464
35.41
35.353
35.296
35.237
35.178
35.119
35.06
35.002
34.944
34.884
34.823
34.76
34.694
34.626
34.556
34.487
34.422
34.361
34.305
34.252
34.2
34.146
34.09
34.029
33.962
33.89
33.815
33.736
33.655
33.574
33.493
33.413
33.333
33.253
33.173
33.093
33.015
32.939
32.866
32.795
32.727
32.662
32.6
32.539
32.478
32.416
32.353
32.289
32.223
32.158
32.096
32.039
31.987
31.943
31.909
31.888
31.882
31.895
31.93
31.997
32.103
32.256
32.466
32.738
33.076
33.484
33.96
34.5
35.1
35.751
36.442
37.161
37.894
38.626
39.343
40.031
40.676
41.268
41.796
42.248
42.616
42.9
43.102
43.228
43.285
43.282
43.231
43.14
43.018
42.873
42.711
42.538
42.357
42.172
41.986
41.801
41.621
41.444
41.271
41.1
40.932
40.764
40.597
40.429
40.261
40.092
39.921
39.748
39.572
39.394
39.216
39.037
38.859
38.681
38.504
38.329
38.155
37.982
37.811
37.643
37.477
37.313
37.151
36.992
36.837
36.687
36.545
36.409
36.282
36.163
36.051
35.949
35.855
35.769
35.693
35.624
35.564
35.509
35.46
35.415
35.375
35.337
35.302
35.269
35.235
35.2
35.164
35.125
35.084
35.042
34.998
34.952
34.905
34.856
34.806
34.754
34.702
34.648
34.594
34.54
34.484
34.428
34.37
34.309
34.245
34.178
34.108
34.035
33.96
33.884
33.808
33.732
33.658
33.585
33.514
33.444
33.376
33.309
33.241
33.174
33.107
33.042
32.979
32.917
32.858
32.8
32.742
32.685
32.628
32.571
32.516
32.461
32.408
32.356
32.303
32.251
32.197
32.142
32.084
32.023
31.962
31.899
31.838
31.78
31.727
31.682
31.646
31.621
31.611
31.62
31.654
31.721
31.827
31.977
32.179
32.441
32.765
33.154
33.609
34.126
34.7
35.322
35.981
36.664
37.357
38.047
38.72
39.361
39.962
40.512
41.006
41.438
41.804
42.101
42.331
42.495
42.597
42.641
42.633
42.578
42.483
42.354
42.196
42.015
41.818
41.611
41.397
41.18
40.964
40.751
40.543
40.341
40.145
39.957
39.774
39.597
39.424
39.254
39.084
38.913
38.741
38.566
38.39
38.211
38.031
37.852
37.674
37.5
37.329
37.163
37.001
36.845
36.692
36.545
36.404
36.27
36.144
36.025
35.916
35.816
35.723
35.637
35.556
35.48
35.407
35.337
35.27
35.205
35.143
35.084
35.031
34.982
34.937
34.896
34.86
34.828
34.8
34.776
34.754
34.734
34.715
34.695
34.674
34.65
34.624
34.594
34.56
34.519
34.474
34.423
34.368
34.308
34.245
34.179
34.111
34.042
33.973
33.904
33.835
33.767
33.699
33.63
33.561
33.492
33.426
33.362
33.3
33.24
33.181
33.124
33.068
33.013
32.958
32.901
32.842
32.78
32.715
32.646
32.575
32.502
32.427
32.35
32.271
32.192
32.112
32.033
31.956
31.879
31.805
31.734
31.667
31.604
31.546
31.494
31.448
31.409
31.376
31.353
31.343
31.352
31.387
31.455
31.566
31.729
31.951
32.237
32.592
33.016
33.511
34.072
34.694
35.368
36.082
36.827
37.587
38.347
39.092
39.807
40.48
41.098
41.653
42.137
42.546
42.877
43.13
43.308
43.412
43.447
43.421
43.34
43.213
43.047
42.85
42.631
42.396
42.153
41.908
41.664
41.426
41.196
40.976
40.767
40.569
40.381
40.201
40.024
39.85
39.676
39.504
39.333
39.163
38.993
38.823
38.65
38.477
38.303
38.129
37.955
37.782
37.611
37.442
37.276
37.113
36.953
36.798
36.647
36.498
36.353
36.209
36.069
35.932
35.801
35.677
35.56
35.453
35.353
35.261
35.175
35.095
35.019
34.949
34.882
34.819
34.759
34.703
34.651
34.602
34.555
34.51
34.466
34.422
34.377
34.331
34.282
34.233
34.182
34.13
34.077
34.024
33.97
33.916
33.861
33.804
33.744
33.682
33.619
33.554
33.488
33.422
33.357
33.291
33.224
33.157
33.09
33.023
32.954
32.884
32.811
32.737
32.663
32.588
32.513
32.439
32.364
32.289
32.214
32.139
32.065
31.993
31.922
31.851
31.781
31.712
31.646
31.582
31.521
31.461
31.404
31.347
31.291
31.236
31.182
31.128
31.077
31.027
30.979
30.936
30.9
30.873
30.857
30.855
30.873
30.916
30.99
31.104
31.265
31.48
31.757
32.1
32.511
32.991
33.537
34.143
34.802
35.502
36.23
36.974
37.719
38.452
39.158
39.823
40.434
40.982
41.46
41.862
42.187
42.436
42.612
42.72
42.764
42.751
42.688
42.584
42.446
42.282
42.097
41.897
41.687
41.473
41.257
41.041
40.829
40.62
40.415
40.214
40.015
39.82
39.626
39.435
39.246
39.059
38.873
38.69
38.508
38.328
38.149
37.969
37.789
37.609
37.43
37.25
37.071
36.893
36.717
36.545
36.376
36.213
36.055
35.904
35.76
35.622
35.49
35.364
35.244
35.13
35.021
34.92
34.826
34.739
34.659
34.586
34.519
34.457
34.399
34.344
34.29
34.236
34.182
34.129
34.077
34.026
33.978
33.931
33.887
33.843
33.797
33.75
33.7
33.647
33.59
33.53
33.467
33.401
33.335
33.268
33.2
33.132
33.063
32.995
32.925
32.854
32.782
32.71
32.638
32.567
32.496
32.427
32.359
32.291
32.222
32.151
32.079
32.007
31.933
31.86
31.787
31.715
31.642
31.57
31.497
31.424
31.352
31.282
31.214
31.148
31.085
31.024
30.966
30.91
30.855
30.8
30.744
30.688
30.631
30.573
30.515
30.458
30.4
30.342
30.286
30.238
30.199
30.173
30.164
30.177
30.217
30.294
30.417
30.594
30.834
31.142
31.523
31.98
32.513
33.117
33.789
34.518
35.293
36.099
36.92
37.741
38.545
39.316
40.04
40.704
41.298
41.814
42.248
42.596
42.86
43.043
43.15
43.187
43.162
43.081
42.953
42.786
42.586
42.363
42.123
41.874
41.619
41.365
41.113
40.866
40.625
40.391
40.164
39.943
39.727
39.514
39.305
39.1
38.896
38.694
38.494
38.295
38.098
37.903
37.708
37.515
37.323
37.133
36.944
36.755
36.567
36.38
36.195
36.015
35.842
35.675
35.517
35.367
35.225
35.091
34.964
34.844
34.729
34.617
34.509
34.405
34.304
34.207
34.115
34.029
33.948
33.873
33.803
33.736
33.671
33.608
33.547
33.487
33.428
33.37
33.314
33.259
33.205
33.15
33.093
33.033
32.97
32.905
32.837
32.768
32.697
32.625
32.552
32.479
32.406
32.332
32.258
32.182
32.106
32.03
31.954
31.88
31.806
31.733
31.66
31.587
31.512
31.438
31.363
31.288
31.211
31.123
31.024
30.917
30.806
30.696
30.59
30.492
30.404
30.326
30.261
30.206
30.161
30.124
30.094
30.067
30.04
30.011
29.979
29.942
29.902
29.857
29.809
29.756
29.701
29.643
29.583
29.525
29.468
29.415
29.369
29.332
29.307
29.297
29.305
29.332
29.383
29.465
29.584
29.75
29.971
30.253
30.6
31.014
31.493
32.035
32.632
33.278
33.963
34.675
35.403
36.132
36.848
37.539
38.193
38.799
39.349
39.836
40.256
40.605
40.882
41.09
41.232
41.314
41.342
41.323
41.26
41.159
41.025
40.865
40.682
40.484
40.274
40.057
39.837
39.615
39.395
39.177
38.962
38.754
38.55
38.352
38.159
37.97
37.784
37.6
37.417
37.236
37.056
36.877
36.7
36.524
36.349
36.175
36.003
35.832
35.663
35.496
35.332
35.172
35.018
34.868
34.725
34.588
34.458
34.335
34.218
34.108
34.005
33.908
33.818
33.733
33.653
33.578
33.507
33.44
33.377
33.316
33.257
33.199
33.141
33.084
33.028
32.974
32.92
32.867
32.815
32.762
32.71
32.659
32.609
32.557
32.504
32.448
32.389
32.327
32.262
32.195
32.126
32.053
31.977
31.897
31.816
31.732
31.648
31.565
31.483
31.404
31.327
31.254
31.182
31.111
31.041
30.969
30.896
30.823
30.749
30.676
30.603
30.532
30.462
30.392
30.322
30.253
30.185
30.119
30.054
29.992
29.932
29.874
29.817
29.76
29.702
29.645
29.587
29.529
29.471
29.414
29.359
29.305
29.252
29.2
29.149
29.099
29.051
29.005
28.963
28.924
28.888
28.855
28.824
28.795
28.767
28.744
28.727
28.719
28.723
28.743
28.781
28.843
28.932
29.058
29.229
29.456
29.747
30.107
30.54
31.046
31.619
32.253
32.938
33.664
34.418
35.185
35.953
36.707
