Trial 1:0back
34.358
34.285
34.212
34.138
34.064
33.991
33.917
33.843
33.77
33.699
33.629
33.563
33.5
33.441
33.385
33.333
33.284
33.236
33.191
33.147
33.104
33.059
33.014
32.967
32.919
32.87
32.82
32.768
32.716
32.664
32.614
32.565
32.519
32.476
32.437
32.401
32.366
32.334
32.302
32.27
32.237
32.203
32.166
32.127
32.087
32.045
32.002
31.96
31.921
31.884
31.852
31.823
31.8
31.78
31.764
31.75
31.739
31.729
31.719
31.707
31.692
31.674
31.652
31.627
31.598
31.567
31.533
31.499
31.464
31.43
31.398
31.37
31.345
31.324
31.308
31.296
31.287
31.281
31.277
31.274
31.269
31.262
31.253
31.24
31.224
31.205
31.184
31.16
31.136
31.111
31.087
31.065
31.044
31.027
31.013
31.002
30.994
30.988
30.982
30.975
30.968
30.959
30.947
30.932
30.914
30.892
30.866
30.837
30.804
30.769
30.734
30.7
30.67
30.646
30.629
30.623
30.63
30.652
30.693
30.754
30.838
30.947
31.082
31.245
31.436
31.658
31.911
32.194
32.506
32.846
33.213
33.604
34.017
34.447
34.89
35.342
35.798
36.251
36.694
37.123
37.533
37.919
38.279
38.61
38.91
39.178
39.415
39.62
39.796
39.942
40.06
40.151
40.216
40.259
40.28
40.285
40.273
40.249
40.214
40.169
40.117
40.059
39.995
39.927
39.855
39.781
39.706
39.632
39.561
39.492
39.428
39.366
39.308
39.251
39.195
39.138
39.08
39.019
38.956
38.889
38.819
38.744
38.665
38.582
38.494
38.402
38.306
38.207
38.106
38.003
37.901
37.799
37.697
37.597
37.499
37.403
37.31
37.219
37.132
37.047
36.966
36.888
36.816
36.749
36.688
36.635
36.59
36.553
36.522
36.498
36.477
36.459
36.442
36.424
36.405
36.382
36.357
36.329
36.298
36.266
36.232
36.198
36.164
36.13
36.097
36.064
36.032
35.999
35.966
35.931
35.894
35.854
35.811
35.764
35.713
35.659
35.602
35.542
35.479
35.414
35.347
35.278
35.208
35.136
35.065
34.994
34.924
34.855
34.789
34.725
34.662
34.6
34.54
34.479
34.417
34.354
34.288
34.221
34.151
34.081
34.011
33.943
33.877
33.816
33.758
33.705
33.657
33.612
33.57
33.53
33.491
33.452
33.41
33.365
33.318
33.268
33.215
33.161
33.106
33.051
32.999
32.948
32.902
32.858
32.819
32.783
32.749
32.717
32.686
32.655
32.624
32.591
32.556
32.52
32.482
32.442
32.402
32.363
32.325
32.288
32.255
32.225
32.199
32.177
32.158
32.142
32.128
32.116
32.104
32.09
32.075
32.057
32.036
32.013
31.987
31.96
31.932
31.905
31.879
31.855
31.833
31.815
31.798
31.784
31.771
31.759
31.748
31.737
31.724
31.71
31.692
31.67
31.644
31.614
31.581
31.545
31.507
31.469
31.43
31.394
31.36
31.33
31.303
31.279
31.26
31.244
31.233
31.226
31.224
31.228
31.24
31.261
31.294
31.341
31.407
31.494
31.607
31.746
31.916
32.116
32.349
32.613
32.909
33.234
33.585
33.959
34.352
34.758
35.173
35.59
36.006
36.415
36.812
37.194
37.555
37.894
38.208
38.495
38.755
38.986
39.189
39.366
39.517
39.643
39.743
39.82
39.873
39.903
39.913
39.903
39.875
39.832
39.777
39.71
39.636
39.555
39.47
39.382
39.294
39.205
39.12
39.037
38.959
38.885
38.814
38.746
38.679
38.613
38.546
38.477
38.405
38.328
38.246
38.16
38.071
37.978
37.881
37.782
37.68
37.575
37.468
37.357
37.245
37.131
37.018
36.906
36.796
36.689
36.586
36.488
36.396
36.311
36.235
36.167
36.107
36.057
36.014
35.979
35.951
35.928
35.91
35.896
35.886
35.878
35.871
35.864
35.857
35.848
35.837
35.822
35.804
35.781
35.755
35.726
35.694
35.661
35.627
35.594
35.561
35.528
35.496
35.462
35.428
35.391
35.349
35.304
35.253
35.196
35.134
35.068
34.998
34.926
34.854
34.783
34.715
34.65
34.588
34.528
34.471
34.415
34.358
34.301
34.242
34.18
34.115
34.047
33.977
33.904
33.831
33.757
33.686
33.617
33.551
33.488
33.429
33.373
33.32
33.269
33.221
33.175
33.129
33.085
33.042
32.999
32.957
32.915
32.874
32.834
32.793
32.753
32.712
32.672
32.631
32.591
32.552
32.515
32.478
32.444
32.41
32.376
32.342
32.309
32.275
32.241
32.206
32.171
32.135
32.1
32.064
32.03
31.996
31.963
31.932
31.902
31.874
31.848
31.823
31.801
31.781
31.764
31.749
31.735
31.723
31.711
31.701
31.69
31.68
31.669
31.657
31.644
31.628
31.611
31.592
31.572
31.551
31.53
31.509
31.487
31.466
31.445
31.424
31.405
31.386
31.37
31.354
31.34
31.327
31.316
31.304
31.292
31.279
31.266
31.251
31.235
31.217
31.199
31.182
31.168
31.157
31.152
31.154
31.164
31.186
31.223
31.277
31.352
31.451
31.577
31.734
31.921
32.142
32.395
32.68
32.995
33.338
33.708
34.1
34.512
34.938
35.376
35.819
36.262
36.7
37.128
37.541
37.936
38.307
38.652
38.969
39.255
39.511
39.735
39.929
40.094
40.231
40.342
40.427
40.489
40.529
40.55
40.554
40.544
40.52
40.486
40.441
40.389
40.332
40.27
40.205
40.138
40.07
40.002
39.935
39.868
39.802
39.736
39.67
39.603
39.537
39.47
39.401
39.332
39.26
39.186
39.11
39.032
38.951
38.868
38.783
38.695
38.605
38.513
38.419
38.324
38.227
38.129
38.03
37.93
37.83
37.729
37.629
37.531
37.436
37.345
37.259
37.18
37.108
37.045
36.989
36.94
36.897
36.861
36.828
36.8
36.774
36.749
36.725
36.702
36.678
36.654
36.629
36.603
36.574
36.543
36.509
36.473
36.434
36.394
36.352
36.308
36.264
36.22
36.176
36.132
36.087
36.042
35.995
35.945
35.891
35.833
35.77
35.702
35.631
35.558
35.484
35.409
35.337
35.267
35.201
35.139
35.08
35.024
34.97
34.916
34.861
34.804
34.743
34.68
34.615
34.547
34.477
34.405
34.331
34.258
34.185
34.114
34.045
33.979
33.914
33.852
33.79
33.729
33.669
33.609
33.549
33.489
33.428
33.366
33.302
33.239
33.175
33.113
33.051
32.99
32.932
32.877
32.823
32.773
32.726
32.682
32.641
32.602
32.565
32.532
32.503
32.478
32.456
32.436
32.418
32.4
32.383
32.365
32.345
32.325
32.303
32.28
32.257
32.233
32.208
32.182
32.155
32.127
32.096
32.065
32.032
32.0
31.968
31.936
31.907
31.88
31.855
31.832
31.812
31.794
31.779
31.766
31.754
31.744
31.735
31.726
31.716
31.707
31.696
31.685
31.671
31.656
31.639
31.62
31.6
31.578
31.556
31.534
31.511
31.487
31.463
31.44
31.417
31.395
31.375
31.355
31.337
31.321
31.306
31.294
31.282
31.271
31.261
31.252
31.244
31.241
31.245
31.26
31.288
31.333
31.401
31.496
31.62
31.779
31.972
32.202
32.469
32.773
33.109
33.477
33.871
34.287
34.721
35.167
35.62
36.075
36.527
36.974
37.411
37.835
38.242
38.63
38.994
39.332
39.642
39.923
40.175
40.397
40.591
40.757
40.897
41.011
41.1
41.166
41.211
41.236
41.244
41.238
41.22
41.191
41.155
41.112
41.063
41.007
40.946
40.878
40.804
40.724
40.641
40.555
40.468
40.382
40.298
40.218
40.14
40.064
39.991
39.92
39.85
39.782
39.715
39.648
39.58
39.508
39.432
39.35
39.261
39.164
39.059
38.949
38.833
38.715
38.596
38.478
38.361
38.247
38.136
38.028
37.923
37.822
37.725
37.632
37.544
37.461
37.383
37.31
37.245
37.184
37.13
37.083
37.042
37.006
36.977
36.953
36.932
36.913
36.896
36.88
36.864
36.846
36.825
36.801
36.771
36.737
36.698
36.654
36.607
36.558
36.508
36.457
36.407
36.356
36.304
36.252
36.197
36.14
36.079
36.015
35.948
35.878
35.804
35.728
35.65
35.571
35.492
35.413
35.336
35.26
35.186
35.113
35.042
34.972
34.902
34.832
34.762
34.693
34.623
34.553
34.483
34.413
34.342
34.271
34.2
34.128
34.056
33.984
33.912
33.843
33.776
33.712
33.652
33.596
33.543
33.495
33.449
33.405
33.362
33.319
33.276
33.23
33.18
33.128
33.074
33.018
32.962
32.907
32.855
32.806
32.762
32.724
32.69
32.661
32.637
32.617
32.599
32.583
32.566
32.547
32.526
32.503
32.477
32.449
32.419
32.387
32.355
32.323
32.293
32.265
32.24
32.219
32.2
32.184
32.169
32.156
32.143
32.131
32.117
32.103
32.086
32.068
32.049
32.028
32.006
31.984
31.964
31.944
31.926
31.908
31.891
31.873
31.856
31.839
31.822
31.803
31.782
31.76
31.734
31.704
31.671
31.636
31.599
31.561
31.523
31.487
31.453
31.423
31.398
31.378
31.365
31.357
31.356
31.361
31.373
31.393
31.423
31.466
31.522
31.596
31.691
31.81
31.956
32.134
32.345
32.591
32.872
33.189
33.539
33.922
34.332
34.767
35.22
35.685
36.158
36.633
37.104
37.565
38.011
38.439
38.844
39.224
39.574
39.895
40.184
40.441
40.667
40.862
41.028
41.165
41.275
41.359
41.418
41.455
41.471
41.468
41.447
41.412
41.364
41.304
41.234
41.156
41.073
40.984
40.894
40.803
40.714
40.627
40.542
40.461
40.381
40.303
40.226
40.147
40.068
39.986
39.903
39.819
39.734
39.648
39.561
39.472
39.381
39.287
39.191
39.092
38.989
38.883
38.775
38.665
38.554
38.442
38.332
38.223
38.116
38.013
37.913
37.818
37.728
37.644
37.569
37.501
37.442
37.391
37.348
37.31
37.277
37.247
37.22
37.195
37.171
37.147
37.124
37.101
37.078
37.054
37.03
37.004
36.978
36.951
36.923
36.893
36.861
36.826
36.788
36.747
36.703
36.655
36.605
36.551
36.494
36.434
36.371
36.303
36.233
36.159
36.084
36.008
35.931
35.855
35.78
35.705
35.631
35.559
35.487
35.417
35.348
35.28
35.212
35.144
35.075
35.005
34.936
34.868
34.803
34.74
34.682
34.628
34.578
34.53
34.484
34.438
34.392
34.345
34.296
34.242
34.184
34.122
34.055
33.985
33.913
33.84
33.768
33.699
33.632
33.57
33.513
33.461
33.414
33.372
33.335
33.302
33.27
33.24
33.21
33.18
33.15
33.119
33.088
33.057
33.026
32.996
32.966
32.936
32.909
32.882
32.858
32.836
32.814
32.793
32.772
32.75
32.727
32.703
32.677
32.649
32.62
32.59
32.559
32.528
32.497
32.466
32.435
32.406
32.378
32.352
32.327
32.304
32.282
32.262
32.243
32.226
32.211
32.196
32.181
32.167
32.151
32.135
32.117
32.098
32.078
32.056
32.032
32.008
31.984
31.96
31.94
31.925
31.92
31.927
31.952
31.997
32.065
32.161
32.289
32.449
32.645
32.876
33.143
33.444
33.776
34.136
34.521
34.927
35.351
35.788
36.234
36.684
37.133
37.576
38.008
38.421
38.813
39.178
39.513
39.817
40.089
40.33
40.54
40.72
40.871
40.996
41.094
41.168
41.218
41.247
41.256
41.246
41.22
41.18
41.125
41.057
40.978
40.889
40.791
40.688
40.581
40.472
40.363
40.256
40.152
40.053
39.958
39.868
39.782
39.698
39.617
39.536
39.454
39.37
39.284
39.193
39.097
38.997
38.892
38.783
38.669
38.553
38.434
38.313
38.191
38.068
37.946
37.824
37.704
37.587
37.474
37.365
37.26
37.161
37.069
36.984
36.908
36.842
36.784
36.735
36.694
36.661
36.635
36.616
36.601
36.592
36.587
36.586
36.587
36.591
36.596
36.601
36.603
36.601
36.594
36.58
36.561
36.535
36.505
36.47
36.433
36.394
36.353
36.311
36.268
36.222
36.173
36.121
36.064
36.002
35.937
35.868
35.795
35.72
35.645
35.569
35.494
35.422
35.35
35.28
35.211
35.142
35.072
35.001
34.93
34.859
34.787
34.716
34.645
34.575
34.506
34.438
34.371
34.306
34.242
34.179
34.117
34.056
33.996
33.937
33.88
33.826
33.774
33.725
33.678
33.633
33.589
33.546
33.503
33.461
33.418
33.374
33.33
33.284
33.237
33.19
33.143
33.095
33.048
33.002
32.957
32.913
32.871
32.832
32.794
32.759
32.725
32.693
32.661
32.63
32.598
32.567
32.536
32.506
32.476
32.448
32.42
32.395
32.372
32.352
32.334
32.318
32.304
32.291
32.278
32.265
32.25
32.234
32.214
32.19
32.163
32.131
32.097
32.06
32.022
31.985
31.949
31.918
31.892
31.876
31.869
31.875
31.894
31.928
31.98
32.053
32.148
32.268
32.417
32.598
32.81
33.058
33.34
33.658
34.01
34.395
34.809
35.248
35.707
36.18
36.659
37.14
37.614
38.078
38.524
38.949
39.348
39.717
40.053
40.357
40.626
40.862
41.067
41.241
41.386
41.505
41.599
41.668
41.713
41.737
41.741
41.725
41.693
41.647
41.588
41.52
41.444
41.361
41.273
41.181
41.087
40.991
40.893
40.795
40.697
40.599
40.502
40.406
40.309
40.212
40.114
40.015
39.915
39.813
39.71
39.606
39.5
39.394
39.286
39.178
39.07
38.96
38.848
38.735
38.621
38.505
38.388
38.271
38.153
38.037
37.922
37.809
37.699
37.594
37.494
37.4
37.313
37.233
37.162
37.099
37.042
36.993
36.949
36.909
36.874
36.841
36.81
36.782
36.756
36.731
36.706
36.682
36.657
36.632
36.605
36.577
36.547
36.516
36.483
36.45
36.416
36.38
36.343
36.304
36.262
36.218
36.171
36.121
36.068
36.013
35.954
35.893
35.828
35.76
35.689
35.616
35.543
35.47
35.397
35.325
35.253
35.181
35.108
35.033
34.957
34.879
34.801
34.722
34.643
34.565
34.487
34.411
34.337
34.266
34.197
34.133
34.071
34.011
33.952
33.893
33.832
33.771
33.709
33.644
33.579
33.513
33.448
33.383
33.321
33.262
33.207
33.156
33.11
33.068
33.031
32.998
32.968
32.94
32.913
32.887
32.86
32.832
32.802
32.77
32.735
32.699
32.663
32.627
32.591
32.557
32.525
32.494
32.467
32.444
32.425
32.407
32.391
32.375
32.357
32.339
32.319
32.299
32.278
32.257
32.237
32.216
32.195
32.174
32.151
32.127
32.101
32.072
32.043
32.01
31.976
31.941
31.905
31.869
31.834
31.8
31.768
31.738
31.709
31.683
31.659
31.638
31.622
31.611
31.608
31.615
31.635
31.67
31.725
31.803
31.907
32.041
32.209
32.411
32.65
32.928
33.244
33.597
33.984
34.402
34.846
35.312
35.795
36.291
36.795
37.3
37.803
38.297
38.777
39.239
39.677
40.088
40.468
40.814
41.124
41.396
41.631
41.828
41.987
42.11
42.198
42.257
42.289
42.298
42.288
42.261
42.22
42.166
42.102
42.027
41.945
41.855
41.759
41.66
41.559
41.457
41.355
41.254
41.155
41.057
40.962
40.87
40.781
40.695
40.612
40.532
40.453
40.373
40.291
40.204
40.111
40.012
39.905
39.79
39.669
39.543
39.413
39.281
39.148
39.016
38.885
38.757
38.632
38.511
38.395
38.283
38.175
38.072
37.974
37.88
37.791
37.706
37.626
37.55
37.478
37.411
37.349
37.291
37.239
37.191
37.149
37.11
37.075
37.042
37.008
36.974
36.938
36.9
36.859
36.815
36.77
36.723
36.676
36.63
36.585
36.54
36.497
36.453
36.407
36.359
36.309
36.254
36.195
36.13
36.059
35.982
35.9
35.814
35.725
35.635
35.545
35.456
35.369
35.283
35.199
35.118
35.04
34.964
34.89
34.817
34.745
34.673
34.602
34.53
34.457
34.384
34.31
34.235
34.16
34.085
34.009
33.935
33.862
33.791
33.724
33.66
33.6
33.543
33.487
33.432
33.377
33.321
33.263
33.203
33.14
33.076
33.01
32.944
32.88
32.817
32.758
32.702
32.65
32.602
32.559
32.521
32.487
32.457
32.43
32.405
32.382
32.359
32.336
32.312
32.286
32.257
32.227
32.196
32.165
32.136
32.11
32.087
32.067
32.05
32.036
32.023
32.012
31.999
31.985
31.969
31.95
31.928
31.903
31.875
31.845
31.813
31.78
31.747
31.715
31.684
31.655
31.629
31.607
31.588
31.573
31.56
31.549
31.539
31.53
31.519
31.508
31.494
31.478
31.458
31.435
31.407
31.377
31.345
31.312
31.28
31.25
31.225
31.206
31.196
31.2
31.219
31.257
31.318
31.403
31.517
31.661
31.84
32.054
32.305
32.593
32.92
33.282
33.68
34.109
34.568
35.05
35.552
36.067
36.59
37.114
37.634
38.142
38.632
39.099
39.538
39.944
40.314
40.647
40.942
41.198
41.416
41.596
41.742
41.856
41.939
41.994
42.022
42.028
42.012
41.98
41.932
41.87
41.798
41.715
41.626
41.529
41.428
41.321
41.211
41.098
40.985
40.872
40.76
40.651
40.546
40.444
40.346
40.251
40.158
40.067
39.978
39.89
39.801
39.713
39.622
39.53
39.434
39.335
39.231
39.122
39.011
38.896
38.779
38.66
38.54
38.419
38.299
38.179
38.061
37.944
37.828
37.716
37.608
37.506
37.411
37.322
37.242
37.17
37.106
37.051
37.003
36.96
36.923
36.889
36.857
36.826
36.796
36.767
36.739
36.711
36.682
36.653
36.622
36.591
36.557
36.521
36.483
36.443
36.402
36.36
36.316
36.27
36.222
36.173
36.12
36.065
36.006
35.945
35.881
35.814
35.744
35.672
35.599
35.525
35.451
35.379
35.308
35.238
35.17
35.101
35.032
34.962
34.891
34.818
34.743
34.667
34.59
34.511
34.432
34.354
34.275
34.198
34.122
34.047
33.974
33.903
33.834
33.767
33.701
33.636
33.57
33.505
33.439
33.373
33.306
33.24
33.174
33.111
33.049
32.99
32.934
32.881
32.831
32.784
32.741
32.7
32.662
32.626
32.591
32.558
32.527
32.495
32.465
32.434
32.402
32.37
32.336
32.302
32.268
32.234
32.201
32.168
32.136
32.104
32.073
32.042
32.013
31.984
31.956
31.929
31.902
31.877
31.853
31.832
31.812
31.795
31.779
31.765
31.751
31.737
31.724
31.71
31.696
31.68
31.662
31.642
31.62
31.596
31.571
31.545
31.519
31.494
31.469
31.446
31.426
31.41
31.399
31.394
31.398
31.416
31.449
31.503
31.582
31.69
31.832
32.012
32.231
32.492
32.795
33.138
33.52
33.936
34.382
34.853
35.34
35.837
36.339
36.838
37.33
37.808
38.268
38.705
39.115
39.496
39.846
40.161
40.44
40.683
40.889
41.059
41.195
41.297
41.368
41.408
41.42
41.408
41.373
41.319
41.249
41.167
41.075
40.976
40.872
40.764
40.652
40.537
40.419
40.299
40.179
40.058
39.938
39.819
39.701
39.584
39.467
39.352
39.237
39.123
39.01
38.899
38.79
38.682
38.575
38.468
38.357
38.242
38.122
37.996
37.866
37.731
37.594
37.456
37.321
37.188
37.06
36.938
36.824
36.717
36.62
36.532
36.453
36.382
36.321
36.267
36.221
36.181
36.148
36.121
36.1
36.083
36.071
36.062
36.057
36.054
36.051
36.05
36.048
36.047
36.045
36.042
36.037
36.03
36.02
36.006
35.985
35.959
35.927
35.888
35.843
35.794
35.741
35.685
35.629
35.573
35.516
35.461
35.406
35.351
35.295
35.236
35.175
35.111
35.044
34.973
34.899
34.822
34.744
34.665
34.586
34.509
34.433
34.36
34.29
34.221
34.154
34.088
34.022
33.957
33.891
33.825
33.759
33.694
33.629
33.564
33.501
33.44
33.38
33.324
33.271
33.221
33.173
33.128
33.085
33.044
33.004
32.966
32.928
32.89
32.854
32.818
32.782
32.748
32.713
32.679
32.645
32.61
32.574
32.535
32.496
32.457
32.417
32.377
32.339
32.303
32.269
32.238
32.21
32.184
32.16
32.136
32.113
32.089
32.063
32.036
32.006
31.974
31.94
31.904
31.867
31.829
31.792
31.759
31.732
31.712
31.702
31.705
31.724
31.763
31.823
31.908
32.02
32.162
32.335
32.54
32.78
33.054
33.362
33.705
34.079
34.484
34.915
35.369
35.838
36.318
36.802
37.284
37.757
38.215
38.654
39.067
39.452
39.805
40.123
40.405
40.651
40.859
41.032
41.172
41.279
41.357
41.408
41.435
41.44
41.426
41.393
41.343
41.277
41.197
41.105
41.001
40.889
40.77
40.646
40.519
40.393
40.267
40.143
40.022
39.905
39.79
39.679
39.572
39.466
39.363
39.261
39.158
39.054
38.946
38.835
38.719
38.598
38.473
38.345
38.215
38.085
37.954
37.824
37.694
37.564
37.434
37.305
37.177
37.05
36.926
36.808
36.696
36.59
36.493
36.404
36.325
36.255
36.194
36.142
36.097
36.06
36.029
36.005
35.985
35.97
35.96
35.952
35.946
35.941
35.936
35.929
35.92
35.908
35.892
35.874
35.852
35.826
35.798
35.768
35.736
35.703
35.668
35.631
35.592
35.55
35.505
35.454
35.398
35.336
35.268
35.196
35.121
35.043
34.964
34.885
34.806
34.73
34.654
34.58
34.507
34.434
34.361
34.286
34.211
34.134
34.058
33.981
33.904
33.827
33.75
33.675
33.601
33.53
33.462
33.397
33.334
33.274
33.216
33.159
33.103
33.05
32.999
32.949
32.901
32.852
32.804
32.755
32.705
32.656
32.606
32.556
32.507
32.458
32.409
32.36
32.312
32.266
32.222
32.18
32.141
32.104
32.07
32.037
32.007
31.979
31.954
31.929
31.906
31.884
31.861
31.838
31.813
31.788
31.761
31.734
31.707
31.679
31.652
31.626
31.602
31.578
31.556
31.535
31.514
31.495
31.475
31.455
31.435
31.415
31.395
31.376
31.357
31.341
31.33
31.328
31.337
31.363
31.411
31.486
