Trial 1:0back
31.753
31.696
31.638
31.58
31.522
31.466
31.413
31.362
31.317
31.28
31.252
31.237
31.24
31.263
31.312
31.388
31.496
31.638
31.816
32.03
32.281
32.568
32.888
33.239
33.616
34.015
34.43
34.856
35.287
35.718
36.143
36.557
36.954
37.33
37.681
38.005
38.299
38.56
38.789
38.984
39.147
39.277
39.377
39.449
39.495
39.517
39.517
39.5
39.467
39.42
39.363
39.296
39.222
39.143
39.059
38.973
38.885
38.798
38.712
38.627
38.545
38.466
38.39
38.317
38.246
38.177
38.109
38.04
37.969
37.896
37.821
37.743
37.662
37.58
37.495
37.41
37.325
37.241
37.16
37.082
37.01
36.943
36.884
36.833
36.79
36.756
36.731
36.714
36.705
36.705
36.712
36.726
36.745
36.769
36.796
36.824
36.853
36.88
36.906
36.928
36.947
36.962
36.972
36.977
36.976
36.969
36.957
36.94
36.917
36.889
36.856
36.818
36.774
36.725
36.673
36.616
36.556
36.493
36.427
36.36
36.291
36.221
36.149
36.074
35.998
35.919
35.838
35.755
35.671
35.585
35.499
35.413
35.327
35.242
35.158
35.074
34.992
34.91
34.829
34.75
34.671
34.593
34.517
34.442
34.369
34.299
34.23
34.163
34.098
34.035
33.974
33.915
33.857
33.802
33.749
33.699
33.651
33.605
33.561
33.517
33.475
33.432
33.391
33.349
33.309
33.269
33.23
33.192
33.154
33.117
33.081
33.044
33.008
32.972
32.937
32.901
32.867
32.832
32.798
32.764
32.73
32.696
32.664
32.632
32.601
32.571
32.542
32.514
32.487
32.461
32.436
32.411
32.388
32.365
32.342
32.318
32.294
32.268
32.242
32.214
32.185
32.154
32.122
32.088
32.052
32.014
31.974
31.933
31.89
31.847
31.803
31.76
31.716
31.671
31.626
31.58
31.533
31.485
31.438
31.392
31.347
31.304
31.262
31.223
31.187
31.156
31.132
31.118
31.115
31.128
31.16
31.214
31.294
31.402
31.542
31.715
31.922
32.162
32.434
32.736
33.066
33.419
33.792
34.179
34.576
34.976
35.372
35.761
36.136
36.495
36.833
37.147
37.436
37.697
37.928
38.13
38.303
38.447
38.565
38.657
38.726
38.772
38.797
38.805
38.796
38.773
38.738
38.693
38.638
38.576
38.507
38.434
38.356
38.276
38.195
38.112
38.029
37.947
37.866
37.786
37.706
37.628
37.549
37.469
37.389
37.306
37.222
37.136
37.049
36.961
36.874
36.788
36.704
36.624
36.548
36.478
36.414
36.357
36.309
36.269
36.239
36.218
36.207
36.204
36.21
36.225
36.246
36.273
36.304
36.338
36.374
36.41
36.446
36.481
36.513
36.542
36.567
36.588
36.605
36.618
36.625
36.626
36.622
36.612
36.597
36.575
36.547
36.514
36.476
36.434
36.387
36.336
36.281
36.223
36.161
36.097
36.031
35.963
35.892
35.819
35.743
35.666
35.587
35.507
35.426
35.345
35.264
35.181
35.099
35.016
34.933
34.851
34.77
34.691
34.614
34.539
34.466
34.394
34.324
34.256
34.191
34.127
34.066
34.006
33.948
33.893
33.839
33.788
33.74
33.693
33.648
33.605
33.563
33.522
33.481
33.441
33.401
33.363
33.325
33.29
33.256
33.223
33.192
33.162
33.134
33.107
33.08
33.055
33.031
33.007
32.984
32.96
32.938
32.916
32.894
32.874
32.854
32.835
32.816
32.797
32.778
32.758
32.738
32.716
32.694
32.67
32.645
32.617
32.586
32.554
32.52
32.484
32.448
32.411
32.373
32.334
32.293
32.252
32.209
32.166
32.123
32.08
32.037
31.996
31.957
31.92
31.886
31.858
31.838
31.827
31.83
31.849
31.886
31.946
32.031
32.145
32.289
32.466
32.676
32.918
33.192
33.494
33.822
34.172
34.539
34.919
35.307
35.697
36.083
36.461
36.825
37.173
37.5
37.804
38.082
38.333
38.555
38.748
38.912
39.047
39.154
39.235
39.29
39.324
39.337
39.332
39.312
39.278
39.233
39.178
39.117
39.05
38.98
38.907
38.833
38.757
38.683
38.609
38.537
38.467
38.399
38.334
38.269
38.206
38.143
38.079
38.015
37.949
37.88
37.81
37.736
37.66
37.582
37.503
37.422
37.343
37.265
37.19
37.12
37.056
36.999
36.95
36.908
36.874
36.849
36.832
36.823
36.823
36.829
36.842
36.86
36.882
36.907
36.935
36.963
36.991
37.017
37.041
37.061
37.076
37.086
37.091
37.09
37.085
37.074
37.057
37.035
37.008
36.976
36.939
36.897
36.851
36.799
36.743
36.683
36.62
36.553
36.485
36.413
36.34
36.264
36.188
36.11
36.033
35.956
35.878
35.8
35.722
35.642
35.561
35.479
35.395
35.312
35.227
35.144
35.061
34.978
34.896
34.816
34.737
34.66
34.586
34.514
34.445
34.379
34.316
34.257
34.201
34.147
34.097
34.049
34.004
33.96
33.919
33.88
33.842
33.804
33.767
33.729
33.691
33.651
33.611
33.57
33.528
33.487
33.446
33.407
33.368
33.332
33.296
33.262
33.229
33.198
33.17
33.142
33.117
33.092
33.069
33.045
33.022
32.999
32.975
32.952
32.93
32.908
32.885
32.863
32.841
32.819
32.798
32.776
32.756
32.737
32.719
32.7
32.681
32.66
32.638
32.614
32.588
32.559
32.528
32.495
32.459
32.421
32.38
32.338
32.294
32.249
32.203
32.157
32.11
32.064
32.018
31.974
31.932
31.892
31.856
31.825
31.799
31.781
31.772
31.776
31.797
31.839
31.905
31.999
32.124
32.283
32.476
32.706
32.971
33.272
33.606
33.969
34.357
34.765
35.187
35.619
36.054
36.485
36.908
37.316
37.706
38.073
38.413
38.724
39.005
39.254
39.47
39.654
39.805
39.926
40.018
40.084
40.125
40.145
40.147
40.132
40.105
40.066
40.019
39.964
39.905
39.841
39.775
39.708
39.641
39.575
39.51
39.447
39.386
39.328
39.271
39.217
39.166
39.115
39.066
39.016
38.964
38.911
38.854
38.795
38.731
38.665
38.596
38.525
38.452
38.379
38.306
38.235
38.165
38.098
38.035
37.979
37.929
37.887
37.852
37.824
37.802
37.787
37.778
37.773
37.772
37.775
37.781
37.79
37.801
37.813
37.827
37.841
37.854
37.865
37.873
37.877
37.878
37.874
37.867
37.856
37.841
37.822
37.799
37.772
37.74
37.704
37.662
37.614
37.561
37.502
37.438
37.37
37.296
37.218
37.136
37.051
36.962
36.872
36.78
36.687
36.595
36.502
36.41
36.318
36.226
36.135
36.045
35.955
35.866
35.776
35.685
35.594
35.502
35.41
35.318
35.225
35.134
35.043
34.955
34.869
34.785
34.705
34.628
34.555
34.487
34.424
34.365
34.311
34.261
34.215
34.174
34.136
34.101
34.068
34.038
34.009
33.982
33.955
33.927
33.899
33.87
33.838
33.805
33.769
33.729
33.687
33.642
33.594
33.545
33.494
33.442
33.389
33.337
33.286
33.236
33.188
33.143
33.1
33.06
33.023
32.989
32.958
32.928
32.901
32.875
32.851
32.828
32.805
32.782
32.76
32.737
32.713
32.688
32.662
32.635
32.607
32.577
32.546
32.513
32.479
32.445
32.41
32.375
32.341
32.307
32.272
32.238
32.203
32.167
32.131
32.094
32.056
32.017
31.978
31.937
31.896
31.853
31.811
31.768
31.727
31.686
31.646
31.608
31.571
31.536
31.504
31.475
31.452
31.438
31.434
31.444
31.473
31.522
31.598
31.702
31.838
32.01
32.219
32.466
32.75
33.07
33.423
33.805
34.212
34.638
35.079
35.526
35.975
36.417
36.849
37.264
37.659
38.03
38.374
38.688
38.972
39.223
39.443
39.63
39.786
39.912
40.009
40.079
40.126
40.151
40.157
40.147
40.122
40.086
40.039
39.984
39.924
39.859
39.791
39.721
39.65
39.58
39.51
39.442
39.376
39.314
39.254
39.197
39.143
39.091
39.041
38.99
38.939
38.887
38.831
38.771
38.708
38.641
38.57
38.495
38.419
38.34
38.261
38.183
38.106
38.033
37.964
37.901
37.843
37.792
37.749
37.714
37.686
37.664
37.649
37.639
37.636
37.638
37.643
37.651
37.66
37.668
37.676
37.682
37.684
37.683
37.677
37.667
37.652
37.632
37.607
37.578
37.544
37.506
37.462
37.414
37.363
37.307
37.248
37.186
37.122
37.054
36.983
36.91
36.834
36.758
36.679
36.599
36.518
36.436
36.353
36.269
36.185
36.1
36.014
35.928
35.841
35.753
35.665
35.577
35.489
35.401
35.314
35.228
35.144
35.062
34.983
34.906
34.832
34.76
34.69
34.623
34.558
34.495
34.435
34.378
34.323
34.271
34.221
34.173
34.126
34.08
34.036
33.993
33.952
33.911
33.872
33.833
33.794
33.756
33.719
33.682
33.645
33.61
33.575
33.541
33.508
33.475
33.443
33.41
33.377
33.345
33.312
33.279
33.247
33.214
33.182
33.151
33.121
33.092
33.064
33.037
33.011
32.985
32.959
32.934
32.909
32.885
32.861
32.838
32.815
32.79
32.765
32.739
32.711
32.683
32.653
32.622
32.59
32.556
32.52
32.482
32.443
32.402
32.361
32.318
32.275
32.232
32.187
32.142
32.095
32.048
32.001
31.953
31.906
31.86
31.816
31.772
31.73
31.69
31.653
31.619
31.589
31.566
31.552
31.549
31.561
31.591
31.643
31.722
31.83
31.972
32.149
32.361
32.61
32.895
33.213
33.562
33.938
34.336
34.751
35.178
35.611
36.043
36.47
36.885
37.284
37.662
38.014
38.337
38.629
38.89
39.117
39.311
39.474
39.605
39.708
39.783
39.834
39.863
39.871
39.862
39.839
39.802
39.756
39.701
39.64
39.572
39.501
39.426
39.348
39.27
39.191
39.113
39.037
38.962
38.889
38.819
38.752
38.686
38.623
38.559
38.496
38.431
38.366
38.298
38.228
38.156
38.082
38.007
37.93
37.855
37.78
37.708
37.638
37.573
37.513
37.459
37.411
37.37
37.336
37.309
37.29
37.279
37.275
37.277
37.286
37.3
37.317
37.337
37.357
37.377
37.396
37.412
37.426
37.436
37.442
37.444
37.442
37.435
37.424
37.407
37.386
37.359
37.326
37.289
37.246
37.199
37.147
37.09
37.029
36.963
36.893
36.82
36.744
36.665
36.585
36.504
36.421
36.336
36.251
36.165
36.078
35.99
35.901
35.811
35.721
35.632
35.545
35.459
35.375
35.292
35.212
35.133
35.055
34.979
34.904
34.83
34.758
34.686
34.615
34.545
34.475
34.407
34.34
34.275
34.212
34.152
34.094
34.039
33.986
33.936
33.888
33.844
33.802
33.762
33.723
33.685
33.648
33.611
33.575
33.541
33.507
33.474
33.442
33.411
33.38
33.35
33.319
33.289
33.26
33.231
33.203
33.175
33.149
33.122
33.097
33.072
33.048
33.025
33.004
32.983
32.962
32.942
32.922
32.901
32.879
32.857
32.835
32.811
32.785
32.758
32.729
32.698
32.664
32.629
32.591
32.551
32.51
32.466
32.42
32.374
32.327
32.281
32.235
32.189
32.144
32.099
32.054
32.01
31.967
31.925
31.886
31.852
31.824
31.804
31.796
31.801
31.824
31.867
31.934
32.028
32.151
32.304
32.489
32.707
32.955
33.234
33.539
33.869
34.218
34.582
34.955
35.332
35.707
36.076
36.434
36.776
37.098
37.397
37.67
37.916
38.133
38.322
38.482
38.613
38.719
38.798
38.854
38.888
38.901
38.896
38.875
38.841
38.794
38.738
38.674
38.604
38.529
38.449
38.367
38.283
38.199
38.115
38.032
37.952
37.873
37.797
37.722
37.65
37.578
37.507
37.435
37.362
37.288
37.211
37.132
37.049
36.965
36.88
36.794
36.71
36.629
36.552
36.48
36.416
36.358
36.31
36.269
36.238
36.216
36.202
36.197
36.2
36.21
36.225
36.245
36.268
36.293
36.317
36.342
36.364
36.383
36.399
36.41
36.416
36.417
36.413
36.403
36.386
36.364
36.336
36.303
36.265
36.224
36.178
36.129
36.076
36.019
35.958
35.893
35.825
35.754
35.68
35.603
35.523
35.44
35.356
35.27
35.182
35.095
35.006
34.918
34.829
34.741
34.653
34.565
34.477
34.391
34.305
34.222
34.14
34.061
33.984
33.909
33.838
33.769
33.702
33.638
33.575
33.514
33.454
33.394
33.335
33.277
33.22
33.164
33.109
33.055
33.002
32.951
32.901
32.851
32.803
32.756
32.71
32.665
32.621
32.577
32.534
32.491
32.45
32.409
32.37
32.332
32.295
32.26
32.226
32.192
32.16
32.129
32.098
32.068
32.039
32.01
31.98
31.95
31.918
31.887
31.854
31.821
31.788
31.753
31.716
31.678
31.638
31.596
31.553
31.509
31.464
31.417
31.37
31.322
31.273
31.224
31.176
31.129
31.083
31.04
30.999
30.962
30.928
30.9
30.879
30.868
30.868
30.884
30.916
30.969
31.043
31.14
31.263
31.412
31.587
31.788
32.013
32.26
32.527
32.808
33.102
33.403
33.707
34.01
34.307
34.595
34.869
35.126
35.364
35.579
35.77
35.937
36.08
36.198
36.292
36.364
36.414
36.445
36.458
36.455
36.439
36.411
36.373
36.327
36.274
36.216
36.155
36.09
36.023
35.955
35.886
35.817
35.747
35.678
35.609
35.54
35.473
35.406
35.339
35.272
35.205
35.137
35.07
35.004
34.939
34.874
34.81
34.747
34.686
34.627
34.571
34.519
34.471
34.426
34.387
34.353
34.324
34.301
34.283
34.271
34.264
34.261
34.261
34.264
34.268
34.272
34.276
34.278
34.278
34.275
34.269
34.258
34.244
34.226
34.205
34.181
34.153
34.124
34.093
34.061
34.028
33.994
33.961
33.928
33.896
33.863
33.829
33.795
33.758
33.72
33.679
33.636
33.591
33.543
33.491
33.436
33.378
33.317
33.253
33.186
33.118
33.049
32.979
32.908
32.837
32.765
32.694
32.624
32.556
32.49
32.426
32.365
32.307
32.251
32.197
32.145
32.095
32.048
32.002
31.958
31.915
31.873
31.833
31.793
31.754
31.717
31.681
31.647
31.613
31.579
31.545
31.512
31.477
31.441
31.405
31.369
31.333
31.297
31.261
31.226
31.191
31.157
31.124
31.092
31.061
31.032
31.004
30.977
30.951
30.926
30.903
30.88
30.859
30.839
30.819
30.8
30.78
30.76
30.739
30.717
30.695
30.673
30.651
30.629
30.607
30.585
30.564
30.542
30.52
30.498
30.476
30.454
30.431
30.407
30.383
30.357
30.33
30.302
30.272
30.24
30.207
30.174
30.14
30.107
30.073
30.038
30.004
29.968
29.933
29.897
29.862
29.829
29.798
29.77
29.746
29.73
29.722
29.726
29.743
29.777
29.83
29.905
30.002
30.124
30.269
30.438
30.629
30.841
31.069
31.312
31.567
31.828
32.093
32.358
32.617
32.869
33.108
33.332
33.54
33.729
33.9
34.05
34.179
34.288
34.377
34.447
34.5
34.536
34.558
34.567
34.565
34.554
34.535
34.51
34.483
34.453
34.423
34.392
34.363
34.334
34.307
34.282
34.259
34.238
34.218
34.201
34.185
34.17
34.156
34.143
34.131
34.121
34.11
34.1
34.089
34.077
34.062
34.046
34.028
34.006
33.983
33.957
33.93
33.902
33.875
33.847
33.82
33.794
33.771
33.751
33.735
33.722
33.713
33.708
33.706
33.708
33.713
33.72
33.73
33.741
33.754
33.766
33.778
33.79
33.8
33.807
33.812
33.814
33.812
33.808
33.8
33.789
33.776
33.76
33.742
33.72
33.695
33.668
33.637
33.603
33.567
33.529
33.489
33.448
33.405
33.362
33.317
33.272
33.226
33.179
33.133
33.086
33.039
32.992
32.943
32.894
32.843
32.793
32.741
32.69
32.638
32.586
32.534
32.484
32.434
32.386
32.34
32.297
32.258
32.221
32.188
32.158
32.13
32.105
32.081
32.057
32.035
32.011
31.988
31.964
31.939
31.914
31.888
31.862
31.837
31.811
31.787
31.763
31.739
31.715
31.69
31.665
31.64
31.614
31.59
31.566
31.543
31.521
31.5
31.48
31.459
31.439
31.418
31.397
31.376
31.355
31.336
31.317
31.298
31.279
31.261
31.242
31.223
31.204
31.186
31.168
31.15
31.134
31.118
31.102
31.086
31.07
31.054
31.038
31.022
31.007
30.991
30.976
30.96
30.943
30.926
30.908
30.889
30.869
30.848
30.826
30.802
30.777
30.751
30.723
30.695
30.667
30.639
30.611
30.585
30.562
30.541
30.525
30.514
30.511
30.516
30.533
30.563
30.609
30.673
30.756
30.859
30.982
31.124
31.284
31.462
31.655
31.862
32.078
32.302
32.528
32.755
32.979
33.197
33.406
33.604
33.788
33.957
34.109
34.243
34.359
34.457
34.536
34.597
34.642
34.671
34.687
34.692
34.688
34.676
34.66
34.639
34.616
34.592
34.566
34.541
34.516
34.492
34.47
34.45
34.433
34.418
34.405
34.394
34.385
34.377
34.371
34.367
34.363
34.36
34.356
34.35
34.343
34.334
34.323
34.31
34.294
34.277
34.256
34.234
34.209
34.183
34.156
34.13
34.105
34.083
34.064
34.048
34.036
34.028
34.024
34.024
34.029
34.037
34.048
34.062
34.077
34.093
34.11
34.126
34.142
34.158
34.172
34.185
34.196
34.204
34.21
34.212
34.212
34.209
34.203
34.194
34.183
34.169
34.153
34.134
34.113
34.09
34.065
34.038
34.009
33.978
33.947
33.914
33.881
33.848
33.814
33.779
33.745
33.71
33.674
33.639
33.603
33.567
33.531
33.495
33.46
33.425
33.39
33.356
33.323
33.29
33.259
33.228
33.198
33.169
33.14
33.113
33.086
33.061
33.035
33.01
32.985
32.961
32.936
32.913
32.89
32.869
32.849
32.83
32.812
32.796
32.78
32.764
32.75
32.737
32.724
32.713
32.702
32.691
32.681
32.67
32.658
32.645
32.633
32.62
32.607
32.593
32.579
32.565
32.552
32.539
32.526
32.513
32.5
32.486
32.472
32.457
32.442
32.425
32.408
32.39
32.372
32.355
32.338
32.322
32.307
32.293
32.28
32.266
32.253
32.24
32.227
32.213
32.2
32.186
32.171
32.155
32.138
32.12
32.101
32.081
32.061
32.041
32.02
31.998
31.975
31.952
31.929
31.907
31.885
31.863
31.842
31.821
31.801
31.781
31.764
31.751
31.741
31.736
31.736
31.742
31.755
31.775
31.804
31.844
31.897
31.965
32.049
32.151
32.27
32.406
32.559
32.726
32.907
33.098
33.297
33.502
33.709
33.916
34.118
34.316
34.505
34.684
34.851
35.004
35.142
35.264
35.37
35.459
35.533
35.592
35.638
35.67
35.691
35.702
35.704
35.698
35.687
35.67
35.648
35.624
35.597
35.57
35.542
35.515
35.489
35.466
35.444
35.424
35.407
35.391
35.377
35.364
35.353
35.343
35.333
35.323
35.313
35.303
35.292
35.281
35.268
35.254
35.238
35.221
35.204
35.186
35.169
35.154
35.141
35.13
35.123
35.118
35.117
35.119
35.124
35.133
35.146
35.16
35.177
35.196
35.215
35.236
35.257
35.279
35.302
35.324
35.346
35.365
35.383
35.399
35.412
35.422
35.429
35.433
35.434
35.432
35.427
35.419
35.408
35.394
35.378
35.358
35.336
35.312
35.286
35.257
35.227
35.195
35.161
35.125
35.089
35.051
35.014
34.976
34.94
34.903
34.868
34.834
34.801
34.769
34.739
34.71
34.681
34.653
34.625
34.598
34.571
34.545
34.52
34.495
34.47
34.446
34.422
34.399
34.375
34.352
34.328
34.303
34.279
34.253
34.228
34.202
34.177
34.152
34.129
34.107
34.086
34.067
34.049
34.033
34.018
34.003
33.99
33.976
33.962
33.948
33.933
33.919
33.904
33.89
33.877
33.865
33.853
33.842
33.831
33.821
33.811
33.801
33.791
33.782
33.773
33.764
33.755
33.746
33.737
33.729
33.722
33.716
33.711
33.707
33.702
33.697
33.692
33.686
33.679
33.67
33.66
33.648
33.633
33.616
33.596
33.574
33.551
33.527
33.501
33.476
33.45
33.425
33.401
33.379
33.359
33.34
33.324
33.31
33.297
33.288
33.28
33.275
33.274
33.279
33.29
33.308
33.336
33.375
33.425
33.488
33.565
33.656
33.761
33.88
34.013
34.159
34.316
34.483
34.658
34.837
35.02
35.202
35.381
35.555
35.721
35.879
36.027
36.164
36.288
36.398
36.493
36.574
36.641
36.694
36.734
36.762
36.779
36.787
36.784
36.774
36.756
36.732
36.703
36.669
36.633
36.594
36.555
36.517
36.478
36.441
36.405
36.37
36.338
36.309
36.282
36.257
36.235
36.214
36.194
36.176
36.158
36.141
36.124
36.107
36.089
36.071
36.053
36.034
36.015
35.997
35.979
35.963
35.949
35.939
35.933
35.932
35.937
35.946
35.96
35.978
35.999
36.023
36.048
36.075
36.102
36.129
36.155
36.179
36.2
36.219
36.234
36.246
36.255
36.259
36.26
36.256
36.248
36.237
36.222
36.203
36.182
36.157
36.131
36.102
36.071
36.039
36.005
35.971
35.937
35.901
35.865
35.828
35.791
35.753
35.714
35.675
35.635
35.595
35.556
35.516
35.477
35.439
35.401
35.365
35.33
35.296
35.264
35.232
35.202
35.173
35.144
35.117
35.091
35.064
35.038
35.012
34.986
34.96
34.934
34.909
34.883
34.857
34.832
34.806
34.781
34.757
34.734
34.711
34.689
34.668
34.648
34.628
34.608
34.589
34.571
34.552
34.534
34.515
34.495
34.475
34.455
34.436
34.417
34.398
34.379
34.36
34.34
34.319
34.296
34.271
34.245
34.219
34.192
34.167
34.142
34.12
34.099
34.079
34.062
34.047
34.032
34.017
34.003
33.989
33.974
33.959
33.942
33.925
33.906
33.886
33.863
33.838
33.81
33.781
33.75
33.718
33.686
33.653
33.62
33.588
33.556
33.524
33.494
33.464
33.436
33.409
33.385
33.363
33.344
33.329
33.321
33.321
33.33
33.351
