Trial 1:0back
35.06
35.051
35.039
35.026
35.012
34.997
34.982
34.966
34.949
34.933
34.916
34.9
34.884
34.868
34.853
34.838
34.825
34.813
34.803
34.795
34.79
34.787
34.788
34.79
34.793
34.796
34.797
34.796
34.792
34.786
34.778
34.768
34.757
34.746
34.737
34.729
34.724
34.721
34.719
34.719
34.719
34.719
34.718
34.715
34.71
34.703
34.695
34.686
34.674
34.66
34.644
34.625
34.606
34.587
34.57
34.554
34.54
34.528
34.519
34.514
34.512
34.515
34.521
34.53
34.54
34.55
34.559
34.564
34.567
34.565
34.56
34.551
34.539
34.524
34.506
34.487
34.466
34.446
34.429
34.414
34.402
34.391
34.383
34.375
34.367
34.361
34.354
34.348
34.342
34.335
34.327
34.317
34.307
34.295
34.284
34.272
34.261
34.25
34.241
34.231
34.222
34.213
34.205
34.199
34.194
34.192
34.191
34.192
34.194
34.196
34.199
34.201
34.202
34.201
34.198
34.193
34.186
34.179
34.171
34.163
34.157
34.151
34.147
34.144
34.141
34.138
34.135
34.132
34.13
34.129
34.13
34.132
34.136
34.14
34.145
34.149
34.152
34.154
34.153
34.149
34.142
34.133
34.121
34.108
34.093
34.078
34.065
34.055
34.051
34.055
34.069
34.095
34.137
34.196
34.277
34.382
34.512
34.668
34.849
35.051
35.274
35.512
35.761
36.016
36.272
36.526
36.771
37.004
37.22
37.416
37.59
37.739
37.864
37.964
38.039
38.092
38.122
38.134
38.127
38.106
38.071
38.026
37.973
37.914
37.851
37.785
37.717
37.648
37.579
37.511
37.445
37.384
37.327
37.277
37.234
37.198
37.17
37.15
37.135
37.126
37.122
37.122
37.125
37.131
37.138
37.144
37.149
37.151
37.149
37.141
37.128
37.109
37.086
37.059
37.028
36.994
36.957
36.917
36.874
36.83
36.785
36.741
36.699
36.66
36.626
36.596
36.57
36.549
36.53
36.516
36.504
36.495
36.488
36.482
36.479
36.477
36.478
36.481
36.485
36.491
36.498
36.504
36.51
36.514
36.515
36.513
36.507
36.499
36.489
36.477
36.464
36.448
36.432
36.415
36.398
36.38
36.362
36.343
36.324
36.305
36.285
36.266
36.246
36.225
36.203
36.18
36.155
36.129
36.101
36.072
36.044
36.016
35.99
35.966
35.942
35.92
35.898
35.878
35.858
35.841
35.825
35.809
35.793
35.778
35.762
35.746
35.731
35.717
35.703
35.689
35.675
35.66
35.643
35.624
35.602
35.579
35.555
35.531
35.509
35.487
35.466
35.446
35.427
35.411
35.398
35.388
35.38
35.375
35.37
35.366
35.362
35.359
35.356
35.355
35.354
35.354
35.355
35.356
35.356
35.355
35.353
35.351
35.347
35.343
35.338
35.331
35.323
35.314
35.303
35.291
35.278
35.264
35.249
35.232
35.215
35.197
35.18
35.164
35.15
35.139
35.132
35.127
35.123
35.121
35.116
35.109
35.1
35.088
35.074
35.057
35.038
35.017
34.996
34.976
34.958
34.942
34.928
34.916
34.907
34.899
34.893
34.888
34.883
34.877
34.871
34.863
34.855
34.845
34.834
34.822
34.809
34.797
34.783
34.77
34.755
34.74
34.725
34.71
34.695
34.681
34.668
34.655
34.642
34.63
34.619
34.612
34.608
34.608
34.614
34.627
34.649
34.682
34.728
34.786
34.859
34.946
35.046
35.158
35.279
35.409
35.545
35.685
35.828
35.973
36.118
36.26
36.396
36.526
36.645
36.754
36.85
36.933
37.004
37.062
37.107
37.141
37.163
37.173
37.173
37.162
37.143
37.115
37.081
37.041
36.996
36.948
36.898
36.849
36.802
36.759
36.721
36.688
36.659
36.635
36.613
36.593
36.575
36.559
36.546
36.536
36.527
36.519
36.512
36.504
36.494
36.482
36.467
36.449
36.429
36.406
36.381
36.353
36.322
36.289
36.255
36.22
36.185
36.151
36.119
36.089
36.062
36.037
36.014
35.994
35.978
35.966
35.958
35.954
35.955
35.958
35.962
35.968
35.975
35.983
35.992
36.001
36.011
36.021
36.03
36.037
36.042
36.045
36.046
36.045
36.042
36.039
36.034
36.028
36.02
36.011
36.0
35.987
35.972
35.953
35.932
35.907
35.881
35.852
35.822
35.791
35.759
35.728
35.698
35.669
35.642
35.616
35.591
35.568
35.546
35.527
35.511
35.497
35.486
35.478
35.471
35.467
35.463
35.46
35.458
35.454
35.449
35.442
35.433
35.421
35.405
35.387
35.366
35.342
35.318
35.294
35.272
35.252
35.235
35.221
35.209
35.2
35.192
35.186
35.18
35.175
35.17
35.164
35.157
35.148
35.136
35.123
35.108
35.092
35.076
35.059
35.041
35.021
35.002
34.983
34.967
34.952
34.942
34.935
34.931
34.928
34.926
34.923
34.92
34.916
34.912
34.909
34.906
34.903
34.901
34.897
34.893
34.887
34.88
34.872
34.862
34.851
34.84
34.829
34.819
34.809
34.801
34.795
34.791
34.788
34.786
34.784
34.782
34.78
34.777
34.774
34.77
34.763
34.753
34.741
34.725
34.707
34.688
34.667
34.646
34.624
34.603
34.582
34.561
34.541
34.522
34.504
34.488
34.474
34.462
34.45
34.44
34.429
34.418
34.407
34.396
34.385
34.373
34.362
34.351
34.342
34.335
34.33
34.329
34.333
34.34
34.353
34.373
34.398
34.433
34.477
34.533
34.603
34.687
34.786
34.901
35.03
35.174
35.328
35.491
35.659
35.828
35.995
36.156
36.309
36.451
36.579
36.693
36.791
36.872
36.937
36.985
37.017
37.035
37.039
37.032
37.015
36.989
36.957
36.92
36.878
36.834
36.789
36.745
36.703
36.663
36.626
36.592
36.562
36.535
36.511
36.491
36.474
36.46
36.45
36.442
36.436
36.432
36.428
36.424
36.421
36.418
36.415
36.411
36.407
36.402
36.394
36.382
36.368
36.35
36.328
36.303
36.274
36.241
36.206
36.168
36.128
36.089
36.051
36.016
35.984
35.956
35.932
35.911
35.895
35.882
35.874
35.869
35.867
35.867
35.868
35.87
35.872
35.872
35.872
35.872
35.872
35.874
35.876
35.879
35.882
35.885
35.886
35.887
35.885
35.881
35.876
35.868
35.857
35.845
35.831
35.814
35.795
35.774
35.752
35.728
35.702
35.676
35.65
35.624
35.6
35.577
35.556
35.538
35.522
35.509
35.498
35.488
35.477
35.465
35.452
35.436
35.418
35.4
35.38
35.361
35.342
35.325
35.31
35.298
35.288
35.28
35.275
35.27
35.266
35.263
35.258
35.251
35.243
35.232
35.22
35.207
35.195
35.183
35.172
35.161
35.15
35.141
35.131
35.122
35.114
35.105
35.096
35.086
35.075
35.063
35.051
35.039
35.028
35.018
35.009
35.001
34.994
34.987
34.981
34.974
34.968
34.96
34.948
34.931
34.91
34.887
34.863
34.84
34.819
34.802
34.79
34.783
34.78
34.781
34.785
34.79
34.796
34.801
34.804
34.803
34.798
34.79
34.779
34.766
34.752
34.739
34.727
34.715
34.705
34.696
34.686
34.675
34.664
34.653
34.643
34.634
34.627
34.621
34.615
34.61
34.604
34.599
34.594
34.588
34.582
34.575
34.565
34.554
34.541
34.528
34.515
34.504
34.495
34.487
34.482
34.478
34.477
34.476
34.475
34.474
34.471
34.467
34.461
34.454
34.446
34.438
34.428
34.418
34.408
34.398
34.388
34.38
34.374
34.369
34.368
34.369
34.376
34.387
34.404
34.427
34.457
34.494
34.54
34.595
34.66
34.736
34.823
34.921
35.029
35.148
35.276
35.41
35.548
35.686
35.821
35.951
36.073
36.184
36.284
36.37
36.442
36.501
36.546
36.579
36.601
36.612
36.615
36.61
36.597
36.578
36.553
36.523
36.491
36.458
36.424
36.391
36.359
36.328
36.297
36.268
36.24
36.214
36.19
36.169
36.152
36.139
36.13
36.124
36.121
36.119
36.118
36.118
36.117
36.114
36.107
36.096
36.081
36.062
36.04
36.016
35.992
35.968
35.946
35.924
35.902
35.879
35.855
35.829
35.802
35.775
35.748
35.721
35.695
35.669
35.645
35.623
35.604
35.588
35.575
35.566
35.56
35.559
35.561
35.565
35.573
35.582
35.594
35.606
35.618
35.629
35.638
35.644
35.646
35.644
35.639
35.63
35.62
35.608
35.595
35.582
35.569
35.556
35.545
35.533
35.521
35.509
35.496
35.483
35.469
35.454
35.438
35.421
35.404
35.386
35.366
35.346
35.325
35.304
35.283
35.264
35.246
35.231
35.217
35.205
35.195
35.186
35.177
35.166
35.154
35.14
35.123
35.106
35.091
35.077
35.065
35.056
35.049
35.042
35.035
35.028
35.02
35.01
34.998
34.984
34.968
34.95
34.931
34.912
34.893
34.876
34.86
34.848
34.837
34.828
34.822
34.818
34.817
34.817
34.82
34.823
34.826
34.828
34.828
34.827
34.821
34.813
34.803
34.791
34.777
34.763
34.749
34.734
34.72
34.707
34.697
34.69
34.684
34.68
34.675
34.669
34.662
34.653
34.643
34.632
34.621
34.61
34.6
34.592
34.584
34.579
34.575
34.571
34.569
34.566
34.561
34.555
34.548
34.538
34.528
34.517
34.508
34.499
34.49
34.483
34.475
34.469
34.463
34.457
34.451
34.443
34.435
34.427
34.42
34.415
34.411
34.408
34.407
34.406
34.405
34.403
34.399
34.394
34.386
34.377
34.367
34.355
34.343
34.33
34.317
34.305
34.293
34.281
34.269
34.256
34.242
34.227
34.213
34.2
34.188
34.177
34.168
34.161
34.156
34.152
34.149
34.146
34.142
34.138
34.134
34.13
34.129
34.131
34.139
34.155
34.18
34.216
34.263
34.322
34.393
34.473
34.563
34.661
34.766
34.874
34.985
35.095
35.204
35.309
35.41
35.506
35.597
35.68
35.756
35.824
35.883
35.934
35.976
36.009
36.033
36.048
36.053
36.05
36.039
36.02
35.997
35.97
35.942
35.913
35.885
35.858
35.832
35.807
35.784
35.764
35.745
35.729
35.714
35.702
35.691
35.681
35.672
35.662
35.653
35.642
35.632
35.62
35.607
35.592
35.575
35.559
35.542
35.528
35.515
35.503
35.491
35.478
35.465
35.45
35.433
35.415
35.396
35.375
35.354
35.331
35.308
35.285
35.263
35.244
35.228
35.216
35.209
35.204
35.201
35.201
35.202
35.205
35.21
35.217
35.225
35.235
35.246
35.257
35.268
35.279
35.287
35.294
35.298
35.299
35.298
35.295
35.29
35.282
35.273
35.263
35.251
35.239
35.225
35.21
35.195
35.178
35.16
35.143
35.127
35.111
35.096
35.082
35.07
35.058
35.047
35.035
35.024
35.013
35.001
34.989
34.976
34.958
34.936
34.91
34.882
34.853
34.826
34.803
34.786
34.774
34.767
34.765
34.767
34.772
34.779
34.786
34.793
34.8
34.805
34.809
34.812
34.812
34.81
34.807
34.803
34.798
34.792
34.784
34.774
34.763
34.75
34.737
34.723
34.71
34.699
34.69
34.681
34.674
34.669
34.665
34.664
34.663
34.664
34.665
34.665
34.665
34.664
34.662
34.659
34.657
34.656
34.655
34.655
34.655
34.654
34.652
34.649
34.645
34.639
34.632
34.623
34.611
34.597
34.582
34.566
34.553
34.542
34.534
34.53
34.528
34.529
34.53
34.532
34.533
34.532
34.531
34.527
34.522
34.514
34.504
34.491
34.476
34.462
34.448
34.436
34.426
34.417
34.411
34.405
34.401
34.399
34.398
34.398
34.398
34.397
34.397
34.396
34.394
34.391
34.387
34.381
34.373
34.363
34.351
34.338
34.324
34.309
34.293
34.277
34.262
34.249
34.238
34.228
34.22
34.214
34.21
34.206
34.202
34.199
34.195
34.191
34.186
34.181
34.176
34.172
34.168
34.167
34.169
34.174
34.185
34.204
34.23
34.267
34.314
34.373
34.445
34.528
34.621
34.723
34.831
34.942
35.056
35.17
35.283
35.393
35.498
35.597
35.687
35.768
35.838
35.897
35.945
35.981
36.007
36.023
36.029
36.027
36.017
36.001
35.979
35.953
35.924
35.893
35.859
35.825
35.791
35.758
35.728
35.702
35.679
35.66
35.644
35.631
35.62
35.611
35.602
35.595
35.588
35.583
35.579
35.576
35.573
35.569
35.564
35.557
35.549
35.539
35.526
35.51
35.492
35.472
35.45
35.428
35.405
35.382
35.36
35.339
35.319
35.299
35.28
35.262
35.245
35.23
35.218
35.208
35.2
35.195
35.192
35.192
35.194
35.198
35.203
35.21
35.219
35.229
35.24
35.251
35.263
35.274
35.285
35.294
35.302
35.308
35.312
35.313
35.312
35.308
35.302
35.294
35.284
35.274
35.261
35.248
35.234
35.22
35.207
35.194
35.182
35.171
35.161
35.151
35.142
35.132
35.121
35.108
35.093
35.076
35.059
35.04
35.022
35.004
34.988
34.973
34.959
34.946
34.934
34.922
34.911
34.9
34.889
34.879
34.869
34.859
34.851
34.843
34.834
34.826
34.816
34.804
34.792
34.778
34.764
34.751
34.74
34.732
34.727
34.725
34.725
34.728
34.732
34.737
34.743
34.75
34.759
34.769
34.778
34.788
34.798
34.81
34.824
34.842
34.864
34.89
34.922
34.958
34.998
35.041
35.086
35.132
35.178
35.223
35.268
35.31
35.351
35.389
35.424
35.456
35.487
35.516
35.543
35.566
35.586
35.6
35.609
35.613
35.611
35.606
35.596
35.583
35.567
35.549
35.529
35.508
35.487
35.466
35.446
35.426
35.407
35.387
35.366
35.344
35.32
35.295
35.268
35.239
35.209
35.178
35.145
35.111
35.076
35.04
35.004
34.968
34.934
34.903
34.875
34.853
34.835
34.823
34.815
34.811
34.811
34.815
34.821
34.829
34.838
34.849
34.862
34.877
34.894
34.913
34.934
34.957
34.981
35.005
35.028
35.05
35.069
35.085
35.097
35.106
35.11
35.109
35.105
35.097
35.086
35.073
35.061
35.049
35.038
35.028
35.018
35.008
34.998
34.987
34.976
34.963
34.949
34.934
34.919
34.904
34.888
34.872
34.856
34.839
34.824
34.81
34.798
34.786
34.776
34.768
34.763
34.762
34.766
34.773
34.784
34.795
34.805
34.813
34.818
34.818
34.813
34.803
34.789
34.771
34.749
34.724
34.697
34.669
34.643
34.618
34.597
34.58
34.565
34.554
34.546
34.542
34.542
34.545
34.551
34.558
34.564
34.568
34.571
34.571
34.569
34.565
34.561
34.556
34.551
34.546
34.542
34.538
34.535
34.533
34.532
34.533
34.534
34.536
34.537
34.538
34.538
34.537
34.535
34.532
34.527
34.52
34.512
34.502
34.491
34.48
34.469
34.458
34.449
34.441
34.436
34.434
34.433
34.435
34.437
34.44
34.442
34.443
34.442
34.438
34.433
34.426
34.417
34.407
34.397
34.386
34.374
34.364
34.354
34.347
34.341
34.336
34.335
34.335
34.337
34.34
34.344
34.348
34.352
34.355
34.356
34.356
34.356
34.355
34.353
34.349
34.345
34.339
34.332
34.326
34.319
34.311
34.302
34.292
34.28
34.269
34.258
34.248
34.239
34.232
34.227
34.223
34.219
34.217
34.214
34.212
34.21
34.208
34.206
34.205
34.204
34.204
34.204
34.205
34.207
34.21
34.213
34.216
34.218
34.218
34.217
34.214
34.21
34.205
34.199
34.192
34.186
34.181
34.177
34.175
34.176
34.179
34.184
34.19
34.196
34.2
34.204
34.207
34.209
34.209
34.209
34.207
34.205
34.204
34.203
34.203
34.204
34.204
34.203
34.199
34.193
34.184
34.172
34.158
34.143
34.129
34.117
34.108
34.103
34.104
34.111
34.128
34.154
34.192
34.242
34.306
34.385
34.481
34.593
34.721
34.865
35.024
35.193
35.371
35.554
35.738
35.919
36.092
36.254
36.402
36.534
36.649
36.745
36.823
36.882
36.922
36.946
36.955
36.95
36.933
36.905
36.868
36.823
36.773
36.72
36.665
36.61
36.555
36.501
36.45
36.402
36.357
36.316
36.278
36.244
36.216
36.192
36.174
36.161
36.154
36.151
36.151
36.154
36.157
36.16
36.161
36.16
36.157
36.152
36.144
36.133
36.12
36.104
36.086
36.066
36.045
36.023
36.002
35.98
35.96
35.941
35.924
35.908
35.893
35.879
35.867
35.855
35.844
35.832
35.82
35.807
35.793
35.779
35.766
35.754
35.744
35.734
35.725
35.717
35.711
35.705
35.7
35.697
35.693
35.69
35.686
35.682
35.678
35.674
35.669
35.664
35.66
35.656
35.65
35.644
35.636
35.627
35.617
35.606
35.595
35.583
35.571
35.559
35.546
35.533
35.521
35.509
35.5
35.49
35.48
35.47
35.459
35.447
35.433
35.417
35.4
35.382
35.364
35.345
35.326
35.307
35.287
35.267
35.246
35.226
35.206
35.186
35.167
35.151
35.137
35.127
35.121
35.119
35.121
35.124
35.128
35.133
35.135
35.136
35.133
35.128
35.124
35.121
35.119
35.118
35.117
35.114
35.111
35.105
35.099
35.091
35.082
35.072
35.061
35.049
35.036
35.023
35.01
34.997
34.984
34.972
34.961
34.951
34.941
34.93
34.918
34.905
34.892
34.878
34.865
34.853
34.844
34.836
34.831
34.829
34.828
34.83
34.832
34.834
34.835
34.835
34.834
34.833
34.83
34.827
34.824
34.82
34.815
34.808
34.799
34.787
34.773
34.758
34.742
34.727
34.713
34.701
34.692
34.684
34.679
34.676
34.675
34.677
34.679
34.681
34.68
34.678
34.672
34.664
34.654
34.643
34.632
34.62
34.609
34.599
34.592
34.586
34.583
34.583
34.585
34.587
34.589
34.59
34.591
34.591
34.59
34.588
34.586
34.583
34.579
34.573
34.566
34.556
34.545
34.533
34.52
34.507
34.495
34.486
34.48
34.477
34.477
34.48
34.484
34.488
34.493
34.498
34.501
34.501
34.497
34.49
34.479
34.464
34.448
34.43
34.411
34.393
34.377
34.363
34.352
34.345
34.342
34.345
34.355
34.373
34.401
34.441
34.495
34.564
34.65
34.751
34.868
34.998
35.138
35.284
35.433
35.582
35.728
35.868
36.001
36.125
36.239
36.342
36.433
36.511
36.576
36.627
36.666
36.692
36.706
36.709
36.702
36.684
36.656
36.621
36.581
36.537
36.493
36.449
36.407
36.365
36.325
36.286
36.25
36.216
36.186
36.159
36.136
36.116
36.099
36.084
36.07
36.058
36.047
36.039
36.034
36.031
36.03
36.03
36.03
36.03
36.029
36.028
36.025
36.022
36.016
36.007
35.996
35.981
35.963
35.944
35.921
35.897
35.871
35.843
35.814
35.785
35.755
35.726
35.699
35.675
35.654
35.636
35.622
35.611
35.603
35.599
35.597
35.598
35.602
35.607
35.613
35.62
35.628
35.637
35.647
35.657
35.666
35.675
35.683
35.689
35.694
35.697
35.697
35.694
35.688
35.679
35.668
35.654
35.638
35.621
35.604
35.588
35.574
35.56
35.546
35.533
35.519
35.505
35.489
35.473
35.456
35.439
35.421
35.4
35.375
35.348
35.318
35.288
35.258
35.23
35.205
35.184
35.167
35.154
35.146
35.141
35.141
35.144
35.149
35.155
35.162
35.169
35.174
35.177
35.177
35.174
35.167
35.156
35.143
35.127
35.111
35.096
35.082
35.07
35.06
35.051
35.045
35.041
35.038
35.036
35.034
35.03
35.025
35.02
35.014
35.009
35.004
35.0
34.997
34.994
34.991
34.987
34.983
34.979
34.975
34.972
34.969
34.966
34.962
34.959
34.955
34.951
34.948
34.944
34.94
34.934
34.927
34.918
34.908
34.896
34.884
34.874
34.864
34.856
34.85
34.846
34.845
34.845
34.847
34.849
34.852
34.853
34.852
34.847
34.839
34.828
34.813
34.797
34.779
34.76
34.74
34.719
34.699
34.679
34.661
34.645
34.633
34.623
34.618
34.616
34.617
34.622
34.629
34.636
34.642
34.647
34.649
34.648
34.645
34.639
34.631
34.621
34.611
34.602
34.594
34.587
34.583
34.579
34.577
34.575
34.572
34.569
34.565
34.56
34.553
34.546
34.539
34.532
34.526
34.521
34.517
34.514
34.512
34.511
34.51
34.509
34.507
34.506
34.506
34.506
34.509
34.513
34.519
34.524
34.529
34.531
34.531
34.528
34.523
34.513
34.501
34.485
34.467
34.449
34.432
34.419
34.41
34.407
34.411
34.423
34.445
34.479
34.526
34.588
34.665
34.758
34.866
34.989
35.125
35.271
35.423
35.578
35.734
35.887
36.034
36.173
36.301
36.416
36.515
36.6
36.67
36.726
36.768
36.798
36.815
36.821
36.817
36.803
36.781
36.752
36.716
36.674
36.629
36.58
36.53
36.478
36.427
36.379
36.332
36.29
36.252
36.219
36.19
36.165
36.144
36.127
36.115
36.107
36.103
36.101
36.101
36.103
36.105
36.108
36.109
36.11
36.108
36.104
36.098
36.091
36.081
36.069
36.055
36.038
36.019
35.999
35.976
35.952
35.925
35.896
35.865
35.832
35.799
35.766
35.734
35.702
35.673
35.646
35.624
35.606
35.593
35.586
35.584
35.587
35.594
35.606
35.62
35.637
35.654
35.67
35.686
35.7
35.713
35.723
35.731
35.736
35.738
35.737
35.734
35.729
35.723
35.716
35.708
35.698
35.686
35.673
35.658
35.641
35.622
35.603
35.583
35.563
35.544
35.524
35.504
35.482
35.46
35.438
35.417
35.396
35.376
35.358
35.342
35.327
35.314
35.302
35.292
35.282
35.272
35.261
35.249
35.236
35.222
35.209
35.196
35.184
35.175
35.168
35.163
35.159
35.156
35.154
35.151
35.149
35.146
35.143
35.139
35.134
35.127
35.119
35.11
35.101
35.093
35.086
35.08
35.074
35.068
35.063
35.06
35.058
35.058
35.06
35.062
35.065
35.068
35.07
35.071
35.071
35.068
35.062
35.054
35.044
35.031
35.017
35.002
34.987
34.972
34.96
34.949
34.941
34.936
34.932
34.93
34.93
34.931
