Trial 1:0back
36.25
36.598
36.946
37.29
37.625
37.947
38.25
38.53
38.784
39.007
39.198
39.355
39.477
39.565
39.619
39.639
39.629
39.592
39.529
39.444
39.341
39.223
39.093
38.954
38.809
38.659
38.508
38.357
38.207
38.06
37.916
37.775
37.637
37.502
37.371
37.243
37.118
36.996
36.876
36.759
36.644
36.532
36.422
36.314
36.207
36.101
35.997
35.895
35.796
35.7
35.607
35.517
35.431
35.35
35.275
35.204
35.139
35.08
35.027
34.979
34.938
34.903
34.873
34.849
34.83
34.817
34.81
34.808
34.81
34.816
34.825
34.837
34.85
34.865
34.88
34.894
34.906
34.917
34.925
34.93
34.932
34.931
34.928
34.922
34.915
34.906
34.896
34.886
34.876
34.865
34.853
34.839
34.822
34.804
34.783
34.759
34.731
34.7
34.665
34.627
34.585
34.541
34.494
34.446
34.399
34.352
34.306
34.262
34.22
34.181
34.145
34.111
34.078
34.046
34.015
33.985
33.954
33.922
33.889
33.856
33.823
33.791
33.76
33.731
33.704
33.678
33.653
33.629
33.606
33.584
33.562
33.54
33.518
33.496
33.473
33.451
33.428
33.406
33.383
33.362
33.342
33.323
33.306
33.291
33.276
33.263
33.252
33.241
33.232
33.223
33.216
33.213
33.214
33.221
33.237
33.262
33.3
33.354
33.425
33.517
33.63
33.768
33.932
34.123
34.34
34.584
34.852
35.142
35.453
35.779
36.117
36.461
36.807
37.147
37.475
37.787
38.076
38.338
38.571
38.77
38.935
39.065
39.16
39.222
39.251
39.25
39.222
39.169
39.094
38.999
38.889
38.767
38.634
38.493
38.346
38.196
38.045
37.893
37.742
37.593
37.448
37.306
37.168
37.034
36.905
36.78
36.658
36.54
36.424
36.31
36.198
36.088
35.98
35.872
35.767
35.664
35.562
35.464
35.368
35.276
35.189
35.106
35.028
34.957
34.891
34.833
34.782
34.738
34.702
34.673
34.651
34.636
34.626
34.622
34.623
34.628
34.638
34.651
34.666
34.684
34.705
34.728
34.752
34.778
34.806
34.836
34.868
34.899
34.929
34.957
34.982
35.001
35.015
35.024
35.027
35.025
35.017
35.004
34.987
34.965
34.94
34.911
34.88
34.847
34.811
34.774
34.736
34.699
34.663
34.626
34.59
34.554
34.517
34.48
34.444
34.408
34.373
34.338
34.303
34.269
34.235
34.201
34.167
34.134
34.1
34.067
34.034
34.002
33.971
33.941
33.911
33.882
33.854
33.827
33.801
33.777
33.753
33.73
33.708
33.686
33.665
33.644
33.624
33.603
33.581
33.559
33.538
33.517
33.496
33.477
33.461
33.447
33.437
33.429
33.423
33.421
33.423
33.431
33.444
33.466
33.498
33.543
33.604
33.684
33.783
33.904
34.049
34.22
34.415
34.636
34.88
35.146
35.432
35.735
36.051
36.374
36.702
37.029
37.349
37.657
37.948
38.218
38.463
38.679
38.864
39.017
39.137
39.224
39.279
39.304
39.301
39.27
39.216
39.14
39.046
38.937
38.816
38.686
38.549
38.408
38.264
38.119
37.974
37.83
37.687
37.547
37.41
37.274
37.14
37.008
36.878
36.75
36.623
36.499
36.378
36.26
36.145
36.033
35.923
35.817
35.714
35.615
35.518
35.425
35.336
35.25
35.171
35.096
35.028
34.966
34.912
34.864
34.823
34.789
34.761
34.739
34.722
34.71
34.703
34.699
34.7
34.704
34.712
34.724
34.739
34.756
34.775
34.796
34.817
34.839
34.859
34.877
34.893
34.907
34.918
34.925
34.928
34.928
34.925
34.918
34.909
34.897
34.883
34.866
34.847
34.825
34.802
34.777
34.75
34.724
34.698
34.672
34.647
34.621
34.595
34.568
34.539
34.508
34.474
34.438
34.4
34.361
34.321
34.279
34.235
34.191
34.147
34.103
34.059
34.017
33.976
33.936
33.898
33.862
33.828
33.795
33.763
33.734
33.707
33.682
33.657
33.635
33.613
33.593
33.574
33.555
33.537
33.519
33.502
33.485
33.468
33.451
33.435
33.42
33.406
33.394
33.384
33.377
33.372
33.372
33.377
33.388
33.407
33.437
33.479
33.535
33.61
33.704
33.82
33.958
34.121
34.311
34.528
34.772
35.043
35.339
35.658
35.993
36.342
36.699
37.057
37.41
37.752
38.077
38.379
38.654
38.898
39.109
39.285
39.424
39.527
39.595
39.63
39.634
39.61
39.561
39.491
39.403
39.301
39.187
39.065
38.937
38.805
38.671
38.535
38.398
38.262
38.127
37.993
37.861
37.731
37.603
37.478
37.355
37.235
37.118
37.003
36.892
36.782
36.673
36.567
36.461
36.357
36.254
36.152
36.051
35.95
35.85
35.752
35.656
35.563
35.475
35.393
35.319
35.253
35.194
35.143
35.099
35.062
35.031
35.005
34.985
34.969
34.958
34.951
34.948
34.947
34.95
34.954
34.961
34.97
34.98
34.991
35.002
35.013
35.023
35.031
35.038
35.042
35.045
35.044
35.042
35.036
35.028
35.018
35.005
34.989
34.97
34.95
34.927
34.903
34.877
34.85
34.821
34.79
34.758
34.724
34.688
34.651
34.613
34.573
34.532
34.49
34.448
34.405
34.361
34.317
34.273
34.228
34.183
34.139
34.095
34.053
34.013
33.975
33.939
33.904
33.871
33.84
33.81
33.784
33.759
33.736
33.716
33.696
33.678
33.66
33.642
33.623
33.604
33.585
33.563
33.541
33.517
33.492
33.466
33.44
33.414
33.389
33.365
33.344
33.325
33.31
33.299
33.294
33.297
33.309
33.331
33.367
33.417
33.484
33.569
33.676
33.805
33.957
34.134
34.336
34.563
34.815
35.091
35.388
35.705
36.037
36.379
36.727
37.075
37.418
37.751
38.066
38.36
38.628
38.867
39.075
39.25
39.391
39.5
39.576
39.62
39.634
39.62
39.582
39.521
39.44
39.341
39.227
39.102
38.967
38.825
38.679
38.529
38.379
38.229
38.08
37.933
37.79
37.651
37.518
37.389
37.265
37.145
37.03
36.917
36.805
36.695
36.586
36.479
36.372
36.265
36.159
36.054
35.95
35.846
35.745
35.646
35.55
35.458
35.37
35.287
35.21
35.14
35.077
35.021
34.971
34.929
34.893
34.864
34.842
34.826
34.815
34.811
34.811
34.816
34.824
34.834
34.846
34.86
34.875
34.892
34.914
34.941
34.97
35.0
35.028
35.052
35.071
35.083
35.086
35.082
35.069
35.048
35.021
34.989
34.953
34.913
34.872
34.83
34.788
34.746
34.706
34.667
34.629
34.592
34.557
34.524
34.491
34.458
34.425
34.39
34.354
34.317
34.279
34.241
34.201
34.162
34.122
34.082
34.043
34.002
33.96
33.919
33.88
33.842
33.805
33.77
33.735
33.702
33.67
33.64
33.609
33.579
33.549
33.52
33.493
33.467
33.443
33.42
33.399
33.379
33.362
33.345
33.329
33.315
33.301
33.288
33.276
33.264
33.251
33.239
33.228
33.218
33.209
33.201
33.195
33.191
33.189
33.19
33.197
33.209
33.229
33.258
33.298
33.352
33.421
33.51
33.619
33.749
33.904
34.083
34.287
34.518
34.774
35.054
35.357
35.678
36.013
36.358
36.705
37.048
37.382
37.702
38.0
38.273
38.517
38.729
38.907
39.05
39.158
39.231
39.272
39.283
39.266
39.224
39.16
39.077
38.979
38.868
38.747
38.618
38.483
38.344
38.201
38.055
37.904
37.747
37.587
37.424
37.263
37.105
36.954
36.81
36.675
36.55
36.434
36.328
36.23
36.139
36.053
35.97
35.89
35.811
35.732
35.653
35.575
35.499
35.424
35.351
35.279
35.21
35.145
35.084
35.028
34.977
34.931
34.89
34.854
34.824
34.8
34.781
34.767
34.759
34.755
34.755
34.758
34.765
34.774
34.785
34.799
34.816
34.835
34.855
34.875
34.896
34.916
34.935
34.952
34.967
34.979
34.988
34.993
34.994
34.99
34.982
34.967
34.948
34.924
34.896
34.863
34.826
34.786
34.745
34.702
34.657
34.611
34.564
34.518
34.472
34.427
34.382
34.338
34.296
34.256
34.219
34.183
34.15
34.119
34.09
34.063
34.038
34.014
33.99
33.967
33.944
33.921
33.897
33.873
33.848
33.822
33.795
33.766
33.737
33.707
33.676
33.646
33.616
33.588
33.561
33.538
33.516
33.497
33.479
33.464
33.449
33.437
33.425
33.416
33.407
33.401
33.396
33.392
33.389
33.388
33.387
33.388
33.392
33.398
33.41
33.429
33.458
33.499
33.554
33.627
33.719
33.834
33.972
34.134
34.322
34.534
34.771
35.031
35.312
35.61
35.923
36.244
36.569
36.894
37.212
37.518
37.807
38.073
38.313
38.524
38.703
38.849
38.961
39.039
39.085
39.102
39.09
39.054
38.996
38.919
38.826
38.72
38.602
38.475
38.341
38.203
38.062
37.92
37.777
37.635
37.493
37.354
37.216
37.081
36.949
36.819
36.693
36.568
36.447
36.328
36.212
36.099
35.988
35.88
35.774
35.672
35.575
35.481
35.392
35.307
35.226
35.151
35.081
35.017
34.959
34.906
34.859
34.819
34.786
34.759
34.74
34.726
34.72
34.718
34.722
34.731
34.744
34.759
34.777
34.796
34.817
34.84
34.862
34.884
34.905
34.925
34.944
34.959
34.971
34.979
34.984
34.985
34.983
34.977
34.967
34.953
34.936
34.917
34.894
34.869
34.843
34.816
34.788
34.759
34.729
34.698
34.667
34.635
34.603
34.571
34.539
34.508
34.475
34.442
34.408
34.372
34.336
34.299
34.262
34.224
34.185
34.147
34.114
34.089
34.069
34.053
34.041
34.028
34.015
33.999
33.979
33.956
33.928
33.896
33.862
33.824
33.784
33.742
33.7
33.658
33.618
33.58
33.546
33.515
33.487
33.462
33.44
33.42
33.402
33.385
33.371
33.358
33.348
33.34
33.335
33.333
33.335
33.343
33.357
33.381
33.415
33.462
33.524
33.604
33.703
33.824
33.969
34.138
34.332
34.552
34.796
35.064
35.354
35.662
35.986
36.32
36.659
36.997
37.329
37.65
37.953
38.234
38.489
38.715
38.909
39.07
39.197
39.29
39.349
39.374
39.368
39.335
39.278
39.203
39.111
39.007
38.894
38.774
38.65
38.522
38.394
38.266
38.139
38.014
37.889
37.767
37.646
37.527
37.409
37.293
37.178
37.062
36.947
36.833
36.72
36.609
36.498
36.389
36.282
36.177
36.074
35.973
35.873
35.776
35.683
35.592
35.504
35.42
35.341
35.266
35.196
35.132
35.073
35.019
34.972
34.931
34.896
34.867
34.844
34.827
34.817
34.811
34.809
34.812
34.82
34.831
34.846
34.864
34.882
34.901
34.92
34.938
34.953
34.965
34.974
34.978
34.979
34.976
34.97
34.961
34.95
34.937
34.921
34.906
34.89
34.874
34.857
34.838
34.818
34.795
34.77
34.742
34.712
34.68
34.645
34.609
34.57
34.528
34.483
34.436
34.388
34.338
34.287
34.238
34.189
34.142
34.095
34.049
34.005
33.962
33.922
33.884
33.848
33.814
33.782
33.753
33.725
33.699
33.675
33.653
33.632
33.611
33.591
33.569
33.547
33.525
33.504
33.483
33.461
33.441
33.421
33.402
33.384
33.368
33.353
33.34
33.328
33.316
33.304
33.291
33.279
33.266
33.255
33.246
33.241
33.242
33.25
33.267
33.295
33.337
33.395
33.474
33.576
33.701
33.853
34.03
34.234
34.464
34.719
34.998
35.298
35.616
35.949
36.291
36.639
36.987
37.329
37.66
37.973
38.265
38.532
38.771
38.978
39.151
39.29
39.396
39.468
39.507
39.517
39.499
39.456
39.391
39.307
39.207
39.095
38.974
38.846
38.712
38.575
38.437
38.298
38.16
38.023
37.888
37.754
37.622
37.492
37.365
37.24
37.117
36.996
36.875
36.756
36.639
36.525
36.415
36.31
36.208
36.11
36.016
35.926
35.838
35.752
35.669
35.588
35.508
35.431
35.357
35.285
35.215
35.15
35.09
35.034
34.984
34.94
34.902
34.87
34.845
34.826
34.812
34.805
34.803
34.805
34.812
34.823
34.837
34.853
34.871
34.89
34.908
34.926
34.943
34.958
34.97
34.979
34.984
34.987
34.987
34.983
34.975
34.964
34.948
34.93
34.909
34.885
34.86
34.833
34.804
34.773
34.742
34.708
34.672
34.635
34.596
34.555
34.514
34.471
34.429
34.388
34.347
34.305
34.264
34.224
34.184
34.144
34.105
34.065
34.026
33.988
33.951
33.916
33.882
33.849
33.817
33.787
33.759
33.732
33.707
33.683
33.661
33.64
33.62
33.6
33.581
33.562
33.543
33.524
33.504
33.483
33.462
33.439
33.417
33.395
33.372
33.35
33.329
33.309
33.29
33.272
33.255
33.24
33.226
33.214
33.205
33.2
33.2
33.208
33.224
33.249
33.287
33.339
33.408
33.495
33.602
33.731
33.885
34.063
34.267
34.497
34.75
35.027
35.324
35.638
35.965
36.3
36.638
36.973
37.299
37.611
37.903
38.171
38.412
38.621
38.796
38.938
39.046
39.121
39.165
39.178
39.163
39.123
39.06
38.978
38.879
38.767
38.646
38.517
38.383
38.247
38.11
37.973
37.838
37.705
37.575
37.446
37.318
37.192
37.068
36.945
36.824
36.705
36.588
36.473
36.36
36.249
36.14
36.035
35.932
35.831
35.733
35.637
35.544
35.454
35.368
35.285
35.207
35.132
35.061
34.993
34.931
34.875
34.826
34.783
34.746
34.714
34.686
34.663
34.645
34.632
34.625
34.622
34.623
34.629
34.637
34.648
34.66
34.674
34.687
34.7
34.712
34.723
34.732
34.738
34.741
34.742
34.741
34.738
34.733
34.726
34.718
34.707
34.695
34.682
34.668
34.65
34.631
34.611
34.588
34.565
34.539
34.513
34.486
34.457
34.428
34.397
34.365
34.331
34.295
34.258
34.219
34.178
34.138
34.098
34.058
34.019
33.98
33.944
33.908
33.874
33.841
33.81
33.778
33.748
33.718
33.689
33.661
33.632
33.603
33.574
33.546
33.518
33.492
33.467
33.443
33.421
33.4
33.381
33.363
33.346
33.33
33.314
33.299
33.286
33.273
33.26
33.249
33.238
33.227
33.218
33.21
33.203
33.196
33.19
33.185
33.184
33.185
33.191
33.201
33.22
33.247
33.287
33.34
33.409
33.497
33.605
33.735
33.889
34.067
34.268
34.493
34.739
35.005
35.287
35.582
35.887
36.197
36.507
36.814
37.112
37.398
37.666
37.912
38.134
38.329
38.495
38.63
38.735
38.811
38.857
38.875
38.865
38.831
38.774
38.696
38.601
38.492
38.37
38.238
38.099
37.954
37.806
37.656
37.506
37.357
37.21
37.066
36.926
36.79
36.66
36.535
36.414
36.298
36.187
36.08
35.977
35.877
35.78
35.686
35.594
35.505
35.419
35.336
35.256
35.18
35.106
35.036
34.969
34.907
34.849
34.797
34.751
34.711
34.679
34.654
34.636
34.626
34.621
34.621
34.627
34.636
34.65
34.666
34.685
34.706
34.728
34.752
34.775
34.798
34.82
34.841
34.86
34.878
34.894
34.909
34.922
34.934
34.943
34.949
34.952
34.951
34.947
34.938
34.925
34.909
34.889
34.866
34.84
34.81
34.777
34.74
34.701
34.662
34.621
34.581
34.541
34.502
34.464
34.427
34.391
34.356
34.32
34.285
34.251
34.216
34.183
34.15
34.118
34.086
34.054
34.023
33.992
33.962
33.931
33.901
33.872
33.843
33.816
33.79
33.764
33.739
33.715
33.692
33.669
33.648
33.626
33.605
33.583
33.562
33.542
33.522
33.502
33.483
33.464
33.448
33.434
33.422
33.414
33.41
33.411
33.418
33.432
33.453
33.484
33.526
33.582
33.653
33.742
33.85
33.978
34.128
34.3
34.495
34.712
34.951
35.211
35.489
35.782
36.085
36.395
36.707
37.016
37.318
37.607
37.878
38.128
38.354
38.553
38.723
38.861
38.968
39.044
39.09
39.107
39.096
39.061
39.003
38.926
38.832
38.723
38.604
38.477
38.343
38.206
38.066
37.924
37.784
37.645
37.509
37.377
37.248
37.125
37.005
36.89
36.777
36.668
36.561
36.456
36.351
36.248
36.147
36.049
35.953
35.86
35.769
35.681
35.595
35.511
35.429
35.35
35.273
35.198
35.127
35.06
34.997
34.939
34.888
34.843
34.805
34.775
34.751
34.736
34.727
34.724
34.727
34.735
34.745
34.759
34.774
34.79
34.806
34.823
34.838
34.853
34.866
34.877
34.887
34.896
34.904
34.911
34.917
34.922
34.925
34.926
34.923
34.917
34.907
34.893
34.874
34.85
34.822
34.791
34.756
34.719
34.679
34.638
34.594
34.549
34.504
34.458
34.412
34.367
34.322
34.28
34.237
34.19
34.136
34.078
34.018
33.958
33.901
33.849
33.802
33.762
33.728
33.702
33.682
33.668
33.659
33.654
33.652
33.652
33.652
33.651
33.649
33.645
33.639
33.631
33.619
33.604
33.585
33.564
33.54
33.516
33.49
33.464
33.438
33.413
33.388
33.366
33.346
33.329
33.314
33.303
33.296
33.295
33.299
33.31
33.329
33.358
33.398
33.454
33.526
33.617
33.729
33.863
34.021
34.202
34.408
34.637
34.89
35.163
35.456
35.764
36.085
36.413
36.745
37.073
37.393
37.699
37.986
38.251
38.489
38.699
38.877
39.024
39.137
39.218
39.268
39.288
39.281
39.248
39.192
39.116
39.024
38.917
38.799
38.671
38.537
38.397
38.254
38.111
37.968
37.827
37.688
37.552
37.42
37.292
37.167
37.047
36.931
36.817
36.706
36.598
36.492
36.388
36.287
36.188
36.091
35.996
35.902
35.811
35.722
35.635
35.55
35.467
35.385
35.304
35.226
35.152
35.083
35.019
34.961
34.909
34.864
34.826
34.794
34.768
34.747
34.732
34.721
34.715
34.713
34.719
34.736
34.765
34.804
34.849
34.897
34.946
34.992
35.031
35.062
35.083
35.092
35.092
35.081
35.061
35.035
35.004
34.969
34.933
34.895
34.858
34.821
34.785
34.751
34.719
34.687
34.657
34.628
34.599
34.57
34.54
34.508
34.476
34.443
34.409
34.375
34.339
34.303
34.266
34.229
34.192
34.155
34.116
34.077
34.038
34.0
33.963
33.927
33.893
33.861
33.83
33.8
33.771
33.742
33.713
33.684
33.655
33.626
33.596
33.565
33.533
33.501
33.47
33.439
33.41
33.382
33.356
33.333
33.313
33.297
33.284
33.272
33.261
33.25
33.24
33.228
33.217
33.206
33.195
33.186
33.181
33.18
33.186
33.201
33.228
33.269
33.326
33.402
33.498
33.616
33.756
33.92
34.107
34.315
34.546
34.798
35.071
35.361
35.665
35.98
36.3
36.621
36.939
37.248
37.542
37.818
38.071
38.299
38.498
38.665
38.8
38.902
38.972
39.011
39.019
39.001
38.958
38.894
38.812
38.715
38.605
38.485
38.359
38.228
38.095
37.96
37.826
37.693
37.562
37.434
37.309
37.187
37.067
36.95
36.836
36.724
36.616
36.51
36.406
36.305
36.206
36.108
36.011
35.916
35.822
35.729
35.638
35.548
35.461
35.377
35.298
35.222
35.151
35.085
35.024
34.969
34.919
34.875
34.836
34.803
34.775
34.751
34.732
34.718
34.707
34.701
34.698
34.698
34.699
34.704
34.712
34.722
34.734
34.747
34.762
34.778
34.793
34.806
34.817
34.825
34.831
34.833
34.832
34.826
34.816
34.802
34.784
34.764
34.741
34.716
34.688
34.66
34.631
34.6
34.568
34.534
34.498
34.458
34.415
34.37
34.323
34.276
34.229
34.182
34.137
34.095
34.054
34.016
33.98
33.946
33.913
33.883
33.854
33.827
33.801
33.775
33.75
33.725
33.699
33.672
33.645
33.618
33.59
33.563
33.536
33.51
33.484
33.459
33.435
33.411
33.388
33.365
33.344
33.323
33.303
33.283
33.264
33.247
33.23
33.213
33.197
33.182
33.168
33.156
33.146
33.138
33.134
33.135
33.142
33.157
33.18
33.215
33.263
33.327
33.41
33.515
33.642
33.792
33.965
34.162
34.382
34.622
34.88
35.155
35.442
35.741
36.046
36.355
36.662
36.963
37.253
37.528
37.783
38.015
38.22
38.397
38.542
38.655
38.735
38.785
38.804
38.796
38.761
38.704
38.627
38.532
38.422
38.301
38.171
38.035
37.894
37.75
37.606
37.462
37.32
37.18
37.043
36.908
36.776
36.648
36.523
36.401
36.282
36.167
36.055
35.948
35.844
35.746
35.652
35.563
35.477
35.396
35.318
35.245
35.175
35.109
35.046
34.985
34.929
34.876
34.827
34.783
34.744
34.71
34.682
34.66
34.643
34.63
34.622
34.617
34.616
34.618
34.623
34.631
34.643
34.658
34.676
34.696
34.718
34.741
34.765
34.788
34.81
34.83
34.849
34.866
34.881
34.893
34.902
34.908
34.912
34.913
34.909
34.903
34.892
34.878
34.861
34.84
34.816
34.79
34.761
34.731
34.699
34.665
34.63
34.595
34.56
34.525
34.49
34.455
34.422
34.389
34.356
34.324
34.292
34.261
34.231
34.201
34.171
34.142
34.113
34.084
34.056
34.028
34.0
33.973
33.947
33.92
33.894
33.868
33.843
33.819
33.795
33.77
33.746
33.721
33.697
33.674
33.651
33.63
33.611
33.594
33.578
33.565
33.553
33.543
33.537
33.535
33.54
33.551
33.572
33.605
33.651
33.713
33.793
33.891
34.011
34.153
34.318
34.507
34.718
34.951
35.204
35.474
35.759
36.056
36.361
36.669
36.977
37.28
37.573
37.851
38.111
38.348
38.56
38.742
38.893
39.012
39.099
39.154
39.178
39.173
39.142
39.087
39.012
38.919
38.811
38.69
38.56
38.423
38.28
38.134
37.988
37.843
37.699
37.559
37.422
37.289
37.161
37.036
36.916
36.799
36.686
36.574
36.463
36.353
36.244
36.137
36.032
35.929
35.83
35.735
35.643
35.554
35.469
35.386
35.307
35.23
35.158
35.09
35.028
34.971
34.919
34.873
34.834
34.8
34.773
