Trial 1:0back
37.047
36.953
36.856
36.756
36.653
36.549
36.443
36.335
36.227
36.12
36.012
35.906
35.801
35.697
35.593
35.491
35.39
35.29
35.192
35.096
35.001
34.909
34.819
34.731
34.645
34.562
34.481
34.403
34.328
34.255
34.185
34.117
34.051
33.989
33.928
33.87
33.813
33.759
33.706
33.656
33.607
33.561
33.517
33.475
33.435
33.395
33.357
33.32
33.283
33.246
33.211
33.177
33.145
33.113
33.082
33.051
33.022
32.992
32.963
32.934
32.906
32.878
32.851
32.825
32.798
32.772
32.746
32.722
32.698
32.675
32.654
32.633
32.614
32.596
32.578
32.561
32.544
32.528
32.511
32.493
32.475
32.456
32.436
32.415
32.393
32.371
32.347
32.323
32.297
32.271
32.243
32.213
32.183
32.152
32.121
32.091
32.06
32.03
32.0
31.971
31.942
31.912
31.883
31.854
31.826
31.797
31.768
31.739
31.709
31.679
31.648
31.617
31.585
31.553
31.52
31.488
31.455
31.421
31.389
31.356
31.325
31.294
31.263
31.234
31.206
31.179
31.152
31.126
31.1
31.075
31.05
31.025
31.0
30.975
30.95
30.923
30.895
30.866
30.835
30.802
30.767
30.732
30.696
30.66
30.625
30.591
30.558
30.527
30.499
30.474
30.454
30.439
30.431
30.434
30.45
30.482
30.536
30.614
30.721
30.862
31.041
31.261
31.525
31.832
32.181
32.572
32.999
33.458
33.943
34.447
34.964
35.485
36.006
36.52
37.022
37.508
37.974
38.416
38.831
39.219
39.577
39.904
40.199
40.463
40.696
40.898
41.071
41.215
41.332
41.423
41.489
41.532
41.552
41.552
41.534
41.498
41.446
41.379
41.3
41.208
41.106
40.995
40.876
40.752
40.623
40.491
40.356
40.221
40.087
39.954
39.822
39.694
39.568
39.445
39.325
39.208
39.093
38.98
38.867
38.756
38.645
38.532
38.418
38.302
38.184
38.063
37.941
37.818
37.695
37.574
37.456
37.344
37.238
37.14
37.054
36.979
36.917
36.868
36.833
36.812
36.804
36.809
36.824
36.849
36.884
36.925
36.973
37.025
37.08
37.136
37.192
37.247
37.299
37.348
37.392
37.433
37.468
37.497
37.52
37.538
37.548
37.552
37.548
37.536
37.517
37.492
37.459
37.421
37.375
37.324
37.266
37.202
37.133
37.059
36.98
36.898
36.812
36.724
36.632
36.539
36.445
36.35
36.254
36.157
36.059
35.961
35.863
35.764
35.665
35.565
35.465
35.364
35.264
35.164
35.065
34.967
34.871
34.776
34.684
34.595
34.509
34.426
34.346
34.269
34.194
34.121
34.05
33.981
33.914
33.848
33.783
33.72
33.658
33.599
33.543
33.489
33.438
33.39
33.345
33.303
33.263
33.225
33.189
33.156
33.124
33.095
33.068
33.043
33.021
33.0
32.98
32.961
32.943
32.924
32.904
32.884
32.863
32.842
32.82
32.798
32.776
32.755
32.736
32.717
32.7
32.685
32.669
32.654
32.64
32.625
32.611
32.596
32.581
32.566
32.551
32.535
32.519
32.503
32.486
32.468
32.449
32.43
32.409
32.386
32.364
32.341
32.32
32.299
32.278
32.258
32.239
32.22
32.201
32.183
32.165
32.147
32.129
32.11
32.09
32.07
32.05
32.029
32.008
31.987
31.966
31.945
31.923
31.899
31.873
31.844
31.814
31.781
31.745
31.706
31.665
31.623
31.579
31.533
31.487
31.44
31.392
31.345
31.297
31.249
31.202
31.155
31.11
31.068
31.03
30.995
30.964
30.938
30.916
30.899
30.889
30.885
30.889
30.904
30.933
30.979
31.045
31.136
31.255
31.406
31.592
31.814
32.073
32.368
32.698
33.058
33.445
33.854
34.281
34.719
35.164
35.61
36.052
36.486
36.909
37.316
37.705
38.073
38.419
38.74
39.035
39.305
39.548
39.765
39.954
40.116
40.251
40.362
40.448
40.511
40.553
40.573
40.574
40.557
40.523
40.474
40.41
40.333
40.244
40.145
40.036
39.92
39.798
39.672
39.543
39.412
39.28
39.147
39.015
38.884
38.754
38.625
38.496
38.366
38.234
38.101
37.967
37.83
37.691
37.549
37.406
37.261
37.115
36.969
36.824
36.682
36.545
36.413
36.29
36.176
36.074
35.984
35.907
35.845
35.798
35.764
35.745
35.739
35.746
35.764
35.792
35.829
35.874
35.926
35.984
36.046
36.11
36.177
36.244
36.311
36.376
36.439
36.499
36.555
36.605
36.649
36.687
36.717
36.74
36.755
36.763
36.764
36.758
36.744
36.723
36.694
36.658
36.616
36.568
36.514
36.456
36.393
36.326
36.254
36.179
36.1
36.017
35.931
35.842
35.75
35.656
35.56
35.463
35.365
35.268
35.171
35.074
34.979
34.885
34.793
34.703
34.614
34.528
34.444
34.362
34.282
34.203
34.127
34.051
33.977
33.904
33.832
33.76
33.69
33.621
33.553
33.486
33.421
33.359
33.299
33.242
33.187
33.134
33.083
33.036
32.991
32.949
32.91
32.873
32.838
32.806
32.775
32.745
32.717
32.69
32.663
32.637
32.611
32.585
32.559
32.532
32.506
32.48
32.455
32.432
32.411
32.391
32.372
32.355
32.339
32.325
32.312
32.299
32.286
32.273
32.26
32.246
32.232
32.218
32.204
32.191
32.178
32.165
32.153
32.141
32.129
32.116
32.104
32.091
32.079
32.066
32.053
32.04
32.026
32.012
31.998
31.983
31.967
31.951
31.935
31.919
31.902
31.884
31.867
31.849
31.831
31.813
31.793
31.774
31.753
31.732
31.71
31.686
31.661
31.636
31.61
31.584
31.559
31.535
31.512
31.491
31.47
31.451
31.432
31.414
31.395
31.376
31.357
31.337
31.315
31.293
31.269
31.242
31.214
31.184
31.151
31.116
31.08
31.042
31.004
30.967
30.931
30.896
30.862
30.83
30.799
30.77
30.744
30.72
30.701
30.687
30.681
30.685
30.703
30.739
30.799
30.886
31.006
31.164
31.362
31.604
31.889
32.218
32.589
33.0
33.444
33.919
34.417
34.931
35.456
35.984
36.51
37.028
37.533
38.021
38.489
38.933
39.351
39.741
40.102
40.432
40.73
40.996
41.232
41.437
41.612
41.758
41.875
41.966
42.03
42.07
42.086
42.081
42.055
42.01
41.948
41.87
41.779
41.676
41.563
41.441
41.314
41.181
41.045
40.906
40.767
40.629
40.493
40.36
40.231
40.106
39.988
39.874
39.764
39.659
39.555
39.454
39.353
39.251
39.148
39.042
38.932
38.819
38.702
38.581
38.458
38.333
38.208
38.084
37.964
37.848
37.74
37.64
37.551
37.473
37.408
37.355
37.316
37.289
37.274
37.27
37.277
37.292
37.316
37.347
37.383
37.424
37.468
37.514
37.562
37.609
37.655
37.7
37.742
37.78
37.813
37.841
37.864
37.88
37.89
37.894
37.89
37.88
37.863
37.838
37.807
37.769
37.725
37.675
37.62
37.559
37.492
37.42
37.343
37.262
37.176
37.087
36.996
36.902
36.806
36.709
36.611
36.513
36.414
36.314
36.214
36.113
36.012
35.911
35.811
35.711
35.611
35.511
35.412
35.314
35.216
35.119
35.025
34.932
34.842
34.755
34.671
34.59
34.512
34.435
34.361
34.289
34.219
34.151
34.085
34.021
33.96
33.901
33.845
33.792
33.741
33.693
33.647
33.602
33.559
33.518
33.479
33.441
33.405
33.37
33.337
33.306
33.276
33.248
33.221
33.195
33.17
33.145
33.121
33.096
33.072
33.047
33.023
32.999
32.975
32.951
32.928
32.905
32.882
32.86
32.839
32.818
32.798
32.778
32.76
32.742
32.725
32.708
32.693
32.678
32.663
32.648
32.632
32.615
32.597
32.577
32.556
32.535
32.513
32.491
32.469
32.447
32.426
32.406
32.385
32.365
32.344
32.323
32.301
32.277
32.251
32.225
32.197
32.169
32.14
32.112
32.083
32.056
32.028
32.002
31.975
31.947
31.919
31.89
31.86
31.831
31.8
31.77
31.74
31.71
31.68
31.65
31.621
31.592
31.564
31.536
31.509
31.483
31.459
31.436
31.415
31.395
31.377
31.36
31.342
31.325
31.307
31.288
31.268
31.247
31.225
31.201
31.176
31.151
31.125
31.099
31.073
31.046
31.02
30.994
30.967
30.941
30.914
30.887
30.859
30.832
30.805
30.78
30.757
30.737
30.72
30.707
30.697
30.692
30.693
30.703
30.725
30.764
30.825
30.913
31.034
31.192
31.393
31.64
31.934
32.275
32.663
33.094
33.563
34.066
34.595
35.143
35.703
36.269
36.835
37.393
37.94
38.469
38.976
39.457
39.91
40.333
40.722
41.079
41.402
41.691
41.945
42.165
42.353
42.509
42.634
42.73
42.798
42.839
42.854
42.845
42.815
42.764
42.694
42.607
42.505
42.39
42.263
42.126
41.98
41.829
41.672
41.513
41.352
41.191
41.031
40.872
40.715
40.563
40.415
40.272
40.134
40.002
39.873
39.748
39.626
39.507
39.389
39.271
39.153
39.034
38.915
38.794
38.671
38.549
38.427
38.307
38.19
38.078
37.972
37.873
37.783
37.702
37.631
37.573
37.526
37.491
37.468
37.457
37.458
37.47
37.492
37.524
37.565
37.612
37.664
37.719
37.776
37.834
37.889
37.942
37.992
38.036
38.075
38.108
38.135
38.154
38.167
38.172
38.169
38.159
38.141
38.116
38.084
38.045
38.001
37.952
37.897
37.838
37.774
37.706
37.633
37.557
37.477
37.393
37.307
37.218
37.126
37.033
36.937
36.84
36.742
36.642
36.54
36.438
36.335
36.231
36.127
36.022
35.917
35.812
35.708
35.605
35.503
35.402
35.302
35.203
35.106
35.009
34.915
34.822
34.733
34.646
34.562
34.483
34.406
34.333
34.263
34.195
34.131
34.07
34.011
33.955
33.902
33.851
33.801
33.753
33.707
33.661
33.617
33.575
33.533
33.493
33.454
33.418
33.383
33.35
33.319
33.29
33.263
33.238
33.214
33.192
33.171
33.152
33.135
33.12
33.107
33.095
33.085
33.074
33.064
33.052
33.04
33.025
33.008
32.988
32.967
32.943
32.918
32.891
32.863
32.833
32.803
32.772
32.741
32.709
32.679
32.648
32.618
32.588
32.56
32.533
32.508
32.485
32.465
32.447
32.431
32.416
32.403
32.39
32.377
32.364
32.352
32.338
32.325
32.31
32.293
32.275
32.255
32.232
32.207
32.181
32.152
32.121
32.088
32.055
32.02
31.984
31.947
31.909
31.871
31.833
31.795
31.757
31.72
31.683
31.646
31.611
31.576
31.544
31.514
31.485
31.459
31.435
31.412
31.39
31.369
31.348
31.325
31.302
31.278
31.254
31.228
31.203
31.177
31.151
31.125
31.1
31.074
31.05
31.026
31.004
30.986
30.971
30.962
30.961
30.97
30.993
31.034
31.097
31.188
31.311
31.471
31.673
31.918
32.207
32.542
32.919
33.337
33.792
34.278
34.788
35.317
35.857
36.401
36.943
37.477
37.997
38.498
38.975
39.425
39.846
40.234
40.59
40.911
41.199
41.452
41.672
41.858
42.013
42.137
42.232
42.299
42.34
42.356
42.35
42.322
42.275
42.209
42.127
42.028
41.915
41.788
41.649
41.498
41.338
41.169
40.995
40.815
40.632
40.446
40.26
40.074
39.889
39.706
39.526
39.348
39.173
39.0
38.829
38.66
38.493
38.328
38.164
38.002
37.841
37.681
37.522
37.366
37.214
37.068
36.929
36.8
36.68
36.573
36.479
36.399
36.335
36.287
36.254
36.237
36.235
36.248
36.275
36.315
36.366
36.426
36.495
36.57
36.649
36.733
36.819
36.906
36.993
37.078
37.161
37.239
37.313
37.38
37.439
37.491
37.533
37.566
37.59
37.604
37.607
37.601
37.585
37.558
37.521
37.475
37.418
37.354
37.283
37.206
37.123
37.037
36.948
36.856
36.763
36.668
36.572
36.475
36.379
36.283
36.186
36.089
35.99
35.891
35.791
35.689
35.585
35.481
35.376
35.271
35.168
35.065
34.964
34.865
34.767
34.671
34.577
34.484
34.393
34.304
34.217
34.131
34.048
33.966
33.887
33.809
33.734
33.662
33.591
33.523
33.458
33.395
33.334
33.276
33.22
33.166
33.115
33.065
33.017
32.971
32.926
32.882
32.84
32.798
32.758
32.719
32.681
32.645
32.61
32.577
32.545
32.515
32.486
32.459
32.432
32.406
32.382
32.358
32.337
32.317
32.299
32.283
32.268
32.254
32.241
32.229
32.216
32.204
32.191
32.178
32.166
32.155
32.144
32.135
32.126
32.117
32.11
32.103
32.095
32.087
32.078
32.068
32.057
32.045
32.032
32.018
32.004
31.989
31.974
31.96
31.945
31.93
31.915
31.899
31.883
31.866
31.848
31.829
31.809
31.788
31.766
31.743
31.719
31.694
31.669
31.642
31.614
31.585
31.555
31.524
31.493
31.463
31.433
31.403
31.373
31.342
31.311
31.278
31.244
31.209
31.173
31.135
31.096
31.057
31.017
30.979
30.941
30.906
30.875
30.848
30.828
30.815
30.812
30.82
30.845
30.891
30.964
31.07
31.215
31.405
31.645
31.937
32.284
32.682
33.13
33.622
34.153
34.716
35.304
35.907
36.52
37.134
37.741
38.335
38.91
39.46
39.982
40.473
40.928
41.348
41.731
42.076
42.383
42.652
42.885
43.083
43.247
43.377
43.476
43.545
43.586
43.6
43.589
43.554
43.496
43.418
43.322
43.208
43.081
42.941
42.79
42.631
42.465
42.293
42.118
41.941
41.762
41.584
41.407
41.233
41.062
40.895
40.732
40.573
40.419
40.268
40.121
39.976
39.835
39.695
39.555
39.416
39.276
39.135
38.994
38.853
38.714
38.577
38.445
38.317
38.197
38.084
37.983
37.892
37.815
37.751
37.701
37.663
37.638
37.624
37.622
37.629
37.646
37.671
37.704
37.742
37.787
37.835
37.886
37.94
37.994
38.049
38.103
38.155
38.203
38.247
38.287
38.321
38.348
38.369
38.383
38.389
38.386
38.375
38.356
38.328
38.291
38.245
38.191
38.129
38.06
37.985
37.904
37.818
37.728
37.635
37.539
37.441
37.341
37.24
37.138
37.034
36.931
36.826
36.721
36.616
36.51
36.404
36.298
36.191
36.083
35.975
35.867
35.759
35.651
35.543
35.435
35.328
35.223
35.119
35.017
34.917
34.821
34.728
34.638
34.553
34.471
34.393
34.318
34.246
34.177
34.11
34.045
33.982
33.921
33.861
33.803
33.748
33.694
33.642
33.591
33.542
33.495
33.449
33.404
33.361
33.319
33.278
33.24
33.203
33.169
33.138
33.109
33.082
33.057
33.033
33.01
32.988
32.965
32.942
32.918
32.893
32.868
32.842
32.816
32.791
32.765
32.741
32.717
32.695
32.674
32.653
32.633
32.613
32.594
32.575
32.556
32.537
32.517
32.498
32.478
32.459
32.44
32.421
32.403
32.385
32.368
32.351
32.334
32.317
32.3
32.284
32.267
32.25
32.231
32.211
32.19
32.167
32.142
32.115
32.086
32.056
32.025
31.993
31.961
31.928
31.895
31.863
31.831
31.799
31.768
31.738
31.708
31.677
31.646
31.613
31.579
31.543
31.506
31.467
31.427
31.385
31.343
31.299
31.255
31.21
31.165
31.121
31.076
31.031
30.988
30.946
30.906
30.87
30.839
30.813
30.795
30.787
30.792
30.816
30.864
30.94
31.052
31.204
31.404
31.653
31.955
32.311
32.72
33.178
33.682
34.225
34.799
35.398
36.013
36.636
37.258
37.873
38.474
39.053
39.606
40.129
40.619
41.074
41.491
41.87
42.21
42.512
42.775
43.0
43.19
43.344
43.464
43.552
43.609
43.636
43.634
43.606
43.553
43.477
43.38
43.265
43.133
42.988
42.83
42.664
42.49
42.311
42.127
41.94
41.752
41.565
41.379
41.196
41.017
40.843
40.674
40.51
40.351
40.197
40.048
39.902
39.76
39.619
39.479
39.34
39.201
39.061
38.92
38.779
38.639
38.499
38.362
38.228
38.1
37.978
37.864
37.761
37.668
37.588
37.523
37.471
37.434
37.412
37.403
37.406
37.423
37.45
37.488
37.535
37.589
37.648
37.711
37.775
37.84
37.903
37.964
38.021
38.073
38.119
38.16
38.193
38.22
38.239
38.25
38.253
38.248
38.234
38.213
38.184
38.149
38.107
38.06
38.006
37.946
37.879
37.807
37.729
37.646
37.558
37.466
37.369
37.268
37.163
37.056
36.947
36.836
36.724
36.613
36.501
36.391
36.281
36.173
36.065
35.958
35.85
35.743
35.634
35.526
35.418
35.309
35.201
35.092
34.983
34.875
34.768
34.663
34.56
34.461
34.366
34.276
34.191
34.112
34.039
33.972
33.91
33.852
33.798
33.748
33.7
33.654
33.61
33.567
33.523
33.479
33.435
33.389
33.344
33.298
33.252
33.206
33.16
33.115
33.072
33.03
32.99
32.953
32.918
32.886
32.856
32.83
32.806
32.786
32.768
32.754
32.742
32.732
32.724
32.718
32.713
32.707
32.702
32.694
32.685
32.674
32.661
32.646
32.627
32.607
32.584
32.559
32.532
32.503
32.473
32.44
32.407
32.371
32.335
32.299
32.262
32.226
32.191
32.157
32.126
32.098
32.072
32.049
32.027
32.006
31.986
31.968
31.949
31.931
31.912
31.894
31.876
31.858
31.841
31.823
31.805
31.787
31.767
31.746
31.723
31.699
31.671
31.641
31.609
31.574
31.535
31.493
31.448
31.399
31.347
31.292
31.235
31.177
31.117
31.058
30.999
30.941
30.886
30.833
30.785
30.743
30.707
30.679
30.663
30.66
30.675
30.713
30.778
30.876
31.013
31.194
31.425
31.707
32.045
32.436
32.881
33.374
33.911
34.485
35.087
35.71
36.343
36.979
37.609
38.226
38.823
39.394
39.935
40.441
40.91
41.34
41.729
42.076
42.383
42.649
42.876
43.065
43.217
43.334
43.417
43.468
43.489
43.481
43.447
43.388
43.306
43.206
43.088
42.955
42.809
42.651
42.483
42.307
42.124
41.937
41.747
41.557
41.368
41.182
40.999
40.819
40.645
40.476
40.312
40.153
39.998
39.846
39.697
39.549
39.402
39.254
39.107
38.958
38.808
38.656
38.503
38.351
38.199
38.051
37.908
37.772
37.646
37.532
37.431
37.344
37.273
37.218
37.178
37.155
37.146
37.151
37.17
37.201
37.243
37.293
37.351
37.414
37.481
37.551
37.622
37.692
37.761
37.828
37.891
37.95
38.003
38.051
38.092
38.125
38.15
38.166
38.173
38.17
38.159
38.138
38.108
38.07
38.022
37.966
37.902
37.83
37.75
37.665
37.573
37.476
37.374
37.268
37.159
37.048
36.935
36.821
36.706
36.59
36.474
36.359
36.244
36.13
36.017
35.905
35.794
35.685
35.576
35.469
35.363
35.258
35.153
35.049
34.946
34.843
34.742
34.642
34.544
34.448
34.355
34.265
34.177
34.094
34.013
33.936
33.862
33.791
33.723
33.658
33.596
33.536
33.479
33.423
33.37
33.319
33.271
33.225
33.182
33.142
33.104
33.068
33.034
33.001
32.968
32.936
32.905
32.874
32.843
32.813
32.782
32.752
32.722
32.692
32.661
32.63
32.6
32.571
32.543
32.515
32.489
32.464
32.441
32.419
32.4
32.384
32.37
32.358
32.348
32.34
32.333
32.326
32.319
32.309
32.299
32.286
32.271
32.255
32.238
32.221
32.203
32.185
32.167
32.15
32.132
32.113
32.094
32.074
32.055
32.034
32.013
31.991
31.969
31.946
31.924
31.9
31.876
31.852
31.827
31.801
31.775
31.747
31.717
31.686
31.653
31.618
31.581
31.541
31.499
31.453
31.404
31.352
31.298
31.242
31.184
31.126
31.068
31.012
30.958
30.909
30.866
30.831
30.805
30.794
30.799
30.825
30.877
30.961
31.081
31.244
31.452
31.711
32.021
32.385
32.8
33.264
33.772
34.317
34.892
35.488
36.099
36.714
37.327
37.929
38.515
39.077
39.612
40.113
40.579
41.007
41.394
41.742
42.049
42.315
42.541
42.728
42.877
42.991
43.072
43.122
43.143
43.137
43.107
43.053
42.978
42.884
42.773
42.646
42.506
42.354
42.191
42.02
41.841
41.657
41.467
41.274
41.078
40.881
40.684
40.489
40.297
40.109
39.925
39.745
39.568
39.395
39.224
39.055
38.888
38.721
38.554
38.387
38.219
38.051
37.885
37.721
37.562
37.408
37.262
37.125
37.0
36.889
36.792
36.712
36.648
36.601
36.571
36.557
36.559
36.576
36.606
36.649
36.703
36.766
36.837
36.913
36.993
37.074
37.155
37.234
37.311
37.382
37.449
37.51
37.565
37.613
37.653
37.685
37.709
37.724
37.73
37.728
37.716
37.696
37.667
37.629
37.583
37.529
37.468
37.4
37.326
37.246
37.16
37.071
36.977
36.88
36.78
36.679
36.576
36.473
36.369
36.266
36.163
36.059
35.956
35.851
35.746
35.641
35.534
35.427
35.32
35.211
35.103
34.994
34.885
34.778
34.671
34.565
34.461
34.358
34.259
34.162
34.068
33.977
33.889
33.803
33.72
33.64
33.563
33.488
33.417
33.348
33.282
33.22
33.16
33.102
33.047
32.993
32.94
32.889
32.84
32.791
32.743
32.696
32.65
32.605
32.562
32.522
32.485
32.451
32.42
32.393
32.37
32.349
32.329
32.311
32.294
32.278
32.261
32.245
32.23
32.215
32.2
32.186
32.173
32.161
32.149
32.137
32.125
32.114
32.102
32.09
32.077
32.063
32.048
32.032
32.014
31.995
31.973
31.949
31.923
31.894
31.863
31.831
31.796
31.761
31.725
31.688
31.651
31.615
31.579
31.544
31.511
31.481
31.452
31.427
31.406
31.389
31.379
31.378
31.391
31.422
31.476
31.559
31.677
31.835
32.036
32.284
32.581
32.926
33.316
33.748
34.217
34.716
35.239
35.778
36.325
36.874
37.417
37.946
38.457
38.944
39.403
39.83
40.223
40.581
40.903
41.188
41.436
41.648
41.825
41.969
42.081
42.163
42.216
42.242
42.243
42.221
42.177
42.113
42.032
41.935
41.823
