Trial 1:0back
31.739
31.724
31.707
31.687
31.665
31.64
31.612
31.581
31.546
31.508
31.467
31.424
31.379
31.335
31.291
31.247
31.205
31.164
31.126
31.091
31.058
31.029
31.005
30.988
30.982
30.99
31.02
31.077
31.169
31.305
31.493
31.74
32.053
32.437
32.892
33.416
34.005
34.648
35.335
36.053
36.786
37.518
38.236
38.924
39.572
40.169
40.707
41.18
41.585
41.921
42.191
42.397
42.542
42.633
42.674
42.674
42.637
42.57
42.48
42.371
42.248
42.114
41.974
41.828
41.674
41.512
41.344
41.173
41.002
40.832
40.665
40.503
40.347
40.197
40.052
39.913
39.779
39.649
39.524
39.402
39.284
39.168
39.052
38.936
38.817
38.696
38.571
38.441
38.308
38.172
38.032
37.891
37.748
37.604
37.462
37.321
37.182
37.047
36.917
36.794
36.679
36.573
36.477
36.392
36.318
36.255
36.204
36.165
36.14
36.128
36.129
36.144
36.17
36.208
36.256
36.312
36.375
36.443
36.516
36.59
36.665
36.738
36.807
36.87
36.926
36.975
37.016
37.048
37.07
37.081
37.081
37.071
37.051
37.021
36.981
36.932
36.875
36.811
36.739
36.661
36.577
36.487
36.394
36.297
36.197
36.095
35.99
35.883
35.774
35.663
35.548
35.431
35.311
35.189
35.066
34.942
34.818
34.694
34.57
34.448
34.327
34.208
34.091
33.975
33.862
33.752
33.644
33.54
33.438
33.339
33.243
33.151
33.063
32.98
32.902
32.828
32.759
32.694
32.632
32.573
32.516
32.463
32.412
32.363
32.318
32.277
32.24
32.208
32.18
32.157
32.137
32.121
32.108
32.098
32.091
32.086
32.082
32.081
32.081
32.081
32.08
32.077
32.072
32.065
32.056
32.045
32.035
32.024
32.013
32.003
31.994
31.987
31.983
31.98
31.979
31.979
31.979
31.978
31.977
31.976
31.975
31.974
31.972
31.969
31.965
31.959
31.952
31.942
31.93
31.916
31.899
31.878
31.855
31.829
31.801
31.771
31.739
31.706
31.672
31.637
31.602
31.566
31.528
31.489
31.449
31.41
31.372
31.337
31.306
31.278
31.256
31.241
31.237
31.249
31.281
31.34
31.434
31.569
31.756
32.002
32.313
32.694
33.144
33.662
34.243
34.878
35.555
36.262
36.983
37.703
38.406
39.079
39.709
40.285
40.798
41.242
41.614
41.911
42.136
42.291
42.383
42.416
42.398
42.335
42.236
42.108
41.959
41.794
41.618
41.436
41.25
41.063
40.877
40.693
40.512
40.333
40.155
39.979
39.803
39.626
39.45
39.272
39.092
38.91
38.727
38.542
38.357
38.172
37.99
37.809
37.631
37.455
37.283
37.114
36.947
36.784
36.625
36.468
36.315
36.164
36.015
35.87
35.729
35.591
35.458
35.329
35.206
35.088
34.977
34.874
34.779
34.694
34.62
34.558
34.51
34.477
34.46
34.459
34.476
34.51
34.561
34.629
34.712
34.807
34.912
35.025
35.141
35.259
35.374
35.485
35.59
35.686
35.771
35.844
35.903
35.948
35.979
35.997
36.002
35.994
35.974
35.943
35.901
35.848
35.786
35.716
35.64
35.558
35.472
35.382
35.288
35.192
35.094
34.994
34.893
34.791
34.686
34.579
34.469
34.358
34.244
34.128
34.012
33.895
33.78
33.667
33.556
33.449
33.344
33.244
33.147
33.053
32.964
32.877
32.793
32.711
32.629
32.548
32.466
32.385
32.303
32.222
32.141
32.061
31.983
31.907
31.834
31.765
31.699
31.639
31.583
31.533
31.487
31.446
31.409
31.376
31.347
31.32
31.296
31.275
31.257
31.242
31.231
31.222
31.215
31.21
31.207
31.205
31.204
31.204
31.204
31.204
31.206
31.209
31.214
31.221
31.23
31.239
31.25
31.262
31.275
31.289
31.304
31.318
31.331
31.343
31.353
31.361
31.368
31.372
31.374
31.373
31.37
31.365
31.359
31.352
31.344
31.336
31.329
31.323
31.317
31.311
31.305
31.3
31.295
31.29
31.286
31.281
31.276
31.269
31.263
31.256
31.25
31.246
31.241
31.233
31.22
31.206
31.191
31.181
31.179
31.189
31.217
31.269
31.35
31.469
31.632
31.848
32.121
32.458
32.859
33.323
33.847
34.424
35.045
35.701
36.378
37.062
37.738
38.393
39.014
39.591
40.113
40.575
40.971
41.298
41.556
41.747
41.874
41.943
41.96
41.93
41.861
41.758
41.627
41.474
41.304
41.122
40.932
40.737
40.54
40.342
40.147
39.954
39.764
39.577
39.392
39.209
39.027
38.849
38.677
38.513
38.355
38.201
38.047
37.891
37.731
37.565
37.392
37.213
37.027
36.838
36.646
36.451
36.258
36.066
35.878
35.696
35.521
35.355
35.2
35.055
34.923
34.803
34.696
34.602
34.523
34.459
34.412
34.381
34.368
34.372
34.394
34.436
34.495
34.572
34.665
34.772
34.891
35.019
35.154
35.294
35.437
35.582
35.726
35.867
36.003
36.131
36.25
36.359
36.455
36.539
36.61
36.667
36.71
36.738
36.751
36.75
36.735
36.707
36.667
36.616
36.554
36.482
36.4
36.31
36.212
36.107
35.999
35.888
35.775
35.662
35.549
35.436
35.324
35.213
35.101
34.99
34.878
34.767
34.657
34.549
34.442
34.337
34.233
34.13
34.03
33.931
33.834
33.738
33.643
33.548
33.455
33.363
33.274
33.189
33.109
33.034
32.963
32.898
32.836
32.779
32.726
32.678
32.633
32.592
32.553
32.517
32.483
32.452
32.424
32.399
32.378
32.36
32.344
32.33
32.317
32.304
32.291
32.278
32.264
32.251
32.238
32.227
32.217
32.211
32.207
32.206
32.209
32.213
32.22
32.228
32.238
32.25
32.262
32.275
32.287
32.299
32.309
32.318
32.326
32.333
32.337
32.338
32.336
32.33
32.32
32.307
32.289
32.268
32.245
32.221
32.194
32.166
32.137
32.107
32.078
32.051
32.025
32.003
31.985
31.972
31.965
31.968
31.983
32.014
32.068
32.149
32.266
32.426
32.637
32.907
33.241
33.644
34.116
34.656
35.255
35.906
36.596
37.313
38.04
38.764
39.469
40.142
40.771
41.347
41.86
42.305
42.68
42.984
43.219
43.387
43.494
43.546
43.547
43.507
43.431
43.328
43.203
43.061
42.908
42.747
42.58
42.408
42.235
42.06
41.885
41.71
41.535
41.36
41.186
41.012
40.839
40.667
40.495
40.322
40.15
39.979
39.81
39.642
39.476
39.312
39.15
38.992
38.836
38.684
38.534
38.385
38.238
38.092
37.947
37.803
37.66
37.517
37.375
37.234
37.095
36.96
36.831
36.709
36.597
36.496
36.409
36.336
36.279
36.237
36.211
36.198
36.2
36.215
36.243
36.282
36.332
36.391
36.457
36.531
36.609
36.691
36.776
36.862
36.946
37.029
37.109
37.185
37.254
37.315
37.367
37.408
37.439
37.46
37.469
37.467
37.454
37.431
37.398
37.356
37.306
37.25
37.187
37.117
37.041
36.958
36.868
36.771
36.669
36.561
36.448
36.332
36.212
36.089
35.964
35.835
35.705
35.575
35.446
35.318
35.192
35.069
34.947
34.827
34.709
34.593
34.478
34.366
34.257
34.15
34.044
33.941
33.839
33.739
33.641
33.547
33.455
33.367
33.282
33.202
33.126
33.054
32.988
32.927
32.871
32.82
32.772
32.728
32.687
32.65
32.615
32.582
32.552
32.523
32.497
32.473
32.452
32.433
32.417
32.404
32.392
32.382
32.374
32.366
32.359
32.353
32.347
32.342
32.337
32.331
32.325
32.319
32.312
32.305
32.298
32.291
32.283
32.274
32.265
32.255
32.247
32.239
32.234
32.23
32.228
32.228
32.228
32.229
32.228
32.226
32.222
32.215
32.204
32.19
32.172
32.151
32.128
32.104
32.08
32.055
32.03
32.005
31.979
31.952
31.925
31.897
31.869
31.839
31.808
31.777
31.746
31.715
31.686
31.658
31.635
31.617
31.607
31.608
31.625
31.664
31.731
31.835
31.986
32.192
32.462
32.802
33.217
33.708
34.272
34.904
35.594
36.328
37.093
37.871
38.646
39.4
40.12
40.79
41.4
41.942
42.409
42.8
43.114
43.355
43.527
43.635
43.685
43.684
43.64
43.558
43.447
43.312
43.161
42.996
42.822
42.643
42.462
42.28
42.101
41.923
41.748
41.574
41.401
41.226
41.052
40.876
40.701
40.526
40.352
40.18
40.011
39.846
39.686
39.53
39.38
39.234
39.093
38.956
38.822
38.691
38.561
38.432
38.303
38.173
38.042
37.91
37.777
37.642
37.506
37.371
37.236
37.104
36.974
36.849
36.729
36.616
36.511
36.418
36.337
36.269
36.215
36.176
36.151
36.142
36.146
36.165
36.197
36.242
36.297
36.361
36.431
36.506
36.584
36.663
36.741
36.815
36.884
36.946
36.999
37.041
37.072
37.092
37.099
37.094
37.078
37.052
37.017
36.975
36.925
36.868
36.804
36.735
36.659
36.579
36.493
36.403
36.307
36.207
36.101
35.99
35.874
35.753
35.628
35.499
35.368
35.235
35.1
34.965
34.83
34.696
34.564
34.434
34.308
34.185
34.065
33.949
33.835
33.725
33.618
33.514
33.413
33.315
33.218
33.124
33.034
32.947
32.864
32.785
32.709
32.638
32.57
32.506
32.445
32.389
32.337
32.289
32.245
32.204
32.167
32.134
32.103
32.076
32.051
32.03
32.012
31.998
31.985
31.975
31.966
31.957
31.949
31.941
31.932
31.92
31.906
31.889
31.87
31.851
31.833
31.816
31.803
31.794
31.789
31.787
31.789
31.793
31.799
31.806
31.812
31.818
31.82
31.82
31.817
31.812
31.805
31.797
31.788
31.779
31.769
31.76
31.75
31.74
31.729
31.717
31.704
31.69
31.675
31.659
31.641
31.623
31.604
31.585
31.566
31.547
31.528
31.508
31.488
31.467
31.447
31.425
31.402
31.378
31.352
31.324
31.294
31.262
31.229
31.195
31.16
31.125
31.091
31.057
31.026
30.997
30.972
30.949
30.928
30.909
30.892
30.877
30.863
30.851
30.841
30.835
30.836
30.844
30.864
30.898
30.954
31.038
31.158
31.325
31.547
31.833
32.19
32.621
33.129
33.709
34.356
35.057
35.801
36.573
37.357
38.137
38.897
39.621
40.296
40.911
41.456
41.926
42.319
42.633
42.871
43.037
43.138
43.18
43.172
43.12
43.033
42.917
42.778
42.623
42.456
42.282
42.104
41.926
41.749
41.575
41.405
41.236
41.07
40.904
40.736
40.565
40.391
40.214
40.032
39.848
39.662
39.475
39.287
39.102
38.918
38.739
38.563
38.393
38.229
38.072
37.922
37.778
37.639
37.505
37.374
37.245
37.117
36.991
36.866
36.742
36.619
36.5
36.384
36.275
36.173
36.081
35.999
35.929
35.874
35.834
35.812
35.807
35.82
35.851
35.897
35.959
36.036
36.124
36.222
36.327
36.438
36.55
36.663
36.773
36.878
36.977
37.069
37.153
37.227
37.292
37.347
37.391
37.425
37.446
37.456
37.454
37.44
37.415
37.379
37.331
37.274
37.207
37.132
37.048
36.958
36.86
36.758
36.651
36.54
36.427
36.311
36.192
36.072
35.949
35.823
35.696
35.565
35.433
35.3
35.167
35.033
34.9
34.77
34.643
34.519
34.4
34.285
34.173
34.066
33.962
33.863
33.768
33.677
33.588
33.502
33.42
33.341
33.266
33.193
33.124
33.063
33.009
32.962
32.922
32.887
32.856
32.827
32.798
32.769
32.74
32.709
32.678
32.646
32.615
32.585
32.557
32.531
32.508
32.489
32.473
32.46
32.451
32.444
32.441
32.44
32.44
32.442
32.445
32.449
32.453
32.456
32.459
32.462
32.465
32.467
32.469
32.47
32.472
32.473
32.473
32.472
32.47
32.467
32.462
32.456
32.449
32.44
32.429
32.418
32.406
32.395
32.384
32.374
32.364
32.354
32.344
32.333
32.322
32.309
32.296
32.28
32.262
32.242
32.218
32.192
32.162
32.13
32.096
32.06
32.023
31.983
31.944
31.904
31.864
31.825
31.788
31.752
31.719
31.689
31.66
31.634
31.611
31.593
31.58
31.576
31.585
31.613
31.668
31.759
31.894
32.085
32.339
32.666
33.068
33.549
34.106
34.733
35.42
36.155
36.923
37.707
38.491
39.259
39.995
40.686
41.319
41.887
42.383
42.803
43.147
43.416
43.613
43.744
43.816
43.836
43.811
43.749
43.656
43.539
43.404
43.256
43.098
42.933
42.764
42.592
42.418
42.245
42.072
41.9
41.729
41.558
41.386
41.214
41.041
40.868
40.693
40.518
40.341
40.163
39.984
39.804
39.626
39.45
39.276
39.106
38.94
38.779
38.622
38.471
38.324
38.182
38.042
37.905
37.769
37.634
37.498
37.363
37.23
37.1
36.975
36.856
36.746
36.644
36.553
36.473
36.406
36.353
36.316
36.295
36.29
36.302
36.33
36.373
36.43
36.498
36.574
36.658
36.747
36.839
36.933
37.026
37.116
37.202
37.282
37.354
37.417
37.469
37.509
37.537
37.554
37.558
37.551
37.534
37.505
37.466
37.418
37.362
37.297
37.225
37.147
37.062
36.972
36.876
36.776
36.671
36.563
36.451
36.335
36.216
36.094
35.97
35.844
35.717
35.589
35.459
35.329
35.198
35.067
34.937
34.808
34.681
34.556
34.433
34.312
34.195
34.081
33.972
33.867
33.767
33.67
33.579
33.491
33.408
33.329
33.254
33.184
33.118
33.055
32.995
32.937
32.882
32.83
32.782
32.737
32.695
32.656
32.62
32.589
32.561
32.538
32.52
32.506
32.496
32.489
32.483
32.479
32.476
32.473
32.47
32.467
32.462
32.457
32.452
32.446
32.44
32.435
32.429
32.424
32.419
32.415
32.411
32.407
32.403
32.4
32.397
32.396
32.396
32.399
32.402
32.404
32.405
32.404
32.399
32.391
32.379
32.365
32.347
32.327
32.304
32.279
32.253
32.226
32.199
32.172
32.143
32.114
32.083
32.051
32.018
31.985
31.953
31.923
31.895
31.87
31.846
31.824
31.804
31.786
31.767
31.748
31.729
31.709
31.687
31.665
31.641
31.615
31.589
31.562
31.535
31.507
31.48
31.453
31.427
31.402
31.377
31.353
31.329
31.306
31.281
31.256
31.23
31.204
31.179
31.154
31.129
31.104
31.078
31.052
31.027
31.002
30.977
30.954
30.934
30.916
30.901
30.889
30.883
30.884
30.897
30.926
30.979
31.064
31.191
31.371
31.615
31.933
32.331
32.815
33.383
34.032
34.752
35.532
36.356
37.205
38.06
38.904
39.719
40.489
41.2
41.841
42.403
42.883
43.277
43.588
43.819
43.975
44.063
44.09
44.065
43.997
43.893
43.763
43.612
43.446
43.271
43.091
42.909
42.726
42.545
42.366
42.189
42.014
41.84
41.668
41.498
41.327
41.155
40.982
40.809
40.634
40.457
40.281
40.105
39.931
39.76
39.593
39.432
39.277
39.129
38.987
38.852
38.723
38.602
38.486
38.373
38.263
38.154
38.045
37.935
37.825
37.714
37.603
37.491
37.381
37.273
37.169
37.069
36.977
36.891
36.815
36.75
36.695
36.653
36.624
36.608
36.604
36.613
36.634
36.667
36.711
36.765
36.827
36.896
36.969
37.043
37.116
37.186
37.251
37.308
37.357
37.397
37.426
37.445
37.454
37.454
37.444
37.426
37.4
37.366
37.325
37.276
37.22
37.156
37.087
37.012
36.932
36.847
36.758
36.664
36.566
36.463
36.358
36.249
36.136
36.021
35.903
35.783
35.662
35.54
35.418
35.295
35.173
35.052
34.934
34.817
34.702
34.587
34.474
34.361
34.251
34.142
34.034
33.929
33.826
33.726
33.63
33.539
33.452
33.369
33.292
33.219
33.151
33.087
33.028
32.974
32.924
32.877
32.834
32.793
32.754
32.718
32.683
32.649
32.617
32.586
32.558
32.533
32.511
32.493
32.478
32.467
32.458
32.453
32.45
32.448
32.448
32.448
32.448
32.448
32.447
32.446
32.444
32.442
32.44
32.439
32.438
32.437
32.436
32.435
32.433
32.43
32.426
32.422
32.416
32.409
32.401
32.391
32.379
32.366
32.35
32.332
32.311
32.289
32.263
32.236
32.207
32.177
32.146
32.115
32.085
32.054
32.024
31.995
31.967
31.939
31.91
31.882
31.854
31.826
31.796
31.767
31.737
31.707
31.677
31.648
31.621
31.595
31.571
31.548
31.526
31.504
31.483
31.461
31.438
31.416
31.393
31.371
31.349
31.327
31.306
31.286
31.267
31.248
31.23
31.212
31.195
31.179
31.163
31.147
31.133
31.12
31.107
31.095
31.083
31.07
31.059
31.046
31.034
31.019
31.004
30.99
30.975
30.962
30.95
30.939
30.931
30.924
30.92
30.917
30.917
30.919
30.923
30.93
30.941
30.956
30.978
31.01
31.056
31.124
31.219
31.35
31.526
31.756
32.049
32.413
32.851
33.365
33.952
34.607
35.319
36.077
36.864
37.665
38.463
39.24
39.982
40.675
41.307
41.87
42.358
42.767
43.098
43.352
43.533
43.649
43.705
43.708
43.666
43.584
43.471
43.333
43.177
43.008
42.832
42.653
42.473
42.294
42.118
41.945
41.774
41.605
41.436
41.266
41.094
40.919
40.741
40.559
40.373
40.185
39.996
39.806
39.617
39.431
39.248
39.069
38.895
38.725
38.56
38.399
38.243
38.09
37.941
37.796
37.655
37.518
37.383
37.252
37.125
37.001
36.881
36.767
36.661
36.563
36.475
36.397
36.331
36.277
36.237
36.21
36.198
36.2
36.218
36.25
36.297
36.36
36.436
36.524
36.622
36.727
36.837
36.949
37.06
37.169
37.274
37.372
37.463
37.543
37.613
37.67
37.715
37.749
37.771
37.781
37.78
37.769
37.748
37.718
37.679
37.631
37.574
37.509
37.435
37.355
37.267
37.172
37.07
36.963
36.849
36.729
36.605
36.476
36.343
36.207
36.069
35.93
35.791
35.652
35.515
35.38
35.248
35.12
34.996
34.877
34.762
34.652
34.545
34.443
34.344
34.249
34.16
34.076
33.995
33.917
33.84
33.764
33.688
33.613
33.539
33.468
33.398
33.331
33.266
33.204
33.146
33.092
33.043
32.999
32.96
32.926
32.897
32.873
32.854
32.841
32.833
32.828
32.826
32.826
32.826
32.825
32.824
32.823
32.82
32.817
32.813
32.809
32.804
32.799
32.793
32.787
32.78
32.772
32.764
32.755
32.744
32.732
32.718
32.703
32.688
32.672
32.656
32.641
32.626
32.613
32.601
32.59
32.579
32.568
32.555
32.541
32.524
32.503
32.479
32.451
32.42
32.387
32.35
32.311
32.271
32.231
32.19
32.15
32.11
32.071
32.034
31.999
31.964
31.93
31.897
31.866
31.837
31.811
31.785
31.762
31.74
31.721
31.704
31.691
31.68
31.672
31.666
31.662
31.66
31.657
31.654
31.65
31.642
31.631
31.614
31.593
31.567
31.536
31.502
31.465
31.425
31.385
31.344
31.304
31.266
31.229
31.195
31.162
31.132
31.105
31.081
31.06
31.042
31.027
31.015
31.005
31.0
30.998
31.003
31.016
31.042
31.084
31.151
31.25
31.39
31.58
31.833
32.157
32.559
33.043
33.608
34.251
34.962
35.729
36.538
37.372
38.212
39.04
39.838
40.59
41.282
41.903
42.446
42.905
43.281
43.573
43.786
43.926
43.999
44.014
43.979
43.904
43.797
43.665
43.514
43.351
43.179
43.003
42.823
42.641
42.46
42.278
42.097
41.917
41.739
41.562
41.387
41.214
41.041
40.868
40.693
40.517
40.34
40.163
39.986
39.811
39.638
39.467
39.299
39.135
38.975
38.819
38.669
38.523
38.383
38.248
38.118
37.993
37.871
37.753
37.637
37.523
37.411
37.302
37.194
37.09
36.989
36.892
36.8
36.715
36.637
36.567
36.508
36.46
36.425
36.405
36.4
36.409
36.43
36.463
36.506
36.558
36.615
36.674
36.733
36.79
36.845
36.898
36.949
36.997
37.041
37.082
37.12
37.155
37.186
37.212
37.232
37.246
37.252
37.251
37.243
37.228
37.204
37.172
37.132
37.085
37.03
36.968
36.899
36.823
36.74
36.651
36.556
36.457
36.354
36.248
36.139
36.029
35.917
35.805
35.693
35.581
35.47
35.36
35.251
35.142
35.035
34.928
34.823
34.72
34.618
34.518
34.422
34.33
34.243
34.16
34.083
34.01
33.943
33.882
33.827
33.776
33.731
33.688
33.649
33.612
33.578
33.545
33.514
33.485
33.457
33.432
33.408
33.386
33.367
33.352
33.339
33.328
33.318
33.307
33.296
33.282
33.265
33.246
33.223
33.197
33.167
33.133
33.096
33.055
33.012
32.968
32.922
32.877
32.833
32.789
32.746
32.705
32.665
32.629
32.595
32.565
32.538
32.515
32.495
32.478
32.462
32.448
32.434
32.42
32.405
32.39
32.372
32.352
32.33
32.305
32.277
32.245
32.209
32.168
32.123
32.074
32.021
31.965
31.906
31.846
31.785
31.725
31.667
31.612
31.56
31.513
31.473
31.439
31.413
31.392
31.379
31.371
31.368
31.37
31.376
31.384
31.395
31.407
31.42
31.432
31.444
31.454
31.464
31.472
31.48
31.486
31.491
31.496
31.499
31.501
31.503
31.506
31.509
31.514
31.52
31.526
31.532
31.537
31.542
31.545
31.548
31.552
31.558
31.567
31.579
31.595
31.613
31.632
31.653
31.674
31.695
31.715
31.733
31.749
31.763
31.776
31.788
31.798
31.809
31.82
31.831
31.844
31.858
31.875
31.897
31.925
31.963
32.014
32.085
32.182
32.312
32.485
32.707
32.987
33.33
33.741
34.223
34.775
35.393
36.069
36.79
37.542
38.308
39.071
39.814
40.522
41.181
41.779
42.306
42.756
43.125
43.414
43.623
43.757
43.823
43.828
43.779
43.687
43.557
43.398
43.215
43.015
42.803
42.582
42.356
42.129
41.901
41.674
41.45
41.228
41.009
40.79
40.571
40.35
40.128
39.905
39.679
39.451
39.223
38.995
38.768
38.542
38.317
38.095
37.875
37.658
37.444
