Trial 1:0back
34.953
34.918
34.892
34.875
34.868
34.869
34.878
34.894
34.915
34.941
34.97
35.003
35.037
35.073
35.107
35.14
35.169
35.195
35.218
35.235
35.246
35.25
35.248
35.239
35.223
35.2
35.169
35.13
35.084
35.03
34.97
34.904
34.832
34.755
34.673
34.589
34.502
34.415
34.327
34.239
34.152
34.066
33.982
33.902
33.826
33.755
33.69
33.631
33.58
33.534
33.495
33.461
33.432
33.408
33.389
33.373
33.36
33.349
33.338
33.329
33.321
33.314
33.307
33.299
33.29
33.28
33.269
33.257
33.246
33.234
33.222
33.211
33.201
33.192
33.184
33.177
33.171
33.165
33.159
33.153
33.147
33.141
33.136
33.131
33.126
33.122
33.117
33.114
33.111
33.11
33.112
33.118
33.13
33.151
33.184
33.232
33.298
33.39
33.51
33.665
33.856
34.088
34.363
34.681
35.039
35.433
35.855
36.297
36.747
37.192
37.622
38.028
38.402
38.742
39.043
39.303
39.519
39.691
39.818
39.901
39.941
39.94
39.903
39.833
39.734
39.612
39.471
39.315
39.148
38.974
38.796
38.619
38.443
38.272
38.107
37.95
37.803
37.666
37.538
37.42
37.31
37.209
37.115
37.026
36.941
36.857
36.774
36.69
36.603
36.513
36.42
36.322
36.22
36.114
36.004
35.888
35.769
35.645
35.52
35.394
35.27
35.151
35.037
34.93
34.834
34.748
34.673
34.611
34.56
34.522
34.496
34.484
34.483
34.493
34.513
34.54
34.575
34.617
34.666
34.719
34.777
34.836
34.895
34.954
35.009
35.059
35.102
35.136
35.161
35.175
35.179
35.171
35.151
35.12
35.078
35.027
34.969
34.905
34.836
34.764
34.689
34.613
34.537
34.462
34.386
34.312
34.239
34.169
34.101
34.036
33.973
33.912
33.851
33.791
33.732
33.674
33.616
33.56
33.504
33.451
33.4
33.352
33.308
33.268
33.232
33.199
33.172
33.15
33.132
33.119
33.11
33.104
33.102
33.102
33.106
33.11
33.116
33.12
33.123
33.125
33.126
33.125
33.122
33.117
33.109
33.098
33.085
33.069
33.051
33.031
33.007
32.982
32.957
32.934
32.915
32.901
32.894
32.895
32.908
32.935
32.98
33.045
33.134
33.25
33.399
33.583
33.807
34.072
34.381
34.731
35.123
35.55
36.007
36.482
36.967
37.449
37.919
38.367
38.785
39.163
39.497
39.782
40.016
40.194
40.318
40.389
40.411
40.391
40.333
40.243
40.127
39.992
39.844
39.687
39.527
39.367
39.213
39.065
38.924
38.792
38.669
38.554
38.447
38.347
38.253
38.163
38.077
37.994
37.914
37.833
37.751
37.665
37.575
37.482
37.385
37.285
37.179
37.068
36.952
36.831
36.705
36.575
36.442
36.308
36.174
36.042
35.914
35.79
35.671
35.56
35.457
35.363
35.28
35.206
35.143
35.089
35.044
35.008
34.981
34.963
34.951
34.945
34.943
34.946
34.952
34.963
34.976
34.992
35.007
35.022
35.036
35.05
35.061
35.071
35.078
35.082
35.082
35.078
35.069
35.053
35.031
35.003
34.97
34.931
34.887
34.838
34.785
34.729
34.669
34.607
34.543
34.476
34.406
34.334
34.261
34.187
34.115
34.042
33.971
33.9
33.831
33.764
33.7
33.638
33.578
33.521
33.466
33.415
33.367
33.322
33.281
33.243
33.209
33.178
33.151
33.127
33.107
33.09
33.076
33.066
33.058
33.053
33.049
33.046
33.042
33.038
33.032
33.026
33.019
33.009
32.998
32.985
32.971
32.958
32.945
32.932
32.919
32.908
32.898
32.89
32.885
32.883
32.885
32.894
32.909
32.932
32.962
32.999
33.043
33.095
33.159
33.236
33.33
33.448
33.593
33.771
33.988
34.247
34.55
34.897
35.283
35.705
36.154
36.621
37.097
37.569
38.029
38.464
38.867
39.23
39.547
39.816
40.035
40.204
40.324
40.4
40.434
40.433
40.4
40.342
40.263
40.166
40.057
39.938
39.813
39.685
39.556
39.428
39.302
39.179
39.06
38.945
38.832
38.721
38.613
38.509
38.408
38.311
38.217
38.128
38.043
37.963
37.889
37.818
37.752
37.687
37.624
37.561
37.494
37.422
37.344
37.26
37.168
37.069
36.96
36.843
36.717
36.583
36.443
36.3
36.155
36.01
35.869
35.733
35.604
35.486
35.378
35.283
35.202
35.137
35.088
35.055
35.037
35.031
35.037
35.052
35.075
35.106
35.141
35.179
35.218
35.256
35.293
35.327
35.355
35.377
35.391
35.396
35.393
35.38
35.358
35.326
35.286
35.236
35.178
35.113
35.042
34.964
34.882
34.796
34.709
34.621
34.533
34.447
34.362
34.278
34.198
34.121
34.048
33.979
33.913
33.85
33.791
33.734
33.681
33.632
33.586
33.543
33.503
33.466
33.431
33.398
33.365
33.332
33.297
33.262
33.226
33.19
33.154
33.119
33.083
33.049
33.019
32.995
32.978
32.97
32.969
32.974
32.984
32.998
33.015
33.033
33.052
33.07
33.086
33.1
33.111
33.118
33.121
33.12
33.116
33.109
33.099
33.087
33.073
33.056
33.037
33.018
33.0
32.983
32.968
32.955
32.944
32.934
32.927
32.922
32.921
32.925
32.934
32.949
32.974
33.011
33.065
33.139
33.239
33.368
33.53
33.729
33.971
34.256
34.587
34.96
35.371
35.813
36.276
36.749
37.223
37.688
38.135
38.556
38.941
39.286
39.586
39.838
40.041
40.195
40.302
40.363
40.383
40.366
40.317
40.242
40.146
40.035
39.913
39.784
39.651
39.519
39.391
39.269
39.156
39.049
38.951
38.86
38.775
38.697
38.623
38.553
38.484
38.416
38.346
38.275
38.202
38.128
38.051
37.971
37.887
37.799
37.707
37.611
37.509
37.402
37.29
37.173
37.053
36.929
36.803
36.677
36.551
36.425
36.301
36.179
36.061
35.949
35.841
35.739
35.643
35.554
35.471
35.397
35.331
35.275
35.227
35.189
35.16
35.141
35.132
35.13
35.136
35.148
35.165
35.186
35.208
35.23
35.252
35.271
35.289
35.305
35.318
35.326
35.329
35.324
35.311
35.292
35.266
35.233
35.194
35.148
35.095
35.037
34.974
34.905
34.834
34.762
34.687
34.612
34.536
34.461
34.387
34.314
34.245
34.179
34.116
34.056
33.997
33.941
33.887
33.836
33.789
33.744
33.7
33.657
33.614
33.572
33.532
33.493
33.456
33.419
33.385
33.353
33.323
33.295
33.27
33.247
33.227
33.21
33.195
33.182
33.171
33.161
33.152
33.144
33.137
33.131
33.124
33.117
33.11
33.103
33.096
33.09
33.084
33.079
33.076
33.073
33.069
33.063
33.055
33.045
33.033
33.02
33.004
32.988
32.972
32.958
32.947
32.938
32.932
32.93
32.933
32.946
32.97
33.007
33.062
33.137
33.237
33.368
33.534
33.738
33.983
34.27
34.598
34.964
35.364
35.792
36.237
36.69
37.142
37.583
38.003
38.394
38.749
39.063
39.332
39.553
39.726
39.851
39.934
39.978
39.988
39.967
39.92
39.85
39.763
39.663
39.554
39.439
39.32
39.2
39.08
38.963
38.848
38.737
38.63
38.527
38.428
38.331
38.237
38.146
38.059
37.974
37.89
37.807
37.725
37.645
37.564
37.482
37.398
37.31
37.217
37.12
37.019
36.914
36.805
36.692
36.575
36.451
36.318
36.178
36.031
35.88
35.729
35.584
35.448
35.325
35.218
35.129
35.058
35.006
34.972
34.954
34.952
34.964
34.987
35.02
35.06
35.105
35.151
35.198
35.243
35.285
35.325
35.361
35.392
35.418
35.438
35.453
35.462
35.465
35.46
35.449
35.431
35.406
35.375
35.338
35.294
35.243
35.186
35.124
35.059
34.988
34.913
34.833
34.749
34.662
34.572
34.482
34.391
34.299
34.208
34.118
34.029
33.943
33.86
33.779
33.702
33.631
33.564
33.504
33.449
33.399
33.354
33.316
33.283
33.257
33.235
33.218
33.204
33.193
33.185
33.18
33.175
33.17
33.164
33.157
33.149
33.139
33.13
33.119
33.109
33.098
33.087
33.077
33.068
33.06
33.053
33.047
33.044
33.042
33.043
33.045
33.048
33.051
33.055
33.058
33.061
33.066
33.072
33.079
33.088
33.101
33.12
33.145
33.179
33.225
33.286
33.368
33.476
33.614
33.788
34.001
34.255
34.55
34.887
35.261
35.667
36.096
36.541
36.99
37.436
37.866
38.274
38.65
38.989
39.286
39.539
39.746
39.906
40.02
40.09
40.121
40.116
40.079
40.016
39.931
39.831
39.718
39.598
39.474
39.348
39.225
39.103
38.984
38.868
38.756
38.647
38.544
38.444
38.349
38.257
38.169
38.085
38.004
37.925
37.847
37.77
37.693
37.615
37.535
37.452
37.364
37.271
37.17
37.063
36.947
36.825
36.695
36.56
36.421
36.279
36.136
35.993
35.852
35.715
35.585
35.462
35.35
35.247
35.154
35.072
35.002
34.945
34.902
34.873
34.858
34.856
34.868
34.891
34.924
34.964
35.011
35.062
35.116
35.172
35.227
35.279
35.326
35.366
35.398
35.421
35.434
35.435
35.424
35.402
35.369
35.324
35.268
35.202
35.127
35.044
34.957
34.866
34.775
34.683
34.593
34.504
34.418
34.336
34.258
34.183
34.111
34.041
33.975
33.912
33.852
33.793
33.735
33.679
33.626
33.575
33.526
33.478
33.432
33.386
33.341
33.298
33.257
33.219
33.182
33.149
33.12
33.096
33.077
33.063
33.055
33.051
33.052
33.056
33.064
33.073
33.084
33.094
33.105
33.116
33.125
33.132
33.136
33.138
33.137
33.133
33.126
33.116
33.104
33.09
33.072
33.053
33.03
33.006
32.981
32.955
32.93
32.906
32.884
32.866
32.854
32.851
32.86
32.883
32.925
32.987
33.073
33.188
33.334
33.514
33.733
33.993
34.297
34.643
35.029
35.448
35.893
36.355
36.825
37.292
37.747
38.182
38.589
38.96
39.29
39.575
39.812
40.001
40.145
40.245
40.305
40.329
40.319
40.28
40.216
40.132
40.032
39.919
39.798
39.673
39.545
39.42
39.3
39.187
39.085
38.992
38.907
38.831
38.762
38.699
38.641
38.583
38.526
38.466
38.402
38.333
38.259
38.179
38.093
38.002
37.906
37.804
37.699
37.592
37.482
37.371
37.257
37.142
37.024
36.904
36.784
36.664
36.543
36.423
36.304
36.187
36.074
35.964
35.86
35.76
35.667
35.582
35.505
35.438
35.38
35.33
35.287
35.253
35.226
35.206
35.191
35.18
35.173
35.17
35.171
35.174
35.178
35.182
35.186
35.189
35.191
35.192
35.191
35.186
35.176
35.16
35.14
35.116
35.089
35.057
35.022
34.982
34.939
34.891
34.838
34.779
34.716
34.649
34.579
34.506
34.431
34.354
34.274
34.194
34.112
34.031
33.953
33.878
33.806
33.743
33.693
33.657
33.632
33.617
33.608
33.601
33.593
33.582
33.567
33.547
33.522
33.491
33.454
33.413
33.368
33.318
33.265
33.21
33.154
33.097
33.043
32.991
32.943
32.9
32.862
32.83
32.805
32.79
32.783
32.785
32.793
32.807
32.824
32.844
32.865
32.886
32.906
32.924
32.939
32.951
32.96
32.966
32.968
32.966
32.958
32.947
32.933
32.917
32.899
32.88
32.86
32.839
32.819
32.801
32.787
32.775
32.768
32.766
32.771
32.786
32.812
32.855
32.918
33.006
33.124
33.276
33.466
33.699
33.976
34.298
34.662
35.065
35.499
35.957
36.429
36.903
37.37
37.82
38.242
38.629
38.974
39.273
39.524
39.726
39.88
39.987
40.051
40.077
40.069
40.033
39.974
39.897
39.807
39.708
39.605
39.499
39.392
39.287
39.184
39.082
38.982
38.883
38.785
38.691
38.599
38.509
38.422
38.337
38.255
38.176
38.101
38.028
37.959
37.892
37.827
37.763
37.699
37.632
37.562
37.487
37.407
37.321
37.226
37.125
37.016
36.9
36.778
36.649
36.512
36.366
36.215
36.06
35.906
35.758
35.619
35.492
35.38
35.285
35.207
35.144
35.096
35.062
35.038
35.025
35.022
35.027
35.038
35.054
35.072
35.092
35.112
35.132
35.153
35.172
35.189
35.204
35.217
35.227
35.234
35.238
35.237
35.233
35.224
35.21
35.19
35.164
35.132
35.093
35.047
34.996
34.938
34.873
34.803
34.728
34.648
34.565
34.48
34.392
34.302
34.211
34.119
34.027
33.938
33.852
33.77
33.694
33.623
33.559
33.501
33.449
33.402
33.358
33.317
33.281
33.247
33.217
33.19
33.164
33.141
33.118
33.097
33.077
33.059
33.041
33.025
33.01
32.996
32.984
32.972
32.96
32.948
32.937
32.927
32.917
32.908
32.9
32.893
32.887
32.884
32.883
32.884
32.887
32.891
32.896
32.901
32.905
32.91
32.915
32.918
32.92
32.919
32.916
32.911
32.904
32.894
32.882
32.867
32.847
32.825
32.801
32.775
32.747
32.717
32.688
32.66
32.634
32.612
32.592
32.576
32.566
32.564
32.574
32.599
32.641
32.706
32.8
32.928
33.097
33.311
33.573
33.884
34.244
34.65
35.095
35.573
36.072
36.581
37.087
37.58
38.05
38.487
38.881
39.226
39.516
39.75
39.926
40.047
40.116
40.139
40.122
40.07
39.989
39.884
39.761
39.626
39.484
39.34
39.197
39.056
38.921
38.793
38.675
38.566
38.464
38.368
38.278
38.191
38.107
38.026
37.945
37.865
37.785
37.704
37.62
37.534
37.445
37.353
37.258
37.16
37.056
36.949
36.838
36.724
36.608
36.489
36.367
36.242
36.117
35.994
35.873
35.757
35.645
35.539
35.44
35.349
35.266
35.19
35.122
35.062
35.01
34.967
34.934
34.91
34.893
34.884
34.881
34.885
34.895
34.909
34.927
34.947
34.969
34.993
35.018
35.044
35.068
35.089
35.106
35.119
35.127
35.131
35.13
35.122
35.107
35.086
35.057
35.021
34.977
34.926
34.868
34.805
34.736
34.662
34.584
34.501
34.416
34.328
34.24
34.153
34.067
33.984
33.904
33.826
33.753
33.684
33.619
33.558
33.501
33.447
33.397
33.351
33.308
33.269
33.234
33.203
33.176
33.152
33.13
33.11
33.091
33.074
33.057
33.04
33.023
33.005
32.984
32.959
32.929
32.896
32.862
32.828
32.798
32.772
32.752
32.737
32.728
32.725
32.726
32.731
32.739
32.748
32.757
32.767
32.775
32.781
32.784
32.785
32.783
32.778
32.771
32.761
32.75
32.737
32.723
32.709
32.695
32.686
32.684
32.691
32.71
32.745
32.8
32.881
32.993
33.142
33.335
33.574
33.863
34.202
34.589
35.02
35.486
35.979
36.488
37.003
37.511
38.001
38.463
38.888
39.269
39.6
39.876
40.096
40.259
40.368
40.426
40.438
40.408
40.344
40.252
40.138
40.008
39.869
39.725
39.582
39.442
39.309
39.182
39.064
38.953
38.85
38.753
38.66
38.57
38.481
38.392
38.303
38.215
38.127
38.038
37.95
37.861
37.774
37.688
37.602
37.516
37.427
37.336
37.241
37.143
37.041
36.932
36.817
36.696
36.569
36.44
36.307
36.175
36.044
35.917
35.796
35.683
35.578
35.483
35.397
35.32
35.252
35.192
35.141
35.098
35.062
35.034
35.014
35.001
34.994
34.995
35.001
35.012
35.029
35.049
35.071
35.094
35.115
35.135
35.153
35.166
35.172
35.171
35.163
35.15
35.134
35.114
35.091
35.065
35.036
35.005
34.97
34.933
34.89
34.843
34.789
34.731
34.667
34.601
34.532
34.46
34.385
34.308
34.229
34.148
34.067
33.985
33.903
33.822
33.744
33.672
33.604
33.542
33.486
33.434
33.386
33.342
33.301
33.262
33.224
33.189
33.157
33.128
33.102
33.079
33.057
33.036
33.016
32.996
32.976
32.957
32.938
32.92
32.903
32.887
32.872
32.859
32.849
32.842
32.836
32.831
32.827
32.823
32.821
32.82
32.819
32.818
32.815
32.812
32.807
32.802
32.795
32.787
32.778
32.77
32.763
32.757
32.754
32.752
32.753
32.757
32.767
32.786
32.815
32.856
32.914
32.995
33.103
33.245
33.428
33.656
33.933
34.261
34.639
35.062
35.524
36.015
36.523
37.038
37.546
38.039
38.505
38.936
39.324
39.663
39.951
40.186
40.369
40.5
40.583
40.622
40.621
40.585
40.519
40.43
40.325
40.207
40.081
39.948
39.812
39.675
39.541
39.41
39.285
39.165
39.05
38.94
38.838
38.742
38.652
38.568
38.488
38.412
38.338
38.265
38.192
38.119
38.047
37.975
37.901
37.818
37.726
37.623
37.51
37.387
37.258
37.125
36.991
36.859
36.73
36.606
36.485
36.366
36.249
36.132
36.017
35.904
35.793
35.686
35.583
35.486
35.397
35.318
35.25
35.193
35.147
35.113
35.092
35.083
35.086
35.097
35.115
35.139
35.167
35.198
35.23
35.262
35.291
35.318
35.34
35.358
35.371
35.375
35.371
35.358
35.337
35.308
35.272
35.228
35.175
35.115
35.049
34.978
34.902
34.823
34.742
34.66
34.579
34.497
34.418
34.339
34.263
34.189
34.118
34.051
33.988
33.928
33.872
33.817
33.763
33.712
33.662
33.613
33.564
33.513
33.462
33.411
33.36
33.31
33.261
33.216
33.173
33.133
33.099
33.068
33.043
33.023
33.009
33.0
32.997
32.998
33.002
33.008
33.014
33.02
33.025
33.028
33.03
33.03
33.027
33.023
33.015
33.006
32.994
32.98
32.965
32.948
32.93
32.912
32.895
32.878
32.864
32.852
32.842
32.834
32.829
32.826
32.827
32.829
32.833
32.838
32.843
32.847
32.849
32.849
32.846
32.842
32.837
32.835
32.837
32.846
32.867
32.904
32.96
33.043
33.156
33.308
33.502
33.744
34.036
34.378
34.766
35.197
35.661
36.151
36.654
37.16
37.659
38.138
38.59
39.006
39.378
39.701
39.972
40.187
40.346
40.452
40.508
40.519
40.491
40.429
40.34
40.23
40.105
39.969
39.827
39.682
39.537
39.395
39.258
39.125
38.999
38.88
38.768
38.663
38.565
38.471
38.383
38.3
38.222
38.147
38.074
38.001
37.928
37.855
37.78
37.703
37.623
37.539
37.451
37.358
37.261
37.158
37.049
36.933
36.811
36.685
36.554
36.422
36.288
36.153
36.018
35.887
35.76
35.639
35.526
35.424
35.333
35.255
35.191
35.139
35.098
35.068
35.048
35.037
35.035
35.04
35.051
35.066
35.085
35.107
35.131
35.156
35.181
35.203
35.223
35.24
35.253
35.26
35.261
35.255
35.241
35.22
35.191
35.156
35.115
35.068
35.016
34.958
34.896
34.831
34.761
34.689
34.615
34.54
34.466
34.393
34.324
34.26
34.203
34.154
34.112
34.076
34.043
34.01
33.975
33.936
33.893
33.845
33.792
33.735
33.674
33.61
33.546
33.483
33.421
33.362
33.305
33.251
33.201
33.155
33.114
33.077
33.043
33.013
32.986
32.961
32.939
32.921
32.906
32.894
32.884
32.878
32.874
32.872
32.872
32.871
32.868
32.864
32.858
32.852
32.845
32.837
32.829
32.82
32.809
32.799
32.789
32.78
32.772
32.765
32.758
32.751
32.745
32.742
32.739
32.737
32.735
32.732
32.729
32.723
32.714
32.704
32.692
32.68
32.67
32.665
32.667
32.679
32.704
32.747
32.812
32.907
33.036
33.207
33.424
33.691
34.009
34.377
34.791
35.245
35.729
36.233
36.744
37.251
37.743
38.209
38.639
39.025
39.361
39.644
39.872
40.045
40.165
40.234
40.258
40.24
40.187
40.103
39.996
39.872
39.736
39.594
39.446
39.297
39.15
39.005
38.866
38.731
38.6
38.473
38.351
38.234
38.122
38.014
37.91
37.81
37.712
37.616
37.522
37.429
37.336
37.242
37.147
37.051
36.954
36.857
36.757
36.656
36.555
36.451
36.346
36.239
36.129
36.016
35.902
35.788
35.675
35.565
35.459
35.361
35.273
35.194
35.125
35.066
35.018
34.98
34.952
34.932
34.919
34.914
34.915
34.923
34.938
34.959
34.985
35.016
35.052
35.09
35.13
35.17
35.208
35.241
35.269
35.291
35.305
35.311
35.309
35.296
35.273
35.241
35.2
35.151
35.093
35.029
34.959
34.885
34.807
34.728
34.648
34.567
34.485
34.403
34.322
34.243
34.165
34.089
34.016
33.946
33.879
33.815
33.753
33.693
33.635
33.577
33.52
33.464
33.411
33.36
33.311
33.265
33.222
33.181
33.145
33.113
33.085
33.06
33.038
33.018
33.0
32.983
32.967
32.952
32.938
32.923
32.909
32.895
32.882
32.869
32.855
32.841
32.827
32.812
32.799
32.785
32.771
32.757
32.741
32.725
32.709
32.694
32.679
32.665
32.652
32.639
32.627
32.615
32.603
32.593
32.585
32.58
32.581
32.59
32.612
32.65
32.707
32.787
32.895
33.037
33.217
33.441
33.709
34.024
34.385
34.786
35.223
35.685
36.165
36.651
37.133
37.599
38.04
38.448
38.814
39.133
39.4
39.614
39.775
39.887
39.952
39.977
39.964
39.919
39.847
39.753
39.641
39.517
39.384
39.245
39.104
38.963
38.823
38.685
38.55
38.417
38.288
38.162
38.038
37.916
37.796
37.676
37.557
37.438
37.32
37.204
37.089
36.975
36.863
36.753
36.645
36.538
36.432
36.326
36.22
36.115
36.009
35.903
35.796
35.688
35.578
35.468
35.36
35.253
35.151
35.053
34.961
34.877
34.801
34.733
34.673
34.62
34.576
34.54
34.513
34.496
34.488
34.489
34.498
34.515
34.539
34.568
34.601
34.636
34.673
34.711
34.748
34.784
34.817
34.846
34.87
34.889
34.9
34.905
34.902
34.889
34.868
34.837
34.798
34.751
34.698
34.638
34.572
34.501
34.425
34.344
34.26
34.173
34.084
33.995
33.907
33.822
33.74
33.663
33.59
33.523
33.461
33.404
33.351
33.301
33.256
33.213
33.172
33.134
33.097
33.062
33.029
32.996
32.963
32.932
32.902
32.874
32.849
