Trial 1:0back
40.766
40.638
40.512
40.39
40.27
40.155
40.044
39.94
39.841
39.748
39.66
39.576
39.496
39.418
39.343
39.269
39.195
39.12
39.044
38.965
38.883
38.799
38.713
38.625
38.536
38.447
38.358
38.269
38.182
38.098
38.018
37.941
37.869
37.803
37.744
37.694
37.652
37.618
37.593
37.578
37.571
37.574
37.585
37.604
37.628
37.658
37.691
37.725
37.76
37.795
37.829
37.861
37.889
37.912
37.929
37.938
37.94
37.933
37.918
37.894
37.862
37.821
37.773
37.718
37.657
37.59
37.518
37.442
37.361
37.277
37.189
37.098
37.004
36.907
36.807
36.705
36.601
36.496
36.39
36.283
36.177
36.071
35.965
35.859
35.753
35.648
35.546
35.446
35.35
35.258
35.17
35.085
35.003
34.924
34.846
34.77
34.694
34.619
34.545
34.472
34.4
34.329
34.259
34.192
34.125
34.062
34.0
33.942
33.887
33.835
33.786
33.74
33.698
33.659
33.625
33.594
33.566
33.542
33.519
33.497
33.475
33.455
33.436
33.419
33.402
33.388
33.374
33.362
33.35
33.339
33.328
33.316
33.304
33.292
33.28
33.267
33.254
33.239
33.224
33.209
33.193
33.177
33.16
33.142
33.122
33.101
33.078
33.054
33.029
33.003
32.974
32.945
32.913
32.881
32.848
32.814
32.781
32.748
32.716
32.685
32.655
32.626
32.598
32.57
32.542
32.513
32.482
32.45
32.416
32.381
32.347
32.314
32.282
32.253
32.225
32.2
32.176
32.152
32.13
32.108
32.087
32.068
32.049
32.031
32.013
31.995
31.977
31.96
31.944
31.929
31.915
31.903
31.892
31.882
31.872
31.861
31.848
31.834
31.817
31.798
31.778
31.757
31.736
31.714
31.694
31.674
31.654
31.636
31.618
31.602
31.587
31.573
31.559
31.546
31.533
31.522
31.513
31.506
31.5
31.495
31.491
31.488
31.487
31.488
31.49
31.496
31.506
31.524
31.553
31.598
31.662
31.754
31.88
32.046
32.261
32.529
32.857
33.246
33.696
34.203
34.761
35.36
35.991
36.641
37.297
37.948
38.581
39.185
39.75
40.268
40.734
41.145
41.497
41.792
42.029
42.212
42.345
42.433
42.48
42.494
42.477
42.437
42.377
42.3
42.211
42.111
42.002
41.888
41.769
41.649
41.527
41.404
41.281
41.158
41.034
40.909
40.784
40.658
40.532
40.405
40.277
40.149
40.023
39.898
39.776
39.655
39.536
39.42
39.307
39.197
39.091
38.988
38.887
38.787
38.688
38.589
38.49
38.39
38.289
38.183
38.069
37.95
37.828
37.707
37.59
37.483
37.387
37.306
37.243
37.197
37.169
37.158
37.163
37.184
37.217
37.261
37.313
37.371
37.433
37.497
37.56
37.62
37.677
37.729
37.776
37.817
37.851
37.877
37.895
37.906
37.908
37.904
37.894
37.876
37.853
37.823
37.789
37.751
37.708
37.661
37.609
37.553
37.493
37.429
37.36
37.285
37.206
37.121
37.03
36.935
36.835
36.731
36.623
36.512
36.401
36.288
36.174
36.059
35.944
35.828
35.711
35.593
35.475
35.358
35.242
35.129
35.018
34.912
34.81
34.713
34.62
34.531
34.445
34.364
34.285
34.211
34.14
34.073
34.01
33.952
33.896
33.844
33.794
33.746
33.7
33.655
33.613
33.571
33.532
33.494
33.459
33.427
33.398
33.371
33.348
33.328
33.31
33.294
33.279
33.264
33.251
33.238
33.227
33.216
33.207
33.198
33.188
33.177
33.164
33.149
33.132
33.113
33.093
33.073
33.052
33.032
33.012
32.994
32.976
32.96
32.944
32.928
32.913
32.897
32.88
32.863
32.845
32.825
32.805
32.783
32.761
32.74
32.719
32.698
32.676
32.654
32.632
32.607
32.582
32.554
32.525
32.494
32.46
32.425
32.389
32.352
32.315
32.279
32.243
32.209
32.174
32.141
32.108
32.075
32.042
32.01
31.979
31.949
31.921
31.893
31.866
31.839
31.812
31.785
31.758
31.731
31.704
31.678
31.651
31.626
31.603
31.582
31.563
31.546
31.531
31.517
31.505
31.494
31.483
31.473
31.463
31.454
31.445
31.437
31.428
31.42
31.41
31.398
31.384
31.367
31.348
31.326
31.303
31.279
31.254
31.228
31.195
31.155
31.11
31.063
31.017
30.976
30.941
30.916
30.902
30.899
30.909
30.93
30.964
31.01
31.07
31.145
31.24
31.359
31.508
31.692
31.921
32.199
32.532
32.923
33.375
33.886
34.452
35.066
35.719
36.4
37.097
37.796
38.484
39.148
39.776
40.36
40.89
41.36
41.769
42.113
42.393
42.612
42.772
42.878
42.937
42.955
42.937
42.889
42.817
42.726
42.621
42.506
42.385
42.26
42.132
42.003
41.873
41.744
41.614
41.485
41.355
41.226
41.096
40.967
40.838
40.711
40.587
40.466
40.348
40.235
40.126
40.021
39.921
39.825
39.732
39.642
39.554
39.469
39.385
39.302
39.22
39.138
39.056
38.973
38.889
38.803
38.716
38.627
38.537
38.447
38.356
38.266
38.179
38.096
38.018
37.947
37.882
37.824
37.772
37.727
37.688
37.656
37.631
37.613
37.6
37.593
37.593
37.598
37.608
37.623
37.641
37.66
37.68
37.7
37.719
37.735
37.748
37.756
37.758
37.754
37.743
37.725
37.701
37.671
37.634
37.592
37.546
37.495
37.441
37.383
37.32
37.253
37.18
37.102
37.018
36.929
36.835
36.737
36.636
36.531
36.425
36.317
36.208
36.098
35.989
35.881
35.775
35.669
35.564
35.462
35.361
35.263
35.167
35.074
34.982
34.891
34.801
34.712
34.624
34.537
34.452
34.368
34.287
34.208
34.132
34.06
33.991
33.926
33.865
33.808
33.753
33.701
33.652
33.606
33.562
33.521
33.483
33.448
33.417
33.388
33.363
33.34
33.321
33.304
33.29
33.279
33.268
33.258
33.249
33.239
33.228
33.216
33.202
33.187
33.17
33.152
33.133
33.113
33.092
33.073
33.055
33.038
33.023
33.006
32.989
32.97
32.949
32.928
32.906
32.884
32.861
32.839
32.818
32.798
32.778
32.758
32.739
32.719
32.698
32.676
32.653
32.627
32.6
32.571
32.541
32.51
32.479
32.447
32.414
32.381
32.346
32.31
32.275
32.24
32.206
32.173
32.141
32.11
32.08
32.049
32.019
31.988
31.957
31.926
31.896
31.866
31.837
31.808
31.78
31.754
31.73
31.707
31.687
31.668
31.651
31.635
31.621
31.607
31.593
31.579
31.563
31.546
31.528
31.51
31.491
31.472
31.454
31.436
31.42
31.406
31.394
31.385
31.378
31.372
31.368
31.364
31.361
31.358
31.354
31.349
31.342
31.333
31.323
31.311
31.299
31.288
31.278
31.269
31.262
31.257
31.252
31.249
31.247
31.245
31.244
31.244
31.245
31.245
31.247
31.25
31.254
31.26
31.268
31.279
31.294
31.317
31.351
31.4
31.47
31.568
31.701
31.877
32.101
32.38
32.718
33.117
33.576
34.092
34.66
35.271
35.916
36.581
37.255
37.924
38.576
39.199
39.782
40.317
40.798
41.22
41.582
41.882
42.123
42.307
42.439
42.523
42.565
42.571
42.545
42.493
42.419
42.328
42.224
42.111
41.992
41.868
41.742
41.615
41.486
41.358
41.229
41.1
40.971
40.842
40.712
40.581
40.449
40.317
40.184
40.051
39.918
39.787
39.658
39.532
39.41
39.292
39.179
39.07
38.964
38.861
38.759
38.66
38.56
38.46
38.359
38.256
38.152
38.047
37.941
37.836
37.732
37.631
37.536
37.447
37.366
37.294
37.232
37.181
37.142
37.114
37.099
37.097
37.107
37.128
37.159
37.2
37.248
37.301
37.359
37.418
37.477
37.535
37.589
37.639
37.685
37.728
37.766
37.799
37.826
37.847
37.862
37.871
37.872
37.865
37.85
37.825
37.792
37.75
37.7
37.642
37.577
37.504
37.424
37.336
37.242
37.141
37.036
36.927
36.816
36.702
36.587
36.472
36.358
36.244
36.131
36.019
35.906
35.794
35.683
35.573
35.464
35.356
35.249
35.144
35.04
34.937
34.835
34.735
34.636
34.541
34.448
34.358
34.272
34.188
34.108
34.031
33.957
33.886
33.818
33.754
33.693
33.635
33.579
33.526
33.475
33.425
33.376
33.33
33.286
33.246
33.21
33.179
33.153
33.133
33.119
33.108
33.102
33.099
33.099
33.101
33.103
33.105
33.107
33.109
33.11
33.111
33.111
33.11
33.108
33.105
33.102
33.096
33.09
33.081
33.071
33.057
33.041
33.024
33.004
32.984
32.962
32.941
32.919
32.897
32.875
32.852
32.828
32.804
32.78
32.755
32.729
32.701
32.67
32.637
32.602
32.565
32.526
32.488
32.45
32.413
32.378
32.345
32.314
32.285
32.258
32.233
32.209
32.186
32.164
32.141
32.118
32.094
32.07
32.044
32.019
31.994
31.97
31.946
31.923
31.898
31.872
31.845
31.816
31.787
31.757
31.725
31.693
31.661
31.628
31.595
31.564
31.534
31.508
31.485
31.465
31.449
31.436
31.424
31.412
31.402
31.393
31.386
31.38
31.376
31.374
31.373
31.373
31.372
31.371
31.369
31.366
31.361
31.353
31.344
31.331
31.317
31.299
31.28
31.259
31.239
31.22
31.204
31.19
31.18
31.173
31.17
31.17
31.173
31.177
31.183
31.192
31.203
31.218
31.24
31.271
31.317
31.383
31.476
31.603
31.772
31.989
32.26
32.592
32.988
33.451
33.98
34.57
35.212
35.897
36.612
37.343
38.075
38.794
39.486
40.138
40.738
41.28
41.756
42.165
42.506
42.78
42.989
43.139
43.235
43.282
43.287
43.258
43.2
43.119
43.02
42.906
42.783
42.653
42.519
42.383
42.245
42.106
41.969
41.832
41.697
41.563
41.431
41.299
41.168
41.038
40.91
40.784
40.659
40.536
40.416
40.3
40.188
40.08
39.977
39.877
39.783
39.692
39.606
39.524
39.445
39.366
39.288
39.209
39.127
39.041
38.952
38.861
38.768
38.675
38.582
38.489
38.396
38.305
38.215
38.127
38.041
37.96
37.884
37.815
37.755
37.703
37.66
37.626
37.602
37.588
37.584
37.588
37.601
37.619
37.641
37.665
37.69
37.715
37.737
37.758
37.775
37.788
37.796
37.8
37.799
37.793
37.78
37.762
37.737
37.706
37.669
37.626
37.578
37.525
37.466
37.402
37.332
37.257
37.176
37.092
37.004
36.912
36.817
36.718
36.617
36.512
36.405
36.295
36.183
36.069
35.953
35.836
35.717
35.598
35.479
35.361
35.245
35.132
35.022
34.914
34.809
34.706
34.606
34.509
34.416
34.328
34.244
34.165
34.091
34.022
33.956
33.894
33.834
33.777
33.721
33.666
33.613
33.56
33.51
33.462
33.416
33.373
33.33
33.289
33.25
33.212
33.176
33.142
33.111
33.081
33.054
33.028
33.004
32.982
32.962
32.943
32.926
32.911
32.898
32.885
32.874
32.864
32.856
32.85
32.845
32.839
32.833
32.824
32.814
32.802
32.788
32.772
32.754
32.734
32.714
32.693
32.672
32.65
32.627
32.604
32.58
32.555
32.53
32.506
32.483
32.461
32.44
32.42
32.4
32.381
32.363
32.344
32.325
32.305
32.284
32.26
32.234
32.205
32.175
32.143
32.111
32.077
32.043
32.009
31.975
31.942
31.909
31.878
31.847
31.817
31.788
31.758
31.729
31.7
31.671
31.643
31.614
31.586
31.559
31.533
31.508
31.484
31.461
31.438
31.417
31.398
31.381
31.365
31.353
31.343
31.335
31.329
31.325
31.322
31.32
31.318
31.315
31.311
31.307
31.301
31.293
31.283
31.271
31.258
31.244
31.229
31.213
31.198
31.184
31.171
31.158
31.143
31.127
31.108
31.088
31.069
31.051
31.036
31.025
31.019
31.017
31.02
31.029
31.044
31.065
31.093
31.128
31.173
31.228
31.297
31.385
31.496
31.639
31.821
32.048
32.328
32.665
33.063
33.521
34.038
34.607
35.222
35.871
36.542
37.222
37.897
38.555
39.184
39.776
40.321
40.813
41.247
41.62
41.931
42.181
42.373
42.511
42.6
42.644
42.651
42.625
42.572
42.497
42.405
42.301
42.189
42.07
41.947
41.821
41.693
41.563
41.431
41.297
41.163
41.027
40.89
40.752
40.613
40.475
40.339
40.206
40.076
39.949
39.826
39.706
39.588
39.472
39.359
39.247
39.137
39.027
38.918
38.809
38.701
38.593
38.486
38.38
38.276
38.172
38.069
37.968
37.868
37.771
37.677
37.587
37.502
37.425
37.355
37.295
37.246
37.208
37.183
37.17
37.169
37.181
37.203
37.234
37.273
37.318
37.367
37.421
37.476
37.533
37.589
37.644
37.697
37.746
37.792
37.834
37.871
37.903
37.93
37.95
37.962
37.965
37.96
37.945
37.919
37.884
37.839
37.785
37.723
37.654
37.578
37.496
37.409
37.315
37.216
37.11
36.999
36.885
36.769
36.653
36.537
36.423
36.312
36.204
36.099
35.997
35.898
35.8
35.703
35.607
35.512
35.417
35.322
35.227
35.132
35.039
34.946
34.855
34.766
34.678
34.593
34.51
34.428
34.349
34.273
34.199
34.128
34.061
33.997
33.937
33.88
33.827
33.778
33.731
33.688
33.647
33.61
33.576
33.545
33.518
33.493
33.472
33.454
33.438
33.425
33.413
33.402
33.391
33.379
33.367
33.353
33.341
33.328
33.317
33.306
33.297
33.289
33.283
33.28
33.278
33.277
33.275
33.272
33.266
33.258
33.248
33.235
33.219
33.2
33.179
33.156
33.129
33.102
33.073
33.045
33.017
32.991
32.966
32.941
32.917
32.892
32.866
32.838
32.809
32.778
32.747
32.715
32.684
32.653
32.622
32.592
32.562
32.532
32.503
32.475
32.448
32.422
32.396
32.369
32.342
32.315
32.286
32.256
32.225
32.194
32.164
32.133
32.104
32.074
32.045
32.015
31.985
31.955
31.925
31.896
31.867
31.838
31.809
31.782
31.756
31.732
31.71
31.692
31.678
31.668
31.662
31.661
31.663
31.668
31.674
31.681
31.688
31.693
31.696
31.695
31.692
31.685
31.675
31.663
31.647
31.628
31.606
31.583
31.558
31.532
31.505
31.479
31.455
31.433
31.413
31.396
31.382
31.371
31.363
31.359
31.358
31.36
31.366
31.375
31.388
31.405
31.429
31.461
31.507
31.571
31.659
31.781
31.942
32.151
32.414
32.738
33.127
33.582
34.101
34.679
35.308
35.978
36.677
37.39
38.104
38.804
39.479
40.115
40.704
41.237
41.711
42.122
42.469
42.752
42.972
43.133
43.238
43.295
43.31
43.289
43.238
43.163
43.07
42.963
42.847
42.724
42.597
42.47
42.344
42.22
42.099
41.982
41.868
41.758
41.65
41.544
41.441
41.339
41.239
41.139
41.04
40.941
40.843
40.746
40.652
40.561
40.473
40.388
40.308
40.23
40.155
40.084
40.014
39.946
39.879
39.813
39.747
39.678
39.607
39.531
39.448
39.359
39.262
39.159
39.049
38.935
38.819
38.704
38.592
38.487
38.39
38.304
38.23
38.169
38.123
38.092
38.073
38.065
38.063
38.062
38.06
38.057
38.053
38.048
38.043
38.036
38.03
38.024
38.017
38.01
38.002
37.992
37.981
37.966
37.947
37.922
37.892
37.856
37.813
37.762
37.704
37.638
37.565
37.485
37.397
37.304
37.205
37.102
36.996
36.885
36.772
36.656
36.539
36.42
36.299
36.176
36.053
35.929
35.808
35.689
35.573
35.461
35.354
35.252
35.156
35.065
34.981
34.905
34.835
34.77
34.709
34.653
34.6
34.549
34.501
34.453
34.406
34.359
34.309
34.258
34.205
34.151
34.097
34.043
33.987
33.93
33.872
33.814
33.758
33.706
33.66
33.62
33.587
33.562
33.544
33.533
33.526
33.524
33.524
33.525
33.527
33.529
33.528
33.523
33.515
33.503
33.487
33.467
33.443
33.416
33.385
33.351
33.314
33.276
33.236
33.197
33.159
33.123
33.09
33.059
33.031
33.003
32.977
32.952
32.926
32.902
32.878
32.853
32.829
32.804
32.777
32.751
32.724
32.698
32.672
32.647
32.622
32.599
32.576
32.554
32.532
32.509
32.486
32.462
32.437
32.409
32.381
32.352
32.323
32.294
32.266
32.239
32.211
32.183
32.154
32.125
32.095
32.066
32.037
32.008
31.979
31.953
31.928
31.905
31.883
31.862
31.841
31.82
31.798
31.777
31.755
31.733
31.711
31.69
31.668
31.647
31.625
31.604
31.584
31.564
31.546
31.53
31.515
31.502
31.489
31.477
31.465
31.452
31.438
31.423
31.408
31.393
31.378
31.362
31.346
31.329
31.312
31.294
31.276
31.259
31.242
31.225
31.209
31.192
31.175
31.157
31.14
31.124
31.11
31.098
31.089
31.083
31.08
31.081
31.085
31.092
31.104
31.12
31.142
31.174
31.216
31.275
31.354
31.459
31.598
31.776
32.002
32.279
32.613
33.006
33.456
33.962
34.516
35.112
35.738
36.383
37.036
37.684
38.316
38.921
39.49
40.016
40.492
40.913
41.276
41.582
41.832
42.026
42.169
42.264
42.318
42.335
42.322
42.283
42.225
42.151
42.067
41.974
41.878
41.778
41.677
41.576
41.475
41.373
41.271
41.168
41.064
40.958
40.851
40.742
40.631
40.518
40.405
40.291
40.176
40.061
39.948
39.838
39.73
39.624
39.522
39.422
39.325
39.23
39.137
39.044
38.95
38.856
38.761
38.666
38.57
38.475
38.379
38.284
38.19
38.099
38.011
37.929
37.853
37.786
37.728
37.679
37.641
37.613
37.595
37.587
37.588
37.597
37.613
37.634
37.661
37.691
37.725
37.761
37.799
37.838
37.877
37.916
37.953
37.988
38.02
38.048
38.072
38.092
38.106
38.114
38.115
38.109
38.097
38.078
38.052
38.02
37.979
37.932
37.876
37.813
37.742
37.662
37.577
37.493
37.413
37.338
37.266
37.195
37.123
37.048
36.968
36.881
36.786
36.684
36.574
36.459
36.338
36.215
36.09
35.964
35.84
35.718
35.6
35.485
35.374
35.267
35.163
35.063
34.967
34.875
34.786
34.702
34.623
34.547
34.476
34.41
34.348
34.291
34.238
34.191
34.147
34.106
34.069
34.033
34.001
33.971
33.945
33.922
33.901
33.882
33.864
33.847
33.832
33.816
33.802
33.788
33.775
33.764
33.754
33.745
33.738
33.732
33.729
33.726
33.724
33.721
33.718
33.716
33.714
33.711
33.707
33.702
33.695
33.684
33.67
33.651
33.629
33.603
33.574
33.542
33.508
33.472
33.434
33.396
33.357
33.319
33.281
33.245
33.211
33.18
33.15
33.122
33.095
33.07
33.045
33.021
32.996
32.971
32.944
32.915
32.884
32.85
32.814
32.777
32.741
32.705
32.671
32.638
32.608
32.58
32.555
32.533
32.512
32.493
32.474
32.456
32.439
32.419
32.397
32.373
32.346
32.317
32.285
32.253
32.219
32.184
32.148
32.111
32.074
32.038
32.002
31.967
31.934
31.903
31.874
31.849
31.827
31.809
31.794
31.785
31.78
31.781
31.79
31.807
31.835
31.878
31.94
32.027
32.145
32.302
32.503
32.755
33.062
33.425
33.845
34.318
34.84
35.403
35.998
36.616
37.244
37.871
38.486
39.079
39.641
40.163
40.64
41.065
41.437
41.755
42.019
42.231
42.394
42.512
42.588
42.627
42.633
42.612
42.569
42.507
42.432
42.346
42.253
42.154
42.052
41.948
41.843
41.737
41.631
41.524
41.415
41.305
41.194
41.08
40.964
40.847
40.731
40.618
40.508
40.403
40.302
40.205
40.113
40.024
39.939
39.858
39.781
39.706
39.632
39.558
39.484
39.409
39.33
39.246
39.159
39.067
38.97
38.87
38.766
38.662
38.557
38.455
38.357
38.264
38.177
38.098
38.028
37.968
37.918
37.879
37.85
37.829
37.816
37.811
37.813
37.822
37.835
37.852
37.872
37.894
37.919
37.944
37.968
37.991
38.012
38.029
38.042
38.049
38.051
38.046
38.036
38.019
37.996
37.966
37.929
37.885
37.836
37.781
37.721
37.655
37.583
37.507
37.425
37.339
37.249
37.156
37.058
36.956
36.85
36.742
36.633
36.522
36.412
36.302
36.192
36.084
35.976
35.869
35.764
35.661
35.56
35.461
35.365
35.271
35.178
35.088
35.001
34.916
34.834
34.754
34.677
34.601
34.528
34.457
34.388
34.322
34.257
34.194
34.133
34.074
34.017
33.963
33.911
33.862
33.817
33.775
33.737
33.703
33.674
33.648
33.625
33.606
33.588
33.571
33.554
33.536
33.517
33.496
33.474
33.453
33.43
33.408
33.386
33.365
33.346
33.329
33.315
33.305
33.296
33.289
33.282
33.274
33.264
33.252
33.237
33.218
33.196
33.171
33.144
33.114
33.083
33.051
33.018
32.986
32.954
32.921
32.888
32.854
32.819
32.781
32.742
32.701
32.66
32.618
32.576
32.535
32.494
32.454
32.415
32.375
32.334
32.294
32.253
32.212
32.172
32.132
32.092
32.052
32.011
31.971
31.932
31.893
31.856
31.82
31.786
31.753
31.722
31.692
31.662
31.633
31.604
31.575
31.546
31.517
31.488
31.46
31.433
31.408
31.384
31.363
31.345
31.329
31.316
31.306
31.297
31.289
31.282
31.275
31.267
31.259
31.25
31.241
31.231
31.219
31.207
31.192
31.174
31.153
31.13
31.106
31.081
31.055
31.03
31.006
30.984
30.963
30.945
30.927
30.911
30.896
30.882
30.869
30.86
30.856
30.86
30.875
30.904
30.953
31.027
31.132
31.275
31.462
31.698
31.99
32.34
32.749
33.216
33.738
34.309
34.921
35.562
36.222
36.888
37.548
38.188
38.798
39.369
39.892
40.363
40.776
41.131
41.429
41.673
41.865
42.013
42.12
42.191
42.232
42.247
42.241
42.218
42.18
42.131
42.074
42.009
41.939
41.864
41.786
41.704
41.619
41.531
41.439
41.344
41.246
41.145
41.042
40.938
40.832
40.726
40.62
40.516
40.414
40.314
40.217
40.123
