Trial 1:0back
34.644
34.64
34.643
34.651
34.663
34.676
34.69
34.701
34.709
34.713
34.712
34.707
34.698
34.685
34.669
34.651
34.631
34.611
34.59
34.57
34.552
34.536
34.522
34.51
34.499
34.49
34.483
34.476
34.471
34.468
34.467
34.469
34.472
34.476
34.481
34.485
34.487
34.488
34.486
34.483
34.479
34.473
34.467
34.46
34.453
34.446
34.439
34.432
34.426
34.42
34.414
34.408
34.402
34.395
34.387
34.377
34.366
34.352
34.336
34.319
34.3
34.28
34.258
34.235
34.212
34.188
34.167
34.148
34.134
34.128
34.13
34.144
34.17
34.211
34.268
34.341
34.431
34.54
34.665
34.805
34.959
35.123
35.293
35.467
35.642
35.814
35.982
36.143
36.295
36.435
36.561
36.671
36.766
36.842
36.901
36.943
36.969
36.98
36.978
36.965
36.941
36.908
36.868
36.822
36.774
36.725
36.676
36.629
36.585
36.544
36.506
36.473
36.443
36.418
36.396
36.377
36.361
36.347
36.336
36.324
36.312
36.298
36.281
36.262
36.24
36.216
36.191
36.164
36.136
36.107
36.076
36.045
36.013
35.981
35.948
35.914
35.881
35.847
35.813
35.778
35.743
35.709
35.675
35.644
35.616
35.592
35.572
35.556
35.545
35.536
35.531
35.527
35.525
35.524
35.524
35.524
35.524
35.524
35.523
35.522
35.519
35.516
35.511
35.507
35.502
35.496
35.488
35.476
35.461
35.441
35.418
35.391
35.36
35.328
35.295
35.261
35.227
35.195
35.164
35.134
35.106
35.078
35.05
35.023
34.995
34.964
34.931
34.894
34.854
34.812
34.769
34.728
34.69
34.656
34.626
34.602
34.581
34.564
34.55
34.538
34.527
34.516
34.505
34.494
34.481
34.468
34.454
34.439
34.424
34.41
34.396
34.383
34.371
34.359
34.347
34.334
34.32
34.304
34.287
34.27
34.253
34.236
34.22
34.205
34.19
34.175
34.16
34.145
34.128
34.112
34.095
34.077
34.06
34.042
34.023
34.006
33.99
33.976
33.966
33.958
33.954
33.953
33.953
33.955
33.956
33.958
33.958
33.957
33.955
33.952
33.949
33.944
33.938
33.931
33.924
33.916
33.908
33.902
33.897
33.893
33.889
33.885
33.881
33.877
33.874
33.87
33.866
33.863
33.86
33.857
33.854
33.849
33.844
33.838
33.831
33.823
33.815
33.806
33.797
33.788
33.778
33.768
33.759
33.753
33.753
33.761
33.78
33.813
33.862
33.931
34.02
34.129
34.259
34.412
34.591
34.796
35.023
35.264
35.51
35.755
35.99
36.208
36.404
36.575
36.719
36.835
36.922
36.982
37.018
37.03
37.022
36.998
36.961
36.914
36.861
36.805
36.748
36.69
36.634
36.579
36.528
36.48
36.438
36.401
36.371
36.347
36.329
36.316
36.309
36.307
36.308
36.312
36.317
36.324
36.332
36.339
36.346
36.353
36.358
36.362
36.366
36.369
36.371
36.373
36.373
36.372
36.369
36.361
36.349
36.332
36.308
36.279
36.246
36.208
36.168
36.126
36.084
36.041
36.0
35.96
35.923
35.89
35.863
35.841
35.824
35.813
35.807
35.804
35.805
35.808
35.813
35.818
35.823
35.827
35.83
35.831
35.829
35.824
35.816
35.806
35.793
35.78
35.767
35.753
35.738
35.723
35.706
35.689
35.671
35.652
35.632
35.612
35.59
35.567
35.541
35.511
35.478
35.441
35.402
35.361
35.32
35.278
35.238
35.198
35.159
35.12
35.082
35.044
35.008
34.972
34.938
34.905
34.874
34.844
34.816
34.79
34.765
34.74
34.716
34.693
34.669
34.646
34.623
34.598
34.573
34.548
34.524
34.501
34.481
34.465
34.452
34.443
34.436
34.43
34.426
34.422
34.416
34.41
34.401
34.39
34.377
34.362
34.346
34.329
34.312
34.296
34.281
34.267
34.255
34.243
34.231
34.217
34.2
34.182
34.161
34.139
34.118
34.097
34.078
34.063
34.05
34.041
34.036
34.033
34.033
34.033
34.033
34.032
34.029
34.024
34.017
34.009
33.999
33.989
33.981
33.974
33.97
33.967
33.964
33.96
33.954
33.945
33.933
33.919
33.902
33.882
33.862
33.84
33.819
33.798
33.778
33.759
33.741
33.724
33.706
33.687
33.668
33.648
33.627
33.605
33.586
33.569
33.56
33.559
33.569
33.592
33.631
33.686
33.759
33.85
33.961
34.09
34.238
34.403
34.583
34.775
34.975
35.18
35.386
35.588
35.782
35.966
36.136
36.291
36.428
36.545
36.64
36.713
36.764
36.794
36.804
36.797
36.775
36.743
36.701
36.654
36.603
36.552
36.501
36.452
36.407
36.366
36.33
36.299
36.273
36.252
36.234
36.221
36.211
36.207
36.206
36.211
36.218
36.229
36.241
36.253
36.264
36.273
36.279
36.281
36.279
36.273
36.262
36.246
36.225
36.198
36.165
36.127
36.083
36.036
35.986
35.933
35.879
35.824
35.77
35.718
35.668
35.622
35.581
35.545
35.516
35.493
35.476
35.464
35.456
35.451
35.448
35.448
35.449
35.452
35.456
35.461
35.466
35.47
35.473
35.474
35.475
35.474
35.47
35.465
35.456
35.445
35.429
35.411
35.392
35.371
35.352
35.334
35.316
35.3
35.284
35.269
35.253
35.235
35.215
35.194
35.17
35.145
35.118
35.089
35.06
35.03
34.998
34.967
34.935
34.904
34.873
34.844
34.816
34.788
34.761
34.734
34.708
34.682
34.657
34.634
34.614
34.596
34.581
34.568
34.557
34.548
34.541
34.535
34.53
34.526
34.524
34.522
34.521
34.519
34.516
34.513
34.509
34.503
34.497
34.49
34.482
34.474
34.465
34.455
34.443
34.431
34.418
34.404
34.391
34.378
34.365
34.352
34.337
34.32
34.303
34.285
34.267
34.251
34.237
34.226
34.216
34.209
34.203
34.198
34.193
34.187
34.182
34.176
34.169
34.161
34.153
34.144
34.136
34.129
34.123
34.119
34.117
34.116
34.117
34.117
34.116
34.113
34.108
34.1
34.09
34.077
34.062
34.046
34.031
34.016
34.005
33.998
33.996
34.001
34.013
34.035
34.068
34.113
34.172
34.245
34.334
34.438
34.558
34.695
34.846
35.011
35.187
35.37
35.556
35.742
35.921
36.092
36.249
36.392
36.517
36.625
36.716
36.788
36.845
36.885
36.911
36.924
36.926
36.92
36.907
36.887
36.861
36.83
36.794
36.754
36.71
36.665
36.619
36.573
36.528
36.485
36.446
36.409
36.376
36.346
36.32
36.297
36.278
36.264
36.252
36.243
36.235
36.226
36.215
36.202
36.186
36.167
36.143
36.115
36.083
36.047
36.007
35.965
35.92
35.875
35.828
35.782
35.736
35.692
35.65
35.608
35.568
35.529
35.493
35.461
35.433
35.411
35.395
35.386
35.382
35.384
35.391
35.404
35.42
35.44
35.46
35.482
35.502
35.52
35.536
35.547
35.55
35.541
35.522
35.494
35.463
35.429
35.396
35.365
35.337
35.313
35.294
35.279
35.268
35.261
35.257
35.255
35.256
35.257
35.257
35.257
35.256
35.252
35.247
35.238
35.226
35.211
35.19
35.164
35.134
35.099
35.063
35.026
34.991
34.958
34.929
34.902
34.879
34.858
34.84
34.824
34.808
34.793
34.777
34.761
34.743
34.723
34.701
34.676
34.649
34.621
34.592
34.563
34.535
34.508
34.482
34.456
34.431
34.406
34.381
34.358
34.336
34.316
34.298
34.282
34.269
34.257
34.248
34.24
34.232
34.225
34.219
34.213
34.206
34.198
34.188
34.177
34.165
34.153
34.141
34.13
34.121
34.112
34.103
34.093
34.081
34.067
34.052
34.034
34.015
33.995
33.975
33.955
33.936
33.917
33.9
33.884
33.869
33.856
33.843
33.833
33.823
33.813
33.803
33.792
33.78
33.767
33.753
33.738
33.722
33.706
33.69
33.673
33.659
33.648
33.644
33.646
33.657
33.679
33.713
33.76
33.823
33.901
33.996
34.11
34.241
34.391
34.558
34.74
34.935
35.14
35.351
35.562
35.77
35.971
36.16
36.336
36.495
36.634
36.753
36.851
36.926
36.981
37.015
37.032
37.033
37.02
36.997
36.965
36.927
36.885
36.842
36.797
36.752
36.71
36.671
36.635
36.604
36.578
36.556
36.536
36.519
36.503
36.488
36.475
36.463
36.453
36.445
36.438
36.432
36.428
36.426
36.424
36.423
36.422
36.42
36.417
36.41
36.4
36.386
36.366
36.341
36.312
36.278
36.242
36.203
36.162
36.121
36.08
36.038
35.998
35.958
35.92
35.884
35.851
35.822
35.796
35.773
35.754
35.737
35.723
35.71
35.699
35.691
35.684
35.68
35.676
35.674
35.673
35.672
35.671
35.67
35.667
35.663
35.657
35.649
35.64
35.629
35.616
35.602
35.587
35.572
35.558
35.543
35.527
35.511
35.493
35.472
35.449
35.424
35.396
35.365
35.332
35.297
35.261
35.223
35.186
35.148
35.112
35.079
35.048
35.02
34.996
34.974
34.954
34.933
34.912
34.889
34.865
34.84
34.815
34.79
34.767
34.745
34.724
34.705
34.688
34.671
34.655
34.639
34.624
34.609
34.594
34.578
34.562
34.544
34.525
34.507
34.49
34.475
34.461
34.449
34.437
34.424
34.411
34.396
34.381
34.365
34.35
34.336
34.323
34.312
34.303
34.295
34.288
34.281
34.275
34.268
34.261
34.252
34.242
34.23
34.217
34.202
34.187
34.173
34.161
34.153
34.147
34.143
34.141
34.138
34.134
34.128
34.12
34.109
34.096
34.081
34.065
34.049
34.033
34.018
34.002
33.987
33.971
33.956
33.94
33.923
33.906
33.887
33.868
33.847
33.826
33.805
33.787
33.771
33.759
33.749
33.743
33.738
33.735
33.732
33.73
33.728
33.727
33.729
33.734
33.744
33.761
33.788
33.827
33.881
33.953
34.046
34.159
34.295
34.452
34.629
34.822
35.029
35.245
35.465
35.686
35.902
36.11
36.306
36.487
36.649
36.791
36.912
37.012
37.09
37.149
37.189
37.212
37.22
37.216
37.201
37.178
37.148
37.113
37.075
37.035
36.996
36.956
36.918
36.882
36.848
36.816
36.786
36.758
36.734
36.713
36.696
36.682
36.671
36.662
36.654
36.647
36.642
36.636
36.632
36.628
36.625
36.623
36.621
36.618
36.614
36.608
36.599
36.586
36.568
36.544
36.515
36.48
36.439
36.392
36.342
36.288
36.233
36.18
36.129
36.082
36.039
36.001
35.969
35.941
35.917
35.898
35.884
35.873
35.866
35.862
35.86
35.86
35.861
35.862
35.863
35.865
35.866
35.868
35.869
35.869
35.866
35.86
35.849
35.834
35.814
35.791
35.765
35.737
35.708
35.678
35.648
35.616
35.584
35.55
35.517
35.483
35.449
35.416
35.384
35.353
35.324
35.296
35.271
35.247
35.225
35.206
35.187
35.169
35.15
35.129
35.107
35.081
35.054
35.025
34.995
34.966
34.938
34.911
34.886
34.863
34.842
34.821
34.801
34.78
34.76
34.738
34.717
34.694
34.671
34.648
34.624
34.601
34.578
34.556
34.534
34.511
34.487
34.461
34.435
34.407
34.379
34.351
34.324
34.3
34.278
34.26
34.245
34.233
34.224
34.218
34.214
34.211
34.209
34.208
34.206
34.202
34.197
34.19
34.18
34.168
34.154
34.14
34.127
34.113
34.098
34.083
34.066
34.045
34.017
33.982
33.941
33.898
33.855
33.816
33.782
33.755
33.737
33.725
33.721
33.723
33.729
33.739
33.752
33.765
33.779
33.791
33.801
33.808
33.813
33.815
33.816
33.812
33.805
33.794
33.777
33.757
33.732
33.705
33.676
33.646
33.616
33.588
33.561
33.537
33.515
33.496
33.479
33.465
33.453
33.443
33.435
33.428
33.423
33.419
33.416
33.414
33.414
33.418
33.427
33.441
33.463
33.494
33.537
33.594
33.667
33.758
33.87
34.003
34.156
34.329
34.52
34.727
34.946
35.175
35.409
35.644
35.876
36.101
36.315
36.512
36.689
36.843
36.972
37.075
37.153
37.208
37.241
37.256
37.255
37.241
37.216
37.185
37.148
37.108
37.067
37.025
36.985
36.945
36.907
36.869
36.832
36.796
36.762
36.73
36.702
36.679
36.659
36.644
36.634
36.631
36.637
36.651
36.671
36.694
36.717
36.737
36.751
36.757
36.753
36.737
36.71
36.673
36.627
36.575
36.52
36.464
36.408
36.354
36.304
36.258
36.217
36.181
36.151
36.127
36.109
36.096
36.087
36.082
36.079
36.079
36.082
36.087
36.097
36.11
36.128
36.149
36.172
36.196
36.221
36.244
36.265
36.283
36.297
36.308
36.313
36.315
36.313
36.308
36.299
36.287
36.275
36.261
36.247
36.233
36.218
36.201
36.183
36.161
36.137
36.11
36.082
36.051
36.02
35.989
35.958
35.927
35.896
35.865
35.834
35.803
35.772
35.741
35.71
35.678
35.646
35.613
35.579
35.545
35.512
35.48
35.45
35.423
35.398
35.376
35.354
35.333
35.311
35.289
35.265
35.241
35.216
35.191
35.166
35.14
35.114
35.088
35.06
35.032
35.004
34.975
34.947
34.92
34.894
34.868
34.843
34.819
34.796
34.775
34.755
34.736
34.719
34.704
34.688
34.673
34.657
34.64
34.625
34.61
34.596
34.583
34.57
34.557
34.543
34.529
34.514
34.497
34.481
34.464
34.447
34.431
34.414
34.395
34.376
34.355
34.334
34.313
34.293
34.275
34.258
34.244
34.231
34.218
34.205
34.193
34.18
34.167
34.154
34.141
34.128
34.114
34.101
34.086
34.071
34.056
34.041
34.026
34.014
34.004
33.997
33.997
34.003
34.018
34.044
34.084
34.139
34.211
34.302
34.412
34.539
34.683
34.841
35.012
35.193
35.383
35.579
35.778
35.976
36.169
36.355
36.529
36.689
36.831
36.955
37.059
37.143
37.207
37.253
37.283
37.299
37.302
37.295
37.279
37.255
37.226
37.191
37.153
37.111
37.067
37.021
36.975
36.93
36.887
36.848
36.815
36.786
36.764
36.747
36.735
36.727
36.72
36.715
36.709
36.701
36.69
36.677
36.66
36.639
36.615
36.587
36.555
36.52
36.483
36.444
36.406
36.366
36.327
36.287
36.247
36.207
36.166
36.124
36.083
36.042
36.002
35.965
35.93
35.898
35.871
35.847
35.827
35.813
35.803
35.798
35.797
35.8
35.804
35.808
35.81
35.81
35.808
35.803
35.796
35.788
35.778
35.768
35.758
35.748
35.738
35.727
35.715
35.702
35.686
35.67
35.651
35.629
35.605
35.579
35.552
35.524
35.497
35.471
35.447
35.423
35.4
35.378
35.355
35.333
35.31
35.286
35.263
35.239
35.214
35.189
35.163
35.136
35.109
35.08
35.051
35.021
34.992
34.962
34.932
34.9
34.866
34.831
34.794
34.755
34.717
34.679
34.642
34.607
34.575
34.546
34.52
34.498
34.48
34.465
34.452
34.443
34.435
34.428
34.421
34.413
34.4
34.38
34.354
34.325
34.294
34.265
34.237
34.212
34.191
34.173
34.161
34.153
34.15
34.151
34.156
34.164
34.175
34.186
34.197
34.207
34.216
34.222
34.225
34.225
34.221
34.213
34.201
34.185
34.167
34.148
34.128
34.109
34.092
34.076
34.062
34.049
34.037
34.025
34.013
34.0
33.988
33.975
33.961
33.947
33.933
33.919
33.906
33.893
33.881
33.871
33.863
33.856
33.851
33.847
33.842
33.838
33.834
33.829
33.825
33.822
33.821
33.82
33.82
33.821
33.824
33.829
33.838
33.852
33.876
33.911
33.962
34.03
34.118
34.227
34.358
34.511
34.685
34.879
35.091
35.317
35.553
35.795
36.037
36.275
36.505
36.723
36.927
37.113
37.28
37.426
37.551
37.653
37.735
37.795
37.837
37.863
37.873
37.872
37.86
37.84
37.814
37.782
37.747
37.71
37.671
37.633
37.598
37.567
37.539
37.515
37.494
37.477
37.462
37.449
37.439
37.43
37.423
37.416
37.409
37.403
37.396
37.389
37.382
37.376
37.37
37.362
37.353
37.343
37.329
37.31
37.287
37.258
37.223
37.183
37.138
37.089
37.039
36.987
36.934
36.883
36.832
36.784
36.737
36.692
36.651
36.612
36.579
36.549
36.524
36.502
36.485
36.472
36.463
36.458
36.457
36.459
36.464
36.471
36.479
36.485
36.489
36.491
36.49
36.485
36.477
36.466
36.452
36.436
36.416
36.393
36.367
36.338
36.306
36.273
36.238
36.203
36.168
36.132
36.098
36.065
36.033
36.002
35.973
35.945
35.919
35.893
35.866
35.839
35.809
35.776
35.74
35.702
35.662
35.62
35.578
35.537
35.495
35.454
35.414
35.376
35.339
35.303
35.27
35.238
35.208
35.178
35.15
35.122
35.094
35.068
35.041
35.015
34.99
34.965
34.941
34.918
34.895
34.872
34.849
34.827
34.806
34.787
34.769
34.754
34.741
34.729
34.718
34.707
34.697
34.686
34.675
34.662
34.649
34.635
34.619
34.603
34.587
34.57
34.554
34.539
34.524
34.512
34.499
34.487
34.474
34.46
34.445
34.43
34.415
34.402
34.39
34.379
34.369
34.36
34.35
34.341
34.33
34.318
34.305
34.29
34.274
34.256
34.236
34.216
34.195
34.174
34.153
34.134
34.115
34.097
34.079
34.059
34.037
34.012
33.986
33.958
33.931
33.905
33.882
33.862
33.846
33.833
33.824
33.818
33.813
33.809
33.804
33.799
33.792
33.786
33.78
33.776
33.776
33.783
33.799
33.826
33.869
33.928
34.005
34.101
34.215
34.349
34.501
34.673
34.862
35.068
35.287
35.517
35.754
35.994
36.231
36.462
36.682
36.889
37.079
37.248
37.394
37.515
37.61
37.678
37.721
37.741
37.743
37.729
37.704
37.67
37.631
37.59
37.547
37.506
37.466
37.427
37.391
37.357
37.326
37.297
37.27
37.244
37.221
37.2
37.181
37.164
37.151
37.141
37.134
37.129
37.124
37.119
37.112
37.103
37.091
37.077
37.059
37.039
37.016
36.991
36.963
36.932
36.898
36.861
36.822
36.78
36.736
36.691
36.645
36.599
36.553
36.509
36.467
36.429
36.394
36.365
36.341
36.322
36.308
36.298
36.292
36.289
36.29
36.294
36.301
36.311
36.322
36.334
36.346
36.358
36.368
36.377
36.382
36.386
36.386
36.385
36.381
36.374
36.364
36.351
36.334
36.313
36.289
36.262
36.234
36.205
36.174
36.142
36.109
36.074
36.037
35.998
35.959
35.918
35.878
35.838
35.8
35.762
35.726
35.692
35.659
35.628
35.598
35.569
35.541
35.514
35.487
35.458
35.428
35.397
35.363
35.328
35.291
35.254
35.218
35.185
35.154
35.127
35.102
35.081
35.062
35.047
35.034
35.024
35.014
35.006
34.997
34.988
34.978
34.968
34.956
34.943
34.93
34.914
34.897
34.878
34.857
34.834
34.81
34.784
34.759
34.735
34.713
34.692
34.673
34.655
34.639
34.623
34.609
34.597
34.587
34.578
34.57
34.564
34.556
34.548
34.538
34.526
34.513
34.499
34.485
34.471
34.458
34.446
34.435
34.426
34.417
34.41
34.403
34.396
34.388
34.379
34.368
34.355
34.341
34.325
34.308
34.292
34.277
34.263
34.251
34.239
34.227
34.215
34.202
34.188
34.172
34.157
34.141
34.128
34.119
34.116
34.123
34.141
34.173
34.223
34.291
34.381
34.493
34.627
34.783
34.959
35.151
35.359
35.578
35.806
36.038
36.27
36.498
36.718
36.925
37.114
37.285
37.433
37.558
37.659
37.737
37.792
37.825
37.838
37.834
37.815
37.783
37.744
37.698
37.651
37.603
37.556
37.51
37.467
37.425
37.386
37.348
37.311
37.275
37.241
37.209
37.179
37.152
37.126
37.103
37.082
37.063
37.046
37.031
37.018
37.005
36.992
36.977
36.959
36.937
36.912
36.882
36.849
36.812
36.771
36.726
36.679
36.629
36.577
36.523
36.469
36.414
36.361
36.31
36.262
36.216
36.174
36.136
36.101
36.072
36.047
36.028
36.013
36.004
35.999
35.999
36.002
36.008
36.016
36.026
36.036
36.047
36.057
36.065
36.07
36.071
36.067
36.056
36.039
36.016
35.988
35.956
35.92
35.883
35.846
35.808
35.771
35.734
35.7
35.667
35.636
35.606
35.576
35.547
35.518
35.487
35.456
35.425
35.395
35.367
35.341
35.32
35.302
35.286
35.271
35.256
35.24
35.222
35.202
35.179
35.154
35.126
35.097
35.066
35.035
35.004
34.973
34.942
34.913
34.884
34.856
34.828
34.8
34.771
34.742
34.712
34.682
34.652
34.624
34.597
34.57
34.543
34.516
34.487
34.458
34.429
34.399
34.37
34.342
34.314
34.289
34.265
34.243
34.223
34.206
34.191
34.177
34.165
34.153
34.14
34.127
34.113
34.098
34.082
34.067
34.053
34.042
34.032
34.023
34.015
34.005
33.994
33.982
33.968
33.951
33.932
33.913
33.892
33.871
33.851
33.831
33.812
33.794
33.777
33.761
33.745
33.73
33.714
33.697
33.678
33.658
33.636
33.614
33.59
33.567
33.544
33.52
33.497
33.474
33.45
33.428
33.406
33.386
33.368
33.351
33.337
33.326
33.315
33.306
33.299
33.292
33.288
33.288
33.293
33.305
33.326
33.358
33.406
33.47
33.555
33.664
33.796
33.954
34.137
34.342
34.566
34.805
35.053
35.308
35.565
35.821
36.071
36.311
36.538
36.747
36.936
37.103
37.246
37.364
37.459
37.53
37.58
37.609
37.62
37.615
37.598
37.57
37.535
37.494
37.45
37.404
37.358
37.313
37.269
37.227
37.188
37.154
37.123
37.097
37.076
37.058
37.045
37.036
37.03
37.026
37.025
37.024
37.024
37.024
37.023
37.022
37.019
37.015
37.008
36.998
36.985
36.969
36.951
36.929
36.904
36.875
36.843
36.806
36.765
36.72
36.671
36.619
36.567
36.515
36.466
36.42
36.378
36.34
36.307
36.278
36.255
36.236
36.222
36.212
36.206
36.204
36.204
36.206
36.211
36.216
36.221
