Trial 1:0back
36.35
36.323
36.294
36.265
36.235
36.205
36.174
36.143
36.112
36.08
36.046
36.012
35.977
35.941
35.905
35.868
35.83
35.792
35.754
35.717
35.679
35.64
35.601
35.561
35.52
35.479
35.439
35.399
35.36
35.323
35.287
35.254
35.223
35.194
35.168
35.143
35.12
35.098
35.076
35.055
35.033
35.011
34.989
34.967
34.946
34.925
34.904
34.885
34.866
34.847
34.828
34.81
34.791
34.773
34.756
34.74
34.726
34.713
34.702
34.694
34.687
34.682
34.678
34.675
34.673
34.671
34.669
34.666
34.662
34.659
34.654
34.649
34.642
34.633
34.623
34.613
34.602
34.59
34.577
34.563
34.548
34.532
34.515
34.499
34.484
34.471
34.459
34.449
34.44
34.433
34.427
34.423
34.42
34.418
34.416
34.412
34.406
34.398
34.388
34.378
34.366
34.354
34.342
34.329
34.316
34.302
34.288
34.276
34.264
34.254
34.246
34.242
34.241
34.245
34.256
34.276
34.306
34.348
34.401
34.468
34.548
34.641
34.75
34.873
35.009
35.159
35.32
35.491
35.669
35.853
36.039
36.225
36.409
36.589
36.761
36.924
37.075
37.214
37.34
37.453
37.552
37.637
37.708
37.766
37.811
37.844
37.865
37.875
37.876
37.869
37.854
37.833
37.806
37.773
37.736
37.695
37.652
37.607
37.562
37.515
37.468
37.422
37.375
37.328
37.282
37.235
37.188
37.139
37.089
37.037
36.982
36.926
36.868
36.809
36.748
36.687
36.625
36.562
36.501
36.44
36.38
36.323
36.269
36.218
36.171
36.129
36.093
36.063
36.038
36.018
36.003
35.993
35.988
35.987
35.989
35.995
36.004
36.015
36.028
36.042
36.058
36.076
36.096
36.117
36.139
36.16
36.18
36.199
36.215
36.229
36.242
36.254
36.266
36.276
36.285
36.293
36.299
36.302
36.302
36.298
36.29
36.276
36.258
36.236
36.21
36.182
36.154
36.124
36.094
36.062
36.028
35.993
35.957
35.921
35.885
35.851
35.817
35.785
35.753
35.721
35.689
35.656
35.624
35.592
35.561
35.529
35.497
35.465
35.431
35.398
35.364
35.33
35.297
35.264
35.231
35.199
35.166
35.134
35.103
35.074
35.047
35.021
34.997
34.973
34.952
34.931
34.912
34.895
34.88
34.866
34.852
34.838
34.824
34.81
34.796
34.78
34.764
34.747
34.73
34.711
34.692
34.673
34.654
34.637
34.621
34.607
34.594
34.584
34.575
34.568
34.562
34.557
34.554
34.551
34.549
34.547
34.545
34.543
34.542
34.541
34.541
34.539
34.537
34.534
34.531
34.527
34.522
34.517
34.511
34.505
34.498
34.49
34.481
34.471
34.459
34.446
34.432
34.417
34.401
34.384
34.367
34.349
34.331
34.314
34.296
34.279
34.263
34.247
34.233
34.22
34.208
34.199
34.192
34.188
34.187
34.192
34.201
34.217
34.24
34.271
34.312
34.363
34.425
34.501
34.59
34.693
34.809
34.939
35.082
35.235
35.397
35.567
35.743
35.922
36.103
36.283
36.461
36.634
36.799
36.956
37.102
37.235
37.355
37.461
37.551
37.628
37.69
37.738
37.772
37.792
37.801
37.799
37.788
37.769
37.744
37.714
37.679
37.641
37.6
37.556
37.51
37.464
37.417
37.371
37.324
37.277
37.229
37.18
37.13
37.078
37.026
36.973
36.919
36.864
36.808
36.75
36.69
36.629
36.568
36.507
36.446
36.387
36.33
36.273
36.218
36.165
36.113
36.064
36.019
35.98
35.945
35.915
35.891
35.871
35.856
35.845
35.84
35.84
35.845
35.854
35.867
35.882
35.9
35.919
35.941
35.965
35.989
36.014
36.039
36.062
36.084
36.104
36.122
36.139
36.155
36.169
36.181
36.191
36.198
36.203
36.205
36.205
36.203
36.199
36.192
36.182
36.168
36.151
36.131
36.107
36.08
36.051
36.02
35.988
35.954
35.919
35.883
35.847
35.81
35.773
35.736
35.698
35.659
35.62
35.581
35.544
35.508
35.473
35.439
35.407
35.375
35.344
35.312
35.279
35.245
35.209
35.171
35.133
35.093
35.053
35.013
34.973
34.935
34.897
34.862
34.828
34.798
34.769
34.743
34.718
34.696
34.676
34.658
34.642
34.627
34.614
34.601
34.588
34.577
34.567
34.558
34.551
34.544
34.538
34.532
34.526
34.52
34.515
34.512
34.51
34.508
34.505
34.502
34.498
34.493
34.488
34.483
34.479
34.474
34.469
34.464
34.459
34.454
34.449
34.445
34.44
34.435
34.429
34.422
34.414
34.405
34.396
34.388
34.379
34.369
34.358
34.347
34.335
34.324
34.314
34.305
34.295
34.285
34.274
34.262
34.25
34.238
34.226
34.213
34.199
34.185
34.171
34.158
34.148
34.141
34.138
34.141
34.151
34.169
34.195
34.232
34.279
34.339
34.411
34.497
34.597
34.71
34.836
34.975
35.126
35.287
35.455
35.628
35.804
35.981
36.155
36.324
36.486
36.64
36.784
36.917
37.039
37.149
37.245
37.329
37.398
37.452
37.493
37.521
37.536
37.542
37.538
37.526
37.506
37.479
37.446
37.407
37.364
37.317
37.267
37.217
37.165
37.113
37.061
37.009
36.957
36.905
36.853
36.801
36.748
36.693
36.637
36.578
36.516
36.452
36.385
36.317
36.248
36.178
36.106
36.034
35.963
35.892
35.824
35.761
35.702
35.65
35.602
35.562
35.528
35.502
35.484
35.475
35.473
35.477
35.487
35.502
35.522
35.545
35.572
35.601
35.633
35.666
35.701
35.737
35.774
35.81
35.847
35.882
35.915
35.946
35.973
35.995
36.012
36.024
36.032
36.036
36.037
36.035
36.031
36.024
36.013
36.001
35.986
35.97
35.953
35.934
35.915
35.895
35.874
35.851
35.828
35.804
35.779
35.753
35.725
35.695
35.662
35.627
35.59
35.551
35.511
35.469
35.427
35.384
35.341
35.297
35.254
35.21
35.166
35.122
35.08
35.039
34.999
34.961
34.925
34.89
34.857
34.827
34.799
34.773
34.75
34.728
34.708
34.687
34.666
34.645
34.623
34.601
34.578
34.554
34.53
34.506
34.484
34.463
34.445
34.43
34.417
34.407
34.398
34.391
34.386
34.382
34.381
34.382
34.384
34.387
34.39
34.392
34.393
34.394
34.395
34.395
34.393
34.39
34.385
34.378
34.369
34.359
34.348
34.335
34.321
34.305
34.289
34.273
34.258
34.244
34.233
34.224
34.217
34.211
34.206
34.202
34.2
34.199
34.2
34.201
34.201
34.202
34.204
34.207
34.213
34.222
34.236
34.256
34.283
34.319
34.365
34.424
34.496
34.583
34.684
34.8
34.929
35.071
35.225
35.387
35.557
35.734
35.914
36.097
36.279
36.458
36.631
36.796
36.951
37.095
37.227
37.346
37.451
37.541
37.617
37.677
37.723
37.754
37.772
37.778
37.773
37.76
37.738
37.71
37.676
37.637
37.594
37.548
37.501
37.453
37.406
37.36
37.313
37.267
37.219
37.17
37.119
37.067
37.014
36.958
36.902
36.843
36.783
36.721
36.657
36.592
36.526
36.46
36.395
36.331
36.268
36.207
36.147
36.089
36.034
35.983
35.935
35.892
35.851
35.814
35.779
35.748
35.721
35.698
35.681
35.67
35.665
35.666
35.672
35.682
35.698
35.719
35.744
35.772
35.803
35.836
35.869
35.901
35.933
35.965
35.996
36.026
36.055
36.082
36.106
36.125
36.14
36.15
36.156
36.157
36.152
36.144
36.131
36.114
36.094
36.072
36.048
36.024
35.998
35.97
35.941
35.91
35.878
35.844
35.811
35.777
35.743
35.71
35.676
35.643
35.608
35.574
35.539
35.502
35.465
35.427
35.387
35.344
35.299
35.252
35.204
35.156
35.109
35.063
35.019
34.976
34.936
34.898
34.863
34.829
34.797
34.766
34.736
34.707
34.678
34.65
34.623
34.597
34.573
34.55
34.528
34.506
34.485
34.465
34.446
34.428
34.412
34.398
34.385
34.374
34.365
34.358
34.354
34.352
34.351
34.351
34.35
34.349
34.346
34.343
34.338
34.333
34.327
34.32
34.313
34.306
34.3
34.293
34.287
34.28
34.273
34.266
34.258
34.249
34.239
34.229
34.219
34.209
34.2
34.191
34.182
34.174
34.167
34.161
34.155
34.151
34.147
34.146
34.146
34.149
34.156
34.168
34.186
34.212
34.248
34.294
34.353
34.426
34.512
34.614
34.731
34.862
35.007
35.163
35.331
35.507
35.69
35.877
36.065
36.253
36.438
36.617
36.787
36.947
37.095
37.23
37.35
37.456
37.548
37.626
37.691
37.743
37.783
37.811
37.828
37.834
37.83
37.818
37.798
37.771
37.74
37.703
37.661
37.616
37.567
37.516
37.464
37.412
37.361
37.311
37.262
37.215
37.168
37.122
37.076
37.03
36.982
36.933
36.881
36.825
36.765
36.702
36.636
36.568
36.5
36.433
36.367
36.302
36.239
36.178
36.119
36.065
36.017
35.974
35.938
35.908
35.885
35.867
35.856
35.85
35.849
35.854
35.862
35.872
35.884
35.896
35.909
35.923
35.937
35.952
35.968
35.984
35.999
36.015
36.031
36.047
36.064
36.082
36.1
36.117
36.132
36.143
36.153
36.159
36.163
36.165
36.165
36.162
36.156
36.147
36.134
36.117
36.096
36.071
36.043
36.011
35.978
35.942
35.905
35.866
35.828
35.789
35.751
35.714
35.677
35.641
35.605
35.568
35.531
35.493
35.454
35.416
35.377
35.339
35.302
35.266
35.229
35.193
35.155
35.118
35.081
35.044
35.008
34.971
34.935
34.899
34.862
34.827
34.793
34.759
34.727
34.696
34.666
34.637
34.608
34.582
34.558
34.538
34.521
34.506
34.495
34.485
34.479
34.474
34.473
34.473
34.474
34.476
34.476
34.474
34.471
34.466
34.459
34.452
34.443
34.434
34.423
34.411
34.398
34.385
34.373
34.361
34.35
34.339
34.328
34.318
34.309
34.302
34.296
34.292
34.289
34.287
34.284
34.282
34.279
34.277
34.274
34.272
34.27
34.267
34.265
34.265
34.268
34.277
34.293
34.319
34.356
34.405
34.466
34.542
34.631
34.735
34.853
34.985
35.128
35.283
35.447
35.618
35.795
35.975
36.156
36.336
36.513
36.686
36.851
37.007
37.151
37.283
37.401
37.504
37.591
37.663
37.721
37.764
37.794
37.812
37.817
37.813
37.798
37.776
37.749
37.717
37.683
37.647
37.609
37.57
37.528
37.485
37.438
37.39
37.339
37.287
37.233
37.178
37.121
37.063
37.004
36.944
36.885
36.825
36.766
36.707
36.649
36.591
36.532
36.474
36.415
36.357
36.301
36.246
36.192
36.14
36.089
36.039
35.992
35.948
35.91
35.878
35.853
35.834
35.823
35.817
35.818
35.826
35.841
35.86
35.885
35.912
35.941
35.972
36.002
36.032
36.062
36.09
36.116
36.14
36.161
36.177
36.189
36.197
36.2
36.198
36.193
36.185
36.174
36.161
36.146
36.129
36.111
36.093
36.074
36.055
36.037
36.019
35.999
35.978
35.955
35.93
35.903
35.874
35.844
35.811
35.776
35.738
35.698
35.655
35.611
35.566
35.519
35.472
35.425
35.379
35.333
35.29
35.25
35.212
35.177
35.145
35.113
35.083
35.055
35.027
34.999
34.971
34.943
34.914
34.885
34.855
34.825
34.795
34.765
34.735
34.706
34.678
34.651
34.626
34.602
34.578
34.556
34.534
34.514
34.496
34.479
34.462
34.446
34.429
34.412
34.395
34.379
34.363
34.349
34.337
34.326
34.317
34.309
34.304
34.302
34.301
34.303
34.305
34.308
34.311
34.313
34.314
34.314
34.313
34.309
34.303
34.293
34.28
34.265
34.25
34.234
34.219
34.205
34.191
34.179
34.169
34.16
34.155
34.153
34.155
34.161
34.171
34.185
34.205
34.231
34.264
34.305
34.356
34.417
34.488
34.57
34.663
34.769
34.887
35.017
35.158
35.307
35.462
35.623
35.786
35.951
36.115
36.276
36.433
36.584
36.727
36.861
36.984
37.095
37.196
37.284
37.36
37.424
37.476
37.516
37.544
37.56
37.566
37.563
37.551
37.532
37.508
37.479
37.446
37.41
37.37
37.327
37.281
37.234
37.186
37.137
37.089
37.04
36.99
36.939
36.885
36.83
36.772
36.71
36.646
36.578
36.507
36.433
36.358
36.282
36.207
36.133
36.061
35.993
35.927
35.866
35.809
35.758
35.712
35.672
35.64
35.615
35.597
35.586
35.581
35.581
35.587
35.597
35.611
35.629
35.65
35.674
35.698
35.724
35.749
35.774
35.799
35.824
35.848
35.872
35.894
35.914
35.932
35.948
35.961
35.973
35.983
35.99
35.993
35.992
35.986
35.976
35.962
35.944
35.924
35.9
35.874
35.844
35.812
35.778
35.742
35.705
35.668
35.629
35.59
35.55
35.509
35.469
35.43
35.392
35.357
35.323
35.291
35.258
35.226
35.192
35.159
35.124
35.089
35.053
35.016
34.979
34.94
34.901
34.861
34.821
34.783
34.745
34.709
34.675
34.642
34.611
34.582
34.556
34.533
34.512
34.494
34.478
34.463
34.449
34.437
34.427
34.417
34.408
34.399
34.389
34.379
34.368
34.356
34.345
34.333
34.321
34.308
34.295
34.281
34.267
34.254
34.242
34.231
34.221
34.211
34.2
34.189
34.178
34.167
34.157
34.148
34.14
34.133
34.127
34.122
34.117
34.112
34.109
34.107
34.105
34.102
34.099
34.097
34.094
34.093
34.093
34.094
34.097
34.101
34.109
34.121
34.138
34.162
34.193
34.231
34.278
34.335
34.401
34.479
34.568
34.668
34.779
34.899
35.028
35.163
35.303
35.446
35.591
35.736
35.878
36.017
36.15
36.275
36.392
36.498
36.595
36.68
36.754
36.817
36.868
36.906
36.932
36.946
36.95
36.943
36.929
36.907
36.879
36.845
36.808
36.767
36.723
36.679
36.633
36.588
36.542
36.497
36.451
36.405
36.36
36.313
36.265
36.216
36.164
36.109
36.05
35.988
35.922
35.853
35.782
35.71
35.638
35.568
35.5
35.435
35.373
35.314
35.259
35.209
35.163
35.124
35.092
35.066
35.048
35.036
35.03
35.03
35.037
35.05
35.068
35.089
35.114
35.14
35.167
35.194
35.221
35.249
35.277
35.304
35.331
35.355
35.376
35.395
35.411
35.425
35.437
35.447
35.455
35.461
35.463
35.463
35.461
35.457
35.451
35.444
35.435
35.423
35.408
35.389
35.366
35.341
35.315
35.288
35.26
35.231
35.201
35.17
35.138
35.108
35.079
35.05
35.023
34.995
34.967
34.938
34.908
34.878
34.847
34.817
34.787
34.758
34.728
34.698
34.668
34.638
34.609
34.579
34.549
34.517
34.484
34.449
34.414
34.378
34.344
34.31
34.277
34.246
34.217
34.188
34.161
34.136
34.112
34.09
34.069
34.05
34.032
34.016
34.002
33.991
33.982
33.975
33.97
33.966
33.965
33.966
33.968
33.971
33.975
33.979
33.982
33.984
33.984
33.983
33.98
33.975
33.97
33.963
33.954
33.945
33.934
33.923
33.91
33.898
33.885
33.874
33.866
33.86
33.858
33.86
33.867
33.879
33.899
33.925
33.957
33.997
34.045
34.101
34.167
34.244
34.332
34.431
34.542
34.664
34.796
34.937
35.086
35.241
35.4
35.561
35.721
35.877
36.027
36.169
36.302
36.425
36.539
36.642
36.735
36.816
36.886
36.944
36.99
37.026
37.051
37.066
37.073
37.071
37.061
37.043
37.019
36.987
36.95
36.908
36.863
36.813
36.761
36.707
36.653
36.598
36.544
36.492
36.442
36.393
36.345
36.298
36.251
36.204
36.157
36.11
36.063
36.017
35.97
35.923
35.874
35.824
35.774
35.723
35.672
35.622
35.572
35.523
35.476
35.432
35.39
35.353
35.321
35.294
35.274
35.259
35.25
35.246
35.247
35.253
35.263
35.278
35.296
35.317
35.339
35.362
35.384
35.406
35.427
35.446
35.464
35.479
35.492
35.501
35.508
35.512
35.514
35.515
35.514
35.511
35.506
35.5
35.491
35.481
35.47
35.456
35.44
35.422
35.402
35.379
35.355
35.33
35.304
35.277
35.25
35.222
35.194
35.164
35.133
35.099
35.064
35.025
34.985
34.944
34.902
34.86
34.817
34.775
34.733
34.693
34.655
34.619
34.586
34.556
34.527
34.5
34.474
34.449
34.424
34.401
34.377
34.353
34.329
34.305
34.28
34.257
34.234
34.213
34.192
34.172
34.153
34.136
34.119
34.105
34.093
34.083
34.075
34.067
34.06
34.054
34.048
34.042
34.037
34.033
34.028
34.023
34.016
34.007
33.999
33.99
33.981
33.972
33.964
33.955
33.946
33.938
33.93
33.924
33.919
33.912
33.905
33.897
33.889
33.881
33.874
33.867
33.861
33.855
33.849
33.843
33.837
33.831
33.826
33.822
33.819
33.816
33.815
33.816
33.822
33.833
33.853
33.882
33.921
33.973
34.036
34.112
34.2
34.301
34.414
34.538
34.671
34.812
34.959
35.109
35.262
35.416
35.569
35.718
35.862
35.999
36.127
36.244
36.351
36.446
36.53
36.604
36.668
36.722
36.766
36.801
36.826
36.844
36.854
36.857
36.854
36.844
36.828
36.806
36.779
36.747
36.711
36.671
36.629
36.585
36.538
36.488
36.436
36.383
36.329
36.274
36.221
36.17
36.12
36.072
36.025
35.98
35.934
35.89
35.845
35.8
35.755
35.71
35.664
35.617
35.571
35.526
35.483
35.442
35.405
35.372
35.341
35.314
35.29
35.269
35.252
35.239
35.23
35.225
35.223
35.225
35.23
35.239
35.251
35.267
35.285
35.305
35.326
35.346
35.365
35.383
35.398
35.411
35.421
35.428
35.432
35.433
35.432
35.428
35.422
35.415
35.407
35.397
35.385
35.372
35.357
35.341
35.324
35.306
35.287
35.267
35.245
35.221
35.196
35.169
35.14
35.111
35.081
35.05
35.019
34.988
34.957
34.926
34.896
34.868
34.841
34.814
34.787
34.759
34.73
34.7
34.669
34.638
34.605
34.573
34.54
34.507
34.474
34.44
34.406
34.373
34.341
34.31
34.281
34.254
34.23
34.207
34.187
34.168
34.151
34.137
34.123
34.11
34.096
34.083
34.069
34.055
34.042
34.029
34.016
34.003
33.99
33.977
33.964
33.952
33.942
33.932
33.924
33.915
33.907
33.899
33.892
33.887
33.883
33.88
33.877
33.875
33.872
33.87
33.868
33.867
33.866
33.865
33.865
33.864
33.862
33.859
33.854
33.847
33.838
33.827
33.814
33.799
33.782
33.766
33.75
33.735
33.719
33.703
33.686
33.669
33.651
33.635
33.619
33.603
33.588
33.573
33.558
33.545
33.533
33.523
33.515
33.509
33.503
33.498
33.493
33.49
33.488
33.488
33.49
33.495
33.502
33.512
33.526
33.545
33.571
33.605
33.648
33.7
33.763
33.836
33.92
34.016
34.123
34.242
34.371
34.51
34.655
34.805
34.959
35.114
35.269
35.422
35.571
35.714
35.848
35.973
36.086
36.187
36.277
36.355
36.421
36.474
36.515
36.544
36.56
36.566
36.563
36.552
36.534
36.512
36.486
36.455
36.421
36.385
36.347
36.308
36.268
36.229
36.189
36.149
36.109
36.068
36.027
35.987
35.947
35.909
35.871
35.833
35.795
35.754
35.712
35.668
35.623
35.576
35.528
35.479
35.43
35.381
35.332
35.285
35.24
35.199
35.163
35.13
35.103
35.079
35.061
35.046
35.037
35.032
35.032
35.036
35.045
35.057
35.071
35.089
35.109
35.131
35.154
35.178
35.202
35.226
35.248
35.269
35.288
35.305
35.319
35.33
35.338
35.343
35.344
35.343
35.338
35.33
35.32
35.309
35.297
35.284
35.27
35.256
35.241
35.225
35.207
35.189
35.169
35.149
35.125
35.099
35.069
35.036
35.001
34.965
34.928
34.892
34.855
34.82
34.785
34.752
34.719
34.688
34.658
34.63
34.602
34.576
34.55
34.526
34.503
34.481
34.462
34.444
34.428
34.412
34.397
34.381
34.365
34.348
34.331
34.313
34.294
34.274
34.253
34.231
34.209
34.189
34.169
34.151
34.133
34.115
34.097
34.081
34.065
34.052
34.04
34.029
34.02
34.012
34.004
33.999
33.994
33.992
33.991
33.991
33.993
33.995
33.998
34.001
34.005
34.009
34.013
34.017
34.02
34.023
34.024
34.024
34.024
34.023
34.022
34.02
34.016
34.011
34.004
33.996
33.986
33.976
33.963
33.95
33.935
33.919
33.904
33.89
33.878
33.867
33.857
33.847
33.837
33.827
33.818
33.809
33.799
33.79
33.78
33.77
33.76
33.753
33.748
33.747
33.749
33.756
33.767
33.783
33.805
33.834
33.871
33.917
33.972
34.037
34.111
34.196
34.29
34.394
34.507
34.627
34.754
34.885
35.019
35.151
35.282
35.408
35.53
35.646
35.754
35.854
35.944
36.023
36.09
36.146
36.189
36.222
36.244
36.256
36.258
36.251
36.236
36.215
36.188
36.158
36.125
36.091
36.055
36.017
35.978
35.937
35.894
35.849
35.805
35.76
35.716
35.672
35.627
35.581
35.535
35.487
35.438
35.389
35.339
35.289
35.238
35.188
35.138
35.089
35.041
34.996
34.953
34.912
34.874
34.838
34.806
34.778
34.755
34.737
34.724
34.717
34.713
34.714
34.718
34.725
34.735
34.749
34.765
34.783
34.803
34.823
34.844
34.865
34.886
34.907
34.929
34.95
34.97
34.989
35.007
35.022
35.034
35.045
35.052
35.058
35.06
35.058
35.053
35.044
35.032
35.018
35.003
34.987
34.97
34.952
34.933
34.913
34.893
34.873
34.852
34.831
34.809
34.787
34.764
34.741
34.719
34.699
34.679
34.659
34.639
34.618
34.596
34.574
34.55
34.527
34.503
34.481
34.459
34.438
34.418
34.4
34.383
34.367
34.351
34.335
34.319
34.301
34.283
34.263
34.242
34.222
34.2
34.179
34.158
34.138
34.118
34.099
34.081
34.064
34.049
34.035
34.022
34.009
33.996
33.984
33.972
