Trial 1:0back
33.927
33.895
33.864
33.832
33.801
33.77
33.74
33.71
33.683
33.66
33.639
33.623
33.611
33.606
33.61
33.628
33.665
33.722
33.805
33.918
34.064
34.246
34.464
34.715
34.997
35.305
35.633
35.977
36.329
36.683
37.031
37.365
37.68
37.969
38.228
38.453
38.643
38.798
38.918
39.003
39.056
39.08
39.079
39.058
39.019
38.966
38.903
38.833
38.761
38.689
38.619
38.554
38.494
38.441
38.393
38.352
38.317
38.285
38.256
38.229
38.203
38.178
38.152
38.124
38.095
38.064
38.03
37.993
37.954
37.912
37.867
37.821
37.772
37.719
37.662
37.602
37.54
37.475
37.408
37.34
37.268
37.194
37.117
37.037
36.954
36.867
36.778
36.687
36.597
36.51
36.428
36.35
36.278
36.214
36.159
36.113
36.075
36.046
36.026
36.014
36.011
36.015
36.027
36.044
36.064
36.087
36.111
36.136
36.159
36.181
36.198
36.212
36.221
36.225
36.222
36.213
36.197
36.175
36.147
36.113
36.074
36.029
35.978
35.922
35.862
35.796
35.721
35.637
35.545
35.448
35.349
35.252
35.161
35.078
35.005
34.941
34.888
34.843
34.806
34.774
34.747
34.722
34.699
34.676
34.653
34.629
34.604
34.576
34.547
34.516
34.483
34.448
34.411
34.373
34.335
34.297
34.26
34.225
34.192
34.16
34.131
34.104
34.08
34.058
34.04
34.025
34.013
34.005
33.997
33.99
33.983
33.975
33.966
33.957
33.947
33.935
33.922
33.907
33.889
33.87
33.85
33.829
33.808
33.786
33.764
33.743
33.724
33.707
33.692
33.679
33.669
33.663
33.659
33.658
33.657
33.656
33.652
33.645
33.634
33.621
33.604
33.584
33.56
33.534
33.508
33.483
33.464
33.452
33.452
33.469
33.506
33.569
33.663
33.79
33.955
34.157
34.397
34.673
34.978
35.307
35.653
36.009
36.368
36.723
37.066
37.39
37.69
37.963
38.206
38.417
38.594
38.739
38.853
38.937
38.993
39.023
39.028
39.013
38.98
38.934
38.875
38.808
38.734
38.657
38.577
38.498
38.421
38.347
38.277
38.214
38.158
38.109
38.067
38.03
38.0
37.975
37.955
37.94
37.926
37.912
37.898
37.881
37.863
37.842
37.818
37.79
37.757
37.718
37.672
37.618
37.556
37.486
37.407
37.321
37.228
37.129
37.026
36.921
36.815
36.709
36.606
36.507
36.414
36.33
36.257
36.194
36.141
36.097
36.062
36.036
36.017
36.005
36.0
36.001
36.007
36.018
36.032
36.048
36.063
36.077
36.088
36.096
36.1
36.099
36.095
36.086
36.073
36.057
36.037
36.015
35.988
35.957
35.922
35.882
35.84
35.794
35.745
35.693
35.639
35.584
35.529
35.472
35.415
35.357
35.299
35.243
35.188
35.136
35.084
35.034
34.983
34.933
34.881
34.829
34.774
34.717
34.658
34.599
34.538
34.478
34.417
34.358
34.301
34.247
34.197
34.152
34.111
34.074
34.04
34.01
33.984
33.961
33.941
33.923
33.907
33.893
33.881
33.872
33.864
33.857
33.851
33.845
33.837
33.827
33.816
33.802
33.787
33.773
33.757
33.74
33.722
33.705
33.691
33.681
33.675
33.675
33.678
33.682
33.688
33.694
33.7
33.705
33.708
33.709
33.707
33.701
33.693
33.683
33.673
33.662
33.652
33.641
33.629
33.615
33.598
33.578
33.556
33.533
33.506
33.476
33.443
33.407
33.367
33.325
33.281
33.236
33.19
33.145
33.103
33.064
33.031
33.003
32.982
32.97
32.97
32.983
33.015
33.067
33.143
33.247
33.384
33.555
33.764
34.008
34.287
34.597
34.934
35.293
35.665
36.044
36.42
36.786
37.135
37.461
37.758
38.022
38.251
38.443
38.599
38.721
38.809
38.866
38.895
38.898
38.878
38.84
38.786
38.721
38.648
38.571
38.493
38.416
38.339
38.264
38.191
38.122
38.057
37.996
37.939
37.884
37.833
37.787
37.745
37.707
37.673
37.641
37.61
37.58
37.549
37.516
37.481
37.444
37.405
37.363
37.317
37.268
37.213
37.154
37.09
37.021
36.947
36.868
36.784
36.698
36.609
36.519
36.428
36.34
36.253
36.171
36.094
36.023
35.957
35.899
35.847
35.802
35.764
35.732
35.706
35.685
35.668
35.656
35.648
35.644
35.642
35.642
35.642
35.643
35.645
35.646
35.648
35.648
35.649
35.648
35.648
35.646
35.642
35.633
35.621
35.603
35.581
35.554
35.522
35.485
35.442
35.395
35.343
35.287
35.228
35.166
35.101
35.034
34.966
34.898
34.831
34.766
34.702
34.638
34.576
34.517
34.46
34.407
34.357
34.309
34.262
34.219
34.179
34.141
34.105
34.071
34.039
34.009
33.981
33.956
33.93
33.904
33.876
33.847
33.818
33.788
33.759
33.729
33.699
33.668
33.64
33.613
33.589
33.568
33.551
33.538
33.529
33.523
33.52
33.519
33.518
33.517
33.517
33.519
33.522
33.526
33.532
33.539
33.547
33.555
33.563
33.568
33.57
33.568
33.563
33.556
33.546
33.534
33.519
33.502
33.484
33.467
33.45
33.434
33.418
33.403
33.389
33.377
33.367
33.358
33.352
33.347
33.344
33.34
33.335
33.329
33.321
33.312
33.301
33.288
33.271
33.25
33.225
33.196
33.164
33.129
33.09
33.05
33.011
32.974
32.942
32.915
32.897
32.886
32.88
32.883
32.899
32.936
33.001
33.101
33.241
33.426
33.656
33.93
34.243
34.591
34.966
35.359
35.763
36.167
36.563
36.941
37.293
37.612
37.894
38.137
38.337
38.493
38.607
38.679
38.714
38.715
38.688
38.637
38.567
38.483
38.389
38.288
38.183
38.077
37.973
37.874
37.778
37.688
37.603
37.525
37.455
37.393
37.339
37.292
37.252
37.219
37.191
37.169
37.149
37.129
37.109
37.086
37.06
37.03
36.995
36.955
36.909
36.856
36.797
36.73
36.655
36.573
36.483
36.387
36.285
36.18
36.071
35.961
35.852
35.745
35.643
35.546
35.455
35.371
35.295
35.227
35.169
35.12
35.081
35.052
35.032
35.021
35.017
35.021
35.031
35.046
35.065
35.087
35.111
35.136
35.159
35.18
35.198
35.213
35.226
35.233
35.236
35.234
35.227
35.215
35.196
35.171
35.138
35.098
35.051
34.999
34.943
34.882
34.816
34.747
34.675
34.599
34.522
34.443
34.361
34.278
34.192
34.106
34.019
33.934
33.851
33.769
33.691
33.617
33.547
33.483
33.424
33.37
33.322
33.281
33.246
33.217
33.193
33.175
33.162
33.152
33.145
33.142
33.141
33.142
33.146
33.152
33.158
33.165
33.172
33.178
33.182
33.183
33.183
33.179
33.173
33.165
33.155
33.146
33.135
33.124
33.112
33.101
33.091
33.083
33.077
33.074
33.073
33.074
33.076
33.08
33.085
33.089
33.093
33.097
33.101
33.105
33.106
33.105
33.1
33.091
33.077
33.06
33.039
33.014
32.984
32.953
32.921
32.89
32.86
32.832
32.806
32.783
32.766
32.755
32.753
32.762
32.782
32.82
32.879
32.964
33.08
33.233
33.425
33.656
33.927
34.233
34.569
34.929
35.303
35.683
36.062
36.43
36.782
37.111
37.411
37.677
37.907
38.099
38.253
38.37
38.45
38.496
38.511
38.499
38.465
38.413
38.345
38.266
38.179
38.087
37.994
37.901
37.809
37.722
37.64
37.563
37.491
37.426
37.366
37.31
37.257
37.205
37.154
37.104
37.053
37.002
36.95
36.896
36.84
36.783
36.724
36.664
36.602
36.537
36.471
36.402
36.331
36.257
36.179
36.097
36.011
35.921
35.826
35.729
35.629
35.529
35.428
35.328
35.229
35.134
35.044
34.961
34.885
34.818
34.758
34.708
34.667
34.635
34.613
34.599
34.594
34.596
34.605
34.621
34.642
34.667
34.694
34.723
34.751
34.777
34.8
34.82
34.836
34.848
34.855
34.856
34.853
34.844
34.829
34.808
34.78
34.745
34.704
34.656
34.603
34.544
34.479
34.409
34.334
34.255
34.173
34.089
34.002
33.915
33.828
33.743
33.661
33.581
33.504
33.429
33.358
33.291
33.229
33.174
33.124
33.079
33.041
33.007
32.979
32.957
32.94
32.928
32.919
32.913
32.908
32.904
32.9
32.897
32.892
32.887
32.88
32.873
32.865
32.856
32.846
32.837
32.828
32.819
32.813
32.808
32.806
32.807
32.811
32.819
32.831
32.846
32.864
32.883
32.902
32.919
32.935
32.948
32.957
32.961
32.961
32.956
32.948
32.937
32.924
32.91
32.893
32.875
32.855
32.834
32.813
32.791
32.769
32.746
32.722
32.698
32.675
32.655
32.638
32.624
32.614
32.609
32.61
32.618
32.638
32.672
32.724
32.798
32.901
33.037
33.21
33.426
33.683
33.983
34.322
34.696
35.096
35.515
35.943
36.369
36.783
37.179
37.546
37.881
38.176
38.429
38.639
38.804
38.925
39.003
39.044
39.05
39.027
38.98
38.912
38.829
38.734
38.632
38.525
38.419
38.314
38.213
38.117
38.025
37.938
37.854
37.773
37.694
37.618
37.545
37.474
37.406
37.34
37.275
37.212
37.15
37.09
37.031
36.973
36.914
36.857
36.8
36.743
36.684
36.623
36.559
36.49
36.417
36.338
36.254
36.163
36.068
35.966
35.854
35.733
35.605
35.472
35.34
35.212
35.091
34.983
34.889
34.81
34.743
34.687
34.64
34.603
34.575
34.556
34.546
34.546
34.554
34.571
34.596
34.625
34.66
34.698
34.738
34.778
34.818
34.856
34.889
34.918
34.942
34.958
34.966
34.967
34.959
34.942
34.918
34.885
34.844
34.795
34.739
34.677
34.609
34.537
34.462
34.383
34.303
34.222
34.142
34.062
33.984
33.907
33.834
33.763
33.697
33.635
33.577
33.524
33.474
33.428
33.385
33.345
33.308
33.273
33.24
33.208
33.176
33.146
33.115
33.085
33.056
33.027
33.0
32.974
32.951
32.932
32.915
32.903
32.893
32.887
32.883
32.882
32.883
32.886
32.891
32.895
32.9
32.906
32.914
32.923
32.932
32.941
32.949
32.957
32.967
32.977
32.986
32.995
33.003
33.009
33.012
33.012
33.007
32.997
32.985
32.97
32.954
32.938
32.922
32.906
32.889
32.872
32.857
32.843
32.83
32.818
32.807
32.797
32.79
32.786
32.785
32.786
32.788
32.793
32.8
32.81
32.822
32.838
32.858
32.884
32.92
32.97
33.036
33.126
33.245
33.398
33.594
33.835
34.124
34.461
34.841
35.258
35.703
36.167
36.637
37.101
37.548
37.966
38.348
38.69
38.986
39.235
39.436
39.589
39.698
39.764
39.792
39.786
39.75
39.686
39.599
39.494
39.374
39.246
39.112
38.977
38.841
38.707
38.574
38.444
38.318
38.198
38.083
37.974
37.873
37.78
37.695
37.621
37.555
37.496
37.443
37.396
37.351
37.31
37.269
37.228
37.183
37.135
37.083
37.025
36.962
36.892
36.815
36.729
36.634
36.53
36.418
36.298
36.171
36.038
35.901
35.762
35.622
35.485
35.354
35.23
35.115
35.012
34.921
34.843
34.779
34.728
34.691
34.667
34.658
34.661
34.677
34.703
34.737
34.777
34.822
34.871
34.92
34.968
35.014
35.054
35.087
35.112
35.129
35.137
35.138
35.13
35.113
35.089
35.056
35.018
34.972
34.922
34.866
34.805
34.741
34.674
34.603
34.531
34.456
34.379
34.302
34.224
34.146
34.07
33.996
33.925
33.856
33.79
33.726
33.664
33.602
33.54
33.479
33.419
33.363
33.309
33.258
33.211
33.169
33.133
33.103
33.079
33.06
33.046
33.037
33.032
33.028
33.027
33.026
33.027
33.03
33.033
33.037
33.042
33.046
33.051
33.057
33.063
33.068
33.071
33.073
33.073
33.071
33.069
33.065
33.058
33.05
33.041
33.031
33.023
33.015
33.008
33.003
32.999
32.998
33.0
33.005
33.013
33.023
33.034
33.046
33.06
33.074
33.088
33.1
33.11
33.117
33.121
33.121
33.117
33.11
33.099
33.085
33.07
33.053
33.033
33.012
32.99
32.966
32.944
32.922
32.902
32.885
32.87
32.857
32.848
32.843
32.842
32.846
32.856
32.874
32.902
32.941
32.996
33.069
33.167
33.296
33.461
33.669
33.924
34.227
34.578
34.974
35.409
35.876
36.365
36.865
37.363
37.845
38.302
38.724
39.102
39.431
39.706
39.925
40.088
40.197
40.255
40.269
40.244
40.185
40.101
39.995
39.875
39.744
39.608
39.469
39.332
39.196
39.063
38.935
38.811
38.692
38.58
38.474
38.373
38.276
38.183
38.092
38.004
37.917
37.831
37.746
37.662
37.579
37.496
37.413
37.329
37.246
37.163
37.078
36.993
36.907
36.821
36.735
36.648
36.558
36.464
36.367
36.267
36.167
36.065
35.963
35.861
35.761
35.665
35.572
35.485
35.401
35.323
35.25
35.183
35.123
35.071
35.027
34.988
34.956
34.93
34.91
34.899
34.893
34.893
34.897
34.905
34.917
34.934
34.954
34.975
34.997
35.019
35.041
35.061
35.08
35.095
35.105
35.109
35.106
35.094
35.074
35.045
35.007
34.962
34.911
34.854
34.792
34.725
34.655
34.583
34.509
34.437
34.365
34.295
34.225
34.156
34.087
34.02
33.955
33.891
33.829
33.77
33.715
33.664
33.617
33.574
33.534
33.497
33.465
33.437
33.415
33.398
33.386
33.377
33.368
33.358
33.345
33.328
33.308
33.284
33.256
33.227
33.199
33.173
33.148
33.128
33.112
33.103
33.1
33.104
33.113
33.125
33.141
33.159
33.18
33.202
33.225
33.249
33.272
33.294
33.314
33.332
33.348
33.36
33.368
33.373
33.375
33.374
33.371
33.366
33.358
33.349
33.339
33.328
33.318
33.309
33.301
33.294
33.288
33.283
33.279
33.278
33.278
33.279
33.281
33.283
33.286
33.289
33.291
33.291
33.289
33.285
33.278
33.267
33.254
33.238
33.219
33.198
33.178
33.159
33.144
33.135
33.135
33.148
33.177
33.228
33.307
33.42
33.571
33.764
34.004
34.292
34.631
35.017
35.446
35.91
36.4
36.904
37.41
37.906
38.38
38.821
39.22
39.569
39.862
40.095
40.269
40.384
40.444
40.453
40.417
40.343
40.239
40.11
39.965
39.809
39.646
39.482
39.32
39.162
39.008
38.861
38.722
38.593
38.471
38.356
38.247
38.142
38.04
37.941
37.843
37.747
37.651
37.557
37.464
37.374
37.286
37.199
37.113
37.026
36.94
36.855
36.77
36.686
36.6
36.513
36.423
36.33
36.233
36.134
36.031
35.927
35.821
35.717
35.614
35.513
35.417
35.326
35.241
35.165
35.097
35.038
34.989
34.951
34.923
34.908
34.903
34.907
34.92
34.94
34.966
34.995
35.026
35.058
35.088
35.117
35.143
35.166
35.184
35.197
35.206
35.21
35.209
35.204
35.193
35.177
35.156
35.13
35.099
35.064
35.024
34.98
34.931
34.879
34.822
34.761
34.697
34.63
34.559
34.486
34.412
34.337
34.261
34.186
34.11
34.036
33.963
33.891
33.821
33.752
33.686
33.622
33.56
33.501
33.446
33.395
33.348
33.307
33.271
33.239
33.213
33.192
33.175
33.162
33.152
33.146
33.144
33.145
33.15
33.159
33.173
33.193
33.219
33.248
33.277
33.303
33.324
33.338
33.345
33.344
33.338
33.327
33.315
33.303
33.292
33.283
33.277
33.273
33.27
33.269
33.269
33.271
33.273
33.275
33.277
33.278
33.277
33.273
33.267
33.26
33.252
33.242
33.231
33.219
33.205
33.19
33.174
33.157
33.139
33.12
33.101
33.082
33.065
33.051
33.044
33.045
33.059
33.089
33.139
33.215
33.322
33.466
33.65
33.879
34.157
34.481
34.852
35.263
35.709
36.181
36.668
37.158
37.64
38.102
38.535
38.928
39.274
39.567
39.804
39.983
40.105
40.173
40.19
40.161
40.092
39.99
39.861
39.713
39.551
39.382
39.209
39.038
38.87
38.708
38.555
38.411
38.278
38.156
38.045
37.944
37.85
37.763
37.681
37.603
37.527
37.453
37.382
37.312
37.244
37.175
37.104
37.031
36.952
36.868
36.779
36.684
36.585
36.481
36.373
36.259
36.141
36.018
35.895
35.771
35.65
35.533
35.421
35.316
35.218
35.129
35.05
34.982
34.924
34.876
34.839
34.813
34.796
34.789
34.79
34.797
34.809
34.827
34.849
34.875
34.901
34.927
34.951
34.975
34.997
35.016
35.03
35.039
35.044
35.044
35.04
35.031
35.018
35.001
34.98
34.957
34.931
34.903
34.872
34.837
34.798
34.754
34.708
34.657
34.603
34.544
34.482
34.419
34.355
34.291
34.227
34.162
34.097
34.034
33.972
33.91
33.849
33.789
33.73
33.672
33.617
33.563
33.512
33.463
33.417
33.375
33.337
33.304
33.277
33.255
33.238
33.224
33.215
33.208
33.204
33.2
33.198
33.198
33.199
33.201
33.204
33.205
33.206
33.205
33.204
33.201
33.199
33.196
33.193
33.191
33.189
33.186
33.183
33.18
33.178
33.178
33.179
33.181
33.186
33.191
33.197
33.204
33.211
33.219
33.225
33.23
33.234
33.237
33.24
33.243
33.247
33.25
33.256
33.263
33.272
33.286
33.304
33.33
33.368
33.424
33.501
33.606
33.742
33.914
34.127
34.383
34.683
35.027
35.409
35.826
36.267
36.725
37.188
37.645
38.086
38.503
38.887
39.232
39.528
39.773
39.964
40.103
40.19
40.229
40.223
40.177
40.097
39.991
39.863
39.721
39.568
39.408
39.243
39.079
38.916
38.757
38.606
38.462
38.328
38.201
38.084
37.974
37.872
37.778
37.691
37.609
37.532
37.46
37.392
37.328
37.266
37.206
37.144
37.082
37.017
36.948
36.876
36.799
36.718
36.631
36.54
36.444
36.343
36.238
36.13
36.019
35.907
35.793
35.681
35.572
35.469
35.372
35.283
35.203
35.134
35.076
35.029
34.994
34.969
34.954
34.948
34.949
34.958
34.973
34.994
35.019
35.047
35.077
35.107
35.137
35.165
35.19
35.211
35.226
35.236
35.24
35.238
35.228
35.209
35.182
35.147
35.106
35.059
35.007
34.951
34.89
34.827
34.762
34.695
34.628
34.561
34.496
34.433
34.373
34.317
34.263
34.213
34.165
34.12
34.077
34.037
33.998
33.961
33.923
33.885
33.846
33.805
33.762
33.718
33.673
33.628
33.582
33.536
33.492
33.449
33.409
33.372
33.338
33.309
33.283
33.262
33.245
33.233
33.224
33.219
33.218
33.22
33.225
33.233
33.243
33.255
33.268
33.282
33.296
33.308
33.317
33.324
33.328
33.329
33.327
33.322
33.317
33.311
33.305
33.3
33.294
33.289
33.285
33.282
33.279
33.276
33.273
33.268
33.262
33.258
33.255
33.255
33.26
33.272
33.292
33.325
33.372
33.438
33.526
33.641
33.788
33.969
34.188
34.447
34.745
35.082
35.453
35.852
36.273
36.706
37.142
37.571
37.982
38.367
38.718
39.029
39.296
39.516
39.689
39.814
39.892
39.926
39.919
39.875
39.798
39.695
39.57
39.43
39.28
39.127
38.974
38.825
38.681
38.545
38.418
38.299
38.187
38.083
37.985
37.893
37.807
37.726
37.648
37.572
37.499
37.427
37.356
37.286
37.216
37.146
37.075
37.003
36.93
36.855
36.775
36.688
36.593
36.489
36.376
36.256
36.131
36.004
35.876
35.751
35.631
35.517
35.411
35.314
35.227
35.149
35.081
35.02
34.967
34.921
34.883
34.851
34.826
34.808
34.795
34.788
34.786
34.79
34.799
34.813
34.831
34.854
34.879
34.905
34.933
34.963
34.992
35.02
35.048
35.072
35.094
35.112
35.124
35.129
35.128
35.119
35.101
35.076
35.041
34.999
34.949
34.893
34.83
34.763
34.691
34.616
34.539
34.461
34.385
34.31
34.237
34.168
34.104
34.044
33.988
33.937
33.89
33.847
33.806
33.767
33.731
33.697
33.663
33.629
33.596
33.562
33.531
33.502
33.477
33.455
33.436
33.42
33.406
33.394
33.385
33.379
33.376
33.374
33.374
33.375
33.379
33.386
33.397
33.411
33.428
33.449
33.473
33.499
33.525
33.55
33.573
33.594
33.612
33.628
33.641
33.65
33.653
33.651
33.644
33.633
33.619
33.6
33.579
33.556
33.533
33.51
33.487
33.465
33.446
33.429
33.417
33.412
33.415
33.428
33.452
33.49
33.545
33.622
33.724
33.856
34.023
34.228
34.474
34.763
35.092
35.458
35.856
36.277
36.714
37.157
37.594
38.016
38.413
38.775
39.097
39.372
39.598
39.773
39.897
39.973
40.004
39.992
39.944
39.865
39.762
39.64
39.505
39.36
39.21
39.057
38.905
38.757
38.612
38.475
38.345
38.224
38.112
38.01
37.916
37.829
37.749
37.675
37.604
37.536
37.469
37.404
37.34
37.276
37.211
37.146
37.078
37.009
36.936
36.859
36.776
36.686
36.592
36.492
36.39
36.286
36.181
36.075
35.97
35.866
35.767
35.673
35.584
35.502
35.426
35.356
35.292
35.236
35.186
35.143
35.106
35.077
35.054
35.038
35.03
35.028
35.032
35.043
35.061
35.084
35.112
35.141
35.171
35.201
35.229
35.256
35.279
35.3
35.317
35.328
35.329
35.32
35.297
35.263
35.219
35.169
35.114
35.057
34.998
34.937
34.874
34.809
34.742
34.673
34.603
34.534
34.466
34.4
34.335
34.272
34.209
34.147
34.084
34.021
33.957
33.895
33.834
33.777
33.723
33.673
33.628
33.589
33.555
33.527
33.502
33.483
33.468
33.459
33.454
33.453
33.456
33.461
33.469
33.478
33.488
33.498
33.508
33.517
33.524
33.528
33.528
33.526
33.521
33.516
33.509
33.501
33.492
33.48
33.468
33.456
33.443
33.43
33.416
33.401
33.386
33.371
33.357
33.345
33.332
33.321
33.309
33.299
33.289
33.28
33.273
33.266
33.26
33.256
33.256
33.264
33.281
33.311
33.356
33.421
33.511
33.629
