Trial 1:0back
39.47
39.873
40.243
40.579
40.879
41.143
41.371
41.564
41.724
41.851
41.948
42.017
42.06
42.079
42.075
42.051
42.007
41.946
41.87
41.782
41.684
41.578
41.465
41.349
41.23
41.11
40.989
40.868
40.746
40.625
40.506
40.388
40.272
40.158
40.045
39.933
39.821
39.709
39.596
39.48
39.363
39.244
39.122
38.997
38.869
38.737
38.603
38.463
38.32
38.173
38.023
37.871
37.719
37.569
37.424
37.286
37.157
37.039
36.932
36.838
36.755
36.683
36.62
36.566
36.519
36.48
36.448
36.421
36.398
36.379
36.362
36.345
36.329
36.311
36.292
36.272
36.251
36.23
36.208
36.185
36.162
36.137
36.112
36.086
36.06
36.031
35.999
35.962
35.921
35.874
35.821
35.764
35.701
35.635
35.566
35.495
35.424
35.352
35.282
35.213
35.146
35.079
35.011
34.943
34.873
34.8
34.725
34.648
34.569
34.489
34.407
34.326
34.245
34.165
34.089
34.015
33.945
33.878
33.815
33.753
33.693
33.634
33.574
33.513
33.45
33.386
33.321
33.257
33.193
33.13
33.069
33.01
32.954
32.901
32.849
32.8
32.753
32.707
32.662
32.618
32.575
32.532
32.49
32.448
32.408
32.367
32.326
32.285
32.244
32.202
32.162
32.122
32.084
32.048
32.013
31.98
31.949
31.92
31.894
31.87
31.849
31.829
31.81
31.791
31.773
31.754
31.734
31.713
31.692
31.671
31.65
31.628
31.607
31.586
31.566
31.546
31.527
31.51
31.492
31.475
31.457
31.438
31.417
31.395
31.371
31.347
31.321
31.296
31.27
31.246
31.221
31.198
31.175
31.153
31.132
31.111
31.09
31.069
31.05
31.034
31.024
31.021
31.03
31.055
31.099
31.167
31.262
31.39
31.554
31.757
32.004
32.295
32.629
33.008
33.428
33.886
34.378
34.899
35.442
36.0
36.567
37.136
37.701
38.254
38.789
39.301
39.785
40.235
40.649
41.024
41.36
41.655
41.91
42.128
42.309
42.457
42.573
42.661
42.722
42.758
42.771
42.765
42.739
42.696
42.639
42.567
42.483
42.389
42.286
42.176
42.061
41.942
41.82
41.697
41.574
41.452
41.331
41.212
41.095
40.981
40.87
40.761
40.655
40.549
40.446
40.343
40.24
40.136
40.029
39.92
39.809
39.694
39.578
39.459
39.337
39.212
39.084
38.952
38.816
38.676
38.533
38.389
38.245
38.103
37.966
37.835
37.711
37.594
37.487
37.388
37.297
37.215
37.142
37.076
37.017
36.964
36.917
36.873
36.833
36.797
36.763
36.731
36.701
36.672
36.645
36.618
36.591
36.565
36.537
36.507
36.476
36.443
36.406
36.367
36.325
36.279
36.23
36.177
36.119
36.056
35.987
35.914
35.836
35.754
35.671
35.586
35.502
35.42
35.341
35.264
35.191
35.12
35.052
34.986
34.921
34.855
34.788
34.718
34.645
34.571
34.494
34.418
34.342
34.267
34.193
34.121
34.052
33.986
33.923
33.864
33.809
33.756
33.705
33.654
33.603
33.551
33.498
33.443
33.386
33.327
33.267
33.205
33.143
33.082
33.022
32.963
32.906
32.851
32.799
32.75
32.703
32.657
32.613
32.57
32.528
32.486
32.443
32.401
32.358
32.314
32.271
32.228
32.187
32.147
32.109
32.073
32.04
32.011
31.985
31.963
31.945
31.929
31.914
31.899
31.883
31.867
31.848
31.828
31.806
31.782
31.757
31.731
31.706
31.68
31.656
31.633
31.611
31.59
31.57
31.552
31.536
31.522
31.51
31.499
31.488
31.477
31.464
31.448
31.43
31.408
31.382
31.354
31.322
31.288
31.251
31.214
31.175
31.137
31.098
31.061
31.024
30.988
30.954
30.922
30.892
30.867
30.847
30.834
30.83
30.84
30.866
30.912
30.983
31.084
31.22
31.395
31.614
31.878
32.19
32.55
32.955
33.403
33.89
34.41
34.957
35.524
36.104
36.69
37.274
37.849
38.409
38.946
39.456
39.935
40.377
40.783
41.149
41.477
41.765
42.016
42.23
42.408
42.552
42.663
42.741
42.788
42.806
42.798
42.765
42.71
42.634
42.541
42.433
42.314
42.188
42.057
41.925
41.795
41.67
41.55
41.436
41.328
41.227
41.13
41.036
40.943
40.849
40.755
40.658
40.56
40.459
40.356
40.249
40.139
40.024
39.904
39.778
39.647
39.511
39.37
39.226
39.078
38.93
38.78
38.629
38.479
38.331
38.187
38.047
37.916
37.793
37.681
37.576
37.481
37.397
37.321
37.254
37.192
37.138
37.091
37.049
37.009
36.967
36.919
36.87
36.828
36.794
36.77
36.754
36.746
36.741
36.739
36.736
36.73
36.719
36.702
36.679
36.647
36.606
36.558
36.502
36.44
36.374
36.304
36.231
36.157
36.082
36.006
35.931
35.856
35.781
35.707
35.634
35.561
35.488
35.415
35.342
35.269
35.195
35.121
35.046
34.97
34.893
34.815
34.737
34.658
34.579
34.5
34.423
34.348
34.276
34.205
34.138
34.073
34.011
33.95
33.891
33.831
33.771
33.709
33.646
33.581
33.514
33.446
33.377
33.308
33.24
33.173
33.109
33.05
32.995
32.945
32.899
32.858
32.819
32.782
32.747
32.713
32.678
32.641
32.602
32.56
32.514
32.464
32.414
32.366
32.323
32.286
32.26
32.246
32.244
32.255
32.279
32.314
32.359
32.411
32.47
32.531
32.594
32.656
32.713
32.762
32.801
32.827
32.836
32.827
32.801
32.759
32.703
32.637
32.565
32.491
32.417
32.347
32.282
32.222
32.168
32.119
32.077
32.039
32.004
31.972
31.94
31.908
31.876
31.844
31.813
31.786
31.765
31.753
31.753
31.769
31.805
31.865
31.953
32.073
32.227
32.418
32.648
32.916
33.224
33.569
33.95
34.364
34.808
35.276
35.764
36.265
36.772
37.281
37.784
38.275
38.75
39.204
39.632
40.031
40.397
40.727
41.019
41.273
41.487
41.661
41.796
41.896
41.962
41.999
42.011
42.0
41.97
41.923
41.862
41.788
41.703
41.61
41.509
41.403
41.293
41.18
41.064
40.947
40.828
40.71
40.591
40.474
40.358
40.244
40.133
40.024
39.918
39.814
39.71
39.607
39.502
39.394
39.282
39.164
39.039
38.908
38.771
38.629
38.484
38.336
38.187
38.04
37.894
37.75
37.611
37.477
37.349
37.227
37.114
37.009
36.911
36.822
36.74
36.665
36.597
36.535
36.48
36.43
36.385
36.344
36.306
36.272
36.24
36.211
36.183
36.157
36.133
36.11
36.087
36.063
36.036
36.007
35.974
35.937
35.896
35.85
35.8
35.748
35.695
35.64
35.586
35.532
35.478
35.426
35.373
35.318
35.261
35.201
35.136
35.066
34.991
34.911
34.829
34.743
34.656
34.568
34.481
34.394
34.309
34.226
34.145
34.066
33.988
33.911
33.835
33.758
33.682
33.605
33.528
33.449
33.371
33.292
33.213
33.135
33.057
32.981
32.907
32.836
32.767
32.702
32.639
32.578
32.518
32.461
32.405
32.351
32.298
32.246
32.195
32.145
32.095
32.046
31.998
31.951
31.905
31.859
31.814
31.77
31.727
31.686
31.645
31.607
31.57
31.535
31.502
31.471
31.443
31.418
31.395
31.374
31.354
31.336
31.32
31.305
31.292
31.279
31.268
31.256
31.245
31.233
31.221
31.208
31.194
31.18
31.165
31.148
31.131
31.113
31.094
31.075
31.056
31.037
31.019
31.001
30.983
30.966
30.949
30.932
30.915
30.899
30.882
30.864
30.845
30.824
30.802
30.778
30.753
30.726
30.699
30.672
30.647
30.624
30.606
30.596
30.597
30.614
30.65
30.71
30.797
30.918
31.074
31.27
31.507
31.786
32.107
32.47
32.871
33.309
33.779
34.278
34.799
35.337
35.884
36.433
36.979
37.515
38.034
38.532
39.002
39.443
39.85
40.222
40.559
40.86
41.125
41.355
41.55
41.711
41.84
41.939
42.009
42.053
42.074
42.074
42.056
42.021
41.971
41.91
41.837
41.756
41.667
41.572
41.473
41.371
41.267
41.162
41.057
40.951
40.846
40.74
40.634
40.529
40.423
40.319
40.217
40.117
40.018
39.922
39.827
39.733
39.638
39.541
39.44
39.334
39.223
39.105
38.981
38.852
38.718
38.581
38.44
38.297
38.152
38.008
37.865
37.726
37.592
37.464
37.346
37.237
37.138
37.048
36.967
36.894
36.829
36.77
36.716
36.664
36.614
36.564
36.515
36.466
36.418
36.372
36.327
36.286
36.246
36.209
36.173
36.138
36.102
36.065
36.026
35.985
35.94
35.892
35.841
35.788
35.733
35.677
35.618
35.558
35.496
35.433
35.369
35.304
35.238
35.171
35.105
35.038
34.971
34.904
34.836
34.768
34.699
34.629
34.558
34.486
34.414
34.342
34.269
34.196
34.123
34.05
33.977
33.905
33.834
33.764
33.695
33.628
33.563
33.498
33.436
33.374
33.311
33.248
33.183
33.116
33.047
32.976
32.904
32.834
32.765
32.699
32.636
32.578
32.526
32.48
32.44
32.405
32.374
32.347
32.32
32.295
32.268
32.239
32.206
32.169
32.126
32.078
32.027
31.973
31.918
31.863
31.809
31.758
31.711
31.669
31.633
31.604
31.579
31.56
31.545
31.533
31.523
31.513
31.502
31.488
31.471
31.45
31.425
31.397
31.365
31.332
31.299
31.267
31.237
31.21
31.186
31.166
31.149
31.135
31.124
31.113
31.102
31.092
31.08
31.067
31.051
31.032
31.009
30.984
30.955
30.925
30.895
30.864
30.835
30.808
30.783
30.76
30.741
30.726
30.715
30.709
30.709
30.718
30.738
30.771
30.82
30.888
30.98
31.098
31.247
31.43
31.651
31.911
32.213
32.557
32.942
33.367
33.829
34.323
34.843
35.381
35.93
36.483
37.032
37.571
38.093
38.592
39.065
39.505
39.912
40.282
40.613
40.905
41.158
41.373
41.553
41.699
41.814
41.901
41.96
41.996
42.009
42.004
41.981
41.942
41.89
41.826
41.751
41.667
41.577
41.481
41.383
41.284
41.184
41.084
40.985
40.886
40.787
40.689
40.591
40.493
40.395
40.298
40.201
40.105
40.008
39.908
39.807
39.703
39.596
39.486
39.374
39.26
39.144
39.025
38.903
38.777
38.647
38.514
38.377
38.239
38.1
37.961
37.826
37.695
37.57
37.452
37.342
37.241
37.15
37.067
36.993
36.926
36.867
36.813
36.764
36.72
36.678
36.64
36.603
36.566
36.529
36.492
36.453
36.413
36.372
36.33
36.291
36.252
36.216
36.181
36.148
36.116
36.083
36.048
36.01
35.969
35.924
35.875
35.821
35.762
35.698
35.63
35.558
35.484
35.408
35.333
35.258
35.184
35.11
35.037
34.964
34.891
34.818
34.745
34.672
34.598
34.523
34.447
34.37
34.292
34.213
34.134
34.055
33.976
33.899
33.824
33.752
33.682
33.616
33.551
33.489
33.429
33.371
33.315
33.261
33.207
33.152
33.096
33.039
32.981
32.924
32.868
32.813
32.76
32.709
32.66
32.614
32.57
32.527
32.486
32.446
32.406
32.366
32.326
32.285
32.245
32.205
32.164
32.123
32.084
32.047
32.013
31.981
31.953
31.927
31.903
31.883
31.865
31.85
31.837
31.825
31.813
31.801
31.791
31.781
31.772
31.764
31.758
31.751
31.742
31.728
31.709
31.683
31.652
31.611
31.561
31.504
31.444
31.383
31.328
31.279
31.24
31.211
31.193
31.184
31.185
31.192
31.203
31.217
31.231
31.242
31.249
31.251
31.246
31.235
31.218
31.196
31.17
31.142
31.115
31.091
31.073
31.065
31.069
31.09
31.134
31.205
31.307
31.446
31.624
31.843
32.105
32.409
32.753
33.135
33.552
34.0
34.473
34.968
35.478
35.996
36.518
37.035
37.541
38.031
38.5
38.941
39.352
39.729
40.07
40.374
40.641
40.871
41.065
41.223
41.348
41.442
41.505
41.54
41.55
41.538
41.506
41.457
41.392
41.313
41.223
41.123
41.015
40.899
40.779
40.655
40.529
40.404
40.282
40.164
40.051
39.943
39.841
39.743
39.648
39.556
39.464
39.372
39.277
39.18
39.077
38.969
38.856
38.736
38.61
38.48
38.344
38.205
38.063
37.918
37.773
37.63
37.489
37.353
37.222
37.096
36.976
36.862
36.753
36.65
36.553
36.462
36.379
36.303
36.235
36.175
36.124
36.081
36.046
36.018
35.996
35.979
35.965
35.954
35.944
35.935
35.925
35.913
35.898
35.881
35.861
35.837
35.812
35.783
35.752
35.719
35.683
35.643
35.6
35.553
35.502
35.449
35.392
35.333
35.272
35.209
35.143
35.074
35.003
34.929
34.852
34.773
34.691
34.607
34.522
34.437
34.354
34.272
34.194
34.12
34.049
33.981
33.915
33.85
33.787
33.723
33.659
33.595
33.529
33.462
33.394
33.325
33.257
33.19
33.125
33.061
33.0
32.942
32.886
32.833
32.782
32.734
32.688
32.642
32.598
32.555
32.512
32.468
32.423
32.376
32.328
32.278
32.227
32.175
32.124
32.074
32.027
31.983
31.943
31.908
31.878
31.854
31.834
31.818
31.806
31.795
31.786
31.776
31.765
31.751
31.733
31.712
31.687
31.658
31.626
31.592
31.557
31.522
31.489
31.457
31.429
31.403
31.381
31.363
31.348
31.335
31.324
31.313
31.303
31.291
31.276
31.258
31.236
31.212
31.184
31.154
31.121
31.086
31.05
31.014
30.98
30.949
30.923
30.903
30.89
30.886
30.896
30.921
30.965
31.032
31.126
31.249
31.404
31.593
31.819
32.082
32.385
32.725
33.102
33.513
33.955
34.423
34.912
35.416
35.929
36.445
36.955
37.454
37.934
38.391
38.82
39.218
39.583
39.913
40.208
40.469
40.696
40.89
41.053
41.186
41.292
41.373
41.429
41.464
41.477
41.471
41.446
41.404
41.345
41.273
41.188
41.093
40.99
40.882
40.769
40.653
40.536
40.416
40.296
40.176
40.057
39.941
39.827
39.717
39.609
39.503
39.399
39.297
39.194
39.091
38.986
38.878
38.767
38.654
38.538
38.42
38.3
38.179
38.056
37.933
37.808
37.683
37.557
37.431
37.306
37.182
37.061
36.944
36.833
36.73
36.634
36.548
36.472
36.405
36.348
36.301
36.26
36.226
36.196
36.168
36.142
36.117
36.092
36.066
36.039
36.01
35.981
35.952
35.922
35.893
35.863
35.833
35.802
35.769
35.735
35.698
35.659
35.618
35.575
35.53
35.482
35.43
35.375
35.316
35.254
35.189
35.12
35.048
34.973
34.896
34.817
34.738
34.659
34.582
34.507
34.434
34.364
34.297
34.231
34.166
34.102
34.037
33.972
33.905
33.836
33.764
33.69
33.616
33.541
33.467
33.395
33.326
33.259
33.196
33.137
33.08
33.026
32.972
32.919
32.866
32.813
32.758
32.701
32.644
32.585
32.526
32.468
32.41
32.354
32.3
32.25
32.204
32.162
32.126
32.094
32.066
32.04
32.017
31.995
31.972
31.947
31.919
31.888
31.854
31.816
31.776
31.735
31.692
31.65
31.609
31.57
31.534
31.501
31.472
31.448
31.428
31.412
31.399
31.389
31.381
31.373
31.364
31.354
31.342
31.327
31.309
31.289
31.266
31.239
31.21
31.18
31.15
31.122
31.096
31.074
31.055
31.041
31.03
31.022
31.016
31.011
31.006
30.999
30.988
30.974
30.956
30.934
30.908
30.879
30.847
30.813
30.779
30.746
30.715
30.687
30.665
30.649
30.643
30.648
30.667
30.702
30.755
30.831
30.931
31.059
31.217
31.408
31.633
31.894
32.191
32.525
32.896
33.303
33.742
34.21
34.704
35.217
35.744
36.278
36.814
37.345
37.865
38.369
38.85
39.305
39.728
40.117
40.469
40.781
41.054
41.288
41.485
41.646
41.776
41.876
41.949
41.998
42.025
42.032
42.021
41.993
41.951
41.897
41.833
41.761
41.681
41.596
41.506
41.413
41.316
41.217
41.115
41.013
40.911
40.809
40.706
40.604
40.501
40.397
40.293
40.188
40.08
39.972
39.863
39.753
39.642
39.531
39.418
39.304
39.188
39.069
38.946
38.82
38.692
38.562
38.43
38.295
38.161
38.029
37.9
37.774
37.65
37.528
37.413
37.307
37.21
37.124
37.047
36.98
36.922
36.871
36.828
36.789
36.755
36.722
36.691
36.66
36.628
36.595
36.562
36.526
36.49
36.452
36.413
36.372
36.331
36.29
36.25
36.211
36.173
36.135
36.096
36.057
36.015
35.97
35.922
35.87
35.813
35.752
35.687
35.619
35.547
35.473
35.397
35.321
35.245
35.169
35.095
35.022
34.949
34.877
34.805
34.734
34.663
34.592
34.521
34.449
34.378
34.306
34.235
34.163
34.092
34.02
33.947
33.875
33.802
33.73
33.658
33.588
33.52
33.455
33.392
33.332
33.275
33.22
33.168
33.117
33.068
33.019
32.969
32.919
32.867
32.815
32.762
32.71
32.659
32.609
32.561
32.515
32.471
32.428
32.386
32.346
32.306
32.267
32.228
32.19
32.151
32.111
32.071
32.029
31.987
31.944
31.902
31.86
31.819
31.78
31.743
31.71
31.679
31.653
31.629
31.608
31.589
31.573
31.557
31.543
31.531
31.518
31.506
31.492
31.476
31.458
31.437
31.415
31.391
31.366
31.341
31.316
31.292
31.27
31.25
31.232
31.217
31.206
31.197
31.19
31.186
31.182
31.18
31.177
31.173
31.167
31.158
31.145
31.129
31.11
31.087
31.061
31.032
31.003
30.972
30.941
30.91
30.88
30.849
30.819
30.791
30.764
30.739
30.718
30.7
30.687
30.681
30.685
30.701
30.734
30.787
30.864
30.969
31.107
31.28
31.492
31.745
32.04
32.378
32.756
33.173
33.625
34.108
34.615
35.143
35.683
36.231
36.779
37.322
37.853
38.369
38.864
39.334
39.778
40.191
40.572
40.918
41.228
41.501
41.738
41.938
42.103
42.235
42.333
42.401
42.44
42.452
42.44
42.407
42.354
42.286
42.206
42.118
42.024
41.926
41.825
41.721
41.616
41.509
41.4
41.292
41.183
41.076
40.97
40.866
40.764
40.663
40.564
40.465
40.368
40.27
40.173
40.075
39.976
39.874
39.767
39.656
39.537
39.413
39.281
39.143
38.999
38.85
38.698
38.546
38.395
38.248
38.107
37.973
37.847
37.731
37.623
37.523
37.431
37.344
37.263
37.187
37.116
37.049
36.986
36.928
36.876
36.829
36.787
36.75
36.718
36.69
36.667
36.646
36.628
36.611
36.595
36.579
36.562
36.544
36.524
36.5
36.473
36.442
36.406
36.364
36.316
36.264
36.206
36.143
36.077
36.009
35.94
35.871
35.803
35.736
35.671
35.607
35.543
35.478
35.411
35.341
35.269
35.195
35.118
35.039
34.958
34.877
34.797
34.717
34.64
34.567
34.498
34.433
34.371
34.312
34.255
34.199
34.144
34.087
34.029
33.968
33.905
33.84
33.772
33.704
33.635
33.567
33.5
33.435
33.371
33.31
33.251
33.192
33.136
33.08
33.026
32.972
32.92
32.868
32.818
32.769
32.721
32.673
32.626
32.58
32.535
32.491
32.447
32.405
32.364
32.324
32.287
32.252
32.219
32.188
32.158
32.131
32.107
32.085
32.065
32.047
32.032
32.018
32.005
31.994
31.982
31.97
31.958
31.945
31.931
31.916
31.901
31.885
31.87
31.855
31.842
31.829
31.818
31.805
31.793
31.781
31.768
31.756
31.743
31.729
31.714
31.697
31.679
31.66
31.642
31.623
31.604
31.585
31.566
31.546
31.526
31.505
31.485
31.465
31.444
31.424
31.403
31.384
31.364
31.343
31.322
31.3
31.276
31.251
31.226
31.2
31.173
31.147
31.122
31.099
31.079
31.065
31.058
31.062
31.081
31.118
31.176
31.261
31.375
31.521
31.703
31.923
32.181
32.479
32.816
33.192
33.605
34.051
34.526
35.027
35.548
36.082
36.624
37.166
37.701
38.224
38.728
39.207
39.656
40.072
40.452
40.795
41.101
41.369
41.6
41.795
41.955
42.082
42.178
42.246
42.286
42.302
42.294
42.266
42.218
42.154
42.076
41.987
41.889
41.782
41.669
41.549
41.425
41.297
41.168
41.04
40.913
40.789
40.667
40.547
40.429
40.312
40.195
40.076
39.955
39.831
39.703
39.571
39.435
39.298
39.161
39.026
38.894
38.763
38.636
38.51
38.384
38.259
38.133
38.006
37.88
37.754
37.63
37.509
37.393
37.282
37.179
37.083
36.995
36.916
36.846
36.785
36.734
36.692
36.658
36.632
36.612
36.597
36.585
36.577
36.569
36.56
36.55
36.537
36.52
36.501
36.478
36.453
36.425
36.396
36.366
36.336
36.307
36.279
36.251
36.222
36.193
36.16
36.124
36.084
36.037
35.984
35.925
35.86
35.79
35.716
35.639
35.561
35.482
35.402
35.323
35.245
35.167
35.09
35.013
34.937
34.861
34.784
34.706
34.629
34.553
34.477
34.403
34.331
34.261
34.192
34.125
34.058
33.994
33.931
33.87
33.812
33.755
33.7
33.647
33.595
33.543
33.491
33.439
33.387
33.333
33.279
33.222
33.164
33.103
33.039
32.975
32.908
32.842
32.778
32.716
32.657
32.602
32.552
32.505
32.463
32.425
32.391
32.36
32.332
32.305
32.279
32.252
32.225
32.197
32.168
32.137
32.105
32.073
32.041
32.011
31.984
31.959
31.938
31.92
31.904
31.891
31.879
31.868
31.857
31.845
31.832
31.816
31.798
31.778
31.756
31.732
31.706
31.681
31.655
31.631
31.607
31.585
31.564
31.545
31.526
31.508
31.49
31.472
31.453
31.434
31.413
31.391
31.367
31.341
31.316
31.291
31.268
31.249
31.237
31.235
31.247
31.277
31.329
31.409
31.52
31.666
31.85
32.075
32.341
32.648
32.996
33.381
33.801
34.252
34.729
35.227
35.743
36.269
36.802
37.335
37.863
38.381
38.882
39.363
39.817
40.241
40.633
40.989
41.31
41.594
41.842
42.052
42.226
42.364
42.468
42.541
42.585
42.603
42.598
42.574
