Trial 1:0back
40.008
40.725
41.39
41.991
42.523
42.978
43.356
43.655
43.88
44.033
44.12
44.148
44.123
44.051
43.942
43.801
43.636
43.452
43.254
43.047
42.835
42.621
42.407
42.196
41.989
41.787
41.592
41.403
41.222
41.048
40.882
40.722
40.57
40.425
40.286
40.153
40.025
39.902
39.783
39.665
39.548
39.429
39.308
39.183
39.055
38.921
38.783
38.64
38.493
38.342
38.19
38.038
37.887
37.738
37.593
37.452
37.317
37.188
37.068
36.957
36.855
36.762
36.68
36.608
36.544
36.489
36.443
36.406
36.377
36.356
36.342
36.333
36.327
36.325
36.323
36.319
36.313
36.303
36.288
36.268
36.241
36.206
36.164
36.115
36.059
35.996
35.927
35.854
35.778
35.698
35.616
35.532
35.445
35.356
35.264
35.171
35.075
34.978
34.879
34.78
34.68
34.582
34.484
34.387
34.292
34.197
34.102
34.008
33.914
33.82
33.728
33.638
33.548
33.461
33.374
33.289
33.203
33.119
33.035
32.952
32.87
32.79
32.713
32.639
32.569
32.502
32.438
32.378
32.322
32.267
32.215
32.165
32.118
32.072
32.029
31.987
31.947
31.908
31.869
31.83
31.792
31.754
31.717
31.683
31.65
31.62
31.593
31.568
31.546
31.526
31.508
31.491
31.476
31.462
31.448
31.435
31.421
31.407
31.393
31.38
31.368
31.358
31.35
31.343
31.338
31.333
31.329
31.326
31.323
31.32
31.317
31.314
31.311
31.309
31.306
31.302
31.297
31.291
31.284
31.276
31.268
31.259
31.251
31.243
31.234
31.225
31.216
31.206
31.196
31.185
31.172
31.158
31.14
31.118
31.094
31.067
31.041
31.017
30.997
30.985
30.982
30.991
31.015
31.056
31.117
31.204
31.321
31.47
31.658
31.887
32.16
32.481
32.853
33.279
33.761
34.298
34.889
35.527
36.205
36.914
37.64
38.369
39.088
39.783
40.442
41.053
41.606
42.094
42.512
42.856
43.126
43.325
43.455
43.521
43.529
43.486
43.397
43.271
43.113
42.931
42.73
42.515
42.292
42.066
41.838
41.611
41.388
41.169
40.955
40.748
40.546
40.35
40.16
39.975
39.795
39.621
39.451
39.285
39.124
38.966
38.811
38.658
38.508
38.361
38.216
38.073
37.931
37.789
37.647
37.504
37.361
37.219
37.078
36.942
36.81
36.686
36.57
36.464
36.368
36.283
36.209
36.144
36.088
36.041
36.001
35.968
35.942
35.921
35.906
35.896
35.89
35.887
35.886
35.886
35.885
35.884
35.88
35.874
35.865
35.853
35.838
35.821
35.799
35.772
35.74
35.702
35.659
35.611
35.558
35.501
35.439
35.374
35.306
35.234
35.16
35.084
35.006
34.926
34.843
34.758
34.67
34.58
34.487
34.393
34.298
34.203
34.108
34.013
33.92
33.827
33.735
33.642
33.549
33.458
33.369
33.283
33.201
33.124
33.05
32.981
32.913
32.847
32.782
32.718
32.655
32.593
32.533
32.475
32.419
32.365
32.311
32.257
32.203
32.151
32.099
32.05
32.002
31.958
31.915
31.875
31.836
31.798
31.762
31.729
31.699
31.673
31.651
31.633
31.617
31.603
31.589
31.576
31.562
31.548
31.533
31.518
31.504
31.489
31.475
31.46
31.445
31.429
31.414
31.399
31.385
31.372
31.362
31.354
31.348
31.345
31.343
31.341
31.339
31.336
31.332
31.325
31.318
31.308
31.297
31.285
31.272
31.258
31.243
31.228
31.214
31.201
31.189
31.182
31.181
31.19
31.211
31.249
31.31
31.396
31.513
31.664
31.853
32.084
32.359
32.682
33.055
33.481
33.962
34.498
35.086
35.721
36.396
37.1
37.82
38.544
39.258
39.949
40.605
41.214
41.768
42.26
42.683
43.036
43.319
43.532
43.679
43.763
43.79
43.764
43.693
43.583
43.442
43.275
43.089
42.89
42.683
42.472
42.26
42.05
41.845
41.646
41.452
41.266
41.087
40.914
40.748
40.586
40.427
40.272
40.12
39.97
39.824
39.68
39.54
39.403
39.268
39.137
39.006
38.876
38.744
38.612
38.477
38.34
38.2
38.058
37.915
37.771
37.627
37.484
37.344
37.208
37.077
36.951
36.832
36.72
36.617
36.522
36.436
36.361
36.296
36.242
36.199
36.166
36.142
36.126
36.116
36.111
36.111
36.113
36.117
36.122
36.127
36.131
36.133
36.131
36.126
36.116
36.1
36.078
36.05
36.015
35.974
35.925
35.87
35.808
35.739
35.664
35.584
35.5
35.413
35.323
35.23
35.136
35.039
34.941
34.841
34.741
34.639
34.538
34.438
34.338
34.24
34.144
34.05
33.956
33.863
33.771
33.681
33.591
33.504
33.419
33.337
33.257
33.179
33.102
33.026
32.95
32.875
32.801
32.731
32.663
32.599
32.539
32.482
32.428
32.374
32.321
32.267
32.213
32.16
32.108
32.058
32.01
31.964
31.921
31.88
31.841
31.805
31.772
31.743
31.717
31.693
31.672
31.651
31.629
31.607
31.584
31.56
31.537
31.514
31.494
31.476
31.462
31.451
31.443
31.437
31.433
31.428
31.423
31.417
31.41
31.404
31.397
31.391
31.384
31.378
31.372
31.365
31.357
31.346
31.333
31.318
31.3
31.281
31.262
31.247
31.236
31.233
31.243
31.267
31.312
31.381
31.479
31.611
31.78
31.991
32.248
32.554
32.913
33.328
33.802
34.334
34.923
35.562
36.243
36.954
37.683
38.416
39.14
39.84
40.504
41.12
41.679
42.175
42.603
42.961
43.247
43.464
43.613
43.7
43.73
43.71
43.646
43.544
43.411
43.251
43.07
42.874
42.667
42.453
42.235
42.016
41.799
41.586
41.38
41.183
40.995
40.816
40.644
40.478
40.318
40.164
40.015
39.871
39.73
39.592
39.455
39.319
39.183
39.046
38.91
38.772
38.633
38.492
38.351
38.207
38.063
37.917
37.77
37.624
37.48
37.337
37.196
37.06
36.927
36.801
36.681
36.568
36.465
36.37
36.284
36.207
36.139
36.08
36.028
35.984
35.947
35.917
35.892
35.872
35.855
35.841
35.828
35.815
35.801
35.784
35.764
35.739
35.711
35.68
35.646
35.61
35.572
35.532
35.489
35.443
35.392
35.335
35.272
35.203
35.13
35.054
34.975
34.895
34.814
34.731
34.646
34.56
34.47
34.379
34.286
34.192
34.099
34.006
33.916
33.826
33.738
33.65
33.562
33.475
33.387
33.3
33.213
33.126
33.041
32.956
32.874
32.792
32.711
32.63
32.55
32.472
32.398
32.328
32.262
32.2
32.143
32.091
32.042
31.997
31.955
31.914
31.875
31.837
31.8
31.762
31.725
31.687
31.65
31.613
31.577
31.543
31.511
31.481
31.453
31.427
31.403
31.38
31.359
31.34
31.324
31.311
31.301
31.294
31.29
31.286
31.283
31.28
31.274
31.266
31.255
31.241
31.225
31.206
31.185
31.164
31.143
31.123
31.103
31.087
31.075
31.071
31.076
31.095
31.13
31.187
31.268
31.379
31.523
31.704
31.925
32.192
32.507
32.873
33.294
33.77
34.301
34.884
35.513
36.178
36.869
37.572
38.276
38.965
39.628
40.253
40.829
41.349
41.806
42.196
42.517
42.769
42.953
43.073
43.133
43.137
43.091
43.001
42.874
42.716
42.533
42.331
42.116
41.893
41.664
41.436
41.21
40.989
40.776
40.571
40.374
40.187
40.006
39.833
39.666
39.504
39.346
39.192
39.04
38.891
38.745
38.6
38.459
38.319
38.181
38.044
37.908
37.773
37.637
37.498
37.358
37.215
37.071
36.926
36.781
36.638
36.497
36.36
36.227
36.1
35.979
35.865
35.761
35.665
35.578
35.499
35.429
35.368
35.315
35.271
35.236
35.209
35.191
35.179
35.175
35.174
35.176
35.179
35.181
35.182
35.181
35.177
35.169
35.157
35.141
35.12
35.094
35.063
35.025
34.982
34.933
34.878
34.818
34.753
34.684
34.612
34.538
34.463
34.385
34.306
34.225
34.142
34.058
33.972
33.887
33.803
33.719
33.636
33.552
33.468
33.383
33.296
33.207
33.119
33.031
32.946
32.865
32.787
32.714
32.643
32.575
32.509
32.445
32.382
32.322
32.265
32.211
32.161
32.114
32.07
32.029
31.989
31.949
31.91
31.87
31.831
31.792
31.752
31.712
31.671
31.631
31.591
31.552
31.513
31.477
31.442
31.411
31.382
31.356
31.332
31.31
31.29
31.272
31.254
31.237
31.222
31.209
31.198
31.189
31.181
31.173
31.165
31.156
31.146
31.134
31.12
31.106
31.092
31.078
31.064
31.051
31.04
31.032
31.028
31.031
31.042
31.066
31.107
31.168
31.255
31.371
31.52
31.706
31.933
32.202
32.519
32.886
33.307
33.783
34.315
34.897
35.526
36.19
36.88
37.582
38.284
38.971
39.63
40.248
40.816
41.324
41.766
42.14
42.443
42.677
42.844
42.947
42.989
42.976
42.914
42.808
42.666
42.494
42.298
42.084
41.858
41.623
41.384
41.143
40.904
40.67
40.44
40.218
40.002
39.794
39.594
39.402
39.216
39.038
38.865
38.698
38.536
38.378
38.223
38.071
37.921
37.772
37.625
37.478
37.331
37.185
37.039
36.893
36.748
36.605
36.463
36.324
36.189
36.06
35.936
35.821
35.714
35.616
35.528
35.45
35.381
35.321
35.271
35.229
35.195
35.169
35.151
35.139
35.134
35.134
35.139
35.147
35.158
35.169
35.181
35.191
35.199
35.204
35.204
35.2
35.19
35.175
35.155
35.128
35.094
35.053
35.005
34.95
34.889
34.822
34.75
34.675
34.597
34.517
34.434
34.349
34.262
34.174
34.086
33.999
33.913
33.829
33.747
33.667
33.589
33.512
33.437
33.364
33.291
33.219
33.148
33.077
33.006
32.935
32.864
32.793
32.723
32.653
32.584
32.516
32.449
32.383
32.319
32.255
32.191
32.128
32.065
32.003
31.943
31.886
31.832
31.781
31.736
31.695
31.66
31.63
31.604
31.582
31.562
31.545
31.529
31.515
31.501
31.488
31.474
31.46
31.444
31.425
31.404
31.381
31.357
31.331
31.306
31.283
31.263
31.247
31.234
31.225
31.218
31.215
31.213
31.213
31.213
31.214
31.214
31.213
31.21
31.204
31.196
31.186
31.173
31.159
31.143
31.127
31.111
31.097
31.088
31.088
31.099
31.127
31.174
31.246
31.345
31.475
31.641
31.844
32.09
32.381
32.721
33.114
33.562
34.068
34.63
35.243
35.901
36.592
37.303
38.02
38.729
39.416
40.068
40.673
41.222
41.707
42.123
42.468
42.741
42.945
43.082
43.158
43.176
43.142
43.062
42.942
42.788
42.605
42.4
42.176
41.94
41.694
41.444
41.193
40.943
40.697
40.457
40.222
39.994
39.773
39.559
39.352
39.154
38.963
38.779
38.601
38.428
38.261
38.098
37.94
37.785
37.633
37.483
37.336
37.19
37.047
36.905
36.767
36.631
36.498
36.37
36.246
36.127
36.015
35.911
35.816
35.732
35.657
35.593
35.539
35.494
35.457
35.429
35.408
35.394
35.388
35.388
35.394
35.406
35.422
35.44
35.459
35.477
35.493
35.507
35.518
35.524
35.526
35.522
35.513
35.499
35.481
35.457
35.429
35.396
35.357
35.314
35.265
35.211
35.152
35.088
35.02
34.948
34.872
34.793
34.712
34.628
34.541
34.452
34.36
34.267
34.172
34.077
33.982
33.888
33.797
33.707
33.62
33.537
33.456
33.378
33.304
33.232
33.163
33.096
33.03
32.966
32.902
32.839
32.776
32.714
32.654
32.594
32.536
32.478
32.422
32.366
32.311
32.257
32.203
32.151
32.1
32.052
32.007
31.965
31.926
31.891
31.859
31.83
31.804
31.781
31.76
31.74
31.723
31.706
31.69
31.674
31.659
31.644
31.628
31.612
31.596
31.58
31.565
31.549
31.533
31.518
31.503
31.488
31.474
31.461
31.449
31.438
31.428
31.419
31.41
31.403
31.395
31.387
31.379
31.372
31.367
31.365
31.369
31.38
31.401
31.435
31.486
31.558
31.656
31.785
31.951
32.157
32.409
32.712
33.068
33.482
33.956
34.489
35.075
35.709
36.38
37.079
37.792
38.506
39.207
39.882
40.517
41.104
41.631
42.093
42.485
42.804
43.05
43.225
43.332
43.376
43.364
43.3
43.193
43.049
42.876
42.68
42.468
42.245
42.016
41.785
41.553
41.324
41.099
40.879
40.665
40.459
40.259
40.066
39.88
39.701
39.527
39.358
39.195
39.037
38.882
38.729
38.576
38.424
38.271
38.119
37.966
37.813
37.661
37.51
37.359
37.208
37.058
36.909
36.764
36.624
36.49
36.364
36.246
36.138
36.039
35.95
35.872
35.803
35.746
35.7
35.664
35.64
35.624
35.617
35.616
35.62
35.627
35.637
35.647
35.657
35.668
35.678
35.687
35.694
35.699
35.702
35.7
35.693
35.679
35.658
35.629
35.591
35.545
35.493
35.436
35.375
35.311
35.242
35.17
35.093
35.01
34.924
34.834
34.741
34.648
34.554
34.46
34.367
34.273
34.179
34.084
33.988
33.892
33.796
33.701
33.609
33.519
33.432
33.348
33.266
33.187
33.112
33.039
32.969
32.902
32.838
32.777
32.718
32.659
32.6
32.539
32.477
32.413
32.348
32.283
32.218
32.154
32.092
32.034
31.979
31.927
31.879
31.834
31.791
31.752
31.716
31.684
31.656
31.632
31.611
31.592
31.575
31.559
31.544
31.529
31.515
31.502
31.489
31.476
31.463
31.45
31.437
31.424
31.412
31.401
31.392
31.385
31.38
31.376
31.373
31.37
31.367
31.364
31.362
31.359
31.355
31.352
31.348
31.342
31.334
31.325
31.313
31.301
31.287
31.275
31.263
31.252
31.244
31.237
31.234
31.236
31.245
31.264
31.297
31.347
31.419
31.518
31.65
31.82
32.034
32.299
32.62
33.005
33.456
33.977
34.564
35.212
35.912
36.652
37.42
38.199
38.975
39.73
40.451
41.123
41.736
42.281
42.753
43.147
43.463
43.701
43.867
43.964
44.001
43.985
43.924
43.825
43.696
43.543
43.372
43.188
42.994
42.795
42.593
42.388
42.183
41.978
41.775
41.574
41.377
41.185
40.999
40.819
40.645
40.478
40.317
40.163
40.015
39.871
39.732
39.595
39.459
39.325
39.19
39.054
38.916
38.777
38.637
38.495
38.351
38.207
38.063
37.918
37.773
37.628
37.485
37.346
37.211
37.084
36.965
36.855
36.756
36.667
36.589
36.52
36.461
36.41
36.366
36.33
36.3
36.275
36.256
36.241
36.23
36.221
36.215
36.209
36.203
36.194
36.183
36.168
36.148
36.124
36.097
36.066
36.032
35.995
35.955
35.91
35.861
35.807
35.746
35.68
35.609
35.534
35.455
35.373
35.289
35.201
35.11
35.014
34.915
34.812
34.708
34.603
34.498
34.394
34.291
34.191
34.092
33.995
33.9
33.808
33.719
33.633
33.55
33.471
33.393
33.315
33.239
33.162
33.085
33.008
32.932
32.857
32.783
32.711
32.641
32.571
32.503
32.436
32.372
32.31
32.251
32.196
32.146
32.099
32.057
32.017
31.98
31.944
31.908
31.874
31.839
31.805
31.773
31.741
31.712
31.685
31.659
31.633
31.608
31.582
31.556
31.53
31.504
31.478
31.454
31.431
31.41
31.391
31.375
31.361
31.35
31.342
31.337
31.336
31.337
31.341
31.346
31.352
31.357
31.361
31.362
31.362
31.359
31.356
31.349
31.34
31.328
31.313
31.296
31.275
31.253
31.23
31.208
31.186
31.167
31.15
31.135
31.123
31.114
31.11
31.111
31.118
31.133
31.16
31.202
31.262
31.345
31.456
31.6
31.783
32.009
32.285
32.615
33.006
33.46
33.981
34.566
35.209
35.903
36.636
37.394
38.163
38.927
39.67
40.38
41.043
41.648
42.188
42.657
43.051
43.37
43.614
43.787
43.891
43.931
43.916
43.85
43.743
43.6
43.43
43.238
43.031
42.813
42.59
42.366
42.143
41.924
41.71
41.499
41.293
41.092
40.897
40.71
40.53
40.357
40.192
40.034
39.883
39.737
39.596
39.46
39.328
39.2
39.073
38.948
38.823
38.698
38.57
38.44
38.307
38.172
38.033
37.892
37.749
37.605
37.461
37.32
37.181
37.048
36.922
36.804
36.696
36.596
36.507
36.426
36.353
36.288
36.231
36.18
36.135
36.099
36.069
36.046
36.029
36.016
36.007
35.999
35.992
35.985
35.978
35.971
35.962
35.952
35.939
35.923
35.903
35.878
35.847
35.811
35.769
35.723
35.671
35.615
35.555
35.491
35.423
35.351
35.275
35.194
35.108
35.018
34.925
34.829
34.731
34.631
34.529
34.426
34.321
34.215
34.109
34.004
33.9
33.798
33.7
33.605
33.515
33.427
33.342
33.259
33.18
33.103
33.03
32.959
32.892
32.827
32.766
32.707
32.651
32.597
32.545
32.495
32.446
32.399
32.352
32.306
32.259
32.212
32.165
32.117
32.069
32.021
31.974
31.928
31.884
31.841
31.798
31.755
31.712
31.67
31.629
31.59
31.556
31.525
31.499
31.477
31.458
31.442
31.428
31.415
31.404
31.393
31.384
31.378
31.373
31.369
31.367
31.365
31.362
31.358
31.351
31.342
31.33
31.317
31.303
31.289
31.277
31.266
31.256
31.248
31.239
31.231
31.224
31.217
31.211
31.205
31.201
31.197
31.193
31.19
31.186
31.182
31.176
31.169
31.16
31.147
31.133
31.115
31.096
31.077
31.06
31.047
31.043
31.049
31.07
31.11
31.175
31.27
31.402
31.576
31.797
32.067
32.388
32.764
33.198
33.69
34.241
34.848
35.504
36.2
36.925
37.667
38.412
39.145
39.854
40.526
41.15
41.715
42.216
42.645
43.001
43.281
43.487
43.622
43.691
43.699
43.654
43.561
43.429
43.264
43.072
42.86
42.633
42.396
42.153
41.91
41.668
41.429
41.194
40.964
40.741
40.523
40.313
40.11
39.914
39.726
39.545
39.37
39.203
39.041
38.884
38.73
38.58
38.432
38.284
38.138
37.992
37.846
37.703
37.561
37.422
37.287
37.155
37.028
36.904
36.785
36.672
36.566
36.468
36.378
36.298
36.226
36.163
36.109
36.062
36.023
35.992
35.968
35.951
35.94
35.935
35.933
35.936
35.941
35.949
35.963
35.982
36.005
36.031
36.057
36.08
36.096
36.105
36.103
36.091
36.067
36.033
35.989
35.936
35.874
35.806
35.732
35.653
35.57
35.484
35.396
35.307
35.218
35.13
35.042
34.955
34.867
34.78
34.692
34.603
34.512
34.42
34.325
34.229
34.132
34.035
33.938
33.843
33.751
33.661
33.574
33.487
33.402
33.318
33.236
33.155
33.076
32.999
32.926
32.857
32.79
32.726
32.665
32.605
32.548
32.493
32.441
32.391
32.344
32.299
32.255
32.213
32.172
32.134
32.096
32.06
32.025
31.991
31.957
31.924
31.892
31.862
31.834
31.808
31.785
31.764
31.744
31.727
31.71
31.694
31.677
31.66
31.643
31.625
31.606
31.588
31.569
31.552
31.536
31.522
31.508
31.494
31.48
31.467
31.455
31.444
31.437
31.433
31.433
31.435
31.441
31.447
31.452
31.456
31.457
31.454
31.448
31.436
31.421
31.402
31.381
31.36
31.338
31.318
31.299
31.283
31.27
31.262
31.259
31.265
31.284
31.32
31.378
31.464
31.58
31.733
31.925
32.159
32.437
32.764
33.144
33.579
34.072
34.622
35.224
35.873
36.558
37.267
37.989
38.708
39.413
40.089
40.724
41.308
41.831
42.287
42.673
42.988
43.23
43.402
43.508
43.554
43.546
43.491
43.395
43.264
43.106
42.925
42.729
42.52
42.304
42.083
41.86
41.635
41.412
41.192
40.974
40.76
40.551
40.346
40.146
39.951
39.762
39.58
39.405
39.237
39.075
38.919
38.767
38.618
38.468
38.316
38.161
38.003
37.842
37.68
37.518
37.359
37.204
37.056
36.915
36.782
36.659
36.544
36.438
36.339
36.248
36.166
36.092
36.027
35.971
35.924
35.885
35.853
35.828
35.808
35.793
35.784
35.779
35.779
35.782
35.788
35.796
35.804
35.81
35.813
35.813
35.808
35.8
35.788
35.772
35.753
35.73
35.702
35.669
35.629
35.584
35.533
35.476
35.415
35.349
35.281
35.211
35.138
35.064
34.987
34.908
34.827
34.743
34.658
34.571
34.483
34.394
34.305
34.215
34.126
34.037
33.947
33.857
33.766
33.674
33.582
33.49
33.398
33.308
33.219
33.134
33.051
32.973
32.898
32.828
32.762
32.7
32.641
32.586
32.533
32.481
32.432
32.384
32.338
32.294
32.252
32.211
32.171
32.132
32.094
32.058
32.023
31.988
31.952
31.916
31.879
31.842
31.806
31.771
31.738
31.706
31.677
31.649
31.623
31.599
31.577
31.556
31.536
31.519
31.503
31.489
31.476
31.465
31.455
31.447
31.44
31.435
31.432
31.43
31.43
31.43
31.429
31.427
31.423
31.417
31.41
31.402
31.393
31.385
31.378
31.371
31.366
31.362
31.36
31.359
31.359
31.358
31.357
31.354
31.348
31.341
31.33
31.318
31.303
31.287
31.271
31.253
31.236
31.219
31.204
31.192
31.185
31.185
31.195
31.218
31.258
31.319
31.405
31.521
31.672
31.86
32.091
32.365
32.689
33.064
33.495
33.986
34.536
35.145
35.807
36.513
37.251
38.009
38.771
39.522
40.246
40.931
41.563
42.134
42.635
43.063
43.413
43.686
43.884
44.01
44.072
44.075
44.027
43.936
43.81
43.656
43.479
43.286
43.08
42.867
42.649
42.429
42.208
41.99
41.773
41.561
41.353
41.152
40.956
40.767
40.585
40.409
40.239
40.076
39.919
39.768
39.621
39.476
39.334
39.192
39.05
38.909
38.768
38.626
38.485
38.345
38.205
38.066
37.929
37.793
37.659
37.527
37.397
37.269
37.144
37.024
36.91
36.802
36.702
36.61
36.527
36.454
36.388
36.331
36.282
36.241
36.208
36.183
36.164
36.15
36.142
36.136
36.131
36.127
36.122
36.116
36.106
