Trial 1:0back
35.129
35.098
35.069
35.042
35.017
34.992
34.967
34.941
34.912
34.879
34.842
34.8
34.752
34.7
34.645
34.589
34.534
34.479
34.427
34.377
34.331
34.289
34.25
34.213
34.178
34.141
34.104
34.065
34.025
33.984
33.942
33.9
33.859
33.819
33.781
33.746
33.713
33.682
33.651
33.62
33.588
33.555
33.521
33.485
33.45
33.414
33.378
33.344
33.309
33.275
33.243
33.214
33.188
33.165
33.148
33.136
33.132
33.136
33.151
33.177
33.217
33.273
33.347
33.439
33.551
33.683
33.835
34.007
34.198
34.407
34.633
34.875
35.132
35.405
35.693
35.998
36.316
36.647
36.984
37.322
37.655
37.975
38.277
38.553
38.797
39.006
39.175
39.304
39.39
39.434
39.439
39.407
39.343
39.251
39.136
39.005
38.862
38.712
38.56
38.41
38.263
38.123
37.993
37.871
37.758
37.655
37.561
37.476
37.398
37.327
37.262
37.199
37.137
37.075
37.01
36.942
36.873
36.802
36.729
36.656
36.583
36.509
36.436
36.364
36.293
36.226
36.161
36.102
36.048
35.999
35.955
35.917
35.885
35.856
35.831
35.807
35.784
35.762
35.741
35.721
35.703
35.688
35.675
35.665
35.658
35.652
35.648
35.645
35.642
35.639
35.635
35.63
35.623
35.612
35.598
35.58
35.557
35.53
35.501
35.468
35.434
35.397
35.359
35.321
35.281
35.24
35.199
35.157
35.115
35.073
35.029
34.984
34.938
34.889
34.837
34.782
34.723
34.664
34.605
34.549
34.495
34.446
34.399
34.356
34.314
34.273
34.232
34.189
34.145
34.099
34.051
34.001
33.951
33.902
33.855
33.811
33.771
33.736
33.704
33.676
33.65
33.624
33.598
33.57
33.541
33.51
33.477
33.444
33.409
33.375
33.34
33.306
33.273
33.242
33.211
33.181
33.153
33.125
33.099
33.076
33.056
33.043
33.039
33.047
33.07
33.109
33.166
33.243
33.339
33.454
33.587
33.736
33.899
34.077
34.269
34.477
34.702
34.946
35.212
35.503
35.817
36.154
36.511
36.881
37.258
37.631
37.991
38.328
38.635
38.903
39.124
39.295
39.413
39.48
39.497
39.468
39.398
39.294
39.164
39.014
38.85
38.68
38.509
38.342
38.183
38.035
37.899
37.775
37.664
37.566
37.479
37.403
37.335
37.273
37.214
37.155
37.099
37.05
37.009
36.975
36.944
36.914
36.882
36.844
36.799
36.745
36.682
36.61
36.53
36.443
36.351
36.257
36.164
36.075
35.993
35.919
35.854
35.796
35.747
35.705
35.672
35.647
35.63
35.619
35.615
35.616
35.62
35.624
35.628
35.631
35.632
35.631
35.627
35.621
35.613
35.603
35.593
35.581
35.568
35.554
35.539
35.522
35.503
35.482
35.461
35.439
35.416
35.393
35.369
35.343
35.314
35.283
35.25
35.213
35.174
35.133
35.089
35.043
34.994
34.944
34.893
34.843
34.794
34.746
34.7
34.655
34.61
34.565
34.519
34.471
34.422
34.371
34.316
34.259
34.2
34.142
34.085
34.03
33.978
33.929
33.883
33.838
33.794
33.752
33.711
33.67
33.629
33.588
33.545
33.503
33.461
33.419
33.378
33.338
33.3
33.263
33.227
33.191
33.154
33.118
33.081
33.044
33.008
32.973
32.94
32.91
32.885
32.865
32.851
32.846
32.851
32.866
32.893
32.934
32.989
33.061
33.148
33.252
33.374
33.513
33.67
33.844
34.035
34.24
34.457
34.683
34.916
35.154
35.393
35.635
35.878
36.122
36.365
36.607
36.847
37.082
37.31
37.525
37.724
37.904
38.06
38.189
38.285
38.339
38.352
38.326
38.267
38.181
38.074
37.954
37.826
37.695
37.566
37.44
37.322
37.211
37.109
37.016
36.932
36.856
36.787
36.724
36.666
36.611
36.557
36.505
36.452
36.398
36.343
36.286
36.225
36.162
36.095
36.025
35.953
35.88
35.808
35.74
35.674
35.614
35.56
35.514
35.475
35.444
35.422
35.407
35.398
35.394
35.393
35.393
35.393
35.392
35.388
35.382
35.374
35.364
35.354
35.344
35.333
35.322
35.31
35.298
35.283
35.267
35.25
35.231
35.211
35.19
35.167
35.142
35.115
35.085
35.051
35.015
34.976
34.936
34.894
34.852
34.81
34.767
34.724
34.683
34.641
34.601
34.56
34.519
34.479
34.44
34.402
34.364
34.327
34.291
34.256
34.22
34.183
34.147
34.11
34.072
34.032
33.99
33.944
33.897
33.849
33.8
33.751
33.705
33.66
33.617
33.576
33.535
33.495
33.457
33.42
33.384
33.348
33.312
33.275
33.239
33.202
33.167
33.132
33.1
33.07
33.042
33.016
32.992
32.97
32.949
32.927
32.905
32.882
32.858
32.836
32.817
32.801
32.791
32.788
32.794
32.81
32.84
32.884
32.946
33.026
33.124
33.238
33.368
33.514
33.673
33.845
34.03
34.226
34.433
34.648
34.868
35.09
35.314
35.537
35.759
35.979
36.194
36.405
36.611
36.809
36.997
37.174
37.338
37.489
37.623
37.74
37.836
37.91
37.963
37.993
38.001
37.989
37.957
37.908
37.843
37.764
37.674
37.575
37.468
37.357
37.242
37.124
37.006
36.889
36.774
36.663
36.557
36.457
36.364
36.279
36.202
36.131
36.067
36.008
35.954
35.903
35.853
35.804
35.756
35.708
35.66
35.614
35.569
35.528
35.491
35.459
35.433
35.411
35.395
35.384
35.376
35.372
35.367
35.355
35.333
35.302
35.265
35.224
35.183
35.144
35.112
35.087
35.072
35.066
35.071
35.084
35.105
35.131
35.161
35.191
35.22
35.244
35.261
35.269
35.268
35.258
35.237
35.209
35.174
35.135
35.093
35.05
35.007
34.964
34.922
34.882
34.843
34.803
34.762
34.72
34.676
34.631
34.583
34.535
34.486
34.438
34.389
34.342
34.296
34.251
34.208
34.165
34.121
34.078
34.034
33.988
33.942
33.895
33.848
33.802
33.756
33.709
33.663
33.616
33.569
33.522
33.475
33.429
33.384
33.34
33.296
33.252
33.207
33.163
33.121
33.083
33.047
33.014
32.984
32.956
32.932
32.91
32.892
32.878
32.87
32.87
32.881
32.904
32.942
32.997
33.069
33.159
33.266
33.39
33.53
33.685
33.855
34.038
34.232
34.438
34.654
34.879
35.115
35.362
35.622
35.895
36.18
36.476
36.78
37.087
37.391
37.686
37.965
38.222
38.449
38.641
38.796
38.91
38.983
39.016
39.013
38.975
38.908
38.815
38.701
38.572
38.431
38.284
38.135
37.989
37.849
37.717
37.592
37.476
37.368
37.269
37.178
37.093
37.014
36.94
36.869
36.8
36.732
36.662
36.592
36.52
36.447
36.374
36.3
36.227
36.155
36.085
36.018
35.954
35.895
35.841
35.793
35.75
35.713
35.682
35.656
35.635
35.618
35.606
35.594
35.584
35.575
35.566
35.557
35.549
35.541
35.534
35.527
35.521
35.515
35.511
35.507
35.503
35.498
35.491
35.482
35.47
35.456
35.439
35.418
35.393
35.366
35.336
35.303
35.27
35.236
35.202
35.17
35.139
35.108
35.076
35.044
35.009
34.97
34.927
34.879
34.828
34.774
34.717
34.659
34.6
34.541
34.483
34.426
34.372
34.321
34.274
34.23
34.187
34.144
34.099
34.052
34.001
33.948
33.893
33.838
33.784
33.733
33.685
33.641
33.601
33.565
33.534
33.505
33.48
33.456
33.433
33.41
33.385
33.359
33.33
33.301
33.271
33.242
33.214
33.189
33.167
33.147
33.131
33.116
33.105
33.1
33.101
33.112
33.134
33.172
33.226
33.3
33.393
33.507
33.643
33.801
33.981
34.181
34.402
34.643
34.906
35.192
35.504
35.84
36.199
36.579
36.973
37.373
37.768
38.15
38.51
38.839
39.13
39.378
39.578
39.729
39.83
39.883
39.892
39.86
39.795
39.701
39.586
39.452
39.304
39.147
38.985
38.822
38.661
38.506
38.359
38.222
38.095
37.978
37.87
37.769
37.675
37.587
37.502
37.421
37.342
37.265
37.19
37.115
37.041
36.968
36.897
36.827
36.758
36.69
36.624
36.558
36.494
36.433
36.374
36.318
36.267
36.218
36.173
36.131
36.092
36.055
36.021
35.99
35.961
35.935
35.91
35.888
35.866
35.846
35.827
35.811
35.796
35.783
35.769
35.756
35.744
35.732
35.721
35.709
35.696
35.682
35.667
35.65
35.63
35.607
35.582
35.556
35.527
35.496
35.456
35.402
35.336
35.26
35.179
35.098
35.02
34.948
34.883
34.828
34.782
34.745
34.717
34.696
34.679
34.665
34.652
34.638
34.623
34.604
34.581
34.554
34.524
34.49
34.453
34.412
34.367
34.318
34.265
34.209
34.151
34.091
34.031
33.973
33.916
33.861
33.809
33.761
33.715
33.672
33.631
33.592
33.555
33.519
33.483
33.448
33.411
33.376
33.34
33.305
33.272
33.239
33.209
33.18
33.153
33.126
33.1
33.078
33.059
33.045
33.039
33.044
33.062
33.095
33.147
33.219
33.312
33.429
33.569
33.732
33.918
34.127
34.358
34.61
34.884
35.182
35.507
35.859
36.236
36.633
37.043
37.458
37.868
38.263
38.634
38.97
39.264
39.511
39.708
39.852
39.946
39.991
39.992
39.954
39.884
39.786
39.666
39.528
39.38
39.224
39.064
38.903
38.744
38.591
38.444
38.306
38.176
38.055
37.943
37.839
37.743
37.653
37.569
37.488
37.411
37.336
37.262
37.19
37.118
37.047
36.976
36.903
36.829
36.754
36.679
36.604
36.531
36.462
36.397
36.338
36.284
36.236
36.193
36.154
36.118
36.086
36.057
36.032
36.01
35.99
35.973
35.958
35.944
35.93
35.916
35.901
35.886
35.87
35.853
35.835
35.816
35.795
35.772
35.746
35.718
35.687
35.653
35.62
35.588
35.558
35.53
35.505
35.479
35.454
35.427
35.398
35.368
35.334
35.299
35.262
35.222
35.18
35.134
35.087
35.038
34.989
34.938
34.887
34.836
34.784
34.732
34.679
34.626
34.572
34.517
34.462
34.405
34.348
34.29
34.233
34.177
34.122
34.068
34.014
33.961
33.91
33.859
33.81
33.763
33.718
33.676
33.634
33.592
33.55
33.509
33.47
33.432
33.395
33.359
33.324
33.293
33.262
33.231
33.198
33.164
33.13
33.094
33.057
33.019
32.982
32.946
32.911
32.877
32.846
32.82
32.799
32.786
32.783
32.792
32.814
32.852
32.908
32.981
33.075
33.192
33.333
33.497
33.683
33.892
34.124
34.378
34.657
34.962
35.295
35.655
36.041
36.446
36.864
37.285
37.701
38.099
38.472
38.809
39.103
39.349
39.544
39.686
39.775
39.815
39.808
39.761
39.679
39.567
39.431
39.278
39.112
38.939
38.763
38.59
38.422
38.263
38.115
37.978
37.853
37.74
37.638
37.547
37.465
37.389
37.319
37.252
37.187
37.121
37.051
36.977
36.898
36.815
36.727
36.636
36.543
36.45
36.361
36.275
36.196
36.125
36.063
36.01
35.966
35.932
35.905
35.884
35.869
35.857
35.846
35.836
35.824
35.811
35.795
35.776
35.754
35.73
35.705
35.681
35.659
35.639
35.621
35.605
35.592
35.58
35.568
35.555
35.542
35.528
35.511
35.491
35.466
35.436
35.402
35.363
35.32
35.276
35.23
35.184
35.137
35.092
35.047
35.004
34.962
34.92
34.877
34.834
34.789
34.743
34.696
34.647
34.598
34.549
34.498
34.446
34.393
34.339
34.285
34.232
34.179
34.129
34.08
34.034
33.988
33.944
33.901
33.859
33.818
33.779
33.739
33.7
33.659
33.617
33.575
33.532
33.489
33.448
33.408
33.368
33.33
33.292
33.256
33.22
33.186
33.152
33.117
33.082
33.046
33.01
32.973
32.934
32.896
32.857
32.818
32.779
32.744
32.711
32.684
32.662
32.644
32.633
32.628
32.633
32.649
32.679
32.724
32.785
32.865
32.963
33.079
33.215
33.371
33.547
33.741
33.954
34.185
34.436
34.707
35.001
35.317
35.654
36.01
36.38
36.756
37.131
37.495
37.841
38.162
38.45
38.698
38.903
39.06
39.168
39.229
39.246
39.221
39.161
39.071
38.959
38.829
38.686
38.537
38.385
38.234
38.086
37.944
37.808
37.681
37.562
37.452
37.349
37.254
37.164
37.08
37.0
36.923
36.847
36.773
36.701
36.63
36.562
36.496
36.433
36.371
36.311
36.252
36.193
36.134
36.076
36.019
35.962
35.907
35.854
35.802
35.755
35.71
35.67
35.633
35.602
35.576
35.556
35.54
35.528
35.521
35.516
35.513
35.51
35.504
35.495
35.483
35.465
35.443
35.417
35.387
35.353
35.315
35.274
35.232
35.19
35.15
35.112
35.076
35.043
35.011
34.982
34.953
34.923
34.891
34.856
34.818
34.777
34.733
34.687
34.641
34.595
34.549
34.503
34.457
34.411
34.366
34.32
34.275
34.228
34.182
34.134
34.086
34.037
33.988
33.938
33.889
33.84
33.793
33.748
33.707
33.669
33.633
33.6
33.568
33.535
33.503
33.471
33.438
33.404
33.37
33.335
33.298
33.261
33.221
33.182
33.142
33.104
33.065
33.026
32.986
32.946
32.906
32.867
32.829
32.794
32.76
32.729
32.699
32.671
32.644
32.62
32.599
32.58
32.565
32.554
32.547
32.548
32.556
32.575
32.606
32.653
32.718
32.8
32.902
33.023
33.164
33.324
33.501
33.693
33.899
34.118
34.348
34.59
34.845
35.112
35.392
35.685
35.986
36.293
36.602
36.906
37.201
37.48
37.737
37.967
38.165
38.328
38.452
38.537
38.584
38.595
38.574
38.524
38.449
38.352
38.24
38.115
37.984
37.848
37.713
37.581
37.454
37.332
37.217
37.107
37.004
36.907
36.815
36.729
36.646
36.567
36.49
36.415
36.341
36.269
36.198
36.129
36.062
35.995
35.928
35.862
35.797
35.736
35.678
35.625
35.575
35.53
35.489
35.451
35.414
35.38
35.349
35.321
35.297
35.275
35.256
35.241
35.23
35.223
35.22
35.22
35.222
35.226
35.23
35.233
35.234
35.233
35.228
35.22
35.207
35.19
35.169
35.145
35.119
35.091
35.063
35.035
35.009
34.984
34.958
34.933
34.908
34.882
34.855
34.826
34.795
34.76
34.723
34.682
34.639
34.592
34.544
34.494
34.445
34.396
34.349
34.304
34.261
34.22
34.181
34.141
34.1
34.058
34.013
33.966
33.917
33.868
33.819
33.77
33.723
33.676
33.632
33.592
33.554
33.518
33.483
33.448
33.412
33.374
33.333
33.288
33.24
33.191
33.142
33.095
33.049
33.005
32.964
32.927
32.891
32.856
32.823
32.791
32.76
32.731
32.702
32.673
32.646
32.621
32.598
32.578
32.562
32.552
32.547
32.55
32.561
32.583
32.617
32.663
32.723
32.798
32.89
33.001
33.131
33.279
33.444
33.626
33.823
34.032
34.251
34.478
34.712
34.949
35.189
35.431
35.673
35.915
36.157
36.397
36.633
36.865
37.091
37.307
37.51
37.695
37.859
38.0
38.113
38.198
38.254
38.279
38.276
38.246
38.191
38.113
38.017
37.907
37.788
37.663
37.536
37.409
37.282
37.158
37.039
36.924
36.816
36.714
36.618
36.529
36.445
36.364
36.287
36.212
36.138
36.066
35.994
35.921
35.848
35.776
35.705
35.636
35.57
35.508
35.451
35.4
35.353
35.31
35.273
35.24
35.213
35.192
35.174
35.162
35.154
35.149
35.148
35.149
35.154
35.161
35.17
35.18
35.19
35.199
35.206
35.212
35.215
35.216
35.213
35.209
35.201
35.19
35.175
35.156
35.132
35.103
35.07
35.033
34.995
34.957
34.919
34.883
34.846
34.81
34.772
34.734
34.695
34.655
34.615
34.573
34.531
34.486
34.44
34.391
34.342
34.292
34.243
34.195
34.147
34.101
34.055
34.01
33.965
33.919
33.873
33.826
33.778
33.729
33.68
33.632
33.585
33.54
33.496
33.454
33.415
33.378
33.342
33.307
33.272
33.237
33.202
33.165
33.127
33.088
33.049
33.012
32.976
32.944
32.913
32.884
32.858
32.834
32.81
32.787
32.765
32.743
32.721
32.699
32.679
32.663
32.656
32.66
32.679
32.723
32.796
32.9
33.033
33.189
33.364
33.554
33.753
33.96
34.171
34.386
34.604
34.826
35.052
35.286
35.529
35.783
36.052
36.336
36.634
36.941
37.254
37.566
37.869
38.156
38.419
38.652
38.847
39.002
39.114
39.182
39.209
39.196
39.147
39.066
38.958
38.83
38.686
38.533
38.373
38.213
38.055
37.904
37.762
37.631
37.51
37.401
37.301
37.211
37.128
37.049
36.973
36.899
36.826
36.752
36.675
36.595
36.511
36.425
36.336
36.247
36.157
36.07
35.987
35.908
35.834
35.766
35.705
35.652
35.607
35.571
35.542
35.521
35.507
35.498
35.495
35.495
35.499
35.504
35.511
35.515
35.518
35.518
35.515
35.511
35.505
35.498
35.49
35.48
35.467
35.451
35.431
35.408
35.383
35.357
35.329
35.299
35.269
35.237
35.204
35.17
35.135
35.098
35.059
35.018
34.977
34.934
34.89
34.848
34.805
34.762
34.717
34.672
34.624
34.576
34.528
34.481
34.434
34.388
34.343
34.298
34.251
34.205
34.158
34.111
34.065
34.018
33.971
33.924
33.877
33.83
33.785
33.74
33.698
33.657
33.617
33.577
33.537
33.496
33.455
33.413
33.371
33.33
33.289
33.249
33.211
33.174
33.138
33.105
33.072
33.04
33.008
32.977
32.947
32.916
32.886
32.855
32.825
32.796
32.77
32.748
32.734
32.732
32.745
32.775
32.825
32.895
32.986
33.099
33.233
33.389
33.565
33.761
33.975
34.206
34.455
34.722
35.008
35.314
35.64
35.987
36.352
36.731
37.117
37.503
37.881
38.24
38.573
38.871
39.129
39.342
39.506
39.619
39.684
39.703
39.68
39.618
39.524
39.403
39.261
39.105
38.94
38.77
38.602
38.44
38.287
38.145
38.016
37.901
37.798
37.705
37.621
37.542
37.467
37.393
37.32
37.246
37.169
37.09
37.006
36.921
36.832
36.742
36.652
36.561
36.473
36.387
36.305
36.229
36.159
36.097
36.041
35.994
35.952
35.916
35.885
35.858
35.834
35.812
35.792
35.775
35.759
35.743
35.728
35.713
35.7
35.688
35.679
35.672
35.668
35.666
35.666
35.666
35.664
35.66
35.652
35.642
35.628
35.61
35.588
35.563
35.536
35.508
35.478
35.447
35.415
35.382
35.346
35.307
35.266
35.223
35.179
35.134
35.089
35.043
34.995
34.945
34.894
34.841
34.787
34.732
34.676
34.619
34.561
34.502
34.442
34.383
34.325
34.269
34.215
34.162
34.112
34.063
34.016
33.971
33.928
33.887
33.847
33.808
33.769
33.731
33.693
33.655
33.617
33.579
33.539
33.498
33.456
33.413
33.369
33.325
33.281
33.236
33.191
33.145
33.1
33.055
33.012
32.97
32.93
32.893
32.856
32.821
32.788
32.758
32.732
32.713
32.703
32.702
32.715
32.744
32.793
32.862
32.955
33.071
33.211
33.374
33.557
33.759
33.977
34.211
34.458
34.717
34.988
35.269
35.561
35.865
36.18
36.503
36.833
37.164
37.49
37.806
38.103
38.374
38.614
38.818
38.984
39.108
39.193
39.238
39.248
39.224
39.172
39.093
38.994
38.879
38.753
38.619
38.48
38.341
38.205
38.074
37.951
37.835
37.728
37.63
37.539
37.456
37.377
37.303
37.231
37.16
37.09
37.018
36.944
36.868
36.792
36.715
36.637
36.56
36.486
36.416
36.351
36.292
36.239
36.194
36.155
36.123
36.096
36.075
36.057
36.042
36.029
36.017
36.004
35.991
35.975
35.958
35.937
35.913
35.886
35.859
35.832
35.807
35.785
35.767
35.753
35.743
35.735
35.728
35.721
35.712
35.702
35.687
35.667
35.641
35.609
35.571
35.529
35.482
35.433
35.382
35.332
35.283
35.237
35.194
35.155
35.117
35.081
35.044
35.007
34.97
34.931
34.891
34.848
34.804
34.759
34.713
34.666
34.619
34.573
34.528
34.483
34.44
34.396
34.352
34.307
34.262
34.215
34.166
34.115
34.062
34.009
33.956
33.904
33.852
33.801
33.752
33.703
33.655
33.609
33.564
33.522
33.481
33.442
33.403
33.363
33.323
33.283
33.242
33.201
33.16
33.121
33.082
33.045
33.008
32.973
32.941
32.911
32.884
32.86
32.84
32.824
32.814
32.81
32.815
32.83
32.858
32.901
32.96
33.039
33.139
33.262
33.406
33.571
33.756
33.96
34.183
34.426
34.688
34.972
35.279
35.609
35.961
36.333
36.72
37.113
37.506
37.891
38.257
38.597
38.901
39.165
39.383
39.551
39.67
39.741
39.767
39.753
39.701
39.618
39.508
39.377
39.232
39.078
38.92
38.762
38.609
38.463
38.326
38.196
38.075
37.962
37.856
37.756
37.661
37.571
37.483
37.398
37.314
37.23
37.145
37.06
36.975
36.89
36.804
36.719
36.634
36.553
36.476
36.405
36.338
36.278
36.225
36.178
36.136
36.1
36.067
36.039
36.014
35.992
35.972
35.953
35.934
35.915
35.896
35.876
35.857
35.84
35.825
35.813
35.804
35.797
35.792
35.788
35.783
35.777
35.767
35.754
35.737
35.716
35.69
35.659
35.624
35.585
35.544
35.501
35.456
35.413
35.371
35.332
35.295
35.26
35.227
35.193
35.159
35.123
35.085
35.045
35.002
34.958
34.913
34.867
34.821
34.777
34.734
34.69
34.647
34.604
34.561
34.517
34.471
34.422
34.371
34.315
34.254
34.189
34.12
34.048
33.975
33.903
33.833
33.766
33.704
33.646
33.594
33.546
33.503
33.465
33.43
33.397
33.364
33.331
33.296
33.259
33.221
33.181
33.14
33.099
33.059
33.02
32.983
32.946
32.911
32.877
32.844
32.811
32.779
32.75
32.724
32.701
32.684
32.673
32.669
32.674
32.692
32.723
32.771
32.837
32.922
33.027
33.151
33.296
33.46
33.646
