Trial 1:0back
42.113
41.953
41.793
41.634
41.479
41.327
41.179
41.034
40.894
40.757
40.623
40.492
40.361
40.231
40.1
39.968
39.835
39.699
39.56
39.418
39.275
39.129
38.984
38.84
38.699
38.563
38.433
38.313
38.203
38.105
38.021
37.95
37.895
37.855
37.829
37.817
37.818
37.832
37.856
37.89
37.931
37.978
38.03
38.084
38.14
38.195
38.25
38.303
38.352
38.397
38.437
38.472
38.502
38.525
38.541
38.55
38.552
38.547
38.535
38.517
38.491
38.457
38.416
38.366
38.308
38.242
38.168
38.087
37.998
37.904
37.805
37.702
37.596
37.488
37.38
37.271
37.162
37.053
36.945
36.837
36.729
36.621
36.513
36.405
36.296
36.188
36.079
35.971
35.862
35.755
35.649
35.544
35.441
35.339
35.238
35.139
35.04
34.942
34.844
34.748
34.653
34.56
34.469
34.381
34.296
34.215
34.137
34.064
33.994
33.928
33.865
33.804
33.747
33.691
33.638
33.588
33.539
33.492
33.447
33.403
33.362
33.323
33.285
33.249
33.214
33.18
33.146
33.113
33.08
33.047
33.014
32.982
32.95
32.919
32.888
32.858
32.829
32.802
32.775
32.75
32.726
32.703
32.681
32.66
32.639
32.618
32.599
32.58
32.562
32.544
32.527
32.509
32.492
32.474
32.455
32.437
32.418
32.399
32.38
32.361
32.34
32.319
32.297
32.273
32.249
32.223
32.197
32.17
32.142
32.113
32.083
32.051
32.019
31.986
31.953
31.92
31.887
31.854
31.821
31.788
31.754
31.721
31.687
31.653
31.619
31.586
31.553
31.521
31.49
31.459
31.427
31.396
31.363
31.33
31.296
31.262
31.228
31.194
31.16
31.126
31.093
31.061
31.029
30.997
30.966
30.936
30.907
30.879
30.853
30.828
30.804
30.781
30.759
30.737
30.715
30.693
30.67
30.645
30.619
30.592
30.563
30.533
30.502
30.469
30.434
30.399
30.362
30.325
30.288
30.252
30.218
30.185
30.156
30.13
30.109
30.093
30.085
30.086
30.099
30.128
30.177
30.254
30.363
30.51
30.703
30.945
31.241
31.592
31.999
32.459
32.97
33.524
34.117
34.738
35.381
36.035
36.691
37.343
37.981
38.599
39.191
39.753
40.279
40.767
41.216
41.622
41.986
42.307
42.586
42.825
43.024
43.186
43.312
43.405
43.467
43.501
43.509
43.493
43.455
43.397
43.322
43.23
43.125
43.006
42.877
42.738
42.59
42.434
42.273
42.107
41.937
41.764
41.59
41.415
41.24
41.067
40.895
40.726
40.56
40.396
40.234
40.075
39.917
39.762
39.607
39.453
39.3
39.147
38.995
38.844
38.694
38.546
38.4
38.26
38.125
37.998
37.881
37.774
37.681
37.6
37.535
37.483
37.447
37.424
37.416
37.422
37.441
37.472
37.514
37.566
37.626
37.694
37.766
37.843
37.921
38.001
38.079
38.155
38.228
38.297
38.358
38.413
38.458
38.495
38.523
38.542
38.551
38.55
38.541
38.523
38.497
38.462
38.42
38.371
38.315
38.252
38.184
38.111
38.034
37.952
37.865
37.774
37.678
37.578
37.476
37.37
37.262
37.153
37.043
36.932
36.822
36.712
36.603
36.494
36.384
36.275
36.166
36.056
35.947
35.837
35.727
35.617
35.507
35.398
35.289
35.182
35.076
34.974
34.874
34.778
34.685
34.596
34.51
34.428
34.349
34.273
34.2
34.13
34.063
33.998
33.936
33.875
33.817
33.76
33.705
33.653
33.602
33.555
33.51
33.467
33.427
33.39
33.354
33.321
33.289
33.259
33.229
33.199
33.168
33.137
33.105
33.073
33.04
33.008
32.976
32.946
32.916
32.887
32.86
32.836
32.815
32.795
32.778
32.761
32.746
32.733
32.719
32.706
32.692
32.678
32.664
32.649
32.634
32.619
32.604
32.589
32.573
32.558
32.541
32.524
32.506
32.486
32.464
32.44
32.414
32.386
32.357
32.327
32.296
32.265
32.234
32.203
32.172
32.142
32.111
32.082
32.053
32.024
31.995
31.966
31.937
31.908
31.878
31.847
31.814
31.781
31.747
31.712
31.677
31.641
31.606
31.571
31.535
31.5
31.465
31.429
31.392
31.353
31.313
31.27
31.225
31.178
31.129
31.079
31.028
30.976
30.925
30.875
30.825
30.777
30.73
30.686
30.644
30.606
30.571
30.542
30.521
30.509
30.509
30.525
30.561
30.625
30.722
30.858
31.039
31.269
31.552
31.89
32.282
32.727
33.219
33.754
34.324
34.923
35.541
36.169
36.799
37.423
38.035
38.626
39.191
39.725
40.225
40.687
41.109
41.491
41.832
42.132
42.393
42.614
42.799
42.949
43.066
43.151
43.208
43.237
43.242
43.224
43.184
43.126
43.049
42.957
42.85
42.731
42.6
42.458
42.308
42.151
41.988
41.821
41.651
41.48
41.308
41.137
40.968
40.802
40.639
40.479
40.323
40.171
40.023
39.877
39.734
39.591
39.448
39.304
39.157
39.008
38.857
38.702
38.547
38.39
38.235
38.083
37.936
37.797
37.667
37.55
37.445
37.355
37.28
37.22
37.177
37.149
37.136
37.139
37.154
37.181
37.219
37.265
37.32
37.381
37.447
37.516
37.587
37.657
37.727
37.794
37.858
37.918
37.972
38.02
38.061
38.093
38.117
38.132
38.137
38.133
38.119
38.094
38.06
38.016
37.963
37.901
37.832
37.756
37.675
37.588
37.497
37.402
37.303
37.202
37.098
36.993
36.886
36.779
36.672
36.565
36.458
36.352
36.245
36.14
36.034
35.929
35.825
35.722
35.619
35.516
35.412
35.308
35.203
35.097
34.991
34.885
34.779
34.676
34.574
34.476
34.381
34.29
34.203
34.118
34.038
33.96
33.884
33.811
33.739
33.669
33.601
33.536
33.474
33.415
33.359
33.306
33.257
33.211
33.168
33.127
33.088
33.05
33.013
32.978
32.945
32.912
32.882
32.853
32.826
32.801
32.776
32.751
32.726
32.701
32.674
32.648
32.621
32.594
32.567
32.54
32.514
32.488
32.463
32.439
32.415
32.391
32.368
32.345
32.323
32.301
32.281
32.261
32.243
32.225
32.207
32.191
32.175
32.16
32.145
32.13
32.114
32.099
32.084
32.068
32.051
32.033
32.014
31.994
31.973
31.95
31.924
31.898
31.871
31.842
31.813
31.783
31.752
31.721
31.689
31.658
31.627
31.597
31.567
31.537
31.507
31.477
31.447
31.417
31.386
31.355
31.323
31.29
31.256
31.221
31.185
31.149
31.112
31.076
31.041
31.006
30.972
30.939
30.908
30.877
30.849
30.822
30.796
30.772
30.748
30.725
30.702
30.678
30.652
30.626
30.597
30.567
30.536
30.504
30.471
30.438
30.404
30.369
30.334
30.299
30.264
30.229
30.195
30.162
30.13
30.102
30.076
30.056
30.043
30.037
30.044
30.065
30.107
30.174
30.273
30.412
30.596
30.831
31.123
31.475
31.886
32.355
32.879
33.452
34.066
34.714
35.386
36.073
36.765
37.453
38.129
38.786
39.415
40.012
40.572
41.089
41.563
41.992
42.375
42.714
43.01
43.263
43.476
43.65
43.787
43.89
43.961
44.003
44.018
44.008
43.975
43.92
43.845
43.753
43.645
43.523
43.388
43.242
43.087
42.923
42.754
42.58
42.402
42.224
42.045
41.866
41.69
41.516
41.345
41.179
41.018
40.862
40.711
40.564
40.42
40.279
40.14
40.002
39.864
39.726
39.586
39.445
39.304
39.161
39.02
38.88
38.744
38.613
38.488
38.371
38.263
38.166
38.081
38.008
37.948
37.901
37.867
37.846
37.837
37.839
37.853
37.876
37.909
37.949
37.997
38.05
38.108
38.169
38.231
38.292
38.351
38.407
38.458
38.504
38.545
38.578
38.604
38.62
38.628
38.626
38.614
38.593
38.562
38.523
38.476
38.422
38.36
38.292
38.219
38.141
38.058
37.972
37.881
37.787
37.69
37.589
37.487
37.381
37.273
37.163
37.052
36.939
36.825
36.711
36.597
36.483
36.37
36.257
36.145
36.033
35.922
35.812
35.703
35.593
35.484
35.376
35.268
35.162
35.058
34.956
34.857
34.761
34.667
34.576
34.489
34.404
34.322
34.242
34.164
34.089
34.016
33.946
33.879
33.814
33.753
33.695
33.64
33.588
33.538
33.491
33.446
33.402
33.359
33.317
33.275
33.235
33.195
33.157
33.12
33.084
33.049
33.014
32.98
32.947
32.915
32.885
32.855
32.827
32.8
32.775
32.751
32.727
32.705
32.682
32.66
32.637
32.614
32.59
32.566
32.543
32.519
32.495
32.473
32.451
32.43
32.41
32.391
32.373
32.355
32.336
32.317
32.297
32.277
32.255
32.232
32.209
32.185
32.161
32.136
32.111
32.086
32.06
32.033
32.005
31.975
31.945
31.913
31.881
31.848
31.814
31.78
31.746
31.713
31.679
31.646
31.614
31.582
31.55
31.52
31.491
31.462
31.432
31.402
31.372
31.341
31.31
31.279
31.247
31.216
31.185
31.155
31.126
31.097
31.069
31.043
31.017
30.991
30.965
30.938
30.911
30.882
30.853
30.821
30.788
30.753
30.717
30.68
30.641
30.602
30.562
30.522
30.482
30.443
30.403
30.364
30.325
30.288
30.251
30.215
30.181
30.148
30.119
30.094
30.075
30.066
30.069
30.088
30.129
30.197
30.3
30.443
30.633
30.875
31.172
31.526
31.938
32.406
32.924
33.489
34.091
34.723
35.376
36.041
36.708
37.368
38.014
38.638
39.235
39.8
40.328
40.817
41.265
41.671
42.034
42.354
42.633
42.872
43.071
43.232
43.358
43.451
43.514
43.547
43.554
43.537
43.498
43.44
43.364
43.272
43.166
43.047
42.917
42.777
42.628
42.472
42.309
42.141
41.967
41.79
41.611
41.43
41.249
41.069
40.89
40.713
40.539
40.368
40.2
40.037
39.876
39.718
39.562
39.407
39.253
39.099
38.946
38.792
38.638
38.485
38.334
38.188
38.046
37.913
37.788
37.675
37.574
37.488
37.418
37.364
37.327
37.307
37.303
37.314
37.339
37.376
37.425
37.482
37.545
37.614
37.685
37.759
37.833
37.907
37.978
38.046
38.111
38.17
38.222
38.269
38.308
38.34
38.363
38.379
38.386
38.386
38.377
38.36
38.334
38.301
38.26
38.211
38.154
38.091
38.02
37.943
37.86
37.772
37.68
37.583
37.482
37.378
37.272
37.165
37.056
36.946
36.836
36.726
36.615
36.505
36.395
36.285
36.176
36.067
35.959
35.852
35.746
35.642
35.539
35.438
35.339
35.242
35.147
35.055
34.964
34.875
34.788
34.702
34.617
34.535
34.454
34.375
34.299
34.225
34.154
34.086
34.021
33.958
33.899
33.842
33.787
33.736
33.688
33.643
33.6
33.56
33.521
33.484
33.449
33.414
33.38
33.345
33.311
33.277
33.244
33.211
33.179
33.146
33.115
33.084
33.055
33.027
33.0
32.975
32.95
32.926
32.902
32.878
32.854
32.83
32.806
32.782
32.758
32.734
32.712
32.691
32.671
32.651
32.633
32.615
32.598
32.58
32.562
32.543
32.524
32.505
32.486
32.466
32.447
32.427
32.406
32.384
32.361
32.337
32.312
32.287
32.262
32.237
32.212
32.187
32.161
32.136
32.11
32.084
32.058
32.031
32.004
31.976
31.947
31.917
31.885
31.853
31.82
31.785
31.75
31.713
31.676
31.637
31.596
31.554
31.511
31.467
31.421
31.373
31.322
31.269
31.214
31.158
31.101
31.044
30.988
30.935
30.884
30.837
30.793
30.754
30.72
30.692
30.672
30.662
30.666
30.688
30.734
30.81
30.921
31.072
31.269
31.514
31.811
32.158
32.555
32.999
33.483
34.002
34.549
35.116
35.695
36.279
36.858
37.428
37.981
38.512
39.017
39.49
39.93
40.335
40.701
41.031
41.322
41.576
41.794
41.977
42.126
42.243
42.331
42.39
42.423
42.431
42.417
42.382
42.328
42.257
42.17
42.069
41.956
41.831
41.697
41.555
41.405
41.251
41.092
40.929
40.763
40.596
40.429
40.261
40.095
39.929
39.765
39.602
39.441
39.282
39.125
38.969
38.814
38.659
38.504
38.35
38.195
38.042
37.89
37.74
37.594
37.453
37.319
37.192
37.075
36.968
36.873
36.79
36.721
36.665
36.622
36.593
36.576
36.572
36.581
36.6
36.629
36.667
36.711
36.762
36.818
36.877
36.939
37.002
37.064
37.126
37.185
37.241
37.293
37.34
37.382
37.419
37.449
37.473
37.49
37.501
37.504
37.499
37.487
37.468
37.441
37.407
37.367
37.319
37.265
37.203
37.136
37.062
36.982
36.897
36.807
36.713
36.615
36.513
36.409
36.303
36.196
36.087
35.977
35.866
35.754
35.642
35.53
35.418
35.306
35.196
35.086
34.978
34.871
34.765
34.659
34.555
34.453
34.352
34.254
34.158
34.064
33.974
33.887
33.804
33.723
33.646
33.572
33.501
33.434
33.369
33.307
33.248
33.192
33.139
33.089
33.041
32.996
32.954
32.913
32.874
32.837
32.801
32.767
32.734
32.703
32.675
32.647
32.62
32.595
32.57
32.546
32.522
32.498
32.474
32.449
32.425
32.401
32.378
32.356
32.335
32.315
32.296
32.278
32.261
32.244
32.227
32.211
32.195
32.18
32.166
32.152
32.138
32.124
32.11
32.097
32.083
32.069
32.055
32.04
32.024
32.008
31.991
31.973
31.954
31.936
31.917
31.898
31.879
31.859
31.838
31.816
31.793
31.767
31.741
31.713
31.684
31.654
31.624
31.594
31.564
31.534
31.505
31.477
31.449
31.422
31.396
31.369
31.343
31.317
31.291
31.264
31.238
31.21
31.183
31.155
31.128
31.101
31.073
31.047
31.021
30.995
30.969
30.943
30.918
30.892
30.866
30.838
30.81
30.78
30.748
30.716
30.682
30.647
30.612
30.576
30.541
30.506
30.471
30.437
30.405
30.373
30.344
30.317
30.294
30.277
30.268
30.269
30.284
30.317
30.373
30.459
30.58
30.742
30.95
31.209
31.521
31.887
32.304
32.771
33.282
33.83
34.407
35.007
35.619
36.236
36.851
37.456
38.045
38.611
39.15
39.658
40.132
40.571
40.973
41.337
41.664
41.954
42.206
42.422
42.604
42.752
42.869
42.956
43.015
43.048
43.057
43.044
43.009
42.954
42.882
42.795
42.694
42.582
42.459
42.328
42.19
42.046
41.897
41.745
41.592
41.437
41.282
41.128
40.976
40.826
40.68
40.537
40.398
40.263
40.132
40.003
39.877
39.751
39.625
39.498
39.368
39.237
39.104
38.97
38.835
38.701
38.569
38.441
38.317
38.2
38.092
37.994
37.907
37.833
37.771
37.723
37.688
37.666
37.655
37.656
37.667
37.688
37.717
37.754
37.796
37.843
37.893
37.947
38.001
38.056
38.109
38.159
38.205
38.246
38.281
38.309
38.328
38.34
38.343
38.339
38.327
38.308
38.282
38.249
38.21
38.166
38.117
38.062
38.003
37.938
37.868
37.793
37.713
37.629
37.542
37.452
37.359
37.263
37.165
37.065
36.963
36.861
36.757
36.653
36.549
36.445
36.342
36.239
36.137
36.036
35.935
35.834
35.732
35.63
35.527
35.424
35.321
35.218
35.117
35.018
34.922
34.829
34.739
34.652
34.569
34.488
34.411
34.337
34.267
34.201
34.138
34.077
34.02
33.964
33.911
33.859
33.809
33.761
33.714
33.669
33.626
33.585
33.546
33.508
33.471
33.436
33.402
33.37
33.339
33.311
33.284
33.259
33.235
33.212
33.189
33.166
33.143
33.12
33.096
33.072
33.048
33.024
32.999
32.975
32.951
32.928
32.905
32.883
32.861
32.839
32.818
32.797
32.777
32.756
32.735
32.713
32.691
32.668
32.644
32.62
32.596
32.573
32.549
32.526
32.504
32.481
32.458
32.435
32.411
32.386
32.361
32.335
32.307
32.279
32.249
32.217
32.185
32.151
32.116
32.08
32.043
32.005
31.967
31.929
31.89
31.852
31.813
31.775
31.737
31.699
31.662
31.626
31.592
31.559
31.527
31.497
31.469
31.441
31.414
31.388
31.364
31.339
31.315
31.291
31.266
31.241
31.215
31.189
31.162
31.133
31.103
31.072
31.04
31.007
30.973
30.939
30.904
30.87
30.835
30.8
30.765
30.73
30.695
30.66
30.627
30.596
30.568
30.542
30.521
30.504
30.493
30.489
30.494
30.509
30.539
30.586
30.656
30.755
30.889
31.063
31.281
31.547
31.863
32.228
32.641
33.098
33.593
34.119
34.67
35.238
35.816
36.395
36.969
37.533
38.079
38.602
39.098
39.564
39.997
40.395
40.758
41.085
41.376
41.631
41.85
42.037
42.19
42.314
42.409
42.477
42.521
42.541
42.541
42.52
42.482
42.426
42.355
42.269
42.171
42.06
41.94
41.81
41.673
41.53
41.382
41.23
41.077
40.923
40.772
40.622
40.476
40.333
40.194
40.058
39.925
39.795
39.667
39.542
39.418
39.294
39.169
39.045
38.919
38.792
38.663
38.534
38.406
38.279
38.155
38.036
37.922
37.816
37.718
37.629
37.552
37.487
37.435
37.396
37.371
37.359
37.359
37.372
37.396
37.43
37.472
37.52
37.574
37.632
37.692
37.753
37.813
37.871
37.926
37.976
38.02
38.057
38.087
38.109
38.124
38.131
38.13
38.123
38.108
38.088
38.061
38.028
37.99
37.947
37.9
37.847
37.79
37.728
37.661
37.59
37.513
37.432
37.346
37.257
37.164
37.068
36.971
36.872
36.772
36.672
36.571
36.47
36.369
36.268
36.167
36.065
35.963
35.859
35.755
35.649
35.543
35.435
35.329
35.223
35.119
35.017
34.92
34.826
34.736
34.65
34.568
34.49
34.414
34.342
34.272
34.204
34.138
34.075
34.014
33.956
33.9
33.848
33.798
33.751
33.707
33.666
33.627
33.589
33.554
33.52
33.488
33.457
33.428
33.401
33.376
33.351
33.328
33.305
33.284
33.262
33.24
33.218
33.195
33.173
33.15
33.129
33.108
33.089
33.07
33.053
33.036
33.02
33.003
32.986
32.968
32.95
32.931
32.912
32.892
32.871
32.849
32.828
32.806
32.785
32.763
32.742
32.719
32.696
32.672
32.647
32.621
32.594
32.567
32.538
32.509
32.48
32.451
32.421
32.392
32.363
32.335
32.306
32.278
32.25
32.222
32.195
32.168
32.142
32.117
32.093
32.068
32.044
32.019
31.994
31.967
31.939
31.909
31.877
31.844
31.809
31.772
31.735
31.696
31.657
31.617
31.577
31.535
31.494
31.451
31.408
31.365
31.321
31.279
31.237
31.195
31.156
31.117
31.08
31.044
31.011
30.981
30.955
30.934
30.918
30.911
30.913
30.927
30.958
31.01
31.087
31.193
31.333
31.51
31.728
31.989
32.292
32.637
33.021
33.441
33.891
34.367
34.86
35.366
35.877
36.388
36.892
37.385
37.86
38.315
38.744
39.147
39.52
39.864
40.176
40.456
40.705
40.923
41.11
41.267
41.394
41.493
41.566
41.613
41.637
41.638
41.618
41.579
41.521
41.448
41.36
41.259
41.146
41.024
40.893
40.756
40.614
40.468
40.319
40.169
40.019
39.869
39.72
39.572
39.425
39.28
39.136
38.993
38.851
38.71
38.569
38.428
38.286
38.145
38.003
37.861
37.72
37.581
37.444
37.31
37.181
37.058
36.942
36.836
36.739
36.654
36.582
36.522
36.475
36.442
36.422
36.414
36.418
36.434
36.459
36.495
36.538
36.589
36.646
36.708
36.773
36.84
36.908
36.976
37.042
37.105
37.165
37.22
37.268
37.31
37.345
37.372
37.392
37.403
37.406
37.4
37.388
37.368
37.341
37.307
37.266
37.218
37.163
37.101
37.033
36.959
36.879
36.794
36.704
36.611
36.515
36.416
36.315
36.213
36.109
36.005
35.901
35.797
35.694
35.593
35.492
35.393
35.294
35.196
35.1
35.005
34.912
34.82
34.729
34.64
34.553
34.467
34.383
34.301
34.221
34.142
34.064
33.987
33.91
33.836
33.763
33.692
33.624
33.559
33.497
33.438
33.382
33.328
33.276
33.227
33.179
33.133
33.088
33.045
33.004
32.964
32.925
32.888
32.853
32.82
32.788
32.759
32.73
32.703
32.677
32.653
32.63
32.607
32.585
32.564
32.544
32.525
32.507
32.488
32.47
32.451
32.432
32.412
32.393
32.373
32.353
32.333
32.313
32.295
32.276
32.259
32.242
32.226
32.209
32.193
32.177
32.161
32.145
32.128
32.11
32.092
32.074
32.055
32.036
32.017
31.998
31.978
31.958
31.937
31.915
31.892
31.869
31.844
31.82
31.795
31.769
31.743
31.717
31.69
31.662
31.634
31.605
31.576
31.548
31.52
31.493
31.468
31.443
31.419
31.397
31.374
31.352
31.33
31.308
31.285
31.263
31.24
31.216
31.192
31.167
31.142
31.115
31.087
31.057
31.027
30.995
30.962
30.927
30.892
30.857
30.822
30.788
30.753
30.719
30.686
30.654
30.624
30.594
30.566
30.54
30.518
30.499
30.486
30.481
30.486
30.504
30.541
30.601
30.688
30.809
30.969
31.17
31.417
31.712
32.053
32.44
32.869
33.335
33.833
34.355
34.894
35.445
35.999
36.55
37.092
37.619
38.126
38.609
39.065
39.492
39.887
40.25
40.579
40.874
41.136
41.364
41.561
41.728
41.867
41.978
42.062
42.122
42.158
42.173
42.168
42.144
42.104
42.048
41.977
41.893
41.798
41.692
41.577
41.454
41.326
41.192
41.056
40.917
40.778
40.64
40.504
40.37
40.239
40.11
39.985
39.862
39.742
39.623
39.506
39.391
39.275
39.16
39.044
38.927
38.808
38.688
38.567
38.445
38.324
38.204
38.087
37.974
37.866
37.765
37.672
37.587
37.512
37.447
37.394
37.353
37.323
37.305
37.298
37.302
37.316
37.339
37.37
37.407
37.449
37.493
37.54
37.588
37.635
37.681
37.726
37.766
37.803
37.833
37.858
37.876
37.887
37.891
37.889
37.88
37.864
37.841
37.813
37.778
37.738
37.691
37.639
37.582
37.519
37.452
37.379
37.302
37.221
37.136
