Trial 1:0back
34.466
34.471
34.481
34.498
34.525
34.565
34.62
34.694
34.786
34.9
35.033
35.185
35.352
35.533
35.723
35.919
36.115
36.31
36.5
36.681
36.85
37.006
37.146
37.268
37.371
37.455
37.52
37.566
37.596
37.612
37.613
37.604
37.583
37.554
37.518
37.476
37.431
37.382
37.332
37.279
37.226
37.174
37.124
37.077
37.033
36.993
36.958
36.928
36.903
36.883
36.867
36.856
36.848
36.843
36.84
36.839
36.839
36.838
36.838
36.838
36.838
36.837
36.835
36.831
36.824
36.815
36.801
36.783
36.759
36.73
36.698
36.664
36.627
36.59
36.553
36.518
36.485
36.455
36.429
36.406
36.388
36.374
36.364
36.359
36.357
36.356
36.358
36.36
36.362
36.362
36.36
36.356
36.35
36.342
36.333
36.323
36.312
36.301
36.29
36.28
36.27
36.261
36.252
36.243
36.236
36.231
36.228
36.227
36.225
36.223
36.218
36.209
36.195
36.177
36.155
36.129
36.101
36.072
36.042
36.013
35.986
35.961
35.938
35.918
35.9
35.884
35.869
35.855
35.84
35.827
35.814
35.802
35.79
35.78
35.771
35.764
35.757
35.752
35.748
35.744
35.74
35.735
35.729
35.722
35.713
35.703
35.69
35.676
35.66
35.645
35.63
35.617
35.605
35.595
35.587
35.58
35.574
35.57
35.568
35.565
35.563
35.559
35.555
35.551
35.547
35.544
35.542
35.541
35.543
35.549
35.56
35.576
35.6
35.631
35.671
35.719
35.774
35.835
35.903
35.974
36.048
36.123
36.198
36.27
36.34
36.405
36.465
36.518
36.564
36.603
36.635
36.661
36.681
36.695
36.709
36.728
36.75
36.774
36.797
36.817
36.831
36.837
36.834
36.821
36.798
36.767
36.728
36.684
36.637
36.588
36.538
36.489
36.441
36.394
36.35
36.307
36.267
36.229
36.193
36.16
36.128
36.099
36.073
36.048
36.026
36.004
35.983
35.962
35.942
35.923
35.904
35.887
35.87
35.854
35.84
35.828
35.818
35.81
35.804
35.801
35.801
35.804
35.81
35.82
35.833
35.848
35.865
35.885
35.904
35.924
35.942
35.958
35.97
35.979
35.982
35.98
35.973
35.962
35.947
35.93
35.911
35.892
35.873
35.856
35.839
35.823
35.809
35.794
35.781
35.768
35.754
35.741
35.727
35.713
35.7
35.688
35.678
35.669
35.661
35.653
35.646
35.638
35.629
35.62
35.61
35.597
35.583
35.566
35.548
35.529
35.508
35.486
35.465
35.444
35.425
35.407
35.392
35.379
35.368
35.36
35.355
35.352
35.352
35.355
35.359
35.365
35.372
35.378
35.383
35.387
35.387
35.385
35.378
35.368
35.356
35.342
35.327
35.312
35.297
35.283
35.272
35.263
35.258
35.254
35.253
35.254
35.256
35.259
35.262
35.265
35.266
35.265
35.263
35.259
35.254
35.246
35.237
35.227
35.215
35.203
35.19
35.176
35.164
35.152
35.142
35.133
35.126
35.119
35.115
35.112
35.11
35.109
35.107
35.106
35.103
35.099
35.092
35.083
35.072
35.059
35.046
35.033
35.02
35.01
35.002
34.997
34.995
34.995
34.995
34.997
34.999
35.0
35.0
34.999
34.995
34.989
34.981
34.97
34.957
34.942
34.925
34.908
34.889
34.871
34.854
34.839
34.826
34.816
34.808
34.803
34.799
34.797
34.796
34.797
34.799
34.801
34.803
34.805
34.806
34.805
34.803
34.8
34.794
34.788
34.782
34.776
34.771
34.767
34.764
34.761
34.758
34.756
34.752
34.749
34.744
34.738
34.73
34.722
34.714
34.706
34.698
34.69
34.682
34.673
34.663
34.653
34.643
34.635
34.628
34.622
34.619
34.617
34.618
34.621
34.625
34.63
34.635
34.64
34.645
34.649
34.652
34.654
34.655
34.655
34.651
34.645
34.636
34.623
34.607
34.588
34.567
34.545
34.523
34.502
34.483
34.464
34.448
34.434
34.423
34.416
34.411
34.409
34.41
34.414
34.421
34.431
34.446
34.466
34.493
34.529
34.579
34.642
34.719
34.81
34.913
35.027
35.152
35.287
35.427
35.573
35.719
35.865
36.008
36.144
36.271
36.388
36.494
36.588
36.668
36.734
36.786
36.825
36.851
36.866
36.871
36.867
36.856
36.839
36.818
36.794
36.768
36.739
36.71
36.68
36.649
36.619
36.588
36.558
36.528
36.501
36.476
36.454
36.434
36.417
36.403
36.392
36.385
36.381
36.378
36.378
36.379
36.382
36.385
36.388
36.389
36.388
36.383
36.373
36.36
36.342
36.32
36.294
36.265
36.234
36.201
36.168
36.135
36.103
36.073
36.047
36.023
36.004
35.988
35.976
35.967
35.962
35.958
35.957
35.956
35.956
35.956
35.957
35.957
35.957
35.957
35.957
35.956
35.954
35.951
35.946
35.941
35.934
35.928
35.921
35.914
35.907
35.899
35.89
35.881
35.87
35.859
35.847
35.833
35.818
35.801
35.782
35.762
35.741
35.721
35.702
35.684
35.669
35.656
35.645
35.637
35.63
35.623
35.617
35.609
35.602
35.594
35.585
35.575
35.563
35.55
35.535
35.519
35.502
35.485
35.467
35.449
35.433
35.418
35.405
35.393
35.383
35.375
35.37
35.366
35.364
35.362
35.359
35.355
35.348
35.339
35.327
35.313
35.297
35.28
35.263
35.244
35.225
35.207
35.189
35.174
35.162
35.154
35.149
35.148
35.151
35.156
35.162
35.169
35.175
35.18
35.183
35.183
35.179
35.172
35.164
35.154
35.142
35.13
35.118
35.107
35.098
35.09
35.086
35.084
35.084
35.086
35.091
35.096
35.102
35.107
35.111
35.112
35.11
35.105
35.097
35.086
35.071
35.054
35.035
35.015
34.993
34.97
34.947
34.925
34.904
34.884
34.867
34.852
34.84
34.831
34.825
34.822
34.821
34.821
34.823
34.826
34.829
34.831
34.833
34.833
34.833
34.832
34.83
34.828
34.826
34.824
34.823
34.822
34.822
34.822
34.821
34.818
34.813
34.805
34.793
34.779
34.763
34.745
34.727
34.709
34.692
34.677
34.664
34.654
34.647
34.642
34.639
34.638
34.638
34.64
34.643
34.647
34.651
34.655
34.659
34.664
34.669
34.674
34.681
34.69
34.701
34.716
34.736
34.761
34.793
34.831
34.875
34.925
34.982
35.046
35.116
35.192
35.272
35.357
35.445
35.537
35.631
35.725
35.819
35.912
36.003
36.09
36.172
36.247
36.312
36.365
36.407
36.437
36.456
36.463
36.461
36.451
36.434
36.411
36.384
36.353
36.319
36.285
36.252
36.22
36.192
36.167
36.147
36.132
36.122
36.116
36.116
36.12
36.129
36.141
36.155
36.17
36.184
36.194
36.202
36.206
36.205
36.199
36.186
36.169
36.147
36.121
36.091
36.058
36.022
35.984
35.946
35.908
35.871
35.835
35.8
35.767
35.737
35.708
35.682
35.659
35.641
35.627
35.619
35.615
35.617
35.623
35.634
35.649
35.667
35.686
35.707
35.727
35.746
35.762
35.776
35.785
35.79
35.791
35.787
35.778
35.764
35.747
35.728
35.707
35.686
35.664
35.644
35.625
35.607
35.592
35.58
35.571
35.563
35.556
35.55
35.543
35.538
35.539
35.547
35.561
35.577
35.594
35.608
35.618
35.622
35.619
35.609
35.593
35.57
35.542
35.511
35.477
35.441
35.405
35.369
35.335
35.302
35.271
35.245
35.223
35.207
35.195
35.186
35.181
35.177
35.176
35.174
35.174
35.173
35.173
35.174
35.175
35.177
35.18
35.182
35.185
35.188
35.191
35.194
35.196
35.198
35.198
35.197
35.194
35.19
35.183
35.175
35.166
35.156
35.146
35.136
35.127
35.119
35.111
35.104
35.095
35.086
35.077
35.068
35.058
35.047
35.036
35.025
35.014
35.002
34.991
34.98
34.969
34.958
34.949
34.941
34.933
34.927
34.921
34.916
34.911
34.906
34.901
34.896
34.893
34.889
34.885
34.881
34.876
34.872
34.868
34.864
34.86
34.858
34.857
34.857
34.859
34.862
34.865
34.867
34.868
34.866
34.862
34.856
34.847
34.838
34.827
34.816
34.805
34.793
34.781
34.769
34.758
34.748
34.739
34.73
34.722
34.715
34.709
34.704
34.701
34.699
34.699
34.7
34.701
34.704
34.706
34.708
34.708
34.707
34.704
34.7
34.695
34.688
34.68
34.671
34.66
34.648
34.635
34.623
34.612
34.602
34.592
34.582
34.574
34.566
34.559
34.553
34.547
34.54
34.532
34.524
34.515
34.508
34.502
34.5
34.501
34.508
34.52
34.539
34.566
34.602
34.649
34.706
34.773
34.849
34.934
35.027
35.125
35.228
35.332
35.436
35.538
35.637
35.731
35.819
35.9
35.973
36.037
36.093
36.14
36.179
36.209
36.233
36.25
36.26
36.264
36.262
36.254
36.242
36.225
36.204
36.179
36.151
36.121
36.09
36.06
36.032
36.007
35.985
35.968
35.954
35.945
35.939
35.935
35.934
35.936
35.939
35.943
35.947
35.95
35.952
35.952
35.951
35.947
35.94
35.931
35.921
35.909
35.896
35.88
35.861
35.841
35.82
35.797
35.773
35.748
35.722
35.697
35.672
35.649
35.627
35.607
35.59
35.577
35.567
35.56
35.556
35.555
35.557
35.561
35.567
35.574
35.583
35.592
35.6
35.609
35.616
35.622
35.627
35.63
35.631
35.63
35.626
35.62
35.611
35.598
35.584
35.567
35.55
35.531
35.513
35.496
35.48
35.467
35.456
35.447
35.441
35.436
35.432
35.429
35.427
35.424
35.421
35.416
35.408
35.398
35.386
35.371
35.355
35.335
35.313
35.289
35.265
35.243
35.222
35.206
35.192
35.183
35.176
35.173
35.173
35.175
35.179
35.185
35.19
35.196
35.2
35.202
35.202
35.2
35.198
35.195
35.191
35.186
35.18
35.174
35.168
35.162
35.156
35.15
35.144
35.138
35.131
35.126
35.12
35.114
35.108
35.101
35.095
35.09
35.086
35.084
35.082
35.081
35.081
35.082
35.082
35.082
35.081
35.079
35.076
35.07
35.062
35.051
35.039
35.026
35.012
34.997
34.983
34.97
34.958
34.948
34.941
34.936
34.933
34.933
34.935
34.938
34.941
34.945
34.947
34.948
34.947
34.942
34.934
34.923
34.911
34.897
34.88
34.862
34.844
34.826
34.809
34.793
34.779
34.767
34.757
34.751
34.749
34.751
34.755
34.761
34.769
34.778
34.787
34.796
34.804
34.812
34.819
34.824
34.826
34.827
34.825
34.823
34.819
34.815
34.81
34.804
34.798
34.79
34.782
34.773
34.764
34.753
34.741
34.728
34.714
34.699
34.683
34.667
34.651
34.634
34.619
34.604
34.591
34.578
34.568
34.559
34.553
34.548
34.547
34.548
34.552
34.558
34.566
34.577
34.589
34.604
34.621
34.639
34.659
34.68
34.703
34.727
34.755
34.788
34.825
34.868
34.919
34.977
35.042
35.115
35.193
35.276
35.364
35.453
35.543
35.633
35.721
35.807
35.889
35.966
36.038
36.103
36.162
36.213
36.256
36.292
36.319
36.339
36.351
36.357
36.357
36.352
36.341
36.327
36.309
36.288
36.265
36.239
36.21
36.178
36.145
36.111
36.079
36.05
36.025
36.005
35.991
35.981
35.977
35.978
35.984
35.993
36.007
36.021
36.037
36.051
36.064
36.074
36.082
36.085
36.084
36.078
36.067
36.051
36.031
36.005
35.974
35.941
35.905
35.869
35.833
35.797
35.764
35.733
35.706
35.683
35.664
35.648
35.637
35.63
35.626
35.626
35.628
35.63
35.63
35.628
35.623
35.618
35.613
35.61
35.607
35.606
35.606
35.608
35.612
35.617
35.623
35.629
35.635
35.641
35.645
35.648
35.649
35.646
35.639
35.628
35.613
35.596
35.575
35.554
35.532
35.51
35.49
35.471
35.455
35.441
35.43
35.422
35.416
35.413
35.411
35.411
35.412
35.413
35.414
35.414
35.412
35.409
35.404
35.398
35.39
35.381
35.372
35.363
35.356
35.348
35.341
35.334
35.327
35.319
35.31
35.299
35.288
35.275
35.262
35.248
35.234
35.219
35.204
35.189
35.175
35.16
35.146
35.133
35.12
35.108
35.098
35.088
35.08
35.074
35.069
35.066
35.065
35.065
35.068
35.072
35.077
35.082
35.087
35.091
35.096
35.1
35.103
35.105
35.105
35.102
35.098
35.092
35.083
35.071
35.057
35.041
35.024
35.007
34.988
34.97
34.953
34.937
34.922
34.909
34.896
34.886
34.877
34.87
34.864
34.86
34.857
34.854
34.852
34.851
34.851
34.851
34.852
34.853
34.853
34.853
34.852
34.851
34.848
34.845
34.842
34.837
34.833
34.829
34.826
34.823
34.821
34.818
34.815
34.811
34.806
34.8
34.792
34.782
34.772
34.76
34.747
34.732
34.718
34.704
34.692
34.682
34.675
34.67
34.669
34.671
34.675
34.682
34.689
34.698
34.707
34.715
34.722
34.727
34.73
34.73
34.727
34.722
34.713
34.703
34.691
34.678
34.665
34.654
34.643
34.633
34.625
34.619
34.615
34.612
34.612
34.612
34.614
34.615
34.615
34.614
34.612
34.608
34.602
34.595
34.586
34.573
34.555
34.534
34.511
34.487
34.465
34.445
34.43
34.422
34.422
34.43
34.447
34.473
34.507
34.549
34.599
34.656
34.721
34.793
34.871
34.954
35.043
35.135
35.23
35.326
35.422
35.519
35.615
35.709
35.802
35.891
35.978
36.06
36.136
36.206
36.267
36.319
36.362
36.395
36.419
36.434
36.438
36.428
36.404
36.368
36.326
36.279
36.231
36.184
36.141
36.103
36.069
36.042
36.019
36.003
35.992
35.986
35.983
35.984
35.988
35.996
36.005
36.016
36.027
36.037
36.046
36.053
36.059
36.064
36.066
36.067
36.065
36.06
36.052
36.041
36.026
36.009
35.989
35.965
35.939
35.91
35.88
35.849
35.818
35.788
35.758
35.732
35.709
35.691
35.678
35.669
35.663
35.661
35.661
35.663
35.667
35.672
35.678
35.685
35.692
35.699
35.705
35.711
35.714
35.716
35.716
35.714
35.709
35.702
35.693
35.683
35.673
35.664
35.656
35.648
35.641
35.635
35.63
35.626
35.621
35.615
35.608
35.599
35.587
35.573
35.557
35.539
35.521
35.5
35.478
35.455
35.432
35.408
35.385
35.363
35.343
35.325
35.309
35.295
35.284
35.276
35.268
35.262
35.257
35.252
35.248
35.242
35.235
35.228
35.219
35.21
35.202
35.194
35.188
35.184
35.182
35.182
35.185
35.19
35.196
35.203
35.211
35.217
35.222
35.223
35.222
35.217
35.209
35.198
35.185
35.17
35.153
35.137
35.12
35.104
35.09
35.076
35.064
35.055
35.048
35.044
35.042
35.041
35.041
35.041
35.04
35.037
35.033
35.028
35.023
35.016
35.01
35.003
34.996
34.989
34.984
34.981
34.979
34.978
34.979
34.979
34.978
34.977
34.973
34.968
34.962
34.954
34.946
34.937
34.928
34.918
34.909
34.898
34.886
34.874
34.862
34.851
34.841
34.832
34.824
34.817
34.812
34.808
34.806
34.805
34.805
34.806
34.806
34.805
34.803
34.798
34.792
34.784
34.776
34.767
34.758
34.75
34.742
34.736
34.731
34.727
34.726
34.726
34.729
34.733
34.739
34.745
34.752
34.759
34.766
34.772
34.775
34.777
34.776
34.772
34.766
34.758
34.748
34.737
34.725
34.713
34.7
34.688
34.676
34.665
34.655
34.645
34.635
34.626
34.617
34.609
34.604
34.604
34.61
34.619
34.631
34.642
34.653
34.661
34.665
34.663
34.656
34.645
34.632
34.617
34.603
34.591
34.584
34.584
34.594
34.614
34.646
34.691
34.748
34.819
34.902
34.995
35.098
35.209
35.324
35.442
35.559
35.675
35.786
35.892
35.99
36.079
36.159
36.227
36.285
36.331
36.366
36.391
36.412
36.432
36.45
36.466
36.479
36.485
36.485
36.476
36.458
36.432
36.398
36.358
36.313
36.264
36.214
36.164
36.115
36.067
36.023
35.983
35.949
35.923
35.902
35.889
35.882
35.882
35.887
35.897
35.909
35.924
35.938
35.952
35.963
35.971
35.974
35.973
35.965
35.951
35.932
35.907
35.877
35.843
35.805
35.767
35.733
35.708
35.692
35.686
35.687
35.693
35.702
35.711
35.72
35.727
35.731
35.732
35.729
35.722
35.712
35.7
35.686
35.672
35.66
35.649
35.64
35.632
35.627
35.623
35.619
35.616
35.612
35.608
35.603
35.596
35.588
35.578
35.566
35.552
35.536
35.518
35.499
35.479
35.459
35.439
35.42
35.403
35.387
35.374
35.363
35.355
35.349
35.346
35.345
35.344
35.343
35.342
35.339
35.334
35.328
35.321
35.312
35.303
35.294
35.285
35.276
35.269
35.262
35.255
35.249
35.243
35.236
35.228
35.219
35.21
35.198
35.185
35.169
35.152
35.133
35.114
35.095
35.076
35.059
35.042
35.027
35.015
35.005
34.999
34.996
34.997
35.0
35.005
35.012
35.02
35.027
35.033
35.036
35.035
35.03
35.02
35.006
34.99
34.972
34.954
34.937
34.923
34.912
34.905
34.901
34.9
34.903
34.909
34.917
34.926
34.936
34.945
34.953
34.958
34.959
34.957
34.952
34.944
34.933
34.92
34.907
34.895
34.884
34.874
34.866
34.86
34.855
34.851
34.848
34.845
34.842
34.838
34.835
34.83
34.825
34.82
34.814
34.808
34.802
34.796
34.788
34.78
34.772
34.761
34.75
34.737
34.722
34.708
34.694
34.681
34.67
34.659
34.651
34.644
34.638
34.635
34.634
34.635
34.637
34.641
34.645
34.649
34.653
34.656
34.658
34.658
34.656
34.651
34.643
34.633
34.621
34.608
34.595
34.581
34.568
34.556
34.546
34.538
34.531
34.527
34.525
34.525
34.525
34.527
34.531
34.534
34.539
34.545
34.55
34.554
34.559
34.562
34.566
34.57
34.574
34.578
34.582
34.586
34.59
34.593
34.593
34.592
34.587
34.579
34.569
34.558
34.544
34.528
34.51
34.491
34.471
34.452
34.434
34.417
34.401
34.388
34.377
34.368
34.361
34.357
34.356
34.359
34.364
34.372
34.381
34.391
34.4
34.408
34.413
34.416
34.417
34.417
34.416
34.413
34.409
34.404
34.397
34.388
34.378
34.366
34.353
34.339
34.325
34.311
34.297
34.285
34.275
34.268
34.264
34.262
34.261
34.261
34.262
34.264
34.266
34.267
34.268
34.269
34.27
34.273
34.275
34.278
34.28
34.283
34.287
34.29
34.294
34.298
34.303
34.306
34.307
34.306
34.304
34.301
34.297
34.292
34.286
34.279
34.271
34.263
34.256
34.248
34.241
34.233
34.227
34.221
34.217
34.215
34.214
34.214
34.215
34.217
34.219
34.221
34.224
34.227
34.231
34.236
34.241
34.247
34.253
34.259
34.266
34.272
34.278
34.282
34.285
34.285
34.283
34.278
34.271
34.261
34.25
34.238
34.228
34.218
34.211
34.207
34.206
34.211
34.224
34.247
34.283
34.334
34.404
34.494
34.604
34.733
34.881
35.044
35.218
35.401
35.586
35.771
35.95
36.121
36.279
36.422
36.549
36.659
36.751
36.825
36.881
36.919
36.941
36.948
36.942
36.925
36.898
36.861
36.816
36.765
36.711
36.654
36.596
36.537
36.479
36.423
36.371
36.323
36.279
36.24
36.203
36.167
36.133
36.099
36.063
36.027
35.989
35.951
35.913
35.875
35.838
35.803
35.772
35.745
35.721
35.702
35.685
35.672
35.662
35.655
35.651
35.648
35.647
35.647
35.647
35.648
35.649
35.649
35.648
35.646
35.644
35.641
35.637
35.634
35.632
35.632
35.634
35.638
35.643
35.65
35.658
35.665
35.672
35.677
35.68
35.682
35.683
35.682
35.679
35.676
35.672
35.668
35.663
35.658
35.653
35.646
35.639
35.63
35.619
35.607
35.593
35.579
35.565
35.551
35.537
35.523
35.51
35.497
35.483
35.469
35.454
35.438
35.422
35.404
35.386
35.366
35.345
35.323
35.3
35.277
35.253
35.23
35.208
35.188
35.17
35.153
35.139
35.128
35.121
35.115
35.11
35.105
35.099
35.094
35.088
35.081
35.074
35.065
35.055
35.045
35.034
35.022
35.011
35.001
34.992
34.985
34.98
34.978
34.979
34.982
34.988
34.994
35.002
35.008
35.014
35.019
35.021
35.021
35.018
35.012
35.005
34.995
34.983
34.971
34.958
34.946
34.935
34.924
34.914
34.905
34.897
34.891
34.885
34.881
34.876
34.872
34.867
34.861
34.855
34.848
34.84
34.832
34.822
34.813
34.802
34.791
34.78
34.769
34.757
34.746
34.737
34.729
34.725
34.723
34.724
34.727
34.732
34.739
34.747
34.755
34.761
34.765
34.766
34.764
34.76
34.752
34.741
34.728
34.713
34.697
34.68
34.663
34.647
34.632
34.619
34.607
34.596
34.587
34.58
34.575
34.572
34.571
34.572
34.573
34.575
34.577
34.579
34.58
34.581
34.579
34.577
34.573
34.568
34.562
34.555
34.547
34.538
34.528
34.517
34.507
34.498
34.488
34.48
34.473
34.467
34.462
34.458
34.456
34.456
34.457
34.459
34.463
34.468
34.472
34.476
34.48
34.483
34.486
34.488
34.488
34.488
34.486
34.483
34.478
34.472
34.467
34.463
34.46
34.457
34.455
34.453
34.451
34.449
34.446
34.443
34.44
34.436
34.433
34.429
34.426
34.422
34.417
34.411
34.405
34.397
34.388
34.379
34.369
34.359
34.35
34.343
34.338
34.335
34.334
34.335
34.337
34.343
34.353
34.369
34.392
34.426
34.474
34.537
34.617
34.713
34.826
34.954
35.096
35.247
35.407
35.57
35.735
35.899
36.059
36.212
36.357
36.49
36.611
36.719
36.813
36.892
36.956
37.005
37.039
37.059
37.066
37.061
37.045
37.02
36.986
36.946
36.9
36.848
36.792
36.732
36.67
36.608
36.547
36.489
36.435
36.385
36.341
36.304
36.275
36.255
36.241
36.233
36.228
36.224
36.221
36.216
