Trial 1:0back
35.738
35.703
35.67
35.639
35.611
35.586
35.565
35.549
35.536
35.528
35.523
35.522
35.524
35.53
35.539
35.55
35.563
35.578
35.594
35.61
35.628
35.645
35.661
35.676
35.69
35.702
35.713
35.721
35.728
35.732
35.735
35.734
35.731
35.726
35.719
35.709
35.696
35.682
35.666
35.647
35.627
35.606
35.584
35.561
35.536
35.51
35.482
35.453
35.423
35.391
35.358
35.325
35.29
35.255
35.22
35.184
35.148
35.111
35.074
35.037
35.001
34.966
34.932
34.898
34.865
34.832
34.8
34.768
34.736
34.706
34.676
34.647
34.618
34.591
34.564
34.538
34.513
34.489
34.465
34.442
34.419
34.396
34.373
34.351
34.328
34.306
34.284
34.262
34.24
34.219
34.198
34.177
34.156
34.136
34.117
34.097
34.077
34.056
34.035
34.013
33.99
33.967
33.944
33.921
33.899
33.877
33.858
33.842
33.831
33.827
33.833
33.851
33.884
33.933
34.001
34.09
34.2
34.332
34.485
34.659
34.851
35.061
35.284
35.519
35.761
36.006
36.252
36.494
36.73
36.956
37.171
37.373
37.56
37.73
37.883
38.018
38.135
38.233
38.312
38.373
38.417
38.444
38.455
38.451
38.433
38.403
38.361
38.31
38.25
38.182
38.11
38.033
37.953
37.871
37.789
37.707
37.626
37.546
37.468
37.391
37.318
37.247
37.18
37.117
37.058
37.002
36.95
36.9
36.852
36.806
36.761
36.715
36.669
36.622
36.575
36.526
36.476
36.426
36.376
36.327
36.279
36.232
36.187
36.145
36.106
36.07
36.038
36.01
35.987
35.968
35.953
35.942
35.936
35.933
35.934
35.937
35.943
35.951
35.961
35.972
35.984
35.998
36.013
36.029
36.044
36.059
36.073
36.085
36.095
36.103
36.108
36.11
36.109
36.105
36.099
36.089
36.076
36.061
36.043
36.022
35.999
35.973
35.945
35.914
35.88
35.844
35.806
35.767
35.727
35.688
35.648
35.609
35.569
35.529
35.489
35.448
35.406
35.363
35.321
35.278
35.236
35.193
35.152
35.111
35.071
35.033
34.996
34.96
34.925
34.891
34.858
34.825
34.793
34.762
34.73
34.7
34.669
34.639
34.608
34.579
34.549
34.52
34.491
34.461
34.432
34.402
34.371
34.34
34.309
34.277
34.245
34.214
34.184
34.154
34.124
34.095
34.066
34.038
34.011
33.984
33.957
33.93
33.903
33.877
33.851
33.828
33.808
33.791
33.781
33.778
33.786
33.805
33.84
33.893
33.965
34.059
34.175
34.313
34.473
34.653
34.85
35.063
35.287
35.52
35.758
35.998
36.237
36.471
36.698
36.915
37.118
37.308
37.481
37.638
37.777
37.898
38.001
38.086
38.154
38.206
38.242
38.263
38.27
38.264
38.246
38.217
38.178
38.13
38.075
38.014
37.948
37.878
37.805
37.73
37.652
37.573
37.492
37.411
37.33
37.25
37.171
37.093
37.017
36.943
36.871
36.802
36.734
36.667
36.602
36.538
36.474
36.412
36.351
36.29
36.231
36.173
36.117
36.062
36.01
35.96
35.913
35.87
35.83
35.795
35.765
35.74
35.722
35.709
35.702
35.7
35.704
35.712
35.725
35.741
35.76
35.781
35.804
35.827
35.851
35.875
35.898
35.921
35.944
35.965
35.985
36.003
36.019
36.033
36.043
36.049
36.052
36.05
36.044
36.035
36.022
36.006
35.988
35.967
35.943
35.917
35.889
35.859
35.827
35.794
35.761
35.726
35.691
35.656
35.619
35.581
35.543
35.503
35.462
35.42
35.377
35.333
35.29
35.247
35.205
35.163
35.123
35.084
35.046
35.009
34.974
34.94
34.907
34.875
34.844
34.814
34.785
34.757
34.73
34.704
34.678
34.652
34.626
34.601
34.576
34.55
34.525
34.499
34.473
34.447
34.42
34.393
34.365
34.336
34.307
34.277
34.246
34.216
34.186
34.155
34.126
34.099
34.074
34.053
34.038
34.031
34.034
34.05
34.081
34.129
34.196
34.284
34.393
34.524
34.677
34.85
35.043
35.252
35.474
35.707
35.945
36.187
36.428
36.665
36.896
37.117
37.327
37.524
37.706
37.873
38.022
38.154
38.267
38.362
38.439
38.498
38.539
38.564
38.573
38.567
38.549
38.519
38.478
38.43
38.373
38.311
38.244
38.172
38.098
38.021
37.942
37.862
37.783
37.704
37.626
37.548
37.471
37.396
37.321
37.247
37.174
37.103
37.033
36.964
36.897
36.83
36.764
36.698
36.632
36.566
36.501
36.437
36.374
36.314
36.255
36.2
36.149
36.102
36.06
36.023
35.993
35.968
35.949
35.937
35.93
35.929
35.932
35.94
35.951
35.965
35.982
35.999
36.018
36.036
36.056
36.074
36.093
36.11
36.126
36.141
36.155
36.166
36.176
36.184
36.19
36.193
36.195
36.193
36.188
36.179
36.166
36.15
36.129
36.105
36.077
36.046
36.012
35.976
35.937
35.897
35.856
35.813
35.77
35.725
35.681
35.636
35.592
35.547
35.503
35.46
35.417
35.374
35.333
35.293
35.254
35.216
35.178
35.141
35.105
35.068
35.033
34.997
34.962
34.928
34.894
34.859
34.824
34.789
34.752
34.715
34.677
34.639
34.601
34.564
34.527
34.491
34.455
34.419
34.382
34.345
34.308
34.27
34.233
34.196
34.159
34.124
34.089
34.055
34.022
33.991
33.96
33.932
33.906
33.883
33.866
33.855
33.853
33.863
33.887
33.93
33.992
34.076
34.184
34.317
34.474
34.655
34.859
35.083
35.326
35.584
35.853
36.131
36.413
36.695
36.975
37.248
37.512
37.764
38.002
38.223
38.428
38.614
38.781
38.928
39.057
39.166
39.256
39.327
39.381
39.417
39.438
39.444
39.437
39.417
39.386
39.344
39.294
39.236
39.172
39.102
39.029
38.952
38.874
38.794
38.715
38.637
38.56
38.484
38.411
38.339
38.268
38.2
38.133
38.067
38.002
37.938
37.875
37.811
37.748
37.685
37.622
37.558
37.493
37.427
37.361
37.296
37.232
37.169
37.11
37.052
36.999
36.949
36.903
36.861
36.823
36.79
36.762
36.738
36.718
36.702
36.691
36.683
36.679
36.678
36.681
36.685
36.693
36.702
36.713
36.725
36.739
36.753
36.768
36.782
36.795
36.807
36.817
36.824
36.828
36.828
36.824
36.816
36.803
36.786
36.764
36.739
36.711
36.679
36.645
36.608
36.57
36.531
36.49
36.448
36.406
36.364
36.322
36.28
36.237
36.195
36.153
36.11
36.067
36.025
35.982
35.94
35.897
35.853
35.808
35.762
35.715
35.666
35.616
35.565
35.513
35.462
35.411
35.361
35.311
35.263
35.216
35.169
35.124
35.079
35.035
34.991
34.947
34.903
34.859
34.815
34.771
34.727
34.683
34.64
34.596
34.553
34.511
34.47
34.429
34.39
34.353
34.319
34.291
34.27
34.26
34.262
34.281
34.319
34.378
34.461
34.57
34.705
34.865
35.051
35.26
35.491
35.74
36.004
36.28
36.564
36.851
37.139
37.423
37.7
37.967
38.221
38.46
38.683
38.888
39.073
39.238
39.382
39.504
39.606
39.687
39.75
39.794
39.822
39.835
39.833
39.819
39.793
39.758
39.714
39.662
39.604
39.54
39.472
39.399
39.323
39.245
39.165
39.084
39.003
38.922
38.843
38.764
38.687
38.611
38.538
38.465
38.395
38.325
38.256
38.188
38.12
38.051
37.982
37.913
37.843
37.772
37.7
37.628
37.556
37.485
37.415
37.348
37.284
37.225
37.171
37.123
37.08
37.043
37.011
36.986
36.965
36.951
36.941
36.936
36.935
36.938
36.944
36.953
36.963
36.975
36.989
37.003
37.018
37.032
37.045
37.057
37.068
37.076
37.083
37.086
37.087
37.085
37.079
37.069
37.056
37.038
37.017
36.991
36.962
36.929
36.894
36.856
36.815
36.772
36.728
36.683
36.636
36.588
36.539
36.49
36.439
36.388
36.336
36.284
36.231
36.178
36.124
36.069
36.013
35.957
35.899
35.841
35.781
35.721
35.661
35.602
35.543
35.486
35.43
35.375
35.321
35.267
35.215
35.163
35.112
35.062
35.011
34.96
34.908
34.856
34.803
34.75
34.696
34.642
34.589
34.535
34.482
34.43
34.38
34.331
34.284
34.24
34.199
34.162
34.131
34.107
34.093
34.092
34.106
34.138
34.191
34.266
34.365
34.49
34.64
34.815
35.015
35.238
35.48
35.741
36.014
36.298
36.587
36.877
37.164
37.443
37.713
37.968
38.209
38.431
38.635
38.819
38.982
39.125
39.247
39.35
39.434
39.5
39.549
39.581
39.598
39.601
39.59
39.566
39.531
39.486
39.431
39.367
39.297
39.222
39.142
39.058
38.971
38.882
38.792
38.701
38.609
38.518
38.428
38.337
38.246
38.155
38.063
37.97
37.877
37.784
37.691
37.598
37.506
37.415
37.325
37.237
37.151
37.068
36.988
36.912
36.84
36.772
36.71
36.654
36.604
36.56
36.523
36.494
36.47
36.454
36.443
36.437
36.436
36.44
36.447
36.458
36.471
36.487
36.504
36.524
36.544
36.565
36.586
36.604
36.621
36.634
36.643
36.648
36.648
36.645
36.638
36.628
36.614
36.597
36.577
36.553
36.527
36.497
36.463
36.427
36.386
36.344
36.298
36.251
36.202
36.151
36.099
36.046
35.991
35.936
35.88
35.822
35.764
35.705
35.646
35.586
35.527
35.468
35.409
35.352
35.296
35.241
35.186
35.131
35.077
35.024
34.971
34.919
34.868
34.816
34.765
34.715
34.665
34.615
34.566
34.516
34.467
34.417
34.368
34.318
34.269
34.22
34.172
34.123
34.076
34.028
33.981
33.935
33.892
33.853
33.821
33.799
33.789
33.796
33.821
33.868
33.938
34.034
34.157
34.308
34.484
34.686
34.912
35.157
35.42
35.697
35.984
36.276
36.569
36.861
37.145
37.42
37.682
37.929
38.157
38.367
38.556
38.725
38.873
39.0
39.106
39.192
39.259
39.306
39.335
39.348
39.344
39.325
39.294
39.251
39.198
39.136
39.066
38.99
38.909
38.823
38.733
38.642
38.549
38.455
38.361
38.268
38.176
38.086
37.996
37.907
37.819
37.732
37.645
37.559
37.472
37.384
37.296
37.208
37.119
37.03
36.942
36.854
36.768
36.683
36.6
36.521
36.444
36.372
36.303
36.24
36.182
36.129
36.083
36.041
36.005
35.974
35.948
35.927
35.911
35.9
35.892
35.889
35.889
35.892
35.897
35.904
35.913
35.921
35.93
35.938
35.945
35.95
35.952
35.951
35.947
35.939
35.927
35.912
35.894
35.871
35.845
35.816
35.783
35.747
35.708
35.666
35.621
35.574
35.525
35.474
35.421
35.368
35.312
35.255
35.197
35.138
35.078
35.018
34.957
34.896
34.837
34.778
34.721
34.665
34.609
34.555
34.501
34.446
34.392
34.336
34.28
34.224
34.168
34.112
34.055
34.0
33.945
33.891
33.838
33.786
33.735
33.685
33.636
33.588
33.541
33.495
33.45
33.406
33.362
33.32
33.278
33.236
33.194
33.151
33.108
33.065
33.022
32.979
32.936
32.894
32.854
32.816
32.782
32.756
32.739
32.734
32.744
32.772
32.821
32.893
32.989
33.112
33.262
33.439
33.641
33.868
34.116
34.381
34.661
34.952
35.248
35.546
35.842
36.132
36.411
36.677
36.927
37.158
37.37
37.56
37.729
37.875
38.0
38.102
38.184
38.246
38.289
38.314
38.322
38.315
38.294
38.26
38.215
38.16
38.096
38.024
37.946
37.862
37.775
37.684
37.592
37.498
37.403
37.31
37.219
37.129
37.042
36.958
36.878
36.8
36.726
36.655
36.587
36.52
36.455
36.39
36.326
36.261
36.196
36.13
36.062
35.994
35.925
35.856
35.788
35.72
35.655
35.592
35.532
35.475
35.423
35.375
35.332
35.294
35.261
35.232
35.208
35.186
35.168
35.153
35.14
35.13
35.123
35.117
35.114
35.113
35.114
35.116
35.119
35.123
35.126
35.127
35.127
35.124
35.118
35.109
35.098
35.083
35.066
35.046
35.023
34.998
34.969
34.938
34.904
34.868
34.831
34.792
34.751
34.71
34.668
34.625
34.58
34.534
34.487
34.437
34.386
34.334
34.28
34.225
34.169
34.114
34.06
34.006
33.954
33.903
33.854
33.807
33.76
33.714
33.668
33.623
33.577
33.531
33.485
33.438
33.392
33.345
33.299
33.252
33.205
33.159
33.113
33.068
33.023
32.98
32.937
32.896
32.857
32.818
32.781
32.745
32.71
32.675
32.641
32.607
32.573
32.539
32.505
32.471
32.438
32.406
32.374
32.344
32.314
32.286
32.262
32.243
32.232
32.231
32.244
32.272
32.319
32.387
32.478
32.592
32.731
32.894
33.08
33.289
33.516
33.761
34.018
34.286
34.56
34.835
35.109
35.378
35.638
35.886
36.119
36.335
36.532
36.709
36.865
37.0
37.114
37.206
37.278
37.33
37.363
37.378
37.377
37.361
37.331
37.289
37.237
37.176
37.108
37.034
36.957
36.878
36.797
36.715
36.633
36.551
36.47
36.388
36.307
36.227
36.148
36.07
35.994
35.92
35.848
35.779
35.711
35.646
35.582
35.52
35.459
35.398
35.338
35.279
35.221
35.164
35.107
35.052
34.997
34.944
34.893
34.844
34.797
34.753
34.711
34.673
34.637
34.605
34.576
34.552
34.532
34.516
34.505
34.499
34.498
34.5
34.506
34.513
34.523
34.533
34.543
34.554
34.564
34.575
34.585
34.593
34.6
34.604
34.606
34.604
34.599
34.591
34.58
34.565
34.548
34.527
34.505
34.482
34.458
34.433
34.407
34.381
34.353
34.322
34.29
34.255
34.218
34.178
34.136
34.092
34.047
34.001
33.954
33.907
33.859
33.811
33.762
33.714
33.667
33.619
33.573
33.528
33.484
33.442
33.401
33.362
33.324
33.288
33.252
33.218
33.183
33.149
33.115
33.08
33.045
33.009
32.973
32.936
32.898
32.861
32.824
32.788
32.752
32.718
32.685
32.653
32.624
32.596
32.569
32.543
32.517
32.493
32.468
32.444
32.419
32.396
32.373
32.351
32.33
32.311
32.292
32.273
32.255
32.237
32.219
32.201
32.182
32.165
32.15
32.138
32.131
32.131
32.141
32.163
32.2
32.256
32.332
32.43
32.552
32.697
32.866
33.057
33.269
33.498
33.743
33.999
34.263
34.532
34.801
35.067
35.325
35.571
35.803
36.017
36.212
36.385
36.537
36.666
36.774
36.861
36.927
36.974
37.003
37.014
37.01
36.991
36.96
36.917
36.864
36.804
36.738
36.666
36.591
36.513
36.433
36.351
36.268
36.185
36.103
36.021
35.94
35.86
35.782
35.705
35.629
35.554
35.482
35.411
35.342
35.276
35.213
35.152
35.093
35.037
34.983
34.929
34.877
34.826
34.775
34.726
34.678
34.632
34.587
34.546
34.507
34.472
34.441
34.415
34.393
34.377
34.365
34.359
34.357
34.359
34.364
34.371
34.382
34.396
34.412
34.432
34.453
34.477
34.502
34.528
34.553
34.578
34.602
34.623
34.642
34.657
34.669
34.677
34.68
34.68
34.676
34.668
34.657
34.642
34.625
34.605
34.583
34.559
34.532
34.503
34.473
34.441
34.408
34.373
34.337
34.301
34.263
34.225
34.186
34.146
34.106
34.067
34.027
33.987
33.948
33.909
33.87
33.832
33.795
33.759
33.722
33.686
33.649
33.613
33.577
33.542
33.507
33.474
33.441
33.41
33.379
33.349
33.319
33.29
33.261
33.232
33.204
33.175
33.146
33.116
33.086
33.055
33.025
32.996
32.967
32.939
32.912
32.887
32.863
32.841
32.819
32.799
32.779
32.759
32.74
32.722
32.704
32.686
32.669
32.653
32.64
32.629
32.624
32.626
32.638
32.662
32.701
32.758
32.834
32.931
33.05
33.192
33.356
33.54
33.743
33.963
34.197
34.44
34.69
34.943
35.196
35.445
35.686
35.917
36.135
36.337
36.522
36.688
36.834
36.961
37.067
37.154
37.222
37.271
37.302
37.316
37.315
37.299
37.27
37.229
37.179
37.12
37.053
36.981
36.903
36.821
36.737
36.65
36.563
36.477
36.391
36.307
36.225
36.145
36.068
35.992
35.918
35.846
35.775
35.707
35.639
35.573
35.508
35.444
35.382
35.321
35.261
35.201
35.142
35.085
35.028
34.974
34.921
34.871
34.825
34.782
34.744
34.712
34.685
34.663
34.648
34.639
34.636
34.639
34.647
34.659
34.676
34.696
34.718
34.743
34.769
34.795
34.822
34.847
34.871
34.894
34.914
34.934
34.951
34.967
34.981
34.991
34.999
35.005
35.006
35.005
35.0
34.991
34.979
34.963
34.944
34.921
34.895
34.866
34.835
34.803
34.77
34.736
34.702
34.667
34.631
34.593
34.554
34.514
34.472
34.429
34.386
34.343
34.3
34.257
34.216
34.175
34.134
34.094
34.053
34.012
33.972
33.931
33.892
33.854
33.817
33.782
33.747
33.712
33.679
33.645
33.613
33.581
33.55
33.521
33.493
33.466
33.439
33.415
33.392
33.37
33.351
33.333
33.315
33.298
33.282
33.264
33.247
33.228
33.208
33.187
33.164
33.141
33.116
33.09
33.064
33.038
33.013
32.987
32.963
32.939
32.916
32.895
32.876
32.858
32.843
32.831
32.822
32.819
32.821
32.832
32.853
32.886
32.933
32.998
33.082
33.186
33.314
33.465
33.638
33.834
34.05
34.285
34.535
34.797
35.068
35.345
35.623
35.898
36.168
36.428
36.677
36.911
37.128
37.326
37.504
37.66
37.794
37.907
37.998
38.067
38.117
38.147
38.161
38.158
38.141
38.113
38.073
38.025
37.969
37.906
37.838
37.765
37.69
37.612
37.534
37.454
37.375
37.297
37.22
37.145
37.072
37.0
36.93
36.863
36.798
36.736
36.676
36.619
36.564
36.511
36.46
36.409
36.36
36.31
36.259
36.208
36.156
36.104
36.053
36.002
35.953
35.907
35.863
35.822
35.783
35.748
35.716
35.687
35.663
35.642
35.626
35.615
35.609
35.607
35.61
35.615
35.624
35.636
35.65
35.665
35.68
35.697
35.713
35.729
35.744
35.758
35.771
35.782
35.792
35.799
35.805
35.807
35.806
35.801
35.794
35.784
35.771
35.756
35.737
35.717
35.694
35.669
35.641
35.612
35.58
35.546
35.511
35.474
35.435
35.395
35.353
35.312
35.27
35.228
35.185
35.142
35.099
35.056
35.012
34.968
34.925
34.881
34.838
34.795
34.751
34.707
34.663
34.619
34.576
34.533
34.49
34.449
34.408
34.369
34.33
34.293
34.257
34.222
34.188
34.156
34.124
34.094
34.063
34.033
34.003
33.972
33.942
33.911
33.881
33.85
33.82
33.79
33.761
33.733
33.706
33.68
33.654
33.629
33.604
33.579
33.555
33.532
33.509
33.488
33.467
33.447
33.429
33.411
33.393
33.376
33.359
33.341
33.323
33.305
33.287
33.27
33.253
33.236
33.222
33.21
33.201
33.198
33.202
33.217
33.244
33.288
33.35
33.433
33.539
33.668
33.822
34.001
34.202
34.425
34.668
34.928
35.2
35.48
35.765
36.051
36.333
36.609
36.875
37.128
37.368
37.591
37.796
37.983
38.15
38.296
38.422
38.528
38.613
38.679
38.726
38.756
38.771
38.771
38.757
38.732
38.696
38.65
38.596
38.533
38.465
38.391
38.314
38.233
38.151
38.068
37.984
37.902
37.822
37.743
37.667
37.593
37.522
37.454
37.388
37.325
37.265
37.206
37.15
37.095
37.04
36.986
36.933
36.88
36.828
36.776
36.724
36.673
36.622
36.571
36.521
36.471
36.424
36.378
36.336
36.298
36.265
36.236
36.213
36.195
36.182
36.174
36.171
36.171
36.175
36.183
36.192
36.204
36.218
36.233
36.249
36.265
36.282
36.298
36.314
36.328
36.34
36.351
36.358
36.364
36.366
36.366
36.363
36.356
36.347
36.336
36.321
36.304
36.284
36.262
36.236
36.208
36.177
36.142
36.104
36.063
36.019
35.973
35.926
35.879
35.833
35.788
35.744
35.701
35.659
35.616
35.574
35.53
35.486
35.441
35.395
35.349
35.303
35.257
35.21
35.164
35.118
35.072
35.026
34.98
34.935
34.89
34.846
34.803
34.76
34.719
34.679
34.639
34.601
34.564
34.527
34.492
34.458
34.424
34.39
34.356
34.322
34.287
34.253
34.219
34.185
34.151
34.119
34.087
34.057
34.028
34.001
33.973
33.946
33.92
33.893
33.867
33.842
33.816
33.791
33.766
33.742
33.718
33.695
33.673
33.651
33.63
33.609
33.587
33.566
33.544
33.522
33.499
33.476
33.453
33.43
33.409
33.392
33.38
33.377
33.384
33.405
33.443
33.5
33.579
33.682
33.81
33.965
34.145
34.35
34.578
34.826
35.093
35.374
35.665
35.964
36.266
36.566
36.862
37.15
37.426
37.689
37.935
38.163
38.372
38.559
38.725
38.869
38.991
39.09
39.169
39.226
39.265
39.285
39.29
39.279
39.255
39.219
39.172
39.117
39.054
38.984
38.91
38.831
38.75
38.667
38.584
38.501
38.419
38.338
38.259
38.181
38.104
38.029
37.956
37.883
37.811
37.739
37.668
37.597
37.527
37.456
37.384
37.313
37.241
37.169
37.097
37.025
36.955
36.887
36.822
36.761
36.704
36.651
36.603
36.56
36.525
36.495
36.473
36.457
36.448
36.445
36.447
36.456
36.469
36.486
36.507
36.532
36.558
36.587
36.618
36.649
36.68
36.71
36.738
36.763
36.785
36.804
36.82
36.833
36.844
36.851
36.855
36.856
36.853
36.847
36.837
36.824
36.807
36.786
36.762
36.734
36.702
36.668
36.63
36.59
36.547
36.503
36.457
36.41
36.363
36.315
36.266
36.218
36.169
36.119
36.069
36.018
35.967
35.915
35.862
35.809
35.755
35.702
35.649
35.597
35.545
35.494
35.444
35.395
35.347
35.299
35.252
35.204
35.157
35.109
35.062
35.015
34.968
34.923
34.879
34.836
34.795
34.755
34.715
34.677
34.638
34.599
34.56
34.52
