Trial 1:0back
31.149
31.131
31.111
31.092
31.074
31.056
31.039
31.025
31.013
31.006
31.005
31.015
31.038
31.078
31.138
31.222
31.335
31.477
31.652
31.859
32.098
32.368
32.664
32.984
33.324
33.678
34.041
34.409
34.777
35.141
35.498
35.846
36.181
36.501
36.804
37.088
37.351
37.594
37.816
38.016
38.196
38.355
38.496
38.618
38.722
38.809
38.879
38.933
38.97
38.993
39.002
38.998
38.984
38.959
38.927
38.89
38.848
38.802
38.754
38.706
38.66
38.615
38.572
38.533
38.495
38.461
38.429
38.399
38.372
38.346
38.321
38.295
38.268
38.236
38.2
38.159
38.112
38.059
38.0
37.935
37.866
37.793
37.715
37.634
37.551
37.467
37.382
37.298
37.217
37.14
37.068
37.001
36.94
36.885
36.834
36.786
36.741
36.699
36.658
36.617
36.577
36.534
36.49
36.445
36.4
36.355
36.311
36.27
36.233
36.201
36.173
36.15
36.133
36.121
36.114
36.111
36.11
36.111
36.111
36.108
36.101
36.088
36.069
36.043
36.01
35.969
35.92
35.864
35.802
35.734
35.662
35.587
35.51
35.432
35.356
35.28
35.207
35.137
35.07
35.006
34.945
34.887
34.832
34.779
34.726
34.675
34.623
34.572
34.52
34.468
34.415
34.361
34.307
34.251
34.195
34.137
34.079
34.02
33.96
33.9
33.84
33.78
33.722
33.665
33.611
33.559
33.509
33.463
33.418
33.375
33.332
33.289
33.247
33.203
33.16
33.114
33.067
33.018
32.968
32.915
32.862
32.808
32.755
32.704
32.653
32.605
32.56
32.518
32.479
32.444
32.412
32.383
32.357
32.333
32.309
32.287
32.265
32.244
32.221
32.197
32.171
32.141
32.108
32.074
32.038
32.001
31.964
31.929
31.896
31.865
31.839
31.817
31.801
31.792
31.791
31.8
31.821
31.854
31.902
31.965
32.045
32.144
32.263
32.403
32.566
32.753
32.963
33.196
33.45
33.724
34.015
34.32
34.635
34.959
35.286
35.614
35.938
36.256
36.562
36.857
37.137
37.401
37.648
37.877
38.086
38.275
38.442
38.588
38.713
38.816
38.899
38.961
39.005
39.03
39.039
39.032
39.011
38.977
38.933
38.88
38.821
38.758
38.691
38.623
38.554
38.484
38.415
38.347
38.28
38.215
38.152
38.089
38.025
37.962
37.897
37.832
37.766
37.699
37.631
37.563
37.493
37.422
37.349
37.275
37.199
37.122
37.044
36.965
36.887
36.808
36.731
36.654
36.578
36.503
36.431
36.362
36.296
36.235
36.178
36.128
36.083
36.045
36.012
35.985
35.963
35.946
35.932
35.92
35.911
35.902
35.894
35.885
35.875
35.865
35.853
35.841
35.827
35.814
35.799
35.783
35.765
35.744
35.721
35.696
35.668
35.638
35.607
35.575
35.542
35.508
35.473
35.436
35.398
35.358
35.317
35.274
35.229
35.183
35.134
35.082
35.029
34.974
34.919
34.862
34.803
34.742
34.68
34.617
34.551
34.484
34.417
34.349
34.281
34.214
34.147
34.082
34.019
33.958
33.9
33.845
33.793
33.744
33.698
33.653
33.61
33.568
33.527
33.487
33.447
33.406
33.366
33.325
33.284
33.243
33.202
33.161
33.119
33.076
33.032
32.988
32.943
32.897
32.852
32.806
32.76
32.715
32.671
32.628
32.587
32.549
32.514
32.482
32.452
32.425
32.4
32.377
32.357
32.338
32.323
32.311
32.307
32.311
32.328
32.361
32.413
32.487
32.585
32.708
32.859
33.038
33.245
33.481
33.744
34.031
34.338
34.662
35.0
35.346
35.698
36.05
36.398
36.739
37.067
37.382
37.68
37.959
38.217
38.453
38.665
38.854
39.02
39.163
39.286
39.388
39.471
39.537
39.585
39.618
39.636
39.641
39.633
39.613
39.582
39.54
39.488
39.428
39.36
39.285
39.204
39.12
39.033
38.943
38.853
38.763
38.674
38.586
38.5
38.418
38.338
38.261
38.185
38.111
38.036
37.962
37.885
37.807
37.727
37.644
37.559
37.471
37.382
37.292
37.201
37.11
37.018
36.927
36.839
36.753
36.672
36.594
36.522
36.456
36.396
36.343
36.295
36.254
36.218
36.186
36.158
36.135
36.115
36.098
36.083
36.07
36.058
36.046
36.035
36.024
36.012
35.998
35.984
35.967
35.949
35.928
35.906
35.883
35.857
35.828
35.796
35.76
35.72
35.676
35.627
35.573
35.514
35.45
35.384
35.316
35.247
35.179
35.113
35.049
34.987
34.929
34.875
34.824
34.775
34.728
34.682
34.638
34.593
34.547
34.499
34.449
34.397
34.343
34.286
34.227
34.165
34.101
34.034
33.965
33.896
33.827
33.759
33.691
33.624
33.559
33.495
33.431
33.368
33.306
33.244
33.185
33.127
33.072
33.019
32.971
32.927
32.887
32.852
32.82
32.789
32.758
32.727
32.694
32.659
32.621
32.583
32.543
32.504
32.463
32.423
32.383
32.343
32.305
32.268
32.234
32.206
32.183
32.17
32.167
32.177
32.204
32.25
32.318
32.41
32.528
32.673
32.846
33.049
33.281
33.54
33.825
34.132
34.459
34.802
35.159
35.524
35.894
36.264
36.63
36.988
37.335
37.668
37.984
38.281
38.557
38.811
39.041
39.248
39.432
39.592
39.728
39.842
39.934
40.006
40.057
40.09
40.105
40.105
40.092
40.066
40.03
39.986
39.933
39.874
39.808
39.737
39.661
39.581
39.498
39.412
39.324
39.235
39.145
39.055
38.967
38.879
38.791
38.703
38.615
38.527
38.44
38.353
38.268
38.183
38.099
38.015
37.931
37.847
37.764
37.681
37.597
37.513
37.429
37.346
37.264
37.183
37.103
37.025
36.95
36.878
36.809
36.743
36.682
36.624
36.57
36.521
36.475
36.434
36.397
36.365
36.335
36.309
36.287
36.266
36.247
36.23
36.212
36.194
36.174
36.152
36.127
36.1
36.07
36.038
36.002
35.963
35.921
35.876
35.83
35.782
35.734
35.685
35.635
35.583
35.53
35.476
35.419
35.36
35.298
35.233
35.166
35.097
35.026
34.954
34.881
34.809
34.739
34.672
34.607
34.546
34.488
34.433
34.38
34.329
34.278
34.228
34.177
34.124
34.074
34.028
33.985
33.946
33.912
33.884
33.861
33.84
33.816
33.785
33.744
33.685
33.608
33.514
33.406
33.29
33.171
33.054
32.942
32.839
32.748
32.67
32.605
32.553
32.514
32.486
32.467
32.453
32.443
32.433
32.422
32.407
32.387
32.361
32.33
32.294
32.252
32.207
32.16
32.113
32.07
32.034
32.009
32.001
32.013
32.05
32.115
32.21
32.336
32.496
32.688
32.914
33.17
33.455
33.766
34.098
34.447
34.81
35.181
35.556
35.933
36.306
36.672
37.028
37.371
37.698
38.005
38.29
38.551
38.788
38.998
39.182
39.339
39.469
39.575
39.656
39.716
39.756
39.78
39.788
39.781
39.76
39.729
39.687
39.636
39.578
39.514
39.443
39.368
39.29
39.211
39.132
39.053
38.975
38.898
38.823
38.748
38.673
38.598
38.521
38.442
38.359
38.272
38.181
38.086
37.986
37.884
37.779
37.674
37.567
37.461
37.355
37.251
37.148
37.047
36.949
36.854
36.764
36.677
36.595
36.517
36.444
36.376
36.313
36.254
36.201
36.153
36.11
36.071
36.036
36.005
35.977
35.952
35.93
35.91
35.892
35.875
35.861
35.847
35.835
35.823
35.811
35.797
35.78
35.759
35.734
35.703
35.667
35.626
35.581
35.532
35.479
35.423
35.366
35.307
35.247
35.186
35.125
35.064
35.002
34.941
34.88
34.821
34.764
34.707
34.652
34.597
34.542
34.487
34.433
34.377
34.321
34.263
34.203
34.141
34.076
34.008
33.937
33.864
33.79
33.716
33.643
33.57
33.499
33.432
33.368
33.31
33.256
33.207
33.162
33.12
33.081
33.042
33.003
32.964
32.923
32.88
32.835
32.787
32.737
32.685
32.631
32.577
32.522
32.469
32.417
32.367
32.319
32.273
32.23
32.19
32.156
32.126
32.101
32.08
32.063
32.05
32.037
32.024
32.01
31.993
31.972
31.947
31.915
31.878
31.837
31.794
31.749
31.705
31.662
31.624
31.591
31.567
31.553
31.554
31.571
31.608
31.668
31.755
31.87
32.015
32.192
32.4
32.639
32.908
33.205
33.526
33.868
34.227
34.599
34.978
35.359
35.739
36.111
36.471
36.817
37.146
37.456
37.744
38.009
38.252
38.471
38.667
38.84
38.992
39.124
39.235
39.327
39.401
39.457
39.496
39.519
39.527
39.519
39.498
39.463
39.415
39.357
39.289
39.213
39.13
39.043
38.953
38.862
38.772
38.684
38.598
38.517
38.439
38.365
38.295
38.228
38.161
38.094
38.025
37.953
37.877
37.797
37.711
37.619
37.523
37.421
37.316
37.209
37.101
36.994
36.89
36.79
36.695
36.607
36.526
36.452
36.386
36.327
36.276
36.232
36.195
36.165
36.139
36.118
36.099
36.083
36.068
36.054
36.04
36.027
36.013
35.998
35.981
35.962
35.94
35.915
35.887
35.857
35.825
35.79
35.753
35.714
35.675
35.635
35.595
35.554
35.512
35.468
35.423
35.376
35.328
35.28
35.232
35.186
35.141
35.097
35.055
35.013
34.971
34.929
34.886
34.842
34.797
34.75
34.7
34.647
34.59
34.53
34.465
34.397
34.324
34.248
34.17
34.091
34.01
33.929
33.849
33.77
33.694
33.62
33.552
33.49
33.433
33.384
33.34
33.302
33.269
33.24
33.213
33.187
33.16
33.133
33.103
33.069
33.032
32.991
32.947
32.9
32.85
32.799
32.749
32.7
32.654
32.611
32.572
32.535
32.503
32.473
32.447
32.424
32.402
32.382
32.363
32.344
32.324
32.303
32.281
32.257
32.232
32.204
32.175
32.144
32.113
32.082
32.051
32.019
31.986
31.954
31.924
31.897
31.874
31.859
31.853
31.858
31.878
31.916
31.974
32.055
32.161
32.296
32.461
32.657
32.884
33.142
33.429
33.742
34.079
34.436
34.809
35.194
35.585
35.977
36.367
36.75
37.123
37.482
37.823
38.144
38.441
38.713
38.957
39.172
39.359
39.517
39.646
39.748
39.824
39.875
39.905
39.914
39.905
39.881
39.843
39.795
39.738
39.675
39.607
39.536
39.462
39.386
39.308
39.229
39.149
39.069
38.99
38.912
38.834
38.757
38.679
38.601
38.522
38.442
38.361
38.278
38.192
38.104
38.013
37.919
37.824
37.728
37.631
37.535
37.439
37.346
37.254
37.165
37.08
37.0
36.925
36.855
36.79
36.73
36.676
36.627
36.583
36.542
36.505
36.471
36.441
36.415
36.393
36.374
36.358
36.344
36.331
36.319
36.307
36.294
36.28
36.264
36.248
36.23
36.211
36.19
36.169
36.146
36.119
36.09
36.057
36.02
35.98
35.937
35.891
35.843
35.794
35.743
35.692
35.641
35.59
35.541
35.492
35.444
35.395
35.346
35.296
35.244
35.189
35.131
35.071
35.007
34.939
34.867
34.79
34.711
34.628
34.544
34.46
34.376
34.294
34.214
34.136
34.063
33.994
33.93
33.871
33.815
33.764
33.715
33.669
33.625
33.581
33.539
33.497
33.457
33.416
33.376
33.335
33.293
33.251
33.208
33.165
33.122
33.08
33.039
32.999
32.961
32.926
32.893
32.863
32.836
32.813
32.792
32.773
32.756
32.738
32.719
32.697
32.671
32.643
32.613
32.58
32.545
32.509
32.472
32.436
32.4
32.364
32.329
32.295
32.261
32.228
32.196
32.166
32.137
32.112
32.092
32.08
32.078
32.09
32.12
32.172
32.247
32.348
32.478
32.638
32.828
33.049
33.298
33.576
33.88
34.208
34.557
34.924
35.306
35.699
36.098
36.5
36.9
37.294
37.678
38.049
38.401
38.731
39.037
39.315
39.563
39.781
39.967
40.123
40.249
40.346
40.417
40.462
40.484
40.485
40.467
40.432
40.382
40.321
40.25
40.172
40.088
40.0
39.909
39.816
39.72
39.622
39.525
39.428
39.332
39.237
39.143
39.051
38.961
38.871
38.781
38.691
38.6
38.507
38.411
38.313
38.211
38.107
37.998
37.888
37.775
37.663
37.551
37.44
37.333
37.231
37.134
37.045
36.964
36.891
36.827
36.77
36.722
36.681
36.647
36.621
36.601
36.585
36.574
36.567
36.563
36.561
36.561
36.562
36.563
36.565
36.565
36.563
36.558
36.55
36.537
36.519
36.496
36.468
36.434
36.395
36.35
36.301
36.249
36.195
36.139
36.082
36.025
35.968
35.912
35.859
35.808
35.759
35.714
35.671
35.631
35.592
35.553
35.515
35.474
35.431
35.383
35.331
35.273
35.211
35.144
35.073
34.998
34.921
34.841
34.759
34.677
34.596
34.515
34.437
34.361
34.287
34.217
34.15
34.087
34.028
33.972
33.92
33.871
33.826
33.785
33.745
33.709
33.675
33.643
33.613
33.583
33.552
33.522
33.489
33.456
33.422
33.387
33.353
33.318
33.284
33.251
33.218
33.187
33.156
33.126
33.096
33.067
33.039
33.01
32.981
32.952
32.922
32.891
32.858
32.824
32.787
32.747
32.706
32.664
32.621
32.578
32.537
32.498
32.463
32.432
32.407
32.39
32.382
32.387
32.407
32.445
32.503
32.585
32.692
32.828
32.993
33.188
33.413
33.668
33.95
34.258
34.59
34.943
35.315
35.702
36.1
36.506
36.914
37.32
37.718
38.104
38.473
38.821
39.144
39.439
39.704
39.936
40.133
40.297
40.428
40.526
40.594
40.634
40.649
40.642
40.616
40.575
40.521
40.458
40.386
40.306
40.22
40.129
40.033
39.933
39.829
39.721
39.61
39.495
39.376
39.254
39.129
39.003
38.875
38.748
38.621
38.495
38.372
38.251
38.133
38.019
37.908
37.798
37.69
37.584
37.478
37.373
37.269
37.168
37.07
36.977
36.889
36.807
36.732
36.665
36.606
36.556
36.514
36.481
36.456
36.44
36.432
36.43
36.435
36.445
36.458
36.474
36.492
36.511
36.529
36.546
36.559
36.569
36.575
36.575
36.57
36.558
36.541
36.517
36.488
36.452
36.412
36.367
36.319
36.269
36.217
36.164
36.112
36.059
36.007
35.954
35.902
35.85
35.799
35.747
35.695
35.642
35.588
35.533
35.476
35.418
35.359
35.297
35.234
35.168
35.101
35.033
34.963
34.892
34.821
34.749
34.677
34.606
34.536
34.468
34.401
34.338
34.278
34.221
34.167
34.116
34.068
34.02
33.972
33.924
33.876
33.829
33.782
33.737
33.692
33.65
33.61
33.572
33.537
33.505
33.474
33.446
33.419
33.393
33.367
33.34
33.312
33.282
33.251
33.218
33.182
33.145
33.107
33.066
33.025
32.984
32.944
32.905
32.867
32.831
32.795
32.762
32.732
32.705
32.682
32.667
32.661
32.668
32.691
32.734
32.797
32.887
33.003
33.149
33.326
33.534
33.775
34.047
34.348
34.675
35.025
35.394
35.777
36.17
36.568
36.967
37.362
37.749
38.121
38.477
38.811
39.12
39.403
39.658
39.883
40.078
40.242
40.376
40.481
40.557
40.607
40.632
40.635
40.617
40.582
40.531
40.467
40.391
40.304
40.209
40.107
40.0
39.888
39.774
39.659
39.543
39.427
39.311
39.196
39.08
38.964
38.847
38.729
38.609
38.488
38.365
38.241
38.114
37.985
37.855
37.724
37.593
37.463
37.336
37.212
37.093
36.98
36.874
36.776
36.686
36.606
36.535
36.475
36.426
36.386
36.355
36.333
36.316
36.306
36.3
36.297
36.297
36.301
36.306
36.313
36.322
36.333
36.345
36.357
36.369
36.381
36.391
36.4
36.406
36.409
36.407
36.4
36.386
36.364
36.333
36.293
36.244
36.188
36.125
36.056
35.982
35.906
35.829
35.752
35.676
35.603
35.533
35.467
35.405
35.346
35.291
35.237
35.185
35.133
35.079
35.025
34.969
34.912
34.854
34.793
34.73
34.666
34.599
34.53
34.459
34.387
34.313
34.239
34.166
34.094
34.025
33.96
33.899
33.842
33.791
33.745
33.705
33.668
33.635
33.603
33.573
33.543
33.512
33.478
33.443
33.405
33.366
33.324
33.281
33.238
33.196
33.156
33.121
33.09
33.064
33.042
33.023
33.008
32.994
32.982
32.97
32.959
32.948
32.935
32.92
32.904
32.887
32.868
32.85
32.833
32.82
32.814
32.819
32.838
32.875
32.936
33.023
33.141
33.293
33.48
33.705
33.966
34.263
34.593
34.953
35.338
35.744
36.163
36.591
37.021
37.448
37.866
38.271
38.657
39.022
39.362
39.674
39.956
40.207
40.428
40.617
40.775
40.904
41.004
41.076
41.123
41.146
41.147
41.129
41.094
41.045
40.984
40.915
40.838
40.755
40.669
40.581
40.49
40.396
40.302
40.206
40.11
40.012
39.911
39.809
39.705
39.6
39.492
39.384
39.273
39.161
39.047
38.931
38.814
38.696
38.578
38.461
38.346
38.233
38.123
38.016
37.913
37.816
37.723
37.636
37.554
37.478
37.408
37.343
37.284
37.23
37.181
37.137
37.097
37.06
37.026
36.996
36.969
36.947
36.928
36.914
36.904
36.897
36.892
36.886
36.88
36.871
36.859
36.843
36.823
36.8
36.772
36.741
36.705
36.666
36.624
36.579
36.53
36.48
36.428
36.375
36.32
36.263
36.203
36.142
36.078
36.011
35.942
35.871
35.797
35.721
35.643
35.563
35.482
35.399
35.317
35.235
35.156
35.079
35.005
34.934
34.866
34.8
34.736
34.672
34.608
34.543
34.475
34.405
34.333
34.261
34.188
34.116
34.045
33.978
33.914
33.854
33.799
33.75
33.706
33.666
33.631
33.6
33.571
33.543
33.515
33.488
33.459
33.43
33.399
33.367
33.335
33.301
33.268
33.235
33.202
33.169
33.134
33.097
33.059
33.02
32.981
32.94
32.9
32.86
32.821
32.782
32.746
32.712
32.681
32.653
32.63
32.61
32.595
32.586
32.584
32.592
32.612
32.646
32.696
32.767
32.859
32.977
33.122
33.298
33.506
33.749
34.027
34.337
34.68
35.051
35.448
35.864
36.296
36.737
37.182
37.624
38.058
38.48
38.884
39.265
39.619
39.943
40.235
40.492
40.715
40.904
41.061
41.186
41.283
41.354
41.401
41.428
41.437
41.431
41.413
41.384
41.345
41.298
41.243
41.18
41.111
41.035
40.953
40.866
40.775
40.688
40.609
40.536
40.469
40.405
40.339
40.265
40.174
40.067
39.945
39.811
39.669
39.522
39.374
39.227
39.081
38.939
38.807
38.686
38.58
38.488
38.407
38.332
38.26
38.189
38.118
38.046
37.973
37.901
37.828
37.757
37.689
37.623
37.561
37.502
37.448
37.397
37.35
37.306
37.266
37.229
37.195
37.162
37.129
37.095
37.059
37.022
36.982
36.94
36.896
36.851
36.806
36.763
36.722
36.684
36.647
36.612
36.577
36.542
36.507
36.47
36.431
36.39
36.344
36.293
36.237
36.175
36.106
36.028
35.943
35.851
35.754
35.653
35.55
35.447
35.345
35.247
35.155
35.067
34.986
34.911
34.841
34.775
34.713
34.653
34.593
34.533
34.472
34.41
34.347
34.284
34.219
34.152
34.084
34.014
33.946
33.878
33.812
33.749
33.69
33.636
33.589
33.546
33.508
33.475
33.446
33.42
33.396
33.374
33.352
33.33
33.306
33.28
33.25
33.217
33.179
33.136
33.09
33.039
32.985
32.929
32.873
32.818
32.765
32.715
32.67
32.628
32.592
32.56
32.531
32.507
32.485
32.464
32.443
32.421
32.399
32.375
32.351
32.327
32.306
32.288
32.276
32.273
32.279
32.299
32.336
32.393
32.474
32.582
32.722
32.894
33.102
33.346
33.625
33.939
34.283
34.654
35.049
35.462
35.889
36.325
36.763
37.197
37.623
38.033
38.425
38.794
39.138
39.455
39.743
40.001
40.229
40.426
40.595
40.735
40.848
40.935
40.997
41.038
41.058
41.057
41.039
41.004
40.953
40.887
40.809
40.721
40.624
40.522
40.417
40.31
40.203
40.099
39.998
39.9
39.807
39.717
39.63
39.544
39.459
39.374
39.29
39.204
39.116
39.025
38.931
38.832
38.728
38.62
38.507
38.389
38.268
38.145
38.024
37.905
37.79
37.681
37.58
37.488
37.406
37.333
37.268
37.211
37.159
37.111
37.066
37.022
36.98
36.938
36.897
36.856
36.816
36.776
36.736
36.696
36.655
36.615
36.575
36.535
36.496
36.457
36.421
36.387
36.354
36.323
36.292
36.26
36.228
36.195
36.162
36.129
36.094
36.057
36.016
35.97
35.917
35.856
35.785
35.704
35.614
35.516
35.412
35.305
35.195
35.086
34.978
34.874
34.775
34.683
34.597
34.52
34.449
34.385
34.327
34.274
34.225
34.177
34.13
34.082
34.032
33.981
33.927
33.87
33.811
33.75
33.687
33.624
33.56
33.497
33.435
33.375
33.317
33.262
33.21
33.16
33.112
33.066
33.022
32.98
32.939
32.899
32.86
32.819
32.778
32.736
32.692
32.646
32.599
32.552
32.505
32.46
32.418
32.379
32.345
32.316
32.291
32.27
32.252
32.238
32.225
32.213
32.201
32.188
32.174
32.16
32.143
32.126
32.106
32.083
32.057
32.029
31.997
31.962
31.924
31.884
31.844
31.805
31.767
31.732
31.701
31.676
31.656
31.642
31.634
31.632
31.635
31.644
31.661
31.685
31.72
31.769
31.834
31.919
32.028
32.164
32.331
32.531
32.766
33.037
33.342
33.679
34.047
34.441
34.857
35.29
35.734
36.184
36.634
37.079
37.513
37.931
38.327
38.697
39.037
39.345
39.619
39.858
40.062
40.231
40.366
40.469
40.542
40.586
40.606
40.603
40.582
40.544
40.493
40.43
40.36
40.283
40.203
40.12
40.036
39.951
39.865
39.779
39.69
39.599
39.504
39.406
39.302
39.194
39.081
38.965
38.846
38.724
38.601
38.477
38.352
38.228
38.106
37.985
37.866
37.75
37.636
37.526
37.419
37.317
37.219
37.125
37.036
36.951
36.87
36.791
36.715
