Trial 1:0back
35.35
35.363
35.373
35.381
35.387
35.39
35.391
35.39
35.385
35.377
35.367
35.353
35.339
35.322
35.304
35.285
35.265
35.243
35.22
35.196
35.172
35.149
35.128
35.11
35.093
35.078
35.064
35.052
35.042
35.033
35.024
35.014
35.002
34.988
34.971
34.952
34.933
34.914
34.897
34.881
34.867
34.854
34.842
34.831
34.821
34.81
34.799
34.788
34.776
34.764
34.753
34.743
34.736
34.73
34.726
34.723
34.722
34.721
34.72
34.719
34.718
34.716
34.713
34.708
34.702
34.695
34.688
34.681
34.675
34.669
34.664
34.659
34.655
34.652
34.65
34.65
34.65
34.651
34.651
34.652
34.652
34.652
34.651
34.651
34.649
34.646
34.642
34.636
34.629
34.62
34.611
34.601
34.591
34.581
34.57
34.56
34.551
34.544
34.537
34.531
34.525
34.519
34.513
34.507
34.501
34.496
34.492
34.488
34.485
34.482
34.48
34.479
34.481
34.485
34.491
34.498
34.508
34.52
34.534
34.552
34.575
34.602
34.636
34.675
34.722
34.775
34.835
34.902
34.975
35.053
35.135
35.219
35.304
35.389
35.473
35.553
35.63
35.701
35.765
35.82
35.866
35.902
35.928
35.945
35.953
35.953
35.945
35.931
35.91
35.885
35.855
35.823
35.79
35.756
35.722
35.688
35.656
35.625
35.595
35.567
35.541
35.516
35.493
35.468
35.443
35.417
35.389
35.36
35.33
35.3
35.269
35.237
35.204
35.172
35.139
35.108
35.079
35.052
35.027
35.005
34.984
34.966
34.949
34.935
34.924
34.916
34.911
34.91
34.912
34.917
34.926
34.938
34.953
34.972
34.991
35.012
35.032
35.053
35.073
35.092
35.112
35.131
35.15
35.167
35.184
35.199
35.214
35.227
35.239
35.251
35.261
35.271
35.279
35.286
35.292
35.296
35.298
35.298
35.296
35.292
35.285
35.275
35.263
35.249
35.235
35.22
35.205
35.19
35.176
35.16
35.144
35.128
35.113
35.097
35.083
35.068
35.054
35.04
35.026
35.011
34.995
34.979
34.962
34.945
34.927
34.909
34.89
34.871
34.854
34.838
34.823
34.81
34.798
34.786
34.776
34.767
34.759
34.753
34.748
34.745
34.741
34.738
34.735
34.731
34.728
34.725
34.721
34.717
34.712
34.707
34.702
34.697
34.694
34.693
34.691
34.691
34.69
34.688
34.687
34.684
34.682
34.679
34.676
34.672
34.668
34.663
34.659
34.656
34.654
34.653
34.654
34.654
34.654
34.654
34.654
34.653
34.65
34.647
34.641
34.634
34.624
34.613
34.602
34.592
34.583
34.576
34.57
34.566
34.564
34.563
34.563
34.564
34.566
34.568
34.569
34.57
34.57
34.57
34.57
34.57
34.571
34.573
34.577
34.581
34.589
34.601
34.619
34.643
34.675
34.715
34.763
34.819
34.883
34.954
35.032
35.115
35.201
35.288
35.374
35.458
35.538
35.612
35.681
35.743
35.797
35.843
35.88
35.908
35.926
35.936
35.938
35.933
35.924
35.91
35.892
35.871
35.848
35.823
35.797
35.77
35.742
35.713
35.683
35.651
35.618
35.583
35.549
35.515
35.481
35.447
35.413
35.379
35.345
35.311
35.277
35.244
35.213
35.182
35.151
35.122
35.093
35.065
35.041
35.019
35.001
34.986
34.975
34.965
34.957
34.951
34.947
34.946
34.945
34.946
34.946
34.948
34.95
34.954
34.961
34.97
34.982
34.997
35.013
35.031
35.05
35.071
35.093
35.117
35.143
35.168
35.194
35.22
35.245
35.268
35.29
35.309
35.323
35.333
35.339
35.34
35.337
35.331
35.321
35.31
35.297
35.283
35.267
35.251
35.235
35.22
35.206
35.195
35.185
35.176
35.168
35.16
35.152
35.145
35.137
35.13
35.121
35.11
35.096
35.078
35.059
35.037
35.014
34.99
34.967
34.944
34.922
34.9
34.881
34.865
34.851
34.839
34.83
34.821
34.814
34.807
34.8
34.794
34.788
34.782
34.776
34.77
34.763
34.757
34.752
34.747
34.741
34.735
34.728
34.719
34.71
34.7
34.69
34.681
34.674
34.668
34.664
34.661
34.66
34.661
34.663
34.667
34.673
34.68
34.686
34.692
34.698
34.702
34.705
34.707
34.707
34.705
34.7
34.692
34.683
34.672
34.66
34.648
34.637
34.627
34.619
34.612
34.607
34.604
34.603
34.603
34.604
34.605
34.606
34.606
34.606
34.605
34.603
34.602
34.6
34.599
34.598
34.598
34.6
34.605
34.613
34.625
34.642
34.665
34.694
34.731
34.775
34.827
34.888
34.956
35.031
35.113
35.2
35.29
35.382
35.475
35.566
35.654
35.738
35.818
35.892
35.959
36.018
36.068
36.109
36.141
36.164
36.178
36.183
36.18
36.171
36.156
36.137
36.113
36.087
36.059
36.028
35.996
35.963
35.929
35.895
35.86
35.827
35.794
35.763
35.732
35.703
35.675
35.647
35.62
35.593
35.568
35.543
35.52
35.498
35.477
35.457
35.439
35.422
35.407
35.392
35.378
35.363
35.346
35.326
35.306
35.284
35.262
35.24
35.219
35.199
35.179
35.161
35.146
35.134
35.125
35.12
35.119
35.123
35.131
35.144
35.161
35.182
35.206
35.234
35.264
35.294
35.325
35.354
35.381
35.405
35.425
35.442
35.455
35.465
35.471
35.474
35.475
35.473
35.471
35.467
35.464
35.459
35.455
35.449
35.443
35.438
35.432
35.426
35.419
35.412
35.402
35.39
35.376
35.359
35.34
35.32
35.299
35.278
35.255
35.233
35.211
35.19
35.171
35.153
35.137
35.122
35.107
35.093
35.08
35.067
35.055
35.043
35.031
35.018
35.005
34.991
34.976
34.962
34.948
34.934
34.921
34.908
34.894
34.881
34.867
34.855
34.845
34.837
34.83
34.825
34.82
34.816
34.813
34.812
34.812
34.813
34.814
34.815
34.814
34.812
34.809
34.806
34.803
34.8
34.798
34.795
34.793
34.79
34.787
34.785
34.784
34.782
34.78
34.778
34.775
34.773
34.771
34.77
34.769
34.769
34.769
34.769
34.767
34.765
34.763
34.76
34.757
34.752
34.747
34.74
34.733
34.727
34.722
34.719
34.718
34.718
34.719
34.722
34.728
34.739
34.754
34.776
34.804
34.838
34.879
34.927
34.983
35.047
35.119
35.197
35.28
35.366
35.453
35.541
35.628
35.713
35.795
35.871
35.941
36.005
36.059
36.104
36.139
36.166
36.184
36.194
36.197
36.193
36.182
36.165
36.143
36.118
36.091
36.061
36.031
35.999
35.966
35.933
35.9
35.868
35.837
35.808
35.779
35.752
35.725
35.7
35.676
35.653
35.631
35.61
35.59
35.568
35.545
35.521
35.497
35.473
35.449
35.427
35.405
35.385
35.366
35.347
35.328
35.309
35.291
35.272
35.254
35.236
35.218
35.203
35.19
35.179
35.172
35.168
35.167
35.169
35.175
35.184
35.195
35.208
35.223
35.24
35.258
35.277
35.296
35.315
35.333
35.351
35.367
35.382
35.396
35.408
35.418
35.426
35.431
35.433
35.432
35.428
35.422
35.413
35.402
35.389
35.373
35.357
35.341
35.326
35.312
35.301
35.29
35.28
35.27
35.261
35.252
35.245
35.238
35.232
35.225
35.217
35.209
35.199
35.189
35.178
35.166
35.154
35.141
35.127
35.113
35.098
35.084
35.07
35.058
35.048
35.04
35.033
35.026
35.019
35.012
35.005
34.996
34.987
34.976
34.964
34.949
34.932
34.915
34.897
34.879
34.862
34.846
34.83
34.814
34.799
34.785
34.774
34.765
34.759
34.755
34.752
34.751
34.752
34.753
34.757
34.761
34.765
34.768
34.77
34.769
34.767
34.763
34.757
34.75
34.742
34.732
34.721
34.709
34.698
34.688
34.68
34.674
34.669
34.665
34.661
34.659
34.657
34.657
34.66
34.664
34.671
34.68
34.69
34.703
34.718
34.735
34.756
34.78
34.807
34.837
34.87
34.907
34.949
34.995
35.048
35.105
35.168
35.234
35.303
35.374
35.446
35.519
35.592
35.664
35.734
35.799
35.86
35.915
35.964
36.007
36.043
36.073
36.095
36.108
36.114
36.112
36.102
36.087
36.066
36.04
36.009
35.975
35.938
35.898
35.858
35.818
35.779
35.743
35.707
35.674
35.643
35.614
35.588
35.564
35.542
35.522
35.501
35.479
35.456
35.431
35.405
35.378
35.351
35.323
35.295
35.266
35.237
35.21
35.183
35.16
35.138
35.12
35.104
35.092
35.082
35.076
35.073
35.075
35.08
35.089
35.101
35.115
35.129
35.144
35.16
35.175
35.191
35.207
35.222
35.237
35.252
35.266
35.281
35.296
35.312
35.328
35.345
35.362
35.379
35.396
35.413
35.43
35.446
35.46
35.471
35.478
35.482
35.483
35.481
35.476
35.469
35.459
35.446
35.431
35.413
35.393
35.372
35.351
35.329
35.307
35.285
35.263
35.241
35.218
35.196
35.176
35.157
35.14
35.124
35.109
35.095
35.082
35.07
35.058
35.047
35.035
35.023
35.01
34.998
34.985
34.974
34.962
34.952
34.943
34.935
34.927
34.922
34.917
34.913
34.911
34.909
34.906
34.903
34.899
34.893
34.888
34.882
34.876
34.871
34.866
34.86
34.855
34.85
34.845
34.841
34.837
34.834
34.832
34.829
34.826
34.822
34.818
34.814
34.809
34.804
34.797
34.79
34.782
34.773
34.765
34.758
34.752
34.748
34.746
34.747
34.749
34.752
34.758
34.765
34.773
34.782
34.792
34.804
34.816
34.831
34.849
34.871
34.899
34.932
34.971
35.015
35.066
35.122
35.184
35.251
35.322
35.396
35.471
35.547
35.622
35.694
35.764
35.831
35.893
35.95
36.001
36.045
36.082
36.11
36.13
36.142
36.148
36.147
36.14
36.126
36.108
36.085
36.058
36.028
35.997
35.965
35.933
35.899
35.866
35.834
35.802
35.77
35.739
35.708
35.677
35.645
35.613
35.58
35.547
35.515
35.482
35.45
35.419
35.388
35.358
35.329
35.301
35.274
35.248
35.224
35.203
35.183
35.165
35.149
35.136
35.126
35.119
35.115
35.114
35.116
35.12
35.127
35.135
35.146
35.159
35.174
35.191
35.209
35.227
35.246
35.264
35.281
35.298
35.314
35.33
35.345
35.359
35.372
35.384
35.394
35.404
35.413
35.422
35.432
35.441
35.451
35.461
35.47
35.478
35.484
35.489
35.491
35.491
35.488
35.483
35.476
35.467
35.456
35.442
35.427
35.41
35.391
35.369
35.346
35.322
35.299
35.277
35.256
35.237
35.221
35.207
35.194
35.183
35.173
35.163
35.153
35.141
35.127
35.112
35.096
35.08
35.064
35.047
35.031
35.015
34.998
34.982
34.967
34.953
34.94
34.93
34.921
34.913
34.908
34.903
34.9
34.898
34.897
34.897
34.896
34.894
34.889
34.883
34.875
34.866
34.856
34.846
34.836
34.826
34.815
34.806
34.799
34.795
34.794
34.796
34.801
34.808
34.817
34.83
34.847
34.868
34.894
34.924
34.959
35.0
35.046
35.098
35.156
35.22
35.29
35.363
35.44
35.519
35.599
35.679
35.757
35.835
35.91
35.982
36.049
36.11
36.165
36.215
36.258
36.296
36.329
36.356
36.376
36.389
36.396
36.396
36.391
36.38
36.365
36.346
36.323
36.296
36.267
36.236
36.203
36.17
36.137
36.105
36.074
36.043
36.012
35.982
35.952
35.922
35.892
35.862
35.833
35.804
35.774
35.744
35.715
35.685
35.655
35.626
35.598
35.57
35.543
35.516
35.49
35.466
35.445
35.427
35.411
35.399
35.389
35.382
35.378
35.376
35.378
35.384
35.392
35.402
35.414
35.425
35.438
35.452
35.466
35.48
35.494
35.508
35.52
35.531
35.542
35.554
35.566
35.579
35.593
35.607
35.621
35.635
35.649
35.663
35.677
35.689
35.7
35.709
35.716
35.718
35.718
35.714
35.708
35.699
35.687
35.672
35.654
35.634
35.612
35.59
35.568
35.546
35.525
35.504
35.484
35.464
35.444
35.425
35.408
35.393
35.38
35.368
35.356
35.344
35.331
35.319
35.306
35.294
35.283
35.27
35.257
35.242
35.225
35.207
35.189
35.171
35.154
35.137
35.121
35.106
35.093
35.082
35.072
35.064
35.058
35.051
35.046
35.04
35.035
35.03
35.025
35.021
35.017
35.011
35.005
34.999
34.994
34.99
34.986
34.984
34.982
34.98
34.978
34.976
34.974
34.973
34.974
34.976
34.98
34.987
34.996
35.008
35.025
35.048
35.076
35.11
35.149
35.194
35.243
35.298
35.358
35.423
35.493
35.567
35.644
35.722
35.801
35.879
35.956
36.031
36.103
36.171
36.234
36.29
36.34
36.382
36.416
36.444
36.464
36.477
36.483
36.481
36.473
36.457
36.435
36.409
36.378
36.344
36.308
36.271
36.232
36.193
36.155
36.118
36.083
36.051
36.022
35.995
35.971
35.948
35.928
35.909
35.892
35.876
35.86
35.843
35.825
35.805
35.782
35.757
35.731
35.704
35.676
35.65
35.625
35.603
35.582
35.565
35.55
35.537
35.528
35.521
35.517
35.515
35.515
35.517
35.522
35.528
35.537
35.546
35.556
35.566
35.576
35.585
35.595
35.604
35.614
35.624
35.634
35.645
35.655
35.664
35.673
35.682
35.691
35.699
35.705
35.71
35.714
35.715
35.715
35.714
35.712
35.708
35.702
35.694
35.683
35.668
35.651
35.632
35.613
35.592
35.571
35.55
35.529
35.508
35.488
35.469
35.452
35.436
35.422
35.408
35.394
35.38
35.366
35.352
35.339
35.327
35.315
35.303
35.291
35.278
35.265
35.252
35.238
35.223
35.207
35.19
35.172
35.153
35.134
35.116
35.1
35.087
35.075
35.065
35.057
35.051
35.047
35.046
35.047
35.05
35.055
35.06
35.065
35.071
35.077
35.081
35.085
35.086
35.084
35.078
35.07
35.059
35.047
35.034
35.023
35.012
35.003
34.995
34.988
34.983
34.981
34.98
34.982
34.986
34.991
34.998
35.007
35.018
35.032
35.048
35.068
35.09
35.114
35.141
35.17
35.204
35.243
35.289
35.341
35.399
35.462
35.529
35.599
35.673
35.748
35.823
35.898
35.97
36.037
36.099
36.155
36.204
36.246
36.281
36.308
36.328
36.339
36.342
36.337
36.326
36.31
36.29
36.266
36.24
36.212
36.182
36.151
36.12
36.091
36.063
36.036
36.01
35.986
35.964
35.943
35.924
35.906
35.889
35.872
35.855
35.836
35.816
35.795
35.773
35.75
35.727
35.702
35.677
35.651
35.626
35.6
35.575
35.552
35.531
35.512
35.494
35.478
35.463
35.45
35.439
35.432
35.427
35.426
35.428
35.431
35.436
35.442
35.45
35.458
35.468
35.479
35.492
35.505
35.519
35.533
35.548
35.563
35.579
35.594
35.609
35.622
35.633
35.641
35.646
35.65
35.651
35.65
35.647
35.641
35.633
35.621
35.606
35.589
35.57
35.55
35.528
35.506
35.484
35.462
35.441
35.421
35.404
35.389
35.374
35.36
35.347
35.334
35.321
35.309
35.297
35.286
35.275
35.263
35.251
35.24
35.229
35.218
35.207
35.196
35.185
35.171
35.157
35.142
35.128
35.114
35.102
35.091
35.081
35.072
35.064
35.058
35.054
35.051
35.049
35.048
35.046
35.043
35.039
35.035
35.03
35.025
35.019
35.013
35.005
34.995
34.985
34.974
34.963
34.954
34.945
34.937
34.929
34.922
34.915
34.909
34.903
34.898
34.893
34.889
34.884
34.879
34.874
34.868
34.864
34.859
34.855
34.85
34.844
34.838
34.831
34.825
34.819
34.814
34.81
34.807
34.805
34.805
34.807
34.812
34.82
34.832
34.848
34.869
34.896
34.929
34.969
35.016
35.07
35.131
35.198
35.269
35.345
35.423
35.502
35.582
35.66
35.736
35.808
35.873
35.932
35.983
36.026
36.062
36.091
36.114
36.131
36.143
36.148
36.149
36.145
36.137
36.126
36.112
36.096
36.077
36.056
36.033
36.007
35.981
35.953
35.926
35.897
35.869
35.84
35.81
35.781
35.752
35.724
35.697
35.672
35.647
35.622
35.597
35.573
35.548
35.524
35.5
35.476
35.453
35.429
35.405
35.382
35.361
35.342
35.325
35.311
35.299
35.288
35.28
35.275
35.272
35.273
35.276
35.282
35.292
35.303
35.318
35.335
35.355
35.377
35.401
35.426
35.449
35.472
35.493
35.512
35.528
35.543
35.557
35.568
35.577
35.582
35.585
35.585
35.582
35.578
35.572
35.565
35.556
35.547
35.535
35.523
35.51
35.497
35.484
35.47
35.457
35.442
35.425
35.409
35.391
35.374
35.358
35.343
35.327
35.312
35.297
35.282
35.267
35.252
35.237
35.221
35.205
35.188
35.172
35.156
35.141
35.128
35.117
35.108
35.1
35.092
35.084
35.077
35.071
35.065
35.058
35.051
35.042
35.031
35.019
35.006
34.993
34.981
34.97
34.96
34.951
34.943
34.936
34.93
34.926
34.923
34.921
34.919
34.918
34.916
34.916
34.917
34.918
34.92
34.922
34.921
34.918
34.913
34.905
34.895
34.884
34.872
34.86
34.849
34.838
34.828
34.819
34.813
34.808
34.804
34.801
34.799
34.796
34.793
34.79
34.788
34.786
34.786
34.785
34.786
34.787
34.789
34.792
34.797
34.803
34.81
34.82
34.831
34.844
34.862
34.884
34.912
34.946
34.985
35.029
35.077
35.13
35.188
35.25
35.318
35.389
35.463
35.538
35.612
35.683
35.75
35.813
35.871
35.923
35.967
36.003
36.029
36.046
36.053
36.052
36.044
36.03
36.011
35.988
35.961
35.933
35.905
35.878
35.854
35.831
35.812
35.793
35.776
35.759
35.743
35.726
35.709
35.692
35.673
35.653
35.631
35.606
35.577
35.547
35.514
35.48
35.445
35.409
35.373
35.338
35.303
35.27
35.239
35.211
35.187
35.167
35.15
35.137
35.128
35.122
35.12
35.121
35.124
35.13
35.135
35.142
35.149
35.158
35.168
35.179
35.192
35.205
35.218
35.231
35.245
35.259
35.274
35.289
35.304
35.318
35.33
35.341
35.35
35.358
35.366
35.372
35.378
35.382
35.384
35.383
35.382
35.378
35.374
35.368
35.36
35.351
35.341
35.328
35.315
35.3
35.284
35.268
35.252
35.234
35.216
35.198
35.179
35.161
35.144
35.128
35.114
35.102
35.091
35.081
35.072
35.063
35.056
35.048
35.04
35.03
35.02
35.008
34.995
34.981
34.968
34.955
34.941
34.927
34.912
34.897
34.882
34.867
34.854
34.842
34.831
34.822
34.814
34.808
34.804
34.802
34.801
34.802
34.802
34.802
34.802
34.8
34.799
34.796
34.793
34.79
34.787
34.783
34.778
34.774
34.769
34.765
34.761
34.758
34.756
34.754
34.752
34.752
34.752
34.752
34.752
34.753
34.754
34.755
34.756
34.756
34.756
34.754
34.752
34.747
34.742
34.735
34.727
34.719
34.711
34.703
34.695
34.688
34.682
34.676
34.671
34.667
34.663
34.661
34.662
34.665
34.672
34.684
34.7
34.723
34.751
34.785
34.825
34.871
34.923
34.981
35.046
35.116
35.191
35.27
35.351
35.433
35.514
35.593
35.668
35.737
35.801
35.857
35.904
35.944
35.975
35.998
36.015
36.024
36.029
36.028
36.023
36.014
36.001
35.985
35.967
35.945
35.922
35.897
35.871
35.844
35.816
35.787
35.757
35.727
35.698
35.67
35.642
35.616
35.59
35.567
35.545
35.525
35.506
35.489
35.473
35.456
35.439
35.421
35.402
35.382
35.362
35.342
35.321
35.3
35.28
35.26
35.241
35.224
35.209
35.197
35.187
35.18
35.176
35.176
35.178
35.184
35.193
35.204
35.218
35.233
35.251
35.269
35.287
35.305
35.322
35.339
35.354
35.368
35.38
35.389
35.397
35.404
35.408
35.412
35.415
35.417
35.417
35.417
35.414
35.411
35.406
35.401
35.397
35.392
35.387
35.381
35.373
35.363
35.351
35.338
35.322
35.305
35.285
35.264
35.242
35.22
35.198
35.177
35.158
35.139
35.123
35.108
35.094
35.083
35.073
35.065
35.059
35.053
35.047
35.042
35.036
35.03
35.023
35.015
35.005
34.994
34.981
34.966
34.95
34.933
34.917
34.903
34.89
34.878
34.869
34.86
34.852
34.846
34.839
34.834
34.828
34.824
34.82
34.816
34.813
34.81
34.81
34.81
34.812
34.815
34.818
34.82
34.823
34.825
34.828
34.83
34.833
34.834
34.835
34.834
34.833
34.83
34.827
34.823
34.818
34.812
34.805
34.797
34.788
34.778
34.769
34.76
34.752
34.745
34.739
34.734
34.73
34.727
34.725
34.724
34.722
34.719
34.714
34.707
34.699
34.689
34.679
34.669
34.659
34.649
34.641
34.633
34.627
34.622
34.619
34.617
34.616
34.616
34.618
34.622
34.628
34.637
34.65
34.666
34.688
34.714
34.745
34.781
34.823
34.872
34.927
34.988
35.054
35.125
35.2
35.278
35.357
35.437
35.517
35.593
35.666
35.732
35.793
35.848
35.896
35.939
35.976
36.006
36.03
36.047
36.056
36.06
36.057
36.048
36.033
36.013
35.988
35.96
35.928
35.894
35.86
35.826
35.793
35.761
35.731
35.701
35.673
35.646
35.62
35.595
35.572
35.551
35.53
35.509
35.489
35.469
35.45
35.43
35.411
35.392
35.372
35.352
35.33
35.307
35.284
35.261
35.239
35.218
35.198
35.179
35.161
35.146
35.133
35.123
35.118
35.116
35.118
35.123
35.131
35.143
35.157
35.175
35.195
35.217
35.239
35.261
35.281
35.299
35.317
35.334
35.35
35.364
35.376
35.386
35.394
35.401
35.406
35.411
35.414
35.415
35.413
35.409
35.403
35.395
35.387
35.379
35.371
35.365
35.358
35.351
35.343
35.334
35.324
35.313
35.3
35.285
35.268
35.247
35.225
35.201
35.177
35.154
35.131
35.11
35.09
35.071
35.052
35.034
35.018
35.005
34.993
34.984
34.976
34.969
34.962
34.955
34.949
