Trial 1:0back
35.962
35.941
35.923
35.91
35.901
35.895
35.894
35.895
35.9
35.908
35.917
35.928
35.939
35.952
35.964
35.978
35.993
36.008
36.024
36.039
36.054
36.068
36.081
36.093
36.106
36.119
36.132
36.145
36.158
36.17
36.18
36.189
36.194
36.197
36.196
36.191
36.183
36.171
36.156
36.138
36.118
36.095
36.07
36.045
36.018
35.99
35.962
35.934
35.905
35.877
35.849
35.821
35.794
35.767
35.742
35.718
35.695
35.673
35.652
35.631
35.611
35.59
35.57
35.55
35.529
35.509
35.488
35.467
35.446
35.425
35.403
35.381
35.359
35.338
35.318
35.298
35.28
35.262
35.247
35.233
35.222
35.212
35.203
35.195
35.186
35.178
35.17
35.162
35.155
35.148
35.141
35.133
35.125
35.117
35.108
35.101
35.094
35.088
35.082
35.077
35.07
35.064
35.058
35.051
35.045
35.038
35.031
35.024
35.019
35.015
35.015
35.018
35.026
35.039
35.059
35.086
35.122
35.169
35.226
35.294
35.373
35.462
35.559
35.663
35.773
35.888
36.006
36.124
36.242
36.358
36.471
36.58
36.683
36.781
36.872
36.955
37.03
37.096
37.152
37.197
37.233
37.259
37.276
37.285
37.288
37.283
37.274
37.259
37.24
37.217
37.19
37.159
37.126
37.089
37.049
37.007
36.963
36.917
36.87
36.823
36.777
36.731
36.687
36.644
36.603
36.562
36.523
36.485
36.448
36.412
36.377
36.344
36.311
36.279
36.247
36.216
36.184
36.152
36.121
36.09
36.061
36.032
36.007
35.984
35.966
35.952
35.944
35.94
35.942
35.948
35.958
35.972
35.988
36.007
36.026
36.047
36.066
36.084
36.101
36.116
36.13
36.142
36.153
36.162
36.169
36.175
36.18
36.184
36.188
36.191
36.195
36.198
36.2
36.199
36.196
36.191
36.183
36.174
36.163
36.15
36.136
36.119
36.1
36.08
36.058
36.035
36.012
35.989
35.967
35.944
35.921
35.899
35.878
35.858
35.839
35.821
35.802
35.783
35.762
35.739
35.716
35.692
35.668
35.643
35.619
35.594
35.569
35.544
35.522
35.5
35.481
35.462
35.445
35.429
35.413
35.397
35.381
35.364
35.347
35.329
35.311
35.293
35.274
35.255
35.236
35.218
35.202
35.186
35.171
35.156
35.142
35.128
35.115
35.102
35.088
35.074
35.058
35.04
35.021
35.001
34.982
34.964
34.947
34.932
34.918
34.907
34.899
34.895
34.893
34.895
34.901
34.909
34.919
34.93
34.941
34.955
34.971
34.991
35.015
35.044
35.079
35.122
35.172
35.232
35.301
35.382
35.472
35.571
35.679
35.793
35.913
36.038
36.165
36.294
36.423
36.548
36.668
36.78
36.882
36.974
37.054
37.123
37.18
37.225
37.258
37.28
37.292
37.294
37.289
37.278
37.263
37.243
37.22
37.193
37.164
37.134
37.102
37.071
37.04
37.01
36.98
36.95
36.918
36.886
36.853
36.82
36.787
36.753
36.72
36.686
36.652
36.618
36.584
36.548
36.512
36.475
36.436
36.396
36.354
36.31
36.266
36.223
36.18
36.139
36.101
36.065
36.032
36.002
35.975
35.951
35.931
35.916
35.905
35.899
35.898
35.902
35.909
35.921
35.937
35.955
35.976
35.998
36.018
36.036
36.051
36.063
36.072
36.078
36.083
36.086
36.086
36.085
36.082
36.077
36.073
36.068
36.063
36.058
36.052
36.045
36.037
36.027
36.017
36.007
35.996
35.985
35.974
35.962
35.949
35.935
35.918
35.9
35.88
35.858
35.834
35.808
35.779
35.75
35.72
35.691
35.662
35.634
35.607
35.579
35.553
35.528
35.504
35.481
35.461
35.442
35.424
35.406
35.388
35.37
35.352
35.333
35.315
35.295
35.274
35.251
35.227
35.203
35.179
35.155
35.133
35.11
35.088
35.066
35.045
35.025
35.007
34.991
34.977
34.964
34.953
34.944
34.936
34.931
34.926
34.922
34.917
34.911
34.903
34.894
34.885
34.875
34.865
34.857
34.849
34.842
34.837
34.832
34.829
34.826
34.824
34.823
34.822
34.822
34.824
34.828
34.836
34.849
34.868
34.893
34.926
34.966
35.014
35.071
35.138
35.214
35.298
35.391
35.491
35.598
35.71
35.828
35.949
36.073
36.197
36.318
36.436
36.548
36.653
36.751
36.84
36.921
36.994
37.057
37.109
37.152
37.184
37.206
37.219
37.224
37.222
37.214
37.2
37.181
37.157
37.13
37.099
37.068
37.035
37.002
36.968
36.933
36.897
36.861
36.825
36.789
36.755
36.721
36.688
36.654
36.619
36.582
36.545
36.508
36.471
36.434
36.397
36.36
36.321
36.282
36.243
36.204
36.166
36.13
36.095
36.061
36.028
35.996
35.966
35.938
35.915
35.896
35.882
35.872
35.866
35.863
35.864
35.867
35.874
35.883
35.895
35.908
35.922
35.937
35.952
35.967
35.983
35.998
36.013
36.027
36.04
36.051
36.059
36.064
36.067
36.069
36.069
36.067
36.063
36.056
36.048
36.038
36.027
36.016
36.004
35.991
35.978
35.963
35.946
35.929
35.91
35.891
35.872
35.851
35.829
35.805
35.779
35.751
35.721
35.691
35.659
35.625
35.59
35.553
35.516
35.479
35.444
35.41
35.378
35.347
35.317
35.288
35.261
35.235
35.213
35.192
35.174
35.158
35.143
35.13
35.118
35.107
35.097
35.088
35.079
35.069
35.058
35.046
35.033
35.02
35.008
34.996
34.985
34.973
34.961
34.949
34.936
34.923
34.91
34.898
34.885
34.872
34.859
34.846
34.834
34.823
34.813
34.803
34.794
34.786
34.777
34.769
34.762
34.756
34.751
34.745
34.74
34.735
34.731
34.729
34.731
34.736
34.747
34.762
34.784
34.812
34.847
34.891
34.945
35.01
35.086
35.174
35.271
35.377
35.492
35.614
35.743
35.875
36.009
36.142
36.272
36.396
36.513
36.621
36.719
36.807
36.885
36.951
37.006
37.05
37.082
37.104
37.117
37.121
37.119
37.11
37.097
37.079
37.058
37.034
37.008
36.98
36.952
36.922
36.892
36.861
36.829
36.795
36.76
36.724
36.689
36.655
36.62
36.586
36.551
36.514
36.476
36.438
36.399
36.359
36.319
36.278
36.235
36.191
36.145
36.1
36.055
36.011
35.968
35.925
35.883
35.841
35.802
35.766
35.734
35.706
35.682
35.663
35.648
35.639
35.636
35.639
35.646
35.658
35.673
35.689
35.707
35.725
35.744
35.762
35.78
35.797
35.811
35.824
35.834
35.842
35.849
35.854
35.856
35.856
35.854
35.85
35.845
35.839
35.833
35.826
35.821
35.815
35.81
35.805
35.8
35.795
35.789
35.783
35.776
35.766
35.754
35.74
35.723
35.704
35.683
35.66
35.635
35.609
35.581
35.551
35.521
35.491
35.461
35.433
35.406
35.381
35.356
35.331
35.307
35.283
35.26
35.236
35.213
35.189
35.165
35.141
35.116
35.091
35.067
35.042
35.018
34.993
34.969
34.944
34.92
34.896
34.874
34.852
34.831
34.811
34.793
34.774
34.757
34.739
34.722
34.706
34.69
34.675
34.661
34.649
34.637
34.628
34.621
34.614
34.609
34.604
34.599
34.594
34.589
34.584
34.579
34.573
34.567
34.56
34.551
34.542
34.532
34.522
34.511
34.501
34.491
34.482
34.475
34.471
34.471
34.475
34.483
34.497
34.515
34.539
34.57
34.61
34.659
34.718
34.788
34.868
34.958
35.059
35.17
35.289
35.414
35.545
35.678
35.811
35.942
36.071
36.196
36.315
36.426
36.529
36.623
36.706
36.778
36.839
36.888
36.926
36.952
36.969
36.977
36.977
36.97
36.958
36.941
36.919
36.895
36.867
36.836
36.802
36.766
36.727
36.687
36.646
36.606
36.567
36.529
36.492
36.456
36.42
36.385
36.349
36.314
36.279
36.243
36.206
36.167
36.127
36.085
36.041
35.996
35.951
35.905
35.86
35.815
35.771
35.728
35.687
35.65
35.618
35.591
35.568
35.55
35.536
35.527
35.523
35.523
35.527
35.535
35.545
35.557
35.569
35.583
35.597
35.612
35.627
35.643
35.659
35.674
35.687
35.699
35.71
35.72
35.729
35.738
35.745
35.751
35.755
35.757
35.757
35.756
35.752
35.747
35.738
35.727
35.714
35.699
35.683
35.666
35.649
35.631
35.613
35.593
35.572
35.551
35.529
35.508
35.487
35.467
35.447
35.426
35.406
35.385
35.364
35.344
35.324
35.303
35.281
35.257
35.232
35.206
35.179
35.153
35.126
35.099
35.071
35.042
35.012
34.983
34.954
34.926
34.9
34.874
34.849
34.826
34.805
34.786
34.769
34.754
34.741
34.729
34.717
34.707
34.698
34.689
34.681
34.673
34.663
34.652
34.64
34.627
34.614
34.602
34.59
34.579
34.569
34.56
34.551
34.544
34.539
34.535
34.533
34.532
34.532
34.532
34.533
34.534
34.536
34.538
34.54
34.543
34.545
34.547
34.55
34.553
34.557
34.563
34.571
34.582
34.597
34.617
34.645
34.68
34.724
34.778
34.841
34.913
34.995
35.085
35.185
35.293
35.409
35.531
35.658
35.785
35.911
36.034
36.154
36.268
36.376
36.475
36.565
36.642
36.707
36.759
36.799
36.828
36.847
36.856
36.857
36.85
36.836
36.815
36.791
36.762
36.732
36.701
36.669
36.636
36.601
36.566
36.53
36.493
36.456
36.418
36.379
36.339
36.297
36.255
36.211
36.168
36.125
36.081
36.036
35.99
35.943
35.896
35.85
35.804
35.758
35.714
35.67
35.628
35.588
35.55
35.516
35.485
35.458
35.434
35.414
35.397
35.383
35.371
35.364
35.36
35.36
35.365
35.374
35.385
35.399
35.416
35.436
35.458
35.483
35.509
35.536
35.562
35.585
35.606
35.624
35.639
35.652
35.661
35.668
35.672
35.673
35.672
35.669
35.664
35.658
35.649
35.638
35.626
35.611
35.595
35.579
35.563
35.547
35.53
35.513
35.496
35.478
35.461
35.442
35.423
35.403
35.382
35.358
35.334
35.308
35.282
35.256
35.228
35.2
35.171
35.142
35.112
35.082
35.054
35.027
35.0
34.975
34.951
34.927
34.905
34.884
34.865
34.846
34.827
34.807
34.786
34.763
34.741
34.718
34.696
34.674
34.653
34.631
34.61
34.59
34.571
34.553
34.537
34.522
34.507
34.493
34.48
34.468
34.458
34.451
34.446
34.443
34.441
34.441
34.442
34.444
34.447
34.45
34.452
34.454
34.454
34.454
34.453
34.452
34.451
34.45
34.449
34.447
34.446
34.445
34.446
34.45
34.458
34.469
34.485
34.507
34.537
34.576
34.626
34.686
34.757
34.839
34.931
35.033
35.144
35.262
35.386
35.516
35.649
35.782
35.913
36.041
36.163
36.278
36.385
36.483
36.571
36.649
36.714
36.767
36.808
36.838
36.857
36.867
36.868
36.861
36.847
36.827
36.801
36.772
36.739
36.706
36.671
36.637
36.602
36.566
36.53
36.494
36.457
36.421
36.385
36.348
36.31
36.27
36.229
36.187
36.145
36.105
36.065
36.027
35.99
35.954
35.918
35.883
35.848
35.813
35.78
35.746
35.713
35.679
35.646
35.614
35.584
35.555
35.53
35.507
35.487
35.469
35.454
35.442
35.434
35.428
35.427
35.428
35.432
35.44
35.45
35.462
35.477
35.494
35.513
35.532
35.55
35.567
35.582
35.596
35.609
35.621
35.631
35.64
35.647
35.652
35.653
35.652
35.647
35.64
35.629
35.614
35.595
35.573
35.549
35.524
35.498
35.474
35.45
35.428
35.406
35.384
35.363
35.342
35.322
35.302
35.282
35.26
35.237
35.212
35.185
35.157
35.129
35.101
35.073
35.045
35.017
34.99
34.963
34.936
34.91
34.885
34.861
34.835
34.809
34.783
34.757
34.732
34.708
34.686
34.666
34.647
34.629
34.612
34.597
34.582
34.568
34.552
34.535
34.516
34.495
34.474
34.453
34.432
34.413
34.394
34.376
34.359
34.343
34.328
34.315
34.303
34.292
34.281
34.272
34.264
34.257
34.253
34.252
34.252
34.255
34.259
34.264
34.27
34.277
34.285
34.294
34.303
34.312
34.323
34.335
34.352
34.374
34.403
34.439
34.485
34.539
34.602
34.675
34.758
34.85
34.951
35.058
35.17
35.287
35.406
35.527
35.649
35.769
35.884
35.994
36.096
36.19
36.274
36.349
36.415
36.47
36.514
36.546
36.568
36.579
36.581
36.575
36.561
36.541
36.515
36.485
36.451
36.414
36.376
36.337
36.299
36.26
36.222
36.184
36.146
36.108
36.071
36.034
35.998
35.963
35.927
35.892
35.855
35.817
35.777
35.736
35.694
35.653
35.61
35.567
35.524
35.481
35.439
35.399
35.361
35.325
35.291
35.261
35.233
35.208
35.187
35.17
35.156
35.147
35.139
35.134
35.131
35.129
35.13
35.133
35.137
35.144
35.152
35.161
35.171
35.182
35.195
35.208
35.223
35.238
35.251
35.263
35.274
35.283
35.291
35.297
35.303
35.308
35.311
35.314
35.314
35.314
35.312
35.309
35.303
35.294
35.282
35.266
35.248
35.227
35.204
35.18
35.153
35.125
35.094
35.063
35.033
35.003
34.976
34.951
34.928
34.907
34.887
34.868
34.85
34.835
34.82
34.806
34.792
34.776
34.759
34.74
34.72
34.698
34.674
34.649
34.623
34.596
34.568
34.541
34.514
34.488
34.463
34.44
34.418
34.398
34.379
34.362
34.346
34.33
34.314
34.297
34.28
34.264
34.248
34.235
34.222
34.211
34.2
34.191
34.182
34.174
34.168
34.163
34.158
34.154
34.15
34.146
34.142
34.138
34.133
34.128
34.122
34.115
34.108
34.101
34.094
34.088
34.082
34.077
34.071
34.066
34.06
34.054
34.049
34.044
34.041
34.039
34.039
34.042
34.05
34.063
34.083
34.111
34.146
34.19
34.243
34.305
34.378
34.46
34.552
34.651
34.757
34.867
34.981
35.096
35.212
35.328
35.442
35.552
35.656
35.752
35.839
35.915
35.982
36.04
36.088
36.127
36.158
36.18
36.193
36.199
36.197
36.19
36.177
36.159
36.138
36.113
36.084
36.052
36.018
35.982
35.945
35.909
35.871
35.833
35.795
35.757
35.719
35.682
35.647
35.613
35.58
35.547
35.515
35.482
35.448
35.415
35.381
35.345
35.309
35.272
35.234
35.197
35.159
35.123
35.088
35.055
35.022
34.992
34.964
34.938
34.915
34.896
34.879
34.866
34.855
34.848
34.845
34.846
34.852
34.862
34.876
34.893
34.912
34.934
34.958
34.983
35.01
35.037
35.062
35.085
35.106
35.125
35.141
35.157
35.17
35.181
35.188
35.193
35.195
35.194
35.192
35.187
35.18
35.17
35.158
35.143
35.127
35.11
35.093
35.076
35.059
35.043
35.026
35.009
34.992
34.976
34.959
34.942
34.924
34.905
34.884
34.863
34.841
34.82
34.798
34.777
34.756
34.734
34.71
34.686
34.662
34.637
34.612
34.587
34.562
34.537
34.513
34.49
34.47
34.452
34.437
34.423
34.41
34.398
34.388
34.379
34.372
34.366
34.361
34.356
34.351
34.345
34.339
34.332
34.325
34.318
34.309
34.299
34.288
34.278
34.268
34.258
34.248
34.237
34.225
34.213
34.201
34.19
34.18
34.173
34.166
34.161
34.158
34.156
34.157
34.16
34.165
34.172
34.182
34.193
34.208
34.227
34.252
34.284
34.323
34.371
34.428
34.493
34.566
34.647
34.735
34.829
34.926
35.026
35.126
35.225
35.323
35.417
35.507
35.592
35.67
35.74
35.802
35.855
35.899
35.935
35.963
35.984
35.997
36.004
36.006
36.003
35.996
35.986
35.972
35.955
35.934
35.909
35.88
35.848
35.811
35.771
35.729
35.685
35.641
35.595
35.551
35.506
35.462
35.419
35.375
35.332
35.289
35.246
35.203
35.161
35.121
35.082
35.045
35.01
34.977
34.946
34.918
34.892
34.867
34.843
34.822
34.803
34.786
34.773
34.762
34.755
34.752
34.751
34.753
34.757
34.763
34.771
34.781
34.793
34.807
34.822
34.839
34.857
34.875
34.895
34.917
34.939
34.962
34.983
35.003
35.021
35.037
35.051
35.064
35.074
35.082
35.088
35.09
35.089
35.085
35.078
35.069
35.059
35.046
35.033
35.018
35.002
34.987
34.973
34.959
34.945
34.933
34.921
34.909
34.898
34.887
34.875
34.865
34.853
34.841
34.828
34.814
34.799
34.783
34.766
34.748
34.729
34.709
34.687
34.665
34.642
34.619
34.595
34.571
34.546
34.522
34.497
34.474
34.453
34.435
34.419
34.404
34.392
34.38
34.369
34.36
34.351
34.343
34.336
34.331
34.326
34.322
34.319
34.316
34.313
34.309
34.304
34.296
34.287
34.276
34.265
34.252
34.238
34.224
34.21
34.197
34.186
34.177
34.17
34.167
34.167
34.171
34.178
34.188
34.203
34.222
34.246
34.277
34.314
34.358
34.41
34.469
34.537
34.613
34.697
34.788
34.886
34.988
35.092
35.198
35.305
35.41
35.513
35.612
35.707
35.794
35.874
35.946
36.01
36.065
36.113
36.152
36.183
36.206
36.222
36.23
36.232
36.228
36.218
36.204
36.186
36.165
36.141
36.113
36.082
36.048
36.011
35.973
35.933
35.892
35.851
35.809
35.767
35.726
35.687
35.649
35.614
35.58
35.547
35.514
35.482
35.45
35.418
35.386
35.353
35.321
35.287
35.254
35.22
35.187
35.154
35.122
35.091
35.06
35.031
35.005
34.981
34.961
34.946
34.935
34.929
34.929
34.933
34.942
34.956
34.974
34.995
35.02
35.047
35.076
35.105
35.136
35.167
35.199
35.229
35.259
35.286
35.31
35.33
35.345
35.355
35.36
35.36
35.356
35.348
35.336
35.322
35.306
35.29
35.274
35.258
35.243
35.227
35.212
35.197
35.183
35.168
35.154
35.139
35.124
35.109
35.093
35.077
35.061
35.045
35.029
35.013
34.995
34.977
34.958
34.938
34.918
34.897
34.876
34.854
34.832
34.81
34.789
34.768
34.749
34.731
34.713
34.696
34.68
34.665
34.651
34.639
34.628
34.617
34.607
34.596
34.585
34.575
34.564
34.553
34.541
34.528
34.514
34.499
34.484
34.469
34.456
34.444
34.432
34.421
34.411
34.401
34.392
34.383
34.375
34.367
34.361
34.355
34.35
34.347
34.345
34.345
34.346
34.348
34.352
34.357
34.362
34.368
34.374
34.379
34.384
34.389
34.394
34.4
34.408
34.419
34.433
34.452
34.476
34.506
34.543
34.587
34.638
34.696
34.762
34.834
34.914
35.001
35.094
35.194
35.297
35.405
35.515
35.625
35.734
35.839
35.938
36.031
36.114
36.187
36.249
36.299
36.338
36.366
36.385
36.394
36.395
36.388
36.374
36.354
36.328
36.298
36.265
36.231
36.196
36.162
36.128
36.095
36.064
36.035
36.006
35.979
35.953
35.927
35.902
35.875
35.847
35.818
35.788
35.757
35.726
35.694
35.66
35.624
35.587
35.549
35.51
35.472
35.436
35.401
35.368
35.338
35.311
35.286
35.265
35.247
35.231
35.218
35.207
35.199
35.193
35.19
35.19
35.193
35.198
35.205
35.214
35.225
35.238
35.252
35.268
35.285
35.301
35.317
35.333
35.348
35.362
35.377
35.391
35.406
35.421
35.436
35.45
35.464
35.476
35.486
35.493
35.497
35.499
35.497
35.492
35.485
35.476
35.464
35.45
35.433
35.413
35.391
35.366
35.341
35.314
35.287
35.261
35.235
35.21
35.187
35.166
35.147
35.129
35.113
35.097
35.083
35.069
35.055
35.041
35.028
35.013
34.998
34.982
34.964
34.947
34.929
34.912
34.895
34.879
34.863
34.847
34.831
34.816
34.802
34.788
34.774
34.761
34.748
34.735
34.723
34.71
34.699
34.687
34.677
34.667
34.658
34.651
34.645
34.64
34.637
34.636
34.635
34.635
34.635
34.634
34.634
34.633
34.631
34.629
34.625
34.619
34.61
34.6
34.587
34.573
34.558
34.542
34.526
34.512
34.499
34.488
34.48
34.473
34.468
34.465
34.465
34.467
34.471
34.477
34.485
34.495
34.506
34.521
34.538
34.561
34.588
34.622
34.661
34.706
34.758
34.817
34.883
34.956
35.035
35.121
35.213
35.309
35.409
35.511
35.615
35.718
35.82
35.919
36.013
36.1
36.179
36.249
36.31
36.362
36.404
36.436
36.459
36.472
36.476
36.472
36.461
36.443
36.421
36.396
36.367
36.335
36.301
36.266
36.23
36.195
36.161
36.128
36.095
36.062
36.029
35.996
35.962
35.93
35.897
35.864
35.832
35.799
35.766
35.733
35.699
35.665
35.63
35.595
35.558
35.52
35.482
35.445
35.409
35.376
35.347
35.32
35.297
35.277
35.26
35.245
35.234
35.227
35.224
35.226
35.232
35.242
35.256
35.272
35.29
35.311
35.332
35.354
35.375
35.395
35.413
35.431
35.448
35.464
35.481
35.497
35.512
35.526
35.539
35.552
35.564
35.574
35.583
35.589
35.593
35.594
35.593
35.589
35.584
35.576
35.565
35.552
35.537
35.52
35.501
35.482
35.461
35.439
35.416
35.391
35.366
35.341
35.318
35.297
35.278
35.262
35.246
35.232
35.219
35.206
35.193
35.18
35.166
35.151
35.135
35.116
35.097
35.076
35.056
35.035
35.014
34.993
34.972
34.951
34.93
34.909
34.889
34.87
34.852
34.834
34.817
34.799
34.781
34.765
34.75
34.736
34.724
34.712
34.701
34.69
34.681
34.673
34.666
34.661
34.657
34.654
34.651
34.648
34.647
34.647
34.647
34.648
34.649
34.649
34.648
34.646
34.643
34.639
34.633
34.627
34.62
34.613
34.607
34.602
34.596
34.592
34.587
34.582
34.578
34.573
34.567
34.562
34.556
34.55
34.544
34.54
34.537
34.536
34.537
34.54
34.545
34.554
34.568
34.586
34.61
34.641
34.678
34.723
34.776
34.838
34.91
34.991
35.081
35.176
35.277
35.381
35.486
35.592
35.697
35.799
35.897
35.99
