Trial 1:0back
37.322
37.357
37.392
37.427
37.46
37.489
37.513
37.532
37.544
37.55
37.55
37.544
37.531
37.514
37.49
37.463
37.431
37.397
37.359
37.319
37.276
37.23
37.181
37.129
37.073
37.013
36.949
36.881
36.809
36.732
36.65
36.564
36.474
36.38
36.283
36.182
36.08
35.976
35.872
35.769
35.667
35.566
35.467
35.371
35.277
35.185
35.091
34.994
34.893
34.79
34.685
34.583
34.485
34.393
34.307
34.23
34.16
34.098
34.041
33.991
33.946
33.904
33.867
33.833
33.801
33.771
33.742
33.713
33.685
33.656
33.628
33.6
33.571
33.542
33.513
33.484
33.455
33.426
33.397
33.37
33.344
33.319
33.295
33.271
33.25
33.229
33.211
33.194
33.178
33.163
33.149
33.135
33.122
33.109
33.096
33.084
33.073
33.063
33.053
33.043
33.033
33.023
33.011
32.998
32.985
32.971
32.956
32.94
32.923
32.904
32.885
32.864
32.841
32.817
32.793
32.767
32.736
32.699
32.656
32.611
32.565
32.52
32.479
32.441
32.408
32.38
32.358
32.342
32.33
32.323
32.319
32.318
32.318
32.319
32.319
32.319
32.319
32.317
32.313
32.306
32.296
32.283
32.266
32.244
32.219
32.191
32.161
32.131
32.099
32.069
32.039
32.01
31.982
31.955
31.929
31.904
31.879
31.855
31.83
31.806
31.782
31.758
31.734
31.711
31.69
31.67
31.652
31.637
31.625
31.616
31.61
31.611
31.618
31.636
31.665
31.71
31.775
31.865
31.989
32.151
32.358
32.614
32.924
33.287
33.703
34.168
34.677
35.222
35.794
36.384
36.979
37.569
38.142
38.688
39.197
39.662
40.078
40.44
40.749
41.004
41.205
41.354
41.455
41.511
41.528
41.511
41.466
41.398
41.312
41.213
41.105
40.99
40.872
40.753
40.634
40.518
40.404
40.292
40.183
40.077
39.973
39.869
39.766
39.662
39.558
39.454
39.351
39.251
39.153
39.058
38.967
38.878
38.792
38.709
38.628
38.549
38.471
38.395
38.319
38.245
38.172
38.099
38.027
37.955
37.883
37.811
37.74
37.67
37.601
37.534
37.469
37.407
37.348
37.291
37.237
37.187
37.141
37.099
37.061
37.028
37.001
36.98
36.964
36.954
36.947
36.945
36.946
36.948
36.95
36.951
36.949
36.943
36.931
36.912
36.885
36.85
36.808
36.759
36.704
36.644
36.579
36.513
36.446
36.379
36.315
36.253
36.196
36.144
36.098
36.058
36.023
35.994
35.969
35.946
35.925
35.904
35.881
35.855
35.825
35.79
35.75
35.705
35.654
35.598
35.537
35.472
35.405
35.336
35.267
35.199
35.132
35.069
35.009
34.953
34.906
34.871
34.849
34.837
34.829
34.821
34.809
34.789
34.76
34.72
34.67
34.61
34.542
34.469
34.393
34.317
34.242
34.171
34.105
34.045
33.992
33.946
33.908
33.878
33.854
33.836
33.822
33.81
33.801
33.792
33.782
33.771
33.758
33.743
33.725
33.706
33.684
33.661
33.638
33.614
33.589
33.563
33.537
33.509
33.48
33.449
33.417
33.385
33.352
33.319
33.285
33.252
33.217
33.182
33.146
33.108
33.07
33.032
32.993
32.954
32.914
32.874
32.833
32.792
32.751
32.709
32.667
32.623
32.579
32.533
32.488
32.444
32.402
32.36
32.321
32.284
32.249
32.214
32.18
32.147
32.115
32.082
32.05
32.017
31.985
31.953
31.921
31.89
31.86
31.831
31.804
31.779
31.756
31.735
31.718
31.702
31.689
31.678
31.668
31.661
31.657
31.654
31.651
31.649
31.647
31.644
31.639
31.632
31.623
31.612
31.599
31.584
31.568
31.549
31.528
31.505
31.481
31.456
31.431
31.408
31.387
31.369
31.355
31.342
31.332
31.324
31.319
31.317
31.318
31.323
31.333
31.348
31.371
31.404
31.449
31.511
31.595
31.707
31.854
32.042
32.278
32.568
32.916
33.321
33.784
34.301
34.865
35.466
36.095
36.739
37.387
38.026
38.644
39.23
39.775
40.27
40.712
41.096
41.42
41.686
41.893
42.045
42.146
42.2
42.215
42.195
42.145
42.072
41.979
41.872
41.755
41.631
41.502
41.372
41.241
41.109
40.979
40.851
40.725
40.602
40.482
40.364
40.25
40.139
40.031
39.925
39.821
39.719
39.619
39.521
39.425
39.331
39.24
39.151
39.065
38.982
38.903
38.826
38.752
38.678
38.606
38.533
38.459
38.383
38.305
38.224
38.141
38.057
37.972
37.887
37.802
37.718
37.636
37.556
37.48
37.409
37.343
37.283
37.23
37.185
37.15
37.124
37.107
37.098
37.098
37.104
37.116
37.134
37.156
37.181
37.209
37.238
37.268
37.296
37.32
37.339
37.351
37.357
37.355
37.346
37.33
37.306
37.275
37.239
37.197
37.151
37.102
37.05
36.995
36.937
36.877
36.814
36.749
36.682
36.613
36.542
36.467
36.388
36.305
36.219
36.129
36.035
35.937
35.836
35.733
35.629
35.523
35.418
35.314
35.212
35.111
35.013
34.918
34.826
34.738
34.654
34.573
34.496
34.422
34.352
34.285
34.221
34.162
34.106
34.054
34.006
33.959
33.914
33.871
33.828
33.786
33.747
33.709
33.674
33.641
33.611
33.583
33.558
33.534
33.512
33.492
33.472
33.453
33.433
33.413
33.393
33.373
33.353
33.333
33.312
33.292
33.271
33.251
33.231
33.211
33.191
33.172
33.154
33.136
33.118
33.099
33.078
33.057
33.034
33.01
32.984
32.956
32.926
32.894
32.861
32.828
32.797
32.766
32.738
32.71
32.685
32.662
32.641
32.62
32.601
32.582
32.564
32.544
32.524
32.502
32.479
32.454
32.427
32.399
32.371
32.343
32.315
32.287
32.26
32.232
32.203
32.174
32.144
32.114
32.083
32.053
32.023
31.995
31.968
31.943
31.921
31.902
31.887
31.876
31.868
31.863
31.859
31.857
31.855
31.852
31.849
31.844
31.839
31.834
31.828
31.823
31.819
31.814
31.808
31.801
31.792
31.781
31.767
31.75
31.732
31.712
31.691
31.67
31.649
31.63
31.612
31.597
31.586
31.577
31.573
31.571
31.573
31.578
31.586
31.596
31.609
31.625
31.645
31.67
31.703
31.746
31.804
31.882
31.986
32.122
32.297
32.516
32.785
33.107
33.485
33.917
34.399
34.926
35.49
36.08
36.687
37.299
37.903
38.488
39.045
39.565
40.039
40.463
40.834
41.15
41.41
41.616
41.771
41.881
41.949
41.98
41.979
41.951
41.901
41.833
41.752
41.661
41.562
41.458
41.348
41.236
41.121
41.005
40.887
40.767
40.648
40.529
40.411
40.293
40.176
40.059
39.944
39.829
39.715
39.601
39.489
39.377
39.267
39.16
39.055
38.953
38.854
38.758
38.663
38.571
38.479
38.387
38.296
38.204
38.111
38.017
37.922
37.826
37.73
37.636
37.545
37.457
37.375
37.298
37.227
37.165
37.112
37.069
37.036
37.013
37.0
36.996
37.003
37.017
37.039
37.067
37.098
37.133
37.168
37.204
37.239
37.273
37.305
37.336
37.365
37.39
37.411
37.429
37.441
37.449
37.453
37.451
37.443
37.429
37.408
37.38
37.345
37.305
37.259
37.207
37.15
37.086
37.018
36.944
36.866
36.785
36.703
36.619
36.535
36.452
36.369
36.287
36.207
36.127
36.047
35.967
35.886
35.805
35.724
35.644
35.563
35.483
35.403
35.323
35.243
35.163
35.082
35.001
34.92
34.839
34.759
34.679
34.599
34.519
34.443
34.37
34.301
34.236
34.175
34.118
34.064
34.012
33.962
33.914
33.866
33.82
33.775
33.729
33.682
33.636
33.59
33.545
33.502
33.461
33.422
33.387
33.354
33.326
33.301
33.279
33.261
33.245
33.229
33.214
33.197
33.18
33.162
33.143
33.124
33.104
33.085
33.066
33.047
33.028
33.009
32.992
32.977
32.964
32.952
32.942
32.933
32.924
32.917
32.909
32.901
32.892
32.881
32.87
32.857
32.843
32.829
32.815
32.801
32.787
32.773
32.759
32.743
32.726
32.707
32.687
32.666
32.644
32.623
32.602
32.582
32.563
32.547
32.532
32.519
32.507
32.497
32.487
32.478
32.468
32.458
32.447
32.435
32.421
32.404
32.384
32.361
32.334
32.303
32.27
32.234
32.194
32.153
32.11
32.065
32.018
31.971
31.924
31.877
31.832
31.789
31.747
31.707
31.67
31.636
31.61
31.592
31.583
31.58
31.583
31.587
31.592
31.595
31.597
31.596
31.593
31.59
31.59
31.597
31.617
31.656
31.721
31.821
31.963
32.156
32.406
32.72
33.099
33.544
34.05
34.613
35.222
35.868
36.538
37.219
37.897
38.558
39.191
39.784
40.33
40.82
41.25
41.617
41.924
42.171
42.362
42.501
42.594
42.646
42.662
42.647
42.606
42.544
42.465
42.373
42.27
42.159
42.044
41.925
41.805
41.683
41.562
41.439
41.317
41.194
41.071
40.949
40.826
40.703
40.579
40.456
40.333
40.21
40.09
39.971
39.855
39.742
39.632
39.526
39.424
39.326
39.232
39.141
39.053
38.967
38.883
38.799
38.716
38.633
38.549
38.463
38.377
38.29
38.203
38.115
38.028
37.942
37.861
37.783
37.712
37.648
37.593
37.547
37.512
37.488
37.476
37.474
37.483
37.501
37.527
37.559
37.595
37.633
37.672
37.711
37.748
37.782
37.812
37.838
37.859
37.875
37.886
37.891
37.891
37.884
37.871
37.852
37.828
37.798
37.763
37.723
37.679
37.631
37.58
37.526
37.468
37.407
37.341
37.27
37.195
37.115
37.029
36.938
36.841
36.737
36.627
36.508
36.379
36.243
36.101
35.956
35.81
35.666
35.526
35.391
35.263
35.142
35.03
34.925
34.828
34.737
34.651
34.57
34.493
34.418
34.347
34.278
34.211
34.146
34.083
34.021
33.962
33.903
33.846
33.79
33.735
33.682
33.629
33.578
33.527
33.479
33.433
33.391
33.352
33.316
33.285
33.257
33.232
33.21
33.191
33.173
33.155
33.139
33.124
33.11
33.096
33.084
33.073
33.063
33.053
33.043
33.032
33.019
33.006
32.992
32.977
32.963
32.949
32.934
32.918
32.899
32.877
32.852
32.823
32.793
32.762
32.731
32.703
32.676
32.652
32.629
32.608
32.588
32.567
32.547
32.525
32.502
32.479
32.454
32.428
32.401
32.372
32.342
32.31
32.278
32.244
32.21
32.176
32.141
32.106
32.071
32.036
32.001
31.967
31.934
31.902
31.871
31.842
31.815
31.789
31.764
31.742
31.721
31.702
31.683
31.665
31.646
31.627
31.609
31.59
31.572
31.555
31.538
31.522
31.506
31.491
31.476
31.462
31.449
31.438
31.427
31.417
31.409
31.401
31.395
31.388
31.382
31.377
31.372
31.367
31.362
31.358
31.352
31.344
31.334
31.322
31.308
31.291
31.272
31.253
31.233
31.214
31.195
31.178
31.161
31.146
31.134
31.125
31.12
31.118
31.122
31.129
31.139
31.152
31.169
31.189
31.214
31.248
31.296
31.362
31.454
31.578
31.742
31.952
32.212
32.529
32.904
33.339
33.829
34.369
34.951
35.565
36.201
36.846
37.489
38.116
38.716
39.281
39.801
40.271
40.685
41.042
41.34
41.581
41.766
41.9
41.986
42.032
42.04
42.018
41.969
41.901
41.818
41.722
41.619
41.509
41.396
41.28
41.164
41.049
40.934
40.82
40.706
40.591
40.476
40.361
40.245
40.128
40.011
39.894
39.778
39.665
39.553
39.445
39.34
39.239
39.141
39.049
38.961
38.877
38.796
38.717
38.642
38.567
38.493
38.418
38.341
38.262
38.181
38.098
38.015
37.933
37.853
37.776
37.703
37.635
37.574
37.519
37.472
37.433
37.404
37.385
37.374
37.373
37.381
37.399
37.425
37.459
37.5
37.545
37.593
37.642
37.69
37.737
37.78
37.819
37.854
37.883
37.907
37.924
37.936
37.942
37.943
37.937
37.924
37.905
37.878
37.845
37.805
37.758
37.704
37.642
37.573
37.498
37.418
37.335
37.247
37.156
37.062
36.966
36.867
36.768
36.668
36.569
36.471
36.373
36.276
36.178
36.08
35.983
35.886
35.79
35.694
35.6
35.506
35.414
35.323
35.234
35.146
35.059
34.975
34.893
34.813
34.737
34.664
34.593
34.526
34.462
34.398
34.334
34.271
34.207
34.143
34.079
34.017
33.957
33.9
33.847
33.798
33.754
33.714
33.68
33.652
33.628
33.61
33.595
33.584
33.576
33.568
33.556
33.541
33.522
33.5
33.476
33.452
33.429
33.408
33.39
33.377
33.368
33.365
33.365
33.369
33.374
33.38
33.386
33.389
33.39
33.388
33.383
33.375
33.363
33.348
33.328
33.306
33.282
33.257
33.23
33.201
33.172
33.143
33.114
33.085
33.055
33.025
32.995
32.963
32.929
32.894
32.857
32.82
32.782
32.746
32.71
32.677
32.646
32.617
32.59
32.565
32.54
32.516
32.493
32.469
32.444
32.418
32.392
32.365
32.337
32.309
32.281
32.254
32.228
32.204
32.179
32.156
32.133
32.111
32.089
32.068
32.047
32.025
32.0
31.974
31.946
31.918
31.889
31.862
31.836
31.812
31.791
31.772
31.756
31.743
31.732
31.722
31.713
31.705
31.697
31.689
31.68
31.671
31.661
31.65
31.639
31.628
31.619
31.612
31.608
31.608
31.614
31.629
31.655
31.697
31.761
31.853
31.979
32.147
32.363
32.633
32.961
33.349
33.798
34.304
34.862
35.464
36.098
36.753
37.415
38.072
38.709
39.315
39.881
40.398
40.861
41.266
41.612
41.898
42.126
42.3
42.424
42.502
42.541
42.545
42.519
42.469
42.401
42.318
42.224
42.122
42.015
41.905
41.792
41.677
41.561
41.444
41.327
41.208
41.089
40.969
40.85
40.73
40.61
40.491
40.373
40.257
40.143
40.033
39.925
39.822
39.723
39.627
39.537
39.45
39.365
39.284
39.204
39.125
39.047
38.968
38.89
38.81
38.729
38.645
38.559
38.471
38.382
38.293
38.205
38.119
38.036
37.957
37.884
37.817
37.758
37.706
37.663
37.627
37.599
37.577
37.561
37.551
37.545
37.543
37.545
37.55
37.558
37.567
37.578
37.591
37.605
37.619
37.633
37.645
37.656
37.664
37.668
37.669
37.666
37.658
37.644
37.624
37.598
37.565
37.526
37.479
37.426
37.367
37.301
37.229
37.151
37.067
36.978
36.885
36.787
36.685
36.581
36.474
36.366
36.257
36.148
36.037
35.925
35.814
35.703
35.593
35.486
35.38
35.276
35.174
35.075
34.977
34.882
34.787
34.694
34.6
34.507
34.413
34.319
34.226
34.134
34.045
33.958
33.876
33.798
33.724
33.655
33.59
33.529
33.471
33.418
33.369
33.323
33.281
33.243
33.209
33.177
33.148
33.121
33.096
33.074
33.054
33.035
33.018
33.006
32.998
32.996
32.997
33.001
33.006
33.01
33.012
33.012
33.007
32.998
32.986
32.97
32.952
32.932
32.911
32.889
32.866
32.843
32.82
32.796
32.774
32.753
32.734
32.715
32.698
32.68
32.662
32.644
32.627
32.609
32.592
32.575
32.558
32.542
32.526
32.508
32.49
32.47
32.447
32.423
32.397
32.369
32.339
32.306
32.272
32.238
32.203
32.169
32.137
32.105
32.075
32.046
32.018
31.991
31.965
31.939
31.914
31.889
31.865
31.841
31.812
31.778
31.738
31.694
31.647
31.6
31.554
31.511
31.473
31.44
31.412
31.388
31.37
31.356
31.346
31.339
31.333
31.328
31.324
31.32
31.317
31.313
31.309
31.306
31.303
31.299
31.294
31.289
31.284
31.277
31.27
31.261
31.252
31.242
31.231
31.219
31.207
31.195
31.181
31.168
31.154
31.141
31.129
31.119
31.111
31.105
31.1
31.098
31.097
31.097
31.099
31.103
31.11
31.118
31.131
31.148
31.172
31.204
31.25
31.313
31.401
31.521
31.68
31.884
32.141
32.455
32.828
33.261
33.751
34.294
34.88
35.5
36.142
36.793
37.441
38.072
38.675
39.241
39.761
40.227
40.635
40.982
41.269
41.495
41.665
41.782
41.854
41.884
41.881
41.848
41.792
41.716
41.626
41.524
41.413
41.297
41.178
41.057
40.936
40.814
40.693
40.572
40.451
40.33
40.208
40.086
39.962
39.837
39.713
39.588
39.464
39.34
39.218
39.098
38.98
38.865
38.755
38.648
38.546
38.447
38.352
38.259
38.17
38.081
37.994
37.906
37.818
37.729
37.641
37.553
37.466
37.38
37.297
37.218
37.144
37.076
37.016
36.964
36.92
36.885
36.86
36.845
36.841
36.849
36.869
36.9
36.943
36.995
37.055
37.12
37.19
37.263
37.336
37.407
37.476
37.54
37.6
37.654
37.702
37.744
37.777
37.801
37.816
37.821
37.815
37.799
37.773
37.738
37.694
37.642
37.583
37.518
37.447
37.371
37.292
37.208
37.121
37.03
36.935
36.838
36.739
36.64
36.541
36.441
36.34
36.24
36.139
36.039
35.939
35.838
35.737
35.635
35.531
35.426
35.321
35.218
35.116
35.017
34.922
34.831
34.745
34.664
34.588
34.516
34.447
34.382
34.318
34.256
34.195
34.136
34.077
34.02
33.966
33.913
33.862
33.814
33.768
33.725
33.684
33.646
33.611
33.579
33.551
33.525
33.503
33.483
33.465
33.449
33.436
33.425
33.417
33.41
33.405
33.401
33.398
33.396
33.396
33.395
33.394
33.392
33.39
33.386
33.382
33.376
33.368
33.359
33.347
33.333
33.317
33.299
33.278
33.256
33.233
33.21
33.186
33.163
33.139
33.116
33.093
33.069
33.044
33.019
32.994
32.969
32.945
32.921
32.898
32.876
32.853
32.83
32.807
32.783
32.759
32.734
32.709
32.683
32.656
32.628
32.6
32.57
32.541
32.51
32.48
32.449
32.42
32.391
32.365
32.341
32.321
32.304
32.289
32.277
32.266
32.255
32.243
32.229
32.213
32.196
32.176
32.155
32.131
32.105
32.077
32.046
32.014
31.98
31.945
31.911
31.877
31.845
31.814
31.784
31.756
31.729
31.703
31.679
31.657
31.637
31.619
31.606
31.596
31.592
31.594
31.605
31.625
31.657
31.704
31.771
31.864
31.99
32.155
32.366
32.631
32.954
33.336
33.778
34.275
34.824
35.415
36.043
36.694
37.357
38.016
38.657
39.267
39.837
40.359
40.826
41.235
41.584
41.873
42.105
42.284
42.412
42.496
42.539
42.546
42.523
42.474
42.404
42.319
42.22
42.112
41.995
41.875
41.751
41.625
41.499
41.374
41.249
41.125
41.001
40.877
40.754
40.63
40.506
40.381
40.256
40.13
40.005
39.881
39.76
39.641
39.526
39.416
39.311
39.211
39.116
39.026
38.939
38.856
38.776
38.698
38.621
38.545
38.467
38.389
38.31
38.23
38.148
38.067
37.984
37.896
37.804
37.71
37.617
37.53
37.45
37.381
37.324
37.283
37.256
37.246
37.25
37.268
37.299
37.339
37.388
37.443
37.502
37.562
37.623
37.681
37.735
37.785
37.827
37.863
37.89
37.907
37.915
37.913
37.904
37.886
37.861
37.83
37.792
37.75
37.702
37.65
37.594
37.534
37.47
37.402
37.331
37.255
37.176
37.094
37.007
36.916
36.821
36.721
36.618
36.511
36.401
36.288
36.174
36.059
35.944
35.829
35.714
35.601
35.49
35.381
35.273
35.168
35.065
34.964
34.865
34.769
34.676
34.586
34.499
34.417
34.339
34.265
34.195
34.129
34.066
34.007
33.951
33.897
33.844
33.793
33.742
33.693
33.644
33.597
33.552
33.508
33.466
33.426
33.389
33.354
33.321
33.291
33.264
33.239
33.216
33.193
33.17
33.147
33.122
33.097
33.07
33.044
33.017
32.991
32.966
32.942
32.92
32.897
32.876
32.855
32.835
32.816
32.796
32.776
32.757
32.737
32.716
32.694
32.67
32.646
32.62
32.594
32.567
32.542
32.516
32.492
32.467
32.444
32.421
32.401
32.381
32.363
32.344
32.327
32.313
32.302
32.294
32.289
32.283
32.277
32.269
32.256
32.239
32.216
32.188
32.155
32.116
32.072
32.025
31.975
31.922
31.868
31.814
31.759
31.706
31.656
31.612
31.572
31.539
31.512
31.49
31.472
31.458
31.448
31.44
31.434
31.429
31.424
31.419
31.413
31.405
31.397
31.387
31.377
31.366
31.355
31.343
31.332
31.322
31.313
31.305
31.298
31.291
31.283
31.275
31.267
31.257
31.246
31.233
31.22
31.206
31.191
31.175
31.16
31.146
31.131
31.117
31.103
31.09
31.077
31.065
31.055
31.047
31.042
31.039
31.04
31.045
31.053
31.065
31.08
31.101
31.129
31.168
31.221
31.293
31.391
31.522
31.692
31.909
32.179
32.507
32.896
33.346
33.853
34.413
35.016
35.653
36.311
36.977
37.638
38.281
38.894
39.468
39.993
40.464
40.876
41.226
41.515
41.743
41.913
42.03
42.098
42.122
42.11
42.066
41.998
41.91
41.808
41.697
41.579
41.458
41.335
41.213
41.091
40.972
40.854
40.738
40.624
40.511
40.399
40.286
40.173
40.059
39.944
39.83
39.717
39.604
39.493
39.384
39.278
39.176
39.079
38.987
38.9
38.819
38.743
38.673
38.607
38.544
38.484
38.425
38.366
38.305
38.242
38.175
38.104
38.031
37.956
37.881
37.806
37.733
37.663
37.597
37.538
37.487
37.445
37.413
37.392
37.383
37.386
37.402
37.429
37.466
37.512
37.566
37.625
37.688
37.752
37.816
37.878
37.935
37.986
38.03
38.065
38.091
38.108
38.117
38.117
38.109
38.094
38.072
38.045
38.013
37.977
37.937
37.893
37.846
37.794
37.737
37.676
37.605
37.521
37.424
37.316
37.201
37.082
36.961
36.841
36.724
36.61
36.502
36.399
36.3
36.207
36.119
36.034
35.952
35.872
35.794
35.716
35.639
35.563
35.489
35.415
35.341
35.268
35.195
35.122
35.052
34.983
34.917
34.853
34.792
34.734
34.678
34.624
34.574
34.526
34.482
34.442
