Trial 1:0back
35.166
35.142
35.118
35.095
35.074
35.054
35.035
35.017
34.999
34.981
34.962
34.944
34.927
34.911
34.896
34.882
34.868
34.854
34.841
34.828
34.815
34.804
34.795
34.787
34.779
34.771
34.763
34.755
34.747
34.74
34.734
34.728
34.722
34.716
34.71
34.703
34.697
34.691
34.686
34.682
34.678
34.674
34.67
34.666
34.663
34.66
34.658
34.656
34.655
34.654
34.651
34.648
34.644
34.638
34.63
34.621
34.61
34.599
34.587
34.575
34.564
34.554
34.546
34.539
34.533
34.528
34.523
34.519
34.516
34.513
34.512
34.511
34.51
34.51
34.508
34.506
34.504
34.501
34.5
34.501
34.504
34.512
34.524
34.543
34.57
34.606
34.651
34.706
34.769
34.84
34.919
35.006
35.099
35.199
35.303
35.41
35.518
35.625
35.729
35.829
35.923
36.011
36.092
36.164
36.228
36.283
36.329
36.366
36.394
36.413
36.424
36.429
36.427
36.421
36.411
36.399
36.384
36.368
36.35
36.33
36.307
36.284
36.258
36.232
36.206
36.179
36.151
36.123
36.094
36.065
36.035
36.005
35.976
35.947
35.919
35.892
35.865
35.838
35.81
35.782
35.753
35.724
35.695
35.666
35.636
35.607
35.579
35.552
35.528
35.507
35.487
35.47
35.455
35.442
35.431
35.423
35.418
35.417
35.42
35.427
35.437
35.448
35.46
35.473
35.486
35.499
35.512
35.525
35.539
35.551
35.564
35.575
35.586
35.596
35.605
35.613
35.619
35.624
35.626
35.627
35.627
35.625
35.623
35.619
35.613
35.606
35.596
35.584
35.569
35.553
35.535
35.515
35.495
35.473
35.451
35.427
35.403
35.379
35.355
35.332
35.31
35.29
35.271
35.255
35.239
35.225
35.21
35.195
35.18
35.164
35.148
35.132
35.115
35.096
35.077
35.056
35.034
35.012
34.99
34.97
34.951
34.934
34.918
34.903
34.888
34.874
34.86
34.847
34.835
34.823
34.811
34.799
34.787
34.776
34.765
34.755
34.746
34.737
34.727
34.717
34.707
34.697
34.688
34.679
34.671
34.663
34.654
34.644
34.634
34.623
34.613
34.604
34.597
34.592
34.589
34.588
34.589
34.591
34.594
34.598
34.601
34.603
34.603
34.6
34.595
34.587
34.578
34.567
34.553
34.538
34.521
34.503
34.485
34.468
34.453
34.441
34.431
34.424
34.419
34.417
34.416
34.416
34.417
34.418
34.42
34.421
34.421
34.419
34.417
34.414
34.411
34.408
34.407
34.408
34.413
34.422
34.437
34.458
34.485
34.521
34.564
34.616
34.676
34.746
34.824
34.91
35.003
35.1
35.2
35.303
35.406
35.51
35.611
35.71
35.805
35.893
35.973
36.044
36.107
36.16
36.204
36.239
36.265
36.282
36.291
36.292
36.287
36.277
36.263
36.246
36.227
36.205
36.181
36.154
36.127
36.099
36.071
36.043
36.015
35.988
35.959
35.931
35.902
35.875
35.848
35.822
35.797
35.771
35.743
35.715
35.685
35.655
35.624
35.594
35.563
35.532
35.501
35.47
35.439
35.408
35.379
35.353
35.328
35.305
35.285
35.267
35.253
35.243
35.238
35.237
35.24
35.247
35.255
35.265
35.277
35.289
35.301
35.314
35.328
35.342
35.356
35.37
35.384
35.399
35.413
35.428
35.443
35.457
35.471
35.482
35.492
35.499
35.503
35.505
35.505
35.501
35.495
35.486
35.475
35.463
35.45
35.436
35.422
35.407
35.394
35.38
35.367
35.353
35.338
35.322
35.305
35.286
35.265
35.244
35.221
35.199
35.177
35.155
35.133
35.11
35.089
35.068
35.049
35.031
35.014
34.997
34.98
34.962
34.942
34.921
34.9
34.878
34.856
34.836
34.816
34.798
34.781
34.766
34.752
34.74
34.731
34.723
34.717
34.711
34.706
34.7
34.693
34.687
34.679
34.672
34.665
34.657
34.648
34.638
34.629
34.62
34.614
34.608
34.604
34.601
34.597
34.593
34.588
34.584
34.58
34.577
34.575
34.574
34.572
34.57
34.568
34.564
34.561
34.558
34.554
34.549
34.544
34.539
34.533
34.527
34.52
34.513
34.505
34.495
34.482
34.468
34.453
34.436
34.42
34.404
34.389
34.374
34.362
34.35
34.341
34.333
34.327
34.322
34.318
34.315
34.312
34.311
34.31
34.31
34.31
34.311
34.31
34.31
34.308
34.304
34.3
34.295
34.291
34.289
34.291
34.299
34.313
34.334
34.364
34.401
34.447
34.501
34.563
34.634
34.714
34.802
34.896
34.995
35.098
35.201
35.304
35.405
35.503
35.596
35.682
35.759
35.828
35.887
35.937
35.979
36.012
36.038
36.055
36.065
36.067
36.063
36.054
36.041
36.026
36.01
35.991
35.971
35.95
35.926
35.902
35.877
35.853
35.829
35.804
35.78
35.753
35.726
35.696
35.666
35.635
35.604
35.574
35.544
35.513
35.482
35.451
35.421
35.39
35.36
35.331
35.302
35.272
35.243
35.215
35.187
35.161
35.137
35.115
35.097
35.081
35.067
35.056
35.049
35.046
35.046
35.051
35.059
35.071
35.087
35.105
35.125
35.146
35.168
35.19
35.212
35.233
35.254
35.273
35.29
35.307
35.321
35.334
35.345
35.356
35.365
35.375
35.383
35.391
35.398
35.403
35.406
35.408
35.408
35.405
35.4
35.392
35.38
35.366
35.35
35.333
35.315
35.298
35.28
35.261
35.243
35.223
35.204
35.185
35.166
35.149
35.132
35.115
35.097
35.079
35.061
35.043
35.025
35.009
34.994
34.98
34.968
34.956
34.946
34.935
34.925
34.915
34.905
34.894
34.883
34.869
34.854
34.838
34.82
34.803
34.786
34.77
34.754
34.739
34.724
34.711
34.699
34.689
34.68
34.673
34.668
34.664
34.66
34.657
34.655
34.654
34.654
34.655
34.654
34.653
34.65
34.646
34.642
34.638
34.633
34.627
34.622
34.616
34.61
34.604
34.599
34.594
34.59
34.586
34.582
34.578
34.574
34.568
34.562
34.555
34.547
34.539
34.532
34.525
34.519
34.514
34.511
34.508
34.505
34.503
34.502
34.502
34.502
34.503
34.504
34.506
34.508
34.511
34.517
34.528
34.545
34.57
34.603
34.644
34.695
34.754
34.823
34.9
34.984
35.074
35.168
35.262
35.356
35.449
35.539
35.626
35.709
35.786
35.857
35.921
35.977
36.024
36.065
36.098
36.124
36.144
36.158
36.165
36.166
36.16
36.149
36.134
36.115
36.094
36.071
36.048
36.023
35.998
35.971
35.944
35.916
35.888
35.858
35.828
35.796
35.763
35.729
35.694
35.659
35.624
35.589
35.554
35.517
35.48
35.442
35.404
35.367
35.332
35.3
35.27
35.241
35.213
35.186
35.161
35.136
35.114
35.094
35.077
35.064
35.054
35.048
35.046
35.049
35.056
35.068
35.084
35.103
35.125
35.148
35.173
35.199
35.226
35.254
35.281
35.306
35.33
35.351
35.369
35.384
35.397
35.408
35.417
35.425
35.431
35.435
35.437
35.437
35.435
35.432
35.426
35.418
35.407
35.395
35.38
35.365
35.349
35.332
35.316
35.3
35.285
35.269
35.254
35.24
35.226
35.213
35.2
35.187
35.174
35.16
35.145
35.13
35.115
35.098
35.08
35.062
35.044
35.026
35.009
34.992
34.977
34.962
34.949
34.937
34.925
34.913
34.902
34.891
34.88
34.869
34.858
34.846
34.833
34.819
34.805
34.791
34.778
34.765
34.753
34.741
34.731
34.72
34.711
34.701
34.692
34.681
34.67
34.657
34.643
34.628
34.614
34.601
34.589
34.578
34.568
34.56
34.554
34.55
34.549
34.55
34.553
34.557
34.561
34.565
34.568
34.57
34.572
34.573
34.572
34.57
34.566
34.56
34.554
34.547
34.541
34.536
34.532
34.528
34.525
34.522
34.52
34.518
34.516
34.513
34.509
34.504
34.499
34.496
34.493
34.494
34.499
34.508
34.521
34.541
34.566
34.599
34.64
34.691
34.752
34.822
34.901
34.988
35.082
35.179
35.28
35.383
35.486
35.589
35.691
35.791
35.887
35.977
36.06
36.136
36.204
36.263
36.315
36.358
36.393
36.419
36.436
36.446
36.448
36.444
36.434
36.42
36.401
36.38
36.355
36.328
36.3
36.271
36.242
36.213
36.185
36.157
36.128
36.098
36.068
36.038
36.009
35.981
35.953
35.927
35.9
35.874
35.848
35.821
35.796
35.771
35.747
35.723
35.698
35.672
35.644
35.616
35.588
35.56
35.535
35.512
35.492
35.476
35.465
35.457
35.453
35.453
35.455
35.459
35.463
35.469
35.475
35.483
35.491
35.501
35.513
35.526
35.54
35.556
35.572
35.59
35.609
35.629
35.649
35.668
35.685
35.701
35.715
35.727
35.736
35.743
35.747
35.748
35.747
35.743
35.738
35.731
35.724
35.716
35.706
35.695
35.683
35.669
35.654
35.637
35.619
35.599
35.578
35.556
35.533
35.51
35.488
35.466
35.446
35.427
35.409
35.391
35.374
35.358
35.343
35.328
35.313
35.299
35.283
35.267
35.249
35.23
35.211
35.19
35.171
35.151
35.132
35.113
35.094
35.075
35.057
35.04
35.024
35.009
34.995
34.981
34.967
34.953
34.938
34.922
34.906
34.891
34.876
34.862
34.849
34.838
34.828
34.82
34.814
34.81
34.808
34.807
34.807
34.806
34.805
34.804
34.802
34.801
34.799
34.795
34.791
34.785
34.78
34.775
34.772
34.77
34.771
34.772
34.774
34.776
34.777
34.778
34.778
34.778
34.775
34.771
34.765
34.757
34.749
34.741
34.734
34.729
34.724
34.72
34.718
34.718
34.721
34.727
34.738
34.753
34.774
34.801
34.834
34.874
34.921
34.975
35.037
35.106
35.181
35.263
35.35
35.441
35.536
35.633
35.731
35.829
35.927
36.022
36.114
36.201
36.283
36.357
36.422
36.479
36.526
36.563
36.591
36.611
36.623
36.629
36.628
36.623
36.612
36.598
36.579
36.558
36.535
36.51
36.483
36.456
36.428
36.401
36.374
36.347
36.322
36.298
36.275
36.253
36.229
36.205
36.18
36.155
36.13
36.104
36.078
36.05
36.02
35.988
35.954
35.918
35.882
35.846
35.812
35.778
35.745
35.715
35.686
35.661
35.639
35.62
35.606
35.596
35.59
35.587
35.588
35.593
35.601
35.613
35.628
35.646
35.667
35.689
35.711
35.734
35.756
35.777
35.795
35.812
35.825
35.835
35.843
35.847
35.85
35.853
35.855
35.857
35.858
35.859
35.858
35.857
35.855
35.852
35.849
35.845
35.84
35.833
35.823
35.81
35.794
35.776
35.757
35.736
35.714
35.691
35.668
35.645
35.622
35.601
35.58
35.561
35.541
35.521
35.5
35.478
35.456
35.433
35.412
35.391
35.372
35.353
35.335
35.318
35.301
35.285
35.27
35.256
35.242
35.228
35.213
35.197
35.179
35.162
35.144
35.126
35.11
35.094
35.077
35.062
35.046
35.031
35.017
35.005
34.993
34.983
34.973
34.964
34.956
34.948
34.942
34.936
34.932
34.929
34.926
34.923
34.921
34.918
34.915
34.911
34.908
34.904
34.901
34.897
34.893
34.889
34.884
34.879
34.873
34.866
34.859
34.853
34.846
34.839
34.832
34.825
34.82
34.815
34.812
34.81
34.809
34.806
34.803
34.799
34.795
34.791
34.787
34.784
34.781
34.779
34.778
34.778
34.78
34.786
34.798
34.816
34.842
34.876
34.918
34.969
35.028
35.095
35.17
35.252
35.342
35.436
35.535
35.636
35.738
35.839
35.938
36.033
36.124
36.208
36.284
36.351
36.408
36.455
36.493
36.523
36.544
36.557
36.564
36.564
36.558
36.548
36.534
36.518
36.5
36.481
36.46
36.438
36.415
36.39
36.366
36.34
36.316
36.291
36.266
36.241
36.214
36.187
36.159
36.13
36.101
36.071
36.041
36.009
35.976
35.943
35.908
35.874
35.84
35.806
35.772
35.739
35.705
35.673
35.642
35.613
35.588
35.565
35.545
35.527
35.512
35.499
35.489
35.483
35.48
35.481
35.485
35.493
35.502
35.514
35.528
35.542
35.558
35.575
35.591
35.608
35.624
35.64
35.655
35.671
35.687
35.702
35.716
35.728
35.738
35.744
35.748
35.75
35.75
35.749
35.746
35.742
35.735
35.726
35.714
35.7
35.685
35.668
35.651
35.633
35.614
35.592
35.569
35.545
35.521
35.496
35.47
35.445
35.419
35.394
35.37
35.346
35.324
35.302
35.281
35.262
35.243
35.226
35.209
35.193
35.178
35.163
35.149
35.134
35.12
35.106
35.092
35.077
35.062
35.046
35.03
35.014
34.998
34.983
34.969
34.956
34.943
34.93
34.916
34.902
34.888
34.873
34.859
34.846
34.833
34.821
34.81
34.799
34.79
34.782
34.776
34.77
34.766
34.763
34.761
34.76
34.759
34.759
34.758
34.757
34.754
34.749
34.742
34.733
34.723
34.713
34.704
34.696
34.688
34.68
34.674
34.67
34.666
34.664
34.663
34.662
34.659
34.656
34.652
34.648
34.642
34.634
34.626
34.615
34.603
34.589
34.574
34.56
34.547
34.535
34.524
34.515
34.509
34.507
34.508
34.515
34.528
34.549
34.576
34.611
34.654
34.705
34.763
34.83
34.903
34.983
35.067
35.156
35.247
35.34
35.435
35.53
35.624
35.714
35.8
35.879
35.952
36.017
36.073
36.122
36.162
36.194
36.217
36.232
36.238
36.238
36.231
36.217
36.2
36.178
36.155
36.129
36.102
36.075
36.047
36.02
35.992
35.964
35.936
35.908
35.882
35.856
35.832
35.808
35.785
35.761
35.736
35.711
35.685
35.658
35.63
35.6
35.568
35.535
35.5
35.465
35.43
35.396
35.364
35.333
35.305
35.278
35.255
35.235
35.218
35.205
35.195
35.188
35.184
35.183
35.184
35.189
35.196
35.208
35.224
35.243
35.264
35.287
35.311
35.336
35.361
35.386
35.41
35.433
35.454
35.474
35.492
35.507
35.521
35.532
35.54
35.545
35.548
35.548
35.545
35.54
35.533
35.526
35.518
35.509
35.499
35.488
35.476
35.463
35.449
35.433
35.417
35.4
35.382
35.364
35.345
35.326
35.306
35.286
35.265
35.245
35.224
35.205
35.187
35.169
35.153
35.137
35.121
35.104
35.088
35.072
35.055
35.038
35.021
35.002
34.982
34.962
34.941
34.921
34.902
34.884
34.867
34.852
34.839
34.827
34.819
34.813
34.81
34.807
34.806
34.805
34.802
34.799
34.795
34.79
34.784
34.778
34.772
34.764
34.755
34.746
34.737
34.728
34.72
34.713
34.706
34.699
34.692
34.685
34.677
34.671
34.664
34.659
34.653
34.648
34.643
34.638
34.634
34.631
34.629
34.627
34.626
34.625
34.624
34.622
34.621
34.619
34.617
34.614
34.611
34.606
34.602
34.598
34.597
34.599
34.607
34.62
34.639
34.665
34.697
34.737
34.785
34.839
34.901
34.969
35.044
35.124
35.208
35.294
35.382
35.47
35.556
35.64
35.72
35.795
35.866
35.931
35.991
36.044
36.091
36.13
36.163
36.189
36.209
36.222
36.228
36.229
36.223
36.213
36.197
36.178
36.155
36.128
36.098
36.065
36.03
35.993
35.957
35.921
35.886
35.853
35.82
35.789
35.757
35.727
35.696
35.667
35.639
35.611
35.584
35.557
35.529
35.501
35.473
35.443
35.414
35.384
35.354
35.324
35.295
35.267
35.24
35.215
35.193
35.175
35.161
35.15
35.142
35.139
35.139
35.143
35.151
35.163
35.179
35.197
35.216
35.236
35.256
35.275
35.294
35.312
35.33
35.348
35.366
35.382
35.398
35.413
35.427
35.44
35.453
35.464
35.473
35.48
35.484
35.485
35.484
35.48
35.474
35.466
35.455
35.442
35.426
35.409
35.39
35.371
35.353
35.335
35.317
35.299
35.281
35.263
35.245
35.227
35.208
35.19
35.17
35.15
35.128
35.106
35.083
35.06
35.038
35.017
34.996
34.977
34.959
34.943
34.93
34.918
34.908
34.9
34.891
34.883
34.874
34.865
34.855
34.843
34.831
34.816
34.801
34.785
34.77
34.755
34.74
34.725
34.712
34.699
34.688
34.678
34.67
34.665
34.661
34.659
34.657
34.656
34.653
34.65
34.648
34.646
34.645
34.645
34.645
34.646
34.647
34.647
34.649
34.65
34.65
34.649
34.646
34.641
34.634
34.626
34.617
34.609
34.601
34.593
34.584
34.575
34.566
34.558
34.552
34.548
34.547
34.547
34.549
34.551
34.555
34.56
34.567
34.577
34.59
34.606
34.626
34.649
34.678
34.713
34.755
34.805
34.863
34.931
35.008
35.091
35.182
35.278
35.379
35.483
35.589
35.694
35.797
35.894
35.985
36.068
36.144
36.211
36.27
36.32
36.362
36.396
36.422
36.44
36.45
36.454
36.452
36.445
36.433
36.417
36.397
36.375
36.35
36.324
36.297
36.27
36.242
36.215
36.187
36.159
36.132
36.105
36.079
36.055
36.031
36.008
35.984
35.96
35.935
35.91
35.884
35.859
35.835
35.812
35.788
35.765
35.741
35.718
35.694
35.67
35.648
35.626
35.605
35.586
35.567
35.55
35.533
35.519
35.507
35.497
35.491
35.488
35.488
35.491
35.497
35.507
35.52
35.535
35.554
35.574
35.595
35.615
35.636
35.654
35.672
35.689
35.704
35.718
35.729
35.738
35.745
35.749
35.751
35.751
35.751
35.749
35.746
35.743
35.739
35.734
35.728
35.721
35.712
35.701
35.689
35.675
35.66
35.643
35.624
35.605
35.583
35.561
35.539
35.515
35.492
35.47
35.447
35.425
35.404
35.382
35.361
35.339
35.316
35.294
35.272
35.251
35.23
35.209
35.189
35.17
35.153
35.136
35.121
35.106
35.09
35.075
35.06
35.044
35.03
35.015
35.002
34.989
34.976
34.964
34.952
34.94
34.929
34.919
34.91
34.902
34.895
34.888
34.882
34.876
34.871
34.865
34.861
34.856
34.853
34.85
34.848
34.846
34.845
34.845
34.845
34.845
34.845
34.844
34.842
34.84
34.837
34.833
34.829
34.825
34.821
34.816
34.811
34.805
34.799
34.793
34.786
34.779
34.772
34.764
34.756
34.748
34.739
34.73
34.722
34.714
34.706
34.698
34.689
34.68
34.671
34.662
34.653
34.645
34.636
34.627
34.619
34.612
34.606
34.604
34.607
34.615
34.629
34.65
34.679
34.717
34.763
34.818
34.882
34.955
35.034
35.119
35.21
35.305
35.404
35.507
35.612
35.719
35.826
35.929
36.029
36.122
36.21
36.29
36.362
36.426
36.48
36.524
36.558
36.582
36.597
36.603
36.602
36.595
36.584
36.57
36.553
36.533
36.51
36.487
36.462
36.437
36.411
36.383
36.354
36.324
36.293
36.261
36.23
36.199
36.169
36.141
36.113
36.085
36.059
36.032
36.006
35.98
35.954
35.928
35.901
35.874
35.846
35.817
35.787
35.758
35.73
35.704
35.68
35.659
35.64
35.623
35.609
35.598
35.589
35.583
35.579
35.578
35.578
35.581
35.586
35.594
35.603
35.614
35.626
35.639
35.652
35.666
35.68
35.693
35.707
35.721
35.734
35.746
35.758
35.769
35.778
35.785
35.79
35.794
35.796
35.795
35.793
35.789
35.782
35.774
35.763
35.751
35.737
35.721
35.704
35.686
35.668
35.649
35.63
35.612
35.593
35.573
35.553
35.533
35.512
35.492
35.472
35.453
35.435
35.416
35.398
35.381
35.363
35.346
35.328
35.309
35.289
35.268
35.247
35.225
35.203
35.181
35.159
35.139
35.119
35.102
35.085
35.071
35.057
35.045
35.034
35.024
35.014
35.003
34.992
34.98
34.968
34.956
34.944
34.933
34.921
34.91
34.898
34.887
34.875
34.864
34.855
34.848
34.842
34.839
34.836
34.836
34.837
34.839
34.843
34.848
34.853
34.857
34.859
34.86
34.859
34.857
34.855
34.851
34.847
34.843
34.837
34.83
34.824
34.816
34.809
34.801
34.791
34.781
34.77
34.758
34.745
34.733
34.72
34.707
34.694
34.682
34.669
34.657
34.646
34.636
34.628
34.622
34.618
34.614
34.61
34.605
34.599
34.593
34.588
34.584
34.581
34.581
34.584
34.59
34.601
34.618
34.641
34.67
34.706
34.749
34.799
34.857
34.921
34.994
35.074
35.159
35.25
35.344
35.441
35.538
35.636
35.732
35.826
35.917
36.001
36.08
36.153
36.217
36.274
36.322
36.361
36.391
36.411
36.422
36.424
36.418
36.406
36.388
36.365
36.338
36.308
36.275
36.242
36.207
36.174
36.142
36.111
36.082
36.054
36.026
36.0
35.973
35.948
35.923
35.898
35.873
35.848
35.823
35.796
35.769
35.741
35.713
35.684
35.655
35.624
35.592
35.56
35.529
35.498
35.47
35.444
35.421
35.401
35.384
35.37
35.36
35.355
35.355
35.36
35.369
35.381
35.395
35.409
35.423
35.438
35.453
35.469
35.486
35.503
35.521
35.537
35.553
35.568
35.582
35.596
35.61
35.623
35.635
35.646
35.655
35.662
35.668
35.672
35.676
35.679
35.679
35.679
35.676
35.672
35.666
35.658
35.649
35.638
35.625
35.609
35.591
35.57
35.549
35.526
35.503
35.481
35.458
35.436
35.415
35.395
35.376
35.356
35.337
35.318
35.299
35.28
35.261
35.241
35.222
35.203
35.185
35.168
35.153
35.138
35.125
35.111
35.098
35.084
35.069
35.055
35.04
35.026
35.012
34.997
34.982
34.968
34.954
34.941
34.93
34.92
34.91
34.9
34.89
34.88
34.871
34.862
34.854
34.847
34.841
34.835
34.829
34.825
34.822
34.821
34.821
34.82
34.82
34.818
34.815
34.811
34.806
34.799
34.792
34.785
34.777
34.769
34.761
34.754
34.748
34.743
34.738
34.735
34.731
34.728
34.724
34.72
34.715
34.709
34.702
34.695
34.688
34.68
34.673
34.666
34.661
34.658
34.658
34.662
34.67
34.683
34.703
34.729
34.764
34.808
34.861
34.923
34.992
35.068
35.15
35.237
35.329
35.425
35.524
