Trial 1:0back
38.894
38.981
39.041
39.075
39.081
39.062
39.019
38.954
38.869
38.769
38.656
38.534
38.406
38.274
38.142
38.012
37.885
37.764
37.649
37.539
37.436
37.339
37.248
37.163
37.081
37.003
36.927
36.853
36.779
36.704
36.627
36.549
36.468
36.385
36.302
36.22
36.141
36.066
35.994
35.928
35.866
35.811
35.762
35.718
35.681
35.651
35.628
35.612
35.604
35.6
35.602
35.607
35.616
35.628
35.643
35.662
35.682
35.705
35.73
35.754
35.778
35.8
35.82
35.838
35.852
35.862
35.867
35.866
35.859
35.846
35.825
35.798
35.763
35.722
35.674
35.622
35.565
35.505
35.443
35.379
35.315
35.251
35.186
35.12
35.053
34.984
34.914
34.844
34.773
34.703
34.635
34.57
34.508
34.449
34.392
34.337
34.282
34.229
34.178
34.129
34.082
34.035
33.99
33.945
33.901
33.858
33.817
33.777
33.74
33.705
33.673
33.644
33.617
33.593
33.571
33.549
33.528
33.505
33.483
33.461
33.438
33.416
33.395
33.374
33.356
33.34
33.325
33.309
33.292
33.273
33.253
33.231
33.208
33.185
33.161
33.136
33.11
33.084
33.057
33.031
33.005
32.978
32.954
32.931
32.912
32.896
32.886
32.883
32.889
32.906
32.937
32.986
33.056
33.151
33.272
33.42
33.597
33.801
34.031
34.287
34.564
34.859
35.167
35.482
35.799
36.114
36.422
36.719
37.002
37.268
37.514
37.739
37.941
38.119
38.273
38.401
38.504
38.584
38.642
38.68
38.699
38.702
38.688
38.661
38.621
38.57
38.51
38.441
38.364
38.281
38.192
38.097
37.998
37.896
37.793
37.689
37.586
37.484
37.384
37.286
37.19
37.096
37.002
36.91
36.819
36.729
36.641
36.554
36.467
36.382
36.298
36.216
36.137
36.061
35.988
35.919
35.854
35.794
35.739
35.691
35.648
35.612
35.582
35.558
35.54
35.529
35.522
35.521
35.524
35.531
35.54
35.553
35.567
35.583
35.601
35.62
35.64
35.658
35.675
35.69
35.702
35.712
35.719
35.724
35.727
35.726
35.721
35.709
35.692
35.668
35.639
35.605
35.565
35.522
35.473
35.419
35.361
35.299
35.234
35.166
35.097
35.028
34.959
34.89
34.823
34.757
34.692
34.626
34.561
34.495
34.43
34.365
34.301
34.239
34.18
34.123
34.068
34.015
33.963
33.912
33.86
33.809
33.76
33.713
33.669
33.628
33.59
33.555
33.521
33.489
33.458
33.428
33.398
33.369
33.34
33.315
33.293
33.274
33.257
33.241
33.225
33.208
33.189
33.169
33.148
33.126
33.102
33.078
33.054
33.031
33.009
32.988
32.968
32.947
32.924
32.9
32.876
32.854
32.833
32.814
32.797
32.783
32.77
32.76
32.752
32.749
32.752
32.765
32.79
32.831
32.892
32.976
33.085
33.22
33.382
33.573
33.791
34.036
34.305
34.596
34.903
35.221
35.544
35.868
36.187
36.497
36.794
37.077
37.351
37.617
37.872
38.11
38.325
38.513
38.668
38.787
38.868
38.912
38.919
38.892
38.835
38.753
38.651
38.535
38.408
38.277
38.143
38.011
37.881
37.756
37.636
37.524
37.418
37.32
37.228
37.14
37.055
36.971
36.888
36.805
36.719
36.63
36.537
36.442
36.346
36.247
36.148
36.047
35.945
35.845
35.747
35.655
35.569
35.489
35.416
35.349
35.29
35.24
35.197
35.162
35.135
35.115
35.104
35.101
35.107
35.12
35.14
35.163
35.191
35.222
35.257
35.293
35.331
35.369
35.406
35.442
35.476
35.505
35.528
35.544
35.555
35.56
35.559
35.555
35.548
35.536
35.522
35.504
35.482
35.458
35.43
35.398
35.363
35.325
35.283
35.238
35.188
35.136
35.08
35.022
34.962
34.901
34.839
34.777
34.716
34.658
34.602
34.549
34.498
34.447
34.398
34.347
34.296
34.242
34.186
34.129
34.069
34.008
33.945
33.883
33.822
33.763
33.707
33.654
33.605
33.56
33.518
33.481
33.447
33.417
33.39
33.367
33.346
33.328
33.314
33.301
33.291
33.282
33.272
33.262
33.25
33.238
33.225
33.213
33.201
33.188
33.175
33.159
33.141
33.12
33.097
33.071
33.044
33.015
32.988
32.961
32.938
32.916
32.897
32.879
32.864
32.855
32.853
32.861
32.883
32.92
32.977
33.059
33.167
33.304
33.471
33.666
33.889
34.137
34.407
34.698
35.004
35.319
35.638
35.954
36.262
36.556
36.833
37.09
37.324
37.535
37.721
37.883
38.018
38.129
38.215
38.278
38.318
38.338
38.34
38.326
38.296
38.253
38.199
38.136
38.066
37.99
37.909
37.824
37.735
37.644
37.551
37.456
37.36
37.26
37.159
37.055
36.95
36.844
36.738
36.632
36.526
36.422
36.319
36.219
36.121
36.025
35.93
35.837
35.745
35.655
35.566
35.481
35.399
35.322
35.25
35.182
35.119
35.061
35.009
34.964
34.928
34.902
34.888
34.886
34.895
34.915
34.945
34.984
35.03
35.081
35.136
35.194
35.255
35.316
35.375
35.429
35.478
35.519
35.553
35.578
35.595
35.605
35.61
35.609
35.603
35.592
35.575
35.551
35.522
35.487
35.448
35.405
35.359
35.311
35.26
35.208
35.154
35.098
35.039
34.978
34.915
34.851
34.785
34.719
34.65
34.58
34.508
34.435
34.361
34.288
34.216
34.146
34.078
34.013
33.951
33.891
33.834
33.781
33.731
33.684
33.64
33.599
33.559
33.522
33.488
33.456
33.427
33.4
33.376
33.353
33.333
33.315
33.299
33.284
33.27
33.257
33.244
33.231
33.217
33.201
33.185
33.167
33.148
33.128
33.108
33.086
33.064
33.041
33.017
32.992
32.966
32.941
32.916
32.893
32.871
32.851
32.833
32.819
32.808
32.804
32.806
32.819
32.845
32.889
32.953
33.04
33.152
33.289
33.453
33.643
33.86
34.101
34.364
34.645
34.942
35.25
35.564
35.88
36.193
36.496
36.788
37.066
37.327
37.567
37.782
37.967
38.123
38.248
38.343
38.407
38.443
38.454
38.444
38.415
38.371
38.313
38.245
38.168
38.085
37.997
37.906
37.813
37.719
37.622
37.525
37.427
37.328
37.23
37.131
37.032
36.933
36.833
36.734
36.635
36.542
36.455
36.373
36.295
36.219
36.143
36.064
35.982
35.895
35.804
35.709
35.611
35.512
35.412
35.315
35.222
35.135
35.057
34.989
34.933
34.888
34.857
34.838
34.832
34.839
34.857
34.885
34.922
34.967
35.018
35.075
35.135
35.197
35.261
35.324
35.384
35.44
35.489
35.53
35.562
35.587
35.607
35.622
35.631
35.634
35.632
35.624
35.609
35.589
35.562
35.528
35.488
35.444
35.395
35.344
35.29
35.232
35.17
35.103
35.034
34.962
34.89
34.818
34.749
34.682
34.618
34.555
34.494
34.432
34.371
34.309
34.248
34.189
34.132
34.077
34.024
33.973
33.923
33.874
33.826
33.779
33.733
33.69
33.649
33.611
33.576
33.544
33.514
33.486
33.459
33.433
33.408
33.385
33.363
33.343
33.324
33.306
33.288
33.272
33.255
33.24
33.225
33.21
33.195
33.179
33.161
33.143
33.123
33.104
33.084
33.063
33.044
33.026
33.012
33.001
32.997
33.0
33.013
33.039
33.082
33.143
33.226
33.332
33.464
33.623
33.808
34.02
34.259
34.522
34.806
35.105
35.416
35.734
36.052
36.366
36.668
36.955
37.223
37.47
37.692
37.89
38.061
38.206
38.324
38.417
38.484
38.527
38.549
38.554
38.544
38.521
38.487
38.443
38.39
38.329
38.261
38.186
38.105
38.02
37.931
37.839
37.745
37.649
37.551
37.451
37.35
37.247
37.142
37.036
36.929
36.821
36.713
36.604
36.493
36.382
36.268
36.154
36.041
35.931
35.825
35.724
35.629
35.54
35.459
35.384
35.318
35.26
35.212
35.174
35.146
35.128
35.121
35.122
35.133
35.151
35.178
35.21
35.249
35.291
35.338
35.388
35.44
35.493
35.547
35.6
35.651
35.698
35.741
35.779
35.811
35.835
35.852
35.86
35.86
35.853
35.839
35.819
35.793
35.761
35.725
35.685
35.641
35.594
35.544
35.493
35.44
35.384
35.327
35.268
35.207
35.144
35.078
35.008
34.935
34.861
34.786
34.711
34.637
34.564
34.493
34.421
34.351
34.283
34.219
34.158
34.1
34.048
34.0
33.957
33.919
33.885
33.853
33.822
33.792
33.764
33.737
33.711
33.685
33.66
33.634
33.607
33.581
33.554
33.528
33.503
33.478
33.453
33.428
33.404
33.381
33.36
33.34
33.32
33.302
33.284
33.265
33.246
33.227
33.208
33.191
33.177
33.167
33.162
33.164
33.175
33.199
33.237
33.293
33.37
33.471
33.598
33.753
33.937
34.148
34.386
34.649
34.933
35.234
35.545
35.864
36.183
36.499
36.808
37.106
37.388
37.652
37.895
38.115
38.311
38.483
38.63
38.754
38.855
38.934
38.992
39.03
39.05
39.053
39.041
39.017
38.982
38.936
38.883
38.822
38.755
38.683
38.604
38.521
38.434
38.345
38.254
38.162
38.069
37.975
37.88
37.784
37.689
37.594
37.5
37.406
37.312
37.221
37.13
37.041
36.952
36.863
36.774
36.686
36.595
36.501
36.402
36.302
36.204
36.11
36.023
35.945
35.876
35.818
35.77
35.734
35.709
35.696
35.693
35.699
35.713
35.733
35.757
35.784
35.814
35.845
35.877
35.911
35.944
35.976
36.005
36.03
36.051
36.067
36.079
36.086
36.09
36.087
36.077
36.059
36.032
35.997
35.957
35.911
35.862
35.811
35.76
35.708
35.657
35.607
35.557
35.508
35.457
35.405
35.35
35.292
35.233
35.171
35.108
35.042
34.975
34.907
34.837
34.767
34.695
34.623
34.551
34.482
34.414
34.351
34.292
34.237
34.186
34.139
34.095
34.055
34.017
33.98
33.943
33.907
33.873
33.84
33.809
33.78
33.753
33.726
33.7
33.675
33.649
33.622
33.593
33.564
33.536
33.509
33.482
33.457
33.431
33.406
33.38
33.354
33.326
33.297
33.267
33.238
33.21
33.187
33.171
33.163
33.167
33.186
33.224
33.281
33.361
33.467
33.601
33.763
33.954
34.175
34.424
34.697
34.991
35.301
35.622
35.95
36.279
36.604
36.921
37.228
37.52
37.795
38.051
38.286
38.498
38.688
38.853
38.996
39.116
39.215
39.295
39.354
39.396
39.42
39.429
39.422
39.401
39.368
39.323
39.267
39.202
39.127
39.044
38.953
38.856
38.755
38.65
38.545
38.439
38.335
38.232
38.131
38.033
37.938
37.846
37.757
37.671
37.589
37.509
37.431
37.355
37.279
37.203
37.126
37.048
36.969
36.888
36.807
36.725
36.646
36.57
36.497
36.43
36.368
36.311
36.261
36.218
36.182
36.152
36.13
36.115
36.106
36.102
36.103
36.107
36.114
36.123
36.135
36.15
36.17
36.192
36.215
36.239
36.261
36.28
36.295
36.304
36.306
36.3
36.287
36.265
36.236
36.199
36.155
36.106
36.052
35.995
35.936
35.875
35.813
35.751
35.688
35.624
35.56
35.496
35.429
35.362
35.292
35.222
35.15
35.078
35.007
34.936
34.867
34.8
34.735
34.672
34.61
34.549
34.49
34.431
34.373
34.316
34.26
34.205
34.153
34.102
34.053
34.007
33.964
33.923
33.885
33.849
33.815
33.781
33.748
33.716
33.683
33.651
33.619
33.586
33.552
33.519
33.486
33.455
33.424
33.395
33.367
33.341
33.316
33.292
33.268
33.243
33.218
33.194
33.171
33.152
33.135
33.123
33.116
33.114
33.121
33.138
33.169
33.217
33.286
33.378
33.498
33.644
33.82
34.023
34.251
34.503
34.775
35.064
35.365
35.675
35.989
36.303
36.614
36.918
37.212
37.493
37.757
38.002
38.227
38.429
38.608
38.764
38.897
39.007
39.094
39.159
39.202
39.226
39.232
39.222
39.198
39.161
39.113
39.054
38.985
38.907
38.82
38.727
38.628
38.526
38.421
38.315
38.209
38.104
38.001
37.901
37.804
37.71
37.618
37.528
37.44
37.353
37.266
37.181
37.095
37.009
36.923
36.838
36.755
36.672
36.592
36.512
36.435
36.36
36.289
36.22
36.154
36.092
36.035
35.983
35.934
35.889
35.848
35.812
35.782
35.758
35.74
35.729
35.723
35.722
35.726
35.734
35.748
35.764
35.784
35.805
35.827
35.849
35.869
35.885
35.897
35.905
35.908
35.906
35.9
35.887
35.868
35.844
35.814
35.778
35.737
35.701
35.673
35.652
35.636
35.62
35.599
35.57
35.53
35.476
35.409
35.328
35.236
35.134
35.024
34.909
34.793
34.678
34.567
34.461
34.362
34.27
34.187
34.113
34.047
33.989
33.938
33.893
33.854
33.818
33.785
33.753
33.722
33.69
33.658
33.627
33.597
33.569
33.542
33.517
33.492
33.468
33.443
33.418
33.392
33.367
33.342
33.318
33.295
33.273
33.253
33.234
33.215
33.196
33.177
33.156
33.132
33.107
33.079
33.051
33.023
32.996
32.969
32.943
32.918
32.894
32.872
32.852
32.836
32.825
32.821
32.828
32.848
32.885
32.941
33.018
33.119
33.246
33.401
33.585
33.797
34.037
34.302
34.589
34.894
35.212
35.539
35.868
36.196
36.517
36.828
37.125
37.404
37.662
37.896
38.106
38.29
38.447
38.58
38.687
38.77
38.83
38.868
38.887
38.888
38.873
38.845
38.806
38.756
38.697
38.629
38.554
38.474
38.39
38.303
38.214
38.123
38.03
37.935
37.838
37.74
37.643
37.547
37.451
37.356
37.262
37.168
37.076
36.985
36.895
36.805
36.714
36.623
36.531
36.437
36.343
36.251
36.16
36.073
35.992
35.919
35.854
35.798
35.748
35.707
35.672
35.643
35.619
35.602
35.588
35.579
35.573
35.571
35.573
35.577
35.584
35.593
35.605
35.62
35.637
35.657
35.677
35.698
35.721
35.744
35.767
35.788
35.807
35.822
35.832
35.836
35.832
35.818
35.794
35.76
35.716
35.666
35.612
35.554
35.492
35.427
35.359
35.288
35.215
35.139
35.062
34.985
34.907
34.831
34.757
34.685
34.614
34.545
34.477
34.412
34.349
34.288
34.228
34.169
34.111
34.055
34.0
33.946
33.893
33.84
33.788
33.736
33.688
33.641
33.598
33.559
33.523
33.489
33.458
33.429
33.402
33.376
33.351
33.326
33.302
33.279
33.256
33.234
33.213
33.194
33.179
33.166
33.154
33.143
33.13
33.115
33.099
33.079
33.058
33.034
33.01
32.983
32.955
32.927
32.897
32.867
32.836
32.805
32.776
32.749
32.726
32.708
32.697
32.692
32.697
32.713
32.742
32.788
32.853
32.94
33.052
33.194
33.367
33.571
33.807
34.071
34.359
34.666
34.989
35.322
35.658
35.994
36.324
36.643
36.948
37.236
37.502
37.745
37.963
38.154
38.319
38.457
38.57
38.658
38.722
38.763
38.783
38.782
38.763
38.728
38.68
38.621
38.553
38.477
38.394
38.305
38.212
38.114
38.014
37.912
37.809
37.707
37.606
37.507
37.41
37.315
37.219
37.124
37.027
36.93
36.833
36.736
36.639
36.543
36.447
36.35
36.254
36.159
36.064
35.971
35.881
35.794
35.713
35.636
35.566
35.503
35.449
35.405
35.37
35.344
35.327
35.318
35.316
35.322
35.332
35.347
35.365
35.385
35.406
35.429
35.452
35.477
35.501
35.525
35.548
35.568
35.587
35.604
35.618
35.628
35.634
35.635
35.63
35.618
35.601
35.577
35.548
35.513
35.474
35.432
35.385
35.333
35.278
35.218
35.156
35.092
35.027
34.962
34.896
34.83
34.762
34.692
34.621
34.548
34.474
34.399
34.325
34.252
34.182
34.114
34.05
33.988
33.927
33.868
33.81
33.754
33.701
33.651
33.604
33.561
33.52
33.482
33.446
33.41
33.375
33.34
33.305
33.27
33.236
33.203
33.171
33.142
33.116
33.091
33.07
33.05
33.033
33.018
33.005
32.995
32.986
32.98
32.974
32.969
32.962
32.953
32.941
32.926
32.908
32.888
32.864
32.838
32.81
32.78
32.75
32.72
32.691
32.663
32.638
32.614
32.592
32.573
32.558
32.549
32.548
32.557
32.58
32.618
32.676
32.756
32.861
32.994
33.157
33.353
33.58
33.839
34.126
34.438
34.772
35.119
35.472
35.824
36.167
36.497
36.808
37.098
37.363
37.602
37.814
38.001
38.16
38.294
38.402
38.486
38.546
38.585
38.604
38.605
38.591
38.562
38.52
38.467
38.402
38.327
38.243
38.152
38.057
37.96
37.86
37.759
37.656
37.552
37.448
37.343
37.236
37.128
37.02
36.911
36.804
36.696
36.589
36.481
36.374
36.267
36.163
36.061
35.962
35.867
35.775
35.687
35.603
35.523
35.447
35.375
35.309
35.25
35.2
35.158
35.126
35.101
35.083
35.072
35.066
35.068
35.075
35.09
35.112
35.139
35.171
35.206
35.243
35.281
35.319
35.354
35.387
35.416
35.442
35.463
35.48
35.491
35.499
35.502
35.5
35.493
35.481
35.464
35.442
35.414
35.379
35.338
35.293
35.244
35.192
35.136
35.078
35.017
34.955
34.891
34.824
34.756
34.686
34.614
34.542
34.472
34.403
34.335
34.268
34.203
34.139
34.075
34.012
33.95
33.889
33.829
33.771
33.715
33.662
33.611
33.561
33.512
33.464
33.417
33.373
33.331
33.293
33.259
33.228
33.201
33.176
33.152
33.129
33.105
33.082
33.058
33.033
33.009
32.986
32.962
32.94
32.919
32.899
32.881
32.866
32.852
32.839
32.826
32.812
32.797
32.781
32.766
32.75
32.733
32.716
32.697
32.677
32.655
32.632
32.608
32.582
32.558
32.535
32.516
32.5
32.488
32.482
32.483
32.493
32.515
32.551
32.605
32.68
32.78
32.909
33.069
33.261
33.487
33.745
34.033
34.347
34.681
35.029
35.385
35.744
36.1
36.447
36.78
37.095
37.386
37.649
37.881
38.082
38.252
38.389
38.497
38.575
38.627
38.655
38.66
38.644
38.61
38.558
38.492
38.415
38.33
38.237
38.14
38.038
37.934
37.828
37.72
37.61
37.498
37.386
37.274
37.164
37.055
36.947
36.839
36.731
36.623
36.515
36.405
36.294
36.182
36.07
35.958
35.848
35.74
35.636
35.534
35.435
35.34
35.25
35.165
35.088
35.018
34.957
34.906
34.864
34.831
34.807
34.791
34.782
34.78
34.784
34.795
34.811
34.832
34.859
34.89
34.926
34.965
35.007
35.052
35.099
35.147
35.194
35.238
35.276
35.309
35.335
35.354
35.367
35.373
35.372
35.364
35.35
35.33
35.304
35.274
35.239
35.2
35.157
35.111
35.06
35.007
34.949
34.888
34.824
34.757
34.688
34.618
34.548
34.476
34.405
34.335
34.267
34.202
34.139
34.078
34.019
33.962
33.907
33.852
33.798
33.743
33.687
33.63
33.573
33.517
33.464
33.412
33.362
33.314
33.268
33.226
33.187
33.151
33.119
33.088
33.059
33.031
33.006
32.982
32.959
32.938
32.918
32.9
32.881
32.865
32.849
32.836
32.824
32.812
32.802
32.792
32.783
32.773
32.761
32.748
32.732
32.715
32.696
32.677
32.656
32.634
32.611
32.587
32.563
32.539
32.515
32.495
32.478
32.466
32.461
32.464
32.477
32.502
32.542
32.598
32.674
32.772
32.894
33.043
33.222
33.434
33.677
33.953
34.259
34.59
34.942
35.308
35.683
36.059
36.429
36.786
37.123
37.435
37.719
37.969
38.185
38.366
38.513
38.627
38.709
38.76
38.783
38.778
38.749
38.7
38.633
38.551
38.458
38.355
38.245
38.129
38.007
37.883
37.757
37.631
37.507
37.385
37.266
37.15
37.036
36.924
36.814
36.702
36.59
36.476
36.361
36.245
36.13
36.016
35.904
35.793
35.683
35.576
35.472
35.371
35.275
35.183
35.097
35.017
34.942
34.872
34.807
34.748
34.696
34.652
34.617
34.592
34.58
34.58
34.592
34.616
34.651
34.695
34.748
34.807
34.871
34.937
35.003
35.068
35.131
35.189
35.244
35.293
35.335
35.371
35.401
35.425
35.441
35.45
35.451
35.445
35.431
35.409
35.38
35.345
35.304
35.258
35.207
35.152
35.092
35.029
34.962
34.89
34.816
34.74
34.664
34.588
34.513
34.44
34.369
34.3
34.232
34.166
34.103
34.041
33.982
33.925
33.87
33.817
33.765
33.715
33.666
33.617
33.567
33.518
33.47
33.424
33.381
33.341
33.304
33.27
33.236
33.203
33.169
33.136
33.104
33.074
33.045
33.02
32.998
32.98
32.964
32.949
32.934
32.919
32.904
32.889
32.874
32.86
32.846
32.832
32.819
32.805
32.79
32.775
32.758
32.74
32.721
32.7
32.679
32.659
32.641
32.626
32.614
32.607
32.604
32.608
32.619
32.639
32.67
32.715
32.777
32.858
32.964
33.096
33.258
33.45
33.674
33.929
34.213
34.524
34.858
35.21
35.573
35.941
36.306
36.661
37.001
37.321
37.615
37.88
38.112
38.309
38.471
38.596
38.686
38.744
38.771
38.77
38.746
38.701
38.639
38.561
38.472
38.373
38.266
38.155
38.039
37.921
37.8
37.679
37.558
37.436
37.314
37.191
37.068
36.946
36.826
36.707
36.589
36.472
36.354
36.234
36.113
35.992
35.869
35.748
35.628
35.51
35.395
35.284
35.175
35.07
34.969
34.874
34.788
34.713
34.65
34.598
34.556
34.524
34.5
34.485
34.477
34.477
34.484
34.5
34.524
34.556
34.597
34.645
34.699
34.757
34.819
34.882
34.946
35.009
35.068
35.123
35.173
35.217
35.253
35.281
35.301
35.313
35.318
35.315
35.305
35.289
35.267
35.239
35.206
35.168
35.126
35.08
35.029
34.975
34.917
34.857
34.795
34.732
34.668
34.601
34.531
34.458
34.384
34.307
34.23
34.153
34.079
34.008
33.94
33.876
33.815
33.759
33.706
33.657
33.61
33.566
33.524
33.484
