Trial 1:0back
34.126
34.191
34.256
34.321
34.385
34.448
34.513
34.583
34.659
34.742
34.833
34.93
35.032
35.137
35.245
35.354
35.463
35.572
35.679
35.783
35.883
35.977
36.064
36.143
36.212
36.272
36.323
36.364
36.397
36.421
36.439
36.45
36.457
36.459
36.457
36.452
36.444
36.434
36.421
36.407
36.39
36.371
36.35
36.326
36.3
36.272
36.244
36.216
36.189
36.163
36.136
36.108
36.079
36.047
36.013
35.978
35.941
35.903
35.864
35.824
35.781
35.735
35.687
35.638
35.59
35.545
35.504
35.469
35.438
35.412
35.39
35.37
35.352
35.336
35.322
35.309
35.296
35.284
35.272
35.26
35.247
35.234
35.22
35.205
35.189
35.174
35.159
35.146
35.135
35.127
35.119
35.112
35.106
35.099
35.091
35.084
35.078
35.072
35.066
35.06
35.053
35.043
35.031
35.017
35.0
34.981
34.961
34.94
34.918
34.895
34.871
34.847
34.821
34.797
34.773
34.75
34.727
34.704
34.679
34.652
34.623
34.593
34.563
34.536
34.51
34.486
34.463
34.442
34.421
34.399
34.377
34.354
34.329
34.304
34.278
34.253
34.228
34.204
34.181
34.158
34.135
34.112
34.09
34.067
34.046
34.027
34.01
33.994
33.979
33.965
33.952
33.94
33.929
33.92
33.912
33.905
33.9
33.895
33.891
33.887
33.882
33.878
33.874
33.869
33.863
33.857
33.849
33.842
33.834
33.828
33.824
33.82
33.818
33.818
33.818
33.821
33.825
33.831
33.841
33.853
33.87
33.892
33.918
33.951
33.989
34.033
34.084
34.142
34.208
34.282
34.363
34.452
34.548
34.653
34.764
34.882
35.006
35.135
35.268
35.404
35.543
35.682
35.82
35.954
36.084
36.208
36.328
36.443
36.553
36.657
36.755
36.844
36.924
36.995
37.057
37.111
37.155
37.19
37.216
37.234
37.244
37.249
37.248
37.242
37.232
37.218
37.201
37.181
37.161
37.141
37.122
37.104
37.086
37.067
37.048
37.025
36.998
36.964
36.924
36.877
36.825
36.77
36.712
36.653
36.59
36.525
36.458
36.389
36.32
36.252
36.185
36.121
36.061
36.006
35.955
35.909
35.866
35.828
35.793
35.761
35.733
35.707
35.685
35.664
35.646
35.63
35.616
35.604
35.594
35.584
35.575
35.567
35.56
35.554
35.549
35.544
35.538
35.53
35.519
35.506
35.491
35.475
35.459
35.443
35.424
35.405
35.385
35.364
35.343
35.323
35.303
35.283
35.263
35.241
35.219
35.193
35.164
35.131
35.096
35.059
35.02
34.981
34.942
34.903
34.864
34.826
34.79
34.754
34.717
34.681
34.644
34.608
34.573
34.539
34.506
34.473
34.44
34.407
34.375
34.343
34.312
34.283
34.256
34.231
34.208
34.187
34.166
34.145
34.123
34.103
34.083
34.065
34.048
34.031
34.015
33.998
33.982
33.966
33.95
33.933
33.915
33.899
33.885
33.873
33.864
33.857
33.85
33.844
33.838
33.832
33.825
33.819
33.815
33.811
33.809
33.808
33.807
33.804
33.799
33.79
33.78
33.767
33.753
33.739
33.726
33.715
33.706
33.701
33.698
33.698
33.7
33.707
33.717
33.733
33.754
33.784
33.823
33.872
33.932
34.002
34.081
34.169
34.266
34.373
34.491
34.619
34.757
34.904
35.057
35.215
35.374
35.532
35.688
35.839
35.986
36.126
36.259
36.384
36.5
36.606
36.703
36.79
36.868
36.938
37.001
37.056
37.104
37.146
37.18
37.207
37.227
37.239
37.245
37.245
37.239
37.229
37.215
37.197
37.174
37.149
37.122
37.093
37.064
37.036
37.008
36.98
36.953
36.924
36.893
36.859
36.823
36.784
36.745
36.705
36.664
36.621
36.577
36.531
36.482
36.43
36.377
36.325
36.274
36.225
36.179
36.135
36.093
36.054
36.019
35.986
35.957
35.932
35.912
35.896
35.884
35.876
35.871
35.87
35.872
35.877
35.883
35.888
35.893
35.894
35.892
35.884
35.871
35.853
35.831
35.806
35.78
35.754
35.729
35.704
35.68
35.656
35.632
35.607
35.583
35.559
35.535
35.512
35.491
35.47
35.447
35.423
35.396
35.366
35.334
35.301
35.268
35.236
35.204
35.172
35.139
35.105
35.07
35.032
34.993
34.951
34.909
34.865
34.821
34.777
34.734
34.691
34.648
34.605
34.563
34.52
34.477
34.435
34.394
34.355
34.319
34.285
34.253
34.223
34.196
34.17
34.146
34.124
34.105
34.088
34.073
34.059
34.047
34.035
34.025
34.017
34.009
34.002
33.994
33.985
33.976
33.967
33.957
33.948
33.94
33.932
33.925
33.917
33.908
33.896
33.884
33.87
33.857
33.844
33.832
33.819
33.806
33.793
33.779
33.766
33.751
33.736
33.722
33.709
33.7
33.695
33.693
33.696
33.704
33.719
33.741
33.772
33.812
33.864
33.928
34.006
34.098
34.204
34.322
34.449
34.584
34.724
34.868
35.018
35.17
35.325
35.481
35.638
35.793
35.946
36.096
36.242
36.383
36.517
36.644
36.762
36.871
36.97
37.059
37.139
37.209
37.27
37.322
37.366
37.402
37.429
37.446
37.455
37.455
37.448
37.435
37.416
37.393
37.366
37.336
37.303
37.268
37.232
37.193
37.152
37.108
37.062
37.013
36.964
36.915
36.866
36.82
36.775
36.732
36.69
36.648
36.607
36.564
36.519
36.471
36.42
36.367
36.314
36.261
36.21
36.16
36.112
36.063
36.015
35.967
35.919
35.873
35.83
35.793
35.762
35.737
35.717
35.702
35.689
35.678
35.668
35.661
35.655
35.651
35.648
35.645
35.642
35.638
35.633
35.627
35.621
35.617
35.614
35.611
35.608
35.604
35.599
35.591
35.581
35.569
35.554
35.537
35.519
35.5
35.48
35.459
35.436
35.412
35.386
35.357
35.325
35.29
35.252
35.213
35.173
35.133
35.091
35.048
35.004
34.958
34.914
34.871
34.83
34.792
34.757
34.725
34.695
34.666
34.638
34.608
34.577
34.545
34.513
34.48
34.448
34.417
34.388
34.36
34.332
34.304
34.275
34.245
34.215
34.187
34.16
34.135
34.113
34.092
34.072
34.053
34.034
34.014
33.994
33.975
33.957
33.94
33.925
33.91
33.896
33.881
33.866
33.851
33.837
33.823
33.81
33.799
33.79
33.784
33.778
33.774
33.77
33.765
33.759
33.753
33.748
33.745
33.747
33.755
33.773
33.801
33.839
33.888
33.947
34.016
34.096
34.188
34.292
34.407
34.534
34.67
34.814
34.965
35.121
35.281
35.442
35.605
35.768
35.927
36.083
36.231
36.372
36.501
36.617
36.717
36.802
36.871
36.927
36.973
37.01
37.041
37.068
37.09
37.11
37.126
37.139
37.149
37.155
37.158
37.158
37.153
37.142
37.126
37.105
37.078
37.047
37.012
36.974
36.933
36.889
36.84
36.787
36.732
36.673
36.614
36.554
36.495
36.437
36.38
36.322
36.263
36.203
36.143
36.083
36.024
35.966
35.91
35.857
35.807
35.76
35.718
35.679
35.643
35.611
35.582
35.556
35.534
35.517
35.504
35.495
35.49
35.487
35.485
35.483
35.482
35.48
35.478
35.475
35.473
35.471
35.47
35.47
35.472
35.476
35.48
35.485
35.489
35.493
35.496
35.496
35.493
35.488
35.48
35.471
35.46
35.446
35.428
35.406
35.38
35.352
35.323
35.293
35.264
35.237
35.212
35.189
35.168
35.148
35.126
35.104
35.08
35.055
35.029
35.003
34.978
34.954
34.931
34.907
34.883
34.858
34.832
34.804
34.775
34.745
34.713
34.681
34.649
34.617
34.585
34.552
34.518
34.483
34.448
34.414
34.381
34.35
34.32
34.291
34.265
34.241
34.221
34.203
34.187
34.173
34.16
34.149
34.138
34.127
34.115
34.103
34.091
34.079
34.065
34.049
34.031
34.012
33.994
33.977
33.961
33.947
33.936
33.929
33.925
33.926
33.934
33.947
33.969
33.999
34.04
34.092
34.157
34.234
34.324
34.428
34.545
34.676
34.819
34.972
35.134
35.305
35.483
35.668
35.857
36.048
36.236
36.421
36.599
36.77
36.933
37.087
37.233
37.371
37.5
37.621
37.733
37.834
37.923
37.999
38.061
38.108
38.14
38.158
38.164
38.158
38.143
38.12
38.089
38.052
38.012
37.969
37.927
37.885
37.845
37.807
37.77
37.735
37.7
37.664
37.628
37.59
37.55
37.507
37.459
37.408
37.352
37.292
37.23
37.167
37.107
37.049
36.996
36.947
36.899
36.853
36.805
36.757
36.709
36.662
36.616
36.57
36.523
36.474
36.423
36.368
36.31
36.249
36.186
36.12
36.052
35.982
35.909
35.835
35.761
35.689
35.622
35.562
35.512
35.471
35.438
35.414
35.395
35.379
35.366
35.351
35.334
35.314
35.29
35.263
35.234
35.202
35.169
35.133
35.097
35.062
35.027
34.996
34.97
34.949
34.933
34.923
34.919
34.918
34.921
34.928
34.937
34.949
34.963
34.977
34.989
34.998
35.003
35.003
34.998
34.989
34.976
34.962
34.946
34.931
34.914
34.895
34.874
34.851
34.826
34.802
34.778
34.755
34.733
34.713
34.694
34.675
34.655
34.634
34.61
34.585
34.56
34.535
34.512
34.493
34.477
34.467
34.468
34.477
34.493
34.511
34.527
34.539
34.545
34.544
34.534
34.516
34.488
34.452
34.41
34.363
34.314
34.265
34.219
34.178
34.142
34.114
34.093
34.079
34.073
34.075
34.086
34.106
34.138
34.182
34.24
34.313
34.401
34.504
34.621
34.75
34.893
35.047
35.212
35.388
35.574
35.767
35.966
36.168
36.371
36.574
36.777
36.977
37.174
37.365
37.548
37.72
37.881
38.027
38.16
38.278
38.383
38.475
38.553
38.617
38.667
38.702
38.723
38.731
38.728
38.715
38.694
38.665
38.628
38.583
38.534
38.482
38.428
38.376
38.327
38.28
38.234
38.188
38.142
38.095
38.048
38.002
37.954
37.906
37.855
37.802
37.746
37.687
37.626
37.562
37.497
37.43
37.363
37.294
37.225
37.155
37.087
37.026
36.976
36.935
36.901
36.871
36.843
36.814
36.782
36.746
36.706
36.662
36.613
36.561
36.505
36.448
36.391
36.337
36.287
36.241
36.201
36.167
36.138
36.116
36.099
36.086
36.076
36.067
36.059
36.051
36.044
36.037
36.031
36.025
36.018
36.01
36.0
35.985
35.968
35.947
35.924
35.899
35.873
35.844
35.812
35.776
35.735
35.689
35.639
35.588
35.538
35.489
35.444
35.401
35.359
35.317
35.274
35.232
35.189
35.148
35.11
35.074
35.042
35.015
34.993
34.976
34.963
34.952
34.943
34.936
34.93
34.924
34.918
34.913
34.907
34.899
34.889
34.876
34.858
34.836
34.811
34.784
34.756
34.728
34.699
34.669
34.638
34.605
34.571
34.538
34.506
34.475
34.446
34.42
34.395
34.372
34.351
34.329
34.303
34.27
34.231
34.188
34.143
34.098
34.056
34.021
33.995
33.98
33.976
33.985
34.006
34.04
34.088
34.152
34.231
34.325
34.434
34.555
34.687
34.831
34.986
35.152
35.327
35.512
35.704
35.902
36.103
36.304
36.504
36.702
36.896
37.086
37.269
37.444
37.607
37.757
37.893
38.016
38.126
38.223
38.31
38.384
38.448
38.499
38.539
38.567
38.585
38.593
38.592
38.583
38.565
38.539
38.505
38.463
38.415
38.363
38.308
38.251
38.193
38.134
38.074
38.013
37.953
37.893
37.834
37.776
37.718
37.66
37.602
37.543
37.482
37.418
37.352
37.285
37.215
37.145
37.074
37.002
36.928
36.853
36.777
36.701
36.627
36.555
36.487
36.424
36.366
36.313
36.265
36.221
36.18
36.142
36.107
36.076
36.049
36.026
36.006
35.99
35.975
35.959
35.942
35.923
35.905
35.887
35.871
35.858
35.848
35.84
35.834
35.827
35.818
35.808
35.796
35.781
35.765
35.746
35.725
35.701
35.674
35.645
35.612
35.578
35.543
35.506
35.469
35.432
35.393
35.353
35.309
35.262
35.211
35.158
35.103
35.047
34.992
34.938
34.886
34.837
34.79
34.746
34.704
34.665
34.629
34.596
34.567
34.54
34.514
34.487
34.459
34.43
34.399
34.367
34.334
34.299
34.265
34.232
34.201
34.17
34.14
34.112
34.084
34.057
34.03
34.002
33.974
33.946
33.92
33.895
33.872
33.849
33.826
33.802
33.777
33.752
33.729
33.706
33.685
33.666
33.648
33.633
33.619
33.607
33.596
33.588
33.583
33.582
33.587
33.598
33.616
33.643
33.68
33.73
33.793
33.869
33.958
34.062
34.181
34.314
34.462
34.624
34.798
34.984
35.178
35.378
35.583
35.79
35.999
36.207
36.413
36.614
36.808
36.993
37.168
37.332
37.482
37.62
37.745
37.855
37.951
38.032
38.099
38.153
38.195
38.226
38.246
38.255
38.254
38.243
38.223
38.194
38.156
38.113
38.066
38.015
37.962
37.906
37.846
37.782
37.715
37.648
37.581
37.517
37.456
37.396
37.338
37.281
37.223
37.166
37.107
37.048
36.987
36.925
36.862
36.796
36.729
36.658
36.585
36.51
36.434
36.358
36.283
36.21
36.14
36.074
36.012
35.954
35.9
35.852
35.809
35.771
35.738
35.711
35.69
35.675
35.664
35.656
35.649
35.643
35.638
35.634
35.633
35.633
35.634
35.635
35.633
35.628
35.62
35.608
35.593
35.576
35.559
35.542
35.524
35.507
35.488
35.468
35.447
35.424
35.399
35.372
35.344
35.316
35.286
35.257
35.226
35.194
35.16
35.125
35.088
35.05
35.012
34.975
34.941
34.907
34.875
34.841
34.806
34.767
34.727
34.684
34.64
34.597
34.554
34.513
34.474
34.437
34.401
34.367
34.334
34.301
34.27
34.241
34.214
34.188
34.165
34.143
34.122
34.101
34.08
34.056
34.031
34.004
33.975
33.947
33.919
33.892
33.865
33.838
33.811
33.784
33.758
33.734
33.711
33.691
33.674
33.659
33.648
33.638
33.63
33.624
33.619
33.617
33.618
33.622
33.634
33.653
33.684
33.726
33.781
33.849
33.93
34.023
34.13
34.25
34.385
34.534
34.698
34.875
35.064
35.262
35.466
35.674
35.884
36.094
36.303
36.508
36.704
36.89
37.064
37.223
37.371
37.506
37.63
37.742
37.842
37.929
38.003
38.062
38.106
38.135
38.151
38.154
38.146
38.128
38.102
38.068
38.028
37.984
37.936
37.886
37.834
37.783
37.732
37.68
37.629
37.577
37.527
37.477
37.428
37.378
37.328
37.275
37.22
37.162
37.099
37.032
36.961
36.885
36.805
36.723
36.639
36.554
36.47
36.386
36.304
36.223
36.146
36.073
36.006
35.948
35.899
35.858
35.826
35.801
35.781
35.765
35.753
35.744
35.738
35.737
35.74
35.747
35.756
35.765
35.772
35.777
35.779
35.778
35.775
35.769
35.761
35.751
35.738
35.723
35.706
35.686
35.663
35.638
35.613
35.587
35.563
35.54
35.519
35.499
35.478
35.456
35.437
35.426
35.424
35.43
35.442
35.454
35.464
35.469
35.465
35.45
35.423
35.385
35.338
35.284
35.224
35.162
35.098
35.034
34.971
34.909
34.849
34.791
34.735
34.682
34.632
34.585
34.543
34.504
34.47
34.438
34.408
34.38
34.353
34.328
34.304
34.281
34.261
34.244
34.229
34.214
34.198
34.179
34.157
34.132
34.105
34.077
34.049
34.022
33.995
33.969
33.945
33.922
33.901
33.883
33.868
33.859
33.856
33.86
33.872
33.892
33.922
33.961
34.011
34.071
34.144
34.227
34.322
34.429
34.55
34.684
34.831
34.989
35.156
35.329
35.508
35.691
35.878
36.066
36.253
36.438
36.618
36.791
36.956
37.114
37.263
37.402
37.531
37.647
37.749
37.835
37.907
37.963
38.005
38.034
38.052
38.06
38.061
38.056
38.044
38.027
38.005
37.979
37.95
37.917
37.88
37.839
37.793
37.742
37.687
37.629
37.57
37.511
37.452
37.395
37.337
37.279
37.219
37.158
37.095
37.031
36.965
36.898
36.829
36.759
36.688
36.617
36.545
36.473
36.402
36.333
36.267
36.204
36.143
36.085
36.029
35.975
35.923
35.873
35.825
35.781
35.741
35.705
35.673
35.645
35.619
35.594
35.57
35.546
35.524
35.502
35.481
35.46
35.44
35.418
35.394
35.368
35.339
35.308
35.277
35.246
35.216
35.186
35.157
35.127
35.095
35.061
35.024
34.984
34.942
34.898
34.854
34.81
34.766
34.721
34.677
34.631
34.584
34.535
34.485
34.433
34.382
34.333
34.286
34.241
34.2
34.163
34.128
34.096
34.064
34.033
34.002
33.97
33.938
33.906
33.873
33.837
33.8
33.76
33.717
33.673
33.628
33.583
33.538
33.496
33.455
33.415
33.377
33.339
33.302
33.265
33.23
33.197
33.168
33.144
33.124
33.109
33.096
33.085
33.074
33.061
33.046
33.029
33.01
32.991
32.973
32.956
32.939
32.925
32.913
32.903
32.896
32.893
32.894
32.901
32.916
32.942
32.978
33.028
33.091
33.165
33.252
33.351
33.462
33.585
33.72
33.868
34.028
34.199
34.38
34.568
34.761
34.956
35.151
35.346
35.54
35.732
35.919
36.101
36.274
36.438
36.59
36.728
36.85
36.955
37.046
37.122
37.186
37.237
37.277
37.306
37.325
37.336
37.341
37.342
37.344
37.348
37.352
37.356
37.356
37.351
37.34
37.32
37.292
37.257
37.215
37.169
37.12
37.068
37.014
36.958
36.9
36.84
36.778
36.716
36.654
36.593
36.534
36.474
36.415
36.357
36.298
36.24
36.183
36.126
36.07
36.015
35.959
35.904
35.849
35.795
35.743
35.694
35.648
35.605
35.566
35.531
35.499
35.47
35.445
35.422
35.401
35.383
35.366
35.349
35.332
35.316
35.3
35.285
35.269
35.253
35.237
35.221
35.206
35.192
35.179
35.163
35.147
35.128
35.107
35.084
35.06
35.035
35.007
34.978
34.949
34.919
34.885
34.849
34.809
34.768
34.726
34.686
34.647
34.609
34.573
34.537
34.501
34.465
34.428
34.389
34.349
34.309
34.265
34.219
34.169
34.116
34.061
34.005
33.95
33.897
33.846
33.798
33.755
33.716
33.684
33.658
33.637
33.62
33.607
33.594
33.583
33.572
33.561
33.548
33.534
33.519
33.503
33.487
33.471
33.453
33.435
33.416
33.396
33.374
33.349
33.324
33.297
33.272
33.247
33.224
33.202
33.183
33.164
33.146
33.128
33.11
33.093
33.075
33.059
33.044
33.031
33.02
33.012
33.006
33.002
33.0
32.999
33.002
33.009
33.023
33.044
33.076
33.118
33.171
33.234
33.308
33.391
33.484
33.585
33.696
33.817
33.948
34.086
34.232
34.382
34.535
34.689
34.841
34.992
35.141
35.286
35.426
35.561
35.689
35.81
35.921
36.024
36.117
36.201
36.275
36.339
36.394
36.439
36.476
36.505
36.526
36.54
36.548
36.549
36.544
36.534
36.518
36.497
36.471
36.441
36.407
36.37
36.331
36.291
36.252
36.213
36.175
36.136
36.096
36.054
36.012
35.968
35.923
35.879
35.836
35.793
35.75
35.707
35.663
35.619
35.575
35.532
35.49
35.449
35.409
35.368
35.328
35.287
35.245
35.204
35.163
35.124
35.086
35.05
35.016
34.984
34.956
34.929
34.905
34.883
34.864
34.848
34.834
34.823
34.814
34.806
34.8
34.793
34.785
34.776
34.766
34.754
34.743
34.732
34.721
34.71
34.698
34.684
34.668
34.65
34.63
34.609
34.585
34.562
34.538
34.515
34.492
34.469
34.445
34.421
34.395
34.368
34.341
34.311
34.281
34.251
34.222
34.194
34.168
34.142
34.114
34.085
34.054
34.021
33.988
33.954
33.92
33.886
33.853
33.821
33.789
33.757
33.727
33.699
33.671
33.645
33.62
33.596
33.573
33.551
33.529
33.507
33.486
33.464
33.442
33.418
33.395
33.371
33.348
33.326
33.305
33.285
33.267
33.25
33.237
33.226
33.218
33.213
33.21
33.207
33.204
33.201
33.196
33.189
33.182
33.173
33.164
33.154
33.143
33.13
33.115
33.099
33.083
33.069
33.057
33.049
33.045
33.045
33.051
33.063
33.08
33.103
33.132
33.168
33.211
33.263
33.325
33.398
33.481
33.574
33.676
33.786
33.903
34.024
34.151
34.282
34.417
34.556
34.697
34.838
34.976
35.109
35.236
35.355
35.466
35.567
35.658
35.739
35.811
35.875
35.932
35.982
36.026
36.062
36.092
36.115
36.132
36.144
36.149
36.149
36.144
36.134
36.12
36.103
36.084
36.062
36.039
36.015
35.99
35.964
35.936
35.907
35.875
35.843
35.81
35.778
35.746
35.713
35.68
35.645
35.607
35.567
35.525
35.481
35.438
35.395
35.355
35.317
35.28
35.243
35.207
35.17
35.134
35.098
35.063
35.03
34.998
34.97
34.945
34.923
34.905
34.892
34.881
34.875
34.871
34.87
34.872
34.876
34.882
34.888
34.894
34.899
34.902
34.902
34.9
34.897
34.892
34.886
34.877
34.867
34.855
34.841
34.824
34.806
34.787
34.767
34.746
34.726
34.705
34.686
34.673
34.671
34.68
34.697
34.72
34.743
34.764
34.778
34.783
34.775
34.755
34.723
34.68
34.628
34.569
34.504
34.436
34.366
34.297
34.231
34.17
34.113
34.063
34.018
33.98
33.949
33.924
33.905
33.889
33.876
33.865
33.853
33.841
33.828
33.814
33.8
33.785
33.77
33.755
33.741
33.727
33.714
33.703
33.692
33.681
33.671
33.66
33.647
33.633
33.618
33.603
33.587
33.571
33.555
33.538
33.521
33.505
33.489
33.475
33.461
33.449
33.439
33.432
33.428
33.429
33.434
33.445
33.461
33.484
33.513
33.549
33.592
33.644
33.705
33.776
33.857
33.947
34.045
34.15
34.261
34.379
34.504
34.636
34.775
34.919
35.066
35.214
35.36
35.503
35.64
35.77
35.891
36.001
36.098
36.183
36.254
36.313
