Trial 1:0back
37.968
37.947
37.921
37.893
37.861
37.827
37.791
37.755
37.718
37.679
37.64
37.599
37.557
37.513
37.469
37.422
37.374
37.324
37.272
37.218
37.161
37.102
37.038
36.97
36.899
36.827
36.754
36.682
36.612
36.546
36.484
36.426
36.373
36.325
36.282
36.243
36.209
36.179
36.154
36.134
36.118
36.105
36.094
36.084
36.073
36.062
36.051
36.041
36.03
36.019
36.007
35.994
35.979
35.962
35.944
35.925
35.905
35.884
35.863
35.843
35.822
35.8
35.776
35.75
35.721
35.689
35.655
35.617
35.576
35.531
35.482
35.428
35.37
35.308
35.245
35.182
35.121
35.063
35.009
34.96
34.915
34.875
34.838
34.804
34.771
34.739
34.707
34.673
34.639
34.605
34.57
34.537
34.505
34.476
34.45
34.425
34.403
34.382
34.362
34.343
34.324
34.304
34.284
34.263
34.242
34.221
34.201
34.181
34.162
34.144
34.127
34.111
34.096
34.081
34.065
34.049
34.033
34.016
33.999
33.981
33.963
33.944
33.927
33.91
33.895
33.881
33.866
33.851
33.836
33.82
33.805
33.79
33.775
33.759
33.744
33.728
33.713
33.698
33.683
33.667
33.648
33.627
33.603
33.577
33.55
33.523
33.497
33.474
33.453
33.435
33.419
33.404
33.391
33.377
33.363
33.347
33.329
33.31
33.29
33.269
33.247
33.225
33.204
33.188
33.18
33.18
33.193
33.219
33.26
33.318
33.393
33.488
33.605
33.744
33.907
34.093
34.299
34.525
34.766
35.019
35.278
35.54
35.801
36.056
36.304
36.541
36.765
36.975
37.167
37.341
37.496
37.632
37.75
37.85
37.933
37.999
38.05
38.086
38.109
38.121
38.122
38.115
38.101
38.08
38.052
38.02
37.984
37.95
37.923
37.901
37.883
37.868
37.853
37.835
37.814
37.787
37.754
37.715
37.67
37.617
37.558
37.492
37.421
37.343
37.262
37.176
37.089
37.0
36.912
36.826
36.746
36.671
36.602
36.54
36.483
36.432
36.387
36.347
36.312
36.281
36.253
36.229
36.208
36.187
36.169
36.151
36.134
36.119
36.104
36.084
36.057
36.024
35.986
35.945
35.904
35.867
35.834
35.808
35.789
35.774
35.764
35.757
35.753
35.751
35.749
35.746
35.741
35.733
35.718
35.698
35.671
35.637
35.597
35.553
35.505
35.454
35.402
35.349
35.297
35.245
35.195
35.145
35.096
35.049
35.002
34.956
34.912
34.869
34.828
34.787
34.748
34.709
34.671
34.633
34.596
34.56
34.526
34.493
34.462
34.432
34.403
34.375
34.349
34.325
34.303
34.281
34.259
34.237
34.213
34.189
34.164
34.139
34.116
34.095
34.077
34.061
34.047
34.035
34.024
34.013
34.002
33.991
33.98
33.968
33.954
33.939
33.921
33.901
33.878
33.854
33.828
33.803
33.778
33.756
33.736
33.719
33.707
33.697
33.69
33.683
33.675
33.666
33.654
33.64
33.623
33.605
33.585
33.564
33.542
33.521
33.501
33.48
33.461
33.441
33.423
33.406
33.391
33.378
33.367
33.356
33.346
33.336
33.325
33.312
33.297
33.28
33.261
33.24
33.217
33.192
33.165
33.138
33.112
33.088
33.067
33.047
33.029
33.013
32.998
32.984
32.973
32.966
32.965
32.973
32.993
33.028
33.081
33.154
33.249
33.368
33.513
33.682
33.877
34.096
34.334
34.59
34.857
35.133
35.412
35.693
35.972
36.245
36.511
36.768
37.012
37.243
37.457
37.656
37.837
38.001
38.148
38.278
38.392
38.489
38.57
38.636
38.687
38.725
38.753
38.771
38.782
38.786
38.785
38.78
38.771
38.759
38.745
38.728
38.709
38.686
38.659
38.629
38.596
38.56
38.523
38.485
38.446
38.407
38.367
38.326
38.285
38.242
38.197
38.149
38.098
38.044
37.986
37.926
37.863
37.797
37.728
37.657
37.583
37.509
37.435
37.361
37.287
37.209
37.128
37.047
36.967
36.892
36.822
36.76
36.706
36.66
36.623
36.594
36.574
36.56
36.552
36.548
36.547
36.546
36.545
36.542
36.537
36.529
36.518
36.504
36.487
36.466
36.441
36.41
36.376
36.337
36.294
36.247
36.197
36.145
36.09
36.035
35.979
35.925
35.871
35.818
35.766
35.715
35.664
35.613
35.56
35.506
35.452
35.398
35.345
35.293
35.243
35.195
35.149
35.103
35.059
35.014
34.971
34.93
34.892
34.857
34.825
34.796
34.769
34.744
34.719
34.694
34.67
34.644
34.618
34.592
34.564
34.535
34.504
34.472
34.44
34.408
34.377
34.348
34.321
34.296
34.275
34.255
34.237
34.22
34.201
34.182
34.162
34.142
34.122
34.104
34.086
34.069
34.053
34.037
34.021
34.004
33.988
33.972
33.957
33.941
33.924
33.905
33.883
33.86
33.834
33.807
33.779
33.752
33.727
33.704
33.683
33.664
33.646
33.629
33.611
33.594
33.578
33.561
33.544
33.526
33.509
33.492
33.474
33.456
33.439
33.422
33.405
33.387
33.369
33.35
33.331
33.313
33.295
33.279
33.265
33.252
33.239
33.226
33.214
33.201
33.188
33.174
33.159
33.141
33.123
33.102
33.08
33.057
33.035
33.012
32.992
32.973
32.956
32.943
32.932
32.925
32.923
32.926
32.936
32.956
32.987
33.032
33.094
33.174
33.274
33.397
33.543
33.712
33.904
34.116
34.346
34.591
34.846
35.108
35.374
35.641
35.906
36.167
36.422
36.667
36.899
37.116
37.314
37.493
37.653
37.795
37.919
38.028
38.121
38.2
38.265
38.318
38.361
38.395
38.421
38.441
38.454
38.461
38.462
38.458
38.449
38.436
38.42
38.399
38.374
38.346
38.313
38.277
38.236
38.194
38.15
38.106
38.061
38.015
37.967
37.918
37.867
37.813
37.758
37.702
37.643
37.581
37.519
37.455
37.392
37.329
37.267
37.207
37.149
37.092
37.038
36.985
36.934
36.883
36.834
36.785
36.739
36.695
36.654
36.614
36.577
36.542
36.51
36.481
36.456
36.436
36.419
36.405
36.393
36.384
36.374
36.365
36.354
36.342
36.33
36.315
36.298
36.278
36.254
36.226
36.193
36.156
36.116
36.071
36.024
35.976
35.927
35.878
35.829
35.782
35.735
35.689
35.643
35.599
35.555
35.511
35.467
35.422
35.377
35.331
35.284
35.237
35.191
35.144
35.099
35.054
35.012
34.97
34.93
34.89
34.852
34.814
34.778
34.743
34.709
34.676
34.644
34.613
34.584
34.556
34.529
34.501
34.474
34.447
34.419
34.392
34.365
34.339
34.315
34.292
34.271
34.251
34.232
34.213
34.194
34.174
34.154
34.133
34.112
34.091
34.072
34.055
34.04
34.024
34.008
33.991
33.973
33.953
33.934
33.913
33.892
33.871
33.848
33.824
33.798
33.771
33.742
33.713
33.684
33.657
33.631
33.608
33.587
33.567
33.548
33.531
33.515
33.5
33.485
33.47
33.455
33.442
33.43
33.419
33.41
33.4
33.39
33.378
33.364
33.346
33.326
33.304
33.281
33.257
33.232
33.206
33.18
33.154
33.13
33.107
33.086
33.067
33.05
33.036
33.023
33.011
32.997
32.983
32.968
32.953
32.939
32.927
32.92
32.919
32.927
32.947
32.982
33.033
33.104
33.195
33.308
33.442
33.596
33.77
33.963
34.173
34.4
34.64
34.89
35.148
35.409
35.67
35.927
36.177
36.419
36.649
36.866
37.068
37.252
37.418
37.566
37.693
37.802
37.892
37.966
38.025
38.072
38.108
38.136
38.157
38.171
38.18
38.185
38.185
38.181
38.175
38.166
38.154
38.139
38.121
38.101
38.08
38.056
38.032
38.005
37.974
37.94
37.901
37.857
37.811
37.762
37.712
37.66
37.607
37.552
37.497
37.439
37.38
37.32
37.259
37.199
37.14
37.083
37.027
36.973
36.918
36.864
36.809
36.753
36.697
36.642
36.588
36.536
36.488
36.445
36.406
36.373
36.345
36.323
36.307
36.296
36.287
36.282
36.277
36.273
36.27
36.266
36.262
36.258
36.251
36.243
36.232
36.218
36.2
36.178
36.151
36.119
36.083
36.044
36.001
35.954
35.905
35.854
35.801
35.747
35.692
35.636
35.58
35.523
35.467
35.411
35.358
35.308
35.26
35.213
35.168
35.124
35.081
35.039
34.998
34.959
34.92
34.883
34.848
34.814
34.781
34.748
34.716
34.686
34.657
34.63
34.605
34.581
34.559
34.538
34.519
34.501
34.484
34.467
34.45
34.433
34.414
34.394
34.371
34.346
34.318
34.29
34.26
34.232
34.204
34.178
34.154
34.132
34.112
34.094
34.079
34.066
34.054
34.042
34.029
34.014
33.997
33.979
33.961
33.942
33.924
33.907
33.89
33.873
33.855
33.836
33.815
33.793
33.77
33.747
33.724
33.702
33.679
33.656
33.633
33.609
33.585
33.561
33.538
33.516
33.495
33.476
33.459
33.443
33.427
33.409
33.391
33.371
33.349
33.327
33.305
33.284
33.263
33.244
33.226
33.208
33.191
33.175
33.16
33.146
33.133
33.122
33.112
33.103
33.093
33.082
33.072
33.062
33.052
33.042
33.033
33.024
33.014
33.005
32.995
32.983
32.97
32.955
32.939
32.925
32.915
32.912
32.919
32.941
32.98
33.039
33.119
33.224
33.352
33.506
33.684
33.885
34.107
34.346
34.599
34.861
35.127
35.394
35.659
35.917
36.168
36.409
36.637
36.852
37.052
37.236
37.406
37.559
37.697
37.819
37.927
38.02
38.101
38.171
38.232
38.283
38.328
38.366
38.397
38.423
38.441
38.454
38.461
38.463
38.462
38.458
38.451
38.442
38.431
38.418
38.403
38.385
38.364
38.341
38.316
38.29
38.263
38.236
38.207
38.178
38.147
38.113
38.077
38.039
37.998
37.953
37.905
37.855
37.802
37.747
37.691
37.635
37.578
37.52
37.459
37.397
37.334
37.272
37.211
37.154
37.099
37.047
36.997
36.949
36.903
36.86
36.819
36.782
36.748
36.717
36.689
36.662
36.635
36.609
36.582
36.557
36.531
36.507
36.484
36.462
36.44
36.417
36.394
36.371
36.347
36.323
36.297
36.269
36.239
36.205
36.167
36.125
36.079
36.031
35.982
35.931
35.88
35.829
35.778
35.727
35.675
35.624
35.572
35.52
35.467
35.415
35.363
35.312
35.262
35.215
35.17
35.128
35.088
35.051
35.015
34.98
34.946
34.911
34.878
34.846
34.817
34.79
34.765
34.741
34.718
34.696
34.674
34.653
34.632
34.611
34.59
34.568
34.546
34.524
34.502
34.48
34.459
34.437
34.415
34.393
34.367
34.34
34.311
34.28
34.249
34.219
34.189
34.162
34.137
34.114
34.092
34.07
34.049
34.027
34.005
33.982
33.959
33.936
33.912
33.889
33.865
33.841
33.818
33.796
33.776
33.758
33.743
33.731
33.719
33.708
33.698
33.688
33.678
33.667
33.655
33.642
33.627
33.611
33.594
33.575
33.556
33.537
33.519
33.502
33.487
33.472
33.458
33.445
33.432
33.42
33.408
33.396
33.381
33.359
33.33
33.294
33.255
33.214
33.174
33.137
33.104
33.078
33.058
33.046
33.04
33.04
33.045
33.055
33.068
33.082
33.096
33.109
33.119
33.125
33.127
33.124
33.115
33.102
33.087
33.069
33.052
33.038
33.027
33.023
33.027
33.04
33.066
33.106
33.163
33.239
33.335
33.452
33.592
33.752
33.935
34.137
34.357
34.593
34.839
35.093
35.35
35.607
35.86
36.105
36.341
36.563
36.77
36.962
37.138
37.299
37.444
37.574
37.688
37.787
37.871
37.94
37.996
38.042
38.078
38.108
38.133
38.154
38.171
38.184
38.193
38.197
38.196
38.192
38.186
38.177
38.166
38.156
38.146
38.135
38.125
38.115
38.105
38.094
38.082
38.069
38.055
38.038
38.019
37.996
37.968
37.936
37.897
37.853
37.804
37.75
37.693
37.634
37.573
37.51
37.446
37.379
37.311
37.242
37.174
37.108
37.045
36.987
36.934
36.886
36.846
36.811
36.781
36.758
36.739
36.725
36.714
36.706
36.698
36.689
36.679
36.666
36.652
36.637
36.622
36.606
36.589
36.571
36.552
36.53
36.507
36.482
36.454
36.425
36.394
36.362
36.327
36.289
36.248
36.203
36.155
36.104
36.053
36.001
35.949
35.897
35.844
35.792
35.74
35.69
35.64
35.591
35.543
35.498
35.454
35.413
35.374
35.336
35.301
35.267
35.234
35.202
35.171
35.143
35.118
35.094
35.072
35.05
35.028
35.005
34.979
34.952
34.923
34.892
34.859
34.825
34.79
34.754
34.716
34.678
34.64
34.603
34.568
34.537
34.509
34.484
34.462
34.444
34.427
34.412
34.397
34.383
34.368
34.353
34.337
34.321
34.303
34.285
34.265
34.246
34.227
34.208
34.191
34.174
34.157
34.142
34.127
34.111
34.095
34.077
34.059
34.04
34.02
33.999
33.977
33.955
33.932
33.909
33.887
33.865
33.844
33.826
33.809
33.793
33.778
33.763
33.748
33.733
33.718
33.702
33.688
33.673
33.659
33.643
33.627
33.609
33.592
33.573
33.555
33.536
33.516
33.497
33.477
33.456
33.434
33.411
33.387
33.362
33.338
33.315
33.293
33.273
33.256
33.24
33.226
33.214
33.203
33.192
33.184
33.176
33.17
33.165
33.163
33.164
33.173
33.191
33.221
33.267
33.332
33.416
33.523
33.652
33.803
33.974
34.163
34.369
34.587
34.814
35.048
35.284
35.518
35.747
35.97
36.184
36.387
36.577
36.755
36.918
37.066
37.199
37.319
37.425
37.52
37.605
37.68
37.745
37.802
37.851
37.89
37.919
37.94
37.954
37.96
37.96
37.955
37.945
37.931
37.914
37.895
37.874
37.851
37.828
37.804
37.779
37.754
37.73
37.706
37.683
37.66
37.635
37.608
37.577
37.542
37.503
37.459
37.412
37.362
37.31
37.257
37.203
37.148
37.09
37.03
36.968
36.904
36.839
36.776
36.715
36.658
36.605
36.559
36.519
36.487
36.46
36.439
36.421
36.407
36.396
36.388
36.381
36.376
36.371
36.364
36.355
36.342
36.325
36.303
36.278
36.25
36.22
36.189
36.158
36.127
36.096
36.067
36.04
36.014
35.987
35.96
35.93
35.898
35.863
35.827
35.789
35.75
35.712
35.672
35.631
35.588
35.543
35.496
35.446
35.396
35.346
35.296
35.247
35.198
35.151
35.105
35.061
35.021
34.984
34.949
34.917
34.887
34.857
34.827
34.797
34.766
34.733
34.698
34.663
34.628
34.595
34.565
34.538
34.513
34.493
34.475
34.459
34.445
34.431
34.419
34.408
34.398
34.388
34.379
34.37
34.359
34.348
34.335
34.319
34.301
34.28
34.256
34.232
34.208
34.185
34.164
34.145
34.128
34.112
34.097
34.083
34.068
34.051
34.033
34.013
33.993
33.972
33.95
33.93
33.912
33.896
33.883
33.872
33.863
33.854
33.844
33.834
33.821
33.807
33.79
33.772
33.752
33.731
33.709
33.686
33.663
33.639
33.614
33.59
33.566
33.544
33.523
33.502
33.482
33.461
33.44
33.418
33.397
33.378
33.359
33.342
33.327
33.313
33.299
33.286
33.272
33.259
33.246
33.234
33.224
33.215
33.209
33.204
33.199
33.195
33.191
33.187
33.183
33.178
33.172
33.167
33.16
33.151
33.14
33.126
33.109
33.089
33.069
33.05
33.033
33.02
33.014
33.017
33.029
33.053
33.091
33.144
33.216
33.31
33.427
33.569
33.736
33.925
34.133
34.357
34.593
34.838
35.086
35.337
35.586
35.833
36.075
36.31
36.537
36.753
36.958
37.149
37.325
37.485
37.628
37.756
37.869
37.967
38.052
38.125
38.188
38.241
38.286
38.322
38.351
38.372
38.386
38.393
38.396
38.394
38.391
38.386
38.38
38.374
38.367
38.361
38.355
38.35
38.344
38.34
38.336
38.334
38.332
38.33
38.326
38.32
38.31
38.296
38.277
38.252
38.221
38.183
38.14
38.091
38.036
37.977
37.912
37.843
37.771
37.698
37.627
37.558
37.492
37.43
37.372
37.317
37.266
37.218
37.174
37.132
37.094
37.059
37.027
36.998
36.971
36.946
36.923
36.899
36.876
36.853
36.829
36.805
36.778
36.749
36.719
36.687
36.654
36.621
36.588
36.555
36.521
36.486
36.45
36.413
36.375
36.336
36.295
36.252
36.204
36.153
36.098
36.041
35.981
35.921
35.861
35.803
35.747
35.695
35.646
35.6
35.558
35.518
35.482
35.448
35.416
35.385
35.354
35.323
35.292
35.261
35.228
35.196
35.164
35.134
35.106
35.079
35.052
35.025
34.997
34.968
34.938
34.907
34.875
34.842
34.81
34.777
34.745
34.714
34.681
34.649
34.619
34.591
34.567
34.545
34.525
34.506
34.487
34.467
34.447
34.427
34.407
34.388
34.369
34.349
34.33
34.311
34.293
34.276
34.259
34.242
34.226
34.21
34.194
34.176
34.157
34.136
34.114
34.091
34.067
34.041
34.014
33.987
33.96
33.933
33.908
33.883
33.861
33.841
33.823
33.808
33.795
33.783
33.771
33.76
33.75
33.738
33.725
33.711
33.694
33.675
33.655
33.633
33.61
33.587
33.566
33.546
33.527
33.51
33.493
33.476
33.458
33.439
33.421
33.402
33.384
33.368
33.352
33.337
33.323
33.309
33.295
33.283
33.273
33.264
33.258
33.254
33.251
33.247
33.242
33.236
33.228
33.218
33.207
33.195
33.183
33.17
33.156
33.141
33.126
33.109
33.093
33.077
33.063
33.051
33.042
33.036
33.034
33.039
33.05
33.069
33.099
33.141
33.199
33.274
33.367
33.482
33.618
33.776
33.955
34.155
34.373
34.606
34.85
35.102
35.357
35.611
35.86
36.101
36.33
36.547
36.749
36.938
37.111
37.27
37.412
37.539
37.651
37.749
37.833
37.905
37.966
38.016
38.058
38.091
38.117
38.136
38.149
38.158
38.162
38.162
38.159
38.156
38.152
38.148
38.145
38.142
38.139
38.135
38.131
38.126
38.119
38.111
38.1
38.088
38.073
38.055
38.033
38.008
37.977
37.941
37.899
37.852
37.801
37.746
37.688
37.629
37.569
37.509
37.45
37.392
37.336
37.282
37.23
37.18
37.133
37.088
37.046
37.006
36.969
36.934
36.9
36.869
36.84
36.812
36.785
36.759
36.734
36.709
36.685
36.664
36.644
36.625
36.608
36.59
36.572
36.554
36.535
36.515
36.494
36.471
36.447
36.42
36.39
36.358
36.321
36.28
36.234
36.184
36.13
36.075
36.02
35.966
35.912
35.86
35.81
35.763
35.717
35.673
35.631
35.591
35.552
35.514
35.477
35.439
35.401
35.364
35.327
35.293
35.259
35.227
35.196
35.166
35.137
35.108
35.081
35.054
35.026
34.998
34.97
34.941
34.912
34.883
34.853
34.824
34.794
34.765
34.738
34.712
34.689
34.669
34.651
34.636
34.624
34.613
34.602
34.59
34.576
34.559
34.539
34.515
34.488
34.457
34.425
34.391
34.356
34.321
34.286
34.252
34.219
34.188
34.16
34.134
34.11
34.088
34.067
34.047
34.027
34.006
33.985
33.964
33.944
33.924
33.904
33.885
33.865
33.844
33.821
33.797
33.772
33.748
33.723
33.698
33.673
33.649
33.626
33.605
33.586
33.57
33.555
33.543
33.533
33.524
33.517
33.511
33.506
33.502
33.497
33.49
33.481
33.47
33.457
33.443
33.426
33.408
33.389
33.37
33.35
33.331
33.312
33.293
33.274
33.255
33.237
33.221
33.206
33.193
33.183
33.175
33.168
33.159
33.148
33.134
33.117
33.097
33.075
33.055
33.039
33.031
33.032
33.046
33.073
33.117
33.177
33.255
33.351
33.468
33.605
33.762
33.937
34.129
34.334
34.552
34.779
35.013
35.253
35.494
35.733
35.968
36.196
36.412
36.614
36.801
36.971
37.124
37.259
37.377
37.481
37.571
37.647
37.71
37.759
37.796
37.823
37.84
37.851
37.856
37.857
37.854
37.849
37.842
37.833
37.823
37.813
37.803
37.793
37.783
37.772
37.759
37.746
37.731
37.715
37.697
37.677
37.653
37.625
37.593
37.559
37.521
37.481
37.44
37.395
37.348
37.299
37.246
37.192
37.136
37.08
37.023
36.968
36.914
36.862
36.812
36.763
36.716
36.672
36.629
36.588
36.551
36.516
36.483
36.454
36.428
36.405
36.386
36.37
36.357
36.347
36.339
36.331
36.323
36.315
36.305
36.295
36.284
36.271
36.257
36.238
36.215
36.187
36.154
36.117
36.078
36.037
35.996
35.954
35.913
35.87
35.827
35.783
35.739
35.695
35.651
35.608
35.564
35.518
35.471
35.422
35.371
35.319
35.269
35.219
35.171
35.125
35.079
35.035
34.992
34.951
34.913
34.877
34.845
34.816
34.79
34.768
34.748
34.727
34.706
34.683
34.659
34.634
34.609
34.583
34.559
34.535
34.513
34.493
34.473
34.454
34.436
34.419
34.403
34.387
34.371
34.355
34.338
34.321
34.302
34.282
34.262
34.241
34.222
34.202
34.184
34.165
34.145
34.124
34.102
34.078
34.053
34.028
34.002
33.977
33.953
33.929
33.906
33.883
33.861
33.839
33.818
33.798
33.779
33.759
33.739
33.719
33.698
33.677
33.655
33.633
33.61
33.588
33.567
33.547
33.529
33.514
33.501
33.491
33.482
33.473
33.463
33.452
33.439
33.425
33.411
33.396
33.382
33.368
33.352
33.335
33.315
33.292
33.267
33.24
33.214
33.189
33.167
33.147
33.13
33.116
33.105
33.095
33.089
33.085
33.083
33.084
33.085
33.085
33.085
33.082
33.078
33.072
33.063
33.053
33.041
33.027
33.012
32.997
32.981
32.964
32.948
32.931
32.915
32.899
32.884
32.871
32.862
32.857
32.86
32.87
32.891
32.922
32.968
33.03
33.112
33.213
33.336
33.481
33.647
33.832
34.035
34.252
34.482
34.722
34.967
35.215
35.462
35.705
35.941
36.17
36.388
36.596
36.792
36.976
37.146
37.303
37.446
37.576
37.692
37.797
