Trial 1:0back
32.353
32.308
32.265
32.224
32.187
32.151
32.116
32.081
32.045
32.008
31.969
31.928
31.887
31.847
31.809
31.772
31.738
31.707
31.68
31.659
31.646
31.644
31.657
31.687
31.74
31.82
31.933
32.087
32.295
32.565
32.907
33.322
33.81
34.367
34.983
35.644
36.338
37.049
37.762
38.461
39.131
39.76
40.338
40.856
41.309
41.692
42.002
42.242
42.412
42.516
42.56
42.548
42.487
42.383
42.244
42.075
41.882
41.671
41.448
41.218
40.984
40.751
40.522
40.299
40.085
39.88
39.685
39.501
39.327
39.162
39.005
38.854
38.707
38.563
38.418
38.273
38.127
37.978
37.829
37.678
37.527
37.376
37.226
37.079
36.936
36.798
36.665
36.537
36.415
36.298
36.186
36.078
35.974
35.876
35.784
35.699
35.619
35.546
35.479
35.418
35.363
35.311
35.264
35.219
35.177
35.136
35.097
35.06
35.024
34.991
34.958
34.924
34.887
34.848
34.807
34.764
34.72
34.676
34.633
34.591
34.55
34.51
34.47
34.43
34.389
34.347
34.303
34.258
34.212
34.166
34.118
34.069
34.017
33.962
33.905
33.846
33.785
33.722
33.658
33.592
33.524
33.455
33.385
33.315
33.245
33.177
33.11
33.045
32.982
32.921
32.863
32.808
32.755
32.703
32.652
32.602
32.552
32.502
32.453
32.404
32.355
32.306
32.258
32.21
32.162
32.115
32.068
32.022
31.976
31.932
31.89
31.849
31.809
31.771
31.733
31.698
31.664
31.632
31.604
31.578
31.556
31.539
31.532
31.538
31.558
31.598
31.661
31.756
31.891
32.08
32.334
32.662
33.071
33.559
34.123
34.752
35.435
36.155
36.896
37.64
38.371
39.071
39.728
40.328
40.864
41.326
41.712
42.02
42.251
42.406
42.49
42.509
42.468
42.376
42.242
42.073
41.879
41.667
41.444
41.216
40.988
40.763
40.544
40.332
40.13
39.935
39.749
39.571
39.4
39.235
39.075
38.919
38.765
38.614
38.465
38.319
38.176
38.036
37.901
37.768
37.637
37.508
37.379
37.252
37.126
36.998
36.87
36.742
36.614
36.487
36.362
36.241
36.124
36.013
35.909
35.812
35.723
35.64
35.565
35.496
35.431
35.371
35.315
35.263
35.215
35.17
35.129
35.091
35.056
35.024
34.992
34.961
34.929
34.897
34.864
34.83
34.793
34.754
34.715
34.675
34.635
34.594
34.553
34.51
34.467
34.42
34.372
34.32
34.267
34.213
34.156
34.099
34.04
33.981
33.921
33.861
33.801
33.741
33.68
33.62
33.56
33.502
33.447
33.396
33.346
33.296
33.245
33.193
33.141
33.087
33.031
32.973
32.914
32.854
32.793
32.733
32.675
32.618
32.563
32.51
32.459
32.409
32.362
32.317
32.275
32.235
32.196
32.157
32.12
32.083
32.047
32.01
31.971
31.932
31.891
31.848
31.805
31.763
31.72
31.677
31.635
31.593
31.554
31.519
31.489
31.467
31.453
31.45
31.462
31.491
31.54
31.614
31.714
31.844
32.012
32.224
32.49
32.819
33.214
33.675
34.196
34.77
35.386
36.028
36.682
37.332
37.963
38.56
39.112
39.605
40.034
40.394
40.683
40.901
41.051
41.137
41.164
41.138
41.067
40.958
40.819
40.657
40.48
40.296
40.107
39.919
39.734
39.554
39.381
39.215
39.057
38.907
38.764
38.627
38.496
38.367
38.241
38.117
37.992
37.866
37.736
37.605
37.471
37.338
37.206
37.075
36.945
36.818
36.692
36.568
36.446
36.327
36.21
36.097
35.987
35.882
35.782
35.686
35.597
35.514
35.438
35.369
35.306
35.248
35.193
35.141
35.093
35.048
35.007
34.973
34.952
34.947
34.954
34.97
34.99
35.007
35.018
35.019
35.008
34.982
34.942
34.889
34.826
34.753
34.676
34.596
34.515
34.437
34.363
34.293
34.226
34.164
34.106
34.053
34.004
33.958
33.914
33.871
33.829
33.787
33.744
33.7
33.653
33.604
33.552
33.498
33.442
33.386
33.33
33.276
33.224
33.174
33.128
33.084
33.04
32.996
32.952
32.907
32.862
32.816
32.77
32.725
32.678
32.631
32.583
32.534
32.486
32.438
32.39
32.343
32.294
32.245
32.193
32.14
32.086
32.031
31.976
31.92
31.865
31.812
31.761
31.713
31.667
31.624
31.582
31.541
31.501
31.464
31.427
31.393
31.363
31.337
31.318
31.308
31.308
31.321
31.348
31.392
31.453
31.537
31.646
31.788
31.973
32.21
32.509
32.877
33.315
33.82
34.384
34.995
35.639
36.298
36.956
37.595
38.203
38.766
39.275
39.722
40.1
40.407
40.641
40.804
40.899
40.93
40.907
40.835
40.724
40.581
40.414
40.23
40.036
39.837
39.636
39.437
39.241
39.052
38.87
38.696
38.53
38.372
38.219
38.072
37.929
37.788
37.649
37.511
37.375
37.241
37.108
36.975
36.843
36.711
36.578
36.445
36.313
36.181
36.052
35.926
35.803
35.684
35.569
35.46
35.357
35.259
35.166
35.078
34.994
34.915
34.84
34.769
34.704
34.645
34.592
34.545
34.504
34.468
34.437
34.41
34.384
34.36
34.336
34.312
34.287
34.262
34.235
34.208
34.18
34.15
34.119
34.086
34.052
34.015
33.977
33.937
33.895
33.853
33.812
33.772
33.734
33.698
33.663
33.629
33.594
33.557
33.518
33.476
33.433
33.389
33.345
33.301
33.257
33.215
33.173
33.132
33.09
33.047
33.004
32.959
32.914
32.867
32.821
32.775
32.731
32.689
32.647
32.606
32.564
32.52
32.474
32.427
32.381
32.335
32.292
32.25
32.211
32.175
32.141
32.109
32.076
32.043
32.008
31.971
31.933
31.895
31.856
31.819
31.783
31.746
31.71
31.673
31.637
31.599
31.561
31.521
31.48
31.44
31.401
31.363
31.331
31.309
31.298
31.298
31.308
31.329
31.36
31.401
31.45
31.509
31.579
31.663
31.761
31.877
32.013
32.173
32.364
32.593
32.866
33.188
33.562
33.983
34.448
34.945
35.463
35.99
36.511
37.014
37.485
37.913
38.287
38.603
38.854
39.041
39.165
39.23
39.242
39.206
39.129
39.016
38.874
38.711
38.534
38.348
38.159
37.973
37.793
37.622
37.461
37.311
37.172
37.045
36.929
36.821
36.72
36.623
36.53
36.44
36.351
36.262
36.173
36.084
35.993
35.9
35.806
35.71
35.613
35.515
35.416
35.315
35.214
35.114
35.016
34.923
34.834
34.751
34.674
34.605
34.542
34.488
34.442
34.406
34.378
34.357
34.341
34.33
34.323
34.318
34.315
34.311
34.307
34.302
34.295
34.287
34.276
34.264
34.25
34.235
34.217
34.197
34.174
34.148
34.119
34.087
34.05
34.011
33.971
33.93
33.891
33.854
33.818
33.785
33.752
33.718
33.683
33.647
33.609
33.571
33.532
33.493
33.454
33.416
33.378
33.34
33.3
33.258
33.214
33.167
33.119
33.069
33.018
32.966
32.916
32.866
32.816
32.768
32.721
32.675
32.628
32.582
32.536
32.492
32.45
32.409
32.371
32.336
32.303
32.272
32.243
32.214
32.183
32.15
32.114
32.076
32.036
31.997
31.959
31.923
31.889
31.857
31.827
31.798
31.769
31.739
31.709
31.68
31.653
31.629
31.607
31.59
31.578
31.573
31.575
31.586
31.608
31.642
31.691
31.756
31.838
31.939
32.059
32.2
32.362
32.545
32.752
32.985
33.248
33.545
33.877
34.244
34.643
35.065
35.504
35.947
36.386
36.808
37.206
37.57
37.893
38.17
38.396
38.569
38.69
38.759
38.78
38.758
38.697
38.603
38.482
38.341
38.186
38.023
37.856
37.69
37.528
37.371
37.222
37.082
36.949
36.826
36.712
36.604
36.501
36.403
36.306
36.212
36.119
36.027
35.934
35.841
35.748
35.654
35.559
35.466
35.374
35.286
35.2
35.115
35.033
34.954
34.877
34.804
34.735
34.669
34.609
34.553
34.503
34.458
34.42
34.388
34.362
34.34
34.322
34.308
34.296
34.287
34.28
34.273
34.266
34.259
34.252
34.243
34.233
34.222
34.211
34.197
34.183
34.166
34.148
34.127
34.104
34.078
34.048
34.016
33.98
33.944
33.908
33.872
33.837
33.803
33.771
33.739
33.706
33.672
33.637
33.6
33.563
33.525
33.487
33.45
33.413
33.377
33.34
33.303
33.265
33.227
33.187
33.145
33.102
33.057
33.013
32.97
32.929
32.889
32.852
32.816
32.781
32.745
32.709
32.673
32.636
32.598
32.561
32.524
32.488
32.453
32.418
32.385
32.354
32.327
32.302
32.277
32.253
32.227
32.201
32.174
32.146
32.117
32.089
32.06
32.03
32.001
31.975
31.954
31.941
31.941
31.955
31.987
32.037
32.107
32.199
32.312
32.447
32.604
32.782
32.983
33.209
33.463
33.749
34.071
34.431
34.826
35.25
35.694
36.149
36.6
37.035
37.443
37.813
38.138
38.411
38.628
38.789
38.894
38.947
38.953
38.918
38.847
38.748
38.626
38.488
38.339
38.185
38.029
37.876
37.728
37.586
37.451
37.322
37.2
37.084
36.973
36.867
36.766
36.668
36.572
36.477
36.382
36.287
36.194
36.102
36.009
35.917
35.824
35.731
35.636
35.542
35.449
35.357
35.27
35.187
35.109
35.038
34.973
34.914
34.859
34.809
34.763
34.719
34.678
34.639
34.603
34.569
34.538
34.509
34.483
34.458
34.437
34.42
34.408
34.401
34.398
34.397
34.398
34.399
34.4
34.4
34.398
34.394
34.387
34.375
34.357
34.335
34.309
34.279
34.247
34.211
34.174
34.135
34.097
34.059
34.022
33.987
33.953
33.92
33.886
33.852
33.817
33.78
33.742
33.702
33.661
33.618
33.576
33.533
33.49
33.447
33.403
33.359
33.314
33.269
33.224
33.18
33.138
33.097
33.056
33.015
32.974
32.933
32.892
32.85
32.808
32.767
32.728
32.69
32.656
32.624
32.595
32.568
32.54
32.512
32.484
32.455
32.426
32.398
32.371
32.346
32.325
32.31
32.303
32.304
32.316
32.34
32.378
32.43
32.499
32.586
32.693
32.823
32.977
33.161
33.377
33.633
33.935
34.284
34.68
35.118
35.591
36.089
36.599
37.108
37.602
38.07
38.5
38.884
39.214
39.488
39.703
39.862
39.965
40.017
40.022
39.986
39.914
39.812
39.685
39.537
39.375
39.203
39.024
38.843
38.661
38.482
38.309
38.145
37.99
37.846
37.713
37.591
37.478
37.372
37.273
37.177
37.083
36.988
36.892
36.792
36.69
36.586
36.48
36.374
36.268
36.162
36.058
35.956
35.855
35.755
35.658
35.563
35.472
35.385
35.303
35.226
35.156
35.091
35.032
34.98
34.934
34.896
34.866
34.841
34.823
34.809
34.799
34.791
34.784
34.779
34.774
34.768
34.76
34.75
34.737
34.722
34.705
34.687
34.666
34.644
34.62
34.594
34.565
34.534
34.499
34.462
34.423
34.382
34.339
34.298
34.257
34.219
34.183
34.148
34.115
34.082
34.051
34.02
33.989
33.957
33.922
33.885
33.845
33.802
33.757
33.71
33.663
33.615
33.567
33.517
33.469
33.421
33.374
33.328
33.284
33.242
33.201
33.163
33.126
33.091
33.059
33.028
32.999
32.969
32.938
32.907
32.875
32.842
32.807
32.771
32.734
32.695
32.655
32.616
32.579
32.545
32.515
32.49
32.472
32.463
32.465
32.48
32.508
32.553
32.618
32.705
32.818
32.96
33.14
33.364
33.64
33.976
34.372
34.828
35.338
35.893
36.48
37.083
37.688
38.278
38.84
39.361
39.831
40.243
40.591
40.874
41.091
41.243
41.334
41.368
41.352
41.293
41.196
41.068
40.915
40.744
40.562
40.372
40.181
39.991
39.807
39.631
39.464
39.307
39.161
39.024
38.897
38.778
38.665
38.558
38.455
38.354
38.252
38.147
38.037
37.921
37.799
37.671
37.539
37.404
37.268
37.134
37.003
36.876
36.756
36.643
36.538
36.443
36.354
36.272
36.195
36.123
36.054
35.988
35.926
35.868
35.815
35.768
35.726
35.691
35.66
35.634
35.612
35.592
35.573
35.554
35.534
35.513
35.491
35.468
35.443
35.418
35.393
35.367
35.34
35.314
35.289
35.263
35.236
35.205
35.172
35.136
35.097
35.056
35.013
34.969
34.925
34.881
34.836
34.791
34.747
34.705
34.664
34.621
34.576
34.529
34.48
34.43
34.38
34.332
34.286
34.241
34.197
34.153
34.111
34.07
34.03
33.992
33.955
33.918
33.881
33.844
33.807
33.77
33.733
33.697
33.661
33.624
33.587
33.549
33.511
33.472
33.431
33.389
33.346
33.302
33.258
33.214
33.172
33.13
33.091
33.054
33.021
32.993
32.971
32.957
32.952
32.958
32.976
33.011
33.066
33.145
33.255
33.406
33.609
33.875
34.216
34.635
35.134
35.708
36.347
37.039
37.768
38.518
39.27
40.008
40.712
41.369
41.967
42.499
42.961
43.35
43.666
43.912
44.09
44.207
44.267
44.278
44.245
44.175
44.072
43.943
43.793
43.625
43.443
43.251
43.053
42.85
42.647
42.443
42.242
42.045
41.852
41.665
41.482
41.303
41.127
40.955
40.784
40.615
40.446
40.277
40.108
39.939
39.769
39.599
39.428
39.258
39.089
38.921
38.757
38.597
38.443
38.296
38.157
38.024
37.899
37.781
37.668
37.561
37.459
37.361
37.27
37.183
37.101
37.025
36.953
36.888
36.827
36.772
36.722
36.677
36.636
36.599
36.562
36.524
36.484
36.444
36.403
36.364
36.326
36.29
36.256
36.224
36.194
36.163
36.133
36.101
36.066
36.027
35.985
35.939
35.89
35.836
35.78
35.719
35.657
35.595
35.533
35.474
35.417
35.362
35.309
35.256
35.2
35.144
35.086
35.027
34.968
34.909
34.85
34.793
34.738
34.685
34.634
34.584
34.536
34.488
34.44
34.391
34.341
34.289
34.238
34.186
34.135
34.085
34.037
33.991
33.945
33.899
33.852
33.805
33.757
33.71
33.665
33.622
33.582
33.545
33.509
33.474
33.442
33.412
33.386
33.364
33.349
33.342
33.347
33.365
33.403
33.467
33.567
33.718
33.932
34.222
34.595
35.058
35.61
36.248
36.964
37.746
38.58
39.451
40.342
41.238
42.123
42.984
43.809
44.587
45.309
45.968
46.559
47.076
47.52
47.889
48.186
48.415
48.578
48.682
48.732
48.733
48.69
48.608
48.493
48.349
48.181
47.994
47.793
47.581
47.362
47.139
46.913
46.687
46.461
46.235
46.009
45.784
45.559
45.333
45.108
44.881
44.654
44.425
44.196
43.967
43.739
43.513
43.29
43.069
42.851
42.637
42.425
42.216
42.011
41.81
41.615
41.426
41.243
41.068
40.9
40.74
40.589
40.446
40.311
40.186
40.071
39.965
39.869
39.78
39.7
39.626
39.558
39.494
39.432
39.371
39.311
39.252
39.192
39.131
39.071
39.01
38.949
38.888
38.826
38.763
38.701
38.638
38.575
38.511
38.446
38.379
38.31
38.238
38.162
38.082
37.999
37.912
37.824
37.733
37.642
37.55
37.458
37.366
37.272
37.178
37.083
36.987
36.888
36.786
36.683
36.578
36.473
36.368
36.266
36.166
36.07
35.979
35.893
35.81
35.731
35.655
35.58
35.505
35.429
35.351
35.274
35.197
35.122
35.05
34.979
34.912
34.845
34.78
34.714
34.648
34.581
34.514
34.447
34.379
34.312
34.245
34.179
34.117
34.058
34.004
33.956
33.915
33.882
33.861
33.854
33.866
33.903
33.975
34.092
34.264
34.502
34.813
35.206
35.682
36.243
36.887
37.605
38.388
39.225
40.102
41.002
41.911
42.81
43.684
44.515
45.29
45.997
46.626
47.169
47.622
47.983
48.254
48.437
48.539
48.564
48.521
48.42
48.27
48.08
47.86
47.618
47.363
47.101
46.837
46.574
46.315
46.061
45.813
45.571
45.336
45.106
44.883
44.665
44.452
44.241
44.032
43.823
43.613
43.404
43.193
42.982
42.77
42.557
42.344
42.129
41.916
41.706
41.501
41.303
41.112
40.93
40.757
40.593
40.438
40.292
40.155
40.026
39.907
39.796
39.695
39.601
39.514
39.435
39.361
39.294
39.231
39.172
39.117
39.064
39.014
38.965
38.918
38.872
38.828
38.784
38.739
38.695
38.649
38.604
38.558
38.51
38.462
38.411
38.358
38.302
38.24
38.174
38.102
38.027
37.949
37.869
37.788
37.705
37.623
37.54
37.454
37.367
37.279
37.189
37.098
37.006
36.912
36.818
36.724
36.63
36.538
36.447
36.359
36.274
36.191
36.112
36.034
35.958
35.882
35.806
35.728
35.648
35.567
35.485
35.403
35.322
35.243
35.165
35.09
35.018
34.948
34.88
34.812
34.745
34.678
34.61
34.54
34.47
34.399
34.326
34.252
34.177
34.104
34.033
33.965
33.9
33.841
33.788
33.743
33.708
33.685
33.675
33.683
33.712
33.766
33.853
33.978
34.148
34.371
34.652
34.996
35.406
35.881
36.42
37.016
37.663
38.35
39.065
39.795
40.526
41.245
41.936
42.589
43.191
43.732
44.204
44.601
44.919
45.159
45.323
45.413
45.437
45.401
45.313
45.181
45.015
44.821
44.606
44.377
44.14
43.898
43.654
43.409
43.165
42.924
42.685
42.45
42.219
41.994
41.777
41.571
41.375
41.187
41.003
40.823
40.643
40.461
40.279
40.094
39.908
39.721
39.534
39.349
39.167
38.99
38.819
38.655
38.499
38.352
38.215
38.087
37.97
37.862
37.761
37.668
37.581
37.5
37.423
37.352
37.287
37.23
37.179
37.135
37.096
37.062
37.032
37.006
36.981
36.959
36.937
36.914
36.889
36.861
36.831
36.8
36.767
36.733
36.698
36.661
36.622
36.581
36.539
36.494
36.446
36.395
36.342
36.287
36.23
36.172
36.115
36.057
35.999
35.939
35.877
35.815
35.752
35.689
35.627
35.565
35.504
35.442
35.38
35.318
35.256
35.195
35.136
35.078
35.02
34.962
34.904
34.846
34.787
34.729
34.671
34.614
34.557
34.499
34.44
34.38
34.321
34.263
34.206
34.151
34.098
34.048
33.999
33.952
33.904
33.855
33.806
33.756
33.706
33.656
33.607
33.561
33.516
33.474
33.433
33.395
33.359
33.324
33.291
33.262
33.238
33.222
33.221
33.238
33.279
33.353
33.466
33.625
33.835
34.104
34.436
34.832
35.293
35.816
36.393
37.018
37.681
38.368
39.068
39.766
40.449
41.104
41.719
42.285
42.792
43.236
43.61
43.914
44.147
44.311
44.409
44.447
44.43
44.363
44.253
44.106
43.93
43.728
43.508
43.273
43.027
42.775
42.52
42.265
42.011
41.761
41.516
41.278
41.048
40.826
40.613
40.408
40.211
40.022
39.839
39.661
39.487
39.316
39.15
38.986
38.826
38.668
38.515
38.365
38.221
38.082
37.95
37.825
37.709
37.601
37.501
37.411
37.33
37.258
37.194
37.137
37.087
37.043
37.005
36.972
36.943
36.919
36.899
36.885
36.875
36.869
36.868
36.87
36.874
36.88
36.885
36.889
36.889
36.885
36.877
36.864
36.847
36.824
36.796
36.764
36.727
36.686
36.643
36.596
36.546
36.492
36.435
36.376
36.314
36.249
36.182
36.113
36.041
35.968
35.893
35.817
35.74
35.665
35.592
35.519
35.447
35.376
35.305
35.235
35.167
35.1
35.034
34.968
34.901
34.833
34.764
34.693
34.623
34.553
34.483
34.415
34.348
34.284
34.221
34.159
34.099
34.036
33.964
33.88
33.786
33.684
33.579
33.477
33.381
33.294
33.22
33.159
33.112
33.077
33.053
33.035
33.023
33.015
33.008
33.003
33.0
32.998
32.999
33.002
33.008
33.021
33.047
33.09
33.157
33.257
33.398
33.588
33.837
34.149
34.53
34.979
35.495
36.074
36.706
37.38
38.084
38.804
39.525
40.235
40.918
41.561
42.155
42.691
43.162
43.563
43.894
44.152
44.341
44.464
44.523
44.525
44.475
44.381
44.248
44.084
43.894
43.685
43.462
43.228
42.988
42.744
42.497
42.249
42.001
41.754
41.505
41.257
41.011
40.769
40.531
40.298
40.073
39.855
39.647
39.448
39.259
39.08
38.913
38.755
38.607
38.467
38.334
38.206
38.083
37.962
37.843
37.727
37.614
37.505
37.401
37.304
37.215
37.135
37.065
37.006
36.956
36.916
36.885
36.862
36.847
36.837
36.833
36.831
36.831
36.833
36.835
36.838
36.842
36.846
36.848
36.848
36.844
36.835
36.823
36.805
36.782
36.754
36.72
36.682
36.639
36.592
36.543
36.49
36.436
36.379
36.318
36.254
36.187
36.117
36.045
35.972
35.897
35.823
35.749
35.676
35.604
35.533
35.461
35.389
35.317
35.243
35.169
35.097
35.026
34.957
34.889
34.822
34.757
34.694
34.632
34.572
34.513
34.454
34.395
34.335
34.274
34.211
34.148
34.082
34.014
33.944
33.872
33.798
33.725
33.653
33.583
33.516
33.453
33.395
33.341
33.291
33.245
33.202
33.161
33.122
33.083
33.045
33.008
32.972
32.937
32.905
32.876
32.853
32.837
32.831
32.839
32.867
32.921
33.007
33.135
33.312
33.544
33.835
34.188
34.603
35.079
35.612
36.197
36.826
37.491
38.18
38.879
39.577
40.259
40.912
41.524
42.084
42.584
43.017
43.378
43.665
43.878
44.019
44.092
44.102
44.054
43.955
43.814
43.637
43.431
43.2
42.953
42.695
42.431
42.168
41.908
41.654
41.409
41.173
40.947
40.729
40.518
40.312
40.112
39.915
39.721
39.529
39.341
39.154
38.971
38.79
38.613
38.44
38.273
38.113
37.958
37.811
37.672
37.539
37.413
37.292
37.177
37.067
36.964
36.866
36.777
36.696
36.623
36.559
36.505
36.459
36.424
36.398
36.381
36.372
36.369
36.371
36.377
36.385
36.396
36.408
36.421
36.435
36.45
36.463
36.474
36.481
36.483
36.478
36.466
36.446
36.418
36.383
36.342
36.296
36.245
36.19
36.132
