Trial 1:0back
33.751
33.732
33.711
33.687
33.661
33.631
33.598
33.562
33.524
33.484
33.443
33.401
33.358
33.314
33.271
33.229
33.187
33.146
33.107
33.07
33.035
33.004
32.977
32.955
32.937
32.922
32.911
32.903
32.898
32.897
32.899
32.905
32.917
32.935
32.961
32.998
33.048
33.113
33.193
33.29
33.405
33.538
33.688
33.853
34.031
34.218
34.411
34.607
34.802
34.994
35.178
35.352
35.512
35.657
35.786
35.899
35.995
36.074
36.137
36.182
36.211
36.226
36.228
36.217
36.195
36.162
36.12
36.071
36.014
35.952
35.886
35.815
35.741
35.664
35.587
35.508
35.429
35.349
35.27
35.192
35.117
35.044
34.975
34.908
34.846
34.786
34.73
34.678
34.629
34.585
34.544
34.507
34.474
34.445
34.42
34.401
34.385
34.373
34.363
34.356
34.351
34.349
34.348
34.347
34.348
34.348
34.349
34.35
34.352
34.353
34.356
34.357
34.359
34.361
34.363
34.366
34.369
34.372
34.374
34.375
34.377
34.378
34.379
34.38
34.381
34.382
34.382
34.382
34.381
34.379
34.376
34.371
34.364
34.355
34.344
34.331
34.314
34.294
34.271
34.244
34.213
34.179
34.143
34.106
34.068
34.027
33.983
33.937
33.889
33.84
33.79
33.742
33.696
33.654
33.615
33.58
33.551
33.526
33.506
33.491
33.48
33.474
33.472
33.474
33.478
33.484
33.489
33.491
33.491
33.486
33.477
33.461
33.439
33.41
33.376
33.339
33.298
33.255
33.213
33.172
33.134
33.101
33.075
33.058
33.052
33.057
33.076
33.113
33.173
33.264
33.381
33.517
33.666
33.826
33.995
34.171
34.353
34.539
34.726
34.912
35.095
35.274
35.446
35.609
35.759
35.895
36.015
36.119
36.205
36.273
36.323
36.355
36.371
36.371
36.357
36.331
36.293
36.246
36.191
36.13
36.065
36.0
35.934
35.87
35.809
35.75
35.696
35.647
35.604
35.564
35.529
35.496
35.467
35.439
35.412
35.386
35.36
35.332
35.302
35.271
35.239
35.204
35.168
35.13
35.091
35.05
35.009
34.969
34.93
34.892
34.857
34.825
34.798
34.777
34.762
34.754
34.751
34.753
34.761
34.774
34.791
34.812
34.835
34.859
34.882
34.905
34.925
34.943
34.957
34.967
34.973
34.974
34.97
34.963
34.952
34.938
34.92
34.899
34.876
34.852
34.826
34.799
34.77
34.738
34.704
34.669
34.633
34.597
34.56
34.525
34.49
34.456
34.424
34.394
34.365
34.338
34.311
34.285
34.257
34.23
34.202
34.173
34.143
34.112
34.079
34.044
34.007
33.969
33.929
33.888
33.845
33.801
33.755
33.71
33.664
33.619
33.574
33.531
33.49
33.453
33.418
33.388
33.363
33.341
33.323
33.308
33.295
33.285
33.278
33.273
33.268
33.261
33.254
33.244
33.233
33.221
33.207
33.191
33.175
33.158
33.14
33.124
33.11
33.1
33.096
33.1
33.113
33.138
33.178
33.234
33.307
33.396
33.503
33.627
33.767
33.92
34.083
34.254
34.43
34.606
34.779
34.947
35.107
35.255
35.389
35.506
35.605
35.686
35.747
35.789
35.813
35.821
35.813
35.792
35.758
35.713
35.659
35.596
35.527
35.454
35.377
35.3
35.221
35.143
35.067
34.994
34.926
34.863
34.807
34.756
34.711
34.671
34.638
34.609
34.587
34.57
34.557
34.547
34.539
34.531
34.523
34.513
34.501
34.486
34.469
34.448
34.425
34.4
34.375
34.351
34.327
34.306
34.288
34.272
34.259
34.25
34.244
34.241
34.24
34.242
34.248
34.256
34.267
34.279
34.293
34.308
34.324
34.34
34.358
34.375
34.392
34.408
34.421
34.431
34.438
34.441
34.44
34.435
34.426
34.413
34.396
34.375
34.35
34.321
34.29
34.255
34.218
34.18
34.141
34.102
34.062
34.022
33.983
33.944
33.907
33.873
33.84
33.809
33.78
33.753
33.728
33.706
33.685
33.665
33.646
33.628
33.61
33.591
33.572
33.552
33.531
33.509
33.486
33.462
33.438
33.412
33.386
33.359
33.333
33.307
33.283
33.26
33.239
33.22
33.203
33.187
33.172
33.158
33.146
33.135
33.125
33.117
33.11
33.104
33.098
33.094
33.091
33.089
33.089
33.09
33.092
33.096
33.102
33.111
33.122
33.138
33.157
33.182
33.214
33.255
33.307
33.369
33.443
33.529
33.625
33.733
33.85
33.977
34.11
34.248
34.388
34.53
34.67
34.806
34.935
35.056
35.167
35.267
35.355
35.431
35.493
35.541
35.574
35.593
35.598
35.59
35.57
35.539
35.497
35.446
35.387
35.322
35.252
35.179
35.102
35.024
34.945
34.866
34.789
34.714
34.642
34.574
34.51
34.45
34.397
34.348
34.305
34.267
34.234
34.205
34.178
34.155
34.135
34.119
34.105
34.094
34.085
34.077
34.07
34.064
34.059
34.055
34.052
34.051
34.051
34.052
34.055
34.059
34.064
34.07
34.077
34.086
34.095
34.107
34.119
34.133
34.149
34.166
34.185
34.205
34.226
34.247
34.269
34.29
34.31
34.33
34.348
34.364
34.377
34.386
34.392
34.394
34.392
34.386
34.375
34.361
34.342
34.319
34.294
34.266
34.236
34.203
34.168
34.131
34.092
34.052
34.012
33.971
33.932
33.895
33.861
33.83
33.804
33.783
33.765
33.751
33.739
33.73
33.723
33.718
33.715
33.711
33.708
33.705
33.701
33.696
33.69
33.683
33.674
33.662
33.649
33.633
33.615
33.596
33.576
33.554
33.531
33.507
33.484
33.461
33.439
33.418
33.399
33.384
33.372
33.364
33.361
33.363
33.371
33.384
33.405
33.433
33.471
33.52
33.581
33.654
33.74
33.838
33.949
34.071
34.202
34.34
34.484
34.63
34.778
34.924
35.065
35.199
35.324
35.438
35.54
35.629
35.704
35.764
35.81
35.841
35.86
35.867
35.864
35.851
35.829
35.8
35.764
35.723
35.678
35.631
35.583
35.534
35.485
35.435
35.384
35.333
35.28
35.224
35.167
35.109
35.049
34.988
34.927
34.865
34.802
34.741
34.68
34.622
34.566
34.513
34.461
34.413
34.369
34.329
34.294
34.265
34.241
34.224
34.212
34.206
34.207
34.215
34.228
34.247
34.271
34.297
34.327
34.358
34.391
34.423
34.454
34.483
34.509
34.532
34.552
34.569
34.582
34.592
34.599
34.602
34.601
34.598
34.592
34.584
34.574
34.563
34.553
34.542
34.532
34.522
34.513
34.505
34.497
34.489
34.481
34.474
34.466
34.458
34.448
34.436
34.422
34.405
34.385
34.363
34.338
34.309
34.278
34.244
34.208
34.171
34.134
34.098
34.062
34.028
33.997
33.968
33.942
33.918
33.898
33.88
33.865
33.854
33.846
33.84
33.838
33.837
33.839
33.842
33.846
33.851
33.857
33.862
33.866
33.868
33.869
33.867
33.863
33.855
33.844
33.831
33.814
33.794
33.773
33.751
33.729
33.707
33.688
33.671
33.66
33.653
33.653
33.661
33.681
33.713
33.761
33.826
33.907
34.006
34.121
34.251
34.394
34.549
34.712
34.88
35.051
35.22
35.384
35.539
35.684
35.815
35.93
36.028
36.107
36.169
36.213
36.24
36.25
36.245
36.227
36.197
36.156
36.108
36.053
35.993
35.929
35.863
35.797
35.73
35.664
35.599
35.535
35.473
35.414
35.357
35.305
35.257
35.213
35.172
35.135
35.098
35.063
35.027
34.991
34.954
34.916
34.877
34.836
34.795
34.754
34.712
34.671
34.631
34.594
34.561
34.533
34.511
34.495
34.487
34.485
34.49
34.501
34.516
34.535
34.556
34.581
34.608
34.637
34.668
34.699
34.729
34.759
34.787
34.812
34.834
34.852
34.867
34.877
34.884
34.887
34.887
34.882
34.875
34.865
34.852
34.837
34.819
34.799
34.777
34.754
34.731
34.707
34.685
34.663
34.642
34.621
34.601
34.582
34.563
34.546
34.529
34.513
34.497
34.48
34.462
34.442
34.421
34.398
34.373
34.346
34.318
34.287
34.255
34.222
34.189
34.155
34.122
34.088
34.055
34.023
33.992
33.963
33.937
33.915
33.897
33.883
33.872
33.865
33.861
33.858
33.857
33.856
33.856
33.856
33.856
33.857
33.856
33.855
33.853
33.848
33.842
33.834
33.823
33.81
33.797
33.783
33.77
33.759
33.751
33.749
33.753
33.768
33.793
33.831
33.884
33.953
34.039
34.142
34.261
34.395
34.544
34.703
34.872
35.046
35.224
35.401
35.573
35.739
35.894
36.037
36.164
36.274
36.365
36.438
36.492
36.527
36.545
36.546
36.532
36.506
36.467
36.419
36.363
36.301
36.234
36.164
36.093
36.021
35.951
35.882
35.816
35.753
35.692
35.634
35.58
35.529
35.48
35.435
35.391
35.351
35.312
35.276
35.241
35.207
35.173
35.139
35.105
35.072
35.039
35.007
34.976
34.946
34.917
34.889
34.863
34.839
34.818
34.801
34.787
34.778
34.775
34.776
34.783
34.794
34.81
34.83
34.852
34.877
34.904
34.931
34.959
34.986
35.011
35.034
35.054
35.07
35.083
35.091
35.096
35.098
35.096
35.091
35.082
35.069
35.054
35.035
35.013
34.99
34.965
34.939
34.913
34.887
34.861
34.837
34.813
34.79
34.769
34.748
34.729
34.711
34.696
34.682
34.669
34.656
34.643
34.628
34.612
34.593
34.571
34.545
34.517
34.486
34.454
34.421
34.388
34.355
34.323
34.291
34.26
34.231
34.203
34.176
34.151
34.127
34.105
34.085
34.068
34.055
34.044
34.037
34.031
34.029
34.03
34.033
34.035
34.034
34.026
34.014
33.997
33.972
33.94
33.906
33.873
33.845
33.822
33.806
33.798
33.798
33.806
33.822
33.847
33.881
33.924
33.976
34.04
34.115
34.202
34.301
34.413
34.538
34.673
34.819
34.972
35.13
35.293
35.456
35.617
35.775
35.925
36.065
36.193
36.307
36.407
36.49
36.557
36.606
36.638
36.655
36.657
36.646
36.622
36.587
36.543
36.491
36.433
36.37
36.304
36.236
36.167
36.097
36.029
35.963
35.899
35.84
35.784
35.733
35.686
35.643
35.603
35.566
35.531
35.496
35.462
35.426
35.39
35.352
35.314
35.274
35.234
35.194
35.154
35.115
35.077
35.041
35.008
34.978
34.952
34.93
34.913
34.902
34.897
34.898
34.904
34.916
34.932
34.953
34.977
35.005
35.034
35.065
35.096
35.127
35.157
35.184
35.209
35.23
35.248
35.261
35.271
35.277
35.279
35.276
35.269
35.257
35.241
35.222
35.199
35.174
35.147
35.119
35.091
35.063
35.037
35.012
34.988
34.967
34.947
34.929
34.914
34.9
34.888
34.877
34.867
34.857
34.845
34.834
34.82
34.805
34.787
34.766
34.743
34.717
34.689
34.659
34.626
34.592
34.557
34.522
34.487
34.453
34.42
34.389
34.36
34.335
34.313
34.295
34.281
34.271
34.263
34.258
34.256
34.255
34.257
34.26
34.264
34.268
34.272
34.275
34.276
34.276
34.272
34.266
34.257
34.245
34.231
34.217
34.201
34.186
34.173
34.164
34.16
34.164
34.178
34.204
34.244
34.3
34.374
34.466
34.576
34.702
34.844
34.999
35.164
35.337
35.514
35.693
35.869
36.04
36.201
36.351
36.486
36.605
36.707
36.79
36.855
36.901
36.929
36.94
36.934
36.915
36.883
36.839
36.785
36.724
36.657
36.587
36.515
36.442
36.371
36.302
36.235
36.172
36.112
36.055
36.002
35.951
35.903
35.857
35.811
35.765
35.719
35.671
35.622
35.571
35.518
35.464
35.41
35.356
35.303
35.253
35.206
35.162
35.121
35.085
35.054
35.028
35.009
34.996
34.99
34.991
34.999
35.013
35.032
35.057
35.087
35.12
35.158
35.198
35.24
35.282
35.323
35.363
35.401
35.435
35.465
35.49
35.51
35.525
35.534
35.537
35.535
35.529
35.517
35.503
35.485
35.466
35.445
35.424
35.402
35.38
35.36
35.341
35.323
35.306
35.29
35.274
35.258
35.242
35.226
35.21
35.193
35.175
35.155
35.133
35.109
35.081
35.052
35.019
34.985
34.948
34.909
34.87
34.831
34.791
34.752
34.713
34.676
34.64
34.606
34.575
34.547
34.522
34.5
34.482
34.469
34.46
34.455
34.455
34.458
34.464
34.474
34.485
34.496
34.507
34.515
34.521
34.522
34.52
34.514
34.504
34.492
34.477
34.459
34.44
34.421
34.401
34.381
34.362
34.346
34.332
34.322
34.318
34.32
34.331
34.352
34.386
34.433
34.495
34.572
34.665
34.773
34.895
35.031
35.177
35.333
35.494
35.657
35.82
35.978
36.129
36.27
36.4
36.517
36.62
36.707
36.779
36.835
36.876
36.901
36.912
36.909
36.894
36.868
36.834
36.793
36.747
36.696
36.643
36.589
36.534
36.48
36.428
36.377
36.329
36.282
36.236
36.19
36.144
36.097
36.048
35.997
35.944
35.89
35.833
35.776
35.719
35.662
35.607
35.554
35.503
35.456
35.412
35.372
35.336
35.305
35.277
35.253
35.235
35.221
35.211
35.207
35.207
35.211
35.219
35.231
35.246
35.265
35.286
35.309
35.332
35.355
35.376
35.396
35.414
35.43
35.441
35.45
35.454
35.454
35.452
35.446
35.437
35.428
35.418
35.409
35.4
35.393
35.386
35.38
35.374
35.369
35.364
35.359
35.353
35.346
35.336
35.325
35.311
35.294
35.274
35.25
35.224
35.194
35.161
35.125
35.088
35.049
35.009
34.969
34.929
34.891
34.853
34.818
34.785
34.755
34.727
34.702
34.679
34.66
34.644
34.631
34.621
34.614
34.611
34.612
34.616
34.622
34.631
34.641
34.654
34.667
34.682
34.695
34.708
34.719
34.726
34.731
34.731
34.728
34.72
34.709
34.693
34.673
34.649
34.622
34.593
34.564
34.535
34.507
34.483
34.462
34.447
34.439
34.439
34.448
34.468
34.5
34.545
34.605
34.679
34.768
34.871
34.988
35.117
35.255
35.401
35.551
35.703
35.853
35.999
36.139
36.27
36.39
36.496
36.589
36.667
36.73
36.778
36.811
36.831
36.838
36.835
36.821
36.798
36.769
36.735
36.697
36.656
36.613
36.569
36.524
36.478
36.432
36.385
36.337
36.287
36.236
36.183
36.129
36.073
36.016
35.958
35.899
35.84
35.781
35.723
35.666
35.611
35.556
35.504
35.454
35.408
35.366
35.329
35.297
35.271
35.251
35.239
35.232
35.232
35.236
35.245
35.257
35.271
35.287
35.304
35.321
35.338
35.355
35.371
35.386
35.399
35.411
35.421
35.428
35.433
35.436
35.435
35.431
35.425
35.418
35.41
35.402
35.394
35.388
35.383
35.38
35.378
35.379
35.381
35.384
35.388
35.392
35.395
35.396
35.393
35.386
35.373
35.355
35.331
35.302
35.268
35.229
35.188
35.145
35.101
35.056
35.011
34.965
34.919
34.874
34.831
34.79
34.752
34.716
34.683
34.654
34.627
34.604
34.585
34.568
34.555
34.544
34.535
34.529
34.526
34.524
34.524
34.524
34.525
34.525
34.525
34.524
34.521
34.516
34.509
34.501
34.493
34.484
34.473
34.461
34.447
34.432
34.416
34.4
34.382
34.364
34.346
34.33
34.315
34.302
34.291
34.283
34.276
34.271
34.267
34.266
34.267
34.272
34.281
34.295
34.314
34.34
34.376
34.421
34.477
34.545
34.623
34.712
34.811
34.918
35.032
35.152
35.275
35.398
35.521
35.641
35.756
35.864
35.963
36.053
36.132
36.201
36.26
36.307
36.343
36.369
36.384
36.389
36.385
36.374
36.355
36.33
36.301
36.266
36.227
36.185
36.139
36.092
36.042
35.991
35.94
35.889
35.839
35.791
35.745
35.703
35.663
35.627
35.595
35.565
35.54
35.518
35.5
35.484
35.471
35.46
35.45
35.442
35.435
35.429
35.423
35.417
35.411
35.404
35.396
35.388
35.379
35.37
35.36
35.351
35.342
35.335
35.327
35.321
35.314
35.308
35.303
35.3
35.297
35.296
35.297
35.3
35.304
35.31
35.318
35.328
35.338
35.349
35.36
35.369
35.377
35.381
35.381
35.377
35.366
35.349
35.326
35.297
35.262
35.221
35.175
35.124
35.07
35.012
34.951
34.891
34.83
34.771
34.715
34.663
34.615
34.573
34.535
34.503
34.475
34.453
34.434
34.418
34.404
34.394
34.393
34.402
34.419
34.44
34.461
34.48
34.493
34.497
34.492
34.477
34.451
34.415
34.371
34.32
34.264
34.205
34.145
34.086
34.03
33.978
33.932
33.892
33.861
33.837
33.822
33.814
33.814
33.82
33.831
33.846
33.865
33.885
33.905
33.925
33.945
33.962
33.978
33.991
34.001
34.007
34.009
34.007
34.002
33.993
33.98
33.964
33.947
33.928
33.909
33.891
33.876
33.865
33.86
33.864
33.879
33.906
33.947
34.004
34.075
34.162
34.264
34.38
34.508
34.645
34.789
34.939
35.091
35.243
35.392
35.534
35.668
35.791
35.901
35.997
36.078
36.143
36.192
36.225
36.243
36.246
36.235
36.212
36.179
36.137
36.088
36.032
35.972
35.91
35.847
35.783
35.721
35.661
35.604
35.55
35.5
35.455
35.414
35.376
35.342
35.309
35.279
35.25
35.221
35.193
35.165
35.136
35.107
35.079
35.05
35.022
34.995
34.968
34.941
34.915
34.89
34.867
34.845
34.824
34.806
34.791
34.78
34.774
34.772
34.775
34.784
34.797
34.814
34.835
34.86
34.887
34.916
34.944
34.972
34.999
35.024
35.046
35.065
35.079
35.089
35.094
35.096
35.093
35.086
35.076
35.063
35.048
35.031
35.013
34.994
34.974
34.954
34.934
34.914
34.895
34.878
34.862
34.848
34.834
34.821
34.808
34.795
34.782
34.768
34.752
34.735
34.715
34.694
34.671
34.644
34.616
34.586
34.555
34.523
34.49
34.457
34.423
34.391
34.36
34.329
34.301
34.275
34.251
34.23
34.212
34.197
34.185
34.177
34.172
34.169
34.17
34.172
34.175
34.18
34.185
34.189
34.193
34.195
34.196
34.195
34.192
34.186
34.177
34.167
34.155
34.142
34.127
34.112
34.097
34.08
34.064
34.048
34.032
34.017
34.003
33.991
33.983
33.978
33.977
33.983
33.996
34.018
34.05
34.092
34.148
34.216
34.296
34.39
34.495
34.61
34.733
34.864
34.999
35.136
35.273
35.409
35.541
35.668
35.786
35.894
35.992
36.078
36.152
36.215
36.267
36.307
36.337
36.357
36.369
36.372
36.369
36.358
36.342
36.32
36.294
36.264
36.23
36.192
36.152
36.11
36.066
36.02
35.973
35.925
35.877
35.828
35.778
35.729
35.679
35.629
35.58
35.532
35.487
35.443
35.402
35.363
35.327
35.295
35.266
35.241
35.22
35.203
35.189
35.179
35.173
35.17
35.169
35.172
35.176
35.183
35.192
35.202
35.213
35.224
35.236
35.247
35.257
35.265
35.273
35.278
35.282
35.283
35.283
35.281
35.279
35.277
35.274
35.272
35.269
35.267
35.265
35.264
35.263
35.263
35.263
35.264
35.265
35.266
35.266
35.265
35.261
35.255
35.245
35.232
35.214
35.192
35.166
35.136
35.103
35.067
35.029
34.989
34.948
34.907
34.866
34.824
34.783
34.743
34.704
34.667
34.634
34.603
34.577
34.553
34.534
34.517
34.503
34.493
34.486
34.481
34.478
34.476
34.474
34.473
34.472
34.47
34.467
34.461
34.453
34.443
34.43
34.415
34.398
34.38
34.361
34.342
34.323
34.306
34.29
34.275
34.262
34.251
34.242
34.237
34.234
34.234
34.237
34.242
34.249
34.258
34.268
34.279
34.289
34.299
34.308
34.315
34.321
34.325
34.325
34.322
34.316
34.308
34.297
34.285
34.272
34.26
34.25
34.243
34.242
34.249
34.265
34.292
34.332
34.386
34.455
34.54
34.642
34.758
34.888
35.03
35.182
35.342
35.507
35.674
35.838
35.997
36.146
36.284
36.409
36.519
36.613
36.689
36.748
36.789
36.814
36.823
36.819
36.801
36.773
36.735
36.689
36.637
36.58
36.519
36.455
36.391
36.327
36.264
36.202
36.143
36.086
36.034
35.986
35.943
35.902
35.865
35.831
35.799
35.77
35.74
35.71
35.679
35.645
35.61
35.574
35.536
35.496
35.455
35.413
35.371
35.33
35.291
35.254
35.221
35.193
35.171
35.155
35.146
35.145
35.151
35.163
35.181
35.204
35.23
35.259
35.29
35.322
35.353
35.384
35.412
35.437
35.458
35.474
35.486
35.493
35.495
35.493
35.485
35.474
35.46
35.443
35.425
35.405
35.385
35.364
35.343
35.324
35.305
35.288
35.272
35.257
35.242
35.228
35.215
35.203
35.19
35.176
35.16
35.142
35.122
35.099
35.073
35.044
35.012
34.978
34.942
34.905
34.867
34.829
34.791
34.754
34.719
34.687
34.657
34.63
34.606
34.585
34.568
34.554
34.545
34.54
34.536
34.535
34.535
34.537
34.539
34.543
34.549
34.554
34.559
34.564
34.568
34.571
34.572
34.57
34.565
34.556
34.545
34.531
34.515
34.495
34.473
34.45
34.426
34.403
34.381
34.36
34.341
34.325
34.31
34.299
34.29
34.285
34.282
34.28
34.281
34.282
34.285
34.287
34.289
34.288
34.286
34.281
34.273
34.263
34.249
34.233
34.214
34.192
34.169
34.144
34.121
34.099
34.081
34.067
34.061
34.062
34.074
34.097
34.132
34.182
34.247
34.329
34.427
34.54
34.667
34.806
34.956
35.115
35.279
35.447
35.614
35.778
35.935
36.083
36.22
36.343
36.452
36.545
36.623
36.685
36.731
36.762
36.777
36.779
36.767
36.745
36.713
36.673
36.628
36.578
36.526
36.473
36.419
36.367
36.315
36.266
36.219
36.174
36.134
36.097
36.064
36.032
36.003
35.975
35.948
35.92
35.891
35.861
35.835
35.816
35.804
35.793
35.782
35.773
35.764
35.755
35.742
35.723
35.699
35.669
35.633
35.594
35.554
35.512
