Trial 1:0back
37.727
38.236
38.728
39.193
39.624
40.015
40.36
40.657
40.905
41.102
41.25
41.352
41.41
41.429
41.411
41.362
41.286
41.187
41.069
40.936
40.793
40.643
40.489
40.334
40.181
40.03
39.884
39.744
39.611
39.485
39.364
39.249
39.139
39.033
38.932
38.835
38.744
38.658
38.577
38.502
38.432
38.367
38.307
38.249
38.194
38.139
38.084
38.029
37.971
37.91
37.845
37.777
37.704
37.627
37.548
37.466
37.385
37.305
37.228
37.157
37.092
37.034
36.984
36.943
36.91
36.887
36.873
36.87
36.876
36.892
36.915
36.944
36.975
37.008
37.041
37.076
37.111
37.148
37.186
37.223
37.26
37.295
37.328
37.356
37.379
37.395
37.405
37.408
37.403
37.39
37.371
37.346
37.315
37.278
37.237
37.191
37.14
37.084
37.025
36.961
36.894
36.823
36.748
36.67
36.588
36.506
36.422
36.337
36.252
36.167
36.083
35.998
35.914
35.831
35.75
35.669
35.589
35.509
35.43
35.351
35.273
35.198
35.125
35.056
34.99
34.929
34.873
34.82
34.771
34.725
34.683
34.645
34.61
34.579
34.551
34.526
34.503
34.482
34.464
34.448
34.433
34.418
34.405
34.391
34.378
34.363
34.347
34.33
34.312
34.292
34.272
34.254
34.236
34.22
34.204
34.189
34.175
34.16
34.145
34.128
34.112
34.095
34.079
34.065
34.052
34.041
34.033
34.026
34.023
34.021
34.02
34.02
34.02
34.02
34.021
34.022
34.024
34.026
34.028
34.03
34.03
34.028
34.025
34.019
34.01
33.996
33.978
33.956
33.931
33.903
33.874
33.842
33.81
33.777
33.746
33.717
33.69
33.665
33.643
33.622
33.605
33.591
33.582
33.578
33.58
33.59
33.606
33.63
33.66
33.696
33.737
33.785
33.838
33.896
33.961
34.029
34.102
34.179
34.258
34.339
34.422
34.503
34.581
34.656
34.724
34.786
34.842
34.891
34.933
34.967
34.994
35.015
35.028
35.035
35.034
35.026
35.01
34.989
34.964
34.936
34.907
34.878
34.853
34.833
34.819
34.815
34.825
34.852
34.901
34.975
35.08
35.221
35.402
35.626
35.897
36.212
36.571
36.969
37.397
37.848
38.312
38.778
39.235
39.673
40.083
40.457
40.788
41.071
41.304
41.483
41.609
41.684
41.71
41.692
41.635
41.542
41.421
41.275
41.11
40.932
40.743
40.549
40.354
40.16
39.969
39.783
39.603
39.43
39.264
39.105
38.953
38.809
38.673
38.544
38.424
38.313
38.21
38.115
38.029
37.952
37.884
37.824
37.773
37.73
37.693
37.662
37.634
37.607
37.576
37.54
37.496
37.445
37.389
37.328
37.264
37.2
37.136
37.076
37.02
36.97
36.926
36.89
36.861
36.841
36.829
36.826
36.831
36.844
36.863
36.889
36.92
36.956
36.998
37.044
37.094
37.148
37.203
37.258
37.311
37.359
37.401
37.436
37.461
37.476
37.48
37.474
37.457
37.43
37.396
37.354
37.307
37.255
37.2
37.142
37.081
37.018
36.952
36.885
36.814
36.742
36.667
36.589
36.507
36.422
36.331
36.237
36.138
36.035
35.927
35.814
35.698
35.582
35.468
35.357
35.25
35.146
35.045
34.947
34.851
34.758
34.669
34.582
34.5
34.421
34.346
34.275
34.208
34.146
34.088
34.034
33.985
33.94
33.901
33.867
33.838
33.815
33.796
33.782
33.772
33.764
33.758
33.755
33.754
33.755
33.757
33.761
33.767
33.775
33.784
33.794
33.806
33.818
33.829
33.839
33.848
33.856
33.862
33.867
33.871
33.874
33.876
33.877
33.877
33.876
33.873
33.869
33.861
33.848
33.833
33.816
33.798
33.782
33.768
33.757
33.751
33.749
33.751
33.756
33.765
33.777
33.79
33.804
33.817
33.83
33.84
33.847
33.849
33.848
33.843
33.833
33.819
33.8
33.778
33.751
33.72
33.687
33.651
33.615
33.577
33.54
33.503
33.466
33.431
33.397
33.365
33.336
33.309
33.287
33.269
33.255
33.244
33.236
33.23
33.224
33.218
33.211
33.202
33.191
33.178
33.16
33.139
33.114
33.086
33.055
33.02
32.983
32.945
32.904
32.864
32.825
32.788
32.754
32.723
32.696
32.672
32.652
32.636
32.624
32.615
32.611
32.609
32.612
32.62
32.636
32.663
32.704
32.764
32.849
32.964
33.113
33.302
33.536
33.817
34.147
34.524
34.946
35.407
35.899
36.412
36.937
37.463
37.979
38.475
38.94
39.368
39.753
40.088
40.371
40.6
40.775
40.897
40.969
40.993
40.975
40.921
40.837
40.729
40.602
40.461
40.312
40.159
40.005
39.855
39.709
39.57
39.438
39.314
39.199
39.092
38.995
38.908
38.831
38.762
38.701
38.646
38.597
38.553
38.513
38.476
38.443
38.412
38.385
38.359
38.334
38.31
38.285
38.26
38.231
38.199
38.162
38.12
38.073
38.02
37.96
37.895
37.824
37.747
37.665
37.579
37.492
37.403
37.313
37.225
37.139
37.056
36.977
36.903
36.834
36.77
36.711
36.657
36.609
36.566
36.528
36.496
36.471
36.451
36.437
36.429
36.424
36.423
36.422
36.422
36.42
36.415
36.406
36.393
36.376
36.355
36.331
36.303
36.272
36.239
36.204
36.168
36.13
36.09
36.047
36.002
35.953
35.901
35.844
35.783
35.717
35.648
35.575
35.5
35.423
35.345
35.268
35.193
35.119
35.048
34.98
34.914
34.852
34.792
34.736
34.683
34.633
34.587
34.544
34.504
34.465
34.428
34.393
34.358
34.324
34.291
34.257
34.224
34.19
34.157
34.124
34.091
34.06
34.028
33.997
33.967
33.936
33.905
33.874
33.843
33.814
33.786
33.76
33.737
33.715
33.695
33.677
33.66
33.644
33.627
33.611
33.593
33.575
33.555
33.534
33.513
33.489
33.465
33.44
33.416
33.392
33.368
33.345
33.322
33.298
33.275
33.251
33.228
33.206
33.184
33.164
33.145
33.127
33.112
33.097
33.083
33.069
33.055
33.04
33.022
33.004
32.984
32.963
32.941
32.918
32.895
32.87
32.845
32.82
32.795
32.771
32.749
32.727
32.708
32.69
32.674
32.659
32.646
32.635
32.627
32.62
32.615
32.611
32.608
32.604
32.599
32.593
32.586
32.577
32.567
32.556
32.543
32.529
32.515
32.502
32.49
32.479
32.47
32.463
32.457
32.453
32.45
32.448
32.447
32.447
32.447
32.447
32.447
32.446
32.446
32.444
32.442
32.438
32.431
32.42
32.405
32.388
32.368
32.346
32.324
32.302
32.281
32.26
32.242
32.226
32.214
32.205
32.199
32.196
32.195
32.197
32.201
32.209
32.221
32.24
32.267
32.306
32.361
32.438
32.542
32.677
32.849
33.061
33.316
33.616
33.961
34.347
34.771
35.224
35.698
36.185
36.672
37.152
37.612
38.044
38.44
38.794
39.102
39.359
39.566
39.722
39.828
39.888
39.906
39.886
39.833
39.753
39.65
39.531
39.398
39.256
39.108
38.956
38.803
38.649
38.496
38.344
38.195
38.048
37.903
37.762
37.624
37.49
37.361
37.238
37.12
37.01
36.906
36.81
36.722
36.639
36.561
36.488
36.418
36.351
36.286
36.223
36.16
36.099
36.038
35.977
35.916
35.855
35.794
35.733
35.673
35.615
35.559
35.505
35.456
35.412
35.372
35.338
35.31
35.288
35.273
35.267
35.268
35.278
35.296
35.321
35.353
35.392
35.435
35.482
35.529
35.576
35.622
35.665
35.705
35.742
35.775
35.805
35.832
35.855
35.874
35.89
35.901
35.909
35.911
35.907
35.896
35.879
35.855
35.825
35.788
35.746
35.699
35.648
35.593
35.535
35.474
35.41
35.344
35.275
35.206
35.136
35.066
34.997
34.929
34.863
34.799
34.735
34.67
34.605
34.54
34.475
34.411
34.348
34.288
34.229
34.173
34.118
34.067
34.019
33.973
33.93
33.889
33.851
33.815
33.781
33.75
33.722
33.698
33.678
33.661
33.647
33.636
33.627
33.621
33.617
33.615
33.614
33.615
33.618
33.621
33.625
33.63
33.635
33.64
33.645
33.649
33.653
33.655
33.657
33.656
33.655
33.652
33.647
33.64
33.631
33.62
33.609
33.598
33.59
33.588
33.592
33.6
33.609
33.618
33.626
33.63
33.628
33.62
33.607
33.589
33.567
33.539
33.509
33.476
33.44
33.402
33.364
33.326
33.289
33.254
33.221
33.191
33.165
33.141
33.119
33.1
33.083
33.065
33.047
33.029
33.009
32.988
32.966
32.943
32.92
32.897
32.875
32.853
32.833
32.814
32.795
32.777
32.76
32.743
32.726
32.709
32.69
32.671
32.653
32.635
32.616
32.597
32.578
32.559
32.539
32.518
32.496
32.475
32.453
32.432
32.411
32.39
32.367
32.345
32.324
32.303
32.283
32.266
32.25
32.239
32.232
32.231
32.236
32.249
32.272
32.31
32.365
32.445
32.554
32.7
32.886
33.119
33.4
33.731
34.109
34.531
34.99
35.478
35.984
36.499
37.01
37.509
37.983
38.424
38.825
39.181
39.486
39.74
39.942
40.094
40.198
40.259
40.28
40.267
40.223
40.155
40.067
39.963
39.847
39.721
39.589
39.452
39.312
39.171
39.031
38.893
38.756
38.622
38.49
38.362
38.238
38.117
38.0
37.887
37.78
37.68
37.587
37.503
37.426
37.357
37.296
37.241
37.191
37.143
37.098
37.053
37.007
36.959
36.909
36.857
36.802
36.743
36.679
36.611
36.54
36.467
36.393
36.319
36.247
36.177
36.109
36.045
35.984
35.929
35.879
35.836
35.8
35.772
35.754
35.743
35.74
35.744
35.753
35.766
35.783
35.802
35.822
35.842
35.861
35.88
35.898
35.915
35.931
35.945
35.956
35.963
35.966
35.965
35.959
35.947
35.929
35.905
35.877
35.844
35.806
35.766
35.721
35.673
35.622
35.567
35.509
35.449
35.388
35.325
35.261
35.196
35.128
35.059
34.988
34.915
34.842
34.767
34.692
34.618
34.546
34.476
34.41
34.346
34.286
34.228
34.172
34.119
34.068
34.019
33.972
33.928
33.887
33.849
33.815
33.784
33.758
33.735
33.715
33.697
33.681
33.666
33.653
33.64
33.628
33.618
33.61
33.604
33.602
33.605
33.61
33.619
33.625
33.627
33.621
33.61
33.595
33.579
33.563
33.551
33.542
33.538
33.539
33.547
33.56
33.578
33.6
33.626
33.653
33.681
33.71
33.739
33.768
33.798
33.827
33.856
33.884
33.911
33.934
33.954
33.97
33.982
33.988
33.989
33.985
33.976
33.964
33.949
33.932
33.913
33.893
33.873
33.853
33.832
33.812
33.793
33.774
33.757
33.742
33.729
33.719
33.713
33.709
33.708
33.708
33.708
33.707
33.704
33.7
33.694
33.685
33.674
33.66
33.643
33.622
33.598
33.571
33.541
33.508
33.472
33.435
33.397
33.359
33.32
33.282
33.244
33.208
33.175
33.145
33.119
33.098
33.081
33.068
33.058
33.052
33.047
33.043
33.039
33.036
33.032
33.027
33.02
33.01
32.997
32.98
32.958
32.931
32.9
32.863
32.822
32.779
32.734
32.69
32.649
32.612
32.58
32.556
32.538
32.529
32.53
32.541
32.564
32.604
32.663
32.747
32.861
33.011
33.202
33.438
33.724
34.059
34.443
34.87
35.334
35.826
36.334
36.849
37.36
37.858
38.331
38.774
39.176
39.535
39.844
40.103
40.31
40.464
40.567
40.623
40.634
40.603
40.536
40.436
40.309
40.159
39.99
39.808
39.616
39.417
39.215
39.011
38.81
38.612
38.42
38.234
38.054
37.884
37.723
37.572
37.431
37.3
37.179
37.068
36.967
36.875
36.794
36.723
36.662
36.612
36.57
36.537
36.511
36.491
36.475
36.46
36.446
36.43
36.412
36.392
36.368
36.341
36.31
36.278
36.243
36.206
36.168
36.128
36.089
36.052
36.018
35.987
35.961
35.942
35.929
35.923
35.923
35.93
35.945
35.965
35.992
36.023
36.058
36.097
36.139
36.183
36.227
36.272
36.314
36.354
36.39
36.421
36.448
36.467
36.479
36.484
36.48
36.469
36.451
36.425
36.392
36.352
36.305
36.251
36.193
36.129
36.061
35.99
35.916
35.84
35.762
35.683
35.603
35.522
35.44
35.357
35.273
35.187
35.1
35.012
34.921
34.83
34.736
34.642
34.546
34.451
34.356
34.263
34.173
34.087
34.006
33.929
33.858
33.793
33.735
33.684
33.641
33.606
33.579
33.56
33.549
33.545
33.548
33.557
33.57
33.587
33.607
33.63
33.652
33.674
33.694
33.712
33.726
33.737
33.744
33.748
33.75
33.748
33.743
33.736
33.728
33.719
33.71
33.701
33.693
33.685
33.677
33.671
33.667
33.663
33.662
33.661
33.661
33.66
33.659
33.657
33.654
33.65
33.643
33.634
33.622
33.606
33.589
33.569
33.548
33.525
33.501
33.473
33.441
33.406
33.368
33.328
33.287
33.247
33.209
33.173
33.139
33.109
33.083
33.06
33.041
33.024
33.008
32.993
32.978
32.964
32.948
32.931
32.913
32.893
32.871
32.849
32.826
32.802
32.778
32.754
32.731
32.707
32.683
32.66
32.637
32.615
32.593
32.571
32.549
32.529
32.509
32.492
32.478
32.468
32.461
32.457
32.456
32.458
32.463
32.471
32.48
32.493
32.508
32.525
32.545
32.566
32.589
32.611
32.632
32.651
32.667
32.681
32.692
32.7
32.706
32.707
32.705
32.699
32.689
32.676
32.66
32.641
32.619
32.594
32.566
32.537
32.506
32.476
32.447
32.42
32.397
32.38
32.37
32.372
32.389
32.426
32.489
32.584
32.719
32.901
33.136
33.427
33.778
34.186
34.648
35.155
35.7
36.269
36.85
37.429
37.993
38.53
39.029
39.481
39.88
40.22
40.499
40.717
40.874
40.974
41.02
41.019
40.976
40.899
40.792
40.661
40.513
40.352
40.182
40.007
39.829
39.651
39.475
39.302
39.133
38.967
38.805
38.646
38.488
38.331
38.175
38.022
37.874
37.731
37.595
37.466
37.346
37.235
37.134
37.041
36.956
36.879
36.809
36.744
36.685
36.63
36.578
36.528
36.478
36.428
36.377
36.323
36.267
36.207
36.143
36.077
36.007
35.934
35.859
35.782
35.704
35.626
35.549
35.477
35.41
35.349
35.295
35.248
35.208
35.176
35.15
35.13
35.116
35.108
35.104
35.104
35.107
35.114
35.122
35.132
35.142
35.154
35.165
35.177
35.187
35.195
35.2
35.201
35.197
35.189
35.176
35.158
35.136
35.109
35.079
35.045
35.009
34.97
34.93
34.889
34.847
34.804
34.759
34.713
34.664
34.612
34.556
34.496
34.431
34.362
34.291
34.217
34.143
34.068
33.994
33.92
33.847
33.775
33.705
33.637
33.573
33.512
33.454
33.398
33.346
33.298
33.253
33.212
33.175
33.142
33.112
33.086
33.064
33.045
33.03
33.017
33.006
32.997
32.99
32.985
32.982
32.981
32.98
32.98
32.979
32.977
32.973
32.968
32.963
32.956
32.949
32.943
32.937
32.933
32.93
32.929
32.93
32.932
32.935
32.938
32.942
32.947
32.952
32.958
32.964
32.969
32.973
32.976
32.977
32.976
32.972
32.965
32.957
32.948
32.936
32.924
32.909
32.893
32.874
32.853
32.829
32.802
32.774
32.743
32.712
32.681
32.649
32.618
32.587
32.555
32.525
32.494
32.465
32.436
32.409
32.382
32.356
32.33
32.306
32.282
32.259
32.238
32.217
32.196
32.176
32.155
32.135
32.116
32.098
32.081
32.066
32.052
32.036
32.019
32.001
31.982
31.961
31.941
31.919
31.898
31.877
31.856
31.837
31.819
31.804
31.79
31.778
31.768
31.759
31.751
31.744
31.737
31.73
31.723
31.716
31.708
31.699
31.689
31.679
31.669
31.66
31.65
31.64
31.63
31.62
31.608
31.595
31.582
31.567
31.551
31.534
31.516
31.499
31.483
31.468
31.456
31.448
31.444
31.444
31.452
31.468
31.495
31.536
31.595
31.675
31.782
31.921
32.096
32.316
32.587
32.913
33.29
33.714
34.177
34.667
35.175
35.687
36.192
36.68
37.14
37.564
37.947
38.281
38.565
38.797
38.978
39.108
39.192
39.233
39.236
39.205
39.146
39.065
38.966
38.855
38.735
38.609
38.479
38.348
38.216
38.086
37.957
37.83
37.705
37.581
37.458
37.337
37.218
37.1
36.986
36.874
36.767
36.665
36.566
36.472
36.384
36.301
36.224
36.152
36.085
36.022
35.962
35.904
35.849
35.795
35.743
35.69
35.638
35.585
35.532
35.478
35.424
35.371
35.32
35.272
35.226
35.183
35.144
35.109
35.081
35.06
35.047
35.043
35.048
35.063
35.086
35.119
35.16
35.207
35.259
35.316
35.376
35.439
35.503
35.567
35.631
35.693
35.752
35.808
35.86
35.907
35.947
35.979
36.002
36.016
36.021
36.017
36.003
35.98
35.949
35.91
35.865
35.815
35.761
35.704
35.644
35.583
35.52
35.456
35.391
35.324
35.256
35.186
35.115
35.041
34.966
34.888
34.81
34.729
34.647
34.565
34.481
34.398
34.315
34.233
34.151
34.072
33.994
33.92
33.85
33.784
33.723
33.667
33.616
33.57
33.529
33.494
33.464
33.437
33.413
33.391
33.373
33.358
33.345
33.334
33.327
33.322
33.319
33.317
33.316
33.317
33.317
33.318
33.318
33.317
33.316
33.316
33.316
33.316
33.318
33.32
33.323
33.327
33.33
33.334
33.338
33.342
33.346
33.35
33.354
33.359
33.365
33.37
33.376
33.382
33.387
33.391
33.395
33.398
33.401
33.403
33.405
33.405
33.404
33.401
33.396
33.389
33.378
33.365
33.35
33.333
33.314
33.296
33.278
33.261
33.246
33.232
33.22
33.208
33.197
33.185
33.172
33.159
33.144
33.129
33.113
33.096
33.079
33.062
33.045
33.028
33.012
32.997
32.981
32.965
32.949
32.932
32.915
32.897
32.879
32.861
32.844
32.827
32.81
32.793
32.776
32.758
32.741
32.722
32.704
32.686
32.667
32.648
32.63
32.611
32.593
32.576
32.559
32.542
32.525
32.509
32.492
32.476
32.46
32.444
32.429
32.415
32.403
32.391
32.382
32.376
32.376
32.383
32.402
32.435
32.489
32.569
32.683
32.838
33.04
33.294
33.604
33.969
34.388
34.854
35.36
35.895
36.449
37.008
37.561
38.095
38.599
39.063
39.479
39.842
40.149
40.398
40.59
40.727
40.812
40.849
40.844
40.802
40.73
40.633
40.517
40.388
40.248
40.101
39.949
39.794
39.638
39.482
39.327
39.173
39.021
38.871
38.723
38.576
38.431
38.287
38.144
38.003
37.866
37.733
37.607
37.487
37.376
37.272
37.177
37.091
37.012
36.941
36.875
36.814
36.758
36.706
36.657
36.608
36.56
36.51
36.458
36.403
36.347
36.291
36.234
36.177
36.122
36.069
36.02
35.975
35.934
35.899
35.87
35.847
35.833
35.826
35.83
35.844
35.867
35.898
35.937
35.981
36.031
36.084
36.14
36.198
36.255
36.31
36.362
36.41
36.454
36.491
36.523
36.549
36.568
36.581
36.587
36.587
36.581
36.568
36.549
36.524
36.495
36.461
36.422
36.378
36.33
36.277
36.22
36.158
36.093
36.024
35.951
35.874
35.793
35.709
35.621
35.532
35.44
35.348
35.255
35.162
35.07
34.978
34.887
34.797
34.709
34.622
34.536
34.453
34.372
34.293
34.216
34.143
34.073
34.006
33.944
33.885
33.831
33.779
33.731
33.685
33.643
33.603
33.568
33.535
33.507
33.481
33.459
33.44
33.425
33.413
33.403
33.397
33.393
33.391
33.391
33.393
33.396
33.401
33.407
33.414
33.422
33.431
33.441
33.451
33.462
33.474
33.485
33.496
33.506
33.515
33.522
33.527
33.531
33.532
33.533
33.534
33.535
33.538
33.542
33.546
33.551
33.555
33.557
33.556
33.553
33.547
33.538
33.526
33.512
33.494
33.474
33.452
33.427
33.4
33.372
33.344
33.316
33.288
33.261
33.236
33.213
33.193
33.175
33.159
33.145
33.134
33.124
33.115
33.106
33.098
33.089
33.081
33.073
33.067
33.062
33.058
33.057
33.057
33.059
33.063
33.068
33.075
33.083
33.094
33.105
33.117
33.13
33.141
33.152
33.162
33.169
33.174
33.176
33.174
33.169
33.159
33.146
33.128
33.108
33.085
33.059
33.031
33.001
32.968
32.934
32.899
32.864
32.83
32.798
32.769
32.744
32.725
32.71
32.701
32.698
32.704
32.72
32.749
32.794
32.862
32.957
33.088
33.26
33.477
33.745
34.065
34.438
34.86
35.325
35.827
36.356
36.901
37.45
37.991
38.514
39.008
39.464
39.875
40.235
40.542
40.793
40.99
41.134
41.226
41.272
41.274
41.239
41.17
41.073
40.953
40.814
40.661
40.498
40.328
40.154
39.977
39.801
39.628
39.459
39.297
39.14
38.988
38.837
38.687
38.538
38.392
38.251
38.116
37.99
37.873
37.767
37.673
37.591
37.519
37.459
37.408
37.366
37.33
37.301
37.277
37.256
37.237
37.22
37.202
37.182
37.157
37.127
37.092
37.051
37.005
36.954
36.901
36.845
36.789
36.733
36.681
36.632
36.589
36.552
36.525
36.507
36.5
36.503
36.516
36.538
36.568
36.604
36.644
36.687
36.731
36.777
36.823
36.869
36.913
36.955
36.995
37.03
37.061
37.087
37.106
37.119
37.125
37.123
37.114
37.098
37.077
37.051
37.02
36.984
36.943
36.898
36.848
36.794
36.736
36.674
36.607
36.537
36.462
36.383
36.302
36.218
36.133
36.047
35.961
35.877
35.794
35.713
35.635
35.56
35.489
35.42
35.355
35.293
35.234
35.177
35.123
35.071
35.021
34.973
34.925
34.88
34.836
34.795
34.756
34.72
34.688
34.659
34.633
34.609
34.588
34.569
34.551
34.535
34.519
34.504
34.489
34.475
34.463
34.452
34.442
34.433
34.425
34.416
34.408
34.4
34.391
34.381
34.372
34.362
