Trial 1:0back
40.621
40.602
40.569
40.524
40.469
40.405
40.335
40.259
40.179
40.096
40.013
39.93
39.847
39.765
39.685
39.607
39.531
39.456
39.384
39.314
39.244
39.175
39.107
39.038
38.968
38.896
38.821
38.744
38.665
38.585
38.503
38.422
38.341
38.262
38.186
38.114
38.047
37.987
37.933
37.888
37.852
37.824
37.805
37.794
37.791
37.796
37.806
37.821
37.84
37.86
37.88
37.899
37.915
37.927
37.936
37.939
37.937
37.928
37.914
37.893
37.866
37.833
37.793
37.748
37.696
37.638
37.575
37.507
37.436
37.361
37.283
37.202
37.119
37.033
36.946
36.857
36.768
36.678
36.587
36.496
36.404
36.311
36.217
36.123
36.028
35.933
35.837
35.741
35.645
35.548
35.45
35.351
35.252
35.153
35.054
34.955
34.858
34.763
34.67
34.581
34.495
34.414
34.337
34.263
34.194
34.128
34.065
34.005
33.948
33.894
33.843
33.794
33.747
33.701
33.656
33.613
33.57
33.528
33.486
33.444
33.402
33.361
33.32
33.281
33.243
33.207
33.174
33.142
33.113
33.086
33.061
33.038
33.017
32.996
32.975
32.953
32.929
32.904
32.877
32.849
32.82
32.79
32.76
32.73
32.7
32.67
32.64
32.611
32.582
32.554
32.527
32.501
32.476
32.451
32.427
32.401
32.375
32.346
32.315
32.282
32.247
32.208
32.167
32.124
32.078
32.031
31.982
31.932
31.881
31.829
31.778
31.728
31.68
31.636
31.597
31.567
31.55
31.549
31.568
31.611
31.681
31.783
31.919
32.092
32.304
32.557
32.851
33.184
33.555
33.959
34.393
34.852
35.329
35.819
36.315
36.809
37.296
37.769
38.224
38.653
39.055
39.424
39.759
40.056
40.316
40.537
40.721
40.868
40.98
41.061
41.113
41.14
41.144
41.128
41.096
41.049
40.99
40.921
40.844
40.761
40.674
40.583
40.491
40.398
40.305
40.213
40.121
40.031
39.941
39.851
39.762
39.673
39.584
39.494
39.404
39.314
39.222
39.13
39.036
38.942
38.847
38.753
38.661
38.572
38.487
38.407
38.333
38.264
38.2
38.142
38.09
38.044
38.004
37.97
37.942
37.918
37.9
37.885
37.874
37.865
37.858
37.852
37.847
37.841
37.833
37.823
37.811
37.795
37.775
37.752
37.725
37.693
37.658
37.618
37.575
37.529
37.48
37.429
37.376
37.321
37.264
37.204
37.143
37.078
37.01
36.939
36.865
36.787
36.707
36.622
36.534
36.442
36.346
36.246
36.143
36.038
35.93
35.821
35.71
35.597
35.484
35.371
35.259
35.148
35.04
34.936
34.834
34.737
34.643
34.553
34.467
34.386
34.309
34.235
34.165
34.097
34.032
33.968
33.907
33.847
33.788
33.73
33.673
33.618
33.565
33.513
33.463
33.415
33.369
33.326
33.285
33.246
33.209
33.173
33.138
33.105
33.073
33.042
33.013
32.985
32.958
32.932
32.906
32.882
32.857
32.834
32.811
32.789
32.768
32.747
32.727
32.706
32.685
32.664
32.642
32.62
32.598
32.574
32.549
32.523
32.496
32.468
32.439
32.409
32.378
32.346
32.313
32.28
32.246
32.212
32.178
32.145
32.113
32.082
32.052
32.022
31.993
31.964
31.935
31.906
31.877
31.847
31.815
31.782
31.746
31.708
31.669
31.627
31.584
31.54
31.493
31.446
31.397
31.347
31.296
31.245
31.193
31.142
31.091
31.042
30.994
30.949
30.906
30.868
30.836
30.813
30.803
30.81
30.838
30.892
30.976
31.095
31.252
31.45
31.69
31.975
32.302
32.67
33.077
33.516
33.983
34.472
34.976
35.489
36.002
36.509
37.003
37.477
37.926
38.345
38.73
39.079
39.389
39.66
39.892
40.086
40.245
40.369
40.462
40.525
40.563
40.577
40.572
40.549
40.513
40.466
40.409
40.344
40.274
40.2
40.124
40.045
39.966
39.886
39.806
39.726
39.648
39.57
39.492
39.416
39.341
39.266
39.192
39.117
39.042
38.965
38.886
38.805
38.721
38.635
38.547
38.458
38.37
38.282
38.197
38.115
38.037
37.964
37.898
37.84
37.791
37.75
37.72
37.698
37.685
37.68
37.682
37.689
37.701
37.715
37.733
37.751
37.77
37.788
37.805
37.818
37.828
37.833
37.833
37.827
37.815
37.797
37.773
37.743
37.708
37.668
37.623
37.574
37.52
37.461
37.399
37.332
37.262
37.187
37.108
37.025
36.938
36.846
36.751
36.653
36.552
36.449
36.343
36.237
36.129
36.022
35.914
35.808
35.702
35.598
35.495
35.394
35.294
35.196
35.1
35.006
34.913
34.822
34.733
34.645
34.559
34.475
34.393
34.314
34.236
34.161
34.087
34.015
33.946
33.879
33.815
33.754
33.696
33.641
33.589
33.54
33.493
33.449
33.406
33.364
33.324
33.285
33.247
33.21
33.173
33.137
33.102
33.067
33.035
33.004
32.975
32.947
32.92
32.894
32.868
32.843
32.817
32.791
32.765
32.739
32.712
32.685
32.658
32.63
32.601
32.572
32.543
32.515
32.487
32.46
32.433
32.406
32.379
32.353
32.326
32.299
32.273
32.246
32.219
32.193
32.166
32.138
32.11
32.08
32.048
32.015
31.978
31.94
31.898
31.855
31.81
31.763
31.714
31.664
31.614
31.563
31.511
31.459
31.407
31.354
31.303
31.253
31.206
31.164
31.129
31.102
31.088
31.09
31.11
31.154
31.226
31.329
31.467
31.642
31.856
32.108
32.398
32.725
33.085
33.475
33.89
34.325
34.774
35.23
35.687
36.14
36.584
37.011
37.419
37.802
38.157
38.481
38.772
39.03
39.254
39.445
39.603
39.73
39.828
39.898
39.944
39.968
39.971
39.957
39.927
39.884
39.829
39.766
39.694
39.617
39.535
39.449
39.361
39.271
39.181
39.092
39.002
38.913
38.824
38.736
38.647
38.558
38.467
38.374
38.279
38.181
38.081
37.98
37.877
37.773
37.669
37.567
37.468
37.372
37.282
37.199
37.124
37.06
37.005
36.962
36.93
36.91
36.9
36.899
36.907
36.921
36.941
36.967
36.995
37.027
37.06
37.093
37.125
37.155
37.182
37.207
37.227
37.244
37.256
37.263
37.265
37.261
37.252
37.236
37.214
37.185
37.149
37.106
37.057
37.001
36.939
36.872
36.799
36.723
36.642
36.558
36.472
36.383
36.292
36.199
36.105
36.011
35.915
35.818
35.72
35.621
35.521
35.42
35.319
35.218
35.116
35.016
34.916
34.817
34.72
34.626
34.534
34.445
34.359
34.275
34.194
34.115
34.039
33.967
33.897
33.831
33.767
33.706
33.648
33.591
33.537
33.484
33.432
33.381
33.331
33.282
33.234
33.187
33.141
33.096
33.053
33.012
32.974
32.938
32.904
32.872
32.843
32.815
32.79
32.766
32.745
32.724
32.706
32.688
32.672
32.657
32.642
32.627
32.613
32.599
32.585
32.571
32.555
32.538
32.519
32.498
32.474
32.448
32.42
32.389
32.357
32.323
32.286
32.248
32.208
32.166
32.123
32.078
32.032
31.984
31.935
31.886
31.836
31.786
31.738
31.693
31.653
31.62
31.597
31.585
31.587
31.608
31.65
31.716
31.81
31.933
32.088
32.277
32.499
32.755
33.044
33.364
33.713
34.086
34.479
34.886
35.303
35.724
36.143
36.556
36.956
37.34
37.704
38.044
38.357
38.641
38.894
39.116
39.306
39.465
39.594
39.694
39.767
39.816
39.841
39.847
39.836
39.809
39.769
39.717
39.656
39.587
39.512
39.432
39.349
39.263
39.175
39.086
38.997
38.907
38.816
38.725
38.634
38.543
38.451
38.36
38.268
38.174
38.078
37.979
37.878
37.774
37.67
37.567
37.465
37.365
37.27
37.181
37.099
37.024
36.96
36.905
36.86
36.824
36.798
36.781
36.773
36.772
36.779
36.792
36.811
36.835
36.862
36.891
36.921
36.95
36.978
37.004
37.027
37.045
37.058
37.065
37.067
37.063
37.052
37.036
37.015
36.987
36.953
36.914
36.868
36.816
36.759
36.697
36.63
36.56
36.486
36.41
36.331
36.25
36.166
36.08
35.991
35.9
35.807
35.713
35.618
35.521
35.424
35.327
35.229
35.131
35.035
34.94
34.847
34.756
34.667
34.581
34.498
34.419
34.342
34.269
34.199
34.132
34.068
34.007
33.949
33.892
33.837
33.784
33.732
33.681
33.63
33.58
33.53
33.481
33.433
33.385
33.339
33.295
33.252
33.211
33.171
33.132
33.093
33.055
33.017
32.979
32.941
32.903
32.865
32.826
32.787
32.747
32.707
32.666
32.625
32.584
32.544
32.504
32.464
32.424
32.385
32.346
32.307
32.268
32.23
32.193
32.156
32.12
32.085
32.051
32.019
31.988
31.959
31.932
31.906
31.882
31.859
31.838
31.818
31.799
31.781
31.763
31.745
31.726
31.705
31.683
31.657
31.628
31.595
31.558
31.518
31.474
31.426
31.374
31.319
31.261
31.201
31.141
31.082
31.026
30.977
30.937
30.911
30.902
30.915
30.954
31.025
31.13
31.273
31.455
31.679
31.944
32.248
32.59
32.967
33.373
33.805
34.255
34.719
35.189
35.66
36.126
36.58
37.018
37.436
37.828
38.192
38.524
38.823
39.088
39.318
39.516
39.681
39.815
39.921
40.001
40.057
40.093
40.11
40.11
40.097
40.071
40.035
39.992
39.942
39.888
39.83
39.77
39.708
39.644
39.58
39.516
39.452
39.389
39.327
39.267
39.209
39.152
39.096
39.04
38.984
38.926
38.866
38.803
38.737
38.668
38.595
38.519
38.44
38.36
38.279
38.2
38.124
38.052
37.985
37.924
37.87
37.824
37.787
37.757
37.734
37.719
37.71
37.707
37.71
37.718
37.729
37.744
37.76
37.776
37.792
37.806
37.818
37.826
37.831
37.831
37.826
37.815
37.799
37.776
37.747
37.71
37.668
37.618
37.562
37.501
37.433
37.36
37.282
37.2
37.114
37.024
36.932
36.838
36.742
36.646
36.549
36.452
36.353
36.254
36.155
36.056
35.957
35.858
35.759
35.66
35.561
35.464
35.368
35.274
35.182
35.092
35.002
34.914
34.827
34.74
34.654
34.569
34.486
34.404
34.325
34.248
34.173
34.101
34.032
33.966
33.903
33.842
33.785
33.729
33.676
33.624
33.574
33.525
33.479
33.434
33.39
33.348
33.306
33.266
33.227
33.189
33.153
33.118
33.084
33.052
33.021
32.991
32.962
32.935
32.909
32.883
32.859
32.834
32.81
32.786
32.761
32.736
32.711
32.686
32.66
32.634
32.607
32.579
32.55
32.521
32.491
32.462
32.432
32.403
32.375
32.346
32.319
32.291
32.263
32.236
32.208
32.181
32.154
32.126
32.097
32.068
32.037
32.004
31.969
31.932
31.893
31.853
31.81
31.765
31.719
31.672
31.625
31.577
31.529
31.482
31.437
31.394
31.353
31.317
31.287
31.264
31.251
31.25
31.264
31.299
31.357
31.443
31.56
31.712
31.901
32.128
32.394
32.698
33.037
33.409
33.809
34.233
34.675
35.129
35.59
36.051
36.507
36.952
37.379
37.786
38.168
38.522
38.845
39.136
39.392
39.615
39.804
39.96
40.086
40.183
40.253
40.299
40.324
40.331
40.323
40.301
40.269
40.227
40.179
40.126
40.068
40.008
39.944
39.88
39.814
39.748
39.683
39.619
39.556
39.495
39.435
39.377
39.319
39.262
39.204
39.145
39.085
39.022
38.956
38.886
38.813
38.738
38.66
38.58
38.499
38.418
38.338
38.261
38.187
38.118
38.054
37.996
37.945
37.902
37.866
37.838
37.816
37.802
37.792
37.787
37.787
37.79
37.796
37.803
37.811
37.819
37.825
37.828
37.828
37.825
37.817
37.804
37.786
37.764
37.736
37.703
37.664
37.619
37.569
37.514
37.455
37.392
37.326
37.257
37.185
37.111
37.033
36.952
36.867
36.78
36.69
36.598
36.503
36.407
36.308
36.209
36.108
36.008
35.908
35.81
35.711
35.614
35.518
35.422
35.327
35.232
35.139
35.048
34.958
34.87
34.784
34.7
34.619
34.539
34.462
34.386
34.312
34.239
34.168
34.099
34.033
33.969
33.909
33.85
33.794
33.739
33.686
33.634
33.584
33.535
33.489
33.444
33.401
33.36
33.322
33.284
33.249
33.215
33.182
33.151
33.122
33.093
33.065
33.038
33.012
32.987
32.962
32.937
32.912
32.887
32.862
32.835
32.808
32.78
32.751
32.72
32.689
32.658
32.626
32.594
32.562
32.529
32.496
32.462
32.427
32.392
32.356
32.32
32.284
32.248
32.213
32.18
32.147
32.115
32.084
32.054
32.023
31.991
31.959
31.926
31.894
31.862
31.829
31.797
31.763
31.729
31.694
31.657
31.618
31.579
31.538
31.495
31.451
31.407
31.361
31.315
31.27
31.225
31.182
31.141
31.105
31.073
31.049
31.034
31.031
31.044
31.077
31.134
31.218
31.334
31.484
31.672
31.899
32.165
32.469
32.81
33.185
33.59
34.019
34.469
34.932
35.404
35.878
36.347
36.806
37.249
37.67
38.067
38.435
38.772
39.076
39.346
39.582
39.784
39.953
40.091
40.2
40.282
40.339
40.374
40.39
40.389
40.374
40.347
40.308
40.261
40.206
40.144
40.077
40.007
39.933
39.857
39.779
39.699
39.619
39.538
39.459
39.38
39.303
39.226
39.152
39.078
39.006
38.934
38.861
38.788
38.714
38.638
38.561
38.483
38.404
38.326
38.249
38.173
38.1
38.031
37.968
37.912
37.864
37.824
37.792
37.768
37.753
37.745
37.744
37.75
37.761
37.775
37.792
37.808
37.825
37.84
37.852
37.862
37.868
37.869
37.866
37.858
37.845
37.827
37.804
37.776
37.742
37.703
37.66
37.612
37.56
37.504
37.444
37.381
37.314
37.245
37.172
37.097
37.019
36.938
36.855
36.77
36.683
36.595
36.505
36.415
36.323
36.23
36.136
36.041
35.945
35.849
35.752
35.656
35.56
35.465
35.372
35.28
35.19
35.102
35.016
34.933
34.852
34.773
34.696
34.622
34.55
34.481
34.413
34.347
34.284
34.223
34.164
34.107
34.052
33.999
33.948
33.898
33.85
33.804
33.76
33.718
33.677
33.637
33.598
33.559
33.522
33.485
33.449
33.414
33.38
33.347
33.314
33.281
33.249
33.217
33.186
33.157
33.129
33.102
33.076
33.051
33.026
33.002
32.977
32.952
32.928
32.902
32.877
32.85
32.823
32.796
32.769
32.741
32.713
32.685
32.658
32.631
32.604
32.576
32.549
32.521
32.492
32.462
32.43
32.398
32.363
32.327
32.289
32.25
32.209
32.166
32.122
32.077
32.031
31.984
31.937
31.89
31.843
31.797
31.752
31.708
31.667
31.628
31.592
31.56
31.534
31.518
31.512
31.521
31.549
31.598
31.673
31.777
31.914
32.084
32.291
32.534
32.814
33.13
33.479
33.858
34.262
34.687
35.125
35.571
36.019
36.463
36.897
37.316
37.715
38.09
38.438
38.756
39.042
39.295
39.513
39.697
39.849
39.968
40.057
40.119
40.154
40.167
40.159
40.134
40.093
40.041
39.979
39.909
39.833
39.754
39.672
39.588
39.505
39.423
39.343
39.266
39.191
39.119
39.05
38.982
38.915
38.849
38.783
38.715
38.644
38.569
38.49
38.406
38.316
38.223
38.126
38.026
37.926
37.827
37.729
37.635
37.546
37.465
37.391
37.327
37.274
37.231
37.199
37.178
37.166
37.164
37.171
37.186
37.208
37.236
37.269
37.305
37.342
37.38
37.417
37.451
37.482
37.51
37.532
37.55
37.561
37.566
37.563
37.552
37.533
37.507
37.473
37.433
37.386
37.331
37.27
37.202
37.127
37.046
36.959
36.866
36.769
36.668
36.563
36.456
36.347
36.237
36.129
36.021
35.916
35.813
35.712
35.614
35.52
35.428
35.338
35.252
35.167
35.085
35.005
34.926
34.849
34.774
34.7
34.627
34.556
34.485
34.416
34.348
34.281
34.217
34.155
34.094
34.035
33.977
33.921
33.867
33.815
33.765
33.717
33.672
33.63
33.589
33.551
33.514
33.479
33.446
33.414
33.383
33.353
33.324
33.296
33.268
33.241
33.214
33.19
33.166
33.144
33.123
33.102
33.082
33.063
33.044
33.026
33.007
32.988
32.969
32.95
32.93
32.91
32.888
32.865
32.84
32.814
32.785
32.755
32.723
32.689
32.655
32.62
32.584
32.547
32.509
32.47
32.429
32.388
32.344
32.299
32.252
32.204
32.154
32.103
32.051
31.999
31.947
31.896
31.848
31.804
31.766
31.736
31.716
31.708
31.715
31.741
31.789
31.863
31.966
32.102
32.274
32.481
32.726
33.006
33.321
33.668
34.042
34.44
34.855
35.283
35.717
36.15
36.578
36.994
37.395
37.776
38.133
38.463
38.764
39.034
39.274
39.483
39.661
39.809
39.929
40.023
40.092
40.138
40.163
40.169
40.159
40.133
40.095
40.045
39.987
39.921
39.849
39.773
39.694
39.614
39.533
39.454
39.375
39.298
39.222
39.147
39.073
38.999
38.924
38.848
38.77
38.689
38.604
38.517
38.427
38.334
38.24
38.146
38.052
37.961
37.873
37.79
37.713
37.643
37.58
37.525
37.478
37.44
37.411
37.391
37.379
37.376
37.379
37.389
37.405
37.425
37.449
37.475
37.503
37.531
37.558
37.582
37.603
37.619
37.629
37.632
37.628
37.617
37.597
37.571
37.537
37.496
37.45
37.397
37.338
37.275
37.208
37.138
37.065
36.989
36.911
36.83
36.746
36.66
36.572
36.482
36.391
36.298
36.205
36.111
36.016
35.92
35.823
35.726
35.629
35.532
35.434
35.338
35.242
35.147
35.054
34.963
34.873
34.785
34.699
34.614
34.531
34.449
34.369
34.291
34.215
34.143
34.073
34.006
33.941
33.88
33.822
33.767
33.716
33.666
33.62
33.575
33.532
33.491
33.451
33.413
33.376
33.34
33.305
33.27
33.235
33.2
33.166
33.132
33.099
33.066
33.034
33.003
32.973
32.943
32.914
32.885
32.857
32.829
32.803
32.777
32.752
32.728
32.704
32.681
32.658
32.636
32.615
32.594
32.573
32.552
32.53
32.508
32.486
32.463
32.44
32.416
32.391
32.365
32.337
32.308
32.277
32.245
32.211
32.176
32.14
32.101
32.061
32.019
31.976
31.932
31.886
31.84
31.794
31.749
31.705
31.664
31.625
31.591
31.563
31.545
31.539
31.549
31.579
31.632
31.714
31.827
31.974
32.159
32.382
32.644
32.945
33.282
33.654
34.055
34.481
34.926
35.385
35.851
36.317
36.778
37.227
37.659
38.07
38.456
38.814
39.141
39.436
39.697
39.923
40.117
40.277
40.406
40.506
40.579
40.626
40.652
40.658
40.647
40.622
40.584
40.537
40.482
40.421
40.355
40.285
40.213
40.139
40.065
39.991
39.917
39.845
39.774
39.704
39.637
39.571
39.507
39.443
39.38
39.316
39.25
39.182
39.111
39.036
38.958
38.876
38.792
38.707
38.621
38.536
38.453
38.373
38.298
38.228
38.166
38.111
38.064
38.026
37.997
37.975
37.962
37.955
37.954
37.958
37.967
37.98
37.994
38.009
38.024
38.036
38.045
38.05
38.05
38.046
38.035
38.018
37.995
37.965
37.929
37.888
37.841
37.79
37.734
37.676
37.615
37.552
37.487
37.42
37.351
37.279
37.203
37.124
37.041
36.954
36.865
36.772
36.678
36.581
36.482
36.383
36.282
36.182
36.081
35.981
35.88
35.78
35.681
35.583
35.486
35.391
35.298
35.207
35.119
35.033
34.949
34.868
34.788
34.711
34.636
34.563
34.492
34.422
34.353
34.286
34.222
34.159
34.098
34.041
33.985
33.932
33.881
33.831
33.783
33.736
33.69
33.645
33.601
33.558
33.516
33.475
33.435
33.396
33.358
33.321
33.285
33.25
33.217
33.183
33.151
33.119
33.087
33.056
33.027
32.998
32.969
32.94
32.911
32.881
32.853
32.824
32.796
32.767
32.739
32.71
32.681
32.653
32.625
32.596
32.568
32.539
32.511
32.482
32.454
32.425
32.395
32.365
32.333
32.3
32.266
32.23
32.192
32.153
32.112
32.07
32.026
31.981
31.935
31.888
31.84
31.791
31.741
31.69
31.639
31.589
31.542
31.499
31.463
31.436
31.42
31.42
31.438
31.479
31.546
31.644
31.777
31.945
32.152
32.398
32.682
33.003
33.359
33.745
34.158
34.592
35.043
35.503
35.967
36.429
36.882
37.321
37.74
38.134
38.5
38.834
39.134
39.399
39.629
39.823
39.984
40.111
40.209
40.28
40.325
40.349
40.351
40.336
40.306
40.263
40.21
40.149
40.082
40.009
39.934
39.857
39.78
39.704
39.629
39.556
39.484
39.414
39.345
39.278
39.213
39.149
39.086
39.022
38.956
38.889
38.819
38.745
38.667
38.585
38.499
38.411
38.321
38.231
38.142
38.057
37.976
37.901
37.833
37.772
37.72
37.676
37.64
37.613
37.594
37.581
37.575
37.576
37.581
37.589
37.601
37.615
37.629
37.643
37.656
37.666
37.673
37.676
37.673
37.665
37.651
37.631
37.605
37.573
37.536
37.493
37.445
37.392
37.335
37.276
37.214
37.15
37.084
37.015
36.943
36.868
36.79
36.709
36.624
36.537
36.447
36.354
36.259
36.163
36.066
35.968
35.869
35.771
35.673
35.575
35.479
35.385
35.292
35.202
35.113
35.027
34.942
34.859
34.777
34.698
34.622
34.547
34.475
34.405
34.337
34.271
34.208
34.147
34.087
34.029
33.972
33.916
33.862
33.81
33.76
33.712
33.666
33.622
33.581
33.54
33.501
33.462
33.423
33.385
33.347
33.309
33.272
33.235
33.198
33.161
33.123
33.085
33.047
33.009
32.972
32.936
32.902
32.87
32.839
32.81
32.782
32.756
32.73
32.705
32.68
32.656
32.631
32.605
32.579
32.553
32.527
32.501
32.475
32.45
32.425
32.4
32.375
32.351
32.327
32.303
32.28
32.256
32.23
32.204
32.175
32.144
32.111
32.076
32.038
31.998
31.955
31.909
31.86
31.807
