Trial 1:0back
34.009
33.992
33.976
33.963
33.951
33.942
33.934
33.928
33.923
33.917
33.909
33.899
33.887
33.874
33.859
33.844
33.828
33.813
33.797
33.782
33.768
33.754
33.74
33.728
33.717
33.709
33.704
33.703
33.709
33.722
33.745
33.782
33.834
33.905
33.996
34.111
34.249
34.409
34.592
34.795
35.015
35.249
35.493
35.744
35.996
36.246
36.489
36.72
36.935
37.133
37.311
37.467
37.603
37.717
37.812
37.889
37.947
37.989
38.016
38.029
38.031
38.023
38.008
37.987
37.963
37.931
37.889
37.838
37.779
37.716
37.652
37.591
37.536
37.49
37.454
37.43
37.416
37.413
37.417
37.428
37.443
37.46
37.478
37.496
37.511
37.524
37.532
37.534
37.53
37.519
37.501
37.476
37.445
37.408
37.367
37.322
37.273
37.221
37.168
37.115
37.064
37.015
36.969
36.928
36.892
36.862
36.835
36.813
36.794
36.779
36.766
36.756
36.749
36.744
36.742
36.741
36.742
36.743
36.743
36.744
36.745
36.746
36.749
36.755
36.762
36.77
36.779
36.787
36.793
36.797
36.799
36.798
36.795
36.79
36.782
36.771
36.756
36.738
36.716
36.691
36.664
36.635
36.605
36.576
36.547
36.519
36.493
36.469
36.446
36.424
36.403
36.383
36.363
36.343
36.323
36.301
36.277
36.25
36.221
36.19
36.16
36.131
36.105
36.083
36.066
36.052
36.042
36.034
36.027
36.021
36.016
36.009
36.001
35.991
35.977
35.958
35.933
35.902
35.867
35.827
35.784
35.739
35.693
35.648
35.603
35.559
35.514
35.469
35.423
35.374
35.324
35.272
35.219
35.163
35.105
35.045
34.982
34.917
34.85
34.782
34.713
34.646
34.581
34.519
34.46
34.405
34.354
34.306
34.264
34.227
34.196
34.172
34.154
34.14
34.129
34.122
34.118
34.115
34.115
34.117
34.122
34.129
34.138
34.149
34.161
34.173
34.184
34.195
34.205
34.213
34.219
34.222
34.222
34.218
34.21
34.198
34.184
34.169
34.154
34.139
34.125
34.113
34.103
34.094
34.087
34.081
34.077
34.074
34.073
34.071
34.069
34.067
34.064
34.059
34.052
34.043
34.032
34.018
34.004
33.993
33.986
33.99
34.006
34.038
34.091
34.166
34.265
34.389
34.538
34.711
34.904
35.115
35.342
35.58
35.826
36.077
36.329
36.578
36.82
37.053
37.273
37.477
37.662
37.828
37.973
38.099
38.205
38.292
38.362
38.416
38.453
38.475
38.482
38.477
38.461
38.436
38.405
38.369
38.331
38.292
38.253
38.214
38.175
38.138
38.102
38.069
38.04
38.014
37.991
37.971
37.952
37.935
37.918
37.901
37.884
37.867
37.85
37.833
37.816
37.799
37.781
37.761
37.738
37.711
37.682
37.649
37.613
37.575
37.533
37.489
37.441
37.391
37.339
37.285
37.231
37.178
37.127
37.08
37.038
37.0
36.968
36.942
36.922
36.907
36.898
36.892
36.89
36.89
36.891
36.893
36.893
36.891
36.887
36.88
36.87
36.858
36.842
36.824
36.804
36.782
36.758
36.733
36.708
36.684
36.661
36.641
36.624
36.61
36.597
36.585
36.571
36.554
36.534
36.509
36.481
36.448
36.412
36.374
36.334
36.292
36.249
36.203
36.157
36.109
36.061
36.014
35.967
35.919
35.871
35.823
35.773
35.724
35.673
35.624
35.575
35.527
35.481
35.438
35.396
35.357
35.319
35.282
35.248
35.216
35.186
35.159
35.135
35.114
35.094
35.075
35.056
35.038
35.021
35.005
34.991
34.978
34.966
34.955
34.945
34.934
34.923
34.91
34.895
34.877
34.857
34.835
34.809
34.781
34.75
34.717
34.682
34.645
34.608
34.571
34.534
34.498
34.461
34.424
34.384
34.343
34.3
34.255
34.21
34.166
34.122
34.08
34.04
34.002
33.966
33.931
33.898
33.866
33.834
33.803
33.773
33.743
33.715
33.687
33.662
33.638
33.616
33.597
33.581
33.567
33.555
33.544
33.535
33.525
33.514
33.503
33.491
33.477
33.463
33.448
33.433
33.419
33.405
33.393
33.384
33.377
33.373
33.372
33.374
33.377
33.38
33.381
33.38
33.378
33.374
33.37
33.366
33.365
33.368
33.378
33.399
33.432
33.482
33.551
33.641
33.755
33.894
34.057
34.245
34.453
34.681
34.925
35.181
35.445
35.714
35.983
36.248
36.507
36.756
36.992
37.213
37.417
37.601
37.766
37.911
38.036
38.142
38.229
38.298
38.35
38.386
38.406
38.414
38.41
38.395
38.371
38.34
38.304
38.263
38.219
38.174
38.129
38.086
38.045
38.008
37.976
37.949
37.927
37.91
37.898
37.89
37.885
37.883
37.883
37.884
37.885
37.881
37.868
37.846
37.813
37.773
37.727
37.678
37.629
37.58
37.532
37.487
37.445
37.404
37.364
37.325
37.286
37.246
37.207
37.168
37.129
37.091
37.054
37.018
36.983
36.949
36.917
36.886
36.858
36.835
36.816
36.803
36.794
36.789
36.786
36.785
36.784
36.782
36.779
36.776
36.771
36.765
36.757
36.745
36.731
36.714
36.694
36.671
36.646
36.619
36.591
36.563
36.534
36.504
36.474
36.442
36.409
36.374
36.336
36.296
36.253
36.207
36.159
36.108
36.054
36.0
35.945
35.89
35.838
35.788
35.74
35.696
35.654
35.613
35.574
35.535
35.497
35.459
35.421
35.384
35.347
35.311
35.274
35.238
35.202
35.166
35.13
35.095
35.061
35.027
34.994
34.961
34.927
34.891
34.854
34.816
34.776
34.736
34.696
34.656
34.616
34.578
34.541
34.505
34.471
34.438
34.408
34.378
34.35
34.324
34.299
34.276
34.255
34.234
34.215
34.197
34.18
34.164
34.149
34.135
34.121
34.108
34.096
34.083
34.069
34.056
34.042
34.027
34.012
33.995
33.978
33.959
33.94
33.919
33.899
33.879
33.86
33.841
33.822
33.802
33.78
33.756
33.73
33.701
33.671
33.64
33.61
33.58
33.551
33.525
33.501
33.479
33.46
33.443
33.427
33.412
33.398
33.382
33.365
33.345
33.323
33.299
33.274
33.248
33.223
33.2
33.178
33.159
33.142
33.126
33.112
33.099
33.087
33.077
33.069
33.065
33.066
33.072
33.086
33.108
33.142
33.189
33.253
33.335
33.437
33.56
33.705
33.872
34.058
34.263
34.484
34.719
34.965
35.217
35.472
35.727
35.977
36.22
36.451
36.667
36.867
37.05
37.214
37.359
37.487
37.595
37.686
37.758
37.813
37.853
37.88
37.893
37.897
37.891
37.877
37.855
37.827
37.793
37.754
37.712
37.669
37.627
37.588
37.553
37.523
37.499
37.48
37.468
37.459
37.455
37.453
37.454
37.456
37.459
37.462
37.464
37.462
37.457
37.446
37.43
37.407
37.379
37.345
37.307
37.264
37.218
37.17
37.12
37.068
37.016
36.965
36.916
36.869
36.825
36.784
36.747
36.715
36.687
36.663
36.645
36.631
36.622
36.618
36.617
36.621
36.626
36.633
36.641
36.649
36.658
36.668
36.678
36.688
36.698
36.708
36.717
36.726
36.732
36.736
36.737
36.737
36.736
36.733
36.728
36.721
36.712
36.7
36.684
36.665
36.643
36.617
36.59
36.561
36.532
36.502
36.471
36.439
36.405
36.368
36.329
36.288
36.245
36.202
36.159
36.116
36.074
36.032
35.991
35.95
35.911
35.873
35.836
35.799
35.762
35.725
35.686
35.647
35.606
35.565
35.524
35.484
35.445
35.408
35.373
35.34
35.308
35.276
35.245
35.215
35.185
35.155
35.126
35.098
35.071
35.044
35.017
34.991
34.965
34.941
34.918
34.897
34.878
34.862
34.847
34.835
34.824
34.815
34.806
34.798
34.79
34.781
34.771
34.759
34.745
34.728
34.709
34.688
34.667
34.646
34.626
34.608
34.592
34.578
34.564
34.551
34.539
34.525
34.512
34.498
34.484
34.47
34.456
34.442
34.427
34.412
34.397
34.382
34.367
34.352
34.336
34.32
34.302
34.281
34.259
34.234
34.207
34.178
34.148
34.118
34.086
34.054
34.021
33.989
33.966
33.955
33.955
33.966
33.985
34.009
34.039
34.072
34.109
34.15
34.197
34.253
34.322
34.405
34.507
34.628
34.771
34.935
35.118
35.319
35.533
35.758
35.989
36.222
36.453
36.678
36.893
37.096
37.281
37.447
37.593
37.719
37.824
37.911
37.979
38.031
38.069
38.093
38.107
38.111
38.109
38.1
38.087
38.069
38.049
38.025
37.999
37.971
37.939
37.906
37.872
37.837
37.804
37.773
37.745
37.719
37.697
37.677
37.66
37.645
37.632
37.62
37.611
37.602
37.594
37.586
37.575
37.562
37.544
37.522
37.493
37.459
37.418
37.373
37.323
37.27
37.215
37.157
37.098
37.038
36.979
36.923
36.871
36.825
36.783
36.748
36.72
36.698
36.681
36.668
36.659
36.653
36.649
36.645
36.641
36.637
36.631
36.623
36.613
36.6
36.585
36.568
36.551
36.535
36.519
36.505
36.491
36.479
36.468
36.458
36.449
36.439
36.43
36.42
36.407
36.39
36.368
36.341
36.308
36.269
36.226
36.18
36.132
36.083
36.035
35.989
35.943
35.899
35.856
35.814
35.772
35.731
35.692
35.653
35.613
35.573
35.533
35.493
35.452
35.411
35.37
35.329
35.287
35.246
35.204
35.164
35.124
35.085
35.047
35.012
34.979
34.948
34.92
34.893
34.866
34.838
34.809
34.777
34.743
34.707
34.67
34.633
34.597
34.563
34.531
34.501
34.474
34.448
34.423
34.4
34.379
34.358
34.338
34.318
34.296
34.273
34.249
34.224
34.201
34.179
34.159
34.142
34.128
34.116
34.107
34.1
34.093
34.085
34.076
34.066
34.054
34.041
34.025
34.007
33.986
33.964
33.94
33.916
33.892
33.87
33.85
33.831
33.815
33.802
33.792
33.784
33.778
33.774
33.772
33.769
33.766
33.761
33.753
33.741
33.725
33.707
33.686
33.665
33.644
33.623
33.603
33.583
33.564
33.545
33.526
33.508
33.49
33.472
33.454
33.435
33.415
33.394
33.372
33.349
33.325
33.302
33.28
33.259
33.24
33.222
33.208
33.196
33.19
33.19
33.199
33.222
33.261
33.32
33.402
33.508
33.64
33.798
33.98
34.184
34.408
34.648
34.9
35.16
35.421
35.68
35.933
36.175
36.402
36.614
36.809
36.985
37.142
37.28
37.399
37.498
37.58
37.644
37.692
37.727
37.75
37.761
37.764
37.759
37.747
37.729
37.705
37.678
37.648
37.616
37.584
37.553
37.523
37.494
37.467
37.442
37.421
37.402
37.388
37.376
37.368
37.362
37.358
37.354
37.351
37.346
37.339
37.33
37.316
37.299
37.279
37.256
37.231
37.204
37.175
37.144
37.11
37.074
37.035
36.993
36.949
36.903
36.856
36.808
36.76
36.711
36.663
36.616
36.572
36.53
36.491
36.456
36.425
36.397
36.373
36.353
36.336
36.322
36.313
36.308
36.308
36.312
36.319
36.326
36.332
36.335
36.336
36.332
36.324
36.312
36.297
36.279
36.259
36.236
36.211
36.184
36.154
36.123
36.09
36.057
36.024
35.991
35.958
35.924
35.891
35.856
35.82
35.782
35.743
35.702
35.661
35.618
35.575
35.531
35.486
35.44
35.394
35.349
35.305
35.264
35.224
35.188
35.155
35.125
35.097
35.07
35.045
35.019
34.993
34.965
34.937
34.907
34.875
34.841
34.805
34.768
34.729
34.69
34.652
34.615
34.58
34.546
34.515
34.485
34.458
34.432
34.407
34.383
34.359
34.335
34.31
34.285
34.259
34.232
34.205
34.179
34.155
34.135
34.119
34.107
34.098
34.092
34.087
34.081
34.075
34.066
34.055
34.04
34.023
34.004
33.984
33.963
33.942
33.92
33.898
33.877
33.856
33.835
33.815
33.795
33.774
33.752
33.729
33.704
33.68
33.656
33.633
33.611
33.591
33.575
33.56
33.548
33.538
33.53
33.523
33.517
33.511
33.505
33.497
33.487
33.474
33.457
33.437
33.416
33.392
33.367
33.342
33.318
33.295
33.272
33.251
33.23
33.207
33.181
33.153
33.125
33.096
33.068
33.042
33.018
32.997
32.979
32.965
32.955
32.949
32.946
32.945
32.945
32.946
32.945
32.943
32.94
32.936
32.93
32.924
32.917
32.911
32.905
32.898
32.891
32.884
32.875
32.866
32.857
32.847
32.836
32.826
32.816
32.808
32.802
32.801
32.806
32.819
32.842
32.879
32.93
32.998
33.084
33.19
33.317
33.466
33.635
33.825
34.033
34.257
34.491
34.734
34.98
35.225
35.466
35.7
35.923
36.132
36.325
36.501
36.657
36.793
36.907
37.001
37.074
37.128
37.165
37.187
37.196
37.195
37.184
37.167
37.144
37.118
37.089
37.059
37.028
36.999
36.97
36.942
36.916
36.89
36.866
36.844
36.823
36.805
36.789
36.775
36.765
36.756
36.751
36.748
36.748
36.749
36.753
36.757
36.762
36.767
36.77
36.769
36.762
36.751
36.733
36.709
36.681
36.648
36.611
36.572
36.53
36.487
36.443
36.399
36.356
36.315
36.278
36.245
36.215
36.19
36.169
36.152
36.137
36.126
36.116
36.107
36.099
36.093
36.089
36.085
36.083
36.082
36.08
36.079
36.078
36.077
36.075
36.072
36.068
36.062
36.053
36.042
36.028
36.012
35.993
35.972
35.95
35.928
35.904
35.879
35.853
35.826
35.796
35.765
35.733
35.7
35.668
35.635
35.603
35.572
35.541
35.509
35.476
35.442
35.407
35.373
35.339
35.305
35.273
35.241
35.21
35.179
35.147
35.115
35.082
35.048
35.013
34.977
34.941
34.904
34.869
34.834
34.802
34.772
34.745
34.721
34.7
34.68
34.659
34.636
34.61
34.58
34.548
34.515
34.481
34.447
34.416
34.387
34.362
34.341
34.324
34.309
34.298
34.289
34.282
34.275
34.268
34.26
34.248
34.232
34.213
34.191
34.168
34.145
34.124
34.104
34.087
34.072
34.061
34.053
34.047
34.044
34.042
34.041
34.04
34.037
34.034
34.028
34.019
34.007
33.993
33.977
33.962
33.946
33.931
33.917
33.904
33.892
33.879
33.867
33.854
33.841
33.828
33.814
33.8
33.787
33.774
33.761
33.748
33.736
33.726
33.718
33.712
33.708
33.705
33.701
33.697
33.691
33.684
33.674
33.661
33.645
33.627
33.608
33.587
33.566
33.545
33.524
33.503
33.483
33.465
33.448
33.432
33.417
33.402
33.386
33.369
33.35
33.33
33.308
33.287
33.265
33.246
33.228
33.214
33.204
33.198
33.198
33.205
33.22
33.244
33.279
33.326
33.386
33.46
33.549
33.654
33.776
33.915
34.072
34.244
34.43
34.627
34.831
35.039
35.248
35.455
35.657
35.852
36.037
36.211
36.371
36.515
36.643
36.753
36.844
36.917
36.973
37.013
37.039
37.052
37.053
37.044
37.027
37.002
36.971
36.937
36.901
36.864
36.829
36.795
36.765
36.738
36.712
36.69
36.669
36.649
36.63
36.611
36.592
36.573
36.554
36.534
36.513
36.491
36.47
36.448
36.427
36.406
36.386
36.367
36.346
36.325
36.302
36.277
36.25
36.221
36.191
36.16
36.128
36.096
36.062
36.028
35.992
35.956
35.921
35.886
35.853
35.824
35.8
35.78
35.765
35.755
35.75
35.749
35.75
35.751
35.752
35.752
35.752
35.751
35.75
35.75
35.751
35.753
35.755
35.758
35.761
35.763
35.764
35.763
35.759
35.752
35.741
35.727
35.711
35.691
35.67
35.646
35.62
35.592
35.562
35.53
35.498
35.465
35.433
35.403
35.374
35.346
35.318
35.29
35.26
35.228
35.194
35.159
35.121
35.083
35.044
35.005
34.966
34.928
34.891
34.857
34.824
34.795
34.768
34.743
34.72
34.697
34.673
34.649
34.624
34.598
34.572
34.547
34.523
34.501
34.48
34.461
34.442
34.424
34.405
34.384
34.363
34.34
34.317
34.292
34.267
34.242
34.217
34.192
34.168
34.146
34.126
34.109
34.096
34.086
34.079
34.074
34.07
34.067
34.065
34.062
34.057
34.05
34.04
34.029
34.016
34.001
33.984
33.967
33.95
33.934
33.92
33.908
33.898
33.889
33.881
33.874
33.865
33.855
33.843
33.829
33.811
33.791
33.768
33.744
33.72
33.695
33.672
33.65
33.631
33.616
33.603
33.592
33.582
33.572
33.56
33.546
33.529
33.512
33.492
33.472
33.453
33.434
33.417
33.402
33.389
33.378
33.37
33.362
33.356
33.35
33.343
33.335
33.325
33.311
33.295
33.278
33.26
33.243
33.227
33.214
33.203
33.195
33.188
33.182
33.176
33.17
33.163
33.154
33.144
33.133
33.122
33.111
33.103
33.1
33.102
33.113
33.136
33.172
33.224
33.293
33.379
33.484
33.608
33.752
33.914
34.095
34.292
34.505
34.73
34.966
35.208
35.453
35.7
35.944
36.181
36.408
36.622
36.818
36.995
37.149
37.281
37.39
37.476
37.541
37.585
37.611
37.622
37.621
37.609
37.59
37.565
37.536
37.505
37.474
37.446
37.421
37.4
37.383
37.371
37.362
37.357
37.354
37.352
37.351
37.351
37.35
37.35
37.349
37.347
37.343
37.338
37.331
37.323
37.314
37.305
37.296
37.286
37.274
37.261
37.245
37.226
37.202
37.174
37.141
37.105
37.066
37.024
36.98
36.935
36.889
36.842
36.796
36.751
36.707
36.667
36.63
36.598
36.57
36.546
36.526
36.509
36.494
36.483
36.474
36.467
36.463
36.462
36.462
36.463
36.464
36.465
36.465
36.464
36.461
36.457
36.452
36.445
36.436
36.425
36.411
36.394
36.374
36.351
36.325
36.296
36.266
36.232
36.197
36.159
36.119
36.081
36.045
36.01
35.978
35.947
35.916
35.886
35.854
35.821
35.786
35.749
35.709
35.668
35.626
35.582
35.539
35.495
35.451
35.407
35.363
35.319
35.276
35.235
35.197
35.163
35.132
35.105
35.08
35.058
35.037
35.017
34.997
34.977
34.957
34.935
34.911
34.886
34.857
34.826
34.792
34.758
34.723
34.688
34.656
34.626
34.598
34.574
34.552
34.531
34.512
34.493
34.475
34.457
34.441
34.425
34.41
34.395
34.38
34.365
34.35
34.336
34.322
34.309
34.296
34.283
34.27
34.257
34.244
34.231
34.218
34.204
34.191
34.177
34.162
34.147
34.129
34.11
34.089
34.067
34.045
34.024
34.004
33.987
33.973
33.96
33.95
33.941
33.935
33.931
33.927
33.922
33.916
33.907
33.895
33.879
33.859
33.837
33.812
33.786
33.762
33.739
33.717
33.698
33.679
33.662
33.644
33.627
33.609
33.592
33.574
33.557
33.54
33.523
33.506
33.49
33.474
33.458
33.443
33.431
33.42
33.412
33.405
33.399
33.394
33.387
33.38
33.371
33.361
33.35
33.338
33.325
33.312
33.298
33.284
33.27
33.257
33.244
33.231
33.219
33.207
33.196
33.186
33.177
33.171
33.168
33.173
33.188
33.216
33.26
33.322
33.405
33.511
33.64
33.792
33.965
34.159
34.37
34.595
34.83
35.072
35.315
35.556
35.79
36.015
36.226
36.423
36.604
36.767
36.912
37.039
37.147
37.236
37.308
37.361
37.4
37.424
37.437
37.44
37.436
37.425
37.409
37.387
37.361
37.332
37.3
37.266
37.232
37.198
37.166
37.136
37.109
37.084
37.063
37.046
37.033
37.024
37.019
37.018
37.02
37.023
37.027
37.031
37.033
37.033
37.03
37.024
37.013
36.999
36.981
36.957
36.929
36.897
36.861
36.822
36.782
36.741
36.7
36.66
36.622
36.585
36.548
36.513
36.48
36.45
36.421
36.396
36.374
36.355
36.338
36.323
36.31
36.297
36.286
36.276
36.267
36.259
36.253
36.248
36.244
36.24
36.235
36.23
36.224
36.217
36.209
36.201
36.192
36.182
36.171
36.157
36.141
36.122
36.101
36.08
36.057
36.034
36.01
35.984
35.956
35.926
35.894
35.859
35.822
35.784
35.746
35.708
35.669
35.632
35.594
35.556
35.518
35.481
35.445
35.41
35.377
35.346
35.317
35.289
35.262
35.237
35.214
35.191
35.169
35.147
35.124
35.099
35.072
35.043
35.011
34.977
34.941
34.904
34.868
34.831
34.796
34.763
34.73
34.699
34.669
34.639
34.611
34.585
34.562
34.542
34.526
34.513
34.503
34.494
34.486
34.478
34.47
34.461
34.451
34.439
34.426
34.412
34.395
34.378
34.36
34.342
34.323
34.305
34.287
34.27
34.254
34.237
34.221
34.205
34.189
34.174
34.16
34.146
34.134
34.122
34.111
34.099
34.088
34.075
34.062
34.048
34.034
34.02
34.006
33.991
33.976
33.96
33.944
33.928
33.912
33.896
33.882
33.868
33.855
33.843
33.83
33.816
33.8
33.785
33.769
33.753
33.738
33.724
33.71
33.695
33.68
33.664
33.648
33.632
33.617
33.602
33.588
33.576
33.564
33.554
33.544
33.536
33.527
33.519
33.511
33.504
33.496
33.486
33.474
33.459
33.441
33.421
33.4
33.38
33.363
33.351
33.346
33.349
33.362
33.387
33.424
33.475
33.542
33.624
33.722
33.836
33.965
34.111
34.27
34.443
34.627
34.822
35.024
35.231
35.439
35.644
35.842
36.027
36.199
36.353
36.488
36.602
36.696
36.771
36.826
36.864
36.885
36.89
36.883
36.866
36.841
36.811
36.779
36.745
36.713
36.682
36.653
36.628
36.604
36.584
36.564
36.546
36.527
36.509
36.49
36.471
36.45
36.429
36.407
36.384
36.362
36.342
36.322
36.304
36.285
36.266
36.244
36.22
36.192
36.162
36.129
36.096
36.061
36.026
35.989
35.951
35.912
35.873
35.834
35.795
35.759
35.724
35.693
35.666
35.642
35.622
35.606
35.593
35.583
35.576
35.572
35.571
35.572
35.575
35.579
35.586
35.593
35.601
35.61
35.62
35.631
35.641
35.65
35.657
35.66
35.66
35.656
35.648
35.637
35.625
35.61
35.594
35.576
35.556
