Trial 1:0back
35.527
35.54
35.551
35.56
35.567
35.571
35.573
35.572
35.568
35.56
35.549
35.536
35.519
35.5
35.479
35.457
35.434
35.409
35.385
35.361
35.338
35.314
35.291
35.269
35.246
35.225
35.204
35.185
35.166
35.15
35.134
35.119
35.106
35.093
35.081
35.068
35.055
35.042
35.028
35.014
34.999
34.985
34.969
34.954
34.938
34.921
34.904
34.886
34.868
34.85
34.831
34.811
34.791
34.771
34.751
34.731
34.711
34.692
34.673
34.655
34.638
34.622
34.609
34.598
34.591
34.587
34.589
34.596
34.61
34.632
34.662
34.702
34.752
34.812
34.882
34.962
35.051
35.149
35.254
35.366
35.481
35.598
35.716
35.831
35.941
36.046
36.143
36.232
36.311
36.381
36.441
36.491
36.53
36.559
36.579
36.589
36.591
36.583
36.569
36.548
36.521
36.49
36.455
36.416
36.375
36.333
36.292
36.251
36.211
36.173
36.137
36.103
36.072
36.042
36.015
35.988
35.963
35.938
35.913
35.886
35.859
35.829
35.797
35.763
35.726
35.688
35.649
35.609
35.568
35.528
35.489
35.452
35.417
35.384
35.355
35.331
35.31
35.295
35.283
35.276
35.271
35.27
35.271
35.273
35.278
35.283
35.288
35.294
35.299
35.303
35.306
35.307
35.307
35.306
35.304
35.301
35.298
35.294
35.29
35.285
35.279
35.272
35.263
35.253
35.241
35.227
35.211
35.192
35.172
35.151
35.128
35.104
35.08
35.056
35.032
35.009
34.986
34.964
34.944
34.924
34.906
34.889
34.872
34.855
34.84
34.824
34.809
34.794
34.779
34.763
34.747
34.73
34.714
34.696
34.679
34.66
34.641
34.622
34.601
34.58
34.558
34.536
34.514
34.492
34.471
34.45
34.43
34.41
34.391
34.374
34.356
34.34
34.324
34.309
34.295
34.282
34.27
34.261
34.255
34.255
34.261
34.276
34.299
34.334
34.379
34.436
34.505
34.584
34.674
34.774
34.881
34.995
35.114
35.236
35.357
35.477
35.592
35.702
35.804
35.898
35.982
36.055
36.118
36.169
36.21
36.24
36.26
36.27
36.271
36.265
36.252
36.232
36.207
36.177
36.144
36.108
36.071
36.032
35.993
35.953
35.914
35.875
35.837
35.799
35.763
35.726
35.69
35.655
35.62
35.585
35.551
35.517
35.483
35.45
35.418
35.387
35.356
35.326
35.297
35.267
35.239
35.211
35.183
35.157
35.131
35.107
35.084
35.063
35.043
35.025
35.009
34.995
34.984
34.975
34.968
34.964
34.963
34.964
34.967
34.971
34.977
34.984
34.99
34.998
35.005
35.011
35.016
35.02
35.021
35.021
35.019
35.015
35.01
35.002
34.993
34.982
34.969
34.956
34.94
34.924
34.907
34.89
34.872
34.853
34.834
34.814
34.793
34.771
34.749
34.727
34.704
34.681
34.659
34.636
34.614
34.591
34.569
34.548
34.527
34.507
34.488
34.468
34.448
34.428
34.408
34.388
34.367
34.347
34.327
34.308
34.289
34.27
34.253
34.237
34.222
34.208
34.195
34.183
34.171
34.158
34.145
34.13
34.115
34.1
34.084
34.067
34.051
34.035
34.021
34.01
34.003
34.0
34.003
34.015
34.035
34.067
34.11
34.165
34.233
34.314
34.406
34.51
34.624
34.745
34.872
35.001
35.132
35.262
35.389
35.511
35.627
35.735
35.832
35.918
35.992
36.053
36.103
36.14
36.165
36.181
36.187
36.185
36.176
36.162
36.143
36.121
36.096
36.069
36.041
36.013
35.984
35.956
35.928
35.9
35.873
35.846
35.819
35.792
35.765
35.739
35.712
35.685
35.659
35.632
35.605
35.578
35.551
35.524
35.497
35.469
35.441
35.412
35.383
35.353
35.323
35.294
35.265
35.238
35.212
35.187
35.165
35.145
35.127
35.111
35.098
35.089
35.082
35.079
35.079
35.081
35.086
35.093
35.102
35.112
35.123
35.133
35.143
35.152
35.16
35.166
35.17
35.172
35.172
35.169
35.164
35.156
35.146
35.134
35.121
35.107
35.091
35.073
35.056
35.037
35.018
34.999
34.98
34.961
34.942
34.922
34.903
34.884
34.866
34.848
34.831
34.815
34.8
34.785
34.771
34.757
34.744
34.731
34.72
34.709
34.697
34.686
34.673
34.659
34.645
34.629
34.613
34.595
34.576
34.557
34.536
34.516
34.495
34.474
34.453
34.433
34.415
34.398
34.381
34.366
34.352
34.338
34.324
34.309
34.295
34.281
34.268
34.256
34.246
34.24
34.239
34.246
34.26
34.285
34.32
34.368
34.428
34.502
34.59
34.689
34.8
34.921
35.05
35.185
35.323
35.462
35.6
35.734
35.861
35.98
36.09
36.187
36.273
36.345
36.403
36.449
36.483
36.505
36.517
36.52
36.515
36.503
36.486
36.465
36.441
36.414
36.386
36.358
36.329
36.301
36.273
36.245
36.219
36.193
36.169
36.145
36.121
36.098
36.076
36.055
36.033
36.012
35.99
35.967
35.942
35.914
35.884
35.851
35.815
35.778
35.739
35.699
35.658
35.618
35.579
35.541
35.504
35.471
35.44
35.413
35.389
35.369
35.352
35.339
35.329
35.323
35.318
35.316
35.315
35.316
35.318
35.321
35.325
35.329
35.334
35.34
35.345
35.35
35.353
35.355
35.356
35.356
35.354
35.35
35.344
35.337
35.328
35.316
35.303
35.288
35.271
35.252
35.232
35.211
35.189
35.166
35.142
35.118
35.095
35.071
35.048
35.026
35.004
34.984
34.964
34.946
34.929
34.914
34.899
34.887
34.875
34.864
34.854
34.844
34.833
34.823
34.812
34.8
34.789
34.776
34.763
34.748
34.732
34.715
34.697
34.679
34.66
34.641
34.623
34.605
34.588
34.571
34.555
34.539
34.523
34.507
34.491
34.475
34.458
34.442
34.425
34.409
34.394
34.381
34.372
34.369
34.373
34.386
34.408
34.442
34.488
34.547
34.618
34.701
34.795
34.899
35.011
35.13
35.253
35.378
35.502
35.624
35.741
35.85
35.951
36.042
36.123
36.193
36.252
36.3
36.339
36.367
36.386
36.397
36.4
36.396
36.385
36.37
36.35
36.328
36.303
36.277
36.249
36.221
36.193
36.165
36.138
36.11
36.083
36.056
36.031
36.006
35.983
35.96
35.938
35.916
35.894
35.872
35.849
35.825
35.8
35.773
35.745
35.715
35.685
35.655
35.624
35.594
35.564
35.536
35.509
35.484
35.461
35.44
35.422
35.406
35.393
35.383
35.376
35.371
35.368
35.366
35.366
35.367
35.369
35.371
35.373
35.375
35.377
35.378
35.378
35.376
35.372
35.366
35.359
35.35
35.341
35.33
35.319
35.308
35.295
35.283
35.27
35.256
35.242
35.228
35.212
35.196
35.178
35.158
35.137
35.115
35.091
35.068
35.045
35.023
35.001
34.98
34.959
34.939
34.919
34.901
34.883
34.865
34.848
34.831
34.815
34.798
34.78
34.762
34.744
34.725
34.706
34.686
34.665
34.644
34.623
34.601
34.578
34.555
34.532
34.508
34.485
34.461
34.438
34.415
34.393
34.371
34.351
34.332
34.314
34.297
34.283
34.27
34.258
34.25
34.244
34.241
34.243
34.25
34.265
34.287
34.318
34.358
34.408
34.468
34.538
34.617
34.705
34.801
34.902
35.007
35.114
35.22
35.323
35.422
35.514
35.598
35.673
35.739
35.795
35.839
35.874
35.898
35.912
35.917
35.915
35.905
35.89
35.871
35.849
35.825
35.801
35.776
35.751
35.727
35.702
35.678
35.654
35.63
35.606
35.582
35.557
35.531
35.505
35.478
35.449
35.42
35.39
35.358
35.325
35.291
35.257
35.222
35.188
35.153
35.12
35.087
35.056
35.026
34.998
34.973
34.95
34.929
34.911
34.895
34.881
34.869
34.86
34.853
34.847
34.843
34.84
34.839
34.838
34.838
34.839
34.84
34.842
34.845
34.847
34.849
34.851
34.852
34.852
34.852
34.851
34.85
34.847
34.843
34.838
34.831
34.823
34.813
34.802
34.79
34.777
34.764
34.75
34.737
34.723
34.708
34.694
34.679
34.664
34.648
34.632
34.616
34.599
34.583
34.566
34.549
34.531
34.513
34.493
34.473
34.452
34.43
34.407
34.383
34.359
34.335
34.312
34.289
34.267
34.247
34.228
34.209
34.192
34.176
34.16
34.145
34.13
34.115
34.101
34.087
34.074
34.061
34.048
34.035
34.022
34.009
33.995
33.981
33.968
33.955
33.943
33.934
33.929
33.929
33.936
33.951
33.975
34.01
34.054
34.109
34.175
34.25
34.335
34.428
34.528
34.632
34.74
34.849
34.957
35.063
35.164
35.26
35.347
35.427
35.496
35.556
35.605
35.645
35.674
35.694
35.706
35.71
35.707
35.698
35.684
35.666
35.645
35.621
35.596
35.569
35.541
35.512
35.484
35.454
35.425
35.395
35.366
35.336
35.306
35.277
35.249
35.221
35.193
35.166
35.139
35.112
35.084
35.055
35.025
34.994
34.963
34.931
34.899
34.867
34.836
34.806
34.778
34.752
34.728
34.706
34.687
34.669
34.654
34.642
34.633
34.626
34.621
34.618
34.616
34.615
34.616
34.616
34.616
34.617
34.617
34.618
34.618
34.618
34.618
34.617
34.616
34.615
34.613
34.61
34.606
34.601
34.596
34.589
34.582
34.573
34.562
34.55
34.537
34.522
34.507
34.492
34.476
34.462
34.447
34.433
34.419
34.406
34.392
34.377
34.362
34.346
34.329
34.312
34.293
34.275
34.257
34.238
34.221
34.203
34.186
34.169
34.153
34.137
34.121
34.105
34.09
34.074
34.06
34.045
34.03
34.016
34.002
33.988
33.975
33.962
33.95
33.938
33.927
33.916
33.905
33.894
33.883
33.872
33.863
33.855
33.851
33.851
33.856
33.868
33.889
33.918
33.957
34.006
34.066
34.136
34.216
34.306
34.404
34.51
34.622
34.738
34.856
34.975
35.092
35.206
35.315
35.417
35.512
35.599
35.676
35.744
35.801
35.848
35.885
35.912
35.929
35.939
35.941
35.937
35.928
35.915
35.898
35.878
35.858
35.835
35.813
35.789
35.766
35.742
35.719
35.696
35.673
35.651
35.629
35.607
35.585
35.563
35.542
35.52
35.497
35.475
35.451
35.427
35.401
35.375
35.347
35.318
35.288
35.257
35.225
35.194
35.164
35.135
35.107
35.082
35.059
35.038
35.021
35.007
34.995
34.986
34.979
34.974
34.972
34.971
34.971
34.972
34.974
34.976
34.978
34.979
34.98
34.98
34.979
34.977
34.974
34.97
34.965
34.958
34.951
34.942
34.931
34.92
34.908
34.895
34.883
34.871
34.859
34.847
34.835
34.823
34.811
34.799
34.786
34.773
34.76
34.746
34.731
34.717
34.702
34.686
34.671
34.654
34.637
34.619
34.6
34.58
34.561
34.541
34.522
34.504
34.486
34.469
34.453
34.438
34.423
34.408
34.394
34.38
34.366
34.351
34.337
34.322
34.308
34.295
34.281
34.268
34.255
34.243
34.232
34.223
34.216
34.211
34.21
34.213
34.221
34.234
34.255
34.284
34.323
34.372
34.431
34.502
34.583
34.675
34.776
34.886
35.002
35.124
35.249
35.375
35.5
35.623
35.741
35.852
35.955
36.049
36.133
36.206
36.27
36.322
36.365
36.397
36.419
36.433
36.439
36.438
36.431
36.419
36.404
36.385
36.364
36.341
36.316
36.291
36.264
36.237
36.209
36.182
36.156
36.13
36.105
36.08
36.056
36.031
36.005
35.979
35.951
35.922
35.892
35.861
35.83
35.798
35.766
35.734
35.703
35.673
35.643
35.615
35.588
35.563
35.541
35.52
35.502
35.485
35.471
35.457
35.445
35.435
35.425
35.417
35.411
35.406
35.403
35.4
35.398
35.396
35.394
35.393
35.392
35.39
35.389
35.387
35.385
35.382
35.379
35.375
35.369
35.363
35.354
35.344
35.333
35.32
35.305
35.289
35.272
35.254
35.235
35.216
35.197
35.177
35.156
35.135
35.113
35.09
35.067
35.043
35.019
34.994
34.971
34.948
34.926
34.906
34.887
34.869
34.852
34.836
34.821
34.807
34.794
34.782
34.771
34.762
34.755
34.748
34.743
34.738
34.734
34.729
34.723
34.716
34.708
34.699
34.688
34.677
34.664
34.65
34.636
34.621
34.607
34.593
34.58
34.571
34.565
34.566
34.572
34.588
34.613
34.65
34.699
34.76
34.834
34.92
35.017
35.124
35.239
35.36
35.486
35.614
35.742
35.868
35.99
36.106
36.213
36.311
36.398
36.473
36.538
36.591
36.632
36.663
36.684
36.695
36.698
36.694
36.683
36.667
36.647
36.625
36.6
36.574
36.548
36.521
36.494
36.466
36.439
36.411
36.383
36.355
36.327
36.3
36.273
36.245
36.218
36.191
36.164
36.137
36.11
36.081
36.052
36.022
35.99
35.958
35.925
35.893
35.86
35.828
35.797
35.767
35.739
35.713
35.688
35.665
35.644
35.625
35.607
35.59
35.576
35.563
35.553
35.544
35.537
35.532
35.528
35.525
35.523
35.521
35.521
35.52
35.519
35.518
35.518
35.517
35.516
35.515
35.513
35.511
35.508
35.503
35.498
35.49
35.482
35.471
35.459
35.446
35.432
35.417
35.402
35.387
35.371
35.355
35.339
35.322
35.304
35.285
35.266
35.247
35.228
35.209
35.189
35.17
35.151
35.132
35.113
35.094
35.076
35.059
35.042
35.026
35.01
34.995
34.979
34.963
34.946
34.928
34.908
34.887
34.865
34.843
34.82
34.798
34.775
34.753
34.731
34.71
34.688
34.667
34.645
34.624
34.604
34.584
34.566
34.551
34.54
34.534
34.535
34.545
34.565
34.596
34.64
34.697
34.767
34.851
34.946
35.051
35.164
35.284
35.407
35.531
35.654
35.774
35.888
35.996
36.095
36.185
36.266
36.337
36.399
36.45
36.492
36.524
36.547
36.562
36.569
36.57
36.566
36.556
36.542
36.525
36.505
36.482
36.457
36.43
36.4
36.369
36.336
36.301
36.265
36.227
36.188
36.149
36.11
36.07
36.032
35.993
35.956
35.919
35.884
35.849
35.814
35.78
35.746
35.712
35.679
35.646
35.614
35.583
35.553
35.524
35.496
35.47
35.445
35.422
35.4
35.38
35.362
35.345
35.331
35.319
35.308
35.3
35.293
35.288
35.284
35.282
35.281
35.281
35.281
35.283
35.284
35.284
35.284
35.283
35.28
35.276
35.27
35.262
35.253
35.243
35.231
35.219
35.205
35.19
35.175
35.16
35.145
35.13
35.115
35.099
35.084
35.068
35.053
35.038
35.022
35.007
34.992
34.978
34.963
34.949
34.935
34.92
34.904
34.888
34.872
34.855
34.838
34.82
34.802
34.784
34.767
34.749
34.732
34.714
34.697
34.68
34.663
34.647
34.63
34.613
34.597
34.581
34.565
34.549
34.533
34.516
34.5
34.484
34.469
34.457
34.447
34.443
34.444
34.453
34.471
34.499
34.538
34.589
34.652
34.727
34.814
34.912
35.02
35.136
35.258
35.384
35.512
35.64
35.765
35.885
35.999
36.105
36.202
36.29
36.367
36.435
36.492
36.539
36.577
36.605
36.623
36.633
36.634
36.629
36.617
36.6
36.578
36.552
36.524
36.494
36.463
36.431
36.4
36.369
36.339
36.311
36.284
36.258
36.235
36.212
36.191
36.17
36.149
36.128
36.106
36.082
36.058
36.032
36.004
35.974
35.943
35.911
35.878
35.844
35.81
35.777
35.744
35.712
35.682
35.653
35.626
35.602
35.581
35.563
35.548
35.536
35.528
35.522
35.519
35.518
35.519
35.52
35.521
35.522
35.522
35.522
35.52
35.517
35.512
35.507
35.499
35.49
35.479
35.467
35.454
35.44
35.426
35.41
35.394
35.377
35.359
35.341
35.322
35.302
35.283
35.262
35.242
35.221
35.199
35.177
35.154
35.131
35.106
35.081
35.055
35.028
35.001
34.974
34.947
34.92
34.893
34.867
34.84
34.814
34.789
34.763
34.736
34.71
34.684
34.658
34.632
34.606
34.582
34.559
34.537
34.516
34.496
34.476
34.458
34.44
34.424
34.409
34.395
34.382
34.37
34.36
34.353
34.349
34.35
34.357
34.372
34.395
34.429
34.475
34.532
34.602
34.684
34.778
34.883
34.997
35.12
35.248
35.381
35.515
35.649
35.781
35.908
36.03
36.144
36.25
36.345
36.43
36.503
36.566
36.618
36.66
36.691
36.714
36.728
36.735
36.734
36.728
36.717
36.702
36.684
36.664
36.641
36.617
36.592
36.565
36.538
36.51
36.481
36.451
36.421
36.39
36.36
36.329
36.297
36.266
36.234
36.201
36.168
36.135
36.101
36.065
36.029
35.991
35.952
35.911
35.87
35.828
35.786
35.745
35.705
35.667
35.631
35.598
35.568
35.542
35.518
35.499
35.482
35.468
35.458
35.45
35.445
35.443
35.442
35.442
35.443
35.445
35.446
35.447
35.448
35.449
35.448
35.446
35.443
35.438
35.431
35.422
35.41
35.396
35.38
35.362
35.341
35.319
35.296
35.272
35.247
35.223
35.2
35.177
35.155
35.133
35.112
35.092
35.072
35.052
35.032
35.012
34.992
34.97
34.949
34.926
34.903
34.879
34.855
34.831
34.806
34.781
34.757
34.733
34.709
34.686
34.663
34.641
34.62
34.598
34.576
34.554
34.533
34.511
34.49
34.47
34.451
34.433
34.417
34.403
34.391
34.383
34.378
34.378
34.384
34.397
34.418
34.448
34.488
34.54
34.604
34.68
34.767
34.866
34.976
35.094
35.221
35.354
35.492
35.633
35.776
35.919
36.061
36.198
36.33
36.454
36.571
36.678
36.774
36.86
36.934
36.997
37.049
37.09
37.119
37.139
37.15
37.153
37.148
37.138
37.123
37.102
37.079
37.053
37.025
36.996
36.966
36.935
36.905
36.874
36.844
36.815
36.785
36.756
36.726
36.695
36.664
36.632
36.599
36.565
36.529
36.492
36.453
36.412
36.371
36.328
36.285
36.242
36.199
36.157
36.116
36.077
36.039
36.003
35.968
35.936
35.905
35.876
35.85
35.825
35.803
35.783
35.766
35.751
35.739
35.73
35.722
35.717
35.712
35.708
35.705
35.702
35.7
35.697
35.695
35.692
35.689
35.684
35.678
35.67
35.66
35.649
35.635
35.62
35.604
35.586
35.568
35.549
35.53
35.511
35.491
35.472
35.452
35.433
35.413
35.393
35.373
35.353
35.333
35.314
35.295
35.276
35.257
35.238
35.218
35.199
35.179
35.159
35.138
35.117
35.094
35.071
35.047
35.022
34.996
34.969
34.942
34.915
34.888
34.861
34.834
34.808
34.782
34.758
34.735
34.712
34.692
34.673
34.656
34.643
34.634
34.631
34.635
34.648
34.671
34.705
34.751
34.811
34.884
34.973
35.075
35.191
35.319
35.458
35.606
35.76
35.919
36.081
36.242
36.402
36.558
36.707
36.848
36.978
37.097
37.202
37.295
37.374
37.441
37.495
37.537
37.568
37.589
37.602
37.606
37.603
37.594
37.578
37.558
37.533
37.505
37.474
37.44
37.405
37.369
37.333
37.296
37.26
37.223
37.186
37.148
37.109
37.069
37.028
36.985
36.941
36.896
36.849
36.8
36.751
36.7
36.649
36.598
36.547
36.496
36.446
36.398
36.351
36.306
36.263
36.223
36.185
36.15
36.117
36.086
36.057
36.03
36.005
35.983
35.963
35.945
35.93
35.917
35.906
35.897
35.889
35.882
35.875
35.87
35.864
35.857
35.85
35.843
35.835
35.826
35.817
35.807
35.796
35.785
35.772
35.759
35.745
35.729
35.712
35.693
35.674
35.653
35.631
35.608
35.585
35.562
35.538
35.514
35.49
35.466
35.442
35.418
35.395
35.372
35.349
35.326
35.302
35.277
35.252
35.225
35.198
35.171
35.143
35.115
35.088
35.062
35.036
35.012
34.989
34.967
34.945
34.924
34.902
34.881
34.859
34.836
34.813
34.788
34.764
34.739
34.715
34.691
34.668
34.647
34.627
34.61
34.597
34.59
34.589
34.599
34.619
34.651
34.697
34.757
34.831
34.921
35.026
35.145
35.277
35.42
35.572
35.732
35.897
36.065
36.234
36.401
36.564
36.721
36.869
37.007
37.134
37.248
37.349
37.437
37.51
37.57
37.616
37.65
37.671
37.682
37.683
37.677
37.663
37.643
37.619
37.59
37.558
37.523
37.486
37.446
37.405
37.362
37.317
37.271
37.223
37.173
37.123
37.072
37.019
36.967
36.913
36.859
36.805
36.751
36.698
36.644
36.591
36.538
36.485
36.431
36.377
36.323
36.27
36.218
36.167
36.118
36.071
36.027
35.986
35.948
35.914
35.884
35.857
35.834
35.814
35.797
35.783
35.772
35.763
35.756
35.751
35.747
35.743
35.739
35.734
35.728
35.721
35.713
35.702
35.69
35.676
35.661
35.646
35.629
35.611
35.593
35.574
35.554
35.534
35.512
35.49
35.468
35.445
35.422
35.399
35.375
35.35
35.323
35.296
35.267
35.238
35.207
35.177
35.146
35.116
35.085
35.056
35.027
34.999
34.972
34.945
34.918
34.891
34.864
34.837
34.81
34.783
34.755
34.728
34.701
34.674
34.647
34.62
34.594
34.567
34.542
34.516
34.49
34.465
34.439
34.413
34.387
34.36
34.334
34.308
34.285
34.265
34.249
34.24
34.238
34.246
34.266
34.298
34.344
34.405
34.481
34.572
34.679
34.799
34.932
35.075
35.229
35.389
35.554
35.721
35.888
36.053
36.213
36.367
36.512
36.647
36.771
36.884
36.983
37.07
37.143
37.204
37.25
37.284
37.304
37.313
37.309
37.296
37.273
37.243
37.206
37.165
37.121
37.074
37.025
36.976
36.926
36.876
36.823
36.766
36.704
36.635
36.558
36.475
36.386
36.293
36.196
36.097
35.999
35.903
35.81
35.72
35.636
35.558
35.485
35.42
35.36
35.307
35.26
35.218
35.182
35.15
35.124
35.101
35.083
35.068
35.056
35.048
35.042
35.037
35.034
35.032
35.03
35.028
35.027
35.025
35.024
35.022
35.02
35.018
35.016
35.013
35.009
35.005
35.0
34.994
