Trial 1:0back
39.371
39.248
39.123
39.0
38.88
38.762
38.649
38.54
38.436
38.336
38.24
38.147
38.055
37.965
37.875
37.787
37.7
37.615
37.531
37.449
37.368
37.287
37.206
37.123
37.037
36.948
36.855
36.759
36.659
36.554
36.445
36.33
36.213
36.093
35.973
35.852
35.732
35.614
35.5
35.392
35.291
35.196
35.11
35.033
34.966
34.912
34.87
34.84
34.823
34.818
34.826
34.845
34.874
34.911
34.954
35.001
35.051
35.101
35.149
35.193
35.231
35.259
35.279
35.287
35.284
35.268
35.239
35.197
35.142
35.077
35.001
34.916
34.822
34.721
34.615
34.507
34.397
34.289
34.181
34.075
33.971
33.871
33.775
33.684
33.599
33.517
33.44
33.367
33.298
33.234
33.173
33.116
33.063
33.013
32.966
32.922
32.881
32.843
32.806
32.77
32.736
32.701
32.667
32.632
32.599
32.567
32.536
32.507
32.479
32.453
32.43
32.409
32.391
32.375
32.363
32.353
32.344
32.337
32.33
32.323
32.315
32.307
32.298
32.287
32.274
32.261
32.25
32.244
32.248
32.264
32.297
32.353
32.441
32.568
32.742
32.967
33.246
33.579
33.964
34.395
34.864
35.359
35.869
36.382
36.887
37.37
37.824
38.237
38.605
38.924
39.191
39.406
39.571
39.687
39.759
39.79
39.785
39.749
39.686
39.603
39.503
39.392
39.273
39.148
39.019
38.888
38.755
38.623
38.492
38.364
38.24
38.121
38.007
37.899
37.798
37.703
37.615
37.532
37.454
37.379
37.304
37.231
37.157
37.082
37.003
36.921
36.832
36.738
36.638
36.531
36.414
36.288
36.154
36.013
35.866
35.714
35.558
35.401
35.244
35.09
34.944
34.806
34.679
34.563
34.461
34.373
34.301
34.244
34.203
34.177
34.166
34.171
34.19
34.224
34.27
34.326
34.392
34.464
34.539
34.616
34.691
34.762
34.827
34.884
34.932
34.97
34.995
35.006
35.005
34.991
34.965
34.929
34.881
34.825
34.759
34.686
34.608
34.524
34.435
34.341
34.245
34.149
34.054
33.96
33.869
33.78
33.695
33.613
33.536
33.462
33.391
33.323
33.256
33.191
33.127
33.065
33.004
32.945
32.888
32.834
32.784
32.738
32.696
32.658
32.624
32.595
32.571
32.55
32.533
32.52
32.508
32.497
32.488
32.479
32.472
32.464
32.456
32.447
32.436
32.423
32.409
32.395
32.382
32.373
32.369
32.376
32.396
32.435
32.501
32.599
32.736
32.919
33.153
33.442
33.785
34.181
34.621
35.098
35.6
36.117
36.635
37.142
37.629
38.085
38.501
38.87
39.187
39.451
39.661
39.817
39.923
39.981
39.996
39.974
39.922
39.845
39.749
39.637
39.515
39.383
39.244
39.098
38.948
38.799
38.653
38.515
38.386
38.268
38.161
38.065
37.979
37.902
37.831
37.765
37.702
37.639
37.577
37.514
37.448
37.379
37.306
37.227
37.143
37.053
36.956
36.852
36.741
36.624
36.502
36.373
36.24
36.101
35.96
35.818
35.674
35.531
35.39
35.252
35.12
34.996
34.882
34.778
34.686
34.604
34.535
34.478
34.436
34.406
34.39
34.387
34.396
34.416
34.445
34.48
34.518
34.558
34.598
34.637
34.673
34.704
34.73
34.748
34.758
34.761
34.757
34.746
34.729
34.705
34.676
34.643
34.605
34.564
34.519
34.469
34.416
34.358
34.296
34.23
34.162
34.09
34.016
33.94
33.861
33.779
33.695
33.609
33.522
33.436
33.351
33.269
33.189
33.113
33.041
32.972
32.907
32.847
32.792
32.741
32.694
32.652
32.614
32.582
32.554
32.528
32.504
32.482
32.46
32.441
32.423
32.408
32.393
32.38
32.368
32.357
32.345
32.334
32.321
32.306
32.289
32.269
32.246
32.222
32.197
32.172
32.148
32.129
32.115
32.11
32.117
32.138
32.176
32.236
32.323
32.445
32.607
32.816
33.077
33.391
33.757
34.173
34.632
35.124
35.641
36.171
36.702
37.221
37.718
38.182
38.604
38.978
39.299
39.563
39.771
39.924
40.025
40.079
40.09
40.065
40.011
39.934
39.84
39.733
39.62
39.502
39.384
39.268
39.156
39.05
38.95
38.857
38.771
38.69
38.613
38.539
38.465
38.391
38.317
38.241
38.164
38.085
38.004
37.921
37.836
37.747
37.654
37.556
37.454
37.347
37.236
37.121
37.002
36.881
36.757
36.632
36.505
36.377
36.247
36.117
35.986
35.857
35.729
35.605
35.485
35.371
35.263
35.163
35.072
34.991
34.919
34.856
34.803
34.76
34.729
34.709
34.701
34.704
34.715
34.731
34.75
34.77
34.79
34.808
34.823
34.835
34.842
34.842
34.834
34.82
34.8
34.777
34.752
34.726
34.7
34.675
34.65
34.625
34.599
34.569
34.535
34.494
34.447
34.392
34.329
34.257
34.178
34.093
34.002
33.907
33.811
33.713
33.617
33.523
33.433
33.348
33.27
33.2
33.136
33.078
33.026
32.978
32.934
32.894
32.858
32.825
32.794
32.765
32.739
32.714
32.691
32.667
32.644
32.621
32.597
32.574
32.55
32.526
32.501
32.476
32.451
32.427
32.404
32.383
32.362
32.343
32.325
32.309
32.294
32.282
32.271
32.263
32.257
32.254
32.252
32.25
32.247
32.242
32.235
32.227
32.217
32.208
32.199
32.194
32.191
32.193
32.202
32.224
32.262
32.322
32.41
32.534
32.699
32.913
33.18
33.502
33.877
34.302
34.771
35.275
35.803
36.345
36.889
37.421
37.929
38.402
38.83
39.208
39.531
39.798
40.006
40.158
40.256
40.306
40.313
40.283
40.222
40.137
40.032
39.914
39.787
39.655
39.524
39.396
39.274
39.16
39.053
38.955
38.865
38.782
38.705
38.633
38.564
38.497
38.429
38.362
38.293
38.223
38.151
38.077
38.0
37.921
37.839
37.755
37.667
37.574
37.477
37.376
37.27
37.16
37.044
36.922
36.793
36.659
36.52
36.378
36.234
36.089
35.945
35.803
35.665
35.533
35.409
35.294
35.19
35.098
35.021
34.957
34.906
34.867
34.839
34.821
34.813
34.814
34.823
34.836
34.853
34.871
34.89
34.908
34.924
34.936
34.945
34.95
34.949
34.944
34.934
34.92
34.901
34.878
34.852
34.821
34.786
34.747
34.703
34.656
34.606
34.553
34.498
34.441
34.383
34.323
34.262
34.199
34.134
34.067
33.998
33.926
33.853
33.779
33.705
33.629
33.553
33.476
33.4
33.326
33.256
33.189
33.128
33.073
33.023
32.979
32.937
32.897
32.859
32.823
32.789
32.758
32.729
32.702
32.675
32.649
32.625
32.603
32.584
32.568
32.554
32.543
32.535
32.529
32.527
32.525
32.523
32.52
32.516
32.511
32.506
32.5
32.495
32.492
32.489
32.488
32.488
32.49
32.493
32.498
32.504
32.51
32.516
32.521
32.525
32.527
32.528
32.525
32.518
32.507
32.493
32.476
32.458
32.437
32.415
32.393
32.37
32.349
32.328
32.308
32.29
32.277
32.272
32.277
32.298
32.338
32.403
32.498
32.631
32.806
33.03
33.306
33.634
34.015
34.443
34.912
35.412
35.934
36.464
36.991
37.504
37.991
38.443
38.85
39.204
39.501
39.74
39.923
40.051
40.129
40.162
40.157
40.119
40.055
39.969
39.869
39.759
39.643
39.523
39.402
39.281
39.163
39.047
38.935
38.827
38.72
38.616
38.513
38.411
38.312
38.214
38.119
38.025
37.934
37.845
37.76
37.678
37.598
37.518
37.437
37.355
37.271
37.184
37.093
36.996
36.894
36.784
36.666
36.541
36.41
36.274
36.134
35.992
35.85
35.709
35.572
35.441
35.317
35.201
35.095
34.999
34.916
34.847
34.79
34.746
34.714
34.694
34.685
34.688
34.703
34.727
34.76
34.8
34.845
34.895
34.946
34.998
35.048
35.095
35.139
35.177
35.209
35.233
35.247
35.249
35.24
35.221
35.19
35.148
35.096
35.034
34.963
34.884
34.798
34.705
34.608
34.506
34.4
34.293
34.185
34.076
33.967
33.861
33.758
33.661
33.568
33.482
33.402
33.33
33.265
33.208
33.16
33.121
33.09
33.068
33.051
33.039
33.029
33.021
33.014
33.008
33.001
32.992
32.977
32.958
32.934
32.905
32.875
32.843
32.811
32.781
32.752
32.724
32.7
32.679
32.661
32.646
32.634
32.627
32.623
32.62
32.62
32.621
32.623
32.626
32.629
32.63
32.628
32.624
32.616
32.605
32.591
32.574
32.555
32.532
32.509
32.486
32.465
32.446
32.434
32.429
32.435
32.458
32.501
32.571
32.671
32.809
32.989
33.214
33.489
33.81
34.176
34.582
35.021
35.486
35.967
36.452
36.932
37.394
37.831
38.234
38.596
38.912
39.179
39.396
39.563
39.682
39.755
39.785
39.778
39.737
39.667
39.572
39.456
39.324
39.179
39.027
38.871
38.714
38.558
38.406
38.259
38.119
37.986
37.859
37.738
37.623
37.516
37.415
37.321
37.234
37.151
37.073
36.998
36.924
36.849
36.771
36.69
36.605
36.513
36.414
36.308
36.193
36.07
35.94
35.803
35.661
35.516
35.37
35.225
35.083
34.947
34.819
34.7
34.592
34.497
34.417
34.35
34.299
34.262
34.239
34.229
34.233
34.248
34.273
34.306
34.346
34.391
34.439
34.49
34.541
34.59
34.636
34.678
34.714
34.744
34.766
34.781
34.79
34.792
34.787
34.774
34.754
34.725
34.686
34.639
34.583
34.52
34.452
34.379
34.302
34.222
34.14
34.056
33.971
33.885
33.8
33.714
33.63
33.547
33.466
33.387
33.31
33.234
33.16
33.089
33.021
32.958
32.902
32.851
32.805
32.762
32.722
32.686
32.654
32.627
32.605
32.588
32.575
32.567
32.563
32.562
32.563
32.564
32.564
32.563
32.56
32.556
32.55
32.544
32.537
32.53
32.522
32.514
32.505
32.496
32.487
32.478
32.469
32.461
32.454
32.447
32.441
32.436
32.432
32.43
32.43
32.431
32.433
32.435
32.436
32.439
32.44
32.442
32.442
32.441
32.439
32.439
32.443
32.452
32.47
32.498
32.541
32.605
32.696
32.822
32.988
33.199
33.459
33.77
34.134
34.545
34.998
35.485
35.994
36.516
37.038
37.548
38.037
38.493
38.909
39.278
39.595
39.858
40.065
40.219
40.321
40.375
40.384
40.353
40.289
40.198
40.084
39.953
39.807
39.65
39.488
39.323
39.16
39.0
38.845
38.697
38.557
38.425
38.302
38.188
38.083
37.986
37.898
37.817
37.741
37.67
37.604
37.54
37.478
37.415
37.351
37.283
37.211
37.131
37.041
36.941
36.829
36.707
36.575
36.434
36.286
36.131
35.973
35.812
35.652
35.495
35.345
35.202
35.068
34.947
34.838
34.745
34.665
34.601
34.552
34.517
34.497
34.492
34.498
34.516
34.542
34.576
34.616
34.661
34.707
34.754
34.8
34.844
34.883
34.917
34.945
34.964
34.974
34.973
34.963
34.943
34.913
34.875
34.829
34.776
34.717
34.654
34.586
34.515
34.441
34.364
34.286
34.207
34.127
34.047
33.967
33.888
33.811
33.737
33.664
33.594
33.526
33.459
33.394
33.33
33.268
33.208
33.15
33.094
33.041
32.992
32.945
32.903
32.864
32.828
32.796
32.767
32.742
32.722
32.706
32.693
32.682
32.675
32.668
32.665
32.664
32.664
32.666
32.669
32.673
32.678
32.684
32.687
32.686
32.681
32.672
32.659
32.645
32.63
32.615
32.602
32.591
32.582
32.578
32.577
32.581
32.588
32.598
32.608
32.619
32.629
32.637
32.643
32.647
32.648
32.648
32.646
32.641
32.633
32.621
32.607
32.591
32.575
32.559
32.547
32.538
32.538
32.55
32.581
32.635
32.719
32.839
32.999
33.206
33.463
33.771
34.132
34.542
34.996
35.486
36.002
36.532
37.064
37.586
38.086
38.555
38.984
39.365
39.695
39.968
40.184
40.343
40.446
40.498
40.503
40.465
40.39
40.284
40.152
40.002
39.838
39.666
39.491
39.316
39.143
38.976
38.818
38.672
38.538
38.416
38.307
38.208
38.12
38.039
37.965
37.894
37.825
37.757
37.688
37.617
37.542
37.464
37.381
37.292
37.196
37.093
36.982
36.864
36.741
36.612
36.479
36.341
36.201
36.058
35.916
35.774
35.635
35.5
35.37
35.247
35.131
35.025
34.93
34.845
34.772
34.712
34.663
34.627
34.602
34.588
34.585
34.593
34.609
34.632
34.66
34.69
34.722
34.752
34.782
34.809
34.832
34.85
34.862
34.867
34.865
34.855
34.839
34.815
34.784
34.748
34.707
34.661
34.612
34.561
34.506
34.45
34.392
34.334
34.276
34.217
34.16
34.102
34.044
33.986
33.926
33.866
33.804
33.741
33.677
33.613
33.551
33.491
33.433
33.377
33.323
33.27
33.219
33.17
33.124
33.08
33.037
32.995
32.952
32.908
32.861
32.814
32.767
32.724
32.686
32.656
32.632
32.615
32.604
32.597
32.595
32.595
32.599
32.603
32.609
32.614
32.618
32.621
32.623
32.623
32.621
32.616
32.611
32.604
32.597
32.591
32.586
32.582
32.58
32.578
32.578
32.58
32.584
32.589
32.594
32.598
32.6
32.6
32.598
32.595
32.591
32.584
32.576
32.567
32.556
32.544
32.53
32.516
32.501
32.487
32.475
32.466
32.459
32.454
32.452
32.452
32.454
32.457
32.461
32.464
32.467
32.469
32.473
32.479
32.488
32.503
32.525
32.56
32.61
32.679
32.773
32.895
33.051
33.244
33.48
33.763
34.096
34.478
34.907
35.378
35.882
36.408
36.946
37.48
37.998
38.488
38.94
39.347
39.702
39.999
40.238
40.418
40.542
40.613
40.636
40.618
40.562
40.476
40.364
40.232
40.086
39.929
39.766
39.6
39.432
39.263
39.096
38.931
38.77
38.613
38.46
38.311
38.168
38.031
37.901
37.778
37.662
37.553
37.451
37.356
37.267
37.184
37.104
37.028
36.952
36.876
36.799
36.719
36.635
36.546
36.452
36.352
36.246
36.134
36.018
35.899
35.777
35.655
35.535
35.418
35.307
35.201
35.104
35.015
34.935
34.865
34.805
34.756
34.72
34.695
34.683
34.684
34.696
34.718
34.751
34.791
34.838
34.891
34.945
35.0
35.053
35.102
35.145
35.179
35.203
35.217
35.22
35.217
35.209
35.194
35.172
35.142
35.102
35.052
34.992
34.921
34.84
34.751
34.656
34.556
34.453
34.349
34.246
34.145
34.05
33.961
33.879
33.805
33.738
33.677
33.623
33.575
33.532
33.493
33.458
33.424
33.391
33.359
33.326
33.293
33.258
33.221
33.181
33.138
33.095
33.053
33.012
32.973
32.936
32.903
32.875
32.851
32.833
32.82
32.812
32.807
32.806
32.808
32.813
32.82
32.828
32.837
32.845
32.852
32.857
32.861
32.862
32.86
32.855
32.846
32.834
32.82
32.805
32.79
32.774
32.76
32.747
32.736
32.726
32.718
32.71
32.703
32.698
32.694
32.692
32.692
32.692
32.691
32.69
32.688
32.686
32.683
32.681
32.681
32.685
32.698
32.72
32.758
32.813
32.89
32.993
33.128
33.299
33.51
33.765
34.067
34.413
34.804
35.234
35.696
36.18
36.675
37.171
37.655
38.117
38.546
38.932
39.27
39.555
39.783
39.953
40.066
40.125
40.134
40.098
40.023
39.914
39.778
39.621
39.449
39.267
39.08
38.89
38.702
38.517
38.338
38.166
37.999
37.84
37.687
37.54
37.401
37.269
37.143
37.023
36.908
36.799
36.694
36.593
36.493
36.395
36.299
36.205
36.112
36.019
35.924
35.826
35.727
35.625
35.521
35.417
35.311
35.206
35.101
34.998
34.898
34.803
34.713
34.63
34.555
34.49
34.435
34.39
34.356
34.333
34.32
34.317
34.323
34.339
34.362
34.392
34.426
34.466
34.509
34.554
34.598
34.64
34.678
34.711
34.74
34.763
34.78
34.788
34.788
34.781
34.767
34.745
34.715
34.675
34.627
34.572
34.512
34.448
34.383
34.317
34.251
34.186
34.124
34.065
34.009
33.955
33.903
33.854
33.807
33.762
33.718
33.672
33.625
33.576
33.526
33.474
33.421
33.367
33.312
33.257
33.202
33.149
33.1
33.053
33.011
32.973
32.94
32.911
32.887
32.867
32.852
32.839
32.829
32.82
32.814
32.811
32.81
32.813
32.817
32.821
32.825
32.828
32.831
32.833
32.834
32.833
32.829
32.823
32.816
32.809
32.8
32.789
32.776
32.76
32.743
32.727
32.712
32.697
32.684
32.672
32.663
32.657
32.655
32.655
32.66
32.67
32.686
32.707
32.734
32.77
32.816
32.876
32.953
33.051
33.175
33.328
33.515
33.739
34.004
34.313
34.666
35.059
35.49
35.95
36.432
36.926
37.422
37.908
38.372
38.804
39.196
39.54
39.832
40.067
40.247
40.37
40.439
40.457
40.43
40.362
40.26
40.131
39.981
39.815
39.637
39.453
39.266
39.08
38.895
38.716
38.542
38.375
38.215
38.063
37.918
37.78
37.648
37.522
37.402
37.289
37.182
37.081
36.985
36.893
36.803
36.713
36.623
36.533
36.441
36.349
36.257
36.162
36.065
35.967
35.867
35.766
35.665
35.565
35.465
35.366
35.268
35.172
35.077
34.986
34.9
34.82
34.747
34.682
34.624
34.575
34.535
34.509
34.496
34.498
34.513
34.538
34.569
34.605
34.643
34.683
34.724
34.764
34.802
34.837
34.867
34.893
34.912
34.925
34.929
34.924
34.911
34.889
34.859
34.822
34.777
34.727
34.672
34.614
34.554
34.492
34.429
34.364
34.297
34.23
34.163
34.098
34.034
33.972
33.912
33.855
33.801
33.75
33.701
33.653
33.606
33.558
33.511
33.462
33.413
33.364
33.315
33.267
33.22
33.175
33.131
33.089
33.049
33.012
32.977
32.945
32.916
32.891
32.87
32.852
32.84
32.833
32.832
32.838
32.848
32.862
32.879
32.898
32.918
32.938
32.956
32.97
32.98
32.987
32.99
32.99
32.987
32.981
32.972
32.96
32.946
32.932
32.918
32.904
32.891
32.879
32.867
32.857
32.85
32.846
32.846
32.852
32.864
32.885
32.917
32.964
33.027
33.11
33.219
33.357
33.528
33.736
33.984
34.273
34.604
34.977
35.388
35.832
36.3
36.783
37.27
37.752
38.216
38.654
39.058
39.421
39.737
40.003
40.216
40.377
40.487
40.549
40.567
40.546
40.489
40.402
40.289
40.156
40.007
39.847
39.681
39.51
39.339
39.17
39.004
38.844
38.692
38.547
38.411
38.283
38.163
38.05
37.943
37.842
37.746
37.652
37.56
37.467
37.374
37.277
37.177
37.073
36.966
36.857
36.744
36.629
36.512
36.394
36.276
36.158
36.041
35.924
35.807
35.691
35.577
35.467
35.363
35.264
35.173
35.088
35.013
34.947
34.892
34.847
34.812
34.787
34.772
34.764
34.763
34.768
34.777
34.79
34.805
34.823
34.843
34.864
34.885
34.906
34.924
34.941
34.956
34.966
34.973
34.975
34.972
34.962
34.947
34.925
34.898
34.864
34.825
34.78
34.731
34.677
34.62
34.558
34.492
34.425
34.356
34.288
34.22
34.154
34.088
34.025
33.964
33.907
33.853
33.802
33.752
33.705
33.661
33.62
33.582
33.547
33.515
33.485
33.454
33.424
33.393
33.36
33.326
33.292
33.258
33.226
33.194
33.164
33.134
33.105
33.076
33.046
33.017
32.99
32.965
32.943
32.925
32.911
32.902
32.898
32.897
32.9
32.905
32.911
32.92
32.93
32.941
32.951
32.961
32.97
32.978
32.983
32.986
32.986
32.982
32.974
32.962
32.948
32.931
32.915
32.898
32.883
32.87
32.859
32.852
32.849
32.849
32.855
32.867
32.889
32.922
32.971
33.036
33.121
33.229
33.363
33.528
33.728
33.966
34.244
34.563
34.925
35.325
35.76
36.221
36.7
37.187
37.671
38.142
38.59
39.006
39.382
39.711
39.989
40.212
40.382
40.499
40.567
40.591
40.576
40.525
40.445
40.339
40.214
40.075
39.925
39.768
39.608
39.449
39.291
39.137
38.988
38.844
38.707
38.578
38.455
38.339
38.228
38.123
38.022
37.924
37.83
37.739
37.65
37.564
37.48
37.397
37.312
37.225
37.134
37.034
36.92
36.792
36.648
36.492
36.33
36.165
36.002
35.847
35.701
35.569
35.454
35.356
35.277
35.215
35.167
35.131
35.106
35.088
35.077
35.071
35.067
35.066
35.064
35.062
35.062
35.063
35.066
35.07
35.075
35.084
35.095
35.109
35.126
35.144
35.162
35.18
35.195
35.207
35.215
35.218
35.213
35.2
35.18
35.153
35.119
35.079
35.031
34.977
34.918
34.854
34.785
34.713
34.639
34.563
34.487
34.411
34.336
34.261
34.188
34.116
34.046
33.977
33.911
33.846
33.784
33.725
33.67
33.621
33.577
33.537
33.5
33.467
33.439
33.414
33.394
33.377
33.361
33.346
33.331
33.317
33.302
33.287
33.27
33.253
33.234
33.215
33.196
33.175
33.155
33.135
33.118
33.104
33.094
33.088
33.086
33.087
33.09
33.096
33.103
33.113
33.123
33.133
33.143
33.153
33.162
33.168
33.172
33.173
33.17
33.164
33.153
33.138
33.119
33.098
33.075
33.051
33.027
33.005
32.986
32.971
32.963
32.963
32.973
32.995
33.032
33.089
33.166
33.269
33.399
33.562
33.76
33.996
34.271
34.586
34.942
35.336
35.763
36.215
36.685
37.161
37.633
38.09
38.521
38.916
39.268
39.573
39.826
40.026
40.173
40.268
40.314
40.319
40.29
40.237
40.166
40.081
39.985
39.88
39.765
39.642
39.512
39.376
39.235
39.092
38.947
38.802
38.658
38.517
38.379
38.245
38.116
37.994
37.878
37.767
37.662
37.563
37.467
37.376
37.289
37.203
37.119
37.034
36.946
36.856
36.764
36.668
36.568
36.464
36.357
36.246
36.135
36.022
35.908
35.794
35.681
35.573
35.469
35.372
35.281
35.198
35.123
35.057
35.0
