Trial 1:0back
33.944
33.935
33.925
33.916
33.907
33.9
33.895
33.89
33.886
33.881
33.877
33.874
33.871
33.868
33.865
33.861
33.855
33.849
33.842
33.835
33.829
33.822
33.816
33.81
33.803
33.796
33.787
33.778
33.768
33.758
33.747
33.736
33.723
33.709
33.694
33.679
33.664
33.651
33.64
33.631
33.623
33.615
33.608
33.601
33.592
33.584
33.576
33.568
33.56
33.551
33.542
33.534
33.529
33.53
33.539
33.56
33.595
33.646
33.716
33.808
33.924
34.062
34.222
34.402
34.599
34.81
35.032
35.261
35.492
35.721
35.944
36.157
36.356
36.538
36.701
36.844
36.963
37.061
37.136
37.189
37.224
37.239
37.238
37.223
37.196
37.159
37.116
37.067
37.014
36.958
36.901
36.844
36.789
36.736
36.686
36.638
36.591
36.546
36.501
36.459
36.42
36.384
36.351
36.319
36.289
36.26
36.233
36.208
36.184
36.159
36.134
36.106
36.076
36.041
36.002
35.959
35.912
35.863
35.811
35.76
35.708
35.658
35.611
35.566
35.525
35.488
35.455
35.426
35.4
35.377
35.357
35.338
35.323
35.31
35.3
35.293
35.289
35.289
35.292
35.299
35.31
35.325
35.342
35.36
35.377
35.394
35.408
35.42
35.429
35.434
35.436
35.434
35.428
35.418
35.406
35.391
35.374
35.356
35.336
35.313
35.288
35.261
35.232
35.202
35.172
35.142
35.112
35.082
35.052
35.022
34.991
34.96
34.929
34.897
34.865
34.833
34.8
34.768
34.735
34.702
34.669
34.638
34.607
34.577
34.547
34.519
34.493
34.468
34.446
34.426
34.407
34.39
34.374
34.357
34.341
34.324
34.306
34.288
34.27
34.251
34.231
34.209
34.186
34.162
34.138
34.113
34.089
34.067
34.045
34.024
34.005
33.989
33.974
33.961
33.95
33.94
33.93
33.92
33.91
33.899
33.887
33.874
33.862
33.85
33.839
33.827
33.817
33.808
33.799
33.792
33.785
33.778
33.77
33.761
33.752
33.741
33.729
33.716
33.703
33.689
33.674
33.661
33.649
33.638
33.629
33.623
33.617
33.613
33.608
33.602
33.594
33.586
33.575
33.563
33.549
33.533
33.516
33.498
33.479
33.461
33.443
33.427
33.412
33.397
33.383
33.369
33.357
33.345
33.336
33.329
33.324
33.323
33.325
33.332
33.346
33.368
33.4
33.446
33.507
33.587
33.686
33.807
33.949
34.112
34.295
34.496
34.711
34.937
35.168
35.401
35.633
35.86
36.081
36.29
36.484
36.659
36.813
36.946
37.055
37.142
37.207
37.251
37.277
37.287
37.282
37.265
37.238
37.203
37.161
37.115
37.067
37.019
36.972
36.927
36.884
36.845
36.808
36.774
36.744
36.716
36.69
36.665
36.642
36.62
36.599
36.578
36.558
36.536
36.512
36.487
36.461
36.435
36.41
36.385
36.362
36.338
36.313
36.288
36.261
36.234
36.205
36.175
36.145
36.114
36.081
36.047
36.012
35.975
35.937
35.898
35.86
35.822
35.788
35.756
35.727
35.703
35.684
35.671
35.662
35.658
35.657
35.658
35.659
35.659
35.66
35.66
35.659
35.657
35.654
35.649
35.644
35.638
35.632
35.627
35.621
35.615
35.608
35.599
35.59
35.578
35.564
35.548
35.531
35.513
35.493
35.472
35.45
35.426
35.402
35.377
35.351
35.324
35.297
35.269
35.243
35.218
35.195
35.172
35.149
35.124
35.095
35.064
35.03
34.993
34.954
34.913
34.871
34.828
34.784
34.741
34.699
34.659
34.621
34.586
34.553
34.523
34.493
34.465
34.438
34.412
34.387
34.365
34.344
34.324
34.307
34.29
34.274
34.26
34.247
34.234
34.221
34.207
34.191
34.174
34.157
34.139
34.121
34.103
34.085
34.066
34.047
34.027
34.008
33.989
33.97
33.953
33.936
33.92
33.905
33.891
33.877
33.865
33.855
33.846
33.839
33.834
33.828
33.823
33.816
33.809
33.802
33.794
33.785
33.775
33.764
33.752
33.738
33.723
33.708
33.692
33.676
33.659
33.642
33.625
33.607
33.589
33.571
33.555
33.541
33.529
33.519
33.51
33.502
33.495
33.487
33.479
33.47
33.459
33.446
33.431
33.415
33.397
33.379
33.361
33.343
33.325
33.307
33.29
33.273
33.257
33.242
33.228
33.217
33.208
33.201
33.197
33.196
33.198
33.205
33.218
33.237
33.266
33.305
33.359
33.431
33.524
33.641
33.781
33.943
34.127
34.331
34.55
34.783
35.024
35.269
35.513
35.754
35.986
36.206
36.412
36.6
36.769
36.917
37.042
37.144
37.225
37.285
37.325
37.346
37.352
37.343
37.322
37.291
37.254
37.211
37.164
37.116
37.068
37.02
36.974
36.929
36.884
36.839
36.794
36.751
36.71
36.673
36.639
36.609
36.583
36.56
36.541
36.525
36.512
36.501
36.492
36.485
36.478
36.472
36.464
36.455
36.442
36.427
36.408
36.386
36.361
36.333
36.303
36.269
36.233
36.195
36.154
36.111
36.066
36.02
35.973
35.927
35.883
35.843
35.807
35.776
35.751
35.731
35.715
35.704
35.696
35.692
35.691
35.692
35.693
35.696
35.697
35.699
35.699
35.698
35.695
35.691
35.686
35.68
35.674
35.666
35.658
35.648
35.637
35.624
35.608
35.589
35.566
35.54
35.51
35.479
35.446
35.412
35.378
35.343
35.309
35.275
35.241
35.209
35.177
35.145
35.115
35.085
35.056
35.027
34.999
34.972
34.946
34.92
34.895
34.87
34.845
34.82
34.797
34.773
34.751
34.73
34.708
34.685
34.662
34.636
34.609
34.581
34.551
34.519
34.485
34.45
34.413
34.376
34.34
34.306
34.274
34.245
34.219
34.194
34.172
34.151
34.133
34.117
34.103
34.09
34.077
34.064
34.051
34.037
34.021
34.006
33.992
33.979
33.966
33.953
33.939
33.925
33.91
33.895
33.881
33.866
33.851
33.836
33.821
33.805
33.789
33.774
33.761
33.749
33.738
33.728
33.718
33.709
33.7
33.692
33.686
33.68
33.674
33.667
33.66
33.652
33.642
33.632
33.622
33.61
33.598
33.585
33.571
33.558
33.544
33.532
33.521
33.51
33.5
33.49
33.48
33.47
33.461
33.453
33.445
33.437
33.43
33.422
33.412
33.401
33.389
33.375
33.36
33.344
33.328
33.311
33.293
33.274
33.255
33.236
33.219
33.202
33.186
33.17
33.154
33.138
33.123
33.11
33.098
33.088
33.081
33.078
33.08
33.089
33.107
33.137
33.18
33.24
33.319
33.418
33.538
33.677
33.834
34.009
34.2
34.405
34.622
34.847
35.078
35.312
35.543
35.77
35.986
36.189
36.373
36.536
36.676
36.793
36.886
36.956
37.005
37.034
37.046
37.042
37.026
36.999
36.964
36.923
36.878
36.832
36.784
36.737
36.692
36.649
36.609
36.572
36.538
36.506
36.477
36.449
36.422
36.397
36.373
36.35
36.328
36.307
36.285
36.261
36.235
36.208
36.179
36.149
36.116
36.079
36.037
35.991
35.943
35.895
35.848
35.804
35.763
35.725
35.692
35.663
35.637
35.614
35.594
35.575
35.558
35.543
35.529
35.516
35.504
35.493
35.484
35.477
35.474
35.473
35.476
35.481
35.489
35.499
35.511
35.526
35.542
35.559
35.576
35.592
35.607
35.621
35.633
35.642
35.648
35.651
35.65
35.645
35.636
35.623
35.605
35.584
35.559
35.532
35.502
35.47
35.437
35.404
35.371
35.34
35.31
35.282
35.256
35.231
35.209
35.188
35.17
35.154
35.138
35.122
35.106
35.088
35.068
35.046
35.022
34.997
34.97
34.942
34.914
34.886
34.858
34.831
34.807
34.786
34.767
34.752
34.739
34.729
34.72
34.712
34.705
34.697
34.69
34.684
34.68
34.679
34.682
34.689
34.7
34.715
34.735
34.758
34.782
34.804
34.824
34.84
34.852
34.86
34.863
34.862
34.856
34.846
34.832
34.813
34.79
34.766
34.74
34.714
34.688
34.662
34.636
34.611
34.587
34.563
34.541
34.519
34.497
34.475
34.452
34.429
34.406
34.383
34.361
34.34
34.32
34.3
34.282
34.263
34.244
34.226
34.208
34.19
34.171
34.152
34.132
34.111
34.089
34.067
34.043
34.02
33.997
33.975
33.953
33.932
33.913
33.895
33.879
33.864
33.849
33.834
33.82
33.808
33.799
33.795
33.798
33.809
33.832
33.868
33.922
33.993
34.083
34.194
34.326
34.479
34.651
34.841
35.045
35.26
35.481
35.704
35.925
36.139
36.342
36.531
36.702
36.855
36.988
37.101
37.195
37.268
37.32
37.354
37.371
37.373
37.365
37.348
37.324
37.295
37.261
37.223
37.183
37.141
37.098
37.055
37.012
36.969
36.927
36.886
36.845
36.803
36.763
36.722
36.682
36.643
36.604
36.567
36.531
36.496
36.462
36.429
36.398
36.367
36.336
36.305
36.272
36.238
36.202
36.165
36.127
36.086
36.043
35.996
35.946
35.893
35.837
35.78
35.722
35.665
35.609
35.557
35.507
35.463
35.423
35.387
35.356
35.328
35.302
35.278
35.255
35.232
35.21
35.188
35.167
35.145
35.122
35.098
35.073
35.048
35.022
34.998
34.975
34.953
34.932
34.912
34.894
34.877
34.862
34.85
34.84
34.831
34.824
34.817
34.811
34.804
34.796
34.787
34.777
34.767
34.756
34.743
34.728
34.711
34.692
34.671
34.65
34.626
34.601
34.574
34.546
34.517
34.489
34.461
34.434
34.408
34.382
34.357
34.331
34.305
34.278
34.252
34.225
34.199
34.172
34.147
34.122
34.099
34.078
34.06
34.042
34.025
34.009
33.992
33.974
33.955
33.936
33.918
33.9
33.882
33.864
33.847
33.831
33.818
33.809
33.805
33.804
33.807
33.811
33.817
33.824
33.831
33.838
33.844
33.849
33.851
33.85
33.845
33.837
33.827
33.814
33.8
33.786
33.772
33.758
33.746
33.735
33.726
33.721
33.719
33.72
33.724
33.732
33.741
33.753
33.766
33.78
33.795
33.808
33.818
33.825
33.827
33.825
33.819
33.811
33.8
33.787
33.774
33.76
33.747
33.734
33.723
33.714
33.707
33.702
33.698
33.695
33.693
33.691
33.689
33.687
33.685
33.68
33.673
33.663
33.651
33.636
33.62
33.605
33.591
33.581
33.578
33.584
33.601
33.631
33.678
33.744
33.832
33.943
34.077
34.233
34.412
34.611
34.828
35.061
35.306
35.558
35.812
36.063
36.307
36.54
36.76
36.964
37.15
37.316
37.462
37.587
37.693
37.779
37.847
37.896
37.93
37.949
37.957
37.955
37.947
37.932
37.913
37.89
37.865
37.838
37.81
37.783
37.756
37.729
37.704
37.68
37.658
37.639
37.621
37.605
37.59
37.577
37.565
37.557
37.551
37.546
37.542
37.538
37.531
37.522
37.511
37.498
37.482
37.464
37.443
37.42
37.394
37.364
37.33
37.293
37.253
37.212
37.17
37.128
37.083
37.038
36.99
36.942
36.895
36.849
36.806
36.766
36.732
36.703
36.68
36.662
36.651
36.645
36.645
36.65
36.659
36.67
36.685
36.702
36.721
36.742
36.764
36.786
36.806
36.825
36.841
36.854
36.864
36.872
36.876
36.877
36.875
36.871
36.863
36.853
36.841
36.826
36.81
36.792
36.772
36.752
36.729
36.706
36.683
36.659
36.635
36.61
36.584
36.557
36.529
36.501
36.474
36.447
36.422
36.399
36.376
36.354
36.333
36.312
36.291
36.271
36.251
36.23
36.207
36.183
36.157
36.128
36.097
36.064
36.03
35.994
35.956
35.917
35.877
35.835
35.793
35.751
35.708
35.665
35.622
35.58
35.539
35.499
35.461
35.425
35.392
35.36
35.33
35.302
35.276
35.251
35.229
35.209
35.19
35.173
35.156
35.139
35.122
35.106
35.088
35.071
35.052
35.031
35.009
34.985
34.962
34.938
34.916
34.894
34.875
34.856
34.84
34.825
34.811
34.799
34.789
34.779
34.769
34.759
34.749
34.738
34.727
34.716
34.707
34.699
34.693
34.689
34.69
34.696
34.712
34.738
34.779
34.837
34.913
35.008
35.123
35.258
35.413
35.585
35.774
35.976
36.19
36.412
36.637
36.863
37.086
37.301
37.507
37.701
37.88
38.043
38.189
38.316
38.426
38.517
38.59
38.647
38.688
38.715
38.729
38.731
38.724
38.708
38.685
38.658
38.627
38.593
38.556
38.516
38.474
38.43
38.386
38.343
38.301
38.26
38.218
38.176
38.133
38.089
38.044
37.999
37.953
37.907
37.861
37.814
37.767
37.72
37.673
37.625
37.576
37.528
37.479
37.429
37.379
37.328
37.276
37.223
37.172
37.122
37.074
37.029
36.987
36.949
36.915
36.886
36.864
36.846
36.833
36.822
36.813
36.806
36.8
36.796
36.795
36.796
36.8
36.806
36.815
36.826
36.838
36.851
36.864
36.876
36.886
36.894
36.9
36.902
36.902
36.897
36.89
36.878
36.863
36.844
36.822
36.797
36.768
36.736
36.703
36.668
36.63
36.59
36.548
36.502
36.456
36.409
36.362
36.315
36.268
36.219
36.169
36.117
36.064
36.01
35.956
35.902
35.848
35.795
35.744
35.693
35.643
35.595
35.548
35.502
35.458
35.416
35.373
35.332
35.291
35.253
35.219
35.188
35.16
35.136
35.114
35.094
35.074
35.056
35.038
35.018
34.998
34.974
34.948
34.919
34.888
34.855
34.821
34.786
34.752
34.719
34.687
34.657
34.629
34.604
34.582
34.563
34.547
34.534
34.521
34.509
34.497
34.484
34.469
34.451
34.431
34.407
34.38
34.35
34.317
34.283
34.248
34.214
34.181
34.151
34.124
34.101
34.082
34.069
34.063
34.065
34.078
34.103
34.141
34.196
34.267
34.358
34.468
34.598
34.747
34.913
35.093
35.286
35.488
35.696
35.91
36.125
36.338
36.545
36.745
36.934
37.111
37.273
37.421
37.552
37.667
37.763
37.842
37.904
37.95
37.982
38.0
38.007
38.004
37.992
37.974
37.95
37.923
37.895
37.865
37.836
37.807
37.779
37.752
37.724
37.697
37.669
37.641
37.615
37.589
37.564
37.539
37.515
37.491
37.468
37.445
37.421
37.396
37.369
37.339
37.306
37.269
37.229
37.186
37.14
37.092
37.041
36.989
36.935
36.88
36.826
36.773
36.722
36.674
36.627
36.584
36.544
36.509
36.48
36.455
36.436
36.423
36.413
36.409
36.408
36.409
36.413
36.419
36.425
36.432
36.438
36.443
36.446
36.447
36.446
36.444
36.442
36.438
36.431
36.421
36.407
36.389
36.368
36.344
36.319
36.292
36.265
36.236
36.207
36.178
36.148
36.117
36.086
36.055
36.025
35.994
35.963
35.932
35.899
35.866
35.833
35.8
35.766
35.733
35.699
35.665
35.632
35.599
35.567
35.535
35.503
35.469
35.434
35.398
35.361
35.322
35.284
35.247
35.211
35.177
35.144
35.114
35.085
35.057
35.03
35.004
34.979
34.956
34.933
34.911
34.89
34.87
34.852
34.834
34.817
34.8
34.782
34.764
34.746
34.728
34.71
34.693
34.678
34.664
34.652
34.642
34.635
34.628
34.621
34.614
34.607
34.598
34.588
34.576
34.563
34.549
34.535
34.519
34.503
34.484
34.465
34.444
34.423
34.403
34.383
34.363
34.344
34.325
34.308
34.294
34.285
34.282
34.287
34.304
34.335
34.381
34.446
34.53
34.635
34.762
34.911
35.081
35.27
35.474
35.692
35.92
36.154
36.393
36.63
36.864
37.089
37.302
37.499
37.678
37.837
37.975
38.093
38.19
38.267
38.326
38.367
38.392
38.403
38.402
38.391
38.371
38.343
38.31
38.271
38.229
38.185
38.14
38.096
38.054
38.013
37.975
37.938
37.903
37.871
37.841
37.813
37.787
37.76
37.735
37.709
37.683
37.655
37.627
37.6
37.573
37.546
37.52
37.494
37.468
37.44
37.411
37.38
37.347
37.313
37.276
37.237
37.194
37.15
37.104
37.057
37.011
36.964
36.918
36.872
36.826
36.781
36.737
36.694
36.653
36.615
36.58
36.549
36.521
36.496
36.476
36.46
36.448
36.44
36.435
36.433
36.431
36.431
36.429
36.428
36.425
36.421
36.416
36.41
36.402
36.392
36.38
36.366
36.348
36.328
36.303
36.275
36.244
36.21
36.174
36.136
36.097
36.058
36.016
35.974
35.93
35.886
35.842
35.798
35.755
35.711
35.669
35.627
35.587
35.547
35.508
35.469
35.43
35.392
35.355
35.318
35.282
35.247
35.213
35.18
35.148
35.118
35.087
35.057
35.025
34.994
34.963
34.934
34.905
34.878
34.85
34.823
34.796
34.769
34.741
34.714
34.687
34.66
34.634
34.609
34.584
34.56
34.537
34.515
34.494
34.474
34.453
34.433
34.412
34.392
34.373
34.356
34.341
34.327
34.313
34.299
34.284
34.268
34.252
34.234
34.217
34.201
34.186
34.173
34.161
34.15
34.14
34.131
34.121
34.111
34.099
34.086
34.071
34.054
34.038
34.021
34.004
33.986
33.967
33.946
33.923
33.899
33.876
33.853
33.831
33.813
33.799
33.793
33.795
33.808
33.834
33.875
33.934
34.013
34.114
34.237
34.381
34.548
34.736
34.943
35.166
35.401
35.643
35.888
36.13
36.366
36.593
36.806
37.003
37.181
37.337
37.47
37.581
37.67
37.737
37.784
37.812
37.825
37.823
37.81
37.787
37.757
37.72
37.679
37.635
37.59
37.544
37.499
37.457
37.418
37.382
37.351
37.324
37.299
37.276
37.254
37.233
37.212
37.19
37.169
37.148
37.125
37.101
37.076
37.049
37.021
36.992
36.963
36.933
36.901
36.867
36.831
36.792
36.75
36.703
36.654
36.603
36.551
36.497
36.443
36.389
36.336
36.284
36.235
36.189
36.146
36.105
36.067
36.032
36.0
35.97
35.942
35.916
35.891
35.869
35.85
35.834
35.822
35.812
35.806
35.802
35.8
35.8
35.8
35.8
35.799
35.798
35.796
35.792
35.787
35.781
35.772
35.76
35.746
35.728
35.708
35.684
35.659
35.631
35.603
35.573
35.544
35.515
35.487
35.459
35.43
35.4
35.369
35.335
35.3
35.264
35.228
35.19
35.153
35.116
35.079
35.042
35.007
34.973
34.941
34.911
34.881
34.853
34.825
34.798
34.772
34.745
34.718
34.69
34.661
34.633
34.604
34.574
34.545
34.516
34.487
34.459
34.431
34.402
34.373
34.344
34.316
34.288
34.262
34.235
34.207
34.179
34.15
34.122
34.096
34.071
34.048
34.027
34.009
33.992
33.976
33.961
33.946
33.93
33.912
33.894
33.873
33.851
33.829
33.806
33.786
33.768
33.753
33.74
33.729
33.718
33.708
33.698
33.687
33.674
33.659
33.643
33.624
33.604
33.582
33.558
33.533
33.508
33.483
33.461
33.443
33.429
33.424
33.431
33.452
33.491
33.548
33.626
33.724
33.844
33.985
34.145
34.324
34.518
34.725
34.941
35.163
35.387
35.609
35.825
36.032
36.227
36.406
36.567
36.708
36.83
36.93
37.009
37.068
37.108
37.131
37.139
37.133
37.114
37.085
37.049
37.008
36.965
36.92
36.875
36.831
36.788
36.747
36.708
36.672
36.639
36.61
36.583
36.557
36.533
36.51
36.486
36.462
36.436
36.409
36.381
36.351
36.321
36.289
36.256
36.222
36.188
36.152
36.115
36.077
36.037
35.995
35.951
35.905
35.86
35.814
35.769
35.725
35.683
35.644
35.608
35.576
35.548
35.525
35.505
35.49
35.478
35.47
35.465
35.463
35.464
35.466
35.47
35.475
35.48
35.486
35.491
35.497
35.502
35.508
35.512
35.516
35.518
35.52
35.522
35.523
35.523
35.522
35.517
35.51
35.497
35.479
35.455
35.426
35.391
35.352
35.309
35.263
35.215
35.165
35.116
35.067
35.02
34.974
34.929
34.883
34.837
34.789
34.742
34.694
34.647
34.602
34.557
34.514
34.473
34.435
34.399
34.367
34.339
34.315
34.294
34.275
34.259
34.245
34.233
34.224
34.216
34.211
34.206
34.2
34.194
34.186
34.176
34.164
34.15
34.135
34.118
34.099
34.079
34.058
34.037
34.017
33.998
33.979
33.962
33.945
33.93
33.916
33.904
33.893
33.884
33.876
33.868
33.861
33.852
33.843
33.834
33.826
33.818
33.81
33.802
33.793
33.785
33.776
33.767
33.758
33.749
33.739
33.728
33.717
33.704
33.692
33.68
33.668
33.657
33.646
33.635
33.625
33.615
33.606
33.598
33.592
33.588
33.589
33.597
33.613
33.641
33.682
33.741
33.819
33.918
34.038
34.179
34.339
34.517
34.713
34.924
35.148
35.38
35.615
35.85
36.08
36.3
36.506
36.695
36.865
37.012
37.137
37.237
37.315
37.37
37.403
37.418
37.415
37.398
37.37
37.331
37.285
37.233
37.177
37.118
37.059
36.999
36.939
36.879
36.819
36.762
36.707
36.656
36.609
36.566
36.526
36.489
36.454
36.422
36.392
36.363
36.336
36.31
36.285
36.261
36.237
36.213
36.189
36.163
36.135
36.106
36.074
36.04
36.003
35.963
35.921
35.877
35.831
35.785
35.738
35.689
35.64
35.591
35.544
35.499
35.458
35.421
35.388
35.359
35.334
35.314
35.299
35.288
35.281
35.278
35.28
35.285
35.293
35.305
35.318
35.332
35.348
35.363
35.378
35.389
35.398
35.402
35.402
35.398
35.39
35.379
35.363
35.345
35.323
35.3
35.277
35.253
35.23
35.207
35.184
35.161
35.138
35.114
35.09
35.066
35.042
35.018
34.993
34.966
34.939
34.909
34.878
34.846
34.814
34.781
34.747
34.713
34.678
34.643
34.61
34.578
34.548
34.519
34.491
34.464
34.437
34.41
34.384
34.358
34.333
34.309
34.285
34.261
34.237
34.214
34.19
34.168
34.145
34.122
34.099
34.075
34.049
34.022
33.993
33.965
33.935
33.905
33.876
33.846
33.818
33.791
33.766
33.745
33.726
33.711
33.698
33.688
33.679
33.672
33.666
33.66
33.655
33.649
33.642
