Trial 1:0back
33.716
33.707
33.698
33.69
33.682
33.673
33.662
33.65
33.637
33.623
33.607
33.59
33.573
33.554
33.534
33.514
33.494
33.475
33.457
33.441
33.427
33.417
33.412
33.413
33.421
33.44
33.471
33.515
33.575
33.652
33.748
33.863
33.999
34.156
34.334
34.531
34.746
34.978
35.223
35.48
35.746
36.018
36.292
36.566
36.837
37.1
37.353
37.594
37.819
38.027
38.216
38.384
38.531
38.654
38.754
38.829
38.88
38.905
38.908
38.888
38.847
38.787
38.71
38.618
38.514
38.401
38.282
38.159
38.034
37.91
37.79
37.674
37.564
37.46
37.363
37.273
37.189
37.111
37.038
36.968
36.902
36.836
36.771
36.704
36.637
36.568
36.496
36.423
36.349
36.274
36.201
36.13
36.063
36.002
35.947
35.902
35.866
35.841
35.828
35.825
35.833
35.85
35.876
35.909
35.947
35.989
36.034
36.08
36.124
36.166
36.203
36.236
36.263
36.284
36.299
36.307
36.309
36.304
36.293
36.276
36.255
36.231
36.204
36.175
36.145
36.113
36.079
36.043
36.005
35.965
35.924
35.88
35.834
35.784
35.731
35.672
35.61
35.543
35.474
35.401
35.325
35.247
35.167
35.086
35.005
34.925
34.848
34.774
34.702
34.635
34.572
34.513
34.458
34.407
34.361
34.318
34.28
34.246
34.214
34.185
34.156
34.129
34.101
34.073
34.044
34.015
33.985
33.956
33.926
33.896
33.867
33.839
33.812
33.785
33.76
33.737
33.715
33.696
33.679
33.665
33.655
33.647
33.642
33.64
33.639
33.64
33.642
33.644
33.644
33.644
33.643
33.64
33.638
33.637
33.64
33.65
33.669
33.7
33.747
33.813
33.899
34.009
34.144
34.303
34.489
34.7
34.936
35.194
35.472
35.765
36.07
36.383
36.699
37.011
37.317
37.61
37.887
38.145
38.379
38.587
38.768
38.919
39.04
39.132
39.194
39.229
39.24
39.228
39.198
39.15
39.089
39.016
38.934
38.845
38.751
38.654
38.556
38.458
38.361
38.266
38.172
38.08
37.99
37.902
37.816
37.731
37.648
37.566
37.484
37.404
37.324
37.246
37.169
37.093
37.02
36.949
36.88
36.814
36.751
36.69
36.634
36.582
36.534
36.492
36.455
36.423
36.396
36.373
36.354
36.338
36.326
36.318
36.313
36.311
36.311
36.314
36.319
36.327
36.337
36.348
36.361
36.375
36.389
36.402
36.414
36.424
36.432
36.436
36.436
36.431
36.421
36.405
36.381
36.352
36.316
36.274
36.226
36.173
36.114
36.049
35.98
35.907
35.832
35.756
35.679
35.602
35.526
35.453
35.382
35.315
35.251
35.19
35.132
35.077
35.023
34.97
34.918
34.864
34.81
34.755
34.698
34.639
34.579
34.518
34.456
34.394
34.331
34.269
34.208
34.149
34.093
34.04
33.991
33.948
33.91
33.878
33.851
33.83
33.813
33.8
33.79
33.784
33.779
33.776
33.774
33.772
33.768
33.762
33.752
33.74
33.724
33.704
33.681
33.656
33.629
33.6
33.572
33.543
33.515
33.49
33.468
33.452
33.442
33.442
33.454
33.481
33.526
33.59
33.676
33.787
33.924
34.086
34.273
34.486
34.721
34.975
35.245
35.527
35.816
36.109
36.4
36.687
36.964
37.229
37.478
37.71
37.921
38.111
38.278
38.422
38.543
38.641
38.717
38.771
38.805
38.82
38.816
38.795
38.758
38.706
38.641
38.565
38.479
38.384
38.281
38.172
38.059
37.943
37.825
37.708
37.593
37.482
37.377
37.279
37.187
37.104
37.026
36.956
36.891
36.831
36.775
36.721
36.67
36.619
36.568
36.517
36.465
36.412
36.359
36.306
36.252
36.199
36.147
36.098
36.051
36.008
35.97
35.938
35.912
35.893
35.88
35.874
35.875
35.883
35.895
35.913
35.935
35.96
35.986
36.013
36.038
36.061
36.08
36.095
36.104
36.106
36.102
36.09
36.069
36.041
36.005
35.962
35.913
35.86
35.803
35.745
35.684
35.623
35.561
35.501
35.441
35.383
35.326
35.27
35.216
35.163
35.111
35.058
35.004
34.95
34.895
34.838
34.779
34.718
34.654
34.588
34.52
34.451
34.383
34.315
34.249
34.185
34.126
34.072
34.025
33.984
33.948
33.919
33.894
33.874
33.858
33.845
33.835
33.827
33.819
33.812
33.804
33.796
33.786
33.774
33.76
33.744
33.726
33.705
33.681
33.655
33.627
33.598
33.568
33.539
33.511
33.485
33.462
33.442
33.426
33.414
33.405
33.4
33.398
33.4
33.406
33.416
33.431
33.452
33.48
33.516
33.563
33.622
33.696
33.787
33.896
34.024
34.173
34.343
34.534
34.745
34.974
35.219
35.477
35.744
36.017
36.29
36.56
36.822
37.074
37.312
37.532
37.733
37.912
38.066
38.194
38.295
38.369
38.418
38.441
38.44
38.418
38.377
38.319
38.247
38.162
38.068
37.967
37.863
37.757
37.652
37.551
37.453
37.36
37.271
37.187
37.109
37.034
36.963
36.894
36.827
36.761
36.695
36.626
36.55
36.462
36.365
36.26
36.152
36.044
35.944
35.858
35.791
35.744
35.715
35.703
35.706
35.719
35.74
35.765
35.793
35.822
35.85
35.877
35.901
35.923
35.941
35.956
35.968
35.977
35.984
35.989
35.992
35.993
35.992
35.991
35.988
35.984
35.979
35.974
35.968
35.961
35.954
35.945
35.935
35.922
35.908
35.891
35.871
35.848
35.821
35.788
35.75
35.705
35.655
35.599
35.537
35.47
35.397
35.32
35.24
35.156
35.072
34.987
34.903
34.82
34.742
34.667
34.597
34.531
34.471
34.416
34.366
34.321
34.282
34.248
34.217
34.19
34.166
34.145
34.125
34.105
34.086
34.066
34.045
34.024
34.002
33.978
33.954
33.927
33.9
33.872
33.843
33.814
33.786
33.759
33.735
33.713
33.694
33.677
33.663
33.653
33.646
33.643
33.643
33.646
33.65
33.656
33.662
33.669
33.678
33.688
33.701
33.719
33.743
33.776
33.82
33.879
33.954
34.049
34.165
34.303
34.462
34.644
34.846
35.066
35.303
35.553
35.811
36.075
36.34
36.603
36.858
37.102
37.331
37.541
37.731
37.898
38.042
38.16
38.253
38.321
38.365
38.386
38.386
38.366
38.329
38.277
38.212
38.136
38.053
37.964
37.871
37.777
37.683
37.589
37.496
37.406
37.318
37.234
37.153
37.076
37.002
36.931
36.862
36.794
36.726
36.657
36.588
36.517
36.446
36.374
36.302
36.231
36.162
36.096
36.034
35.977
35.925
35.88
35.842
35.812
35.789
35.775
35.768
35.768
35.773
35.783
35.796
35.812
35.828
35.845
35.861
35.874
35.884
35.89
35.894
35.897
35.898
35.898
35.898
35.899
35.899
35.899
35.897
35.894
35.89
35.884
35.876
35.864
35.849
35.828
35.802
35.77
35.733
35.69
35.641
35.586
35.524
35.457
35.385
35.309
35.231
35.152
35.071
34.991
34.912
34.835
34.762
34.693
34.629
34.57
34.516
34.468
34.425
34.387
34.352
34.321
34.29
34.26
34.229
34.196
34.162
34.125
34.086
34.047
34.006
33.963
33.921
33.878
33.836
33.796
33.759
33.724
33.692
33.664
33.64
33.621
33.607
33.597
33.592
33.593
33.598
33.606
33.616
33.629
33.642
33.656
33.67
33.681
33.691
33.697
33.699
33.696
33.689
33.677
33.662
33.643
33.621
33.597
33.573
33.549
33.526
33.506
33.489
33.475
33.465
33.459
33.459
33.468
33.487
33.518
33.563
33.625
33.705
33.807
33.932
34.079
34.25
34.442
34.656
34.889
35.137
35.399
35.671
35.95
36.23
36.508
36.781
37.045
37.297
37.534
37.754
37.955
38.134
38.292
38.428
38.54
38.63
38.696
38.74
38.762
38.765
38.747
38.713
38.664
38.601
38.526
38.442
38.35
38.252
38.151
38.047
37.943
37.841
37.741
37.646
37.556
37.472
37.393
37.321
37.255
37.194
37.137
37.084
37.032
36.982
36.932
36.881
36.828
36.773
36.716
36.656
36.595
36.533
36.471
36.41
36.351
36.295
36.242
36.194
36.152
36.116
36.087
36.065
36.05
36.042
36.04
36.044
36.051
36.062
36.077
36.093
36.111
36.128
36.143
36.155
36.164
36.169
36.17
36.165
36.156
36.141
36.12
36.093
36.062
36.027
35.989
35.949
35.907
35.864
35.82
35.775
35.73
35.685
35.64
35.593
35.545
35.494
35.442
35.387
35.33
35.271
35.21
35.147
35.082
35.016
34.948
34.879
34.809
34.74
34.671
34.604
34.538
34.474
34.414
34.358
34.307
34.26
34.22
34.185
34.156
34.133
34.115
34.101
34.09
34.083
34.076
34.07
34.063
34.054
34.044
34.032
34.018
34.002
33.984
33.965
33.945
33.924
33.903
33.881
33.859
33.838
33.819
33.801
33.786
33.773
33.762
33.753
33.747
33.743
33.74
33.739
33.738
33.736
33.734
33.732
33.728
33.721
33.713
33.704
33.693
33.682
33.673
33.667
33.669
33.68
33.702
33.74
33.795
33.871
33.971
34.097
34.25
34.43
34.636
34.866
35.117
35.385
35.665
35.953
36.243
36.532
36.813
37.083
37.337
37.571
37.782
37.969
38.128
38.26
38.366
38.445
38.499
38.528
38.535
38.523
38.493
38.448
38.392
38.326
38.254
38.179
38.103
38.026
37.95
37.875
37.802
37.731
37.66
37.591
37.523
37.456
37.39
37.325
37.261
37.198
37.135
37.074
37.014
36.955
36.895
36.837
36.779
36.722
36.665
36.61
36.556
36.504
36.455
36.408
36.363
36.32
36.278
36.238
36.201
36.167
36.136
36.108
36.085
36.065
36.047
36.033
36.02
36.01
36.002
35.996
35.99
35.986
35.984
35.983
35.982
35.983
35.984
35.985
35.987
35.987
35.985
35.98
35.973
35.963
35.948
35.928
35.902
35.871
35.833
35.79
35.741
35.686
35.625
35.559
35.49
35.417
35.341
35.266
35.191
35.117
35.046
34.978
34.914
34.853
34.796
34.743
34.691
34.642
34.595
34.548
34.502
34.455
34.408
34.36
34.311
34.261
34.209
34.156
34.102
34.047
33.992
33.938
33.885
33.833
33.784
33.738
33.696
33.659
33.626
33.598
33.575
33.558
33.547
33.54
33.538
33.54
33.545
33.552
33.56
33.569
33.577
33.584
33.587
33.586
33.582
33.573
33.56
33.544
33.525
33.504
33.479
33.452
33.422
33.39
33.358
33.328
33.299
33.272
33.248
33.227
33.21
33.196
33.185
33.176
33.17
33.168
33.168
33.171
33.177
33.188
33.204
33.227
33.26
33.304
33.36
33.433
33.526
33.638
33.773
33.932
34.115
34.32
34.544
34.786
35.046
35.325
35.626
35.939
36.256
36.568
36.867
37.145
37.395
37.612
37.794
37.938
38.045
38.117
38.155
38.163
38.142
38.098
38.035
37.957
37.867
37.77
37.668
37.565
37.462
37.363
37.268
37.178
37.095
37.02
36.952
36.89
36.834
36.782
36.733
36.687
36.64
36.592
36.544
36.493
36.441
36.386
36.329
36.269
36.207
36.142
36.076
36.007
35.939
35.871
35.805
35.742
35.684
35.632
35.587
35.55
35.522
35.501
35.488
35.481
35.481
35.485
35.492
35.501
35.512
35.524
35.536
35.548
35.557
35.565
35.571
35.575
35.576
35.574
35.57
35.564
35.556
35.546
35.535
35.524
35.511
35.497
35.483
35.466
35.447
35.426
35.402
35.375
35.345
35.311
35.272
35.227
35.178
35.124
35.067
35.006
34.941
34.874
34.805
34.734
34.661
34.589
34.517
34.446
34.378
34.314
34.253
34.196
34.144
34.098
34.056
34.019
33.986
33.956
33.929
33.904
33.881
33.858
33.835
33.811
33.786
33.76
33.733
33.705
33.676
33.646
33.616
33.587
33.558
33.531
33.506
33.484
33.465
33.45
33.439
33.432
33.428
33.429
33.433
33.439
33.448
33.458
33.468
33.478
33.486
33.492
33.494
33.494
33.489
33.481
33.469
33.453
33.432
33.407
33.38
33.351
33.321
33.29
33.259
33.23
33.204
33.181
33.164
33.151
33.145
33.145
33.155
33.175
33.206
33.25
33.309
33.384
33.477
33.588
33.719
33.869
34.037
34.223
34.425
34.641
34.867
35.101
35.341
35.581
35.82
36.052
36.277
36.491
36.692
36.878
37.047
37.199
37.331
37.444
37.536
37.609
37.661
37.693
37.707
37.702
37.679
37.641
37.588
37.523
37.446
37.36
37.268
37.171
37.072
36.971
36.87
36.771
36.673
36.579
36.49
36.407
36.33
36.26
36.197
36.139
36.085
36.034
35.985
35.939
35.893
35.848
35.802
35.755
35.707
35.658
35.608
35.559
35.51
35.464
35.422
35.384
35.35
35.322
35.298
35.282
35.273
35.271
35.275
35.287
35.305
35.33
35.36
35.395
35.433
35.473
35.514
35.554
35.59
35.622
35.649
35.669
35.683
35.69
35.688
35.677
35.657
35.63
35.597
35.558
35.516
35.471
35.425
35.377
35.329
35.281
35.233
35.185
35.137
35.09
35.042
34.995
34.948
34.9
34.852
34.804
34.754
34.704
34.652
34.599
34.544
34.486
34.427
34.366
34.305
34.245
34.185
34.127
34.071
34.019
33.972
33.929
33.891
33.858
33.831
33.81
33.794
33.783
33.775
33.771
33.769
33.769
33.769
33.768
33.767
33.764
33.76
33.753
33.745
33.734
33.721
33.704
33.687
33.668
33.649
33.63
33.611
33.594
33.579
33.566
33.556
33.548
33.543
33.541
33.541
33.543
33.547
33.554
33.564
33.578
33.595
33.618
33.646
33.683
33.729
33.788
33.86
33.947
34.052
34.176
34.318
34.478
34.656
34.851
35.061
35.283
35.516
35.754
35.996
36.238
36.476
36.706
36.926
37.131
37.319
37.488
37.634
37.756
37.853
37.925
37.972
37.994
37.994
37.973
37.934
37.878
37.808
37.726
37.635
37.537
37.436
37.334
37.233
37.134
37.039
36.95
36.867
36.79
36.719
36.652
36.59
36.531
36.475
36.419
36.364
36.307
36.248
36.186
36.121
36.052
35.981
35.909
35.836
35.764
35.694
35.628
35.567
35.514
35.468
35.43
35.4
35.379
35.365
35.359
35.36
35.366
35.379
35.396
35.417
35.441
35.466
35.491
35.517
35.541
35.564
35.585
35.603
35.618
35.629
35.635
35.637
35.634
35.629
35.622
35.613
35.602
35.59
35.576
35.561
35.544
35.526
35.506
35.484
35.459
35.432
35.401
35.367
35.328
35.286
35.239
35.188
35.133
35.075
35.013
34.948
34.881
34.813
34.744
34.677
34.611
34.547
34.487
34.431
34.379
34.331
34.287
34.248
34.214
34.183
34.155
34.13
34.107
34.085
34.064
34.043
34.021
33.999
33.976
33.951
33.924
33.897
33.869
33.841
33.813
33.786
33.76
33.736
33.715
33.697
33.682
33.671
33.663
33.658
33.656
33.657
33.661
33.666
33.673
33.68
33.686
33.69
33.692
33.691
33.686
33.677
33.664
33.647
33.626
33.602
33.576
33.551
33.527
33.506
33.488
33.478
33.477
33.489
33.517
33.562
33.629
33.719
33.835
33.977
34.144
34.338
34.555
34.794
35.05
35.32
35.597
35.878
36.156
36.429
36.691
36.938
37.168
37.377
37.563
37.725
37.861
37.971
38.056
38.119
38.161
38.184
38.191
38.182
38.161
38.128
38.084
38.033
37.974
37.91
37.84
37.766
37.688
37.606
37.522
37.436
37.35
37.262
37.176
37.089
37.003
36.918
36.835
36.754
36.676
36.604
36.537
36.476
36.42
36.369
36.323
36.282
36.244
36.209
36.177
36.147
36.117
36.089
36.06
36.032
36.003
35.973
35.942
35.91
35.878
35.847
35.818
35.791
35.766
35.746
35.729
35.719
35.714
35.714
35.721
35.733
35.75
35.769
35.79
35.812
35.832
35.849
35.862
35.87
35.872
35.867
35.855
35.836
35.81
35.777
35.738
35.692
35.641
35.584
35.522
35.455
35.386
35.315
35.244
35.174
35.106
35.039
34.975
34.914
34.857
34.804
34.754
34.708
34.663
34.618
34.573
34.526
34.477
34.426
34.372
34.316
34.258
34.199
34.139
34.081
34.023
33.967
33.912
33.86
33.81
33.763
33.721
33.682
33.648
33.62
33.596
33.578
33.564
33.554
33.548
33.543
33.54
33.537
33.534
33.53
33.524
33.517
33.507
33.494
33.479
33.461
33.439
33.414
33.386
33.356
33.325
33.293
33.262
33.233
33.207
33.185
33.166
33.152
33.142
33.139
33.141
33.15
33.166
33.19
33.223
33.268
33.325
33.397
33.486
33.593
33.718
33.861
34.022
34.2
34.394
34.6
34.815
35.038
35.265
35.492
35.716
35.936
36.148
36.351
36.543
36.72
36.881
37.025
37.151
37.257
37.343
37.409
37.454
37.478
37.481
37.465
37.43
37.378
37.309
37.227
37.133
37.03
36.919
36.804
36.688
36.573
36.461
36.354
36.254
36.161
36.076
35.999
35.932
35.875
35.826
35.784
35.749
35.717
35.687
35.657
35.625
35.591
35.553
35.512
35.467
35.417
35.364
35.308
35.249
35.191
35.134
35.081
35.033
34.99
34.952
34.922
34.9
34.886
34.882
34.886
34.9
34.924
34.955
34.993
35.031
35.062
35.083
35.097
35.104
35.107
35.108
35.106
35.102
35.097
35.091
35.084
35.076
35.067
35.057
35.045
35.03
35.014
34.995
34.973
34.948
34.921
34.891
34.858
34.821
34.782
34.741
34.697
34.651
34.603
34.553
34.501
34.446
34.388
34.329
34.269
34.207
34.145
34.083
34.022
33.962
33.904
33.848
33.795
33.746
33.701
33.66
33.625
33.594
33.567
33.545
33.526
33.511
33.499
33.489
33.48
33.471
33.463
33.454
33.443
33.431
33.418
33.404
33.388
33.371
33.353
33.334
33.314
33.295
33.276
33.258
33.242
33.227
33.215
33.205
33.198
33.193
33.19
33.191
33.194
33.201
33.212
33.227
33.247
33.272
33.305
33.346
33.396
33.458
33.533
33.622
33.726
33.846
33.982
34.132
34.296
34.472
34.658
34.851
35.049
35.248
35.446
35.639
35.825
36.001
36.165
36.315
36.451
36.569
36.67
36.752
36.815
36.858
36.882
36.888
36.877
36.851
36.809
36.754
36.688
36.612
36.527
36.436
36.339
36.24
36.14
36.04
35.942
35.848
35.758
35.672
35.593
35.52
35.453
35.393
35.339
35.291
35.247
35.206
35.169
35.133
35.097
35.062
35.025
34.987
34.947
34.907
34.866
34.825
34.785
34.746
34.711
34.679
34.652
34.632
34.62
34.616
34.621
34.633
34.653
34.679
34.71
34.744
34.781
34.82
34.86
34.898
34.935
34.969
34.998
35.023
35.043
35.057
35.066
35.068
35.065
35.055
35.039
35.018
34.991
34.961
34.928
34.893
34.858
34.822
34.786
34.752
34.718
34.685
34.653
34.621
34.589
34.556
34.521
34.484
34.446
34.405
34.362
34.317
34.271
34.223
34.173
34.123
34.072
34.02
33.97
33.92
33.872
33.826
33.784
33.745
33.712
33.684
33.661
33.642
33.628
33.617
33.609
33.604
33.6
33.596
33.592
33.588
33.584
33.579
33.572
33.563
33.551
33.535
33.517
33.496
33.472
33.446
33.419
33.391
33.364
33.337
33.312
33.29
33.27
33.254
33.243
33.237
33.236
33.241
33.253
33.273
33.302
33.34
33.389
33.449
33.521
33.605
33.702
33.813
33.938
34.076
34.227
34.388
34.559
34.738
34.921
35.106
35.291
35.473
35.649
35.816
35.973
36.118
36.247
36.36
36.456
36.534
36.595
36.638
36.664
36.674
36.67
36.652
36.622
36.58
36.53
36.472
36.408
36.338
36.263
36.185
36.104
36.022
35.94
35.859
35.779
35.702
35.629
35.559
35.493
35.433
35.379
35.329
35.286
35.248
35.214
35.183
35.155
35.128
35.1
35.072
35.043
35.012
34.98
34.946
34.913
34.88
34.848
34.819
34.793
34.77
34.751
34.737
34.727
34.723
34.725
34.732
34.746
34.764
34.787
34.814
34.845
34.878
34.911
34.943
34.974
35.001
35.023
35.04
35.052
35.057
35.056
35.049
35.037
35.019
34.996
34.968
34.937
34.902
34.865
34.827
34.788
34.748
34.708
34.669
34.63
34.592
34.556
34.521
34.487
34.453
34.42
34.387
34.355
34.321
34.286
34.249
34.209
34.167
34.122
34.074
34.025
33.974
33.923
33.872
33.822
33.775
33.73
33.69
33.653
33.622
33.597
33.576
33.559
33.547
33.538
33.533
33.531
33.533
33.535
33.539
33.542
33.544
33.544
33.541
33.534
33.525
33.512
33.496
33.477
33.456
33.434
33.411
33.387
33.365
33.342
33.321
33.301
33.284
33.268
33.255
33.245
33.238
33.234
33.234
33.239
33.248
33.263
33.284
33.312
33.348
33.392
33.447
33.513
33.593
33.688
33.798
33.922
34.06
34.211
34.372
34.542
34.72
34.901
35.085
35.268
35.447
35.62
35.783
35.935
36.073
36.195
36.301
36.389
36.459
36.51
36.543
36.559
36.556
36.537
36.502
36.453
36.393
36.323
36.245
36.162
36.075
35.988
35.901
35.818
35.739
35.666
35.599
35.538
35.485
35.439
35.399
35.366
35.338
35.316
35.296
35.277
35.259
35.239
35.217
35.192
35.164
35.131
35.094
35.054
35.01
34.964
34.918
34.873
34.831
34.793
34.76
34.733
34.712
34.697
34.688
34.685
34.688
34.697
34.71
34.727
34.747
34.769
34.792
34.816
34.838
34.858
34.874
34.885
34.889
34.888
34.88
34.865
34.845
34.819
34.79
34.757
34.722
34.685
34.648
34.612
34.576
34.542
34.511
34.481
34.453
34.428
34.404
34.381
34.361
34.341
34.322
34.301
34.28
34.256
34.229
34.199
34.166
34.13
34.09
34.049
34.005
33.96
33.915
33.87
33.826
33.783
33.74
33.698
33.658
33.62
33.584
33.551
33.522
33.496
33.474
33.457
33.444
33.433
33.426
33.42
33.415
