Trial 1:0back
34.183
34.096
34.013
33.934
33.86
33.79
33.724
33.662
33.604
33.553
33.506
33.464
33.426
33.39
33.358
33.327
33.3
33.274
33.25
33.228
33.205
33.183
33.16
33.136
33.111
33.086
33.06
33.036
33.013
32.992
32.975
32.961
32.952
32.947
32.946
32.948
32.953
32.962
32.973
32.985
32.997
33.01
33.022
33.033
33.044
33.053
33.059
33.063
33.064
33.062
33.057
33.05
33.042
33.032
33.022
33.01
32.998
32.984
32.971
32.959
32.949
32.942
32.937
32.936
32.941
32.952
32.972
33.001
33.042
33.098
33.172
33.269
33.392
33.546
33.735
33.961
34.228
34.539
34.893
35.286
35.712
36.163
36.631
37.108
37.582
38.044
38.482
38.888
39.254
39.576
39.851
40.076
40.252
40.379
40.46
40.497
40.495
40.46
40.398
40.312
40.21
40.095
39.973
39.848
39.723
39.6
39.48
39.362
39.248
39.136
39.028
38.923
38.82
38.716
38.61
38.501
38.39
38.279
38.17
38.063
37.957
37.855
37.758
37.668
37.586
37.512
37.443
37.378
37.312
37.245
37.173
37.097
37.015
36.925
36.829
36.728
36.622
36.514
36.403
36.29
36.176
36.064
35.956
35.853
35.755
35.663
35.576
35.496
35.426
35.365
35.313
35.27
35.238
35.215
35.203
35.2
35.204
35.215
35.231
35.252
35.275
35.301
35.325
35.348
35.366
35.38
35.389
35.391
35.386
35.371
35.345
35.31
35.266
35.213
35.152
35.082
35.007
34.925
34.841
34.755
34.668
34.581
34.495
34.411
34.328
34.248
34.171
34.098
34.03
33.966
33.907
33.85
33.797
33.748
33.704
33.664
33.626
33.59
33.553
33.517
33.48
33.443
33.404
33.363
33.321
33.278
33.236
33.195
33.158
33.124
33.095
33.07
33.05
33.034
33.023
33.017
33.016
33.018
33.023
33.029
33.036
33.044
33.051
33.058
33.063
33.065
33.065
33.062
33.056
33.048
33.037
33.022
33.005
32.986
32.966
32.946
32.929
32.913
32.9
32.889
32.881
32.876
32.875
32.878
32.883
32.891
32.901
32.911
32.92
32.929
32.936
32.941
32.942
32.94
32.934
32.924
32.91
32.894
32.875
32.853
32.828
32.802
32.777
32.754
32.735
32.722
32.716
32.72
32.735
32.766
32.816
32.887
32.985
33.112
33.273
33.471
33.712
33.996
34.325
34.697
35.107
35.549
36.016
36.498
36.985
37.465
37.928
38.363
38.762
39.119
39.427
39.684
39.888
40.042
40.147
40.207
40.225
40.207
40.158
40.085
39.993
39.885
39.767
39.642
39.514
39.386
39.258
39.133
39.011
38.894
38.783
38.676
38.573
38.473
38.376
38.282
38.191
38.103
38.018
37.936
37.857
37.78
37.705
37.631
37.558
37.483
37.406
37.328
37.247
37.163
37.077
36.986
36.892
36.795
36.695
36.592
36.487
36.379
36.27
36.16
36.051
35.944
35.839
35.738
35.64
35.547
35.461
35.383
35.314
35.256
35.207
35.168
35.141
35.125
35.119
35.123
35.135
35.153
35.175
35.2
35.227
35.253
35.279
35.304
35.324
35.34
35.35
35.356
35.356
35.352
35.342
35.325
35.302
35.273
35.238
35.195
35.145
35.088
35.022
34.95
34.872
34.789
34.701
34.61
34.518
34.427
34.338
34.252
34.17
34.091
34.016
33.945
33.88
33.819
33.763
33.711
33.663
33.62
33.582
33.548
33.52
33.496
33.473
33.454
33.436
33.42
33.405
33.39
33.375
33.357
33.337
33.314
33.29
33.265
33.24
33.216
33.194
33.174
33.157
33.146
33.139
33.137
33.138
33.14
33.144
33.148
33.151
33.154
33.156
33.158
33.158
33.158
33.158
33.159
33.159
33.159
33.156
33.15
33.14
33.128
33.112
33.093
33.072
33.047
33.02
32.99
32.957
32.922
32.888
32.856
32.826
32.8
32.779
32.764
32.757
32.759
32.77
32.792
32.827
32.876
32.942
33.03
33.142
33.281
33.451
33.654
33.894
34.171
34.488
34.841
35.229
35.644
36.081
36.53
36.982
37.425
37.851
38.254
38.625
38.96
39.253
39.5
39.701
39.855
39.963
40.025
40.046
40.027
39.973
39.89
39.782
39.654
39.51
39.353
39.187
39.016
38.843
38.672
38.503
38.338
38.18
38.029
37.886
37.753
37.628
37.513
37.408
37.312
37.226
37.148
37.076
37.009
36.946
36.885
36.825
36.763
36.698
36.629
36.554
36.473
36.385
36.289
36.187
36.079
35.966
35.85
35.732
35.614
35.496
35.381
35.268
35.16
35.06
34.968
34.886
34.814
34.753
34.705
34.67
34.647
34.637
34.636
34.644
34.659
34.682
34.71
34.743
34.778
34.814
34.85
34.885
34.919
34.95
34.977
35.001
35.019
35.031
35.036
35.035
35.025
35.007
34.979
34.942
34.897
34.844
34.784
34.718
34.649
34.577
34.503
34.427
34.352
34.278
34.206
34.135
34.066
34.001
33.938
33.879
33.822
33.768
33.715
33.664
33.613
33.563
33.513
33.464
33.415
33.367
33.32
33.275
33.231
33.19
33.15
33.114
33.079
33.046
33.017
32.992
32.97
32.953
32.942
32.936
32.937
32.941
32.945
32.95
32.952
32.953
32.952
32.95
32.945
32.937
32.926
32.912
32.896
32.88
32.868
32.861
32.859
32.862
32.868
32.876
32.885
32.895
32.905
32.914
32.921
32.926
32.928
32.927
32.924
32.92
32.914
32.906
32.895
32.882
32.868
32.854
32.839
32.826
32.813
32.802
32.792
32.784
32.781
32.783
32.793
32.811
32.842
32.887
32.95
33.037
33.152
33.299
33.483
33.707
33.974
34.287
34.645
35.045
35.482
35.95
36.439
36.94
37.443
37.934
38.405
38.844
39.244
39.597
39.898
40.142
40.33
40.462
40.539
40.567
40.548
40.488
40.393
40.27
40.125
39.964
39.792
39.616
39.438
39.265
39.097
38.938
38.79
38.651
38.524
38.407
38.3
38.203
38.114
38.032
37.956
37.884
37.815
37.749
37.684
37.619
37.553
37.484
37.412
37.334
37.249
37.158
37.058
36.949
36.833
36.709
36.579
36.444
36.306
36.167
36.029
35.892
35.761
35.635
35.517
35.407
35.306
35.214
35.132
35.06
34.997
34.944
34.901
34.869
34.846
34.831
34.825
34.826
34.834
34.849
34.869
34.893
34.918
34.944
34.969
34.994
35.018
35.038
35.053
35.064
35.07
35.072
35.07
35.064
35.054
35.039
35.02
34.996
34.968
34.935
34.898
34.855
34.806
34.752
34.691
34.624
34.55
34.469
34.384
34.295
34.205
34.113
34.022
33.933
33.846
33.763
33.684
33.609
33.539
33.475
33.417
33.363
33.313
33.267
33.225
33.188
33.155
33.124
33.097
33.073
33.053
33.037
33.024
33.012
33.002
32.992
32.98
32.968
32.955
32.94
32.924
32.907
32.89
32.873
32.857
32.842
32.829
32.819
32.811
32.804
32.8
32.798
32.799
32.803
32.809
32.816
32.824
32.833
32.845
32.858
32.87
32.881
32.89
32.896
32.901
32.904
32.904
32.903
32.898
32.891
32.883
32.872
32.86
32.848
32.834
32.82
32.805
32.792
32.781
32.772
32.764
32.757
32.751
32.745
32.741
32.74
32.741
32.746
32.753
32.766
32.784
32.812
32.853
32.91
32.985
33.082
33.204
33.356
33.542
33.766
34.031
34.339
34.69
35.083
35.513
35.975
36.46
36.959
37.461
37.958
38.437
38.889
39.304
39.673
39.991
40.253
40.459
40.607
40.7
40.741
40.734
40.685
40.598
40.479
40.335
40.172
39.993
39.803
39.607
39.409
39.213
39.019
38.832
38.655
38.491
38.341
38.208
38.09
37.989
37.901
37.824
37.757
37.696
37.64
37.587
37.537
37.486
37.435
37.382
37.327
37.269
37.207
37.14
37.066
36.983
36.892
36.792
36.684
36.568
36.445
36.315
36.18
36.043
35.905
35.767
35.633
35.503
35.382
35.27
35.17
35.084
35.012
34.953
34.907
34.873
34.852
34.841
34.841
34.849
34.865
34.888
34.918
34.952
34.989
35.027
35.063
35.098
35.128
35.153
35.173
35.186
35.191
35.188
35.177
35.158
35.13
35.095
35.053
35.005
34.952
34.896
34.838
34.777
34.713
34.648
34.581
34.513
34.445
34.378
34.312
34.249
34.187
34.126
34.066
34.007
33.95
33.894
33.837
33.779
33.721
33.663
33.605
33.549
33.494
33.441
33.39
33.342
33.298
33.258
33.222
33.188
33.159
33.133
33.112
33.095
33.083
33.075
33.07
33.068
33.068
33.069
33.071
33.074
33.075
33.075
33.071
33.063
33.052
33.039
33.024
33.009
32.993
32.977
32.963
32.951
32.941
32.934
32.927
32.921
32.915
32.91
32.905
32.9
32.895
32.89
32.884
32.878
32.872
32.865
32.86
32.853
32.847
32.839
32.828
32.816
32.802
32.787
32.77
32.751
32.731
32.711
32.691
32.675
32.661
32.65
32.641
32.633
32.628
32.625
32.626
32.633
32.647
32.67
32.705
32.755
32.823
32.912
33.027
33.17
33.347
33.56
33.812
34.105
34.438
34.809
35.215
35.651
36.11
36.584
37.061
37.533
37.989
38.422
38.822
39.182
39.497
39.762
39.975
40.137
40.247
40.308
40.322
40.293
40.225
40.126
39.998
39.849
39.683
39.505
39.319
39.129
38.939
38.753
38.57
38.395
38.227
38.067
37.918
37.777
37.646
37.523
37.408
37.302
37.203
37.113
37.028
36.95
36.875
36.804
36.735
36.667
36.598
36.526
36.452
36.374
36.292
36.205
36.113
36.014
35.909
35.8
35.689
35.576
35.462
35.35
35.241
35.135
35.037
34.947
34.867
34.796
34.737
34.689
34.654
34.631
34.619
34.618
34.625
34.641
34.663
34.691
34.723
34.758
34.793
34.829
34.864
34.896
34.923
34.946
34.961
34.972
34.978
34.979
34.975
34.967
34.954
34.936
34.912
34.88
34.842
34.797
34.746
34.689
34.625
34.557
34.486
34.415
34.345
34.277
34.212
34.151
34.093
34.039
33.989
33.941
33.894
33.848
33.802
33.757
33.712
33.666
33.62
33.573
33.525
33.478
33.433
33.39
33.349
33.312
33.278
33.248
33.221
33.198
33.179
33.164
33.151
33.141
33.132
33.126
33.122
33.121
33.123
33.125
33.128
33.129
33.13
33.129
33.127
33.124
33.119
33.111
33.1
33.086
33.07
33.053
33.036
33.019
33.001
32.986
32.971
32.958
32.946
32.936
32.927
32.919
32.912
32.905
32.898
32.89
32.882
32.873
32.864
32.855
32.847
32.842
32.84
32.845
32.856
32.878
32.913
32.963
33.031
33.121
33.237
33.382
33.561
33.778
34.036
34.335
34.675
35.054
35.469
35.913
36.379
36.857
37.337
37.811
38.268
38.701
39.101
39.46
39.774
40.036
40.244
40.396
40.495
40.542
40.542
40.501
40.422
40.313
40.177
40.022
39.851
39.67
39.483
39.293
39.103
38.917
38.736
38.563
38.398
38.242
38.095
37.958
37.832
37.717
37.613
37.519
37.433
37.356
37.286
37.221
37.159
37.098
37.034
36.969
36.899
36.825
36.745
36.659
36.567
36.468
36.363
36.253
36.139
36.02
35.898
35.775
35.653
35.534
35.421
35.313
35.214
35.125
35.047
34.982
34.93
34.891
34.865
34.849
34.844
34.848
34.859
34.876
34.898
34.923
34.949
34.976
35.003
35.028
35.052
35.072
35.089
35.1
35.106
35.105
35.097
35.082
35.06
35.03
34.995
34.955
34.91
34.862
34.811
34.759
34.707
34.655
34.603
34.551
34.498
34.445
34.391
34.337
34.281
34.222
34.16
34.094
34.025
33.954
33.882
33.81
33.739
33.671
33.605
33.543
33.485
33.432
33.385
33.343
33.306
33.275
33.249
33.228
33.211
33.197
33.185
33.174
33.165
33.158
33.153
33.149
33.145
33.141
33.136
33.128
33.119
33.109
33.097
33.084
33.07
33.054
33.037
33.019
33.002
32.988
32.977
32.97
32.967
32.968
32.972
32.98
32.991
33.003
33.016
33.03
33.045
33.059
33.071
33.082
33.088
33.089
33.086
33.077
33.064
33.048
33.032
33.014
32.995
32.977
32.96
32.946
32.935
32.93
32.934
32.953
32.993
33.059
33.156
33.288
33.456
33.659
33.901
34.182
34.503
34.865
35.265
35.699
36.161
36.642
37.132
37.619
38.093
38.542
38.959
39.335
39.665
39.944
40.169
40.34
40.458
40.525
40.545
40.521
40.459
40.365
40.247
40.11
39.96
39.802
39.639
39.476
39.314
39.154
39.0
38.85
38.708
38.572
38.444
38.324
38.211
38.107
38.01
37.919
37.834
37.752
37.674
37.598
37.524
37.451
37.377
37.301
37.221
37.137
37.049
36.955
36.858
36.758
36.654
36.546
36.436
36.323
36.21
36.096
35.983
35.873
35.767
35.666
35.572
35.486
35.407
35.336
35.274
35.22
35.174
35.136
35.106
35.082
35.065
35.052
35.044
35.039
35.038
35.04
35.044
35.049
35.055
35.06
35.065
35.07
35.072
35.073
35.071
35.067
35.062
35.052
35.039
35.02
34.996
34.968
34.934
34.896
34.853
34.802
34.745
34.683
34.616
34.547
34.475
34.4
34.324
34.245
34.166
34.088
34.012
33.937
33.866
33.8
33.739
33.684
33.634
33.59
33.551
33.515
33.482
33.452
33.423
33.397
33.374
33.354
33.335
33.318
33.3
33.283
33.266
33.248
33.229
33.206
33.181
33.153
33.124
33.097
33.07
33.044
33.02
32.997
32.977
32.96
32.947
32.94
32.938
32.939
32.944
32.951
32.96
32.972
32.986
33.001
33.017
33.033
33.049
33.063
33.075
33.084
33.089
33.088
33.081
33.07
33.056
33.039
33.019
32.999
32.978
32.958
32.939
32.922
32.907
32.895
32.887
32.881
32.879
32.881
32.887
32.9
32.917
32.941
32.973
33.014
33.068
33.137
33.224
33.332
33.463
33.623
33.815
34.043
34.31
34.616
34.96
35.342
35.755
36.192
36.646
37.107
37.565
38.011
38.435
38.827
39.182
39.494
39.759
39.976
40.143
40.261
40.332
40.36
40.349
40.301
40.222
40.116
39.987
39.841
39.682
39.514
39.34
39.163
38.986
38.811
38.642
38.481
38.329
38.188
38.057
37.936
37.826
37.724
37.629
37.542
37.461
37.387
37.319
37.258
37.203
37.152
37.103
37.056
37.007
36.955
36.899
36.837
36.769
36.693
36.609
36.517
36.416
36.307
36.191
36.071
35.947
35.823
35.701
35.582
35.468
35.361
35.264
35.177
35.101
35.038
34.987
34.951
34.928
34.918
34.921
34.933
34.954
34.981
35.016
35.054
35.094
35.134
35.17
35.202
35.228
35.248
35.26
35.264
35.257
35.239
35.212
35.177
35.134
35.085
35.03
34.971
34.91
34.849
34.793
34.746
34.707
34.674
34.645
34.614
34.578
34.533
34.48
34.417
34.347
34.27
34.187
34.101
34.013
33.924
33.836
33.751
33.672
33.598
33.529
33.465
33.407
33.355
33.309
33.27
33.238
33.213
33.195
33.181
33.17
33.163
33.158
33.154
33.152
33.151
33.151
33.151
33.151
33.151
33.152
33.152
33.15
33.147
33.144
33.139
33.134
33.129
33.122
33.115
33.106
33.096
33.084
33.072
33.06
33.05
33.04
33.031
33.021
33.011
33.002
32.993
32.984
32.975
32.964
32.951
32.937
32.922
32.906
32.891
32.876
32.863
32.852
32.844
32.841
32.845
32.858
32.884
32.924
32.983
33.062
33.167
33.301
33.468
33.67
33.91
34.189
34.507
34.862
35.249
35.664
36.097
36.541
36.986
37.423
37.843
38.236
38.594
38.911
39.181
39.4
39.567
39.682
39.747
39.763
39.737
39.672
39.576
39.454
39.312
39.156
38.991
38.82
38.646
38.474
38.306
38.144
37.99
37.843
37.704
37.572
37.447
37.328
37.215
37.106
37.002
36.903
36.809
36.72
36.636
36.556
36.48
36.404
36.33
36.256
36.18
36.102
36.019
35.931
35.837
35.739
35.637
35.533
35.429
35.327
35.229
35.135
35.049
34.97
34.9
34.839
34.787
34.743
34.708
34.681
34.664
34.657
34.659
34.669
34.687
34.711
34.741
34.776
34.814
34.853
34.891
34.927
34.961
34.993
35.02
35.041
35.056
35.065
35.066
35.062
35.052
35.038
35.02
34.997
34.971
34.941
34.907
34.868
34.823
34.773
34.718
34.659
34.596
34.529
34.458
34.384
34.307
34.227
34.145
34.063
33.98
33.898
33.817
33.737
33.659
33.584
33.514
33.449
33.391
33.34
33.295
33.258
33.227
33.203
33.184
33.168
33.155
33.143
33.134
33.125
33.117
33.11
33.102
33.094
33.085
33.078
33.071
33.066
33.062
33.058
33.055
33.052
33.05
33.05
33.051
33.053
33.055
33.058
33.061
33.065
33.071
33.079
33.088
33.097
33.107
33.117
33.126
33.133
33.139
33.141
33.139
33.135
33.127
33.117
33.103
33.087
33.068
33.046
33.023
32.999
32.976
32.956
32.94
32.931
32.93
32.941
32.967
33.012
33.08
33.174
33.298
33.461
33.669
33.923
34.221
34.562
34.939
35.35
35.786
36.24
36.704
37.168
37.622
38.059
38.469
38.847
39.185
39.479
39.725
39.92
40.064
40.16
40.209
40.217
40.186
40.122
40.031
39.916
39.783
39.635
39.478
39.314
39.147
38.981
38.817
38.659
38.509
38.367
38.236
38.114
38.002
37.898
37.803
37.715
37.632
37.553
37.478
37.405
37.334
37.265
37.195
37.126
37.054
36.98
36.902
36.819
36.732
36.64
36.542
36.438
36.33
36.219
36.106
35.993
35.88
35.769
35.661
35.558
35.46
35.369
35.285
35.208
35.138
35.075
35.021
34.975
34.938
34.908
34.886
34.87
34.861
34.857
34.859
34.866
34.877
34.893
34.911
34.933
34.956
34.98
35.003
35.024
35.043
35.058
35.068
35.075
35.076
35.072
35.061
35.043
35.018
34.985
34.946
34.901
34.85
34.792
34.73
34.663
34.592
34.518
34.442
34.364
34.286
34.21
34.137
34.067
33.999
33.933
33.869
33.808
33.75
33.696
33.647
33.601
33.558
33.519
33.482
33.449
33.419
33.391
33.365
33.337
33.309
33.281
33.253
33.225
33.199
33.173
33.149
33.127
33.106
33.087
33.071
33.058
33.049
33.043
33.04
33.039
33.042
33.048
33.056
33.067
33.078
33.09
33.102
33.114
33.124
33.133
33.138
33.14
33.138
33.134
33.127
33.116
33.103
33.087
33.07
33.051
33.032
33.014
32.997
32.981
32.966
32.953
32.942
32.934
32.931
32.931
32.934
32.94
32.95
32.965
32.986
33.015
33.053
33.103
33.167
33.249
33.351
33.478
33.633
33.82
34.04
34.297
34.591
34.922
35.287
35.683
36.101
36.535
36.977
37.419
37.852
38.266
38.653
39.008
39.322
39.594
39.818
39.994
40.122
40.205
40.243
40.242
40.204
40.135
40.04
39.925
39.792
39.648
39.494
39.335
39.174
39.012
38.852
38.696
38.545
38.401
38.267
38.142
38.026
37.92
37.823
37.734
37.652
37.578
37.51
37.448
37.39
37.334
37.281
37.227
37.171
37.111
37.045
36.972
36.893
36.807
36.714
36.614
36.508
36.397
36.283
36.168
36.052
35.936
35.819
35.7
35.582
35.464
35.351
35.245
35.15
35.068
35.002
34.953
34.922
34.907
34.907
34.921
34.945
34.976
35.013
35.051
35.087
35.119
35.147
35.17
35.188
35.201
35.208
35.209
35.203
35.19
35.172
35.147
35.116
35.08
35.038
34.992
34.942
34.89
34.836
34.781
34.724
34.664
34.602
34.539
34.475
34.409
34.343
34.275
34.207
34.139
34.073
34.007
33.943
33.88
33.819
33.76
33.702
33.646
33.593
33.542
33.494
33.447
33.402
33.359
33.318
33.28
33.247
33.219
33.195
33.176
33.162
33.152
33.146
33.143
33.141
33.14
33.14
33.141
33.141
33.141
33.14
33.138
33.135
33.131
33.124
33.116
33.106
33.095
33.082
33.068
33.053
33.037
33.023
33.011
33.002
32.995
32.991
32.987
32.985
32.985
32.988
32.993
32.998
33.005
33.011
33.018
33.024
33.029
33.033
33.034
33.032
33.027
33.017
33.002
32.984
32.963
32.94
32.915
32.889
32.865
32.844
32.826
32.814
32.807
32.807
32.816
32.837
32.873
32.927
33.001
33.096
33.216
33.362
33.539
33.748
33.992
34.273
34.589
34.941
35.325
35.735
36.167
36.611
37.062
37.509
37.945
38.36
38.748
39.1
39.41
39.675
39.891
40.058
40.176
40.245
40.268
40.249
40.195
40.11
39.999
39.869
39.722
39.564
39.401
39.235
39.071
38.909
38.753
38.605
38.465
38.336
38.217
38.109
38.01
37.919
37.837
37.762
37.693
37.629
37.567
37.506
37.446
37.385
37.321
37.254
37.181
37.103
37.02
36.933
36.839
36.741
36.637
36.53
36.418
36.304
36.189
36.073
35.957
35.841
35.727
35.616
35.51
35.41
35.317
35.231
35.153
35.085
35.027
34.979
34.941
34.914
34.897
34.89
34.893
34.905
34.924
34.948
34.977
35.009
35.042
35.073
35.102
35.126
35.145
35.16
35.169
35.173
35.169
35.159
35.14
35.113
35.08
35.041
34.996
34.944
34.885
34.823
34.756
34.687
34.616
34.545
34.474
34.404
34.336
34.27
34.207
34.145
34.085
34.028
33.974
33.922
33.871
33.822
33.774
33.726
33.677
33.628
33.58
33.534
33.491
33.451
33.414
33.379
33.345
33.314
33.285
33.258
33.234
33.212
33.193
33.177
33.164
33.154
33.146
33.141
33.139
33.139
33.142
33.148
33.164
33.194
33.237
33.289
33.346
33.399
33.445
33.479
33.5
33.508
33.502
33.484
33.455
33.419
33.378
33.333
33.288
33.246
33.209
33.178
33.155
33.139
33.129
33.124
33.122
33.123
33.125
33.129
33.132
33.134
33.134
33.133
33.129
33.122
33.113
33.101
33.088
33.072
