Trial 1:0back
39.371
40.057
40.704
41.297
41.828
42.291
42.679
42.991
43.227
43.39
43.484
43.514
43.487
43.409
43.287
43.129
42.941
42.729
42.501
42.263
42.018
41.772
41.527
41.284
41.045
40.811
40.584
40.363
40.149
39.938
39.732
39.528
39.328
39.13
38.936
38.745
38.559
38.377
38.199
38.027
37.859
37.695
37.534
37.377
37.222
37.069
36.918
36.768
36.619
36.471
36.323
36.175
36.028
35.883
35.742
35.606
35.477
35.357
35.247
35.151
35.069
35.004
34.958
34.93
34.922
34.934
34.965
35.015
35.082
35.163
35.258
35.363
35.475
35.591
35.709
35.828
35.949
36.07
36.189
36.303
36.407
36.498
36.572
36.628
36.666
36.685
36.687
36.674
36.646
36.605
36.555
36.494
36.425
36.35
36.269
36.183
36.091
35.995
35.892
35.785
35.672
35.555
35.433
35.308
35.18
35.052
34.924
34.797
34.671
34.548
34.426
34.307
34.189
34.073
33.958
33.843
33.731
33.62
33.512
33.406
33.303
33.203
33.105
33.01
32.919
32.832
32.749
32.671
32.597
32.529
32.464
32.402
32.343
32.288
32.237
32.189
32.144
32.102
32.063
32.027
31.995
31.968
31.945
31.926
31.91
31.896
31.885
31.875
31.866
31.859
31.854
31.851
31.851
31.853
31.857
31.863
31.87
31.88
31.892
31.908
31.927
31.948
31.97
31.994
32.018
32.043
32.067
32.09
32.113
32.136
32.159
32.181
32.202
32.222
32.239
32.255
32.27
32.283
32.295
32.307
32.319
32.329
32.338
32.348
32.359
32.37
32.38
32.385
32.385
32.38
32.368
32.349
32.324
32.293
32.256
32.214
32.17
32.125
32.081
32.039
32.001
31.97
31.95
31.945
31.961
32.004
32.081
32.199
32.368
32.597
32.891
33.258
33.699
34.215
34.8
35.447
36.145
36.881
37.64
38.406
39.161
39.89
40.58
41.217
41.792
42.298
42.728
43.081
43.354
43.55
43.672
43.724
43.713
43.645
43.528
43.372
43.184
42.973
42.746
42.507
42.262
42.013
41.763
41.514
41.267
41.025
40.788
40.556
40.329
40.107
39.89
39.678
39.469
39.263
39.059
38.858
38.659
38.464
38.273
38.085
37.902
37.723
37.546
37.372
37.2
37.03
36.859
36.688
36.518
36.349
36.184
36.024
35.872
35.73
35.598
35.478
35.371
35.278
35.201
35.14
35.093
35.06
35.041
35.033
35.037
35.051
35.075
35.108
35.148
35.199
35.259
35.33
35.413
35.506
35.606
35.714
35.825
35.937
36.049
36.156
36.257
36.348
36.428
36.494
36.545
36.58
36.599
36.603
36.59
36.563
36.521
36.466
36.399
36.324
36.241
36.152
36.057
35.958
35.856
35.751
35.645
35.537
35.429
35.321
35.213
35.104
34.995
34.885
34.772
34.656
34.537
34.416
34.291
34.165
34.037
33.909
33.783
33.659
33.537
33.42
33.306
33.196
33.089
32.984
32.881
32.78
32.681
32.586
32.494
32.407
32.324
32.247
32.175
32.11
32.052
32.001
31.956
31.918
31.884
31.854
31.828
31.805
31.785
31.768
31.753
31.741
31.731
31.722
31.715
31.708
31.701
31.696
31.691
31.689
31.689
31.691
31.696
31.703
31.711
31.72
31.729
31.738
31.747
31.756
31.765
31.775
31.786
31.799
31.814
31.831
31.849
31.869
31.89
31.909
31.928
31.945
31.961
31.975
31.987
31.996
32.003
32.008
32.013
32.017
32.022
32.028
32.033
32.038
32.044
32.048
32.051
32.049
32.043
32.033
32.019
32.002
31.982
31.96
31.938
31.917
31.897
31.878
31.861
31.844
31.826
31.808
31.786
31.761
31.731
31.698
31.663
31.626
31.591
31.561
31.538
31.527
31.535
31.567
31.629
31.731
31.879
32.084
32.352
32.692
33.108
33.6
34.166
34.802
35.499
36.243
37.022
37.819
38.617
39.4
40.151
40.858
41.506
42.086
42.59
43.012
43.351
43.607
43.782
43.883
43.914
43.883
43.798
43.668
43.501
43.304
43.086
42.851
42.605
42.352
42.096
41.838
41.58
41.323
41.067
40.811
40.556
40.301
40.047
39.792
39.537
39.283
39.031
38.782
38.537
38.3
38.069
37.846
37.631
37.424
37.227
37.038
36.857
36.684
36.517
36.357
36.203
36.054
35.909
35.767
35.63
35.498
35.37
35.249
35.136
35.032
34.941
34.863
34.801
34.757
34.732
34.725
34.737
34.769
34.817
34.883
34.963
35.055
35.158
35.268
35.384
35.505
35.629
35.755
35.881
36.006
36.129
36.247
36.359
36.463
36.557
36.639
36.709
36.765
36.806
36.831
36.84
36.833
36.809
36.77
36.715
36.647
36.566
36.476
36.377
36.272
36.162
36.047
35.931
35.814
35.696
35.577
35.459
35.339
35.219
35.096
34.97
34.841
34.709
34.576
34.442
34.308
34.177
34.048
33.923
33.804
33.692
33.584
33.482
33.385
33.292
33.203
33.115
33.029
32.942
32.856
32.77
32.685
32.601
32.519
32.441
32.368
32.301
32.24
32.187
32.139
32.098
32.062
32.03
32.001
31.974
31.949
31.926
31.905
31.888
31.873
31.863
31.858
31.857
31.861
31.865
31.863
31.854
31.839
31.821
31.801
31.785
31.774
31.772
31.78
31.799
31.829
31.869
31.919
31.976
32.038
32.104
32.17
32.236
32.298
32.355
32.404
32.446
32.481
32.508
32.528
32.542
32.551
32.555
32.556
32.553
32.548
32.539
32.527
32.513
32.496
32.477
32.455
32.43
32.401
32.369
32.335
32.3
32.264
32.231
32.199
32.171
32.148
32.129
32.116
32.114
32.124
32.153
32.208
32.295
32.423
32.599
32.831
33.126
33.486
33.916
34.415
34.978
35.599
36.267
36.971
37.696
38.426
39.146
39.842
40.501
41.111
41.663
42.149
42.565
42.907
43.176
43.371
43.497
43.556
43.555
43.498
43.395
43.25
43.073
42.87
42.647
42.411
42.164
41.913
41.66
41.407
41.155
40.905
40.656
40.408
40.161
39.915
39.668
39.421
39.173
38.922
38.67
38.417
38.164
37.912
37.663
37.417
37.176
36.94
36.713
36.492
36.279
36.074
35.876
35.685
35.502
35.326
35.159
35.0
34.85
34.711
34.582
34.466
34.364
34.278
34.208
34.158
34.126
34.115
34.125
34.157
34.209
34.282
34.373
34.482
34.606
34.743
34.889
35.043
35.2
35.36
35.519
35.675
35.825
35.969
36.103
36.225
36.335
36.43
36.51
36.574
36.623
36.658
36.678
36.684
36.678
36.659
36.627
36.583
36.526
36.457
36.376
36.282
36.175
36.057
35.93
35.797
35.658
35.515
35.37
35.224
35.077
34.932
34.789
34.648
34.51
34.376
34.246
34.119
33.994
33.872
33.751
33.631
33.51
33.39
33.27
33.152
33.035
32.922
32.813
32.709
32.61
32.515
32.425
32.339
32.256
32.177
32.101
32.029
31.96
31.895
31.833
31.776
31.723
31.676
31.634
31.598
31.567
31.542
31.521
31.504
31.491
31.48
31.471
31.462
31.455
31.45
31.446
31.445
31.446
31.452
31.461
31.476
31.496
31.52
31.55
31.583
31.621
31.66
31.701
31.741
31.778
31.812
31.842
31.868
31.889
31.908
31.923
31.937
31.95
31.961
31.97
31.977
31.983
31.986
31.987
31.985
31.981
31.974
31.966
31.958
31.95
31.944
31.944
31.952
31.973
32.012
32.076
32.17
32.305
32.488
32.728
33.033
33.408
33.857
34.381
34.976
35.635
36.345
37.094
37.864
38.641
39.407
40.147
40.847
41.493
42.075
42.584
43.015
43.366
43.637
43.83
43.949
44.001
43.993
43.932
43.826
43.681
43.506
43.305
43.086
42.852
42.609
42.359
42.105
41.848
41.59
41.332
41.076
40.821
40.569
40.321
40.076
39.834
39.595
39.359
39.125
38.894
38.666
38.441
38.219
38.001
37.786
37.575
37.366
37.16
36.957
36.758
36.562
36.37
36.182
35.998
35.819
35.646
35.48
35.323
35.176
35.042
34.92
34.813
34.721
34.644
34.583
34.539
34.512
34.501
34.506
34.526
34.56
34.608
34.669
34.743
34.829
34.926
35.033
35.148
35.27
35.396
35.524
35.652
35.777
35.897
36.01
36.115
36.208
36.291
36.361
36.418
36.463
36.494
36.511
36.515
36.505
36.483
36.446
36.397
36.335
36.262
36.178
36.084
35.984
35.878
35.769
35.656
35.54
35.42
35.295
35.165
35.03
34.892
34.749
34.604
34.458
34.313
34.168
34.025
33.885
33.747
33.614
33.484
33.359
33.238
33.122
33.01
32.903
32.802
32.705
32.613
32.524
32.438
32.355
32.276
32.201
32.13
32.063
32.001
31.943
31.89
31.841
31.796
31.754
31.714
31.677
31.641
31.608
31.576
31.547
31.521
31.496
31.474
31.455
31.441
31.433
31.432
31.435
31.441
31.449
31.458
31.467
31.475
31.484
31.494
31.504
31.517
31.532
31.55
31.571
31.593
31.617
31.642
31.668
31.693
31.717
31.741
31.764
31.786
31.808
31.829
31.849
31.869
31.889
31.908
31.928
31.947
31.963
31.976
31.984
31.987
31.985
31.978
31.967
31.951
31.933
31.913
31.892
31.872
31.853
31.836
31.822
31.812
31.809
31.817
31.84
31.885
31.961
32.075
32.237
32.456
32.741
33.101
33.539
34.057
34.652
35.317
36.043
36.814
37.615
38.429
39.238
40.024
40.773
41.47
42.103
42.663
43.143
43.541
43.855
44.086
44.238
44.318
44.331
44.286
44.189
44.048
43.87
43.662
43.433
43.187
42.93
42.666
42.398
42.127
41.856
41.584
41.315
41.048
40.784
40.524
40.268
40.017
39.772
39.532
39.296
39.065
38.839
38.617
38.398
38.181
37.966
37.754
37.544
37.339
37.137
36.938
36.744
36.555
36.372
36.193
36.021
35.853
35.692
35.537
35.39
35.252
35.125
35.009
34.907
34.819
34.747
34.691
34.652
34.629
34.624
34.634
34.662
34.706
34.767
34.845
34.939
35.048
35.17
35.302
35.441
35.584
35.728
35.87
36.008
36.141
36.264
36.377
36.478
36.563
36.633
36.686
36.722
36.741
36.746
36.745
36.74
36.73
36.713
36.686
36.646
36.593
36.526
36.444
36.347
36.236
36.112
35.977
35.831
35.676
35.513
35.344
35.173
35.001
34.829
34.66
34.495
34.336
34.185
34.04
33.902
33.771
33.647
33.528
33.414
33.304
33.195
33.088
32.982
32.877
32.774
32.673
32.574
32.479
32.389
32.304
32.225
32.153
32.089
32.032
31.98
31.934
31.892
31.853
31.814
31.775
31.737
31.699
31.662
31.625
31.588
31.553
31.52
31.488
31.459
31.432
31.408
31.388
31.371
31.358
31.348
31.341
31.337
31.335
31.336
31.34
31.346
31.355
31.367
31.38
31.396
31.413
31.43
31.448
31.466
31.486
31.507
31.531
31.558
31.589
31.623
31.66
31.698
31.738
31.776
31.813
31.848
31.879
31.906
31.929
31.948
31.964
31.977
31.987
31.994
31.999
32.0
31.998
31.995
31.988
31.977
31.962
31.942
31.918
31.89
31.86
31.827
31.791
31.754
31.716
31.679
31.642
31.606
31.573
31.542
31.514
31.49
31.472
31.461
31.462
31.477
31.513
31.576
31.671
31.81
31.999
32.249
32.569
32.964
33.439
33.995
34.629
35.335
36.101
36.914
37.757
38.612
39.461
40.287
41.072
41.802
42.464
43.049
43.551
43.964
44.289
44.528
44.684
44.763
44.773
44.722
44.618
44.471
44.288
44.078
43.846
43.6
43.343
43.08
42.812
42.542
42.273
42.004
41.737
41.472
41.208
40.945
40.682
40.42
40.158
39.897
39.637
39.378
39.12
38.863
38.608
38.357
38.11
37.868
37.631
37.398
37.172
36.951
36.736
36.53
36.331
36.141
35.96
35.79
35.63
35.482
35.346
35.224
35.115
35.02
34.938
34.868
34.81
34.764
34.729
34.707
34.7
34.708
34.733
34.775
34.836
34.914
35.01
35.121
35.246
35.381
35.523
35.669
35.816
35.962
36.103
36.238
36.364
36.478
36.579
36.664
36.733
36.785
36.817
36.831
36.826
36.805
36.767
36.715
36.65
36.574
36.488
36.394
36.293
36.185
36.073
35.957
35.837
35.716
35.593
35.469
35.342
35.215
35.086
34.958
34.828
34.697
34.566
34.434
34.3
34.165
34.03
33.896
33.762
33.63
33.502
33.378
33.261
33.15
33.046
32.949
32.857
32.77
32.687
32.607
32.529
32.454
32.379
32.306
32.234
32.162
32.092
32.024
31.957
31.893
31.831
31.773
31.72
31.672
31.632
31.6
31.574
31.554
31.54
31.531
31.527
31.527
31.531
31.538
31.548
31.56
31.573
31.587
31.602
31.616
31.63
31.642
31.654
31.664
31.674
31.682
31.69
31.697
31.705
31.715
31.73
31.75
31.775
31.805
31.839
31.874
31.911
31.946
31.979
32.008
32.032
32.052
32.067
32.078
32.085
32.09
32.093
32.096
32.1
32.102
32.104
32.103
32.1
32.094
32.084
32.068
32.048
32.023
31.992
31.957
31.918
31.878
31.837
31.8
31.767
31.74
31.722
31.715
31.722
31.745
31.791
31.864
31.972
32.126
32.332
32.601
32.94
33.353
33.844
34.413
35.057
35.768
36.532
37.335
38.159
38.984
39.791
40.565
41.288
41.947
42.531
43.034
43.45
43.779
44.02
44.179
44.261
44.273
44.223
44.119
43.97
43.784
43.568
43.328
43.071
42.802
42.525
42.244
41.962
41.682
41.404
41.128
40.854
40.583
40.315
40.049
39.786
39.527
39.271
39.019
38.771
38.528
38.289
38.055
37.827
37.603
37.385
37.171
36.962
36.756
36.553
36.355
36.159
35.968
35.781
35.601
35.427
35.261
35.106
34.961
34.83
34.713
34.61
34.524
34.454
34.401
34.368
34.353
34.358
34.38
34.422
34.481
34.558
34.65
34.757
34.878
35.011
35.156
35.311
35.474
35.643
35.813
35.983
36.148
36.305
36.453
36.586
36.704
36.805
36.886
36.948
36.99
37.01
37.01
36.989
36.949
36.893
36.822
36.739
36.645
36.544
36.436
36.324
36.21
36.095
35.979
35.862
35.743
35.621
35.496
35.367
35.234
35.096
34.956
34.813
34.669
34.526
34.383
34.243
34.106
33.974
33.848
33.726
33.609
33.496
33.386
33.279
33.175
33.072
32.973
32.876
32.782
32.693
32.608
32.529
32.455
32.388
32.328
32.275
32.227
32.186
32.148
32.113
32.08
32.049
32.021
31.996
31.976
31.96
31.948
31.942
31.941
31.943
31.949
31.956
31.965
31.973
31.98
31.986
31.99
31.992
31.994
31.996
31.998
32.001
32.004
32.009
32.015
32.022
32.029
32.035
32.043
32.05
32.06
32.073
32.093
32.123
32.167
32.231
32.321
32.445
32.609
32.821
33.086
33.41
33.795
34.24
34.745
35.304
35.911
36.555
37.225
37.909
38.592
39.263
39.909
40.518
41.079
41.585
42.03
42.41
42.722
42.965
43.141
43.252
43.3
43.291
43.227
43.117
42.968
42.787
42.581
42.357
42.12
41.874
41.623
41.368
41.112
40.857
40.605
40.355
40.109
39.866
39.624
39.383
39.142
38.9
38.658
38.416
38.174
37.933
37.694
37.459
37.228
37.001
36.779
36.562
36.351
36.145
35.943
35.747
35.556
35.368
35.185
35.007
34.836
34.671
34.514
34.368
34.231
34.108
33.998
33.903
33.827
33.773
33.746
33.747
33.776
33.831
33.91
34.01
34.126
34.257
34.398
34.546
34.699
34.852
35.003
35.151
35.293
35.429
35.558
35.681
35.796
35.902
36.001
36.09
36.17
36.24
36.299
36.347
36.382
36.403
36.411
36.403
36.381
36.343
36.288
36.218
36.132
36.032
35.919
35.795
35.661
35.519
35.373
35.224
35.075
34.927
34.782
34.639
34.499
34.363
34.228
34.094
33.952
33.802
33.644
33.481
33.317
33.156
33.001
32.856
32.723
32.604
32.497
32.405
32.326
32.258
32.198
32.146
32.097
32.05
32.002
31.954
31.904
31.855
31.805
31.757
31.709
31.664
31.621
31.581
31.544
31.511
31.482
31.459
31.441
31.428
31.419
31.414
31.411
31.409
31.409
31.41
31.413
31.417
31.422
31.429
31.438
31.447
31.458
31.47
31.482
31.493
31.503
31.511
31.519
31.526
31.536
31.548
31.565
31.587
31.616
31.656
31.711
31.787
31.89
32.029
32.211
32.446
32.74
33.1
33.53
34.031
34.602
35.238
35.928
36.662
37.425
38.2
38.971
39.722
40.44
41.11
41.721
42.265
42.736
43.13
43.444
43.681
43.842
43.933
43.958
43.925
43.841
43.713
43.548
43.354
43.136
42.902
42.655
42.399
42.138
41.875
41.612
41.352
41.096
40.844
40.597
40.355
40.118
39.884
39.656
39.432
39.211
38.993
38.778
38.565
38.354
38.144
37.936
37.73
37.525
37.321
37.117
36.914
36.712
36.513
36.317
36.125
35.938
35.757
35.584
35.421
35.268
35.128
35.002
34.891
34.795
34.714
34.647
34.595
34.556
34.531
34.52
34.524
34.543
34.577
34.626
34.69
34.769
34.862
34.968
35.086
35.214
35.353
35.504
35.666
35.834
36.001
36.161
36.309
36.439
36.546
36.63
36.687
36.719
36.724
36.704
36.662
36.601
36.524
36.436
36.339
36.237
36.132
36.026
35.92
35.815
35.711
35.609
35.507
35.405
35.301
35.193
35.083
34.967
34.847
34.723
34.595
34.464
34.332
34.197
34.061
33.923
33.784
33.643
33.503
33.365
33.227
33.092
32.959
32.829
32.702
32.579
32.459
32.345
32.236
32.131
32.03
31.934
31.842
31.755
31.675
31.602
31.537
31.48
31.433
31.395
31.366
31.344
31.329
31.32
31.315
31.315
31.317
31.322
31.327
31.331
31.336
31.341
31.346
31.352
31.358
31.365
31.373
31.38
31.389
31.397
31.406
31.414
31.422
31.43
31.439
31.448
31.458
31.47
31.483
31.496
31.51
31.525
31.538
31.55
31.56
31.567
31.571
31.571
31.568
31.564
31.559
31.555
31.553
31.554
31.558
31.568
31.586
31.612
31.651
31.707
31.784
31.89
32.031
32.217
32.456
32.756
33.123
33.562
34.074
34.655
35.301
36.001
36.745
37.517
38.303
39.086
39.849
40.578
41.258
41.877
42.428
42.903
43.3
43.617
43.856
44.021
44.116
44.147
44.122
44.046
43.927
43.773
43.59
43.384
43.16
42.923
42.678
42.426
42.172
41.917
41.663
41.41
41.158
40.908
40.659
40.413
40.167
39.923
39.68
39.437
39.194
38.953
38.712
38.473
38.236
38.004
37.776
37.555
37.342
37.138
36.942
36.755
36.575
36.401
36.234
36.072
35.915
35.764
35.619
35.48
35.349
35.227
35.116
35.017
34.93
34.857
34.797
34.751
34.72
34.704
34.705
34.724
34.761
34.815
34.885
34.97
35.067
35.175
35.291
35.413
35.538
35.666
35.794
35.921
36.043
36.158
36.264
36.359
36.441
36.508
36.56
36.595
36.612
36.613
36.597
36.565
36.519
36.458
36.384
36.298
36.203
36.1
35.991
35.877
35.761
35.643
35.524
35.405
35.287
35.168
35.05
34.932
34.814
34.695
34.575
34.454
34.329
34.203
34.074
33.945
33.814
33.685
33.557
33.431
33.31
33.193
33.08
32.971
32.865
32.761
32.66
32.561
32.466
32.374
32.286
32.203
32.125
32.052
31.983
31.919
31.858
31.802
31.75
31.701
31.655
31.612
31.572
31.536
31.503
31.473
31.446
31.424
31.406
31.394
31.387
31.386
31.39
31.399
31.411
31.427
31.443
31.459
31.476
31.492
31.508
31.525
31.542
31.56
31.581
31.604
31.63
31.66
31.692
31.725
31.758
31.79
31.82
31.845
31.867
31.884
31.897
31.905
31.911
31.914
31.916
31.917
31.919
31.92
31.921
31.919
31.915
31.908
31.896
31.882
31.866
31.849
31.832
31.817
31.808
31.809
31.823
31.856
31.914
32.005
32.139
32.324
32.57
32.884
33.271
33.734
34.271
34.879
35.549
36.271
37.031
37.813
38.599
39.374
40.122
40.826
41.476
42.06
42.571
43.003
43.355
43.626
43.818
43.935
43.982
43.965
43.892
43.773
43.615
43.426
43.213
42.984
42.743
42.497
42.25
42.004
41.758
41.514
41.27
41.027
40.783
40.536
40.288
40.038
39.788
39.537
39.287
39.038
38.791
38.547
38.306
38.069
37.835
37.606
37.379
37.157
36.939
36.726
36.519
36.318
36.124
35.937
35.758
35.587
35.423
35.268
35.121
34.985
34.861
34.751
34.656
34.575
34.511
34.462
34.43
34.413
34.411
34.425
34.453
34.495
34.551
34.619
34.699
34.79
34.891
35.0
35.117
35.239
35.365
35.494
35.622
35.749
35.872
35.989
36.097
36.195
36.28
36.352
36.409
36.449
36.472
36.478
36.467
36.439
36.395
36.334
36.258
36.167
36.062
35.946
35.821
35.69
35.557
35.422
35.289
35.158
35.032
34.908
34.788
34.672
34.557
34.443
34.329
34.212
34.092
33.969
33.843
33.714
33.584
33.455
33.327
33.204
33.085
32.972
32.866
32.765
32.67
32.578
32.489
32.403
32.319
32.237
32.159
32.083
32.01
31.941
31.877
31.818
31.764
31.716
31.672
31.632
31.596
31.564
31.535
31.51
31.487
31.467
31.448
31.429
31.411
31.396
31.383
31.373
31.368
31.368
31.372
31.381
31.394
31.409
31.425
31.443
31.46
31.478
31.498
31.519
31.541
31.566
31.592
31.618
31.646
31.675
31.705
31.735
31.766
31.796
31.826
31.853
31.879
31.9
31.919
31.933
31.942
31.947
31.948
31.945
31.938
31.93
31.92
31.911
31.901
31.893
31.885
31.88
31.88
31.886
31.901
31.931
31.981
32.057
32.166
32.318
32.518
32.776
33.097
33.487
33.947
34.477
35.073
35.725
36.425
37.161
37.918
38.681
39.432
40.156
40.837
41.461
42.019
42.502
42.905
43.226
43.466
43.627
