Trial 1:0back
43.279
43.394
43.475
43.524
43.543
43.534
43.5
43.444
43.366
43.271
43.161
43.037
42.904
42.763
42.615
42.462
42.305
42.147
41.986
41.826
41.665
41.506
41.349
41.195
41.045
40.899
40.756
40.616
40.477
40.34
40.203
40.066
39.928
39.787
39.644
39.499
39.351
39.2
39.048
38.896
38.744
38.593
38.447
38.305
38.17
38.042
37.923
37.814
37.715
37.627
37.551
37.486
37.433
37.393
37.364
37.346
37.339
37.342
37.354
37.374
37.401
37.433
37.47
37.511
37.553
37.596
37.639
37.68
37.718
37.753
37.784
37.809
37.827
37.838
37.842
37.839
37.828
37.809
37.783
37.749
37.709
37.66
37.605
37.544
37.477
37.404
37.326
37.244
37.158
37.069
36.976
36.88
36.782
36.681
36.578
36.473
36.366
36.257
36.147
36.037
35.925
35.814
35.702
35.59
35.479
35.367
35.255
35.144
35.033
34.924
34.816
34.71
34.606
34.506
34.408
34.313
34.222
34.134
34.049
33.966
33.885
33.806
33.729
33.653
33.579
33.507
33.437
33.37
33.305
33.243
33.183
33.125
33.069
33.016
32.965
32.915
32.867
32.821
32.777
32.736
32.697
32.66
32.625
32.593
32.562
32.533
32.505
32.479
32.453
32.428
32.404
32.381
32.359
32.336
32.314
32.292
32.269
32.245
32.221
32.196
32.17
32.144
32.118
32.09
32.061
32.033
32.005
31.977
31.951
31.925
31.9
31.877
31.853
31.831
31.808
31.785
31.76
31.735
31.709
31.683
31.655
31.628
31.6
31.572
31.544
31.516
31.488
31.461
31.434
31.406
31.377
31.348
31.319
31.29
31.26
31.23
31.201
31.172
31.144
31.116
31.089
31.063
31.038
31.014
30.99
30.966
30.941
30.917
30.891
30.863
30.834
30.803
30.769
30.734
30.696
30.655
30.613
30.569
30.524
30.477
30.43
30.382
30.334
30.287
30.24
30.196
30.154
30.116
30.082
30.053
30.032
30.018
30.015
30.025
30.052
30.099
30.173
30.279
30.424
30.612
30.847
31.132
31.468
31.855
32.289
32.767
33.284
33.833
34.408
35.0
35.602
36.206
36.804
37.39
37.957
38.501
39.017
39.503
39.956
40.373
40.755
41.099
41.406
41.676
41.91
42.109
42.273
42.404
42.502
42.571
42.61
42.623
42.611
42.577
42.523
42.45
42.361
42.256
42.139
42.011
41.873
41.726
41.574
41.416
41.253
41.088
40.921
40.752
40.583
40.416
40.25
40.086
39.926
39.769
39.615
39.465
39.318
39.174
39.03
38.888
38.746
38.603
38.459
38.314
38.168
38.023
37.878
37.735
37.596
37.462
37.335
37.218
37.11
37.015
36.933
36.865
36.811
36.771
36.745
36.732
36.731
36.743
36.765
36.797
36.838
36.886
36.94
36.999
37.06
37.123
37.185
37.245
37.303
37.357
37.406
37.449
37.486
37.517
37.54
37.556
37.564
37.563
37.555
37.539
37.516
37.486
37.449
37.405
37.355
37.298
37.234
37.165
37.09
37.01
36.926
36.838
36.746
36.652
36.555
36.456
36.354
36.251
36.146
36.039
35.931
35.822
35.713
35.602
35.492
35.381
35.271
35.161
35.051
34.942
34.833
34.726
34.619
34.514
34.409
34.307
34.207
34.109
34.014
33.923
33.835
33.751
33.671
33.594
33.52
33.449
33.382
33.318
33.258
33.199
33.144
33.092
33.042
32.995
32.949
32.904
32.861
32.819
32.776
32.734
32.693
32.653
32.614
32.577
32.541
32.508
32.477
32.448
32.421
32.394
32.367
32.34
32.312
32.283
32.252
32.22
32.186
32.151
32.116
32.081
32.047
32.014
31.984
31.957
31.932
31.91
31.891
31.875
31.86
31.847
31.835
31.824
31.812
31.8
31.787
31.773
31.759
31.744
31.73
31.715
31.7
31.684
31.668
31.651
31.631
31.609
31.585
31.558
31.529
31.497
31.464
31.429
31.393
31.354
31.313
31.27
31.225
31.178
31.128
31.076
31.023
30.969
30.915
30.862
30.811
30.763
30.718
30.677
30.641
30.613
30.593
30.586
30.595
30.624
30.678
30.763
30.884
31.046
31.252
31.506
31.808
32.158
32.554
32.993
33.469
33.978
34.513
35.068
35.635
36.208
36.779
37.344
37.894
38.426
38.933
39.413
39.862
40.278
40.66
41.006
41.316
41.59
41.828
42.03
42.198
42.333
42.437
42.511
42.557
42.577
42.572
42.545
42.497
42.43
42.346
42.248
42.137
42.015
41.884
41.745
41.6
41.449
41.295
41.14
40.983
40.827
40.673
40.52
40.369
40.22
40.074
39.929
39.786
39.644
39.504
39.364
39.224
39.084
38.942
38.797
38.65
38.501
38.349
38.197
38.044
37.891
37.742
37.598
37.46
37.33
37.208
37.097
36.997
36.91
36.836
36.775
36.728
36.693
36.671
36.66
36.66
36.669
36.688
36.714
36.748
36.789
36.835
36.885
36.938
36.992
37.047
37.101
37.152
37.2
37.243
37.281
37.312
37.336
37.352
37.359
37.357
37.344
37.321
37.288
37.247
37.196
37.139
37.074
37.004
36.93
36.851
36.768
36.682
36.594
36.503
36.41
36.315
36.219
36.12
36.02
35.918
35.815
35.711
35.607
35.501
35.394
35.286
35.179
35.071
34.964
34.857
34.751
34.646
34.542
34.441
34.341
34.242
34.146
34.051
33.958
33.866
33.777
33.69
33.605
33.524
33.445
33.369
33.295
33.225
33.157
33.091
33.028
32.967
32.908
32.85
32.796
32.743
32.694
32.647
32.602
32.561
32.522
32.484
32.449
32.415
32.38
32.347
32.313
32.278
32.243
32.208
32.172
32.136
32.101
32.065
32.029
31.994
31.959
31.925
31.891
31.858
31.825
31.794
31.764
31.734
31.706
31.678
31.653
31.628
31.605
31.584
31.564
31.546
31.529
31.512
31.496
31.481
31.465
31.449
31.431
31.412
31.391
31.37
31.347
31.324
31.3
31.276
31.252
31.227
31.203
31.179
31.156
31.133
31.109
31.086
31.062
31.039
31.015
30.992
30.969
30.947
30.924
30.902
30.88
30.857
30.834
30.811
30.788
30.764
30.739
30.713
30.685
30.657
30.627
30.597
30.565
30.532
30.498
30.464
30.429
30.394
30.358
30.322
30.285
30.248
30.211
30.173
30.134
30.095
30.056
30.018
29.98
29.945
29.913
29.887
29.868
29.859
29.865
29.889
29.937
30.015
30.129
30.285
30.487
30.74
31.045
31.403
31.814
32.274
32.779
33.322
33.898
34.497
35.114
35.74
36.367
36.989
37.599
38.191
38.762
39.307
39.822
40.304
40.75
41.158
41.527
41.857
42.148
42.4
42.614
42.791
42.932
43.039
43.115
43.162
43.181
43.174
43.144
43.092
43.02
42.931
42.826
42.709
42.58
42.442
42.296
42.144
41.988
41.828
41.667
41.505
41.343
41.183
41.025
40.87
40.718
40.569
40.422
40.278
40.138
39.999
39.864
39.73
39.597
39.464
39.33
39.194
39.056
38.916
38.774
38.632
38.49
38.35
38.212
38.079
37.952
37.832
37.721
37.619
37.528
37.449
37.382
37.328
37.286
37.256
37.237
37.228
37.229
37.239
37.256
37.28
37.309
37.343
37.381
37.421
37.463
37.505
37.547
37.587
37.625
37.659
37.689
37.713
37.731
37.742
37.744
37.738
37.723
37.699
37.667
37.627
37.579
37.524
37.463
37.397
37.326
37.252
37.174
37.093
37.01
36.924
36.836
36.746
36.653
36.557
36.459
36.359
36.257
36.154
36.049
35.943
35.835
35.726
35.615
35.504
35.391
35.279
35.168
35.057
34.948
34.84
34.735
34.632
34.531
34.433
34.337
34.243
34.151
34.062
33.974
33.889
33.806
33.726
33.648
33.572
33.499
33.428
33.359
33.294
33.231
33.171
33.114
33.06
33.008
32.959
32.913
32.87
32.829
32.79
32.753
32.719
32.685
32.653
32.622
32.591
32.561
32.531
32.502
32.474
32.446
32.42
32.394
32.369
32.346
32.323
32.301
32.279
32.258
32.235
32.213
32.189
32.165
32.139
32.112
32.085
32.057
32.028
31.999
31.971
31.943
31.916
31.89
31.864
31.839
31.814
31.79
31.766
31.743
31.72
31.697
31.674
31.652
31.631
31.61
31.59
31.571
31.551
31.532
31.512
31.492
31.472
31.45
31.427
31.403
31.378
31.353
31.326
31.299
31.272
31.245
31.217
31.189
31.16
31.132
31.103
31.074
31.045
31.015
30.985
30.955
30.924
30.893
30.861
30.828
30.795
30.76
30.724
30.686
30.647
30.606
30.564
30.52
30.476
30.432
30.388
30.345
30.302
30.26
30.22
30.183
30.148
30.117
30.09
30.069
30.055
30.051
30.06
30.086
30.134
30.209
30.317
30.465
30.658
30.899
31.193
31.539
31.938
32.385
32.878
33.409
33.973
34.561
35.166
35.779
36.393
37.001
37.595
38.171
38.724
39.248
39.741
40.2
40.624
41.01
41.36
41.672
41.945
42.182
42.381
42.545
42.676
42.774
42.842
42.881
42.894
42.882
42.847
42.793
42.719
42.629
42.524
42.404
42.272
42.129
41.977
41.815
41.647
41.473
41.295
41.114
40.931
40.747
40.564
40.383
40.204
40.029
39.857
39.69
39.526
39.365
39.206
39.048
38.891
38.733
38.575
38.416
38.257
38.098
37.94
37.786
37.636
37.493
37.357
37.232
37.117
37.014
36.925
36.85
36.789
36.743
36.711
36.694
36.692
36.703
36.726
36.762
36.808
36.863
36.926
36.995
37.069
37.146
37.224
37.302
37.379
37.453
37.523
37.587
37.646
37.698
37.742
37.779
37.808
37.827
37.837
37.838
37.83
37.813
37.786
37.752
37.71
37.66
37.605
37.543
37.476
37.404
37.326
37.244
37.157
37.066
36.971
36.873
36.772
36.669
36.563
36.455
36.345
36.233
36.121
36.007
35.892
35.778
35.664
35.55
35.437
35.325
35.214
35.103
34.993
34.883
34.774
34.665
34.558
34.452
34.347
34.244
34.143
34.046
33.952
33.861
33.775
33.692
33.613
33.538
33.466
33.397
33.331
33.268
33.209
33.152
33.1
33.051
33.007
32.966
32.928
32.894
32.861
32.831
32.802
32.774
32.747
32.722
32.698
32.674
32.651
32.629
32.607
32.584
32.56
32.536
32.511
32.485
32.458
32.431
32.402
32.373
32.344
32.315
32.287
32.259
32.233
32.208
32.185
32.163
32.142
32.122
32.104
32.087
32.07
32.055
32.042
32.03
32.021
32.012
32.005
31.999
31.992
31.983
31.972
31.959
31.941
31.92
31.895
31.867
31.835
31.8
31.762
31.722
31.679
31.634
31.587
31.538
31.488
31.437
31.385
31.333
31.28
31.229
31.178
31.129
31.082
31.037
30.996
30.96
30.931
30.911
30.904
30.914
30.946
31.005
31.097
31.227
31.399
31.616
31.881
32.195
32.557
32.965
33.416
33.904
34.424
34.969
35.532
36.106
36.685
37.26
37.826
38.378
38.909
39.415
39.891
40.335
40.745
41.119
41.456
41.756
42.02
42.247
42.44
42.598
42.722
42.814
42.877
42.911
42.918
42.9
42.86
42.799
42.719
42.623
42.513
42.389
42.255
42.112
41.961
41.803
41.641
41.475
41.306
41.136
40.966
40.797
40.629
40.464
40.302
40.143
39.986
39.831
39.679
39.527
39.376
39.224
39.072
38.917
38.761
38.604
38.444
38.282
38.12
37.96
37.801
37.648
37.501
37.362
37.234
37.117
37.012
36.922
36.846
36.784
36.737
36.704
36.686
36.68
36.685
36.702
36.727
36.76
36.8
36.845
36.894
36.947
37.002
37.058
37.115
37.17
37.223
37.273
37.32
37.36
37.395
37.424
37.445
37.458
37.464
37.462
37.453
37.435
37.41
37.376
37.334
37.285
37.229
37.167
37.098
37.024
36.944
36.859
36.769
36.675
36.576
36.473
36.367
36.259
36.15
36.038
35.926
35.813
35.699
35.584
35.469
35.354
35.24
35.126
35.013
34.902
34.792
34.684
34.577
34.473
34.372
34.273
34.177
34.083
33.992
33.902
33.814
33.728
33.643
33.561
33.48
33.402
33.326
33.251
33.179
33.109
33.041
32.975
32.912
32.851
32.793
32.737
32.683
32.631
32.582
32.536
32.492
32.451
32.411
32.374
32.338
32.303
32.27
32.237
32.206
32.176
32.147
32.12
32.095
32.071
32.049
32.028
32.008
31.99
31.971
31.952
31.933
31.913
31.893
31.872
31.85
31.829
31.809
31.789
31.77
31.753
31.735
31.719
31.702
31.685
31.669
31.652
31.635
31.619
31.602
31.586
31.57
31.554
31.538
31.523
31.508
31.493
31.478
31.462
31.444
31.426
31.406
31.385
31.363
31.34
31.317
31.292
31.267
31.241
31.215
31.189
31.162
31.134
31.105
31.074
31.042
31.008
30.972
30.934
30.895
30.854
30.813
30.77
30.727
30.684
30.64
30.595
30.55
30.504
30.459
30.413
30.368
30.324
30.282
30.242
30.206
30.174
30.149
30.134
30.131
30.146
30.183
30.249
30.35
30.492
30.682
30.923
31.219
31.571
31.978
32.437
32.945
33.496
34.083
34.699
35.334
35.982
36.634
37.283
37.921
38.543
39.144
39.717
40.26
40.768
41.239
41.671
42.061
42.41
42.717
42.983
43.208
43.395
43.545
43.66
43.742
43.793
43.816
43.812
43.784
43.734
43.664
43.577
43.474
43.357
43.229
43.09
42.943
42.79
42.633
42.472
42.311
42.149
41.988
41.828
41.671
41.516
41.364
41.213
41.065
40.919
40.776
40.634
40.493
40.352
40.21
40.066
39.921
39.773
39.624
39.474
39.323
39.172
39.022
38.874
38.731
38.593
38.463
38.34
38.228
38.125
38.034
37.955
37.888
37.831
37.786
37.752
37.728
37.714
37.71
37.715
37.728
37.749
37.777
37.81
37.849
37.891
37.936
37.981
38.026
38.069
38.109
38.144
38.174
38.197
38.214
38.224
38.226
38.22
38.207
38.186
38.158
38.121
38.077
38.025
37.966
37.9
37.827
37.749
37.664
37.576
37.483
37.387
37.287
37.185
37.081
36.976
36.87
36.764
36.658
36.553
36.448
36.343
36.238
36.132
36.026
35.92
35.813
35.705
35.598
35.489
35.381
35.272
35.163
35.053
34.942
34.83
34.718
34.607
34.497
34.389
34.284
34.182
34.085
33.992
33.903
33.819
33.738
33.662
33.589
33.52
33.453
33.389
33.327
33.267
33.209
33.152
33.096
33.043
32.991
32.942
32.895
32.851
32.808
32.768
32.73
32.694
32.659
32.625
32.592
32.56
32.527
32.496
32.464
32.432
32.401
32.369
32.339
32.31
32.282
32.257
32.234
32.214
32.196
32.179
32.163
32.148
32.131
32.114
32.095
32.076
32.056
32.035
32.014
31.994
31.973
31.952
31.932
31.911
31.891
31.87
31.849
31.828
31.806
31.785
31.764
31.743
31.721
31.698
31.675
31.652
31.628
31.604
31.579
31.555
31.53
31.506
31.48
31.455
31.429
31.402
31.374
31.346
31.318
31.289
31.26
31.231
31.202
31.173
31.142
31.11
31.076
31.039
30.999
30.957
30.912
30.864
30.813
30.761
30.707
30.653
30.598
30.544
30.491
30.439
30.39
30.344
30.302
30.264
30.232
30.208
30.194
30.192
30.207
30.244
30.308
30.405
30.541
30.722
30.951
31.233
31.569
31.958
32.398
32.884
33.412
33.975
34.565
35.174
35.795
36.419
37.039
37.648
38.241
38.811
39.355
39.869
40.351
40.797
41.208
41.581
41.916
42.213
42.472
42.694
42.879
43.029
43.144
43.228
43.281
43.306
43.306
43.282
43.237
43.173
43.091
42.994
42.884
42.762
42.63
42.49
42.342
42.188
42.028
41.863
41.694
41.523
41.35
41.176
41.003
40.83
40.659
40.491
40.325
40.163
40.003
39.846
39.691
39.537
39.384
39.23
39.075
38.919
38.763
38.606
38.449
38.294
38.143
37.997
37.859
37.73
37.611
37.504
37.409
37.327
37.259
37.205
37.164
37.136
37.12
37.116
37.123
37.14
37.166
37.201
37.244
37.295
37.35
37.41
37.473
37.537
37.6
37.66
37.717
37.768
37.813
37.85
37.88
37.901
37.914
37.918
37.913
37.901
37.88
37.85
37.813
37.768
37.716
37.657
37.591
37.519
37.441
37.359
37.271
37.179
37.083
36.984
36.882
36.777
36.669
36.561
36.45
36.34
36.229
36.118
36.007
35.898
35.789
35.68
35.572
35.463
35.353
35.243
35.132
35.021
34.91
34.799
34.689
34.581
34.475
34.372
34.272
34.175
34.082
33.993
33.908
33.828
33.752
33.681
33.615
33.552
33.493
33.438
33.385
33.334
33.285
33.239
33.193
33.149
33.107
33.065
33.026
32.988
32.951
32.916
32.883
32.851
32.82
32.789
32.758
32.728
32.698
32.668
32.639
32.611
32.584
32.558
32.533
32.509
32.485
32.462
32.44
32.417
32.394
32.37
32.347
32.325
32.302
32.28
32.258
32.236
32.215
32.195
32.174
32.153
32.132
32.11
32.088
32.065
32.042
32.019
31.996
31.973
31.951
31.929
31.907
31.886
31.865
31.843
31.819
31.793
31.765
31.735
31.702
31.666
31.628
31.588
31.546
31.502
31.456
31.408
31.358
31.307
31.256
31.204
31.153
31.103
31.055
31.01
30.97
30.937
30.913
30.9
30.902
30.924
30.969
31.042
31.148
31.292
31.478
31.71
31.989
32.317
32.691
33.109
33.566
34.058
34.579
35.121
35.677
36.239
36.802
37.358
37.902
38.427
38.929
39.405
39.849
40.261
40.637
40.977
41.281
41.548
41.778
41.972
42.131
42.257
42.35
42.414
42.45
42.46
42.447
42.411
42.356
42.283
42.194
42.091
41.975
41.848
41.712
41.569
41.419
41.264
41.106
40.946
40.784
40.623
40.461
40.3
40.138
39.978
39.817
39.658
39.499
39.34
39.182
39.024
38.864
38.703
38.539
38.373
38.205
38.035
37.865
37.695
37.527
37.363
37.205
37.054
36.913
36.782
36.664
36.56
36.471
36.398
36.342
36.303
36.281
36.275
36.283
36.305
36.339
36.384
36.438
36.499
36.567
36.638
36.712
36.787
36.86
36.93
36.996
37.056
37.108
37.152
37.188
37.214
37.231
37.239
37.238
37.228
37.21
37.184
37.151
37.111
37.065
37.013
36.956
36.894
36.827
36.754
36.677
36.595
36.509
36.419
36.325
36.228
36.13
36.029
35.928
35.825
35.722
35.618
35.513
35.406
35.298
35.188
35.078
34.966
34.854
34.742
34.629
34.517
34.405
34.295
34.186
34.08
33.977
33.877
33.782
33.69
33.602
33.517
33.437
33.361
33.287
33.216
33.148
33.083
33.021
32.961
32.905
32.851
32.801
32.753
32.706
32.662
32.618
32.574
32.531
32.488
32.444
32.401
32.357
32.314
32.271
32.23
32.189
32.151
32.113
32.077
32.043
32.011
31.98
31.951
31.923
31.897
31.873
31.85
31.828
31.807
31.788
31.77
31.752
31.736
31.72
31.705
31.69
31.676
31.661
31.646
31.631
31.615
31.599
31.582
31.564
31.547
31.528
31.51
31.491
31.472
31.453
31.434
31.415
31.396
31.376
31.357
31.337
31.318
31.299
31.281
31.264
31.248
31.232
31.216
31.2
31.182
31.163
31.142
31.119
31.094
31.066
31.035
31.002
30.966
30.928
30.888
30.847
30.803
30.758
30.711
30.662
30.612
30.561
30.51
30.46
30.411
30.365
30.323
30.284
30.252
30.228
30.214
30.214
30.232
30.274
30.345
30.451
30.601
30.798
31.047
31.351
31.711
32.124
32.589
33.1
33.652
34.237
34.849
35.479
36.118
36.759
37.394
38.016
38.62
39.198
39.748
40.264
40.744
41.186
41.589
41.951
42.273
42.555
42.798
43.002
43.17
43.304
43.405
43.475
43.517
43.532
43.522
43.491
43.439
43.368
43.281
43.179
43.063
42.936
42.8
42.657
42.509
42.357
42.204
42.049
41.894
41.74
41.587
41.435
41.286
41.14
40.996
40.855
40.716
40.579
40.444
40.31
40.177
40.043
39.908
39.771
39.632
39.49
39.344
39.196
39.047
38.897
38.749
38.605
38.466
38.333
38.208
38.093
37.988
37.896
37.816
37.75
37.697
37.657
37.63
37.616
37.612
37.618
37.634
37.658
37.69
37.729
37.772
37.819
37.869
37.92
37.97
38.019
38.065
38.106
38.143
38.173
38.196
38.211
38.216
38.212
38.198
38.174
38.141
38.099
38.049
37.992
37.929
37.86
37.786
37.706
37.622
37.534
37.442
37.346
37.246
37.142
37.035
36.924
36.812
36.697
36.582
36.466
36.35
36.235
36.122
36.01
35.9
35.791
35.684
35.578
35.473
35.369
35.264
35.16
35.055
34.951
34.847
34.743
34.641
34.54
34.441
34.344
34.248
34.155
34.064
33.977
33.893
33.813
33.737
33.665
33.597
33.533
33.472
33.414
33.359
33.306
33.256
33.207
33.161
33.116
33.074
33.034
32.996
32.96
32.926
32.894
32.864
32.836
32.808
32.782
32.757
32.733
32.709
32.686
32.663
32.639
32.616
32.593
32.569
32.543
32.517
32.49
32.462
32.433
32.404
32.375
32.346
32.317
32.289
32.262
32.235
32.208
32.182
32.155
32.129
32.103
32.076
32.049
32.022
31.994
31.966
31.938
31.91
31.882
31.854
31.825
31.795
31.764
31.732
31.699
31.666
31.632
31.599
31.566
31.533
31.501
31.469
31.437
31.404
31.371
31.339
31.306
31.274
31.241
31.209
31.178
31.147
31.117
31.088
31.059
31.03
31.002
30.973
30.943
30.912
30.878
30.843
30.805
30.765
30.722
30.679
30.634
30.589
30.543
30.497
30.452
30.408
30.366
30.325
30.288
30.255
30.228
30.208
30.199
30.204
30.228
30.277
30.354
30.468
30.622
30.823
31.073
31.375
31.731
32.139
32.597
33.1
33.642
34.218
34.819
35.437
36.066
36.696
37.32
37.93
38.521
39.086
39.622
40.126
40.594
41.024
41.416
41.768
42.081
42.354
42.589
42.785
42.945
43.071
