Trial 1:0back
35.534
35.509
35.481
35.45
35.416
35.381
35.345
35.308
35.27
35.233
35.196
35.16
35.125
35.091
35.059
35.028
34.998
34.969
34.942
34.914
34.887
34.86
34.833
34.804
34.775
34.745
34.715
34.684
34.653
34.622
34.59
34.559
34.528
34.498
34.47
34.442
34.416
34.392
34.368
34.345
34.323
34.301
34.279
34.257
34.236
34.216
34.197
34.179
34.161
34.143
34.127
34.11
34.095
34.08
34.065
34.05
34.034
34.016
33.998
33.978
33.958
33.939
33.919
33.901
33.884
33.869
33.855
33.842
33.831
33.82
33.809
33.799
33.789
33.781
33.772
33.764
33.756
33.747
33.737
33.726
33.716
33.706
33.696
33.688
33.679
33.671
33.663
33.654
33.645
33.635
33.624
33.613
33.604
33.595
33.586
33.576
33.565
33.553
33.54
33.525
33.509
33.493
33.476
33.459
33.442
33.425
33.407
33.39
33.373
33.357
33.341
33.326
33.312
33.297
33.283
33.268
33.252
33.236
33.22
33.205
33.191
33.177
33.165
33.153
33.142
33.13
33.119
33.109
33.098
33.088
33.078
33.068
33.06
33.051
33.043
33.035
33.025
33.015
33.005
32.995
32.989
32.986
32.99
33.0
33.02
33.052
33.099
33.162
33.244
33.347
33.471
33.616
33.782
33.965
34.165
34.377
34.598
34.822
35.048
35.268
35.481
35.681
35.866
36.032
36.179
36.307
36.415
36.506
36.579
36.636
36.678
36.709
36.728
36.738
36.74
36.736
36.726
36.714
36.7
36.684
36.669
36.652
36.635
36.619
36.603
36.588
36.576
36.565
36.558
36.553
36.551
36.552
36.555
36.561
36.568
36.576
36.586
36.597
36.607
36.615
36.622
36.625
36.625
36.621
36.612
36.6
36.584
36.565
36.542
36.515
36.485
36.452
36.416
36.378
36.34
36.301
36.264
36.227
36.193
36.159
36.127
36.095
36.065
36.035
36.007
35.98
35.956
35.934
35.913
35.895
35.877
35.862
35.849
35.838
35.83
35.824
35.821
35.82
35.819
35.818
35.816
35.815
35.811
35.807
35.801
35.793
35.783
35.771
35.756
35.738
35.716
35.692
35.665
35.637
35.609
35.58
35.552
35.525
35.499
35.473
35.448
35.423
35.398
35.372
35.347
35.321
35.294
35.266
35.235
35.201
35.163
35.124
35.082
35.04
34.996
34.954
34.912
34.872
34.834
34.8
34.769
34.742
34.718
34.698
34.681
34.666
34.651
34.637
34.621
34.603
34.584
34.563
34.542
34.52
34.498
34.477
34.456
34.435
34.414
34.393
34.37
34.346
34.32
34.295
34.268
34.243
34.217
34.193
34.17
34.149
34.131
34.115
34.103
34.093
34.086
34.08
34.074
34.068
34.061
34.053
34.044
34.035
34.025
34.016
34.007
33.997
33.986
33.973
33.957
33.939
33.918
33.896
33.873
33.849
33.824
33.8
33.777
33.756
33.736
33.718
33.703
33.691
33.681
33.673
33.666
33.659
33.652
33.643
33.634
33.624
33.614
33.603
33.592
33.58
33.568
33.556
33.543
33.531
33.518
33.507
33.496
33.487
33.479
33.47
33.462
33.453
33.444
33.436
33.427
33.419
33.41
33.401
33.392
33.381
33.369
33.357
33.343
33.33
33.316
33.304
33.292
33.281
33.272
33.263
33.256
33.248
33.241
33.233
33.226
33.218
33.209
33.199
33.188
33.175
33.162
33.148
33.135
33.124
33.118
33.116
33.121
33.136
33.16
33.197
33.248
33.314
33.399
33.502
33.624
33.764
33.922
34.096
34.284
34.483
34.691
34.905
35.121
35.337
35.55
35.754
35.949
36.131
36.298
36.448
36.58
36.693
36.787
36.862
36.918
36.958
36.982
36.991
36.988
36.976
36.957
36.935
36.91
36.886
36.863
36.842
36.825
36.81
36.798
36.789
36.783
36.781
36.782
36.784
36.789
36.793
36.796
36.798
36.799
36.797
36.794
36.789
36.785
36.78
36.776
36.773
36.771
36.769
36.766
36.764
36.76
36.757
36.752
36.745
36.736
36.722
36.706
36.684
36.658
36.627
36.592
36.553
36.512
36.469
36.427
36.386
36.347
36.311
36.279
36.252
36.232
36.219
36.213
36.214
36.22
36.231
36.244
36.26
36.275
36.29
36.303
36.314
36.321
36.325
36.325
36.32
36.309
36.294
36.276
36.256
36.237
36.22
36.205
36.192
36.181
36.172
36.163
36.154
36.143
36.131
36.116
36.098
36.077
36.053
36.024
35.993
35.958
35.921
35.882
35.842
35.803
35.764
35.725
35.689
35.654
35.621
35.591
35.564
35.539
35.517
35.498
35.481
35.465
35.448
35.43
35.409
35.386
35.361
35.334
35.307
35.278
35.25
35.222
35.194
35.166
35.138
35.109
35.081
35.054
35.028
35.004
34.982
34.962
34.943
34.925
34.91
34.895
34.883
34.873
34.865
34.858
34.852
34.846
34.841
34.836
34.831
34.825
34.818
34.811
34.803
34.794
34.783
34.772
34.758
34.744
34.728
34.711
34.695
34.679
34.665
34.651
34.639
34.627
34.617
34.607
34.598
34.589
34.58
34.571
34.562
34.552
34.541
34.529
34.517
34.505
34.492
34.481
34.47
34.46
34.449
34.438
34.424
34.407
34.388
34.367
34.345
34.322
34.299
34.278
34.258
34.24
34.223
34.208
34.196
34.185
34.175
34.167
34.16
34.154
34.148
34.14
34.132
34.121
34.109
34.096
34.082
34.068
34.053
34.039
34.023
34.007
33.99
33.974
33.957
33.942
33.93
33.923
33.922
33.929
33.947
33.977
34.022
34.083
34.161
34.257
34.372
34.503
34.65
34.811
34.983
35.164
35.352
35.545
35.739
35.933
36.124
36.309
36.485
36.649
36.799
36.934
37.054
37.156
37.243
37.315
37.372
37.414
37.443
37.459
37.464
37.459
37.446
37.426
37.403
37.376
37.348
37.321
37.294
37.269
37.245
37.223
37.203
37.186
37.173
37.164
37.16
37.16
37.164
37.171
37.179
37.189
37.196
37.202
37.203
37.199
37.19
37.175
37.153
37.127
37.095
37.058
37.019
36.978
36.936
36.893
36.849
36.805
36.762
36.721
36.682
36.645
36.613
36.584
36.559
36.538
36.521
36.506
36.493
36.482
36.473
36.465
36.46
36.458
36.459
36.463
36.469
36.478
36.487
36.496
36.505
36.512
36.518
36.522
36.525
36.524
36.521
36.514
36.503
36.488
36.47
36.45
36.429
36.406
36.384
36.363
36.343
36.324
36.305
36.286
36.267
36.246
36.224
36.201
36.174
36.144
36.111
36.074
36.034
35.992
35.949
35.906
35.865
35.825
35.787
35.751
35.717
35.684
35.654
35.626
35.599
35.574
35.55
35.527
35.504
35.481
35.455
35.422
35.381
35.333
35.28
35.225
35.171
35.121
35.075
35.036
35.005
34.982
34.967
34.96
34.96
34.964
34.972
34.981
34.989
34.994
34.996
34.994
34.988
34.978
34.965
34.95
34.933
34.914
34.893
34.871
34.848
34.825
34.802
34.779
34.758
34.738
34.721
34.705
34.689
34.675
34.66
34.646
34.632
34.618
34.604
34.59
34.576
34.563
34.55
34.538
34.525
34.513
34.502
34.489
34.476
34.461
34.444
34.423
34.399
34.374
34.346
34.319
34.292
34.268
34.247
34.228
34.212
34.198
34.186
34.174
34.163
34.151
34.139
34.126
34.113
34.099
34.084
34.069
34.055
34.041
34.029
34.019
34.011
34.003
33.995
33.987
33.976
33.962
33.946
33.927
33.906
33.885
33.863
33.841
33.82
33.798
33.777
33.756
33.737
33.718
33.702
33.689
33.68
33.678
33.683
33.697
33.719
33.753
33.8
33.862
33.942
34.039
34.156
34.292
34.446
34.617
34.801
34.999
35.205
35.42
35.638
35.856
36.072
36.282
36.483
36.671
36.845
37.004
37.146
37.273
37.384
37.48
37.561
37.627
37.678
37.716
37.741
37.754
37.759
37.756
37.748
37.736
37.723
37.709
37.697
37.687
37.678
37.672
37.669
37.668
37.67
37.675
37.682
37.692
37.704
37.717
37.733
37.75
37.768
37.787
37.806
37.823
37.839
37.851
37.858
37.861
37.859
37.852
37.84
37.823
37.801
37.775
37.746
37.714
37.679
37.641
37.601
37.561
37.519
37.478
37.437
37.397
37.357
37.317
37.277
37.239
37.202
37.167
37.135
37.105
37.076
37.049
37.023
36.999
36.976
36.955
36.937
36.923
36.912
36.906
36.903
36.901
36.9
36.899
36.896
36.891
36.882
36.868
36.85
36.828
36.801
36.77
36.736
36.699
36.66
36.62
36.579
36.539
36.5
36.462
36.425
36.389
36.354
36.32
36.287
36.254
36.22
36.186
36.151
36.115
36.077
36.036
35.992
35.945
35.897
35.847
35.799
35.751
35.706
35.664
35.624
35.587
35.551
35.517
35.484
35.451
35.419
35.388
35.357
35.326
35.296
35.266
35.235
35.203
35.172
35.142
35.112
35.083
35.054
35.026
34.999
34.972
34.945
34.919
34.894
34.87
34.847
34.825
34.805
34.784
34.764
34.742
34.72
34.699
34.678
34.659
34.642
34.626
34.612
34.599
34.587
34.573
34.557
34.54
34.521
34.5
34.478
34.454
34.428
34.402
34.376
34.349
34.324
34.3
34.278
34.258
34.24
34.223
34.206
34.189
34.171
34.151
34.131
34.11
34.089
34.069
34.049
34.031
34.014
33.999
33.985
33.972
33.962
33.953
33.946
33.939
33.933
33.925
33.915
33.903
33.889
33.872
33.853
33.834
33.815
33.795
33.775
33.756
33.735
33.714
33.692
33.67
33.647
33.625
33.604
33.583
33.563
33.543
33.526
33.51
33.496
33.483
33.473
33.465
33.458
33.451
33.444
33.435
33.426
33.414
33.401
33.387
33.372
33.358
33.345
33.333
33.324
33.319
33.32
33.328
33.346
33.375
33.418
33.477
33.554
33.649
33.763
33.898
34.052
34.225
34.415
34.62
34.836
35.061
35.29
35.518
35.743
35.957
36.154
36.332
36.489
36.625
36.742
36.84
36.921
36.989
37.044
37.088
37.125
37.155
37.18
37.2
37.217
37.229
37.238
37.242
37.244
37.242
37.239
37.234
37.228
37.223
37.217
37.211
37.205
37.199
37.194
37.19
37.186
37.185
37.185
37.187
37.191
37.197
37.205
37.214
37.224
37.233
37.242
37.248
37.252
37.253
37.251
37.243
37.23
37.212
37.188
37.159
37.124
37.085
37.041
36.995
36.947
36.898
36.851
36.806
36.764
36.727
36.695
36.668
36.646
36.63
36.617
36.608
36.601
36.597
36.594
36.593
36.593
36.594
36.596
36.599
36.603
36.607
36.61
36.612
36.613
36.614
36.614
36.614
36.612
36.609
36.603
36.595
36.583
36.567
36.548
36.524
36.495
36.463
36.428
36.393
36.357
36.323
36.29
36.259
36.23
36.203
36.177
36.152
36.127
36.102
36.076
36.049
36.02
35.991
35.96
35.928
35.895
35.862
35.828
35.795
35.761
35.727
35.694
35.663
35.634
35.609
35.586
35.564
35.544
35.523
35.501
35.478
35.453
35.427
35.398
35.367
35.337
35.306
35.277
35.249
35.223
35.2
35.18
35.163
35.15
35.14
35.131
35.123
35.115
35.105
35.093
35.08
35.064
35.048
35.03
35.011
34.992
34.974
34.956
34.939
34.922
34.905
34.89
34.875
34.862
34.849
34.836
34.824
34.811
34.797
34.782
34.766
34.749
34.731
34.711
34.691
34.672
34.652
34.633
34.614
34.596
34.578
34.561
34.544
34.527
34.509
34.488
34.464
34.437
34.406
34.373
34.338
34.304
34.27
34.238
34.209
34.182
34.159
34.139
34.122
34.106
34.093
34.082
34.071
34.06
34.049
34.038
34.025
34.011
33.996
33.981
33.966
33.951
33.936
33.922
33.908
33.896
33.886
33.877
33.872
33.872
33.877
33.89
33.913
33.946
33.992
34.052
34.129
34.222
34.333
34.461
34.607
34.767
34.941
35.124
35.315
35.51
35.706
35.899
36.087
36.267
36.436
36.59
36.729
36.849
36.952
37.036
37.103
37.154
37.191
37.215
37.227
37.23
37.225
37.213
37.194
37.172
37.146
37.119
37.092
37.065
37.04
37.016
36.993
36.972
36.952
36.933
36.915
36.898
36.883
36.87
36.859
36.851
36.845
36.841
36.839
36.837
36.835
36.832
36.826
36.817
36.803
36.783
36.752
36.709
36.654
36.589
36.52
36.448
36.379
36.313
36.254
36.201
36.157
36.121
36.093
36.073
36.062
36.058
36.06
36.066
36.076
36.087
36.1
36.112
36.124
36.136
36.148
36.158
36.168
36.176
36.183
36.188
36.19
36.19
36.186
36.18
36.17
36.158
36.143
36.126
36.108
36.089
36.07
36.05
36.031
36.013
35.994
35.974
35.953
35.93
35.903
35.873
35.84
35.804
35.766
35.727
35.687
35.647
35.608
35.568
35.53
35.493
35.457
35.423
35.39
35.36
35.331
35.304
35.277
35.25
35.222
35.193
35.162
35.131
35.098
35.065
35.033
35.002
34.972
34.945
34.921
34.899
34.879
34.861
34.843
34.827
34.809
34.79
34.769
34.744
34.716
34.687
34.657
34.629
34.602
34.578
34.558
34.541
34.527
34.516
34.507
34.499
34.492
34.484
34.475
34.465
34.453
34.44
34.424
34.406
34.389
34.372
34.357
34.344
34.333
34.322
34.313
34.303
34.294
34.283
34.272
34.26
34.245
34.23
34.215
34.198
34.182
34.167
34.152
34.137
34.124
34.111
34.099
34.086
34.073
34.058
34.042
34.024
34.004
33.982
33.959
33.936
33.913
33.892
33.873
33.855
33.84
33.826
33.813
33.801
33.789
33.777
33.765
33.752
33.738
33.722
33.704
33.685
33.665
33.646
33.628
33.61
33.595
33.581
33.568
33.558
33.549
33.542
33.537
33.532
33.529
33.525
33.522
33.516
33.51
33.501
33.491
33.48
33.471
33.467
33.469
33.479
33.501
33.536
33.586
33.652
33.735
33.837
33.957
34.095
34.252
34.425
34.611
34.808
35.012
35.221
35.432
35.642
35.847
36.046
36.234
36.41
36.571
36.715
36.842
36.951
37.041
37.114
37.171
37.212
37.239
37.254
37.256
37.249
37.232
37.209
37.182
37.152
37.123
37.095
37.069
37.047
37.027
37.012
37.0
36.992
36.986
36.984
36.986
36.989
36.995
37.001
37.009
37.017
37.025
37.034
37.043
37.052
37.062
37.07
37.078
37.082
37.084
37.081
37.075
37.063
37.047
37.025
36.997
36.964
36.926
36.881
36.831
36.777
36.72
36.662
36.605
36.551
36.501
36.457
36.42
36.389
36.365
36.348
36.336
36.329
36.327
36.327
36.33
36.333
36.335
36.335
36.334
36.329
36.321
36.309
36.295
36.279
36.262
36.243
36.222
36.201
36.18
36.16
36.141
36.123
36.106
36.09
36.074
36.057
36.039
36.018
35.995
35.971
35.945
35.919
35.893
35.866
35.838
35.809
35.779
35.747
35.714
35.679
35.643
35.605
35.567
35.529
35.491
35.454
35.417
35.381
35.347
35.315
35.286
35.259
35.235
35.214
35.193
35.173
35.154
35.134
35.113
35.092
35.07
35.048
35.025
35.003
34.981
34.959
34.937
34.915
34.894
34.874
34.855
34.837
34.818
34.8
34.779
34.758
34.735
34.71
34.686
34.661
34.638
34.617
34.599
34.584
34.573
34.565
34.56
34.557
34.556
34.554
34.552
34.546
34.537
34.523
34.505
34.483
34.459
34.434
34.407
34.38
34.351
34.32
34.287
34.252
34.217
34.182
34.148
34.115
34.083
34.054
34.026
34.001
33.978
33.957
33.937
33.918
33.903
33.889
33.877
33.865
33.852
33.838
33.821
33.801
33.779
33.754
33.729
33.704
33.679
33.654
33.632
33.611
33.591
33.572
33.555
33.539
33.524
33.509
33.493
33.477
33.459
33.438
33.416
33.394
33.372
33.353
33.336
33.322
33.31
33.301
33.292
33.284
33.276
33.267
33.258
33.247
33.236
33.226
33.215
33.205
33.194
33.184
33.176
33.168
33.162
33.159
33.156
33.153
33.15
33.145
33.139
33.131
33.122
33.113
33.104
33.097
33.092
33.092
33.098
33.111
33.135
33.172
33.224
33.292
33.38
33.488
33.615
33.762
33.927
34.11
34.309
34.52
34.741
34.966
35.193
35.417
35.634
35.84
36.033
36.21
36.37
36.511
36.633
36.735
36.817
36.88
36.925
36.951
36.962
36.96
36.947
36.927
36.902
36.875
36.846
36.818
36.79
36.766
36.743
36.724
36.708
36.695
36.687
36.683
36.683
36.686
36.691
36.697
36.704
36.712
36.72
36.729
36.738
36.747
36.756
36.763
36.769
36.773
36.774
36.773
36.769
36.764
36.755
36.745
36.731
36.713
36.692
36.668
36.641
36.611
36.579
36.545
36.51
36.473
36.435
36.396
36.356
36.317
36.28
36.246
36.216
36.193
36.176
36.165
36.16
36.16
36.164
36.171
36.18
36.19
36.201
36.211
36.22
36.228
36.233
36.235
36.234
36.23
36.222
36.211
36.199
36.184
36.168
36.151
36.132
36.112
36.09
36.065
36.039
36.012
35.985
35.957
35.929
35.901
35.873
35.844
35.816
35.787
35.76
35.734
35.709
35.686
35.664
35.642
35.619
35.597
35.574
35.551
35.527
35.502
35.476
35.448
35.418
35.387
35.354
35.32
35.287
35.253
35.221
35.19
35.161
35.135
35.11
35.087
35.065
35.044
35.025
35.007
34.991
34.975
34.959
34.944
34.928
34.912
34.896
34.879
34.862
34.845
34.828
34.812
34.797
34.783
34.77
34.757
34.745
34.733
34.722
34.711
34.701
34.69
34.679
34.666
34.652
34.637
34.621
34.606
34.591
34.578
34.566
34.556
34.546
34.536
34.527
34.518
34.507
34.495
34.482
34.467
34.45
34.431
34.41
34.388
34.366
34.345
34.324
34.306
34.287
34.269
34.25
34.231
34.212
34.193
34.174
34.156
34.137
34.119
34.1
34.081
34.061
34.04
34.019
33.997
33.974
33.953
33.933
33.915
33.899
33.884
33.87
33.856
33.841
33.824
33.806
33.785
33.763
33.739
33.714
33.689
33.664
33.641
33.619
33.6
33.584
33.571
33.562
33.558
33.557
33.561
33.57
33.585
33.61
33.645
33.694
33.759
33.842
33.944
34.065
34.205
34.362
34.535
34.72
34.914
35.112
35.311
35.508
35.696
35.874
36.039
36.188
36.321
36.438
36.539
36.624
36.695
36.752
36.796
36.829
36.852
36.865
36.87
36.868
36.859
36.844
36.825
36.802
36.774
36.742
36.706
36.667
36.625
36.582
36.54
36.499
36.463
36.431
36.404
36.384
36.37
36.362
36.359
36.361
36.367
36.374
36.381
36.387
36.389
36.386
36.377
36.361
36.34
36.313
36.281
36.245
36.205
36.161
36.115
36.067
36.019
35.97
35.922
35.877
35.836
35.798
35.765
35.735
35.71
35.689
35.671
35.658
35.65
35.646
35.646
35.65
35.657
35.666
35.677
35.688
35.698
35.706
35.712
35.716
35.716
35.712
35.704
35.692
35.676
35.657
35.636
35.614
35.593
35.572
35.552
35.534
35.515
35.497
35.477
35.456
35.434
35.411
35.386
35.36
35.333
35.304
35.273
35.24
35.205
35.169
35.131
35.094
35.057
35.021
34.985
34.951
34.917
34.884
34.852
34.821
34.792
34.765
34.74
34.716
34.694
34.672
34.651
34.63
34.608
34.584
34.56
34.535
34.511
34.488
34.465
34.444
34.424
34.405
34.388
34.372
34.358
34.344
34.331
34.319
34.306
34.292
34.276
34.261
34.245
34.228
34.213
34.198
34.184
34.17
34.157
34.145
34.133
34.123
34.115
34.108
34.103
34.099
34.095
34.092
34.086
34.08
34.072
34.064
34.055
34.045
34.035
34.023
34.011
33.998
33.985
33.97
33.954
33.937
33.919
33.899
33.877
33.853
33.827
33.798
33.767
33.735
33.704
33.675
33.649
33.627
33.609
33.594
33.582
33.572
33.563
33.554
33.545
33.535
33.524
33.512
33.499
33.486
33.471
33.456
33.441
33.428
33.415
33.403
33.391
33.379
33.365
33.347
33.328
33.307
33.284
33.262
33.241
33.222
33.206
33.192
33.182
33.175
33.17
33.168
33.167
33.167
33.167
33.166
33.164
33.159
33.153
33.146
33.139
33.135
33.134
33.139
33.151
33.173
33.205
33.25
33.309
33.385
33.478
33.589
33.719
33.867
34.032
34.213
34.406
34.61
34.82
35.034
35.25
35.464
35.673
35.873
36.06
36.233
36.387
36.522
36.637
36.731
36.804
36.858
36.894
36.913
36.918
36.911
36.892
36.864
36.829
36.791
36.751
36.711
36.674
36.639
36.606
36.577
36.551
36.527
36.506
36.488
36.472
36.459
36.449
36.442
36.437
36.435
36.436
36.439
36.446
36.455
36.468
36.482
36.496
36.509
36.52
36.528
36.532
36.532
36.527
36.516
36.501
36.479
36.453
36.42
36.382
36.339
36.292
36.242
36.193
36.147
36.103
36.065
36.031
36.003
35.981
35.963
35.949
35.939
35.931
35.927
35.925
35.925
35.926
35.927
35.927
35.925
35.921
35.915
35.908
35.9
35.891
35.881
35.87
35.858
35.845
35.831
35.817
35.803
35.789
35.775
35.76
35.745
35.728
35.708
35.686
35.661
35.633
35.604
35.573
35.542
35.51
35.478
35.444
35.41
35.375
35.341
35.306
35.272
35.238
35.205
35.172
35.14
35.107
35.076
35.046
35.016
34.989
34.962
34.938
34.913
34.89
34.866
34.844
34.822
34.801
34.781
34.763
34.747
34.732
34.717
34.702
34.687
34.669
34.65
34.63
34.61
34.589
34.568
34.548
34.528
34.509
34.489
34.468
34.449
34.432
34.418
34.406
34.398
34.392
34.389
34.387
34.385
34.383
34.382
34.381
34.38
34.38
34.38
34.379
34.377
34.374
34.367
34.358
34.345
34.331
34.314
34.296
34.278
34.259
34.241
34.222
34.202
34.182
34.162
34.142
34.122
34.1
34.077
34.051
34.024
33.996
33.966
33.935
33.905
33.875
