Trial 1:0back
32.258
32.263
32.284
32.323
32.384
32.47
32.583
32.726
32.901
33.107
33.346
33.617
33.917
34.245
34.597
34.97
35.358
35.757
36.16
36.563
36.96
37.345
37.715
38.063
38.388
38.684
38.95
39.185
39.386
39.554
39.689
39.792
39.864
39.908
39.925
39.919
39.892
39.845
39.781
39.703
39.612
39.511
39.401
39.283
39.16
39.033
38.902
38.77
38.636
38.503
38.37
38.238
38.107
37.978
37.851
37.724
37.598
37.473
37.346
37.22
37.093
36.965
36.838
36.712
36.585
36.461
36.338
36.218
36.102
35.99
35.885
35.786
35.696
35.613
35.539
35.474
35.417
35.371
35.334
35.307
35.289
35.28
35.28
35.287
35.302
35.323
35.349
35.38
35.415
35.452
35.491
35.528
35.564
35.596
35.624
35.646
35.662
35.671
35.673
35.666
35.65
35.626
35.594
35.554
35.507
35.454
35.394
35.33
35.26
35.186
35.108
35.027
34.944
34.859
34.773
34.687
34.601
34.516
34.432
34.35
34.27
34.193
34.118
34.047
33.979
33.915
33.854
33.796
33.741
33.69
33.641
33.594
33.55
33.509
33.469
33.431
33.394
33.358
33.323
33.288
33.253
33.218
33.183
33.148
33.112
33.076
33.038
32.999
32.959
32.917
32.875
32.832
32.788
32.745
32.703
32.661
32.622
32.583
32.546
32.51
32.475
32.442
32.409
32.378
32.347
32.319
32.291
32.265
32.239
32.213
32.187
32.161
32.133
32.104
32.074
32.041
32.008
31.974
31.939
31.905
31.873
31.845
31.823
31.811
31.811
31.827
31.862
31.921
32.005
32.119
32.265
32.444
32.658
32.906
33.187
33.5
33.843
34.211
34.601
35.007
35.426
35.85
36.275
36.695
37.103
37.494
37.863
38.207
38.521
38.803
39.051
39.264
39.441
39.584
39.693
39.77
39.819
39.841
39.838
39.816
39.775
39.718
39.649
39.568
39.479
39.382
39.279
39.171
39.06
38.945
38.828
38.71
38.59
38.47
38.349
38.228
38.107
37.987
37.866
37.747
37.629
37.512
37.396
37.282
37.168
37.055
36.944
36.834
36.725
36.619
36.515
36.414
36.316
36.222
36.132
36.046
35.965
35.889
35.818
35.753
35.694
35.642
35.597
35.56
35.53
35.507
35.491
35.482
35.479
35.482
35.49
35.503
35.519
35.538
35.559
35.581
35.602
35.622
35.641
35.656
35.668
35.675
35.677
35.672
35.661
35.643
35.617
35.586
35.548
35.505
35.456
35.403
35.345
35.284
35.219
35.152
35.083
35.012
34.939
34.865
34.791
34.716
34.642
34.568
34.494
34.42
34.347
34.274
34.202
34.131
34.06
33.991
33.922
33.855
33.789
33.725
33.663
33.603
33.546
33.491
33.439
33.389
33.341
33.295
33.25
33.207
33.165
33.124
33.085
33.047
33.009
32.972
32.936
32.899
32.864
32.828
32.793
32.758
32.724
32.691
32.659
32.628
32.599
32.571
32.544
32.518
32.492
32.466
32.441
32.416
32.392
32.369
32.347
32.326
32.306
32.286
32.268
32.25
32.232
32.213
32.195
32.176
32.157
32.137
32.118
32.099
32.081
32.067
32.058
32.058
32.069
32.094
32.139
32.206
32.299
32.421
32.576
32.765
32.99
33.25
33.546
33.876
34.237
34.625
35.037
35.467
35.909
36.357
36.806
37.249
37.68
38.094
38.485
38.85
39.185
39.487
39.754
39.987
40.183
40.345
40.472
40.567
40.631
40.668
40.679
40.666
40.633
40.583
40.517
40.438
40.349
40.251
40.147
40.039
39.928
39.814
39.7
39.586
39.472
39.359
39.246
39.133
39.021
38.908
38.795
38.681
38.565
38.448
38.329
38.21
38.089
37.967
37.845
37.723
37.601
37.479
37.36
37.243
37.129
37.02
36.916
36.817
36.724
36.637
36.558
36.484
36.418
36.359
36.306
36.26
36.22
36.188
36.162
36.142
36.129
36.121
36.118
36.12
36.125
36.134
36.145
36.158
36.171
36.185
36.197
36.208
36.217
36.222
36.222
36.217
36.207
36.19
36.167
36.137
36.1
36.057
36.007
35.951
35.891
35.826
35.757
35.686
35.613
35.538
35.463
35.387
35.312
35.238
35.165
35.092
35.02
34.948
34.875
34.803
34.73
34.657
34.584
34.512
34.44
34.37
34.301
34.234
34.168
34.105
34.043
33.983
33.925
33.868
33.813
33.76
33.708
33.658
33.609
33.562
33.516
33.472
33.428
33.385
33.343
33.301
33.26
33.219
33.179
33.14
33.101
33.064
33.027
32.992
32.958
32.925
32.893
32.862
32.832
32.803
32.774
32.746
32.718
32.691
32.665
32.639
32.613
32.588
32.563
32.538
32.513
32.488
32.463
32.437
32.412
32.387
32.364
32.344
32.33
32.324
32.328
32.347
32.383
32.441
32.525
32.637
32.78
32.958
33.17
33.418
33.702
34.02
34.369
34.747
35.149
35.569
36.003
36.444
36.887
37.325
37.752
38.162
38.551
38.914
39.248
39.549
39.816
40.048
40.245
40.407
40.536
40.632
40.697
40.734
40.744
40.73
40.696
40.642
40.572
40.488
40.393
40.288
40.176
40.057
39.935
39.808
39.68
39.55
39.42
39.29
39.16
39.032
38.904
38.778
38.653
38.528
38.405
38.282
38.158
38.035
37.91
37.785
37.658
37.531
37.404
37.277
37.152
37.029
36.908
36.791
36.679
36.572
36.471
36.377
36.291
36.213
36.144
36.083
36.032
35.99
35.958
35.934
35.918
35.911
35.91
35.916
35.927
35.943
35.963
35.985
36.008
36.032
36.056
36.079
36.099
36.116
36.129
36.136
36.138
36.134
36.124
36.108
36.084
36.054
36.018
35.975
35.926
35.87
35.809
35.743
35.672
35.598
35.52
35.439
35.357
35.274
35.191
35.109
35.028
34.949
34.87
34.794
34.718
34.644
34.571
34.499
34.428
34.358
34.289
34.221
34.154
34.087
34.022
33.958
33.895
33.834
33.774
33.715
33.659
33.603
33.549
33.496
33.444
33.393
33.343
33.295
33.247
33.201
33.155
33.111
33.068
33.025
32.984
32.944
32.906
32.869
32.833
32.797
32.763
32.73
32.699
32.669
32.64
32.612
32.584
32.558
32.532
32.508
32.483
32.459
32.434
32.409
32.383
32.356
32.329
32.3
32.271
32.241
32.211
32.182
32.154
32.127
32.102
32.079
32.06
32.046
32.039
32.039
32.051
32.076
32.119
32.182
32.271
32.387
32.536
32.72
32.94
33.197
33.491
33.819
34.18
34.57
34.983
35.414
35.859
36.31
36.762
37.207
37.64
38.056
38.449
38.815
39.15
39.451
39.715
39.942
40.13
40.28
40.394
40.474
40.522
40.541
40.535
40.505
40.455
40.388
40.306
40.209
40.102
39.985
39.86
39.729
39.592
39.452
39.308
39.163
39.015
38.867
38.717
38.568
38.418
38.27
38.122
37.975
37.83
37.688
37.547
37.407
37.27
37.134
37.0
36.868
36.738
36.611
36.487
36.367
36.251
36.142
36.039
35.943
35.854
35.775
35.704
35.642
35.591
35.55
35.518
35.495
35.482
35.478
35.482
35.495
35.515
35.541
35.572
35.608
35.646
35.685
35.725
35.763
35.799
35.832
35.86
35.882
35.898
35.907
35.909
35.903
35.891
35.872
35.846
35.813
35.773
35.728
35.677
35.621
35.56
35.494
35.425
35.353
35.278
35.2
35.12
35.039
34.957
34.875
34.792
34.71
34.627
34.545
34.462
34.38
34.299
34.219
34.14
34.062
33.986
33.912
33.839
33.768
33.699
33.63
33.563
33.497
33.433
33.37
33.309
33.25
33.194
33.14
33.088
33.037
32.989
32.943
32.899
32.856
32.815
32.775
32.736
32.699
32.662
32.627
32.592
32.557
32.523
32.488
32.453
32.417
32.381
32.344
32.307
32.268
32.23
32.191
32.153
32.114
32.076
32.038
31.999
31.961
31.923
31.886
31.851
31.819
31.792
31.773
31.764
31.768
31.79
31.831
31.897
31.99
32.114
32.269
32.46
32.686
32.949
33.247
33.578
33.941
34.332
34.745
35.176
35.62
36.069
36.519
36.962
37.393
37.807
38.197
38.561
38.895
39.195
39.46
39.688
39.88
40.036
40.156
40.243
40.298
40.324
40.322
40.295
40.246
40.177
40.092
39.99
39.876
39.75
39.614
39.471
39.321
39.166
39.007
38.846
38.681
38.516
38.349
38.181
38.014
37.847
37.681
37.516
37.353
37.19
37.029
36.871
36.714
36.559
36.406
36.257
36.111
35.97
35.835
35.705
35.581
35.464
35.355
35.255
35.163
35.082
35.01
34.949
34.899
34.859
34.83
34.81
34.8
34.798
34.805
34.818
34.838
34.863
34.892
34.924
34.958
34.993
35.028
35.062
35.094
35.123
35.149
35.171
35.187
35.197
35.201
35.198
35.188
35.171
35.148
35.117
35.081
35.039
34.992
34.94
34.884
34.825
34.763
34.699
34.633
34.564
34.494
34.423
34.349
34.274
34.197
34.119
34.04
33.96
33.88
33.8
33.72
33.641
33.562
33.485
33.41
33.337
33.266
33.197
33.131
33.067
33.006
32.948
32.893
32.84
32.788
32.739
32.691
32.645
32.601
32.558
32.517
32.476
32.436
32.397
32.359
32.32
32.283
32.246
32.209
32.174
32.139
32.105
32.071
32.038
32.006
31.975
31.945
31.916
31.888
31.861
31.836
31.812
31.791
31.77
31.75
31.731
31.712
31.693
31.674
31.654
31.634
31.614
31.594
31.576
31.561
31.55
31.547
31.553
31.574
31.612
31.672
31.759
31.877
32.029
32.217
32.444
32.711
33.017
33.361
33.741
34.154
34.594
35.057
35.537
36.027
36.521
37.01
37.49
37.954
38.395
38.81
39.194
39.544
39.857
40.131
40.366
40.562
40.72
40.84
40.924
40.975
40.995
40.988
40.955
40.9
40.826
40.737
40.634
40.52
40.397
40.268
40.132
39.993
39.849
39.703
39.556
39.407
39.26
39.113
38.968
38.825
38.684
38.546
38.409
38.274
38.141
38.008
37.876
37.743
37.61
37.476
37.342
37.208
37.074
36.941
36.809
36.68
36.554
36.434
36.32
36.212
36.112
36.021
35.938
35.865
35.803
35.75
35.709
35.677
35.655
35.642
35.636
35.638
35.646
35.658
35.674
35.693
35.713
35.734
35.756
35.777
35.796
35.813
35.826
35.836
35.842
35.843
35.839
35.829
35.812
35.79
35.761
35.725
35.683
35.636
35.583
35.526
35.463
35.396
35.325
35.251
35.175
35.097
35.018
34.938
34.858
34.777
34.697
34.617
34.537
34.458
34.379
34.301
34.225
34.149
34.074
34.001
33.93
33.86
33.793
33.728
33.665
33.604
33.545
33.487
33.43
33.375
33.322
33.27
33.22
33.17
33.123
33.076
33.031
32.987
32.944
32.902
32.861
32.82
32.779
32.739
32.698
32.658
32.619
32.58
32.542
32.505
32.469
32.435
32.401
32.368
32.335
32.302
32.269
32.236
32.204
32.172
32.141
32.111
32.082
32.056
32.033
32.015
32.005
32.003
32.015
32.042
32.088
32.158
32.256
32.385
32.549
32.749
32.988
33.265
33.58
33.93
34.313
34.724
35.158
35.61
36.073
36.541
37.009
37.468
37.914
38.341
38.744
39.119
39.462
39.771
40.045
40.281
40.481
40.642
40.768
40.858
40.914
40.94
40.936
40.905
40.851
40.777
40.685
40.577
40.458
40.328
40.189
40.045
39.896
39.744
39.59
39.434
39.277
39.12
38.963
38.807
38.651
38.497
38.344
38.192
38.042
37.892
37.744
37.596
37.449
37.303
37.158
37.015
36.875
36.738
36.605
36.476
36.352
36.234
36.123
36.019
35.923
35.837
35.76
35.692
35.635
35.588
35.55
35.523
35.504
35.494
35.491
35.495
35.506
35.522
35.542
35.565
35.59
35.616
35.642
35.667
35.69
35.711
35.728
35.742
35.752
35.757
35.758
35.753
35.743
35.727
35.705
35.677
35.642
35.601
35.554
35.501
35.443
35.38
35.313
35.241
35.167
35.09
35.011
34.932
34.851
34.771
34.691
34.611
34.533
34.456
34.38
34.306
34.234
34.163
34.092
34.023
33.953
33.882
33.812
33.742
33.672
33.603
33.534
33.467
33.401
33.338
33.276
33.216
33.159
33.103
33.049
32.997
32.947
32.898
32.852
32.807
32.763
32.722
32.681
32.642
32.604
32.566
32.53
32.494
32.459
32.424
32.389
32.353
32.318
32.283
32.247
32.212
32.177
32.142
32.108
32.075
32.043
32.012
31.981
31.951
31.921
31.892
31.862
31.833
31.805
31.779
31.755
31.736
31.723
31.72
31.728
31.753
31.798
31.867
31.964
32.093
32.256
32.455
32.691
32.966
33.276
33.621
33.997
34.399
34.822
35.26
35.707
36.155
36.599
37.032
37.448
37.842
38.21
38.547
38.852
39.121
39.353
39.549
39.708
39.831
39.919
39.975
40.0
39.997
39.968
39.915
39.842
39.75
39.642
39.52
39.389
39.248
39.102
38.951
38.796
38.64
38.482
38.324
38.165
38.008
37.852
37.697
37.545
37.395
37.247
37.101
36.956
36.813
36.67
36.528
36.386
36.244
36.103
35.964
35.827
35.692
35.56
35.432
35.31
35.193
35.085
34.985
34.896
34.818
34.753
34.701
34.661
34.634
34.619
34.615
34.622
34.637
34.661
34.69
34.725
34.761
34.799
34.837
34.873
34.906
34.936
34.962
34.984
35.001
35.013
35.019
35.018
35.012
34.999
34.98
34.954
34.921
34.883
34.838
34.789
34.735
34.676
34.612
34.545
34.474
34.401
34.326
34.249
34.17
34.092
34.012
33.932
33.851
33.77
33.688
33.607
33.526
33.446
33.367
33.289
33.214
33.14
33.07
33.001
32.935
32.871
32.809
32.748
32.688
32.629
32.571
32.514
32.457
32.401
32.346
32.293
32.242
32.192
32.144
32.098
32.052
32.007
31.963
31.919
31.875
31.832
31.79
31.749
31.709
31.669
31.63
31.592
31.554
31.516
31.478
31.44
31.402
31.365
31.327
31.291
31.256
31.223
31.192
31.165
31.143
31.128
31.123
31.13
31.153
31.195
31.26
31.349
31.466
31.614
31.792
32.003
32.246
32.52
32.823
33.15
33.499
33.865
34.242
34.624
35.006
35.382
35.747
36.095
36.423
36.727
37.002
37.247
37.461
37.641
37.789
37.905
37.989
38.045
38.073
38.076
38.056
38.016
37.957
37.883
37.796
37.697
37.59
37.475
37.355
37.23
37.103
36.973
36.841
36.708
36.574
36.441
36.307
36.173
36.039
35.904
35.768
35.632
35.494
35.356
35.218
35.079
34.941
34.804
34.669
34.537
34.408
34.284
34.166
34.054
33.95
33.855
33.77
33.696
33.632
33.579
33.537
33.506
33.486
33.476
33.475
33.484
33.501
33.525
33.557
33.594
33.636
33.681
33.729
33.776
33.824
33.868
33.909
33.945
33.976
33.999
34.016
34.024
34.024
34.016
34.001
33.977
33.946
33.909
33.866
33.818
33.765
33.709
33.651
33.59
33.527
33.464
33.399
33.334
33.268
33.203
33.136
33.07
33.003
32.935
32.866
32.797
32.726
32.655
32.584
32.513
32.441
32.37
32.298
32.228
32.158
32.089
32.022
31.956
31.892
31.829
31.768
31.71
31.653
31.599
31.547
31.497
31.449
31.404
31.361
31.321
31.283
31.247
31.213
31.183
31.154
31.127
31.102
31.078
31.055
31.034
31.013
30.994
30.974
30.956
30.937
30.919
30.9
30.882
30.864
30.845
30.826
30.806
30.786
30.766
30.744
30.722
30.699
30.677
30.654
30.634
30.615
30.6
30.59
30.586
30.592
30.609
30.642
30.693
30.765
30.864
30.99
31.148
31.337
31.559
31.813
32.098
32.412
32.752
33.114
33.492
33.882
34.279
34.677
35.071
35.454
35.822
36.17
36.494
36.791
37.059
37.296
37.501
37.674
37.816
37.927
38.009
38.064
38.095
38.102
38.09
38.059
38.012
37.953
37.882
37.802
37.714
37.62
37.522
37.421
37.319
37.216
37.114
37.013
36.913
36.816
36.72
36.627
36.536
36.446
36.358
36.27
36.183
36.095
36.005
35.915
35.823
35.728
35.633
35.536
35.438
35.341
35.245
35.151
35.06
34.973
34.89
34.813
34.741
34.675
34.615
34.562
34.516
34.476
34.443
34.417
34.398
34.385
34.377
34.375
34.378
34.385
34.396
34.409
34.423
34.439
34.454
34.469
34.482
34.493
34.502
34.507
34.508
34.505
34.498
34.487
34.471
34.452
34.428
34.401
34.37
34.336
34.299
34.259
34.216
34.169
34.118
34.065
34.009
33.95
33.89
33.829
33.767
33.704
33.642
33.58
33.519
33.46
33.402
33.347
33.293
33.242
33.192
33.144
33.098
33.053
33.009
32.965
32.922
32.88
32.837
32.795
32.753
32.711
32.669
32.628
32.588
32.549
32.511
32.475
32.44
32.407
32.376
32.346
32.316
32.288
32.26
32.233
32.207
32.181
32.156
32.131
32.107
32.083
32.061
32.039
32.018
31.997
31.977
31.958
31.939
31.921
31.904
31.886
31.869
31.851
31.833
31.815
31.795
31.775
31.754
31.734
31.715
31.697
31.681
31.667
31.657
31.652
31.654
31.666
31.689
31.727
31.783
31.86
31.963
32.094
32.254
32.444
32.664
32.914
33.192
33.496
33.821
34.165
34.521
34.885
35.252
35.616
35.972
36.316
36.643
36.95
37.232
37.488
37.716
37.914
38.082
38.22
38.33
38.412
38.468
38.5
38.51
38.502
38.476
38.435
38.382
38.319
38.246
38.167
38.081
37.992
37.901
37.808
37.714
37.621
37.529
37.437
37.347
37.259
37.171
37.085
37.0
36.916
36.833
36.749
36.666
36.582
36.498
36.412
36.326
36.238
36.15
36.061
35.972
35.883
35.795
35.709
35.625
35.545
35.468
35.395
35.328
35.266
35.21
35.161
35.119
35.085
35.058
35.039
35.027
35.021
35.021
35.027
35.036
35.049
35.064
35.081
35.099
35.118
35.136
35.153
35.168
35.182
35.193
35.2
35.204
35.203
35.197
35.186
35.171
35.151
35.127
35.099
35.067
35.032
34.993
34.952
34.908
34.862
34.814
34.764
34.713
34.661
34.609
34.556
34.503
34.45
34.397
34.344
34.292
34.24
34.19
34.14
34.091
34.042
33.994
33.947
33.9
33.854
33.809
33.765
33.722
33.679
33.636
33.593
33.55
33.508
33.466
33.425
33.385
33.345
33.307
33.27
33.235
33.202
33.17
33.14
33.112
33.085
33.06
33.037
33.016
32.996
32.977
32.959
32.941
32.923
32.905
32.886
32.867
32.848
32.829
32.809
32.79
32.771
32.752
32.734
32.715
32.697
32.679
32.66
32.641
32.622
32.603
32.583
32.564
32.543
32.523
32.503
32.484
32.466
32.45
32.436
32.427
32.423
32.425
32.437
32.461
32.499
32.554
32.631
32.731
32.856
33.009
33.191
33.401
33.639
33.902
34.19
34.497
34.821
35.155
35.496
35.839
36.177
36.507
36.823
37.122
37.399
37.653
37.881
38.082
38.256
38.402
38.52
38.612
38.678
38.72
38.74
38.74
38.722
38.689
38.643
38.586
38.519
38.445
38.365
38.28
38.192
38.102
38.01
37.917
37.824
37.731
37.638
37.546
37.454
37.362
37.271
37.18
37.089
36.998
36.907
36.816
36.725
36.633
36.542
36.45
36.36
36.27
36.182
36.096
36.012
35.933
35.857
35.786
35.721
35.661
35.607
35.56
35.519
35.484
35.456
35.434
35.417
35.407
35.402
35.402
35.407
35.416
35.429
35.445
35.464
35.485
35.508
35.53
35.553
35.575
35.596
35.614
35.629
35.64
35.646
35.648
35.645
35.635
35.62
35.6
35.573
35.54
35.503
35.461
35.415
35.366
35.315
35.262
35.205
35.147
35.087
35.025
34.962
34.899
34.834
34.77
34.705
34.642
34.579
34.517
34.456
34.397
34.339
34.283
34.228
34.174
34.122
34.071
34.021
33.973
33.926
33.88
33.836
33.793
33.751
33.711
33.672
33.634
33.598
33.563
33.529
33.495
33.462
33.43
33.398
33.365
33.334
33.303
33.272
33.243
33.215
33.189
33.163
33.137
33.113
33.09
33.067
33.045
33.022
33.0
32.978
32.955
32.932
32.908
32.883
32.858
32.833
32.808
32.782
32.757
32.732
32.709
32.687
32.669
32.655
32.648
32.649
32.662
32.689
32.734
32.8
32.89
33.004
33.146
33.314
33.51
33.732
33.979
34.248
34.537
34.841
35.156
35.478
35.802
36.124
36.438
36.741
37.027
37.295
37.541
37.763
37.96
38.13
38.274
38.392
38.484
38.552
38.597
38.621
38.626
38.614
38.586
38.544
38.49
38.426
38.353
38.272
38.185
38.094
37.999
37.901
37.802
37.703
37.604
37.505
37.408
37.313
37.218
37.124
37.032
36.941
36.851
36.762
36.672
36.582
36.492
36.4
36.308
36.214
36.12
36.025
35.931
35.838
35.748
35.66
35.576
35.497
35.422
35.354
35.293
35.239
35.192
35.154
35.123
35.1
35.085
35.077
35.077
35.084
35.097
35.116
35.14
35.168
35.2
35.234
35.27
35.307
35.345
35.381
35.414
35.443
35.468
35.487
35.5
35.506
35.505
35.497
35.481
35.459
35.431
35.396
35.356
35.311
35.261
35.208
35.151
35.092
35.032
34.97
34.907
34.844
34.781
34.718
34.657
34.597
34.538
34.48
34.422
34.366
34.311
34.256
34.202
34.148
34.094
34.04
33.986
33.932
33.879
33.826
33.773
33.721
33.67
33.619
33.569
33.52
33.472
33.425
33.38
33.336
33.293
33.252
33.212
33.172
33.134
33.097
33.061
33.026
32.992
32.959
32.927
32.896
32.866
32.837
32.809
32.783
32.758
32.735
32.713
32.693
32.673
32.655
32.637
32.621
32.604
32.588
32.573
32.557
32.541
32.525
32.507
32.489
32.47
32.451
32.432
32.414
32.397
32.383
32.372
32.367
32.368
32.379
32.401
32.439
32.494
32.571
32.673
32.802
32.96
33.148
33.368
33.618
33.898
34.205
34.537
34.889
