Trial 1:0back
36.967
37.29
37.601
37.894
38.166
38.412
38.63
38.818
38.975
39.1
39.194
39.256
39.289
39.295
39.274
39.23
39.164
39.08
38.981
38.868
38.743
38.609
38.468
38.322
38.172
38.021
37.869
37.719
37.57
37.423
37.279
37.137
36.999
36.863
36.729
36.596
36.466
36.337
36.212
36.09
35.971
35.857
35.746
35.64
35.537
35.439
35.346
35.259
35.177
35.1
35.03
34.964
34.905
34.852
34.805
34.764
34.729
34.7
34.677
34.659
34.647
34.64
34.638
34.641
34.649
34.662
34.68
34.702
34.727
34.753
34.781
34.809
34.835
34.861
34.883
34.904
34.921
34.936
34.947
34.954
34.957
34.956
34.95
34.94
34.926
34.909
34.889
34.867
34.842
34.816
34.789
34.759
34.728
34.696
34.662
34.627
34.593
34.558
34.524
34.49
34.456
34.423
34.388
34.354
34.317
34.28
34.243
34.204
34.165
34.125
34.085
34.044
34.004
33.965
33.927
33.891
33.855
33.822
33.79
33.761
33.734
33.709
33.686
33.663
33.642
33.621
33.601
33.581
33.561
33.542
33.523
33.504
33.486
33.467
33.449
33.432
33.415
33.4
33.388
33.378
33.373
33.374
33.384
33.405
33.437
33.486
33.552
33.638
33.747
33.88
34.038
34.223
34.436
34.676
34.942
35.233
35.545
35.873
36.214
36.562
36.913
37.259
37.596
37.919
38.223
38.504
38.759
38.985
39.18
39.342
39.472
39.568
39.632
39.665
39.67
39.648
39.603
39.536
39.451
39.352
39.24
39.117
38.988
38.854
38.716
38.576
38.435
38.294
38.154
38.015
37.877
37.741
37.607
37.476
37.347
37.221
37.096
36.974
36.854
36.736
36.62
36.505
36.392
36.28
36.169
36.059
35.951
35.844
35.741
35.642
35.548
35.457
35.371
35.291
35.216
35.147
35.083
35.026
34.975
34.929
34.89
34.858
34.832
34.811
34.797
34.788
34.784
34.784
34.789
34.799
34.812
34.828
34.848
34.871
34.896
34.921
34.946
34.97
34.991
35.009
35.023
35.032
35.038
35.039
35.035
35.028
35.016
35.0
34.981
34.959
34.933
34.904
34.872
34.836
34.799
34.759
34.718
34.675
34.631
34.586
34.542
34.498
34.455
34.413
34.372
34.331
34.292
34.254
34.216
34.18
34.144
34.108
34.074
34.04
34.007
33.974
33.942
33.91
33.88
33.852
33.828
33.809
33.792
33.778
33.765
33.751
33.736
33.719
33.698
33.673
33.645
33.614
33.581
33.546
33.51
33.473
33.438
33.404
33.373
33.345
33.321
33.3
33.283
33.27
33.262
33.259
33.261
33.271
33.289
33.317
33.358
33.414
33.486
33.577
33.69
33.827
33.992
34.184
34.406
34.656
34.935
35.24
35.569
35.918
36.283
36.656
37.033
37.406
37.769
38.117
38.445
38.747
39.02
39.261
39.467
39.637
39.771
39.868
39.931
39.96
39.956
39.924
39.865
39.786
39.688
39.576
39.452
39.319
39.181
39.039
38.895
38.749
38.603
38.458
38.315
38.173
38.034
37.897
37.763
37.632
37.503
37.376
37.252
37.131
37.012
36.895
36.78
36.666
36.555
36.445
36.335
36.227
36.119
36.013
35.908
35.805
35.705
35.608
35.515
35.426
35.343
35.265
35.194
35.13
35.074
35.025
34.981
34.946
34.918
34.897
34.884
34.878
34.878
34.884
34.894
34.908
34.926
34.945
34.966
34.987
35.006
35.023
35.035
35.044
35.048
35.048
35.044
35.036
35.025
35.012
34.997
34.98
34.961
34.94
34.918
34.893
34.866
34.838
34.807
34.775
34.741
34.706
34.67
34.633
34.594
34.554
34.513
34.47
34.427
34.384
34.342
34.3
34.26
34.22
34.183
34.146
34.11
34.075
34.04
34.006
33.972
33.938
33.905
33.871
33.837
33.803
33.769
33.734
33.7
33.667
33.635
33.604
33.575
33.548
33.524
33.502
33.481
33.461
33.441
33.422
33.403
33.385
33.366
33.347
33.329
33.312
33.298
33.286
33.275
33.263
33.252
33.241
33.23
33.219
33.209
33.202
33.197
33.197
33.201
33.212
33.232
33.262
33.306
33.367
33.447
33.547
33.671
33.819
33.993
34.195
34.426
34.686
34.972
35.283
35.614
35.961
36.32
36.685
37.048
37.404
37.748
38.073
38.375
38.651
38.896
39.111
39.292
39.438
39.551
39.629
39.673
39.686
39.67
39.627
39.559
39.469
39.361
39.237
39.102
38.958
38.808
38.654
38.498
38.343
38.189
38.038
37.891
37.747
37.606
37.468
37.332
37.2
37.071
36.944
36.82
36.697
36.577
36.46
36.346
36.233
36.122
36.013
35.905
35.8
35.696
35.594
35.494
35.397
35.304
35.216
35.133
35.057
34.988
34.926
34.871
34.823
34.782
34.748
34.722
34.703
34.689
34.681
34.678
34.681
34.688
34.7
34.714
34.73
34.749
34.769
34.789
34.81
34.83
34.848
34.865
34.88
34.891
34.9
34.906
34.908
34.907
34.902
34.894
34.882
34.865
34.843
34.817
34.786
34.752
34.715
34.676
34.635
34.593
34.552
34.512
34.473
34.435
34.398
34.364
34.331
34.299
34.267
34.234
34.2
34.165
34.128
34.088
34.047
34.004
33.959
33.915
33.871
33.828
33.787
33.747
33.71
33.676
33.645
33.615
33.588
33.562
33.537
33.514
33.492
33.471
33.45
33.431
33.412
33.395
33.38
33.367
33.355
33.345
33.336
33.328
33.32
33.313
33.307
33.3
33.294
33.286
33.278
33.269
33.259
33.254
33.259
33.276
33.303
33.338
33.376
33.418
33.46
33.503
33.548
33.595
33.648
33.708
33.781
33.871
33.98
34.111
34.269
34.455
34.669
34.912
35.184
35.482
35.802
36.14
36.489
36.845
37.199
37.545
37.877
38.189
38.475
38.731
38.952
39.139
39.288
39.401
39.476
39.517
39.524
39.5
39.449
39.373
39.276
39.162
39.034
38.895
38.748
38.594
38.437
38.278
38.118
37.958
37.799
37.642
37.487
37.334
37.184
37.035
36.888
36.744
36.603
36.464
36.329
36.197
36.069
35.944
35.823
35.706
35.595
35.488
35.386
35.289
35.197
35.111
35.033
34.961
34.895
34.836
34.785
34.74
34.703
34.673
34.65
34.633
34.622
34.618
34.619
34.625
34.637
34.653
34.673
34.695
34.72
34.746
34.772
34.798
34.824
34.848
34.871
34.892
34.91
34.924
34.935
34.942
34.946
34.947
34.943
34.936
34.926
34.913
34.896
34.877
34.855
34.831
34.806
34.778
34.75
34.72
34.688
34.654
34.619
34.581
34.542
34.502
34.462
34.422
34.382
34.343
34.303
34.264
34.226
34.188
34.151
34.113
34.077
34.041
34.007
33.973
33.941
33.909
33.876
33.844
33.813
33.781
33.749
33.716
33.683
33.651
33.62
33.591
33.564
33.538
33.515
33.494
33.476
33.46
33.445
33.43
33.416
33.402
33.389
33.377
33.364
33.352
33.341
33.33
33.321
33.313
33.307
33.303
33.301
33.305
33.314
33.331
33.357
33.395
33.449
33.52
33.612
33.726
33.865
34.029
34.22
34.437
34.679
34.946
35.236
35.549
35.88
36.226
36.583
36.943
37.302
37.652
37.987
38.301
38.591
38.851
39.079
39.273
39.432
39.555
39.642
39.696
39.718
39.71
39.676
39.617
39.537
39.439
39.325
39.197
39.058
38.912
38.761
38.604
38.445
38.285
38.125
37.967
37.812
37.661
37.513
37.37
37.23
37.095
36.963
36.833
36.707
36.582
36.459
36.338
36.219
36.102
35.987
35.875
35.766
35.66
35.559
35.463
35.371
35.286
35.206
35.133
35.066
35.007
34.953
34.907
34.867
34.832
34.803
34.779
34.761
34.747
34.738
34.733
34.731
34.735
34.742
34.753
34.767
34.782
34.801
34.822
34.843
34.865
34.885
34.903
34.92
34.933
34.943
34.949
34.95
34.949
34.944
34.935
34.923
34.908
34.89
34.869
34.846
34.82
34.791
34.761
34.729
34.696
34.66
34.623
34.585
34.546
34.506
34.465
34.422
34.379
34.335
34.291
34.247
34.204
34.162
34.12
34.079
34.04
34.001
33.956
33.901
33.837
33.765
33.689
33.613
33.541
33.476
33.421
33.377
33.345
33.326
33.317
33.319
33.329
33.345
33.365
33.387
33.408
33.427
33.443
33.453
33.458
33.457
33.451
33.44
33.424
33.405
33.384
33.361
33.337
33.314
33.292
33.272
33.253
33.236
33.22
33.207
33.198
33.192
33.192
33.199
33.214
33.239
33.275
33.326
33.395
33.483
33.595
33.731
33.893
34.085
34.306
34.557
34.837
35.145
35.477
35.83
36.2
36.579
36.963
37.344
37.717
38.074
38.41
38.72
39.0
39.248
39.46
39.637
39.778
39.882
39.953
39.991
40.0
39.98
39.935
39.868
39.781
39.678
39.561
39.432
39.294
39.15
39.0
38.847
38.693
38.538
38.384
38.232
38.083
37.937
37.794
37.655
37.52
37.388
37.26
37.134
37.013
36.894
36.777
36.663
36.551
36.44
36.33
36.222
36.114
36.008
35.903
35.801
35.701
35.604
35.511
35.422
35.339
35.261
35.188
35.121
35.061
35.008
34.964
34.931
34.907
34.895
34.892
34.897
34.908
34.923
34.939
34.957
34.973
34.987
34.999
35.008
35.014
35.018
35.019
35.019
35.017
35.014
35.011
35.007
35.001
34.995
34.988
34.979
34.967
34.953
34.936
34.916
34.892
34.865
34.835
34.802
34.767
34.729
34.69
34.65
34.608
34.565
34.523
34.48
34.438
34.395
34.354
34.312
34.271
34.23
34.189
34.147
34.107
34.066
34.026
33.986
33.946
33.908
33.869
33.831
33.793
33.756
33.72
33.684
33.647
33.609
33.569
33.53
33.491
33.454
33.419
33.388
33.359
33.335
33.314
33.298
33.284
33.272
33.262
33.253
33.246
33.239
33.234
33.228
33.221
33.214
33.205
33.195
33.185
33.174
33.163
33.153
33.145
33.14
33.138
33.14
33.148
33.162
33.185
33.219
33.266
33.329
33.41
33.511
33.635
33.782
33.955
34.156
34.384
34.641
34.925
35.235
35.569
35.921
36.287
36.662
37.037
37.407
37.764
38.103
38.419
38.706
38.961
39.18
39.363
39.508
39.614
39.683
39.717
39.719
39.691
39.638
39.562
39.468
39.358
39.236
39.104
38.963
38.818
38.669
38.52
38.37
38.221
38.073
37.927
37.785
37.645
37.509
37.375
37.243
37.115
36.989
36.866
36.744
36.624
36.506
36.39
36.275
36.163
36.052
35.943
35.837
35.732
35.631
35.532
35.437
35.346
35.258
35.175
35.097
35.023
34.955
34.892
34.835
34.785
34.741
34.704
34.674
34.65
34.632
34.621
34.616
34.619
34.631
34.651
34.677
34.708
34.741
34.773
34.804
34.831
34.854
34.872
34.883
34.888
34.887
34.882
34.872
34.857
34.839
34.819
34.798
34.776
34.752
34.727
34.701
34.673
34.644
34.614
34.582
34.549
34.514
34.479
34.443
34.406
34.368
34.329
34.289
34.249
34.208
34.168
34.128
34.088
34.048
34.009
33.97
33.932
33.894
33.858
33.823
33.788
33.755
33.722
33.691
33.66
33.63
33.6
33.57
33.542
33.514
33.485
33.457
33.429
33.402
33.376
33.35
33.327
33.305
33.286
33.269
33.253
33.239
33.226
33.213
33.202
33.191
33.182
33.174
33.167
33.161
33.155
33.15
33.146
33.143
33.141
33.139
33.137
33.135
33.133
33.129
33.125
33.121
33.118
33.119
33.125
33.137
33.159
33.192
33.24
33.304
33.388
33.493
33.624
33.781
33.966
34.179
34.421
34.691
34.986
35.305
35.643
35.996
36.359
36.726
37.09
37.445
37.785
38.104
38.397
38.66
38.89
39.084
39.242
39.362
39.444
39.488
39.498
39.475
39.424
39.349
39.253
39.139
39.012
38.874
38.73
38.58
38.426
38.271
38.116
37.96
37.807
37.655
37.505
37.357
37.211
37.069
36.931
36.795
36.662
36.532
36.405
36.28
36.157
36.036
35.917
35.801
35.689
35.58
35.475
35.374
35.277
35.186
35.1
35.019
34.944
34.875
34.812
34.756
34.707
34.665
34.631
34.605
34.587
34.576
34.574
34.579
34.59
34.606
34.627
34.651
34.677
34.703
34.727
34.75
34.771
34.791
34.811
34.829
34.847
34.864
34.88
34.895
34.91
34.923
34.933
34.941
34.944
34.944
34.938
34.928
34.913
34.894
34.87
34.843
34.811
34.776
34.739
34.699
34.659
34.617
34.575
34.533
34.491
34.448
34.407
34.366
34.326
34.286
34.248
34.209
34.172
34.135
34.099
34.065
34.03
33.997
33.963
33.931
33.899
33.868
33.837
33.807
33.778
33.749
33.72
33.69
33.659
33.628
33.597
33.567
33.538
33.511
33.485
33.46
33.439
33.419
33.402
33.387
33.373
33.362
33.351
33.342
33.334
33.326
33.318
33.31
33.3
33.291
33.283
33.275
33.266
33.258
33.25
33.245
33.241
33.243
33.25
33.265
33.291
33.33
33.384
33.455
33.545
33.655
33.79
33.95
34.136
34.349
34.59
34.856
35.146
35.457
35.787
36.13
36.481
36.835
37.186
37.528
37.855
38.161
38.443
38.697
38.919
39.108
39.262
39.382
39.467
39.518
39.538
39.528
39.49
39.428
39.345
39.245
39.13
39.004
38.868
38.725
38.576
38.423
38.267
38.109
37.949
37.791
37.634
37.478
37.325
37.176
37.03
36.888
36.749
36.614
36.48
36.35
36.224
36.101
35.983
35.868
35.758
35.652
35.551
35.453
35.359
35.269
35.182
35.099
35.021
34.947
34.879
34.816
34.758
34.707
34.663
34.627
34.597
34.575
34.559
34.549
34.546
34.548
34.557
34.57
34.586
34.605
34.627
34.651
34.675
34.698
34.72
34.739
34.756
34.771
34.783
34.792
34.799
34.803
34.805
34.805
34.803
34.799
34.793
34.786
34.777
34.764
34.75
34.734
34.715
34.693
34.668
34.64
34.608
34.574
34.537
34.498
34.456
34.412
34.366
34.321
34.275
34.228
34.181
34.135
34.089
34.045
34.002
33.96
33.921
33.883
33.847
33.812
33.78
33.748
33.718
33.688
33.661
33.635
33.611
33.59
33.57
33.551
33.533
33.515
33.496
33.477
33.456
33.434
33.412
33.39
33.368
33.347
33.327
33.309
33.292
33.278
33.265
33.253
33.242
33.232
33.224
33.217
33.21
33.205
33.2
33.197
33.195
33.193
33.192
33.191
33.19
33.191
33.193
33.199
33.209
33.225
33.25
33.287
33.339
33.409
33.5
33.614
33.752
33.918
34.111
34.334
34.585
34.865
35.171
35.501
35.852
36.218
36.593
36.973
37.35
37.717
38.068
38.398
38.701
38.974
39.214
39.417
39.583
39.712
39.805
39.863
39.888
39.883
39.851
39.795
39.717
39.62
39.507
39.382
39.245
39.099
38.947
38.79
38.63
38.469
38.308
38.15
37.994
37.842
37.695
37.551
37.413
37.278
37.148
37.022
36.9
36.782
36.667
36.555
36.447
36.34
36.235
36.13
36.027
35.924
35.824
35.726
35.63
35.536
35.446
35.36
35.278
35.202
35.13
35.065
35.005
34.952
34.906
34.868
34.836
34.812
34.794
34.784
34.779
34.779
34.783
34.791
34.802
34.816
34.833
34.851
34.87
34.89
34.91
34.93
34.951
34.971
34.99
35.007
35.021
35.032
35.039
35.041
35.038
35.029
35.017
34.999
34.978
34.953
34.924
34.893
34.861
34.826
34.79
34.752
34.714
34.675
34.634
34.591
34.546
34.5
34.454
34.408
34.363
34.319
34.276
34.235
34.195
34.155
34.114
34.074
34.034
33.994
33.954
33.915
33.875
33.836
33.797
33.76
33.724
33.691
33.659
33.629
33.601
33.575
33.551
33.527
33.504
33.481
33.458
33.437
33.417
33.399
33.382
33.366
33.348
33.331
33.315
33.299
33.284
33.269
33.255
33.242
33.229
33.216
33.203
33.189
33.176
33.162
33.15
33.139
33.129
33.122
33.12
33.122
33.13
33.145
33.17
33.206
33.257
33.324
33.409
33.515
33.644
33.798
33.977
34.183
34.415
34.672
34.954
35.258
35.582
35.921
36.273
36.632
36.993
37.349
37.695
38.026
38.335
38.619
38.872
39.093
39.279
39.428
39.541
39.618
39.66
39.67
39.65
39.604
39.534
39.443
39.334
39.215
39.095
38.975
38.857
38.739
38.62
38.499
38.374
38.243
38.106
37.962
37.811
37.654
37.494
37.332
37.17
37.009
36.851
36.696
36.546
36.4
36.261
36.127
35.999
35.878
35.764
35.655
35.554
35.46
35.373
35.292
35.217
35.146
35.079
35.016
34.958
34.903
34.851
34.804
34.761
34.723
34.691
34.664
34.642
34.625
34.615
34.609
34.608
34.612
34.621
34.633
34.65
34.669
34.689
34.711
34.733
34.756
34.78
34.806
34.835
34.865
34.894
34.921
34.942
34.959
34.969
34.971
34.967
34.955
34.936
34.911
34.881
34.845
34.806
34.764
34.72
34.674
34.627
34.58
34.533
34.486
34.441
34.395
34.35
34.307
34.265
34.224
34.183
34.142
34.102
34.062
34.022
33.982
33.943
33.903
33.863
33.825
33.788
33.752
33.717
33.684
33.652
33.62
33.59
33.56
33.532
33.505
33.48
33.458
33.437
33.418
33.4
33.384
33.37
33.356
33.342
33.328
33.314
33.301
33.288
33.275
33.262
33.249
33.236
33.224
33.21
33.197
33.183
33.169
33.155
33.141
33.128
33.117
33.107
33.102
33.104
33.114
33.133
33.165
33.21
33.27
33.349
33.447
33.568
33.714
33.884
34.08
34.303
34.55
34.819
35.11
35.419
35.743
36.078
36.418
36.759
37.095
37.421
37.732
38.022
38.288
38.526
38.733
38.908
39.048
39.154
39.225
39.263
39.271
39.25
39.204
39.135
39.045
38.938
38.816
38.681
38.537
38.386
38.229
38.067
37.903
37.736
37.57
37.406
37.246
37.09
36.941
36.797
36.661
36.532
36.409
36.292
36.181
36.073
35.97
35.869
35.771
35.674
35.581
35.489
35.399
35.313
35.23
35.152
35.077
35.007
34.942
34.88
34.823
34.771
34.726
34.686
34.653
34.626
34.606
34.592
34.584
34.581
34.584
34.591
34.602
34.617
34.635
34.656
34.679
34.704
34.73
34.756
34.783
34.809
34.833
34.855
34.874
34.891
34.906
34.917
34.924
34.926
34.924
34.917
34.907
34.893
34.875
34.853
34.828
34.801
34.772
34.741
34.708
34.673
34.639
34.605
34.571
34.537
34.503
34.471
34.439
34.408
34.377
34.346
34.315
34.284
34.253
34.222
34.191
34.159
34.127
34.095
34.062
34.028
33.994
33.96
33.927
33.893
33.86
33.826
33.793
33.76
33.727
33.694
33.661
33.63
33.602
33.576
33.553
33.533
33.516
33.501
33.488
33.477
33.468
33.459
33.451
33.443
33.435
33.426
33.419
33.414
33.411
33.409
33.41
33.413
33.419
33.431
33.448
33.472
33.507
33.553
33.614
33.692
33.789
33.909
34.053
34.223
34.419
34.643
34.892
35.167
35.463
35.779
36.111
36.453
36.799
37.144
37.481
37.805
38.11
38.391
38.644
38.866
39.053
39.205
39.321
39.401
39.446
39.459
39.443
39.4
39.332
39.244
39.138
39.018
38.888
38.749
38.604
38.455
38.303
38.151
37.999
37.848
37.699
37.552
37.408
37.267
37.129
36.993
36.861
36.731
36.602
36.476
36.352
36.231
36.112
35.997
35.885
35.776
35.67
35.569
35.472
35.38
35.292
35.21
35.133
35.061
34.996
34.936
34.882
34.834
34.792
34.755
34.724
34.697
34.674
34.655
34.64
34.629
34.622
34.619
34.62
34.627
34.636
34.649
34.664
34.682
34.7
34.72
34.739
34.758
34.777
34.795
34.814
34.831
34.847
34.86
34.872
34.88
34.886
34.888
34.887
34.884
34.877
34.866
34.851
34.832
34.81
34.784
34.754
34.719
34.681
34.643
34.604
34.564
34.525
34.487
34.45
34.414
34.378
34.343
34.307
34.271
34.234
34.197
34.159
34.12
34.082
34.044
34.006
33.968
33.929
33.892
33.856
33.821
33.788
33.757
33.728
33.7
33.674
33.649
33.625
33.601
33.578
33.557
33.536
33.515
33.496
33.476
33.457
33.437
33.416
33.395
33.373
33.351
33.329
33.309
33.29
33.273
33.259
33.248
33.241
33.238
33.241
33.25
33.269
33.297
33.338
33.392
33.465
33.557
33.673
33.813
33.98
34.174
34.396
34.645
34.918
35.216
35.535
35.872
36.222
36.58
36.94
37.297
37.645
37.977
38.288
38.574
38.83
39.055
39.246
39.402
39.522
39.608
39.66
39.682
39.674
39.64
39.583
39.507
39.413
39.305
39.185
39.055
38.918
38.777
38.633
38.487
38.342
38.198
38.056
37.916
37.779
37.644
37.512
37.383
37.256
37.131
37.009
36.89
36.774
36.659
36.546
36.437
36.329
36.224
36.122
36.022
35.924
35.829
35.735
35.643
35.552
35.462
35.375
35.292
35.215
35.143
35.078
35.022
34.974
34.934
34.902
34.877
34.86
34.849
34.843
34.844
34.849
34.858
34.871
34.886
34.905
34.925
34.947
34.968
34.99
35.011
35.03
35.047
35.062
35.073
35.081
35.085
35.086
35.083
35.076
35.066
35.054
35.039
35.022
35.002
34.981
34.957
34.931
34.904
34.875
34.845
34.812
34.776
34.739
34.7
34.66
34.618
34.576
34.534
34.492
34.451
34.411
34.373
34.336
34.3
34.265
34.229
34.193
34.157
34.121
34.084
34.046
34.008
33.97
33.931
33.893
33.854
33.816
33.78
33.745
33.713
33.682
33.654
33.628
33.605
33.583
33.561
33.54
33.52
33.5
33.48
33.461
33.443
33.425
33.408
33.392
33.376
33.36
33.343
33.327
33.313
33.299
33.288
33.281
33.28
33.286
33.301
33.328
33.369
33.427
33.503
33.601
33.722
33.866
34.036
34.232
34.453
34.699
34.97
35.264
35.579
35.909
