Trial 1:0back
35.233
35.212
35.191
35.169
35.147
35.125
35.102
35.079
35.056
35.034
35.012
34.991
34.969
34.946
34.923
34.899
34.877
34.856
34.837
34.819
34.804
34.79
34.779
34.769
34.761
34.753
34.745
34.737
34.727
34.717
34.708
34.7
34.693
34.688
34.684
34.68
34.676
34.673
34.669
34.665
34.661
34.656
34.649
34.642
34.635
34.628
34.621
34.616
34.611
34.607
34.603
34.599
34.596
34.594
34.593
34.592
34.59
34.588
34.585
34.581
34.576
34.571
34.564
34.556
34.547
34.536
34.524
34.511
34.499
34.486
34.473
34.459
34.445
34.433
34.421
34.411
34.402
34.394
34.388
34.382
34.378
34.376
34.375
34.375
34.377
34.381
34.387
34.396
34.409
34.426
34.449
34.477
34.513
34.558
34.611
34.673
34.743
34.822
34.908
35.0
35.095
35.192
35.292
35.391
35.49
35.587
35.678
35.763
35.84
35.907
35.964
36.011
36.048
36.076
36.096
36.107
36.112
36.111
36.106
36.098
36.086
36.072
36.055
36.035
36.014
35.992
35.97
35.947
35.924
35.901
35.876
35.851
35.825
35.799
35.773
35.748
35.725
35.701
35.677
35.652
35.626
35.598
35.57
35.542
35.513
35.483
35.452
35.42
35.388
35.357
35.327
35.3
35.274
35.251
35.231
35.213
35.2
35.189
35.182
35.179
35.178
35.179
35.182
35.188
35.195
35.205
35.216
35.229
35.241
35.253
35.263
35.273
35.282
35.291
35.299
35.308
35.317
35.326
35.335
35.346
35.356
35.367
35.375
35.382
35.385
35.387
35.385
35.381
35.373
35.363
35.35
35.335
35.318
35.299
35.28
35.26
35.24
35.218
35.195
35.172
35.149
35.127
35.107
35.089
35.072
35.057
35.042
35.028
35.014
35.001
34.988
34.974
34.96
34.944
34.928
34.91
34.892
34.874
34.857
34.838
34.819
34.799
34.779
34.758
34.738
34.719
34.701
34.683
34.666
34.649
34.634
34.621
34.609
34.599
34.589
34.581
34.573
34.565
34.559
34.553
34.549
34.545
34.541
34.538
34.535
34.534
34.534
34.535
34.538
34.542
34.545
34.548
34.551
34.552
34.554
34.554
34.552
34.548
34.542
34.535
34.526
34.518
34.509
34.5
34.491
34.48
34.469
34.458
34.448
34.438
34.427
34.417
34.406
34.395
34.385
34.376
34.367
34.359
34.352
34.345
34.34
34.337
34.336
34.337
34.342
34.35
34.361
34.376
34.397
34.422
34.453
34.49
34.533
34.582
34.636
34.696
34.76
34.829
34.9
34.974
35.049
35.123
35.197
35.268
35.337
35.402
35.462
35.518
35.568
35.612
35.65
35.683
35.709
35.729
35.741
35.747
35.746
35.738
35.726
35.71
35.69
35.668
35.644
35.617
35.591
35.564
35.538
35.513
35.489
35.465
35.439
35.412
35.383
35.352
35.321
35.288
35.254
35.218
35.18
35.143
35.106
35.071
35.037
35.006
34.976
34.948
34.923
34.899
34.878
34.86
34.845
34.832
34.821
34.812
34.807
34.804
34.805
34.809
34.816
34.825
34.835
34.846
34.858
34.871
34.884
34.897
34.91
34.921
34.932
34.942
34.952
34.962
34.972
34.982
34.992
35.001
35.009
35.016
35.022
35.026
35.03
35.031
35.03
35.028
35.024
35.019
35.013
35.006
34.998
34.988
34.977
34.964
34.95
34.933
34.915
34.895
34.873
34.851
34.828
34.806
34.785
34.766
34.749
34.734
34.719
34.706
34.694
34.682
34.671
34.66
34.649
34.637
34.625
34.613
34.601
34.59
34.579
34.569
34.558
34.546
34.535
34.523
34.512
34.502
34.491
34.48
34.469
34.458
34.447
34.436
34.426
34.414
34.401
34.387
34.372
34.357
34.343
34.331
34.32
34.311
34.304
34.3
34.298
34.298
34.301
34.306
34.313
34.32
34.329
34.337
34.345
34.353
34.359
34.364
34.367
34.369
34.37
34.369
34.367
34.364
34.36
34.355
34.349
34.342
34.334
34.326
34.315
34.303
34.289
34.274
34.257
34.24
34.224
34.209
34.195
34.183
34.173
34.166
34.161
34.158
34.157
34.159
34.164
34.172
34.183
34.2
34.221
34.249
34.284
34.326
34.377
34.436
34.502
34.576
34.656
34.741
34.83
34.921
35.013
35.105
35.193
35.278
35.357
35.429
35.495
35.554
35.606
35.65
35.688
35.718
35.741
35.757
35.766
35.769
35.766
35.758
35.746
35.73
35.71
35.688
35.664
35.64
35.616
35.594
35.572
35.55
35.528
35.507
35.484
35.462
35.439
35.416
35.392
35.367
35.34
35.312
35.284
35.256
35.229
35.201
35.173
35.145
35.116
35.089
35.062
35.038
35.016
34.997
34.981
34.968
34.958
34.95
34.944
34.94
34.937
34.935
34.933
34.931
34.931
34.931
34.932
34.933
34.935
34.938
34.941
34.946
34.953
34.962
34.971
34.981
34.99
34.998
35.006
35.015
35.023
35.031
35.038
35.044
35.049
35.052
35.055
35.058
35.06
35.061
35.06
35.057
35.053
35.047
35.04
35.031
35.021
35.01
34.997
34.982
34.967
34.952
34.938
34.924
34.91
34.896
34.881
34.867
34.852
34.838
34.824
34.812
34.801
34.791
34.781
34.772
34.763
34.755
34.746
34.736
34.725
34.712
34.697
34.683
34.668
34.654
34.64
34.626
34.612
34.599
34.588
34.578
34.568
34.559
34.549
34.539
34.528
34.516
34.503
34.49
34.477
34.465
34.453
34.443
34.436
34.432
34.431
34.431
34.433
34.435
34.437
34.439
34.441
34.444
34.446
34.448
34.449
34.45
34.45
34.45
34.45
34.451
34.449
34.446
34.442
34.435
34.428
34.421
34.414
34.406
34.398
34.389
34.38
34.371
34.361
34.351
34.34
34.328
34.315
34.303
34.291
34.28
34.271
34.264
34.259
34.257
34.258
34.262
34.271
34.283
34.3
34.321
34.347
34.379
34.416
34.459
34.508
34.562
34.621
34.685
34.752
34.823
34.896
34.971
35.048
35.124
35.2
35.275
35.347
35.417
35.484
35.546
35.603
35.653
35.697
35.732
35.761
35.783
35.798
35.807
35.81
35.807
35.8
35.787
35.771
35.751
35.729
35.704
35.678
35.651
35.624
35.597
35.571
35.547
35.524
35.502
35.48
35.46
35.44
35.421
35.403
35.385
35.368
35.351
35.334
35.318
35.302
35.287
35.272
35.258
35.243
35.227
35.212
35.195
35.178
35.16
35.141
35.121
35.102
35.084
35.068
35.054
35.042
35.034
35.028
35.025
35.024
35.025
35.028
35.031
35.036
35.041
35.047
35.055
35.064
35.073
35.084
35.094
35.106
35.118
35.13
35.141
35.153
35.163
35.172
35.179
35.184
35.186
35.186
35.184
35.179
35.172
35.163
35.151
35.139
35.124
35.109
35.093
35.075
35.057
35.039
35.021
35.003
34.987
34.97
34.955
34.94
34.926
34.913
34.901
34.89
34.88
34.871
34.861
34.852
34.842
34.832
34.823
34.814
34.805
34.794
34.783
34.771
34.759
34.747
34.736
34.724
34.713
34.7
34.686
34.672
34.659
34.646
34.635
34.625
34.616
34.606
34.597
34.588
34.581
34.574
34.566
34.558
34.549
34.539
34.53
34.521
34.513
34.505
34.498
34.492
34.486
34.48
34.476
34.472
34.468
34.464
34.459
34.454
34.449
34.444
34.44
34.436
34.433
34.43
34.429
34.43
34.432
34.435
34.438
34.441
34.444
34.446
34.447
34.449
34.451
34.452
34.453
34.453
34.452
34.449
34.445
34.441
34.435
34.429
34.42
34.41
34.399
34.386
34.373
34.359
34.346
34.332
34.318
34.305
34.292
34.28
34.269
34.26
34.252
34.245
34.241
34.239
34.24
34.243
34.248
34.255
34.263
34.272
34.28
34.289
34.298
34.308
34.319
34.333
34.35
34.371
34.398
34.431
34.47
34.517
34.569
34.629
34.694
34.766
34.842
34.922
35.005
35.089
35.174
35.257
35.338
35.415
35.488
35.555
35.615
35.667
35.711
35.747
35.775
35.796
35.809
35.816
35.816
35.81
35.798
35.78
35.759
35.732
35.702
35.669
35.634
35.597
35.562
35.527
35.494
35.464
35.435
35.409
35.386
35.365
35.347
35.332
35.318
35.306
35.294
35.281
35.267
35.251
35.234
35.216
35.196
35.175
35.153
35.13
35.106
35.081
35.056
35.031
35.007
34.983
34.96
34.938
34.917
34.9
34.885
34.874
34.867
34.864
34.864
34.869
34.877
34.888
34.901
34.916
34.933
34.952
34.971
34.991
35.012
35.033
35.053
35.074
35.094
35.112
35.128
35.141
35.151
35.157
35.16
35.16
35.159
35.156
35.152
35.147
35.142
35.137
35.132
35.126
35.12
35.112
35.104
35.095
35.085
35.074
35.063
35.051
35.038
35.025
35.012
34.999
34.986
34.972
34.959
34.945
34.93
34.915
34.899
34.883
34.867
34.85
34.834
34.818
34.802
34.786
34.77
34.756
34.742
34.728
34.715
34.703
34.691
34.68
34.671
34.662
34.655
34.65
34.646
34.644
34.644
34.646
34.649
34.653
34.657
34.661
34.664
34.666
34.666
34.664
34.661
34.656
34.65
34.642
34.634
34.625
34.617
34.61
34.603
34.598
34.592
34.587
34.582
34.577
34.573
34.57
34.567
34.566
34.566
34.567
34.57
34.575
34.58
34.585
34.589
34.59
34.589
34.586
34.58
34.573
34.565
34.557
34.547
34.536
34.525
34.513
34.502
34.492
34.482
34.472
34.463
34.454
34.446
34.441
34.438
34.436
34.435
34.435
34.436
34.438
34.442
34.448
34.456
34.466
34.479
34.494
34.513
34.536
34.564
34.599
34.639
34.686
34.738
34.797
34.86
34.93
35.004
35.08
35.158
35.236
35.311
35.384
35.451
35.513
35.569
35.617
35.658
35.69
35.714
35.731
35.742
35.748
35.748
35.744
35.735
35.723
35.707
35.687
35.665
35.64
35.612
35.582
35.551
35.519
35.487
35.457
35.426
35.397
35.367
35.338
35.31
35.282
35.257
35.233
35.211
35.19
35.171
35.152
35.135
35.118
35.101
35.084
35.066
35.047
35.027
35.007
34.988
34.969
34.951
34.935
34.919
34.905
34.893
34.882
34.875
34.87
34.866
34.865
34.864
34.865
34.867
34.872
34.879
34.889
34.9
34.913
34.928
34.944
34.961
34.98
35.0
35.019
35.038
35.054
35.068
35.08
35.091
35.099
35.106
35.112
35.115
35.116
35.115
35.113
35.111
35.107
35.102
35.097
35.089
35.08
35.071
35.061
35.051
35.041
35.031
35.02
35.009
34.999
34.989
34.979
34.971
34.961
34.95
34.938
34.925
34.911
34.896
34.88
34.863
34.845
34.827
34.808
34.789
34.77
34.751
34.733
34.715
34.697
34.68
34.665
34.65
34.636
34.624
34.612
34.601
34.59
34.581
34.573
34.567
34.563
34.562
34.562
34.563
34.566
34.569
34.573
34.577
34.582
34.586
34.588
34.59
34.59
34.59
34.589
34.588
34.586
34.584
34.581
34.577
34.573
34.569
34.564
34.558
34.552
34.546
34.54
34.534
34.53
34.527
34.525
34.524
34.522
34.521
34.519
34.516
34.513
34.509
34.504
34.5
34.496
34.492
34.49
34.489
34.489
34.491
34.494
34.499
34.504
34.511
34.518
34.527
34.536
34.546
34.559
34.573
34.59
34.611
34.636
34.666
34.701
34.741
34.787
34.839
34.896
34.958
35.024
35.093
35.163
35.235
35.308
35.38
35.452
35.523
35.59
35.654
35.714
35.769
35.818
35.86
35.894
35.921
35.938
35.947
35.947
35.94
35.926
35.906
35.882
35.854
35.823
35.792
35.76
35.728
35.697
35.667
35.638
35.611
35.585
35.561
35.539
35.519
35.502
35.486
35.471
35.458
35.446
35.433
35.421
35.407
35.393
35.377
35.36
35.342
35.322
35.301
35.278
35.255
35.232
35.209
35.187
35.166
35.145
35.126
35.108
35.091
35.074
35.059
35.045
35.032
35.022
35.014
35.009
35.008
35.01
35.016
35.026
35.04
35.057
35.076
35.097
35.119
35.14
35.161
35.181
35.198
35.214
35.227
35.239
35.25
35.259
35.266
35.271
35.274
35.273
35.269
35.263
35.254
35.244
35.233
35.222
35.211
35.2
35.189
35.179
35.169
35.16
35.15
35.139
35.127
35.114
35.1
35.086
35.072
35.057
35.042
35.027
35.012
34.999
34.986
34.975
34.964
34.952
34.94
34.927
34.913
34.897
34.879
34.861
34.842
34.822
34.802
34.783
34.767
34.753
34.743
34.736
34.731
34.73
34.731
34.734
34.739
34.743
34.748
34.753
34.757
34.761
34.765
34.768
34.772
34.774
34.775
34.774
34.772
34.767
34.761
34.754
34.745
34.735
34.725
34.713
34.702
34.691
34.68
34.67
34.661
34.653
34.645
34.638
34.631
34.625
34.62
34.617
34.614
34.613
34.612
34.612
34.613
34.616
34.62
34.625
34.63
34.634
34.638
34.64
34.641
34.642
34.642
34.642
34.641
34.64
34.64
34.642
34.646
34.654
34.665
34.681
34.7
34.725
34.757
34.795
34.841
34.894
34.954
35.02
35.092
35.169
35.25
35.334
35.42
35.506
35.591
35.672
35.747
35.816
35.878
35.931
35.976
36.012
36.037
36.053
36.06
36.06
36.053
36.04
36.023
36.0
35.974
35.944
35.912
35.88
35.848
35.816
35.786
35.756
35.728
35.701
35.676
35.652
35.631
35.61
35.59
35.569
35.549
35.528
35.508
35.489
35.47
35.451
35.431
35.41
35.389
35.366
35.343
35.319
35.294
35.268
35.243
35.218
35.196
35.176
35.159
35.146
35.136
35.129
35.125
35.125
35.127
35.131
35.136
35.143
35.148
35.153
35.158
35.162
35.166
35.17
35.175
35.181
35.187
35.194
35.2
35.207
35.214
35.221
35.228
35.234
35.24
35.246
35.251
35.257
35.262
35.267
35.271
35.273
35.275
35.276
35.276
35.275
35.272
35.267
35.259
35.249
35.237
35.225
35.213
35.202
35.191
35.181
35.17
35.159
35.148
35.136
35.124
35.111
35.098
35.084
35.071
35.059
35.047
35.037
35.027
35.019
35.01
35.002
34.994
34.986
34.977
34.969
34.959
34.948
34.936
34.925
34.914
34.904
34.894
34.883
34.872
34.861
34.85
34.84
34.83
34.82
34.81
34.798
34.787
34.775
34.765
34.757
34.75
34.745
34.741
34.739
34.738
34.739
34.743
34.747
34.752
34.757
34.761
34.765
34.769
34.774
34.778
34.782
34.785
34.788
34.789
34.79
34.789
34.786
34.781
34.772
34.761
34.748
34.734
34.719
34.704
34.69
34.677
34.666
34.657
34.65
34.645
34.644
34.644
34.647
34.651
34.656
34.662
34.669
34.677
34.686
34.696
34.708
34.723
34.742
34.767
34.798
34.836
34.882
34.934
34.992
35.056
35.126
35.202
35.281
35.362
35.444
35.524
35.601
35.674
35.741
35.802
35.856
35.903
35.941
35.971
35.993
36.007
36.015
36.016
36.012
36.002
35.987
35.967
35.943
35.916
35.885
35.853
35.819
35.783
35.746
35.708
35.672
35.637
35.605
35.576
35.549
35.524
35.502
35.481
35.462
35.444
35.427
35.41
35.392
35.374
35.355
35.336
35.317
35.298
35.279
35.259
35.239
35.219
35.199
35.18
35.162
35.144
35.126
35.109
35.093
35.079
35.067
35.057
35.05
35.045
35.043
35.043
35.047
35.054
35.064
35.078
35.094
35.113
35.133
35.155
35.177
35.201
35.225
35.248
35.27
35.29
35.308
35.324
35.338
35.348
35.356
35.361
35.365
35.367
35.367
35.367
35.365
35.361
35.357
35.351
35.345
35.337
35.328
35.318
35.307
35.294
35.282
35.269
35.256
35.243
35.23
35.218
35.205
35.192
35.18
35.168
35.156
35.145
35.133
35.122
35.11
35.098
35.085
35.072
35.059
35.045
35.032
35.018
35.004
34.99
34.975
34.96
34.945
34.929
34.913
34.898
34.883
34.87
34.859
34.849
34.842
34.837
34.834
34.832
34.832
34.834
34.837
34.842
34.847
34.853
34.859
34.864
34.869
34.874
34.877
34.879
34.88
34.879
34.875
34.869
34.861
34.851
34.84
34.828
34.817
34.806
34.795
34.786
34.779
34.773
34.769
34.766
34.765
34.765
34.767
34.771
34.777
34.784
34.795
34.808
34.824
34.846
34.874
34.907
34.947
34.992
35.043
35.1
35.161
35.228
35.298
35.372
35.447
35.522
35.596
35.667
35.735
35.8
35.861
35.916
35.965
36.008
36.043
36.071
36.092
36.106
36.114
36.115
36.11
36.099
36.084
36.064
36.042
36.017
35.989
35.958
35.927
35.894
35.861
35.828
35.795
35.763
35.731
35.7
35.67
35.64
35.613
35.586
35.56
35.533
35.507
35.48
35.452
35.425
35.398
35.372
35.347
35.321
35.296
35.272
35.249
35.228
35.209
35.191
35.175
35.162
35.15
35.14
35.134
35.13
35.13
35.132
35.137
35.143
35.151
35.161
35.172
35.186
35.201
35.218
35.236
35.254
35.271
35.289
35.308
35.326
35.343
35.359
35.374
35.386
35.397
35.406
35.412
35.416
35.418
35.416
35.413
35.407
35.4
35.392
35.384
35.374
35.365
35.354
35.344
35.334
35.324
35.315
35.305
35.296
35.285
35.275
35.264
35.253
35.243
35.232
35.22
35.209
35.197
35.185
35.174
35.163
35.152
35.142
35.131
35.119
35.107
35.094
35.081
35.067
35.053
35.038
35.024
35.01
34.997
34.985
34.974
34.965
34.956
34.947
34.938
34.93
34.921
34.913
34.905
34.897
34.888
34.88
34.873
34.866
34.859
34.853
34.847
34.841
34.836
34.831
34.825
34.819
34.812
34.805
34.797
34.789
34.783
34.778
34.774
34.772
34.772
34.773
34.776
34.781
34.787
34.794
34.802
34.811
34.821
34.833
34.846
34.861
34.878
34.898
34.922
34.952
34.986
35.027
35.073
35.126
35.184
35.247
35.315
35.387
35.463
35.543
35.626
35.711
35.795
35.878
35.958
36.033
36.103
36.166
36.222
36.269
36.308
36.337
36.357
36.367
36.37
36.366
36.356
36.34
36.32
36.295
36.267
36.236
36.203
36.17
36.137
36.103
36.07
36.038
36.007
35.979
35.953
35.929
35.908
35.888
35.868
35.848
35.829
35.811
35.794
35.778
35.762
35.746
35.729
35.711
35.693
35.675
35.657
35.639
35.62
35.602
35.583
35.564
35.546
35.529
35.514
35.501
35.491
35.482
35.474
35.469
35.466
35.465
35.466
35.468
35.469
35.472
35.474
35.478
35.484
35.491
35.5
35.51
35.52
35.532
35.544
35.557
35.57
35.583
35.595
35.604
35.612
35.618
35.623
35.627
35.631
35.633
35.634
35.633
35.63
35.625
35.617
35.608
35.597
35.585
35.57
35.553
35.535
35.516
35.498
35.481
35.466
35.451
35.438
35.426
35.415
35.405
35.397
35.389
35.381
35.371
35.36
35.349
35.337
35.326
35.316
35.306
35.296
35.287
35.276
35.266
35.255
35.243
35.231
35.219
35.205
35.191
35.176
35.16
35.145
35.13
35.115
35.1
35.084
35.069
35.056
35.044
35.034
35.026
35.018
35.012
35.006
35.001
34.996
34.992
34.989
34.986
34.984
34.982
34.982
34.982
34.982
34.983
34.983
34.984
34.983
34.981
34.978
34.974
34.969
34.964
34.958
34.953
34.948
34.943
34.94
34.937
34.936
34.937
34.939
34.942
34.947
34.953
34.959
34.967
34.976
34.988
35.003
35.022
35.045
35.072
35.105
35.144
35.19
35.243
35.303
35.369
35.439
35.513
35.591
35.671
35.753
35.836
35.917
35.997
36.073
36.144
36.209
36.268
36.32
36.365
36.403
36.433
36.455
36.47
36.48
36.483
36.482
36.476
36.466
36.453
36.435
36.414
36.391
36.365
36.337
36.308
36.278
36.246
36.215
36.185
36.156
36.129
36.104
36.081
36.061
36.04
36.021
36.001
35.981
35.962
35.942
35.922
35.901
35.879
35.856
35.832
35.808
35.784
35.759
35.733
35.707
35.68
35.652
35.626
35.601
35.579
35.56
35.542
35.527
35.515
35.506
35.501
35.5
35.501
35.504
35.509
35.516
35.525
35.537
35.552
35.569
35.588
35.607
35.628
35.648
35.669
35.689
35.708
35.725
35.74
35.751
35.759
35.764
35.765
35.765
35.762
35.758
35.751
35.742
35.733
35.722
35.712
35.701
35.691
35.681
35.67
35.658
35.647
35.635
35.624
35.613
35.603
35.591
35.578
35.563
35.548
35.531
35.512
35.493
35.471
35.448
35.424
35.4
35.376
35.352
35.329
35.307
35.285
35.265
35.246
35.23
35.216
35.204
35.195
35.187
35.18
35.175
35.17
35.165
35.162
35.159
35.157
35.154
35.15
35.146
35.14
35.133
35.126
35.118
35.109
35.099
35.088
35.076
35.065
35.054
35.045
35.036
35.029
35.023
35.018
35.015
35.013
35.013
35.014
35.016
35.018
35.02
35.022
35.024
35.028
35.03
35.032
35.032
35.029
35.025
35.019
35.012
35.004
34.994
34.983
34.97
34.958
34.945
34.934
34.925
34.916
34.91
34.905
34.904
34.907
34.915
34.929
34.948
34.973
35.005
35.043
35.09
35.144
35.206
35.276
35.353
35.436
35.524
35.614
35.707
35.799
35.889
35.976
36.058
36.133
36.2
36.26
36.312
36.356
36.392
36.421
36.441
36.453
36.457
36.455
36.448
36.435
36.418
36.398
36.375
36.351
36.325
36.297
36.269
36.239
36.209
36.178
36.147
36.115
36.085
36.054
36.024
35.993
35.963
35.933
35.903
35.873
35.842
35.812
35.781
35.749
35.717
35.685
35.654
35.622
35.592
35.561
35.532
35.505
35.481
35.459
35.441
35.426
35.414
35.405
35.398
35.393
35.391
35.39
35.393
35.397
35.403
35.411
35.422
35.434
35.45
35.468
35.487
35.508
35.53
35.55
35.569
35.588
35.605
35.622
35.638
35.653
35.666
35.677
35.686
35.695
35.701
35.706
