Trial 1:0back
36.641
37.312
37.97
38.603
39.199
39.748
40.243
40.68
41.056
41.368
41.62
41.813
41.951
42.041
42.087
42.094
42.07
42.019
41.946
41.857
41.753
41.641
41.523
41.4
41.275
41.149
41.023
40.896
40.77
40.644
40.517
40.389
40.261
40.133
40.004
39.877
39.751
39.627
39.507
39.391
39.279
39.174
39.075
38.982
38.895
38.816
38.741
38.672
38.606
38.54
38.474
38.405
38.332
38.254
38.17
38.08
37.984
37.883
37.778
37.67
37.56
37.451
37.344
37.241
37.147
37.061
36.987
36.924
36.873
36.835
36.808
36.792
36.786
36.79
36.802
36.821
36.846
36.875
36.909
36.944
36.978
37.01
37.04
37.065
37.087
37.103
37.114
37.12
37.12
37.115
37.105
37.089
37.069
37.043
37.013
36.977
36.937
36.892
36.841
36.785
36.724
36.658
36.587
36.511
36.431
36.346
36.258
36.166
36.07
35.97
35.867
35.762
35.655
35.548
35.439
35.331
35.223
35.117
35.014
34.913
34.815
34.72
34.628
34.539
34.453
34.369
34.287
34.206
34.129
34.054
33.983
33.915
33.851
33.791
33.734
33.679
33.626
33.575
33.527
33.48
33.437
33.395
33.356
33.319
33.286
33.254
33.225
33.197
33.171
33.147
33.124
33.102
33.081
33.062
33.044
33.028
33.014
33.002
32.991
32.981
32.972
32.963
32.954
32.945
32.936
32.927
32.919
32.91
32.902
32.894
32.887
32.88
32.872
32.865
32.858
32.849
32.838
32.826
32.813
32.798
32.781
32.764
32.744
32.722
32.697
32.67
32.641
32.611
32.581
32.552
32.523
32.494
32.465
32.437
32.408
32.38
32.353
32.326
32.3
32.276
32.253
32.232
32.212
32.194
32.177
32.16
32.143
32.126
32.108
32.087
32.064
32.038
32.008
31.975
31.94
31.903
31.865
31.825
31.785
31.745
31.705
31.664
31.625
31.585
31.545
31.506
31.468
31.43
31.394
31.36
31.328
31.298
31.273
31.251
31.234
31.22
31.21
31.203
31.2
31.202
31.209
31.224
31.253
31.299
31.368
31.468
31.606
31.788
32.021
32.31
32.657
33.063
33.525
34.038
34.595
35.186
35.801
36.427
37.051
37.661
38.246
38.796
39.302
39.757
40.157
40.5
40.785
41.013
41.188
41.314
41.393
41.432
41.436
41.41
41.359
41.29
41.206
41.11
41.006
40.897
40.784
40.67
40.555
40.439
40.324
40.208
40.093
39.978
39.864
39.75
39.636
39.521
39.407
39.294
39.182
39.071
38.962
38.856
38.754
38.655
38.561
38.471
38.385
38.3
38.216
38.132
38.047
37.959
37.869
37.777
37.683
37.589
37.495
37.402
37.31
37.221
37.136
37.057
36.985
36.92
36.863
36.814
36.775
36.744
36.723
36.711
36.707
36.712
36.725
36.748
36.78
36.82
36.866
36.918
36.975
37.034
37.094
37.154
37.212
37.267
37.318
37.364
37.403
37.434
37.458
37.473
37.479
37.474
37.46
37.435
37.4
37.355
37.3
37.236
37.163
37.083
36.997
36.906
36.81
36.711
36.61
36.507
36.404
36.301
36.199
36.098
35.999
35.9
35.804
35.708
35.613
35.52
35.427
35.334
35.242
35.15
35.058
34.965
34.872
34.78
34.688
34.596
34.506
34.419
34.335
34.254
34.178
34.107
34.04
33.977
33.919
33.865
33.814
33.767
33.722
33.681
33.644
33.609
33.577
33.548
33.522
33.497
33.475
33.455
33.436
33.419
33.403
33.388
33.374
33.36
33.348
33.336
33.326
33.317
33.311
33.305
33.3
33.295
33.291
33.286
33.28
33.272
33.264
33.253
33.242
33.229
33.214
33.197
33.179
33.158
33.135
33.11
33.083
33.054
33.026
32.997
32.968
32.94
32.913
32.886
32.858
32.83
32.801
32.771
32.741
32.71
32.679
32.647
32.615
32.583
32.551
32.52
32.489
32.459
32.429
32.4
32.371
32.343
32.314
32.286
32.257
32.23
32.203
32.179
32.156
32.135
32.115
32.097
32.081
32.064
32.049
32.034
32.019
32.003
31.985
31.965
31.942
31.917
31.889
31.859
31.829
31.797
31.764
31.73
31.696
31.662
31.63
31.599
31.569
31.542
31.516
31.491
31.467
31.445
31.424
31.406
31.392
31.384
31.384
31.393
31.415
31.454
31.517
31.609
31.738
31.912
32.138
32.422
32.768
33.178
33.65
34.181
34.763
35.386
36.04
36.712
37.386
38.051
38.693
39.301
39.865
40.377
40.831
41.224
41.555
41.824
42.034
42.188
42.292
42.35
42.368
42.353
42.309
42.243
42.159
42.06
41.951
41.833
41.708
41.578
41.444
41.308
41.172
41.036
40.903
40.772
40.643
40.519
40.399
40.284
40.174
40.067
39.965
39.865
39.769
39.675
39.584
39.494
39.406
39.321
39.237
39.155
39.075
38.995
38.917
38.839
38.761
38.682
38.603
38.523
38.441
38.358
38.273
38.187
38.1
38.012
37.924
37.836
37.75
37.666
37.587
37.514
37.448
37.39
37.34
37.301
37.27
37.248
37.236
37.233
37.238
37.25
37.269
37.295
37.325
37.358
37.393
37.427
37.46
37.491
37.519
37.543
37.561
37.575
37.582
37.584
37.579
37.568
37.549
37.523
37.489
37.449
37.401
37.346
37.285
37.217
37.143
37.062
36.976
36.886
36.791
36.694
36.594
36.493
36.391
36.286
36.181
36.074
35.967
35.859
35.751
35.642
35.535
35.427
35.32
35.213
35.107
35.001
34.897
34.795
34.695
34.599
34.505
34.415
34.329
34.246
34.166
34.089
34.016
33.947
33.883
33.822
33.765
33.71
33.657
33.604
33.552
33.5
33.449
33.399
33.351
33.303
33.257
33.212
33.169
33.129
33.091
33.055
33.022
32.992
32.965
32.942
32.921
32.902
32.887
32.874
32.863
32.854
32.847
32.841
32.837
32.834
32.831
32.827
32.823
32.817
32.809
32.798
32.785
32.769
32.751
32.73
32.707
32.682
32.656
32.629
32.601
32.574
32.546
32.518
32.489
32.46
32.431
32.401
32.371
32.341
32.31
32.279
32.247
32.216
32.184
32.152
32.12
32.089
32.059
32.028
31.997
31.966
31.935
31.904
31.872
31.84
31.808
31.775
31.743
31.711
31.678
31.647
31.616
31.586
31.557
31.529
31.501
31.475
31.45
31.425
31.4
31.374
31.347
31.318
31.289
31.258
31.227
31.195
31.163
31.132
31.102
31.072
31.043
31.014
30.986
30.96
30.936
30.915
30.896
30.881
30.869
30.861
30.856
30.856
30.862
30.876
30.903
30.947
31.014
31.11
31.244
31.423
31.653
31.941
32.29
32.701
33.174
33.704
34.283
34.901
35.547
36.208
36.87
37.519
38.144
38.733
39.277
39.769
40.204
40.579
40.891
41.141
41.332
41.467
41.553
41.593
41.594
41.562
41.503
41.424
41.33
41.224
41.111
40.993
40.871
40.748
40.624
40.499
40.374
40.248
40.122
39.995
39.869
39.743
39.617
39.491
39.367
39.244
39.124
39.006
38.89
38.777
38.666
38.559
38.455
38.356
38.261
38.17
38.083
37.998
37.916
37.837
37.758
37.679
37.598
37.516
37.432
37.346
37.259
37.173
37.091
37.013
36.94
36.872
36.809
36.75
36.694
36.641
36.592
36.547
36.506
36.472
36.446
36.431
36.426
36.433
36.451
36.48
36.518
36.564
36.616
36.671
36.729
36.787
36.843
36.896
36.944
36.985
37.018
37.042
37.059
37.066
37.066
37.057
37.04
37.017
36.987
36.95
36.907
36.858
36.803
36.743
36.679
36.611
36.539
36.464
36.386
36.306
36.223
36.137
36.049
35.956
35.859
35.758
35.654
35.547
35.438
35.33
35.224
35.12
35.018
34.92
34.824
34.731
34.641
34.555
34.473
34.394
34.319
34.247
34.179
34.114
34.053
33.995
33.94
33.887
33.835
33.785
33.736
33.688
33.642
33.597
33.553
33.511
33.472
33.435
33.4
33.368
33.34
33.315
33.293
33.273
33.256
33.24
33.226
33.212
33.2
33.189
33.179
33.17
33.161
33.153
33.146
33.139
33.133
33.126
33.119
33.111
33.102
33.092
33.081
33.068
33.054
33.038
33.021
33.002
32.983
32.964
32.947
32.93
32.916
32.902
32.89
32.878
32.866
32.853
32.839
32.824
32.807
32.788
32.768
32.746
32.722
32.698
32.672
32.647
32.621
32.596
32.57
32.545
32.519
32.493
32.465
32.435
32.403
32.369
32.334
32.297
32.26
32.223
32.185
32.148
32.113
32.078
32.044
32.011
31.979
31.948
31.918
31.889
31.861
31.835
31.811
31.79
31.774
31.764
31.763
31.773
31.797
31.839
31.906
32.004
32.14
32.32
32.549
32.831
33.17
33.566
34.017
34.518
35.061
35.637
36.233
36.839
37.442
38.03
38.591
39.117
39.6
40.032
40.412
40.737
41.008
41.224
41.389
41.506
41.58
41.614
41.614
41.585
41.531
41.457
41.368
41.267
41.157
41.04
40.919
40.795
40.669
40.541
40.412
40.281
40.147
40.011
39.874
39.736
39.599
39.463
39.328
39.195
39.065
38.938
38.815
38.696
38.58
38.468
38.359
38.252
38.149
38.047
37.948
37.849
37.752
37.655
37.558
37.461
37.366
37.271
37.177
37.085
36.994
36.906
36.82
36.739
36.663
36.593
36.53
36.476
36.432
36.4
36.379
36.371
36.375
36.391
36.418
36.456
36.504
36.561
36.625
36.694
36.766
36.838
36.909
36.975
37.037
37.094
37.144
37.187
37.222
37.249
37.267
37.277
37.278
37.27
37.252
37.225
37.189
37.145
37.091
37.03
36.963
36.889
36.811
36.728
36.641
36.553
36.462
36.369
36.276
36.181
36.086
35.99
35.893
35.795
35.696
35.596
35.495
35.394
35.29
35.186
35.081
34.975
34.868
34.761
34.655
34.55
34.447
34.346
34.248
34.155
34.065
33.98
33.899
33.824
33.753
33.686
33.623
33.565
33.51
33.459
33.41
33.365
33.322
33.284
33.248
33.216
33.186
33.159
33.135
33.113
33.092
33.072
33.054
33.037
33.023
33.009
32.998
32.99
32.983
32.979
32.976
32.975
32.975
32.977
32.978
32.98
32.98
32.978
32.975
32.97
32.962
32.952
32.94
32.93
32.925
32.924
32.925
32.927
32.929
32.929
32.926
32.918
32.905
32.886
32.861
32.83
32.792
32.748
32.7
32.649
32.596
32.542
32.49
32.439
32.392
32.348
32.308
32.271
32.238
32.208
32.18
32.154
32.13
32.108
32.087
32.068
32.049
32.031
32.011
31.992
31.971
31.95
31.928
31.905
31.881
31.856
31.829
31.8
31.769
31.735
31.7
31.663
31.626
31.588
31.551
31.515
31.48
31.447
31.414
31.382
31.351
31.322
31.297
31.276
31.259
31.248
31.244
31.249
31.268
31.305
31.366
31.46
31.594
31.776
32.015
32.317
32.685
33.12
33.62
34.18
34.792
35.445
36.126
36.821
37.515
38.195
38.847
39.458
40.021
40.527
40.971
41.352
41.668
41.921
42.114
42.25
42.335
42.373
42.371
42.335
42.271
42.184
42.081
41.965
41.841
41.713
41.583
41.451
41.32
41.189
41.057
40.926
40.794
40.662
40.53
40.398
40.266
40.135
40.005
39.877
39.753
39.633
39.517
39.408
39.304
39.208
39.117
39.033
38.955
38.881
38.811
38.743
38.676
38.609
38.539
38.467
38.39
38.309
38.223
38.134
38.041
37.944
37.846
37.747
37.648
37.552
37.459
37.37
37.286
37.209
37.139
37.077
37.023
36.978
36.943
36.916
36.899
36.891
36.891
36.899
36.914
36.934
36.96
36.988
37.018
37.048
37.078
37.106
37.131
37.152
37.169
37.18
37.185
37.184
37.175
37.158
37.134
37.101
37.06
37.012
36.956
36.894
36.825
36.751
36.671
36.587
36.499
36.408
36.314
36.22
36.125
36.03
35.934
35.84
35.745
35.651
35.556
35.461
35.365
35.268
35.171
35.072
34.974
34.877
34.781
34.686
34.593
34.501
34.41
34.319
34.229
34.14
34.051
33.964
33.878
33.794
33.714
33.638
33.567
33.5
33.438
33.381
33.328
33.281
33.239
33.203
33.172
33.146
33.124
33.107
33.092
33.08
33.069
33.059
33.049
33.038
33.026
33.013
32.999
32.983
32.967
32.951
32.934
32.918
32.901
32.884
32.868
32.851
32.834
32.817
32.8
32.783
32.766
32.748
32.729
32.71
32.691
32.671
32.65
32.629
32.609
32.589
32.568
32.548
32.528
32.509
32.49
32.472
32.453
32.433
32.412
32.391
32.368
32.344
32.319
32.293
32.267
32.24
32.213
32.186
32.159
32.132
32.105
32.078
32.052
32.025
31.999
31.973
31.947
31.922
31.897
31.872
31.848
31.825
31.803
31.781
31.758
31.735
31.71
31.685
31.659
31.633
31.606
31.58
31.554
31.528
31.501
31.473
31.445
31.416
31.386
31.356
31.326
31.294
31.262
31.228
31.195
31.161
31.13
31.1
31.074
31.05
31.029
31.012
30.998
30.988
30.983
30.983
30.989
31.002
31.025
31.06
31.113
31.191
31.303
31.456
31.659
31.917
32.237
32.62
33.066
33.573
34.133
34.738
35.376
36.035
36.7
37.357
37.993
38.597
39.158
39.669
40.122
40.516
40.847
41.116
41.326
41.479
41.581
41.638
41.657
41.642
41.6
41.534
41.451
41.355
41.25
41.139
41.023
40.902
40.779
40.654
40.526
40.397
40.265
40.132
39.999
39.865
39.732
39.601
39.473
39.347
39.224
39.105
38.991
38.881
38.776
38.676
38.578
38.485
38.394
38.305
38.218
38.131
38.044
37.956
37.867
37.777
37.684
37.59
37.494
37.399
37.304
37.211
37.12
37.033
36.951
36.874
36.803
36.741
36.686
36.641
36.606
36.582
36.569
36.568
36.577
36.598
36.63
36.672
36.722
36.78
36.843
36.909
36.976
37.041
37.102
37.159
37.21
37.254
37.291
37.321
37.344
37.36
37.368
37.367
37.359
37.342
37.319
37.289
37.253
37.211
37.165
37.113
37.057
36.996
36.932
36.864
36.792
36.716
36.636
36.553
36.466
36.376
36.282
36.185
36.084
35.979
35.872
35.763
35.651
35.539
35.426
35.313
35.202
35.093
34.987
34.885
34.788
34.695
34.606
34.521
34.441
34.363
34.288
34.216
34.148
34.084
34.025
33.971
33.922
33.876
33.834
33.795
33.757
33.719
33.682
33.645
33.607
33.57
33.532
33.496
33.459
33.424
33.39
33.358
33.328
33.303
33.28
33.26
33.244
33.233
33.224
33.22
33.218
33.218
33.22
33.222
33.225
33.226
33.226
33.225
33.223
33.219
33.214
33.207
33.199
33.189
33.177
33.164
33.149
33.132
33.115
33.097
33.078
33.06
33.042
33.024
33.007
32.989
32.97
32.948
32.925
32.899
32.871
32.843
32.813
32.784
32.755
32.726
32.697
32.666
32.633
32.599
32.561
32.522
32.483
32.443
32.405
32.369
32.335
32.305
32.277
32.253
32.23
32.208
32.187
32.167
32.146
32.125
32.104
32.081
32.057
32.033
32.006
31.979
31.951
31.922
31.894
31.866
31.839
31.812
31.785
31.759
31.733
31.707
31.681
31.655
31.632
31.612
31.595
31.585
31.583
31.594
31.623
31.675
31.759
31.883
32.055
32.282
32.57
32.924
33.344
33.829
34.374
34.971
35.609
36.276
36.958
37.64
38.308
38.95
39.554
40.111
40.614
41.058
41.441
41.763
42.023
42.225
42.373
42.472
42.527
42.545
42.529
42.487
42.423
42.341
42.244
42.137
42.022
41.901
41.776
41.648
41.519
41.388
41.257
41.124
40.99
40.855
40.72
40.584
40.449
40.316
40.185
40.057
39.933
39.814
39.699
39.589
39.483
39.383
39.289
39.201
39.118
39.04
38.965
38.892
38.82
38.746
38.67
38.591
38.508
38.421
38.33
38.235
38.137
38.038
37.938
37.839
37.742
37.65
37.563
37.483
37.411
37.349
37.298
37.258
37.229
37.212
37.207
37.212
37.227
37.251
37.284
37.323
37.368
37.415
37.464
37.513
37.56
37.605
37.646
37.681
37.709
37.729
37.74
37.742
37.736
37.722
37.699
37.67
37.633
37.591
37.543
37.491
37.435
37.375
37.311
37.243
37.17
37.092
37.009
36.921
36.826
36.726
36.621
36.512
36.397
36.279
36.158
36.034
35.909
35.781
35.654
35.527
35.401
35.278
35.157
35.04
34.926
34.817
34.712
34.613
34.518
34.427
34.339
34.254
34.171
34.092
34.017
33.945
33.877
33.813
33.753
33.697
33.645
33.597
33.553
33.512
33.474
33.439
33.406
33.373
33.341
33.31
33.28
33.25
33.222
33.196
33.17
33.146
33.124
33.105
33.087
33.072
33.058
33.044
33.031
33.018
33.004
32.989
32.972
32.952
32.93
32.905
32.878
32.847
32.814
32.78
32.744
32.709
32.674
32.641
32.61
32.582
32.558
32.536
32.518
32.504
32.492
32.483
32.476
32.471
32.466
32.462
32.458
32.453
32.447
32.438
32.425
32.406
32.381
32.35
32.311
32.267
32.218
32.164
32.107
32.049
31.99
31.931
31.874
31.82
31.768
31.72
31.675
31.633
31.593
31.555
31.518
31.481
31.444
31.407
31.37
31.331
31.293
31.253
31.214
31.175
31.137
31.1
31.066
31.034
31.005
30.979
30.957
30.939
30.926
30.918
30.919
30.929
30.954
30.999
31.069
31.172
31.316
31.51
31.759
32.071
32.449
32.893
33.401
33.967
34.58
35.23
35.901
36.58
37.252
37.904
38.524
39.102
39.63
40.102
40.515
40.867
41.158
41.389
41.566
41.691
41.769
41.806
41.806
41.773
41.713
41.63
41.527
41.41
41.281
41.145
41.003
40.859
40.715
40.573
40.434
40.298
40.167
40.039
39.913
39.789
39.667
39.547
39.428
39.31
39.193
39.078
38.965
38.853
38.743
38.635
38.53
38.427
38.327
38.229
38.132
38.037
37.943
37.849
37.755
37.66
37.564
37.466
37.368
37.269
37.171
37.075
36.98
36.888
36.799
36.715
36.636
36.566
36.504
36.452
36.412
36.384
36.368
36.364
36.371
36.389
36.416
36.451
36.493
36.54
36.59
36.642
36.694
36.745
36.793
36.838
36.879
36.917
36.951
36.982
37.007
37.028
37.043
37.052
37.055
37.052
37.042
37.026
37.002
36.97
36.93
36.881
36.824
36.757
36.682
36.599
36.509
36.413
36.312
36.205
36.096
35.985
35.873
35.761
35.652
35.545
35.44
35.339
35.241
35.147
35.055
34.964
34.876
34.789
34.702
34.617
34.533
34.452
34.372
34.295
34.221
34.151
34.084
34.022
33.963
33.907
33.854
33.805
33.759
33.716
33.675
33.636
33.6
33.565
33.533
33.502
33.473
33.446
33.422
33.401
33.382
33.365
33.352
33.341
33.331
33.323
33.315
33.308
33.302
33.296
33.291
33.285
33.281
33.276
33.271
33.264
33.257
33.248
33.239
33.23
33.22
33.21
33.2
33.19
33.179
33.167
33.155
33.141
33.125
33.107
33.087
33.063
33.038
33.01
32.983
32.955
32.929
32.904
32.88
32.857
32.832
32.807
32.781
32.755
32.727
32.699
32.669
32.638
32.605
32.572
32.538
32.503
32.466
32.428
32.389
32.348
32.306
32.262
32.217
32.171
32.124
32.076
32.029
31.981
31.935
31.89
31.847
31.807
31.77
31.737
31.709
31.685
31.666
31.652
31.645
31.646
31.659
31.686
31.734
31.809
31.919
32.071
32.272
32.528
32.842
33.217
33.65
34.139
34.676
35.252
35.858
36.482
37.111
37.734
38.339
38.915
39.453
39.946
40.388
40.776
41.106
41.38
41.597
41.76
41.873
41.941
41.967
41.959
41.919
41.854
41.768
41.666
41.551
41.427
41.297
41.163
41.029
40.896
40.764
40.634
40.506
40.381
40.256
40.133
40.011
39.89
39.77
39.65
39.53
39.411
39.294
39.178
39.063
38.949
38.837
38.727
38.618
38.511
38.404
38.296
38.188
38.077
37.965
37.852
37.737
37.621
37.505
37.388
37.273
37.16
37.052
36.95
36.855
36.771
36.701
36.65
36.618
36.605
36.607
36.623
36.649
36.683
36.723
36.766
36.811
36.857
36.901
36.944
36.984
37.022
37.058
37.091
37.121
37.148
37.175
37.199
37.222
37.243
37.26
37.272
37.279
37.278
37.27
37.254
37.23
37.198
37.158
37.111
37.056
36.995
36.927
36.852
36.77
36.681
36.587
36.487
36.382
36.274
36.163
36.049
35.933
35.816
35.7
35.585
35.472
35.36
35.251
35.144
35.039
34.935
34.833
34.732
34.631
34.532
34.434
34.339
34.245
34.153
34.064
33.978
33.895
33.816
33.742
33.671
33.603
33.538
33.475
33.416
33.358
33.304
33.252
33.203
33.157
33.114
33.074
33.036
33.0
32.966
32.934
32.903
32.874
32.848
32.825
32.805
32.789
32.776
32.767
32.761
32.757
32.754
32.751
32.748
32.744
32.738
32.732
32.723
32.713
32.7
32.686
32.671
32.655
32.64
32.625
32.611
32.597
32.584
32.571
32.558
32.544
32.53
32.516
32.5
32.482
32.464
32.443
32.42
32.396
32.37
32.344
32.316
32.288
32.259
32.229
32.202
32.178
32.158
32.142
32.129
32.117
32.107
32.097
32.086
32.074
32.06
32.046
32.029
32.01
31.99
31.968
31.945
31.92
31.893
31.863
31.831
31.798
31.762
31.723
31.683
31.64
31.596
31.55
31.503
31.456
31.41
31.364
31.32
31.278
31.239
31.203
31.171
31.146
31.127
31.119
31.124
31.146
31.191
31.264
31.374
31.53
31.739
32.008
32.342
32.743
33.211
33.741
34.327
34.961
35.629
36.319
37.015
37.705
38.376
39.014
39.609
40.153
40.639
41.065
41.428
41.73
41.97
42.154
42.283
42.365
42.404
42.406
42.377
42.321
42.244
42.15
42.043
41.925
41.798
41.666
41.53
41.39
41.25
41.108
40.966
40.826
40.687
40.551
40.418
40.288
40.16
40.036
39.914
39.796
39.68
39.567
39.457
