Trial 1:0back
36.694
36.645
36.597
36.553
36.512
36.475
36.443
36.415
36.391
36.37
36.352
36.336
36.322
36.309
36.298
36.288
36.279
36.27
36.26
36.25
36.238
36.225
36.211
36.196
36.181
36.164
36.147
36.129
36.11
36.09
36.071
36.052
36.034
36.017
36.001
35.987
35.974
35.964
35.955
35.947
35.939
35.933
35.928
35.924
35.922
35.921
35.922
35.923
35.927
35.931
35.935
35.941
35.946
35.95
35.953
35.954
35.952
35.947
35.938
35.927
35.913
35.897
35.88
35.861
35.841
35.821
35.801
35.782
35.763
35.746
35.729
35.712
35.696
35.679
35.662
35.644
35.624
35.603
35.581
35.556
35.53
35.502
35.474
35.445
35.416
35.385
35.355
35.325
35.295
35.267
35.24
35.215
35.195
35.178
35.165
35.156
35.151
35.148
35.147
35.148
35.149
35.15
35.15
35.15
35.147
35.142
35.134
35.124
35.111
35.098
35.083
35.069
35.055
35.043
35.032
35.022
35.013
35.004
34.994
34.985
34.975
34.964
34.953
34.941
34.929
34.916
34.905
34.894
34.885
34.878
34.872
34.869
34.867
34.866
34.866
34.865
34.866
34.866
34.866
34.865
34.863
34.86
34.856
34.85
34.844
34.836
34.827
34.817
34.807
34.797
34.786
34.777
34.768
34.759
34.752
34.745
34.738
34.732
34.726
34.72
34.714
34.707
34.701
34.695
34.691
34.692
34.7
34.711
34.724
34.738
34.748
34.755
34.755
34.75
34.738
34.72
34.695
34.665
34.631
34.595
34.556
34.518
34.482
34.449
34.42
34.396
34.377
34.362
34.353
34.347
34.345
34.345
34.348
34.353
34.359
34.366
34.375
34.384
34.394
34.402
34.41
34.416
34.42
34.422
34.42
34.416
34.407
34.396
34.381
34.365
34.346
34.326
34.305
34.284
34.261
34.239
34.218
34.198
34.18
34.166
34.156
34.152
34.155
34.168
34.192
34.23
34.285
34.358
34.451
34.565
34.699
34.852
35.022
35.205
35.398
35.596
35.795
35.991
36.181
36.36
36.527
36.68
36.818
36.939
37.041
37.123
37.186
37.23
37.257
37.268
37.266
37.253
37.229
37.196
37.157
37.112
37.062
37.01
36.956
36.902
36.847
36.793
36.741
36.691
36.643
36.598
36.555
36.513
36.473
36.436
36.4
36.366
36.335
36.306
36.28
36.256
36.233
36.212
36.193
36.174
36.156
36.138
36.121
36.103
36.086
36.069
36.052
36.035
36.017
35.997
35.976
35.954
35.932
35.909
35.887
35.866
35.847
35.831
35.817
35.807
35.801
35.799
35.8
35.805
35.813
35.823
35.835
35.848
35.863
35.879
35.895
35.912
35.928
35.942
35.954
35.964
35.972
35.977
35.977
35.974
35.968
35.96
35.95
35.94
35.93
35.92
35.91
35.901
35.893
35.884
35.875
35.866
35.855
35.842
35.827
35.809
35.789
35.766
35.739
35.71
35.677
35.642
35.605
35.569
35.532
35.495
35.461
35.428
35.399
35.371
35.346
35.323
35.302
35.283
35.266
35.251
35.238
35.228
35.219
35.211
35.202
35.193
35.181
35.168
35.152
35.135
35.117
35.1
35.083
35.069
35.056
35.047
35.039
35.034
35.029
35.026
35.024
35.023
35.022
35.021
35.02
35.019
35.018
35.018
35.018
35.017
35.017
35.016
35.016
35.016
35.016
35.015
35.014
35.012
35.009
35.004
34.999
34.994
34.987
34.981
34.974
34.968
34.961
34.954
34.945
34.935
34.922
34.907
34.89
34.872
34.854
34.835
34.816
34.797
34.78
34.764
34.75
34.737
34.726
34.717
34.709
34.702
34.696
34.69
34.683
34.676
34.669
34.662
34.655
34.647
34.639
34.629
34.619
34.607
34.592
34.568
34.535
34.495
34.452
34.408
34.367
34.332
34.307
34.291
34.285
34.288
34.299
34.317
34.339
34.363
34.387
34.41
34.431
34.448
34.462
34.471
34.477
34.479
34.478
34.475
34.469
34.461
34.451
34.439
34.425
34.41
34.394
34.377
34.359
34.342
34.326
34.311
34.299
34.291
34.287
34.289
34.3
34.323
34.36
34.414
34.485
34.576
34.687
34.817
34.965
35.129
35.306
35.494
35.688
35.885
36.079
36.269
36.449
36.617
36.77
36.906
37.023
37.122
37.202
37.264
37.309
37.338
37.352
37.353
37.343
37.323
37.295
37.259
37.218
37.172
37.124
37.073
37.02
36.966
36.91
36.855
36.8
36.746
36.693
36.642
36.593
36.548
36.507
36.471
36.44
36.414
36.394
36.377
36.366
36.357
36.352
36.348
36.346
36.344
36.341
36.335
36.326
36.313
36.296
36.274
36.247
36.216
36.182
36.146
36.109
36.072
36.036
36.002
35.972
35.946
35.924
35.907
35.895
35.888
35.885
35.886
35.889
35.895
35.903
35.912
35.922
35.933
35.944
35.956
35.968
35.981
35.992
36.003
36.011
36.017
36.022
36.024
36.023
36.019
36.012
36.002
35.99
35.975
35.958
35.942
35.925
35.909
35.892
35.876
35.861
35.845
35.828
35.81
35.788
35.764
35.737
35.71
35.68
35.65
35.619
35.587
35.555
35.522
35.49
35.458
35.427
35.397
35.368
35.341
35.317
35.295
35.277
35.262
35.248
35.237
35.227
35.219
35.212
35.206
35.202
35.198
35.193
35.189
35.185
35.181
35.176
35.17
35.162
35.154
35.143
35.132
35.119
35.106
35.092
35.077
35.063
35.051
35.039
35.029
35.019
35.01
35.0
34.989
34.979
34.968
34.958
34.949
34.942
34.937
34.934
34.934
34.936
34.939
34.943
34.948
34.953
34.956
34.958
34.957
34.954
34.949
34.942
34.932
34.92
34.907
34.892
34.876
34.859
34.841
34.823
34.806
34.789
34.772
34.757
34.743
34.729
34.717
34.706
34.698
34.693
34.692
34.694
34.698
34.704
34.711
34.719
34.727
34.735
34.742
34.747
34.75
34.749
34.744
34.736
34.724
34.71
34.692
34.672
34.65
34.627
34.603
34.579
34.555
34.532
34.51
34.491
34.476
34.463
34.454
34.448
34.443
34.441
34.439
34.436
34.434
34.431
34.427
34.422
34.417
34.411
34.406
34.401
34.396
34.39
34.382
34.374
34.364
34.352
34.34
34.328
34.316
34.305
34.295
34.286
34.278
34.271
34.266
34.261
34.257
34.254
34.252
34.251
34.252
34.255
34.263
34.276
34.299
34.331
34.378
34.44
34.519
34.618
34.737
34.873
35.028
35.198
35.381
35.574
35.773
35.973
36.169
36.359
36.539
36.706
36.859
36.995
37.115
37.217
37.3
37.366
37.416
37.449
37.467
37.472
37.465
37.447
37.421
37.388
37.349
37.306
37.258
37.208
37.155
37.101
37.047
36.994
36.942
36.891
36.841
36.794
36.748
36.705
36.665
36.629
36.596
36.568
36.544
36.524
36.508
36.494
36.482
36.469
36.455
36.44
36.424
36.406
36.386
36.365
36.341
36.316
36.289
36.261
36.234
36.207
36.182
36.159
36.139
36.123
36.111
36.101
36.094
36.089
36.086
36.084
36.083
36.082
36.082
36.082
36.081
36.081
36.08
36.08
36.079
36.079
36.079
36.078
36.076
36.074
36.073
36.072
36.073
36.076
36.08
36.084
36.088
36.091
36.093
36.093
36.09
36.085
36.076
36.064
36.049
36.032
36.011
35.989
35.965
35.939
35.911
35.883
35.855
35.827
35.799
35.771
35.743
35.715
35.688
35.662
35.636
35.611
35.587
35.564
35.541
35.519
35.499
35.479
35.459
35.44
35.42
35.4
35.379
35.359
35.339
35.321
35.305
35.291
35.279
35.27
35.263
35.259
35.257
35.256
35.257
35.259
35.26
35.259
35.257
35.251
35.244
35.233
35.221
35.206
35.19
35.172
35.155
35.137
35.12
35.104
35.089
35.076
35.064
35.054
35.046
35.04
35.037
35.034
35.032
35.03
35.026
35.021
35.014
35.005
34.993
34.979
34.964
34.948
34.932
34.915
34.898
34.883
34.869
34.857
34.848
34.841
34.836
34.832
34.829
34.827
34.825
34.824
34.823
34.821
34.818
34.816
34.814
34.811
34.807
34.801
34.794
34.785
34.774
34.76
34.744
34.727
34.709
34.691
34.673
34.657
34.644
34.632
34.622
34.612
34.603
34.595
34.588
34.583
34.578
34.574
34.571
34.569
34.567
34.566
34.566
34.567
34.568
34.571
34.574
34.578
34.58
34.582
34.582
34.58
34.577
34.571
34.562
34.551
34.537
34.522
34.505
34.486
34.468
34.449
34.431
34.412
34.393
34.375
34.359
34.344
34.331
34.322
34.317
34.317
34.324
34.337
34.355
34.381
34.415
34.46
34.518
34.591
34.682
34.789
34.912
35.051
35.203
35.366
35.536
35.712
35.888
36.062
36.229
36.387
36.533
36.666
36.785
36.889
36.977
37.05
37.108
37.152
37.184
37.203
37.211
37.209
37.199
37.182
37.158
37.129
37.095
37.059
37.019
36.976
36.932
36.885
36.838
36.79
36.741
36.692
36.643
36.594
36.549
36.505
36.466
36.431
36.399
36.372
36.349
36.329
36.312
36.297
36.284
36.271
36.257
36.241
36.225
36.206
36.184
36.159
36.131
36.1
36.068
36.036
36.004
35.973
35.943
35.916
35.893
35.873
35.857
35.845
35.838
35.835
35.837
35.843
35.853
35.865
35.88
35.897
35.917
35.937
35.959
35.982
36.004
36.025
36.044
36.06
36.073
36.082
36.088
36.09
36.089
36.085
36.078
36.069
36.057
36.044
36.031
36.018
36.004
35.99
35.975
35.959
35.942
35.923
35.904
35.882
35.859
35.833
35.805
35.774
35.74
35.704
35.666
35.626
35.585
35.544
35.504
35.466
35.43
35.398
35.368
35.342
35.318
35.297
35.279
35.263
35.249
35.238
35.229
35.221
35.215
35.212
35.21
35.21
35.21
35.212
35.214
35.216
35.217
35.216
35.212
35.207
35.2
35.191
35.182
35.173
35.165
35.157
35.15
35.143
35.134
35.125
35.113
35.1
35.083
35.065
35.046
35.028
35.009
34.992
34.977
34.965
34.956
34.949
34.945
34.941
34.939
34.935
34.929
34.922
34.914
34.905
34.896
34.887
34.878
34.87
34.861
34.853
34.845
34.837
34.829
34.821
34.814
34.806
34.797
34.787
34.777
34.766
34.755
34.742
34.729
34.715
34.701
34.687
34.674
34.661
34.649
34.639
34.63
34.622
34.614
34.606
34.599
34.593
34.588
34.585
34.584
34.584
34.586
34.589
34.593
34.596
34.597
34.597
34.596
34.591
34.584
34.573
34.559
34.544
34.528
34.512
34.497
34.483
34.471
34.46
34.45
34.442
34.436
34.431
34.426
34.422
34.417
34.412
34.406
34.4
34.394
34.387
34.377
34.366
34.353
34.339
34.324
34.308
34.293
34.278
34.264
34.252
34.243
34.237
34.236
34.241
34.255
34.279
34.318
34.373
34.446
34.54
34.655
34.792
34.948
35.123
35.312
35.512
35.719
35.929
36.138
36.341
36.534
36.715
36.88
37.027
37.155
37.263
37.353
37.423
37.476
37.513
37.534
37.542
37.539
37.526
37.506
37.48
37.45
37.416
37.381
37.344
37.304
37.263
37.219
37.172
37.124
37.073
37.021
36.967
36.913
36.86
36.808
36.758
36.711
36.667
36.627
36.593
36.564
36.54
36.52
36.505
36.494
36.485
36.478
36.47
36.462
36.452
36.437
36.413
36.379
36.337
36.29
36.24
36.191
36.147
36.11
36.082
36.064
36.055
36.053
36.059
36.069
36.083
36.099
36.116
36.131
36.145
36.157
36.165
36.171
36.173
36.173
36.169
36.164
36.159
36.153
36.148
36.145
36.144
36.144
36.147
36.151
36.157
36.164
36.17
36.176
36.179
36.18
36.178
36.172
36.159
36.14
36.115
36.085
36.052
36.017
35.981
35.945
35.91
35.877
35.847
35.82
35.796
35.773
35.753
35.733
35.714
35.695
35.677
35.658
35.639
35.619
35.598
35.576
35.554
35.531
35.509
35.486
35.465
35.445
35.426
35.41
35.396
35.384
35.373
35.363
35.355
35.346
35.339
35.33
35.319
35.307
35.293
35.278
35.263
35.248
35.234
35.22
35.208
35.198
35.19
35.185
35.182
35.182
35.184
35.187
35.19
35.194
35.196
35.196
35.192
35.184
35.172
35.157
35.14
35.121
35.102
35.082
35.063
35.045
35.028
35.012
34.997
34.985
34.974
34.965
34.959
34.955
34.955
34.957
34.961
34.965
34.969
34.971
34.971
34.969
34.964
34.956
34.944
34.93
34.913
34.893
34.872
34.85
34.827
34.805
34.784
34.765
34.748
34.734
34.721
34.709
34.699
34.689
34.679
34.67
34.661
34.652
34.644
34.637
34.631
34.626
34.621
34.617
34.614
34.611
34.608
34.606
34.603
34.601
34.599
34.6
34.604
34.613
34.624
34.636
34.648
34.655
34.658
34.653
34.642
34.625
34.602
34.575
34.545
34.514
34.483
34.453
34.425
34.4
34.379
34.362
34.349
34.339
34.333
34.331
34.331
34.332
34.334
34.336
34.337
34.337
34.336
34.332
34.326
34.317
34.306
34.293
34.277
34.259
34.24
34.222
34.21
34.206
34.215
34.242
34.288
34.357
34.45
34.567
34.708
34.87
35.05
35.245
35.45
35.661
35.872
36.081
36.283
36.474
36.65
36.81
36.953
37.079
37.187
37.277
37.349
37.406
37.446
37.47
37.48
37.477
37.464
37.442
37.411
37.374
37.332
37.286
37.237
37.186
37.135
37.083
37.032
36.982
36.935
36.888
36.843
36.802
36.766
36.735
36.71
36.689
36.671
36.654
36.639
36.622
36.605
36.587
36.567
36.546
36.523
36.5
36.476
36.451
36.426
36.399
36.372
36.343
36.314
36.284
36.253
36.222
36.191
36.159
36.128
36.098
36.069
36.042
36.018
35.996
35.978
35.963
35.955
35.962
35.987
36.028
36.081
36.142
36.204
36.264
36.317
36.361
36.392
36.41
36.415
36.408
36.391
36.366
36.336
36.302
36.266
36.23
36.195
36.162
36.131
36.101
36.074
36.049
36.026
36.005
35.985
35.965
35.946
35.927
35.909
35.89
35.872
35.852
35.832
35.811
35.789
35.767
35.743
35.716
35.688
35.657
35.625
35.593
35.561
35.532
35.504
35.479
35.457
35.436
35.419
35.403
35.389
35.375
35.363
35.352
35.342
35.332
35.323
35.315
35.307
35.3
35.293
35.287
35.28
35.274
35.268
35.262
35.255
35.248
35.24
35.233
35.225
35.217
35.209
35.199
35.188
35.176
35.163
35.152
35.141
35.131
35.122
35.114
35.105
35.096
35.086
35.074
35.062
35.049
35.035
35.022
35.009
34.997
34.986
34.976
34.966
34.959
34.952
34.946
34.941
34.937
34.932
34.927
34.922
34.916
34.909
34.902
34.893
34.882
34.871
34.859
34.845
34.83
34.814
34.798
34.781
34.764
34.748
34.733
34.719
34.706
34.697
34.689
34.682
34.677
34.673
34.669
34.666
34.662
34.658
34.654
34.649
34.644
34.638
34.633
34.629
34.624
34.618
34.612
34.607
34.601
34.594
34.588
34.58
34.572
34.562
34.552
34.54
34.529
34.518
34.508
34.498
34.489
34.481
34.473
34.467
34.46
34.452
34.444
34.435
34.424
34.411
34.396
34.38
34.363
34.345
34.327
34.309
34.29
34.271
34.253
34.236
34.22
34.208
34.199
34.197
34.203
34.22
34.25
34.295
34.358
34.438
34.536
34.654
34.79
34.941
35.106
35.281
35.464
35.651
35.839
36.023
36.2
36.367
36.522
36.661
36.784
36.891
36.98
37.053
37.111
37.155
37.185
37.202
37.207
37.201
37.187
37.165
37.137
37.103
37.065
37.023
36.978
36.932
36.884
36.836
36.788
36.742
36.697
36.654
36.615
36.578
36.543
36.511
36.482
36.454
36.429
36.405
36.382
36.359
36.337
36.314
36.29
36.265
36.237
36.208
36.176
36.143
36.109
36.075
36.039
36.003
35.969
35.936
35.906
35.879
35.855
35.834
35.817
35.804
35.795
35.791
35.792
35.797
35.806
35.82
35.838
35.859
35.882
35.907
35.933
35.958
35.982
36.004
36.024
36.042
36.059
36.073
36.085
36.095
36.102
36.106
36.107
36.105
36.098
36.088
36.075
36.058
36.037
36.014
35.987
35.958
35.927
35.894
35.861
35.827
35.793
35.76
35.728
35.697
35.667
35.639
35.611
35.583
35.554
35.524
35.493
35.462
35.432
35.402
35.372
35.343
35.317
35.291
35.268
35.246
35.226
35.207
35.189
35.172
35.157
35.142
35.128
35.114
35.099
35.084
35.068
35.053
35.038
35.023
35.01
34.997
34.984
34.972
34.961
34.95
34.94
34.931
34.922
34.914
34.907
34.899
34.893
34.887
34.884
34.882
34.882
34.884
34.887
34.89
34.894
34.898
34.902
34.905
34.906
34.906
34.905
34.902
34.897
34.889
34.88
34.869
34.856
34.843
34.828
34.812
34.796
34.781
34.765
34.75
34.736
34.724
34.713
34.704
34.697
34.69
34.684
34.678
34.672
34.665
34.659
34.654
34.648
34.643
34.639
34.634
34.63
34.626
34.621
34.615
34.607
34.598
34.586
34.572
34.557
34.541
34.523
34.506
34.489
34.473
34.459
34.447
34.436
34.426
34.419
34.414
34.411
34.41
34.409
34.408
34.408
34.409
34.41
34.411
34.413
34.415
34.417
34.419
34.418
34.416
34.412
34.406
34.398
34.389
34.379
34.369
34.358
34.347
34.337
34.327
34.317
34.307
34.297
34.287
34.276
34.264
34.251
34.239
34.227
34.215
34.203
34.192
34.181
34.173
34.168
34.169
34.178
34.197
34.23
34.279
34.348
34.436
34.546
34.676
34.827
34.995
35.18
35.376
35.579
35.785
35.99
36.19
36.381
36.559
36.723
36.869
36.998
37.109
37.201
37.276
37.335
37.377
37.404
37.417
37.419
37.411
37.394
37.371
37.343
37.31
37.273
37.233
37.192
37.15
37.108
37.066
37.024
36.983
36.942
36.902
36.864
36.828
36.795
36.764
36.735
36.708
36.683
36.66
36.638
36.618
36.599
36.58
36.561
36.543
36.524
36.505
36.484
36.463
36.439
36.413
36.386
36.356
36.325
36.294
36.262
36.23
36.199
36.168
36.14
36.113
36.089
36.068
36.05
36.037
36.028
36.024
36.024
36.028
36.035
36.046
36.058
36.073
36.088
36.104
36.118
36.129
36.138
36.144
36.148
36.148
36.146
36.142
36.137
36.131
36.125
36.118
36.111
36.105
36.099
36.093
36.089
36.085
36.082
36.077
36.071
36.062
36.05
36.034
36.015
35.994
35.97
35.943
35.915
35.886
35.857
35.829
35.802
35.776
35.751
35.726
35.702
35.678
35.653
35.627
35.602
35.578
35.551
35.522
35.49
35.456
35.421
35.386
35.352
35.319
35.289
35.262
35.238
35.217
35.2
35.187
35.177
35.171
35.167
35.165
35.164
35.163
35.163
35.161
35.159
35.155
35.15
35.143
35.134
35.124
35.112
35.1
35.087
35.074
35.059
35.045
35.031
35.017
35.004
34.991
34.978
34.966
34.954
34.943
34.931
34.92
34.908
34.895
34.882
34.867
34.853
34.838
34.825
34.813
34.803
34.795
34.79
34.786
34.785
34.786
34.788
34.79
34.792
34.794
34.794
34.794
34.791
34.786
34.779
34.769
34.758
34.745
34.731
34.715
34.7
34.683
34.667
34.65
34.634
34.619
34.605
34.594
34.584
34.577
34.57
34.564
34.558
34.552
34.545
34.539
34.532
34.526
34.52
34.514
34.507
34.5
34.492
34.483
34.473
34.463
34.452
34.441
34.43
34.418
34.405
34.391
34.377
34.362
34.347
34.333
34.321
34.31
34.3
34.291
34.284
34.278
34.272
34.266
34.258
34.25
34.24
34.23
34.219
34.208
34.196
34.185
34.173
34.161
34.151
34.141
34.132
34.125
34.12
34.117
34.117
34.121
34.131
34.149
34.178
34.219
34.277
34.352
34.446
34.56
34.694
34.845
35.014
35.196
35.388
35.588
35.791
35.993
36.191
36.383
36.564
36.732
36.886
37.022
37.14
37.239
37.318
37.379
37.421
37.446
37.455
37.451
37.434
37.408
37.374
37.334
37.29
37.242
37.193
37.144
37.096
37.05
37.006
36.965
36.926
36.89
36.855
36.823
36.793
36.764
36.736
36.709
36.683
36.657
36.633
36.609
36.586
36.564
36.542
36.519
36.497
36.475
36.452
36.429
36.405
36.379
36.353
36.326
36.299
36.272
36.243
36.212
36.174
36.128
36.076
36.021
35.966
35.914
35.868
35.831
35.804
35.788
35.784
35.791
35.807
35.832
35.864
35.902
35.942
35.984
36.025
36.064
36.098
36.128
36.153
36.173
36.187
36.195
36.199
36.198
36.192
36.183
36.17
36.154
36.135
36.114
36.09
36.064
36.037
36.01
35.983
35.957
35.931
35.906
35.884
35.861
35.839
35.816
35.792
35.767
35.742
35.717
35.691
35.665
35.639
35.613
35.588
35.564
35.54
35.518
35.496
35.475
35.455
35.435
35.415
35.394
35.373
35.351
35.328
35.307
35.285
35.264
35.244
35.226
35.211
35.198
35.188
35.181
35.175
35.171
35.168
35.165
35.164
35.162
35.16
35.158
35.155
35.152
35.146
35.14
35.131
35.121
35.108
35.094
35.078
35.063
35.049
35.036
35.023
35.012
35.002
34.993
34.985
34.98
34.975
34.972
34.969
34.967
34.965
34.962
34.959
34.955
34.95
34.944
34.937
34.928
34.918
34.907
34.894
34.879
34.863
34.846
34.829
34.812
34.796
34.781
34.769
34.76
34.755
34.752
34.751
34.753
34.756
34.76
34.765
34.769
34.773
34.774
34.775
34.773
34.768
34.761
34.752
34.741
34.729
34.715
34.701
34.686
34.671
34.656
34.641
34.625
34.609
34.592
34.575
34.557
34.54
34.524
34.511
34.499
34.49
34.483
34.477
34.471
34.464
34.458
34.453
34.449
34.446
34.443
34.44
34.435
34.427
34.416
34.402
34.385
34.364
34.342
34.319
34.296
34.275
34.257
34.244
34.237
34.24
