Trial 1:0back
35.555
35.5
35.438
35.371
35.299
35.223
35.144
35.062
34.978
34.893
34.808
34.723
34.64
34.558
34.476
34.396
34.316
34.238
34.163
34.09
34.02
33.953
33.888
33.825
33.763
33.703
33.644
33.586
33.529
33.474
33.42
33.37
33.322
33.278
33.238
33.203
33.171
33.143
33.118
33.096
33.075
33.057
33.04
33.025
33.011
32.998
32.987
32.977
32.967
32.957
32.947
32.937
32.928
32.918
32.909
32.901
32.894
32.889
32.885
32.881
32.877
32.871
32.866
32.86
32.854
32.847
32.84
32.831
32.822
32.811
32.8
32.787
32.772
32.757
32.74
32.722
32.705
32.688
32.672
32.658
32.648
32.643
32.643
32.652
32.672
32.706
32.759
32.833
32.931
33.057
33.212
33.399
33.62
33.875
34.164
34.486
34.838
35.217
35.617
36.032
36.454
36.874
37.286
37.682
38.054
38.395
38.701
38.966
39.188
39.366
39.499
39.59
39.64
39.653
39.632
39.581
39.504
39.405
39.289
39.16
39.021
38.875
38.724
38.569
38.412
38.254
38.097
37.941
37.788
37.638
37.492
37.35
37.209
37.071
36.933
36.797
36.661
36.526
36.392
36.259
36.127
35.997
35.869
35.744
35.621
35.501
35.384
35.273
35.168
35.069
34.979
34.897
34.824
34.761
34.709
34.668
34.637
34.618
34.609
34.609
34.618
34.635
34.661
34.696
34.738
34.787
34.843
34.905
34.972
35.045
35.122
35.201
35.282
35.363
35.442
35.517
35.588
35.653
35.709
35.755
35.789
35.81
35.818
35.814
35.797
35.768
35.728
35.677
35.618
35.553
35.482
35.407
35.329
35.247
35.164
35.08
34.997
34.916
34.837
34.759
34.682
34.607
34.532
34.459
34.387
34.317
34.247
34.179
34.113
34.049
33.986
33.924
33.865
33.807
33.751
33.699
33.649
33.603
33.561
33.522
33.486
33.454
33.425
33.399
33.376
33.357
33.342
33.329
33.319
33.312
33.306
33.3
33.294
33.287
33.279
33.269
33.258
33.245
33.232
33.219
33.206
33.195
33.184
33.174
33.166
33.157
33.149
33.14
33.131
33.12
33.109
33.098
33.086
33.075
33.064
33.053
33.042
33.033
33.029
33.028
33.03
33.033
33.037
33.041
33.044
33.046
33.048
33.051
33.057
33.069
33.09
33.122
33.168
33.231
33.317
33.429
33.572
33.748
33.96
34.208
34.492
34.81
35.16
35.535
35.929
36.335
36.745
37.15
37.544
37.919
38.267
38.583
38.862
39.101
39.299
39.454
39.568
39.642
39.679
39.681
39.653
39.597
39.519
39.421
39.306
39.18
39.043
38.897
38.745
38.587
38.425
38.262
38.098
37.936
37.777
37.622
37.471
37.325
37.183
37.044
36.907
36.772
36.637
36.502
36.367
36.233
36.101
35.972
35.846
35.725
35.607
35.496
35.39
35.29
35.197
35.111
35.033
34.963
34.903
34.852
34.812
34.783
34.764
34.756
34.757
34.767
34.786
34.812
34.847
34.889
34.937
34.992
35.053
35.119
35.19
35.264
35.338
35.41
35.478
35.542
35.6
35.653
35.698
35.734
35.762
35.779
35.787
35.785
35.776
35.757
35.731
35.698
35.658
35.612
35.562
35.507
35.447
35.382
35.312
35.236
35.158
35.077
34.994
34.912
34.83
34.749
34.669
34.591
34.515
34.439
34.364
34.289
34.215
34.142
34.073
34.007
33.945
33.888
33.835
33.788
33.745
33.706
33.672
33.642
33.616
33.593
33.574
33.557
33.541
33.526
33.511
33.496
33.481
33.466
33.45
33.434
33.419
33.405
33.393
33.384
33.376
33.368
33.36
33.35
33.339
33.326
33.311
33.296
33.278
33.26
33.242
33.224
33.206
33.188
33.169
33.151
33.132
33.114
33.096
33.079
33.063
33.048
33.035
33.023
33.013
33.004
32.998
32.994
32.994
32.996
33.003
33.015
33.035
33.065
33.107
33.162
33.232
33.321
33.431
33.567
33.732
33.929
34.161
34.427
34.728
35.062
35.425
35.812
36.218
36.633
37.051
37.464
37.862
38.24
38.589
38.905
39.182
39.418
39.613
39.767
39.881
39.957
39.997
40.005
39.982
39.932
39.858
39.765
39.656
39.534
39.403
39.266
39.123
38.975
38.825
38.671
38.516
38.358
38.201
38.044
37.89
37.738
37.589
37.443
37.3
37.158
37.018
36.88
36.744
36.611
36.482
36.356
36.236
36.12
36.008
35.902
35.8
35.703
35.612
35.526
35.445
35.369
35.3
35.239
35.188
35.147
35.117
35.097
35.089
35.091
35.102
35.123
35.153
35.19
35.235
35.287
35.346
35.409
35.476
35.545
35.612
35.672
35.721
35.761
35.791
35.815
35.832
35.846
35.856
35.865
35.873
35.88
35.885
35.887
35.883
35.874
35.859
35.838
35.809
35.772
35.729
35.678
35.622
35.559
35.49
35.415
35.334
35.248
35.16
35.069
34.979
34.891
34.806
34.724
34.646
34.571
34.501
34.435
34.373
34.313
34.256
34.2
34.145
34.091
34.037
33.982
33.928
33.875
33.823
33.774
33.727
33.684
33.644
33.607
33.574
33.545
33.52
33.499
33.482
33.467
33.455
33.445
33.437
33.428
33.419
33.409
33.398
33.385
33.371
33.356
33.341
33.325
33.31
33.295
33.28
33.265
33.251
33.236
33.221
33.206
33.191
33.176
33.162
33.149
33.137
33.126
33.115
33.106
33.097
33.089
33.083
33.077
33.075
33.076
33.08
33.083
33.086
33.093
33.108
33.137
33.186
33.262
33.371
33.516
33.702
33.931
34.203
34.519
34.873
35.26
35.672
36.102
36.542
36.983
37.418
37.838
38.236
38.603
38.934
39.225
39.472
39.673
39.829
39.94
40.01
40.042
40.04
40.007
39.948
39.865
39.763
39.646
39.516
39.378
39.233
39.084
38.933
38.782
38.632
38.483
38.336
38.191
38.049
37.91
37.774
37.641
37.509
37.379
37.251
37.124
36.999
36.875
36.752
36.629
36.508
36.388
36.27
36.153
36.038
35.926
35.816
35.711
35.61
35.517
35.431
35.355
35.288
35.231
35.184
35.149
35.126
35.113
35.113
35.123
35.144
35.174
35.213
35.259
35.313
35.373
35.438
35.507
35.578
35.65
35.721
35.79
35.857
35.918
35.975
36.026
36.07
36.104
36.129
36.143
36.146
36.138
36.12
36.092
36.056
36.01
35.956
35.894
35.825
35.751
35.673
35.594
35.513
35.429
35.345
35.259
35.174
35.089
35.006
34.924
34.844
34.766
34.689
34.615
34.542
34.471
34.403
34.336
34.273
34.215
34.161
34.111
34.065
34.02
33.976
33.932
33.889
33.847
33.805
33.763
33.721
33.679
33.638
33.599
33.562
33.527
33.497
33.47
33.446
33.425
33.407
33.391
33.377
33.365
33.355
33.345
33.334
33.325
33.315
33.304
33.292
33.277
33.26
33.243
33.225
33.207
33.188
33.17
33.152
33.135
33.12
33.107
33.097
33.09
33.085
33.082
33.08
33.078
33.075
33.071
33.067
33.062
33.059
33.058
33.063
33.075
33.097
33.129
33.175
33.238
33.321
33.428
33.562
33.727
33.925
34.157
34.425
34.727
35.059
35.416
35.792
36.182
36.578
36.975
37.365
37.743
38.102
38.437
38.742
39.015
39.251
39.449
39.608
39.73
39.816
39.868
39.888
39.878
39.84
39.778
39.694
39.593
39.478
39.352
39.218
39.079
38.935
38.788
38.638
38.487
38.334
38.181
38.03
37.881
37.735
37.592
37.452
37.315
37.182
37.051
36.924
36.798
36.675
36.554
36.435
36.318
36.203
36.09
35.98
35.873
35.771
35.674
35.583
35.497
35.418
35.346
35.283
35.229
35.186
35.154
35.133
35.125
35.127
35.141
35.166
35.2
35.244
35.295
35.355
35.419
35.488
35.559
35.631
35.703
35.774
35.843
35.908
35.967
36.02
36.065
36.102
36.129
36.147
36.156
36.155
36.143
36.123
36.094
36.056
36.01
35.957
35.897
35.833
35.765
35.695
35.622
35.546
35.468
35.389
35.308
35.227
35.146
35.064
34.982
34.9
34.82
34.741
34.665
34.59
34.516
34.442
34.369
34.297
34.226
34.157
34.09
34.026
33.964
33.906
33.852
33.803
33.759
33.72
33.683
33.649
33.618
33.589
33.561
33.536
33.515
33.495
33.479
33.466
33.456
33.446
33.437
33.428
33.417
33.406
33.393
33.378
33.363
33.348
33.332
33.317
33.302
33.29
33.292
33.309
33.34
33.382
33.428
33.474
33.514
33.545
33.562
33.565
33.552
33.525
33.485
33.435
33.376
33.312
33.247
33.182
33.123
33.071
33.03
33.002
32.988
32.99
33.009
33.047
33.104
33.182
33.283
33.408
33.562
33.747
33.965
34.217
34.503
34.819
35.162
35.528
35.91
36.304
36.703
37.101
37.489
37.862
38.212
38.535
38.825
39.079
39.295
39.472
39.611
39.712
39.777
39.809
39.81
39.783
39.732
39.658
39.566
39.457
39.337
39.207
39.069
38.927
38.78
38.63
38.477
38.323
38.17
38.019
37.87
37.724
37.582
37.444
37.309
37.179
37.052
36.93
36.811
36.695
36.583
36.473
36.363
36.254
36.146
36.039
35.933
35.829
35.728
35.632
35.541
35.456
35.379
35.311
35.253
35.204
35.166
35.139
35.122
35.117
35.122
35.139
35.165
35.202
35.246
35.298
35.354
35.416
35.481
35.55
35.621
35.693
35.766
35.836
35.901
35.962
36.015
36.059
36.095
36.122
36.139
36.148
36.148
36.139
36.12
36.091
36.052
36.002
35.943
35.876
35.801
35.721
35.636
35.548
35.458
35.366
35.274
35.182
35.091
35.001
34.914
34.831
34.752
34.68
34.611
34.546
34.484
34.424
34.364
34.306
34.249
34.192
34.137
34.082
34.03
33.979
33.931
33.883
33.836
33.788
33.741
33.696
33.656
33.619
33.587
33.56
33.537
33.517
33.501
33.488
33.476
33.466
33.455
33.444
33.433
33.422
33.412
33.402
33.394
33.387
33.379
33.37
33.359
33.346
33.332
33.316
33.298
33.279
33.258
33.236
33.214
33.193
33.174
33.156
33.141
33.127
33.114
33.102
33.09
33.077
33.065
33.054
33.045
33.038
33.034
33.032
33.035
33.042
33.056
33.076
33.106
33.147
33.203
33.279
33.377
33.505
33.664
33.857
34.086
34.351
34.651
34.983
35.343
35.725
36.121
36.526
36.932
37.333
37.721
38.089
38.43
38.739
39.011
39.243
39.435
39.586
39.695
39.766
39.8
39.801
39.771
39.714
39.633
39.533
39.416
39.287
39.148
39.003
38.852
38.699
38.547
38.396
38.248
38.103
37.961
37.821
37.683
37.548
37.413
37.281
37.151
37.022
36.894
36.767
36.641
36.516
36.39
36.265
36.141
36.019
35.9
35.785
35.674
35.57
35.474
35.385
35.306
35.235
35.175
35.124
35.085
35.055
35.035
35.024
35.023
35.032
35.051
35.081
35.12
35.169
35.227
35.292
35.363
35.44
35.521
35.605
35.69
35.773
35.853
35.927
35.994
36.053
36.101
36.141
36.171
36.192
36.204
36.206
36.197
36.177
36.144
36.101
36.048
35.987
35.919
35.845
35.766
35.683
35.598
35.51
35.42
35.327
35.231
35.133
35.034
34.935
34.838
34.744
34.654
34.569
34.489
34.414
34.344
34.278
34.215
34.154
34.096
34.04
33.987
33.939
33.895
33.855
33.819
33.785
33.755
33.727
33.701
33.676
33.651
33.627
33.604
33.581
33.559
33.538
33.518
33.499
33.48
33.463
33.445
33.429
33.413
33.398
33.384
33.371
33.36
33.349
33.339
33.33
33.32
33.309
33.297
33.285
33.273
33.26
33.248
33.234
33.218
33.2
33.18
33.16
33.138
33.117
33.095
33.074
33.055
33.039
33.026
33.016
33.011
33.01
33.014
33.026
33.047
33.079
33.123
33.181
33.256
33.351
33.469
33.613
33.787
33.991
34.23
34.502
34.808
35.143
35.504
35.885
36.277
36.676
37.073
37.46
37.831
38.178
38.495
38.779
39.026
39.235
39.404
39.534
39.626
39.684
39.71
39.707
39.678
39.626
39.554
39.465
39.361
39.245
39.118
38.981
38.839
38.692
38.544
38.395
38.246
38.098
37.951
37.807
37.665
37.526
37.389
37.256
37.124
36.994
36.866
36.74
36.615
36.49
36.365
36.242
36.119
35.999
35.881
35.765
35.654
35.547
35.447
35.356
35.274
35.201
35.14
35.09
35.052
35.027
35.014
35.014
35.028
35.054
35.094
35.145
35.206
35.276
35.352
35.435
35.521
35.609
35.699
35.787
35.872
35.953
36.029
36.097
36.157
36.208
36.249
36.28
36.3
36.31
36.309
36.297
36.275
36.242
36.2
36.15
36.091
36.024
35.95
35.871
35.787
35.701
35.614
35.526
35.438
35.349
35.259
35.167
35.074
34.981
34.888
34.797
34.709
34.624
34.544
34.469
34.398
34.33
34.265
34.201
34.14
34.08
34.023
33.971
33.922
33.877
33.837
33.8
33.767
33.738
33.71
33.684
33.659
33.635
33.611
33.59
33.572
33.557
33.544
33.532
33.522
33.513
33.503
33.493
33.482
33.47
33.457
33.443
33.43
33.417
33.406
33.395
33.385
33.375
33.363
33.35
33.335
33.319
33.301
33.283
33.265
33.247
33.23
33.214
33.198
33.182
33.166
33.151
33.137
33.125
33.117
33.113
33.115
33.126
33.148
33.185
33.239
33.314
33.414
33.54
33.697
33.886
34.11
34.369
34.662
34.987
35.34
35.717
36.112
36.518
36.925
37.327
37.716
38.086
38.43
38.743
39.021
39.263
39.465
39.629
39.754
39.842
39.894
39.913
39.901
39.862
39.8
39.718
39.62
39.508
39.384
39.252
39.113
38.969
38.822
38.673
38.525
38.379
38.237
38.097
37.962
37.83
37.701
37.573
37.447
37.323
37.199
37.076
36.956
36.838
36.722
36.61
36.501
36.393
36.287
36.182
36.079
35.979
35.884
35.794
35.71
35.633
35.564
35.504
35.451
35.406
35.37
35.343
35.325
35.316
35.317
35.329
35.352
35.385
35.428
35.481
35.542
35.609
35.681
35.755
35.83
35.902
35.972
36.036
36.094
36.145
36.188
36.222
36.246
36.26
36.264
36.258
36.244
36.221
36.191
36.153
36.108
36.058
36.002
35.941
35.874
35.803
35.727
35.648
35.565
35.479
35.391
35.3
35.209
35.118
35.029
34.942
34.858
34.777
34.698
34.62
34.543
34.468
34.396
34.329
34.266
34.208
34.153
34.101
34.05
34.001
33.953
33.908
33.864
33.822
33.784
33.748
33.717
33.689
33.664
33.643
33.625
33.61
33.596
33.584
33.573
33.561
33.549
33.534
33.518
33.499
33.479
33.456
33.433
33.41
33.388
33.367
33.348
33.33
33.315
33.301
33.286
33.272
33.257
33.241
33.225
33.207
33.189
33.172
33.155
33.139
33.122
33.103
33.081
33.058
33.037
33.021
33.012
33.014
33.027
33.055
33.1
33.164
33.25
33.361
33.499
33.666
33.864
34.096
34.362
34.661
34.991
35.348
35.726
36.118
36.519
36.921
37.318
37.704
38.071
38.415
38.728
39.008
39.251
39.455
39.621
39.749
39.841
39.9
39.926
39.922
39.891
39.836
39.76
39.668
39.562
39.446
39.323
39.195
39.064
38.931
38.796
38.659
38.52
38.38
38.243
38.107
37.973
37.841
37.712
37.586
37.462
37.342
37.224
37.106
36.99
36.874
36.76
36.649
36.541
36.436
36.335
36.237
36.143
36.054
35.971
35.892
35.82
35.752
35.691
35.637
35.59
35.55
35.519
35.497
35.484
35.481
35.488
35.504
35.528
35.561
35.603
35.651
35.706
35.766
35.831
35.9
35.97
36.041
36.11
36.175
36.235
36.287
36.33
36.363
36.385
36.396
36.395
36.383
36.36
36.327
36.283
36.229
36.167
36.097
36.021
35.942
35.861
35.778
35.694
35.611
35.527
35.443
35.358
35.267
35.167
35.056
34.939
34.818
34.698
34.581
34.47
34.367
34.273
34.188
34.116
34.057
34.009
33.973
33.945
33.926
33.913
33.903
33.894
33.885
33.873
33.857
33.838
33.815
33.79
33.764
33.737
33.709
33.68
33.65
33.618
33.586
33.554
33.522
33.49
33.46
33.433
33.41
33.391
33.377
33.368
33.364
33.362
33.362
33.361
33.358
33.353
33.346
33.337
33.325
33.312
33.296
33.279
33.26
33.239
33.217
33.192
33.166
33.139
33.113
33.088
33.063
33.035
33.001
32.964
32.928
32.895
32.87
32.859
32.866
32.894
32.948
33.029
33.142
33.289
33.472
33.693
33.952
34.248
34.579
34.938
35.322
35.724
36.137
36.553
36.966
37.368
37.752
38.113
38.445
38.742
39.002
39.224
39.408
39.553
39.663
39.738
39.781
39.795
39.782
39.747
39.692
39.62
39.533
39.435
39.329
39.215
39.098
38.976
38.85
38.721
38.589
38.456
38.321
38.185
38.049
37.914
37.781
37.65
37.523
37.398
37.276
37.155
37.036
36.921
36.808
36.699
36.592
36.488
36.386
36.287
36.191
36.098
36.01
35.926
35.847
35.774
35.707
35.647
35.596
35.553
35.52
35.497
35.485
35.484
35.493
35.512
35.54
35.577
35.622
35.674
35.733
35.796
35.863
35.931
35.999
36.065
36.127
36.184
36.234
36.277
36.312
36.338
36.355
36.361
36.359
36.347
36.325
36.294
36.253
36.203
36.144
36.079
36.008
35.932
35.852
35.768
35.683
35.596
35.509
35.421
35.333
35.245
35.159
35.073
34.989
34.907
34.827
34.748
34.67
34.593
34.514
34.437
34.36
34.287
34.216
34.15
34.088
34.032
33.98
33.934
33.892
33.853
33.815
33.778
33.741
33.703
33.667
33.632
33.599
33.568
33.538
33.51
33.484
33.461
33.44
33.422
33.404
33.387
33.37
33.354
33.34
33.328
33.317
33.308
33.3
33.292
33.284
33.276
33.267
33.257
33.246
33.234
33.221
33.209
33.197
33.187
33.176
33.164
33.151
33.136
33.118
33.099
33.08
33.061
33.042
33.025
33.008
32.992
32.975
32.959
32.947
32.94
32.942
32.957
32.987
33.037
33.109
33.207
33.334
33.494
33.689
33.921
34.19
34.494
34.829
35.191
35.574
35.972
36.377
36.784
37.184
37.571
37.938
38.277
38.584
38.854
39.085
39.277
39.43
39.546
39.626
39.674
39.691
39.682
39.648
39.593
39.52
39.431
39.33
39.219
39.1
38.974
38.844
38.71
38.575
38.439
38.301
38.162
38.024
37.887
37.753
37.622
37.493
37.367
37.243
37.121
37.002
36.888
36.776
36.669
36.564
36.461
36.361
36.262
36.165
36.069
35.976
35.885
35.798
35.714
35.634
35.561
35.495
35.438
35.39
35.355
35.332
35.32
35.319
35.329
35.349
35.377
35.413
35.455
35.503
35.556
35.613
35.674
35.736
35.798
35.858
35.914
35.964
36.008
36.045
36.075
36.098
36.114
36.123
36.125
36.12
36.108
36.088
36.061
36.027
35.985
35.937
35.882
35.821
35.755
35.684
35.609
35.529
35.446
35.36
35.27
35.178
35.085
34.991
34.898
34.807
34.717
34.629
34.542
34.459
34.378
34.301
34.227
34.156
34.088
34.023
33.962
33.907
33.857
33.813
33.773
33.737
33.702
33.67
33.638
33.606
33.574
33.541
33.508
33.476
33.446
33.419
33.394
33.371
33.349
33.327
33.304
33.281
33.257
33.234
33.213
33.194
33.179
33.166
33.156
33.148
33.142
33.137
33.131
33.125
33.119
33.113
33.107
33.1
33.093
33.083
33.073
33.06
33.046
33.029
33.011
32.992
32.972
32.951
32.931
32.912
32.894
32.879
32.869
32.865
32.867
32.875
32.889
32.911
32.941
32.981
33.034
33.103
33.192
33.306
33.449
33.623
33.831
34.075
34.354
34.666
35.007
35.373
35.758
36.155
36.558
36.958
37.348
37.719
38.066
38.383
38.665
38.91
39.116
39.282
39.408
39.496
39.549
39.569
39.56
39.525
39.468
39.391
39.299
39.195
39.079
38.956
38.827
38.694
38.558
38.419
38.279
38.139
37.999
37.861
37.724
37.589
37.455
37.323
37.193
37.065
36.939
36.815
36.692
36.569
36.447
36.327
36.209
36.093
35.98
35.87
35.765
35.664
35.569
35.48
35.396
35.32
35.251
35.191
35.14
35.099
35.07
35.051
35.043
35.046
35.06
35.084
35.119
35.164
35.218
35.28
35.349
35.425
35.505
35.586
35.667
35.744
35.816
35.881
35.938
35.986
36.025
36.056
36.078
36.093
36.099
36.097
36.087
36.068
36.04
36.003
35.959
35.905
35.845
35.777
35.704
35.628
35.547
35.463
35.376
35.285
35.191
35.097
35.002
34.908
34.814
34.722
34.631
34.543
34.458
34.376
34.297
34.221
34.148
34.078
34.01
33.947
33.89
33.838
33.79
33.748
33.708
33.672
33.639
33.606
33.575
33.543
33.513
33.484
33.458
33.435
33.416
33.398
33.382
33.366
33.35
33.334
33.318
33.302
33.286
33.273
33.261
33.25
33.241
33.234
33.228
33.222
33.216
33.207
33.197
33.184
33.17
33.156
33.141
33.125
33.108
33.091
33.074
33.057
33.039
33.02
33.001
32.98
32.959
32.939
32.919
32.903
32.891
32.884
32.882
32.886
32.895
32.911
32.935
32.969
33.014
33.073
33.148
33.243
33.362
33.508
33.685
33.893
34.136
34.41
34.716
35.048
35.403
35.775
36.158
36.545
36.929
37.304
37.663
37.998
38.305
38.578
38.814
39.012
39.173
39.296
39.383
39.437
39.46
39.455
39.425
39.372
39.301
39.212
39.11
38.997
38.876
38.75
38.618
38.483
38.345
38.205
38.063
37.92
37.777
37.632
37.489
37.347
37.207
37.07
36.94
36.822
36.72
36.63
36.55
36.475
36.4
36.321
36.235
36.141
36.038
35.927
35.809
35.686
35.561
35.437
35.317
35.205
35.102
35.013
34.937
34.879
34.838
34.814
34.808
34.819
34.845
34.885
34.936
34.998
35.069
35.146
35.228
