Trial 1:0back
38.624
38.57
38.517
38.465
38.414
38.362
38.31
38.256
38.2
38.141
38.081
38.017
37.952
37.885
37.818
37.751
37.685
37.622
37.563
37.51
37.463
37.422
37.389
37.364
37.346
37.336
37.334
37.337
37.347
37.361
37.379
37.401
37.425
37.451
37.478
37.505
37.53
37.552
37.571
37.585
37.595
37.6
37.6
37.593
37.58
37.561
37.535
37.503
37.464
37.419
37.368
37.312
37.252
37.188
37.12
37.049
36.974
36.896
36.814
36.731
36.645
36.556
36.466
36.374
36.28
36.186
36.091
35.997
35.904
35.813
35.724
35.636
35.549
35.463
35.378
35.294
35.211
35.129
35.047
34.967
34.887
34.807
34.729
34.651
34.574
34.499
34.427
34.357
34.29
34.227
34.168
34.112
34.06
34.011
33.965
33.921
33.88
33.84
33.801
33.763
33.726
33.69
33.654
33.619
33.583
33.549
33.515
33.482
33.45
33.42
33.391
33.363
33.336
33.31
33.284
33.259
33.234
33.209
33.184
33.159
33.134
33.109
33.085
33.061
33.038
33.015
32.991
32.968
32.944
32.919
32.893
32.866
32.838
32.809
32.779
32.747
32.714
32.68
32.645
32.608
32.57
32.532
32.492
32.45
32.407
32.364
32.32
32.277
32.235
32.194
32.156
32.121
32.091
32.068
32.055
32.054
32.068
32.102
32.158
32.24
32.35
32.49
32.662
32.866
33.103
33.37
33.666
33.986
34.328
34.687
35.057
35.436
35.816
36.192
36.56
36.915
37.253
37.569
37.861
38.128
38.366
38.576
38.757
38.91
39.036
39.135
39.21
39.262
39.293
39.306
39.302
39.286
39.258
39.221
39.176
39.125
39.069
39.008
38.945
38.878
38.808
38.737
38.664
38.591
38.517
38.444
38.371
38.298
38.225
38.152
38.078
38.003
37.926
37.848
37.767
37.684
37.6
37.515
37.43
37.346
37.264
37.185
37.112
37.044
36.983
36.929
36.884
36.847
36.818
36.798
36.785
36.78
36.782
36.791
36.806
36.827
36.851
36.878
36.907
36.936
36.965
36.992
37.017
37.039
37.056
37.068
37.075
37.075
37.071
37.06
37.044
37.022
36.996
36.964
36.927
36.886
36.838
36.786
36.728
36.666
36.601
36.532
36.461
36.386
36.309
36.229
36.148
36.066
35.982
35.898
35.813
35.726
35.639
35.55
35.462
35.373
35.286
35.199
35.114
35.03
34.947
34.866
34.787
34.71
34.634
34.561
34.49
34.421
34.354
34.289
34.227
34.167
34.11
34.054
34.001
33.949
33.899
33.851
33.806
33.762
33.721
33.682
33.644
33.608
33.572
33.538
33.505
33.472
33.441
33.41
33.381
33.352
33.324
33.295
33.268
33.241
33.215
33.19
33.166
33.143
33.12
33.098
33.076
33.054
33.031
33.01
32.989
32.968
32.948
32.927
32.905
32.881
32.856
32.828
32.799
32.767
32.734
32.698
32.662
32.624
32.586
32.547
32.507
32.468
32.429
32.389
32.349
32.309
32.269
32.229
32.191
32.155
32.122
32.095
32.075
32.065
32.068
32.086
32.124
32.185
32.271
32.388
32.535
32.717
32.932
33.182
33.464
33.777
34.117
34.48
34.863
35.261
35.668
36.079
36.488
36.891
37.282
37.656
38.01
38.34
38.643
38.919
39.165
39.381
39.567
39.723
39.85
39.95
40.023
40.073
40.101
40.111
40.104
40.084
40.051
40.009
39.959
39.902
39.841
39.776
39.71
39.643
39.576
39.512
39.449
39.389
39.332
39.277
39.224
39.173
39.124
39.077
39.03
38.984
38.937
38.888
38.837
38.782
38.725
38.665
38.604
38.541
38.477
38.414
38.352
38.293
38.236
38.183
38.136
38.093
38.056
38.025
37.999
37.979
37.964
37.955
37.95
37.951
37.955
37.963
37.973
37.984
37.996
38.006
38.015
38.021
38.023
38.021
38.014
38.001
37.983
37.957
37.924
37.885
37.838
37.785
37.725
37.659
37.588
37.513
37.434
37.353
37.269
37.184
37.098
37.011
36.923
36.836
36.749
36.661
36.574
36.487
36.4
36.313
36.228
36.143
36.059
35.975
35.893
35.81
35.728
35.646
35.564
35.483
35.401
35.32
35.239
35.158
35.078
34.998
34.919
34.84
34.76
34.68
34.601
34.521
34.443
34.366
34.291
34.219
34.149
34.082
34.018
33.956
33.899
33.845
33.794
33.747
33.704
33.663
33.626
33.591
33.559
33.528
33.5
33.474
33.449
33.425
33.402
33.379
33.356
33.332
33.307
33.281
33.253
33.224
33.194
33.163
33.131
33.098
33.065
33.032
33.0
32.968
32.937
32.906
32.876
32.845
32.815
32.785
32.755
32.727
32.7
32.674
32.65
32.626
32.603
32.581
32.56
32.539
32.518
32.496
32.474
32.45
32.425
32.398
32.367
32.335
32.299
32.261
32.22
32.177
32.132
32.085
32.038
31.99
31.943
31.897
31.855
31.819
31.789
31.769
31.761
31.77
31.799
31.852
31.932
32.043
32.188
32.37
32.589
32.846
33.141
33.474
33.84
34.235
34.656
35.097
35.551
36.012
36.475
36.932
37.379
37.809
38.217
38.6
38.954
39.276
39.564
39.818
40.037
40.222
40.375
40.497
40.59
40.656
40.698
40.72
40.723
40.71
40.684
40.646
40.599
40.545
40.484
40.419
40.35
40.279
40.208
40.138
40.07
40.005
39.944
39.887
39.834
39.785
39.738
39.694
39.651
39.609
39.565
39.52
39.472
39.42
39.363
39.302
39.236
39.166
39.093
39.017
38.939
38.86
38.782
38.706
38.631
38.56
38.494
38.433
38.378
38.329
38.288
38.253
38.225
38.202
38.186
38.176
38.17
38.169
38.17
38.173
38.176
38.179
38.181
38.179
38.172
38.161
38.145
38.123
38.097
38.065
38.029
37.99
37.946
37.899
37.849
37.795
37.737
37.677
37.612
37.545
37.473
37.398
37.319
37.239
37.156
37.071
36.985
36.896
36.805
36.712
36.617
36.522
36.425
36.327
36.23
36.132
36.035
35.938
35.843
35.75
35.66
35.572
35.486
35.403
35.322
35.244
35.168
35.094
35.022
34.95
34.879
34.808
34.737
34.668
34.599
34.533
34.47
34.409
34.352
34.297
34.246
34.197
34.151
34.107
34.065
34.025
33.985
33.946
33.907
33.869
33.831
33.794
33.758
33.722
33.686
33.649
33.613
33.577
33.541
33.505
33.471
33.437
33.403
33.37
33.337
33.304
33.272
33.241
33.209
33.178
33.147
33.116
33.086
33.055
33.024
32.994
32.963
32.933
32.902
32.87
32.838
32.806
32.773
32.74
32.708
32.675
32.642
32.609
32.573
32.537
32.498
32.458
32.417
32.375
32.331
32.287
32.241
32.195
32.148
32.102
32.055
32.008
31.96
31.913
31.866
31.821
31.777
31.735
31.698
31.666
31.642
31.63
31.631
31.651
31.691
31.757
31.852
31.979
32.142
32.342
32.58
32.855
33.168
33.514
33.892
34.296
34.723
35.165
35.618
36.075
36.529
36.975
37.408
37.822
38.213
38.578
38.912
39.215
39.483
39.717
39.917
40.082
40.215
40.317
40.391
40.439
40.463
40.468
40.456
40.429
40.39
40.341
40.286
40.225
40.161
40.094
40.026
39.957
39.889
39.821
39.754
39.689
39.626
39.565
39.505
39.447
39.39
39.334
39.277
39.219
39.158
39.095
39.028
38.958
38.884
38.806
38.727
38.645
38.562
38.479
38.396
38.316
38.238
38.163
38.094
38.029
37.971
37.919
37.873
37.835
37.804
37.78
37.762
37.749
37.74
37.735
37.733
37.734
37.737
37.741
37.744
37.747
37.746
37.743
37.736
37.724
37.708
37.686
37.659
37.626
37.587
37.542
37.492
37.437
37.377
37.312
37.243
37.17
37.094
37.016
36.935
36.852
36.768
36.683
36.596
36.509
36.42
36.331
36.242
36.152
36.061
35.97
35.879
35.787
35.696
35.606
35.516
35.428
35.34
35.253
35.167
35.082
34.998
34.916
34.837
34.758
34.682
34.607
34.534
34.463
34.394
34.327
34.262
34.2
34.139
34.081
34.025
33.971
33.919
33.869
33.822
33.776
33.732
33.689
33.648
33.608
33.568
33.529
33.493
33.458
33.426
33.395
33.366
33.337
33.31
33.283
33.258
33.233
33.207
33.182
33.156
33.13
33.103
33.077
33.051
33.024
32.996
32.968
32.939
32.91
32.879
32.848
32.816
32.784
32.75
32.716
32.681
32.644
32.607
32.57
32.532
32.496
32.46
32.424
32.39
32.355
32.321
32.288
32.255
32.224
32.194
32.165
32.137
32.109
32.08
32.05
32.018
31.985
31.949
31.911
31.871
31.829
31.784
31.737
31.689
31.638
31.587
31.535
31.482
31.429
31.376
31.325
31.275
31.227
31.181
31.139
31.103
31.075
31.058
31.054
31.068
31.102
31.161
31.248
31.366
31.52
31.711
31.942
32.212
32.521
32.868
33.248
33.656
34.089
34.539
35.001
35.467
35.933
36.392
36.839
37.268
37.674
38.054
38.403
38.719
39.0
39.245
39.455
39.631
39.773
39.885
39.969
40.027
40.063
40.078
40.075
40.058
40.027
39.985
39.933
39.874
39.809
39.739
39.664
39.588
39.509
39.43
39.351
39.272
39.195
39.12
39.046
38.975
38.907
38.841
38.775
38.71
38.643
38.575
38.503
38.429
38.352
38.271
38.187
38.102
38.015
37.93
37.847
37.768
37.694
37.626
37.567
37.515
37.473
37.439
37.415
37.399
37.392
37.393
37.4
37.412
37.429
37.449
37.471
37.493
37.515
37.535
37.552
37.567
37.578
37.585
37.588
37.585
37.576
37.562
37.541
37.515
37.481
37.442
37.396
37.344
37.287
37.224
37.156
37.084
37.007
36.925
36.84
36.751
36.66
36.566
36.471
36.375
36.278
36.18
36.082
35.983
35.886
35.789
35.692
35.596
35.501
35.408
35.315
35.223
35.132
35.042
34.952
34.864
34.776
34.689
34.603
34.52
34.439
34.361
34.286
34.214
34.146
34.081
34.019
33.96
33.903
33.848
33.795
33.744
33.694
33.646
33.601
33.557
33.517
33.479
33.443
33.409
33.377
33.345
33.314
33.284
33.254
33.225
33.196
33.168
33.141
33.114
33.087
33.062
33.039
33.017
32.997
32.979
32.963
32.948
32.935
32.923
32.913
32.903
32.895
32.885
32.876
32.865
32.853
32.841
32.827
32.812
32.795
32.778
32.758
32.736
32.71
32.681
32.649
32.614
32.575
32.535
32.492
32.448
32.402
32.356
32.309
32.261
32.212
32.162
32.111
32.059
32.006
31.952
31.898
31.845
31.796
31.752
31.716
31.691
31.679
31.684
31.71
31.76
31.837
31.946
32.089
32.268
32.485
32.74
33.031
33.358
33.716
34.102
34.511
34.939
35.379
35.825
36.272
36.713
37.143
37.555
37.946
38.31
38.644
38.946
39.213
39.445
39.642
39.803
39.931
40.027
40.091
40.128
40.139
40.126
40.093
40.043
39.978
39.901
39.815
39.722
39.623
39.522
39.419
39.315
39.213
39.113
39.017
38.924
38.835
38.749
38.668
38.588
38.512
38.437
38.363
38.289
38.214
38.137
38.059
37.977
37.893
37.806
37.717
37.627
37.537
37.449
37.364
37.285
37.211
37.145
37.086
37.036
36.994
36.962
36.939
36.926
36.92
36.922
36.932
36.947
36.967
36.99
37.015
37.041
37.065
37.088
37.109
37.126
37.14
37.149
37.152
37.148
37.138
37.121
37.097
37.068
37.034
36.995
36.951
36.903
36.85
36.792
36.731
36.666
36.597
36.524
36.447
36.366
36.281
36.192
36.1
36.006
35.909
35.81
35.711
35.611
35.511
35.413
35.315
35.219
35.126
35.035
34.946
34.86
34.775
34.693
34.613
34.535
34.459
34.384
34.311
34.239
34.169
34.099
34.032
33.966
33.901
33.839
33.779
33.721
33.667
33.616
33.568
33.523
33.48
33.439
33.4
33.361
33.323
33.285
33.248
33.211
33.173
33.136
33.098
33.06
33.022
32.984
32.947
32.91
32.875
32.841
32.808
32.777
32.747
32.718
32.69
32.663
32.638
32.613
32.59
32.567
32.545
32.522
32.499
32.475
32.45
32.425
32.4
32.373
32.346
32.318
32.289
32.26
32.23
32.201
32.171
32.141
32.109
32.077
32.042
32.006
31.969
31.93
31.89
31.849
31.807
31.763
31.719
31.674
31.629
31.583
31.537
31.491
31.447
31.403
31.361
31.32
31.283
31.25
31.223
31.204
31.197
31.205
31.231
31.279
31.354
31.458
31.597
31.772
31.985
32.237
32.529
32.858
33.222
33.618
34.041
34.486
34.947
35.418
35.893
36.365
36.829
37.279
37.71
38.117
38.496
38.845
39.162
39.444
39.691
39.905
40.084
40.231
40.347
40.434
40.494
40.531
40.546
40.541
40.521
40.487
40.441
40.387
40.325
40.257
40.185
40.11
40.033
39.955
39.878
39.801
39.726
39.654
39.583
39.516
39.451
39.389
39.328
39.268
39.207
39.145
39.082
39.016
38.948
38.875
38.799
38.72
38.637
38.552
38.466
38.379
38.294
38.21
38.13
38.055
37.985
37.921
37.866
37.818
37.777
37.743
37.715
37.694
37.678
37.667
37.66
37.657
37.655
37.654
37.654
37.653
37.649
37.644
37.635
37.622
37.605
37.584
37.558
37.528
37.494
37.454
37.409
37.359
37.304
37.245
37.183
37.117
37.048
36.974
36.897
36.816
36.732
36.646
36.557
36.467
36.375
36.283
36.189
36.093
35.997
35.899
35.8
35.701
35.602
35.502
35.402
35.302
35.204
35.106
35.008
34.912
34.818
34.724
34.632
34.542
34.454
34.368
34.286
34.206
34.13
34.057
33.987
33.92
33.856
33.795
33.737
33.681
33.626
33.574
33.524
33.475
33.428
33.383
33.339
33.296
33.253
33.211
33.17
33.129
33.088
33.049
33.011
32.975
32.94
32.906
32.874
32.842
32.811
32.781
32.751
32.722
32.694
32.665
32.637
32.609
32.581
32.553
32.524
32.494
32.464
32.432
32.401
32.369
32.338
32.307
32.276
32.246
32.216
32.187
32.159
32.131
32.102
32.074
32.045
32.016
31.988
31.959
31.93
31.9
31.869
31.836
31.802
31.765
31.726
31.685
31.642
31.597
31.55
31.502
31.452
31.401
31.35
31.298
31.246
31.195
31.145
31.096
31.049
31.005
30.963
30.927
30.896
30.874
30.864
30.868
30.889
30.931
30.998
31.094
31.223
31.389
31.594
31.842
32.131
32.462
32.831
33.235
33.668
34.125
34.599
35.085
35.573
36.059
36.535
36.996
37.436
37.851
38.237
38.592
38.913
39.199
39.451
39.668
39.85
40.0
40.12
40.211
40.276
40.318
40.338
40.339
40.323
40.293
40.25
40.197
40.134
40.065
39.99
39.911
39.83
39.748
39.666
39.585
39.506
39.429
39.355
39.284
39.216
39.15
39.086
39.022
38.958
38.893
38.825
38.755
38.682
38.604
38.523
38.438
38.349
38.258
38.166
38.073
37.982
37.892
37.805
37.724
37.649
37.581
37.52
37.466
37.421
37.382
37.351
37.326
37.307
37.294
37.286
37.283
37.282
37.284
37.287
37.291
37.295
37.297
37.296
37.291
37.283
37.27
37.253
37.231
37.203
37.171
37.132
37.087
37.037
36.982
36.922
36.858
36.789
36.716
36.64
36.561
36.48
36.397
36.312
36.225
36.137
36.047
35.954
35.86
35.763
35.665
35.564
35.463
35.36
35.256
35.152
35.048
34.943
34.839
34.735
34.632
34.531
34.432
34.336
34.244
34.155
34.07
33.989
33.912
33.839
33.768
33.701
33.636
33.574
33.514
33.457
33.402
33.349
33.299
33.25
33.203
33.157
33.114
33.071
33.03
32.99
32.95
32.91
32.872
32.834
32.797
32.76
32.725
32.69
32.656
32.623
32.591
32.56
32.53
32.502
32.474
32.447
32.42
32.394
32.367
32.339
32.312
32.284
32.257
32.228
32.2
32.171
32.141
32.111
32.08
32.049
32.017
31.985
31.952
31.919
31.885
31.852
31.817
31.782
31.747
31.711
31.676
31.641
31.607
31.573
31.539
31.507
31.475
31.443
31.412
31.382
31.351
31.32
31.289
31.256
31.222
31.186
31.149
31.11
31.069
31.028
30.984
30.939
30.892
30.843
30.793
30.743
30.693
30.644
30.595
30.548
30.503
30.46
30.422
30.388
30.362
30.346
30.344
30.359
30.395
30.457
30.549
30.675
30.838
31.041
31.285
31.571
31.897
32.262
32.663
33.094
33.552
34.03
34.521
35.019
35.516
36.007
36.484
36.943
37.38
37.789
38.168
38.515
38.827
39.103
39.342
39.545
39.713
39.848
39.951
40.025
40.074
40.098
40.102
40.087
40.057
40.013
39.959
39.898
39.829
39.755
39.677
39.595
39.511
39.425
39.339
39.252
39.166
39.082
39.0
38.92
38.844
38.77
38.698
38.628
38.558
38.488
38.416
38.343
38.268
38.19
38.111
38.03
37.948
37.866
37.786
37.709
37.637
37.569
37.508
37.454
37.408
37.371
37.343
37.324
37.314
37.312
37.317
37.329
37.346
37.366
37.39
37.414
37.44
37.465
37.49
37.511
37.53
37.544
37.553
37.556
37.554
37.546
37.531
37.51
37.483
37.45
37.411
37.366
37.317
37.262
37.203
37.139
37.069
36.993
36.913
36.827
36.735
36.638
36.535
36.427
36.313
36.196
36.075
35.95
35.825
35.699
35.575
35.454
35.336
35.222
35.113
35.009
34.91
34.817
34.73
34.647
34.57
34.499
34.432
34.369
34.31
34.253
34.199
34.145
34.091
34.037
33.982
33.924
33.865
33.803
33.739
33.672
33.604
33.534
33.463
33.391
33.319
33.247
33.175
33.104
33.034
32.967
32.903
32.841
32.782
32.726
32.673
32.624
32.578
32.536
32.499
32.465
32.436
32.41
32.387
32.366
32.346
32.328
32.309
32.29
32.269
32.247
32.223
32.197
32.169
32.138
32.105
32.071
32.037
32.001
31.964
31.928
31.891
31.856
31.821
31.788
31.755
31.723
31.691
31.658
31.624
31.59
31.555
31.519
31.482
31.444
31.406
31.367
31.326
31.284
31.24
31.196
31.15
31.104
31.058
31.013
30.968
30.925
30.882
30.841
30.802
30.767
30.737
30.715
30.702
30.702
30.718
30.753
30.811
30.897
31.015
31.167
31.357
31.586
31.855
32.161
32.504
32.878
33.281
33.707
34.151
34.606
35.065
35.524
35.977
36.417
36.84
37.242
37.618
37.965
38.28
38.562
38.811
39.025
39.206
39.355
39.473
39.563
39.625
39.663
39.679
39.675
39.654
39.618
39.568
39.507
39.437
39.358
39.273
39.183
39.088
38.989
38.887
38.784
38.681
38.577
38.474
38.372
38.269
38.167
38.064
37.96
37.855
37.749
37.642
37.533
37.422
37.311
37.2
37.089
36.979
36.873
36.771
36.675
36.587
36.509
36.441
36.384
36.339
36.306
36.285
36.275
36.277
36.288
36.308
36.334
36.367
36.404
36.443
36.484
36.524
36.563
36.597
36.628
36.655
36.678
36.696
36.709
36.717
36.72
36.716
36.707
36.691
36.67
36.643
36.61
36.572
36.528
36.479
36.425
36.367
36.304
36.238
36.167
36.093
36.015
35.935
35.852
35.767
35.68
35.592
35.502
35.411
35.32
35.228
35.135
35.041
34.947
34.853
34.758
34.663
34.569
34.477
34.387
34.299
34.214
34.131
34.051
33.973
33.897
33.823
33.75
33.68
33.611
33.544
33.479
33.415
33.353
33.292
33.233
33.177
33.124
33.074
33.027
32.983
32.942
32.903
32.867
32.833
32.8
32.768
32.737
32.707
32.677
32.649
32.621
32.593
32.567
32.542
32.519
32.498
32.478
32.46
32.443
32.427
32.411
32.396
32.38
32.364
32.346
32.328
32.308
32.286
32.261
32.235
32.205
32.174
32.139
32.101
32.06
32.017
31.973
31.927
31.88
31.833
31.785
31.737
31.69
31.644
31.6
31.559
31.522
31.489
31.463
31.445
31.437
31.443
31.467
31.511
31.581
31.68
31.811
31.978
32.182
32.424
32.703
33.018
33.366
33.743
34.145
34.567
35.001
35.444
35.889
36.33
36.761
37.177
37.572
37.944
38.287
38.599
38.879
39.127
39.341
39.523
39.673
39.793
39.884
39.95
39.991
40.01
40.01
39.994
39.963
39.919
39.864
39.8
39.729
39.651
39.569
39.484
39.396
39.307
39.217
39.127
39.038
38.948
38.86
38.773
38.686
38.599
38.512
38.424
38.335
38.244
38.151
38.056
37.959
37.861
37.762
37.664
37.568
37.475
37.387
37.305
37.231
37.163
37.104
37.055
37.015
36.985
36.965
36.954
36.952
36.957
36.968
36.986
37.008
37.033
37.06
37.088
37.113
37.136
37.155
37.17
37.18
37.185
37.185
37.18
37.17
37.155
37.135
37.11
37.08
37.044
37.002
36.956
36.904
36.848
36.787
36.722
36.652
36.578
36.501
36.42
36.336
36.248
36.158
36.065
35.97
35.873
35.775
35.677
35.578
35.48
35.381
35.282
35.183
35.085
34.986
34.889
34.793
34.698
34.603
34.51
34.417
34.324
34.233
34.144
34.056
33.97
33.887
33.806
33.727
33.652
33.579
33.509
33.442
33.378
33.317
33.258
33.202
33.148
33.097
33.047
33.0
32.956
32.913
32.872
32.833
32.795
32.759
32.723
32.69
32.658
32.628
32.599
32.572
32.546
32.521
32.497
32.474
32.452
32.431
32.411
32.391
32.373
32.355
32.338
32.32
32.303
32.285
32.267
32.249
32.23
32.211
32.193
32.174
32.154
32.135
32.114
32.092
32.068
32.043
32.015
31.984
31.951
31.915
31.877
31.836
31.794
31.75
31.705
31.659
31.612
31.566
31.521
31.478
31.44
31.407
31.383
31.37
31.372
31.391
31.434
31.503
31.602
31.736
31.906
32.116
32.364
32.653
32.979
33.342
33.738
34.162
34.609
35.074
35.548
36.026
36.501
36.967
37.418
37.848
38.253
38.629
38.973
39.284
39.56
39.802
40.008
40.182
40.323
40.434
40.517
40.575
40.61
40.625
