Trial 1:0back
32.591
32.573
32.553
32.533
32.512
32.491
32.47
32.45
32.429
32.409
32.389
32.37
32.351
32.333
32.316
32.3
32.285
32.27
32.256
32.243
32.229
32.216
32.202
32.188
32.174
32.16
32.145
32.129
32.112
32.094
32.074
32.054
32.034
32.012
31.991
31.971
31.95
31.93
31.911
31.892
31.872
31.854
31.835
31.817
31.8
31.784
31.771
31.759
31.748
31.739
31.729
31.72
31.711
31.699
31.686
31.671
31.654
31.634
31.613
31.59
31.566
31.541
31.516
31.492
31.468
31.446
31.425
31.406
31.388
31.37
31.354
31.339
31.324
31.311
31.298
31.286
31.275
31.264
31.252
31.241
31.228
31.216
31.204
31.192
31.181
31.17
31.159
31.149
31.14
31.132
31.128
31.127
31.133
31.147
31.172
31.209
31.262
31.332
31.419
31.524
31.647
31.788
31.944
32.115
32.298
32.489
32.687
32.888
33.088
33.286
33.478
33.66
33.831
33.989
34.132
34.259
34.369
34.462
34.539
34.601
34.647
34.681
34.703
34.714
34.716
34.711
34.699
34.682
34.661
34.636
34.609
34.581
34.551
34.521
34.492
34.463
34.435
34.41
34.386
34.364
34.345
34.329
34.315
34.304
34.296
34.292
34.29
34.29
34.292
34.294
34.297
34.3
34.301
34.302
34.3
34.298
34.293
34.287
34.28
34.272
34.263
34.254
34.245
34.236
34.229
34.222
34.217
34.213
34.211
34.211
34.213
34.217
34.223
34.231
34.242
34.254
34.267
34.281
34.296
34.312
34.327
34.343
34.357
34.37
34.38
34.388
34.392
34.393
34.39
34.384
34.373
34.358
34.34
34.318
34.293
34.266
34.237
34.206
34.174
34.143
34.113
34.084
34.057
34.033
34.011
33.992
33.974
33.958
33.944
33.929
33.915
33.899
33.882
33.863
33.842
33.82
33.794
33.767
33.738
33.708
33.678
33.647
33.617
33.59
33.565
33.542
33.522
33.505
33.49
33.478
33.468
33.459
33.452
33.446
33.44
33.434
33.429
33.424
33.419
33.413
33.407
33.399
33.39
33.379
33.365
33.35
33.334
33.317
33.3
33.283
33.267
33.252
33.239
33.227
33.217
33.208
33.201
33.195
33.189
33.184
33.179
33.174
33.167
33.16
33.151
33.141
33.13
33.118
33.105
33.092
33.079
33.066
33.055
33.044
33.035
33.027
33.021
33.015
33.011
33.006
33.002
32.999
32.994
32.989
32.983
32.975
32.965
32.954
32.941
32.927
32.911
32.894
32.876
32.858
32.84
32.824
32.808
32.793
32.779
32.765
32.754
32.743
32.733
32.724
32.715
32.705
32.694
32.681
32.667
32.65
32.633
32.613
32.593
32.572
32.551
32.531
32.512
32.494
32.476
32.459
32.443
32.427
32.412
32.398
32.384
32.37
32.356
32.342
32.329
32.315
32.301
32.287
32.273
32.258
32.242
32.224
32.206
32.187
32.168
32.15
32.133
32.12
32.111
32.11
32.117
32.137
32.17
32.218
32.284
32.367
32.469
32.587
32.722
32.871
33.032
33.203
33.38
33.56
33.742
33.92
34.095
34.262
34.421
34.57
34.707
34.831
34.942
35.038
35.12
35.188
35.241
35.279
35.305
35.319
35.322
35.316
35.302
35.28
35.253
35.222
35.189
35.155
35.12
35.086
35.053
35.023
34.995
34.971
34.95
34.932
34.918
34.906
34.897
34.89
34.886
34.882
34.878
34.875
34.87
34.865
34.857
34.847
34.835
34.82
34.804
34.785
34.766
34.747
34.728
34.71
34.693
34.679
34.667
34.659
34.654
34.654
34.658
34.667
34.681
34.699
34.721
34.747
34.775
34.806
34.839
34.874
34.909
34.944
34.977
35.009
35.036
35.06
35.078
35.092
35.1
35.104
35.104
35.099
35.09
35.077
35.061
35.043
35.024
35.004
34.983
34.961
34.939
34.917
34.894
34.871
34.849
34.826
34.803
34.779
34.754
34.728
34.701
34.673
34.643
34.614
34.583
34.553
34.524
34.495
34.468
34.441
34.416
34.391
34.368
34.345
34.322
34.3
34.277
34.254
34.23
34.205
34.18
34.156
34.131
34.109
34.087
34.068
34.051
34.036
34.022
34.01
33.998
33.987
33.977
33.966
33.955
33.944
33.933
33.922
33.91
33.898
33.885
33.872
33.858
33.844
33.829
33.814
33.799
33.785
33.772
33.761
33.751
33.743
33.736
33.73
33.725
33.72
33.715
33.71
33.705
33.699
33.692
33.685
33.677
33.667
33.657
33.645
33.632
33.617
33.601
33.584
33.567
33.549
33.532
33.515
33.5
33.485
33.473
33.462
33.453
33.444
33.437
33.429
33.421
33.413
33.404
33.394
33.383
33.371
33.359
33.347
33.335
33.324
33.313
33.302
33.291
33.28
33.269
33.259
33.248
33.238
33.228
33.218
33.208
33.198
33.187
33.174
33.16
33.145
33.127
33.108
33.087
33.066
33.045
33.024
33.005
32.987
32.97
32.957
32.947
32.941
32.941
32.947
32.96
32.98
33.01
33.05
33.103
33.168
33.249
33.344
33.454
33.578
33.716
33.866
34.027
34.197
34.374
34.556
34.74
34.924
35.106
35.283
35.453
35.614
35.765
35.903
36.028
36.139
36.236
36.318
36.385
36.439
36.479
36.507
36.524
36.532
36.532
36.527
36.517
36.504
36.487
36.469
36.45
36.43
36.41
36.39
36.369
36.348
36.325
36.301
36.275
36.249
36.222
36.195
36.169
36.145
36.123
36.102
36.084
36.067
36.052
36.037
36.024
36.011
35.998
35.984
35.969
35.954
35.937
35.92
35.902
35.885
35.868
35.852
35.839
35.828
35.82
35.815
35.814
35.818
35.826
35.839
35.856
35.877
35.901
35.928
35.955
35.983
36.01
36.036
36.061
36.083
36.102
36.119
36.131
36.14
36.145
36.146
36.143
36.138
36.129
36.117
36.101
36.083
36.06
36.035
36.007
35.978
35.948
35.918
35.89
35.862
35.835
35.809
35.784
35.76
35.736
35.711
35.686
35.661
35.635
35.608
35.581
35.552
35.523
35.494
35.465
35.435
35.406
35.376
35.347
35.319
35.292
35.267
35.243
35.22
35.198
35.177
35.156
35.134
35.112
35.09
35.068
35.046
35.025
35.003
34.983
34.963
34.945
34.929
34.916
34.904
34.893
34.884
34.876
34.869
34.863
34.857
34.851
34.845
34.839
34.832
34.823
34.814
34.803
34.79
34.776
34.76
34.743
34.726
34.708
34.69
34.673
34.656
34.641
34.626
34.611
34.597
34.582
34.566
34.55
34.534
34.517
34.499
34.482
34.466
34.45
34.435
34.421
34.409
34.398
34.387
34.378
34.368
34.359
34.349
34.338
34.325
34.31
34.292
34.272
34.249
34.224
34.197
34.168
34.137
34.107
34.077
34.049
34.023
33.999
33.979
33.962
33.948
33.937
33.929
33.922
33.916
33.911
33.905
33.897
33.887
33.875
33.86
33.843
33.823
33.801
33.777
33.752
33.726
33.698
33.671
33.645
33.619
33.595
33.572
33.551
33.53
33.512
33.496
33.484
33.474
33.468
33.466
33.469
33.478
33.495
33.522
33.562
33.616
33.686
33.775
33.882
34.01
34.157
34.322
34.504
34.7
34.909
35.125
35.348
35.572
35.795
36.015
36.227
36.43
36.62
36.798
36.961
37.109
37.241
37.358
37.459
37.545
37.617
37.675
37.721
37.756
37.781
37.797
37.806
37.809
37.806
37.799
37.788
37.773
37.757
37.739
37.719
37.698
37.677
37.655
37.633
37.612
37.59
37.569
37.549
37.53
37.513
37.498
37.485
37.475
37.465
37.457
37.45
37.443
37.434
37.424
37.412
37.398
37.382
37.363
37.343
37.322
37.301
37.281
37.263
37.248
37.235
37.226
37.219
37.215
37.214
37.215
37.219
37.225
37.232
37.242
37.254
37.268
37.284
37.301
37.32
37.339
37.358
37.376
37.392
37.404
37.413
37.419
37.42
37.417
37.41
37.4
37.388
37.374
37.358
37.341
37.323
37.305
37.285
37.264
37.242
37.217
37.191
37.163
37.133
37.1
37.067
37.032
36.995
36.959
36.922
36.886
36.85
36.815
36.78
36.746
36.713
36.679
36.647
36.614
36.581
36.547
36.513
36.478
36.442
36.407
36.372
36.338
36.305
36.274
36.244
36.215
36.188
36.161
36.135
36.109
36.085
36.062
36.039
36.016
35.994
35.972
35.95
35.929
35.908
35.887
35.867
35.849
35.831
35.814
35.798
35.781
35.765
35.747
35.729
35.71
35.69
35.669
35.647
35.625
35.603
35.581
35.56
35.54
35.521
35.503
35.487
35.471
35.455
35.44
35.424
35.408
35.39
35.37
35.347
35.323
35.298
35.271
35.245
35.218
35.192
35.167
35.144
35.122
35.102
35.084
35.067
35.052
35.037
35.023
35.008
34.993
34.977
34.96
34.941
34.921
34.901
34.88
34.859
34.837
34.815
34.792
34.768
34.743
34.717
34.69
34.663
34.636
34.609
34.582
34.556
34.531
34.506
34.481
34.457
34.433
34.409
34.386
34.362
34.338
34.314
34.289
34.264
34.238
34.211
34.183
34.153
34.122
34.091
34.06
34.03
34.001
33.975
33.95
33.927
33.906
33.885
33.865
33.845
33.826
33.81
33.796
33.788
33.786
33.792
33.81
33.843
33.891
33.959
34.046
34.155
34.286
34.437
34.608
34.797
35.002
35.22
35.447
35.682
35.92
36.158
36.394
36.625
36.848
37.06
37.26
37.447
37.619
37.776
37.916
38.039
38.145
38.235
38.308
38.367
38.411
38.443
38.464
38.474
38.476
38.47
38.458
38.44
38.417
38.39
38.359
38.326
38.292
38.258
38.224
38.191
38.161
38.133
38.108
38.086
38.067
38.051
38.039
38.029
38.021
38.015
38.009
38.004
37.998
37.991
37.982
37.971
37.958
37.943
37.927
37.909
37.89
37.871
37.852
37.836
37.821
37.81
37.801
37.796
37.795
37.797
37.803
37.812
37.825
37.84
37.859
37.88
37.902
37.926
37.95
37.974
37.997
38.018
38.036
38.051
38.062
38.069
38.072
38.071
38.067
38.059
38.047
38.032
38.015
37.994
37.972
37.947
37.92
37.891
37.861
37.829
37.797
37.764
37.73
37.696
37.662
37.627
37.592
37.556
37.52
37.482
37.443
37.404
37.362
37.32
37.276
37.231
37.185
37.138
37.091
37.043
36.996
36.949
36.903
36.858
36.814
36.771
36.728
36.685
36.643
36.601
36.559
36.517
36.474
36.431
36.388
36.345
36.303
36.263
36.224
36.188
36.154
36.123
36.094
36.068
36.043
36.02
35.996
35.973
35.949
35.925
35.901
35.875
35.85
35.824
35.797
35.771
35.746
35.72
35.694
35.669
35.644
35.619
35.594
35.57
35.545
35.519
35.494
35.467
35.441
35.415
35.388
35.362
35.336
35.31
35.283
35.257
35.231
35.206
35.182
35.157
35.134
35.111
35.088
35.065
35.042
35.018
34.994
34.969
34.943
34.915
34.886
34.857
34.827
34.797
34.767
34.739
34.711
34.684
34.658
34.633
34.61
34.588
34.566
34.545
34.524
34.504
34.483
34.461
34.439
34.414
34.388
34.361
34.332
34.302
34.272
34.241
34.21
34.179
34.148
34.118
34.089
34.06
34.032
34.004
33.976
33.947
33.918
33.89
33.86
33.831
33.803
33.775
33.75
33.729
33.713
33.706
33.708
33.722
33.751
33.797
33.862
33.947
34.053
34.18
34.328
34.496
34.682
34.885
35.102
35.33
35.568
35.811
36.057
36.303
36.546
36.783
37.011
37.229
37.436
37.628
37.805
37.965
38.107
38.231
38.336
38.422
38.491
38.543
38.58
38.602
38.612
38.611
38.601
38.584
38.56
38.532
38.5
38.466
38.429
38.39
38.349
38.308
38.267
38.227
38.187
38.15
38.114
38.081
38.051
38.023
37.997
37.974
37.952
37.93
37.909
37.887
37.863
37.838
37.812
37.784
37.755
37.725
37.695
37.666
37.639
37.614
37.593
37.575
37.561
37.551
37.546
37.545
37.549
37.557
37.57
37.588
37.61
37.637
37.666
37.698
37.73
37.763
37.794
37.823
37.849
37.871
37.889
37.902
37.911
37.915
37.916
37.914
37.908
37.899
37.887
37.873
37.856
37.836
37.814
37.789
37.761
37.73
37.696
37.66
37.622
37.582
37.541
37.497
37.453
37.406
37.357
37.307
37.255
37.202
37.147
37.091
37.034
36.978
36.922
36.868
36.814
36.763
36.713
36.664
36.616
36.567
36.52
36.472
36.425
36.378
36.331
36.286
36.241
36.197
36.153
36.111
36.069
36.029
35.991
35.953
35.918
35.883
35.848
35.815
35.782
35.75
35.719
35.689
35.659
35.63
35.601
35.572
35.543
35.514
35.486
35.458
35.431
35.404
35.378
35.351
35.325
35.299
35.272
35.245
35.219
35.192
35.165
35.139
35.113
35.087
35.061
35.036
35.012
34.989
34.966
34.945
34.924
34.903
34.882
34.861
34.839
34.816
34.793
34.769
34.744
34.718
34.692
34.665
34.636
34.607
34.576
34.545
34.512
34.479
34.445
34.411
34.378
34.344
34.312
34.28
34.248
34.217
34.185
34.153
34.12
34.087
34.053
34.018
33.983
33.948
33.912
33.876
33.841
33.807
33.775
33.747
33.723
33.704
33.693
33.691
33.702
33.726
33.767
33.825
33.901
33.998
34.113
34.249
34.403
34.575
34.763
34.967
35.184
35.412
35.649
35.891
36.136
36.381
36.622
36.858
37.084
37.298
37.497
37.679
37.843
37.989
38.115
38.222
38.311
38.381
38.435
38.473
38.498
38.51
38.512
38.505
38.49
38.469
38.442
38.411
38.375
38.336
38.295
38.252
38.208
38.164
38.12
38.077
38.036
37.996
37.959
37.924
37.89
37.859
37.829
37.799
37.769
37.738
37.707
37.675
37.641
37.606
37.569
37.532
37.493
37.455
37.419
37.384
37.352
37.325
37.303
37.286
37.276
37.272
37.273
37.281
37.295
37.314
37.338
37.367
37.398
37.431
37.466
37.499
37.531
37.561
37.587
37.609
37.627
37.639
37.646
37.648
37.646
37.639
37.628
37.613
37.595
37.574
37.55
37.524
37.496
37.466
37.435
37.401
37.367
37.332
37.296
37.259
37.221
37.182
37.143
37.102
37.06
37.017
36.972
36.926
36.879
36.83
36.78
36.729
36.676
36.623
36.568
36.513
36.457
36.401
36.344
36.289
36.234
36.182
36.131
36.081
36.033
35.986
35.94
35.895
35.851
35.808
35.767
35.727
35.688
35.651
35.615
35.58
35.546
35.513
35.481
35.45
35.421
35.393
35.366
35.339
35.312
35.284
35.257
35.229
35.202
35.176
35.149
35.124
35.099
35.075
35.053
35.031
35.011
34.992
34.973
34.955
34.937
34.918
34.899
34.878
34.857
34.834
34.811
34.786
34.76
34.733
34.705
34.676
34.647
34.618
34.589
34.561
34.533
34.506
34.479
34.452
34.427
34.401
34.376
34.351
34.326
34.301
34.276
34.251
34.226
34.199
34.172
34.144
34.115
34.085
34.055
34.024
33.993
33.961
33.928
33.894
33.86
33.824
33.787
33.749
33.71
33.67
33.63
33.589
33.549
33.51
33.471
33.435
33.402
33.373
33.349
33.333
33.327
33.332
33.352
33.387
33.442
33.517
33.614
33.735
33.88
34.049
34.24
34.453
34.685
34.934
35.199
35.475
35.761
36.052
36.345
36.636
36.922
37.198
37.463
37.713
37.945
38.158
38.349
38.519
38.665
38.79
38.893
38.977
39.042
39.091
39.125
39.147
39.157
39.159
39.153
39.142
39.126
39.107
39.085
39.061
39.036
39.011
38.986
38.962
38.939
38.917
38.897
38.878
38.86
38.844
38.829
38.815
38.802
38.788
38.775
38.76
38.744
38.727
38.708
38.686
38.662
38.634
38.604
38.57
38.532
38.492
38.448
38.403
38.357
38.312
38.267
38.225
38.186
38.151
38.122
38.098
38.08
38.068
38.063
38.064
38.071
38.082
38.097
38.115
38.135
38.157
38.179
38.202
38.223
38.244
38.263
38.279
38.291
38.299
38.302
38.297
38.285
38.264
38.234
38.196
38.149
38.095
38.034
37.968
37.897
37.822
37.746
37.668
37.59
37.512
37.436
37.362
37.289
37.218
37.148
37.08
37.013
36.948
36.886
36.825
36.767
36.711
36.657
36.605
36.556
36.508
36.46
36.414
36.367
36.319
36.27
36.219
36.168
36.117
36.065
36.013
35.962
35.913
35.865
35.819
35.776
35.735
35.697
35.661
35.627
35.596
35.566
35.536
35.508
35.48
35.452
35.424
35.395
35.367
35.338
35.311
35.283
35.257
35.23
35.205
35.18
35.155
35.132
35.109
35.087
35.065
35.044
35.022
35.001
34.979
34.956
34.932
34.907
34.881
34.855
34.828
34.801
34.774
34.747
34.72
34.694
34.668
34.643
34.619
34.594
34.57
34.546
34.521
34.496
34.47
34.443
34.415
34.387
34.357
34.327
34.296
34.264
34.233
34.201
34.17
34.139
34.109
34.081
34.055
34.031
34.008
33.985
33.963
33.941
33.918
33.895
33.872
33.846
33.819
33.79
33.758
33.724
33.688
33.65
33.61
33.569
33.528
33.486
33.444
33.404
33.364
33.326
33.29
33.255
33.222
33.191
33.162
33.135
33.11
33.088
33.071
33.059
33.055
33.061
33.08
33.115
33.171
33.248
33.35
33.478
33.634
33.819
34.032
34.272
34.537
34.826
35.135
35.459
35.794
36.135
36.477
36.813
37.14
37.453
37.748
38.021
38.271
38.497
38.697
38.871
39.02
39.144
39.244
39.321
39.379
39.419
39.443
39.454
39.453
39.444
39.426
39.403
39.376
39.346
39.315
39.283
39.251
39.22
39.189
39.161
39.134
39.109
39.086
39.065
39.047
39.031
39.019
39.009
39.001
38.995
38.989
38.983
38.977
38.968
38.958
38.944
38.926
38.905
38.881
38.853
38.823
38.792
38.759
38.727
38.696
38.668
38.643
38.621
38.604
38.591
38.582
38.579
38.58
38.587
38.598
38.612
38.629
38.647
38.666
38.684
38.701
38.717
38.73
38.74
38.748
38.752
38.752
38.748
38.739
38.726
38.709
38.686
38.659
38.628
38.592
38.552
38.508
38.46
38.409
38.356
38.301
38.244
38.187
38.128
38.069
38.009
37.95
37.89
37.83
37.77
37.709
37.647
37.585
37.523
37.46
37.396
37.333
37.27
37.207
37.143
37.081
37.019
36.958
36.898
36.838
36.779
36.721
36.664
36.608
36.551
36.495
36.439
36.383
36.327
36.272
36.217
36.163
36.111
36.06
36.011
35.964
35.919
35.876
35.835
35.796
35.758
35.721
35.685
35.65
35.615
35.581
35.548
35.515
35.484
35.452
35.421
35.391
35.361
35.332
35.303
35.274
35.245
35.216
35.186
35.156
35.125
35.093
35.06
35.027
34.992
34.958
34.923
34.888
34.854
34.821
34.789
34.757
34.725
34.693
34.661
34.629
34.596
34.563
34.53
34.497
34.464
34.432
34.399
34.366
34.332
34.298
34.262
34.226
34.189
34.152
34.115
34.08
34.045
34.011
33.978
33.945
33.914
33.883
33.853
33.824
33.794
33.764
33.733
33.701
33.667
33.633
33.597
33.559
33.521
33.482
33.442
33.403
33.363
33.323
33.284
33.246
33.209
33.173
33.138
33.105
33.072
33.041
33.012
32.986
32.965
32.951
32.947
32.957
32.984
33.03
33.099
33.193
33.314
33.464
33.645
33.855
34.094
34.36
34.65
34.959
35.285
35.622
35.966
36.311
36.654
36.989
37.312
37.621
37.911
38.18
38.426
38.649
38.847
39.02
39.168
39.292
39.393
39.471
39.53
39.569
39.593
39.603
39.6
39.588
39.569
39.544
39.515
39.483
39.449
39.413
39.377
39.34
39.304
39.269
39.235
39.204
39.175
39.149
39.126
39.104
39.085
39.067
39.05
39.033
39.016
38.998
38.977
38.955
38.929
38.902
38.872
38.841
38.807
38.773
38.737
38.702
38.667
38.633
38.601
38.573
38.547
38.525
38.507
38.494
38.485
38.482
38.484
38.49
38.5
38.513
38.527
38.542
38.556
38.569
38.58
38.587
38.591
38.59
38.585
38.575
38.561
38.543
38.522
38.498
38.471
38.441
38.408
38.371
38.331
38.288
38.24
38.19
38.137
38.081
38.023
37.964
37.903
37.841
37.777
37.713
37.647
37.58
37.512
37.443
37.373
37.302
37.23
37.157
37.084
37.01
36.937
36.865
36.794
36.725
36.656
36.589
36.523
36.459
36.395
36.332
36.271
36.21
36.15
36.091
36.033
35.978
35.924
35.873
35.824
35.777
35.732
35.69
35.649
35.609
35.57
35.53
35.491
35.453
35.415
35.378
35.342
35.307
35.274
35.24
35.207
35.173
35.14
35.106
35.073
35.04
35.009
34.979
34.949
34.921
34.894
34.868
34.842
34.815
34.789
34.761
34.733
34.703
34.673
34.642
34.612
34.581
34.549
34.517
34.485
34.452
34.418
34.383
34.348
34.312
34.275
34.237
34.198
34.158
34.119
34.079
34.039
33.999
33.96
33.92
33.88
33.84
33.8
33.759
33.719
33.678
33.638
33.599
33.561
33.524
33.489
33.455
33.423
33.392
33.361
33.33
33.3
33.27
33.24
33.209
33.177
33.145
33.111
33.077
33.042
33.006
32.97
32.932
32.893
32.853
32.813
32.773
32.733
32.693
32.656
32.621
32.59
32.565
32.549
32.543
32.55
32.573
32.614
32.677
32.764
32.877
33.017
33.184
33.38
33.604
33.854
34.127
34.422
34.735
35.062
35.398
35.741
36.084
36.424
36.756
37.076
37.382
37.668
37.933
38.175
38.392
38.583
38.749
38.889
39.005
39.098
39.169
39.22
39.253
39.271
39.276
39.269
39.253
39.228
39.198
39.161
39.12
39.076
39.029
38.981
38.933
38.885
38.838
38.793
38.751
38.711
38.674
38.639
38.607
38.576
38.547
38.517
38.486
38.454
38.421
38.385
38.348
38.308
38.266
38.224
38.18
38.135
38.091
38.048
38.007
37.968
37.933
37.903
37.878
37.859
37.846
37.84
37.841
37.848
