Trial 1:0back
33.865
33.851
33.839
33.832
33.83
33.837
33.854
33.883
33.928
33.989
34.07
34.171
34.294
34.438
34.603
34.787
34.988
35.205
35.433
35.669
35.91
36.152
36.391
36.622
36.841
37.045
37.231
37.397
37.54
37.661
37.759
37.833
37.885
37.914
37.923
37.912
37.884
37.841
37.786
37.722
37.651
37.575
37.497
37.419
37.341
37.264
37.19
37.119
37.051
36.987
36.928
36.873
36.821
36.773
36.727
36.683
36.64
36.596
36.552
36.505
36.457
36.406
36.354
36.3
36.245
36.19
36.136
36.082
36.03
35.981
35.936
35.894
35.859
35.829
35.807
35.791
35.784
35.783
35.79
35.803
35.823
35.847
35.876
35.907
35.939
35.971
36.0
36.024
36.044
36.058
36.067
36.07
36.067
36.06
36.048
36.031
36.011
35.988
35.961
35.932
35.9
35.866
35.831
35.795
35.758
35.721
35.683
35.645
35.607
35.568
35.529
35.49
35.451
35.412
35.374
35.335
35.295
35.255
35.214
35.171
35.126
35.078
35.028
34.976
34.923
34.868
34.812
34.755
34.698
34.642
34.587
34.534
34.484
34.436
34.392
34.351
34.314
34.281
34.252
34.227
34.205
34.188
34.175
34.165
34.158
34.154
34.151
34.15
34.151
34.152
34.154
34.156
34.157
34.158
34.157
34.154
34.15
34.143
34.134
34.123
34.11
34.094
34.077
34.059
34.039
34.017
33.996
33.974
33.953
33.931
33.91
33.89
33.87
33.852
33.836
33.822
33.81
33.801
33.795
33.793
33.796
33.804
33.817
33.837
33.864
33.901
33.949
34.011
34.087
34.18
34.29
34.418
34.563
34.725
34.901
35.091
35.292
35.5
35.713
35.929
36.145
36.357
36.563
36.76
36.946
37.118
37.275
37.416
37.539
37.644
37.73
37.798
37.847
37.88
37.895
37.894
37.878
37.849
37.807
37.754
37.691
37.621
37.545
37.464
37.38
37.293
37.207
37.121
37.036
36.955
36.877
36.805
36.737
36.676
36.62
36.571
36.528
36.489
36.455
36.425
36.397
36.371
36.345
36.32
36.294
36.267
36.239
36.21
36.18
36.15
36.121
36.092
36.065
36.04
36.017
35.997
35.979
35.963
35.951
35.942
35.936
35.933
35.933
35.936
35.942
35.95
35.96
35.97
35.982
35.993
36.003
36.011
36.017
36.021
36.023
36.022
36.019
36.012
36.002
35.987
35.967
35.942
35.912
35.875
35.833
35.785
35.732
35.675
35.615
35.553
35.488
35.423
35.357
35.293
35.229
35.169
35.11
35.054
35.0
34.949
34.901
34.855
34.812
34.772
34.735
34.7
34.667
34.636
34.607
34.579
34.551
34.524
34.497
34.47
34.441
34.412
34.382
34.35
34.317
34.283
34.248
34.214
34.179
34.145
34.112
34.08
34.05
34.022
33.997
33.975
33.958
33.944
33.934
33.928
33.926
33.927
33.931
33.938
33.947
33.956
33.966
33.976
33.985
33.993
34.0
34.006
34.009
34.01
34.008
34.004
33.996
33.985
33.97
33.951
33.93
33.906
33.88
33.852
33.823
33.793
33.763
33.734
33.706
33.678
33.652
33.628
33.607
33.588
33.573
33.561
33.553
33.55
33.553
33.565
33.588
33.623
33.672
33.737
33.819
33.918
34.037
34.174
34.331
34.506
34.697
34.902
35.119
35.344
35.574
35.807
36.04
36.267
36.488
36.699
36.897
37.079
37.242
37.387
37.513
37.614
37.688
37.735
37.759
37.762
37.75
37.725
37.69
37.648
37.602
37.553
37.502
37.447
37.383
37.31
37.231
37.152
37.071
36.987
36.901
36.815
36.731
36.652
36.58
36.514
36.454
36.403
36.358
36.32
36.287
36.259
36.235
36.214
36.194
36.175
36.155
36.134
36.111
36.086
36.06
36.033
36.004
35.973
35.941
35.909
35.878
35.848
35.82
35.796
35.775
35.758
35.745
35.735
35.729
35.726
35.726
35.73
35.737
35.748
35.761
35.777
35.794
35.812
35.829
35.844
35.856
35.864
35.87
35.871
35.867
35.858
35.846
35.828
35.806
35.778
35.745
35.707
35.663
35.615
35.561
35.502
35.44
35.374
35.306
35.237
35.166
35.096
35.025
34.955
34.887
34.821
34.758
34.698
34.643
34.592
34.545
34.503
34.466
34.433
34.404
34.379
34.358
34.34
34.322
34.305
34.286
34.265
34.242
34.215
34.186
34.153
34.119
34.084
34.048
34.011
33.975
33.939
33.903
33.869
33.838
33.81
33.786
33.767
33.753
33.743
33.738
33.735
33.735
33.736
33.738
33.741
33.745
33.749
33.753
33.758
33.762
33.767
33.771
33.774
33.777
33.778
33.777
33.772
33.765
33.754
33.74
33.724
33.705
33.685
33.663
33.64
33.617
33.593
33.57
33.546
33.523
33.501
33.481
33.462
33.444
33.428
33.413
33.4
33.387
33.376
33.364
33.354
33.343
33.333
33.323
33.314
33.304
33.294
33.285
33.277
33.271
33.268
33.271
33.283
33.305
33.341
33.392
33.462
33.552
33.662
33.794
33.946
34.119
34.311
34.52
34.744
34.981
35.226
35.476
35.727
35.976
36.219
36.452
36.672
36.877
37.066
37.236
37.385
37.513
37.618
37.699
37.758
37.793
37.806
37.798
37.771
37.727
37.669
37.597
37.514
37.422
37.323
37.22
37.113
37.007
36.902
36.8
36.703
36.613
36.529
36.452
36.383
36.322
36.268
36.22
36.178
36.139
36.103
36.068
36.034
35.999
35.963
35.925
35.886
35.846
35.805
35.764
35.724
35.686
35.652
35.621
35.595
35.574
35.559
35.548
35.543
35.543
35.549
35.561
35.577
35.599
35.624
35.653
35.685
35.72
35.757
35.795
35.832
35.868
35.901
35.93
35.955
35.974
35.988
35.995
35.994
35.987
35.973
35.952
35.924
35.888
35.846
35.799
35.745
35.687
35.625
35.559
35.491
35.422
35.353
35.286
35.22
35.157
35.097
35.041
34.988
34.939
34.895
34.854
34.817
34.783
34.751
34.72
34.689
34.66
34.629
34.596
34.562
34.525
34.486
34.445
34.401
34.356
34.31
34.263
34.216
34.17
34.127
34.085
34.048
34.014
33.983
33.957
33.934
33.915
33.9
33.889
33.881
33.875
33.871
33.869
33.87
33.874
33.879
33.887
33.895
33.903
33.911
33.919
33.927
33.934
33.939
33.942
33.943
33.941
33.937
33.93
33.921
33.909
33.896
33.881
33.864
33.846
33.828
33.808
33.788
33.769
33.751
33.735
33.72
33.707
33.695
33.685
33.675
33.666
33.659
33.654
33.652
33.651
33.654
33.661
33.672
33.689
33.714
33.748
33.793
33.851
33.924
34.014
34.122
34.246
34.389
34.549
34.724
34.912
35.11
35.316
35.527
35.74
35.952
36.161
36.366
36.562
36.747
36.921
37.08
37.223
37.351
37.462
37.554
37.629
37.686
37.724
37.745
37.747
37.732
37.701
37.655
37.595
37.524
37.442
37.353
37.257
37.157
37.054
36.95
36.845
36.742
36.641
36.543
36.449
36.36
36.276
36.197
36.124
36.055
35.99
35.93
35.874
35.822
35.772
35.724
35.68
35.638
35.599
35.564
35.532
35.504
35.48
35.459
35.442
35.429
35.419
35.413
35.41
35.409
35.412
35.417
35.426
35.438
35.453
35.472
35.495
35.521
35.549
35.58
35.612
35.645
35.677
35.708
35.738
35.765
35.788
35.807
35.821
35.83
35.834
35.832
35.823
35.807
35.784
35.755
35.719
35.678
35.631
35.58
35.525
35.466
35.403
35.339
35.273
35.206
35.14
35.074
35.009
34.947
34.887
34.83
34.777
34.727
34.68
34.637
34.597
34.561
34.529
34.5
34.472
34.446
34.42
34.394
34.367
34.338
34.305
34.269
34.231
34.191
34.15
34.108
34.066
34.026
33.986
33.949
33.915
33.883
33.853
33.826
33.802
33.781
33.764
33.752
33.744
33.74
33.74
33.744
33.751
33.761
33.772
33.785
33.799
33.813
33.826
33.839
33.851
33.861
33.868
33.873
33.874
33.872
33.866
33.856
33.843
33.827
33.808
33.788
33.765
33.742
33.718
33.695
33.67
33.646
33.623
33.6
33.578
33.558
33.541
33.527
33.516
33.509
33.508
33.512
33.523
33.544
33.576
33.621
33.681
33.758
33.854
33.968
34.102
34.255
34.427
34.616
34.821
35.039
35.267
35.503
35.741
35.979
36.214
36.443
36.662
36.87
37.064
37.242
37.404
37.549
37.675
37.784
37.874
37.945
37.998
38.034
38.054
38.058
38.048
38.025
37.989
37.942
37.883
37.815
37.739
37.656
37.567
37.474
37.378
37.28
37.181
37.082
36.984
36.888
36.794
36.704
36.617
36.535
36.458
36.385
36.318
36.257
36.199
36.147
36.098
36.053
36.012
35.975
35.942
35.912
35.888
35.867
35.85
35.837
35.828
35.82
35.815
35.813
35.812
35.813
35.817
35.822
35.828
35.835
35.844
35.855
35.867
35.879
35.893
35.906
35.919
35.932
35.945
35.957
35.969
35.98
35.989
35.997
36.002
36.004
36.004
36.0
35.992
35.979
35.961
35.938
35.909
35.874
35.832
35.784
35.731
35.671
35.608
35.541
35.471
35.399
35.326
35.253
35.18
35.109
35.039
34.97
34.904
34.841
34.781
34.726
34.675
34.628
34.587
34.548
34.514
34.482
34.453
34.428
34.404
34.382
34.361
34.34
34.32
34.298
34.274
34.249
34.222
34.193
34.162
34.13
34.098
34.066
34.033
34.001
33.969
33.938
33.908
33.88
33.853
33.829
33.808
33.791
33.778
33.77
33.767
33.769
33.773
33.779
33.788
33.797
33.809
33.82
33.833
33.844
33.855
33.865
33.874
33.881
33.886
33.888
33.887
33.882
33.874
33.862
33.846
33.827
33.804
33.777
33.749
33.718
33.687
33.655
33.622
33.589
33.557
33.526
33.497
33.473
33.453
33.438
33.43
33.43
33.438
33.456
33.488
33.535
33.6
33.684
33.789
33.917
34.066
34.239
34.432
34.644
34.872
35.114
35.366
35.625
35.886
36.147
36.403
36.65
36.886
37.107
37.312
37.499
37.666
37.812
37.937
38.041
38.124
38.187
38.231
38.257
38.266
38.261
38.241
38.209
38.165
38.112
38.049
37.979
37.901
37.817
37.727
37.633
37.535
37.435
37.335
37.234
37.135
37.037
36.941
36.849
36.76
36.676
36.596
36.521
36.451
36.387
36.327
36.273
36.223
36.177
36.135
36.096
36.062
36.032
36.006
35.983
35.964
35.948
35.935
35.926
35.92
35.915
35.912
35.911
35.912
35.913
35.916
35.919
35.924
35.93
35.937
35.947
35.957
35.969
35.981
35.994
36.008
36.022
36.035
36.049
36.061
36.071
36.078
36.082
36.083
36.081
36.075
36.065
36.048
36.026
35.999
35.965
35.924
35.878
35.826
35.769
35.708
35.644
35.577
35.508
35.438
35.366
35.294
35.221
35.149
35.076
35.005
34.934
34.866
34.801
34.739
34.682
34.629
34.581
34.536
34.495
34.457
34.423
34.391
34.361
34.332
34.304
34.278
34.251
34.224
34.198
34.17
34.141
34.111
34.08
34.049
34.016
33.983
33.95
33.916
33.883
33.852
33.821
33.792
33.765
33.74
33.717
33.698
33.682
33.67
33.662
33.658
33.658
33.661
33.667
33.676
33.687
33.699
33.712
33.725
33.736
33.746
33.753
33.757
33.758
33.755
33.749
33.74
33.728
33.713
33.696
33.676
33.655
33.632
33.608
33.583
33.558
33.533
33.508
33.483
33.458
33.434
33.411
33.389
33.37
33.352
33.336
33.32
33.306
33.292
33.279
33.267
33.255
33.243
33.229
33.215
33.2
33.185
33.171
33.159
33.15
33.147
33.153
33.17
33.201
33.248
33.315
33.403
33.514
33.649
33.807
33.99
34.194
34.419
34.662
34.921
35.192
35.472
35.757
36.042
36.324
36.598
36.863
37.113
37.348
37.563
37.757
37.927
38.072
38.192
38.285
38.352
38.395
38.413
38.411
38.388
38.348
38.291
38.22
38.136
38.041
37.938
37.828
37.714
37.596
37.478
37.36
37.245
37.134
37.028
36.927
36.833
36.747
36.667
36.595
36.529
36.467
36.409
36.353
36.299
36.246
36.193
36.14
36.087
36.033
35.98
35.928
35.877
35.829
35.783
35.742
35.705
35.673
35.647
35.627
35.613
35.606
35.605
35.611
35.623
35.641
35.665
35.692
35.723
35.757
35.792
35.829
35.865
35.901
35.936
35.968
35.997
36.023
36.043
36.058
36.068
36.071
36.068
36.058
36.041
36.017
35.987
35.949
35.905
35.855
35.799
35.737
35.671
35.602
35.531
35.461
35.391
35.323
35.258
35.194
35.133
35.073
35.016
34.961
34.906
34.853
34.799
34.747
34.695
34.643
34.591
34.54
34.489
34.438
34.388
34.338
34.288
34.239
34.19
34.142
34.093
34.046
34.0
33.956
33.913
33.873
33.835
33.799
33.767
33.739
33.715
33.695
33.678
33.664
33.653
33.644
33.638
33.635
33.633
33.631
33.63
33.628
33.627
33.624
33.62
33.615
33.609
33.602
33.593
33.584
33.573
33.562
33.549
33.535
33.521
33.506
33.493
33.48
33.468
33.457
33.448
33.439
33.431
33.424
33.418
33.413
33.409
33.405
33.403
33.401
33.401
33.401
33.401
33.4
33.398
33.395
33.39
33.384
33.376
33.367
33.356
33.343
33.33
33.316
33.303
33.293
33.286
33.285
33.293
33.312
33.346
33.398
33.469
33.561
33.675
33.811
33.969
34.151
34.352
34.573
34.808
35.057
35.315
35.579
35.845
36.109
36.368
36.618
36.854
37.074
37.276
37.455
37.611
37.743
37.849
37.93
37.987
38.019
38.029
38.017
37.986
37.937
37.873
37.796
37.709
37.614
37.513
37.408
37.302
37.195
37.089
36.984
36.881
36.782
36.687
36.597
36.511
36.43
36.352
36.277
36.204
36.131
36.059
35.986
35.912
35.837
35.76
35.683
35.605
35.528
35.451
35.378
35.31
35.249
35.195
35.15
35.114
35.089
35.075
35.071
35.079
35.095
35.12
35.154
35.195
35.243
35.295
35.353
35.413
35.475
35.537
35.596
35.652
35.702
35.747
35.786
35.817
35.842
35.86
35.87
35.874
35.87
35.858
35.84
35.816
35.786
35.751
35.712
35.668
35.622
35.573
35.524
35.473
35.423
35.372
35.321
35.27
35.22
35.172
35.124
35.077
35.031
34.984
34.938
34.89
34.842
34.792
34.742
34.69
34.637
34.584
34.53
34.475
34.421
34.368
34.316
34.266
34.217
34.17
34.125
34.082
34.04
34.001
33.965
33.933
33.902
33.875
33.851
33.829
33.811
33.797
33.785
33.777
33.772
33.77
33.768
33.768
33.769
33.769
33.769
33.768
33.765
33.761
33.755
33.747
33.738
33.726
33.712
33.696
33.678
33.66
33.641
33.623
33.605
33.588
33.573
33.559
33.547
33.539
33.534
33.533
33.536
33.545
33.561
33.585
33.619
33.664
33.722
33.794
33.882
33.987
34.11
34.251
34.41
34.586
34.777
34.983
35.2
35.426
35.658
35.893
36.127
36.358
36.581
36.795
36.995
37.181
37.35
37.503
37.637
37.752
37.848
37.924
37.98
38.018
38.039
38.043
38.032
38.007
37.969
37.918
37.857
37.785
37.704
37.614
37.517
37.414
37.305
37.193
37.078
36.962
36.846
36.73
36.615
36.501
36.391
36.282
36.177
36.076
35.979
35.887
35.8
35.718
35.642
35.572
35.507
35.448
35.397
35.353
35.316
35.286
35.263
35.247
35.239
35.237
35.241
35.251
35.267
35.286
35.31
35.337
35.368
35.4
35.435
35.47
35.505
35.541
35.576
35.61
35.644
35.677
35.708
35.739
35.768
35.795
35.82
35.843
35.861
35.876
35.887
35.893
35.894
35.89
35.88
35.865
35.846
35.82
35.789
35.753
35.71
35.663
35.611
35.555
35.496
35.433
35.367
35.299
35.228
35.156
35.084
35.012
34.941
34.871
34.804
34.741
34.681
34.626
34.576
34.53
34.487
34.448
34.412
34.38
34.351
34.326
34.302
34.281
34.261
34.242
34.223
34.203
34.183
34.161
34.137
34.112
34.085
34.057
34.027
33.996
33.964
33.933
33.902
33.873
33.847
33.823
33.801
33.782
33.767
33.754
33.745
33.74
33.736
33.735
33.735
33.737
33.74
33.744
33.749
33.755
33.762
33.77
33.778
33.787
33.798
33.81
33.826
33.846
33.874
33.912
33.962
34.028
34.11
34.211
34.333
34.476
34.642
34.829
35.034
35.257
35.494
35.743
36.001
36.263
36.526
36.787
37.042
37.288
37.521
37.738
37.936
38.113
38.267
38.399
38.508
38.592
38.651
38.687
38.7
38.692
38.665
38.62
38.557
38.481
38.392
38.293
38.187
38.075
37.958
37.838
37.717
37.597
37.478
37.362
37.251
37.144
37.042
36.946
36.855
36.771
36.692
36.619
36.549
36.484
36.421
36.361
36.301
36.243
36.186
36.129
36.074
36.021
35.971
35.925
35.882
35.843
35.81
35.782
35.761
35.746
35.738
35.737
35.742
35.754
35.773
35.799
35.829
35.865
35.904
35.946
35.991
36.038
36.085
36.132
36.177
36.219
36.257
36.29
36.316
36.336
36.348
36.352
36.348
36.337
36.318
36.29
36.255
36.213
36.163
36.108
36.048
35.985
35.92
35.853
35.786
35.719
35.652
35.587
35.524
35.463
35.403
35.345
35.289
35.236
35.184
35.134
35.085
35.037
34.99
34.942
34.895
34.847
34.799
34.75
34.7
34.65
34.6
34.55
34.499
34.449
34.4
34.353
34.307
34.264
34.223
34.184
34.148
34.115
34.085
34.06
34.038
34.021
34.007
33.997
33.991
33.99
33.993
33.998
34.004
34.011
34.016
34.021
34.024
34.024
34.022
34.016
34.008
33.996
33.982
33.965
33.947
33.927
33.907
33.885
33.864
33.843
33.825
33.809
33.796
33.789
33.789
33.797
33.818
33.852
33.903
33.972
34.061
34.171
34.303
34.459
34.639
34.841
35.066
35.309
35.567
35.837
36.115
36.395
36.673
36.944
37.206
37.453
37.684
37.896
38.086
38.255
38.399
38.521
38.618
38.694
38.748
38.781
38.797
38.795
38.778
38.748
38.706
38.653
38.591
38.522
38.448
38.368
38.284
38.196
38.106
38.014
37.921
37.829
37.736
37.644
37.554
37.465
37.379
37.295
37.213
37.133
37.055
36.98
36.906
36.835
36.766
36.698
36.634
36.573
36.516
36.465
36.419
36.38
36.348
36.323
36.306
36.296
36.293
36.296
36.305
36.317
36.333
36.35
36.369
36.386
36.403
36.419
36.433
36.445
36.454
36.462
36.467
36.47
36.471
36.47
36.466
36.46
36.451
36.44
36.428
36.414
36.398
36.379
36.356
36.331
36.302
36.269
36.234
36.194
36.15
36.103
36.051
35.997
35.94
35.88
35.818
35.754
35.688
35.62
35.551
35.48
35.409
35.337
35.266
35.196
35.129
35.063
35.0
34.939
34.88
34.824
34.77
34.72
34.673
34.629
34.587
34.55
34.515
34.484
34.456
34.43
34.406
34.384
34.363
34.343
34.324
34.306
34.287
34.269
34.25
34.231
34.211
34.192
34.173
34.153
34.134
34.114
34.095
34.076
34.059
34.043
34.027
34.012
33.997
33.984
33.972
33.961
33.951
33.942
33.934
33.927
33.919
33.913
33.906
33.899
33.891
33.882
33.871
33.859
33.846
33.831
33.814
33.796
33.778
33.761
33.746
33.735
33.73
33.733
33.745
33.77
33.809
33.866
33.944
34.043
34.165
34.311
34.48
34.672
34.886
35.119
35.368
35.63
35.901
36.176
36.451
36.723
36.987
37.238
37.474
37.693
37.891
38.067
38.218
38.344
38.444
38.519
38.569
38.595
38.6
38.584
38.55
38.5
38.436
38.361
38.276
38.183
38.084
37.983
37.881
37.781
37.685
37.593
37.506
37.425
37.351
37.284
37.222
37.166
37.114
37.066
37.02
36.975
36.929
36.882
36.833
36.783
36.731
36.677
36.622
36.567
36.51
36.454
36.399
36.348
36.3
36.257
36.219
36.189
36.166
36.151
36.144
36.145
36.152
36.165
36.183
36.206
36.233
36.263
36.294
36.325
36.355
36.383
36.408
36.43
36.446
36.457
36.461
36.46
36.452
36.439
36.42
36.396
36.365
36.329
36.287
36.241
36.19
36.135
36.077
36.017
35.955
35.893
35.832
35.77
35.709
35.649
35.59
35.533
35.478
35.426
35.374
35.323
35.273
35.222
35.172
35.121
35.068
35.014
34.958
34.901
34.844
34.785
34.727
34.668
34.609
34.55
34.493
34.438
34.386
34.337
34.291
34.249
34.211
34.179
34.151
34.13
34.113
34.101
34.092
34.087
34.086
34.087
34.09
34.095
34.101
34.106
34.111
34.115
34.117
34.118
34.117
34.114
34.108
34.101
34.093
34.083
34.071
34.058
34.044
34.03
34.014
33.999
33.984
33.968
33.951
33.935
33.918
33.901
33.883
33.867
33.85
33.834
33.818
33.803
33.788
33.775
33.765
33.759
33.757
33.762
33.775
33.798
33.833
33.884
33.951
34.037
34.143
34.271
34.42
34.59
34.778
34.983
35.203
35.434
35.674
35.919
36.165
36.409
36.648
36.879
37.1
37.308
37.501
37.679
37.838
37.979
38.1
38.201
38.281
38.341
38.381
38.402
38.406
38.394
38.367
38.327
38.274
38.211
38.138
38.057
37.969
37.875
37.778
37.679
37.579
37.48
37.381
37.284
37.19
37.1
37.014
36.934
36.858
36.786
36.719
36.654
36.591
36.532
36.474
36.418
36.364
36.311
36.26
36.21
36.163
36.118
36.076
36.038
36.005
35.978
35.958
35.943
35.935
35.931
35.934
35.942
35.955
35.973
35.993
36.016
36.041
36.067
36.095
36.125
36.155
36.185
36.215
36.242
36.266
36.288
36.305
36.317
36.324
36.325
36.319
36.307
36.287
36.261
36.228
36.187
36.14
36.087
36.027
35.962
35.892
35.816
35.738
35.659
35.578
35.499
35.42
35.343
35.27
35.199
35.133
