Trial 1:0back
32.646
32.629
32.614
32.599
32.585
32.571
32.556
32.54
32.523
32.505
32.488
32.469
32.447
32.422
32.395
32.366
32.337
32.307
32.279
32.252
32.226
32.201
32.176
32.15
32.122
32.092
32.056
32.016
31.971
31.922
31.87
31.817
31.763
31.71
31.659
31.61
31.566
31.525
31.488
31.454
31.425
31.402
31.387
31.384
31.396
31.427
31.481
31.564
31.68
31.834
32.028
32.266
32.551
32.882
33.258
33.678
34.135
34.623
35.134
35.66
36.19
36.716
37.23
37.724
38.19
38.625
39.024
39.385
39.705
39.984
40.221
40.416
40.572
40.69
40.772
40.822
40.844
40.84
40.816
40.772
40.714
40.643
40.562
40.471
40.374
40.27
40.163
40.054
39.942
39.83
39.717
39.604
39.49
39.376
39.259
39.14
39.017
38.891
38.76
38.625
38.487
38.345
38.199
38.05
37.898
37.743
37.586
37.428
37.27
37.114
36.962
36.817
36.68
36.554
36.441
36.341
36.253
36.179
36.118
36.068
36.03
36.001
35.983
35.975
35.976
35.987
36.007
36.035
36.068
36.106
36.146
36.186
36.222
36.254
36.282
36.307
36.328
36.347
36.362
36.372
36.376
36.372
36.36
36.34
36.312
36.276
36.234
36.186
36.132
36.074
36.012
35.946
35.877
35.803
35.724
35.641
35.552
35.458
35.361
35.261
35.159
35.056
34.954
34.852
34.751
34.652
34.554
34.457
34.361
34.265
34.171
34.078
33.988
33.901
33.817
33.737
33.661
33.589
33.521
33.456
33.394
33.335
33.277
33.22
33.165
33.112
33.061
33.014
32.97
32.931
32.897
32.867
32.841
32.82
32.801
32.786
32.771
32.758
32.746
32.737
32.729
32.722
32.716
32.71
32.705
32.701
32.696
32.692
32.688
32.684
32.679
32.674
32.669
32.663
32.657
32.649
32.639
32.627
32.611
32.591
32.566
32.537
32.503
32.467
32.427
32.383
32.337
32.288
32.236
32.182
32.126
32.068
32.01
31.951
31.894
31.837
31.783
31.731
31.681
31.634
31.589
31.549
31.515
31.49
31.476
31.477
31.497
31.542
31.617
31.727
31.878
32.071
32.311
32.597
32.929
33.303
33.714
34.159
34.631
35.123
35.629
36.139
36.647
37.144
37.623
38.076
38.498
38.884
39.232
39.538
39.803
40.025
40.208
40.352
40.46
40.534
40.579
40.596
40.589
40.561
40.514
40.451
40.376
40.293
40.202
40.105
40.005
39.901
39.794
39.685
39.572
39.455
39.334
39.207
39.076
38.94
38.8
38.657
38.509
38.358
38.203
38.043
37.878
37.708
37.534
37.356
37.176
36.997
36.821
36.651
36.488
36.334
36.19
36.056
35.933
35.822
35.724
35.64
35.57
35.516
35.477
35.453
35.443
35.447
35.462
35.488
35.522
35.562
35.606
35.654
35.703
35.752
35.802
35.852
35.901
35.947
35.99
36.028
36.061
36.086
36.103
36.111
36.111
36.103
36.087
36.065
36.036
36.0
35.957
35.908
35.853
35.791
35.721
35.642
35.557
35.465
35.369
35.27
35.169
35.068
34.969
34.874
34.783
34.696
34.611
34.526
34.442
34.355
34.265
34.171
34.073
33.97
33.862
33.751
33.639
33.526
33.415
33.307
33.205
33.11
33.023
32.946
32.877
32.818
32.767
32.723
32.685
32.651
32.621
32.593
32.566
32.54
32.516
32.492
32.469
32.445
32.423
32.4
32.379
32.357
32.337
32.317
32.298
32.28
32.263
32.249
32.237
32.227
32.22
32.215
32.211
32.208
32.204
32.199
32.191
32.181
32.169
32.154
32.139
32.123
32.108
32.092
32.077
32.061
32.044
32.025
32.003
31.978
31.95
31.918
31.882
31.844
31.804
31.763
31.72
31.677
31.632
31.587
31.54
31.493
31.445
31.398
31.354
31.316
31.286
31.271
31.273
31.296
31.346
31.426
31.54
31.694
31.889
32.128
32.414
32.746
33.125
33.548
34.01
34.507
35.03
35.573
36.125
36.676
37.217
37.74
38.236
38.7
39.127
39.512
39.855
40.153
40.408
40.62
40.791
40.924
41.02
41.085
41.12
41.131
41.122
41.094
41.051
40.993
40.922
40.841
40.75
40.651
40.547
40.438
40.325
40.21
40.092
39.972
39.851
39.728
39.603
39.475
39.343
39.208
39.068
38.924
38.777
38.627
38.475
38.32
38.162
38.002
37.838
37.672
37.504
37.337
37.171
37.009
36.854
36.708
36.573
36.449
36.337
36.238
36.152
36.079
36.018
35.969
35.932
35.907
35.895
35.893
35.903
35.921
35.948
35.98
36.016
36.053
36.089
36.123
36.153
36.178
36.199
36.216
36.228
36.236
36.239
36.237
36.228
36.214
36.194
36.168
36.137
36.1
36.058
36.011
35.959
35.902
35.84
35.774
35.701
35.623
35.54
35.451
35.357
35.259
35.158
35.054
34.949
34.844
34.74
34.637
34.535
34.434
34.334
34.235
34.139
34.044
33.951
33.86
33.772
33.686
33.603
33.522
33.444
33.368
33.294
33.221
33.149
33.079
33.011
32.946
32.884
32.826
32.772
32.722
32.676
32.634
32.593
32.554
32.515
32.477
32.44
32.404
32.37
32.338
32.309
32.283
32.259
32.237
32.216
32.196
32.176
32.157
32.139
32.122
32.107
32.093
32.08
32.068
32.058
32.048
32.038
32.03
32.021
32.012
32.003
31.993
31.984
31.974
31.963
31.95
31.935
31.919
31.902
31.883
31.863
31.838
31.809
31.774
31.734
31.689
31.639
31.586
31.531
31.474
31.417
31.361
31.306
31.253
31.203
31.16
31.125
31.103
31.095
31.108
31.145
31.212
31.314
31.455
31.64
31.873
32.155
32.488
32.87
33.298
33.768
34.275
34.811
35.368
35.937
36.507
37.068
37.609
38.121
38.596
39.027
39.411
39.748
40.04
40.287
40.494
40.661
40.792
40.889
40.955
40.992
41.004
40.993
40.963
40.917
40.857
40.786
40.704
40.615
40.517
40.413
40.301
40.182
40.056
39.923
39.785
39.643
39.499
39.355
39.212
39.069
38.925
38.776
38.625
38.469
38.309
38.144
37.976
37.807
37.64
37.476
37.318
37.164
37.014
36.868
36.726
36.586
36.451
36.32
36.195
36.079
35.972
35.877
35.795
35.727
35.673
35.633
35.606
35.591
35.587
35.592
35.607
35.628
35.654
35.685
35.72
35.755
35.791
35.824
35.855
35.883
35.905
35.923
35.934
35.94
35.94
35.935
35.924
35.906
35.883
35.853
35.816
35.771
35.719
35.66
35.594
35.522
35.446
35.365
35.28
35.192
35.102
35.009
34.913
34.815
34.716
34.616
34.516
34.415
34.315
34.215
34.115
34.016
33.916
33.816
33.716
33.615
33.514
33.413
33.314
33.216
33.121
33.03
32.941
32.857
32.775
32.698
32.623
32.551
32.482
32.418
32.357
32.301
32.249
32.201
32.156
32.114
32.076
32.04
32.006
31.973
31.942
31.911
31.88
31.85
31.82
31.791
31.764
31.738
31.714
31.692
31.672
31.654
31.637
31.621
31.606
31.593
31.58
31.569
31.56
31.553
31.547
31.542
31.536
31.53
31.522
31.512
31.499
31.482
31.462
31.439
31.415
31.39
31.365
31.339
31.313
31.285
31.256
31.223
31.185
31.143
31.098
31.049
30.998
30.946
30.892
30.839
30.785
30.732
30.681
30.631
30.584
30.539
30.499
30.467
30.447
30.443
30.462
30.507
30.585
30.7
30.859
31.065
31.322
31.631
31.993
32.407
32.869
33.375
33.917
34.487
35.076
35.673
36.268
36.851
37.412
37.944
38.438
38.889
39.294
39.65
39.956
40.213
40.422
40.586
40.709
40.793
40.844
40.864
40.858
40.83
40.783
40.72
40.642
40.552
40.453
40.347
40.234
40.115
39.99
39.859
39.723
39.582
39.436
39.287
39.135
38.979
38.819
38.656
38.488
38.316
38.138
37.956
37.77
37.581
37.389
37.196
37.004
36.813
36.625
36.44
36.26
36.085
35.917
35.758
35.61
35.475
35.355
35.251
35.166
35.1
35.054
35.026
35.017
35.025
35.048
35.084
35.131
35.187
35.25
35.317
35.387
35.458
35.53
35.6
35.668
35.732
35.79
35.844
35.89
35.929
35.962
35.987
36.007
36.021
36.03
36.033
36.029
36.016
35.995
35.963
35.922
35.871
35.811
35.743
35.668
35.587
35.499
35.406
35.308
35.203
35.092
34.976
34.855
34.729
34.601
34.473
34.346
34.222
34.103
33.988
33.878
33.774
33.674
33.578
33.486
33.397
33.312
33.23
33.152
33.078
33.008
32.941
32.879
32.821
32.768
32.717
32.669
32.623
32.577
32.533
32.491
32.45
32.41
32.373
32.338
32.305
32.274
32.245
32.219
32.194
32.172
32.151
32.132
32.116
32.103
32.091
32.08
32.07
32.06
32.05
32.039
32.029
32.019
32.011
32.005
32.0
31.997
31.996
31.995
31.994
31.993
31.99
31.984
31.976
31.964
31.949
31.93
31.91
31.886
31.86
31.831
31.799
31.764
31.724
31.681
31.634
31.583
31.531
31.476
31.422
31.369
31.318
31.27
31.226
31.188
31.156
31.134
31.124
31.13
31.156
31.208
31.291
31.411
31.574
31.785
32.047
32.362
32.73
33.147
33.609
34.109
34.639
35.19
35.753
36.319
36.878
37.421
37.939
38.425
38.871
39.274
39.63
39.937
40.197
40.41
40.58
40.711
40.807
40.871
40.908
40.919
40.907
40.875
40.824
40.758
40.676
40.583
40.479
40.366
40.244
40.115
39.979
39.837
39.687
39.532
39.37
39.201
39.027
38.848
38.666
38.48
38.292
38.1
37.906
37.709
37.509
37.308
37.105
36.901
36.699
36.5
36.305
36.116
35.936
35.764
35.603
35.453
35.314
35.19
35.08
34.986
34.909
34.85
34.809
34.787
34.784
34.8
34.832
34.878
34.936
35.002
35.075
35.153
35.234
35.318
35.403
35.487
35.569
35.647
35.72
35.786
35.842
35.888
35.924
35.95
35.97
35.98
35.978
35.963
35.936
35.897
35.848
35.79
35.724
35.651
35.573
35.491
35.404
35.314
35.222
35.129
35.036
34.943
34.85
34.757
34.662
34.565
34.466
34.364
34.259
34.152
34.044
33.934
33.825
33.717
33.611
33.507
33.404
33.305
33.209
33.116
33.026
32.94
32.857
32.778
32.704
32.633
32.566
32.503
32.445
32.389
32.338
32.291
32.248
32.207
32.169
32.133
32.098
32.066
32.037
32.009
31.985
31.964
31.946
31.93
31.916
31.902
31.888
31.875
31.863
31.852
31.841
31.832
31.822
31.814
31.807
31.801
31.797
31.794
31.791
31.789
31.786
31.784
31.781
31.777
31.772
31.763
31.751
31.734
31.714
31.69
31.662
31.634
31.605
31.577
31.55
31.522
31.492
31.459
31.423
31.384
31.343
31.3
31.257
31.216
31.179
31.151
31.135
31.135
31.155
31.198
31.27
31.375
31.517
31.701
31.93
32.209
32.54
32.923
33.358
33.841
34.366
34.925
35.51
36.11
36.714
37.31
37.888
38.439
38.955
39.428
39.855
40.233
40.559
40.834
41.059
41.237
41.369
41.459
41.512
41.532
41.525
41.494
41.442
41.372
41.287
41.19
41.083
40.968
40.847
40.722
40.593
40.462
40.329
40.194
40.056
39.915
39.77
39.621
39.468
39.31
39.149
38.984
38.815
38.644
38.469
38.29
38.109
37.925
37.74
37.553
37.367
37.181
36.998
36.821
36.651
36.489
36.338
36.2
36.078
35.971
35.88
35.807
35.75
35.709
35.683
35.671
35.67
35.681
35.703
35.734
35.775
35.823
35.877
35.934
35.992
36.05
36.105
36.158
36.208
36.255
36.299
36.339
36.373
36.402
36.424
36.437
36.442
36.436
36.42
36.393
36.356
36.31
36.255
36.193
36.124
36.05
35.971
35.887
35.799
35.708
35.612
35.513
35.412
35.309
35.204
35.097
34.989
34.88
34.77
34.659
34.548
34.437
34.327
34.22
34.114
34.012
33.914
33.82
33.729
33.642
33.558
33.474
33.389
33.304
33.22
33.137
33.057
32.981
32.91
32.845
32.786
32.734
32.687
32.644
32.605
32.566
32.529
32.49
32.452
32.413
32.374
32.337
32.303
32.272
32.245
32.222
32.202
32.184
32.167
32.151
32.136
32.121
32.107
32.095
32.084
32.076
32.069
32.064
32.059
32.053
32.047
32.038
32.028
32.018
32.01
32.002
31.994
31.986
31.977
31.968
31.956
31.942
31.925
31.904
31.878
31.849
31.816
31.781
31.744
31.705
31.663
31.618
31.573
31.527
31.485
31.447
31.418
31.4
31.398
31.414
31.454
31.525
31.63
31.775
31.965
32.205
32.498
32.843
33.239
33.682
34.168
34.692
35.246
35.82
36.404
36.987
37.559
38.109
38.628
39.109
39.546
39.937
40.277
40.568
40.808
41.0
41.145
41.248
41.311
41.339
41.337
41.308
41.259
41.192
41.112
41.022
40.926
40.826
40.722
40.615
40.503
40.385
40.261
40.13
39.991
39.846
39.694
39.537
39.376
39.212
39.046
38.877
38.705
38.531
38.354
38.172
37.987
37.799
37.61
37.42
37.231
37.044
36.858
36.676
36.497
36.325
36.161
36.007
35.865
35.736
35.622
35.526
35.447
35.386
35.343
35.319
35.312
35.322
35.346
35.384
35.432
35.487
35.546
35.608
35.672
35.736
35.799
35.858
35.914
35.965
36.01
36.048
36.078
36.102
36.118
36.126
36.124
36.114
36.095
36.069
36.035
35.994
35.946
35.891
35.83
35.763
35.69
35.613
35.532
35.448
35.361
35.271
35.178
35.083
34.985
34.885
34.782
34.676
34.569
34.46
34.35
34.241
34.132
34.024
33.917
33.811
33.707
33.606
33.509
33.415
33.324
33.236
33.15
33.067
32.985
32.904
32.825
32.747
32.672
32.601
32.534
32.472
32.415
32.362
32.312
32.264
32.22
32.18
32.147
32.123
32.106
32.097
32.092
32.091
32.092
32.093
32.093
32.092
32.09
32.085
32.078
32.068
32.056
32.041
32.024
32.005
31.985
31.966
31.948
31.933
31.92
31.91
31.902
31.895
31.89
31.883
31.875
31.865
31.853
31.838
31.821
31.801
31.78
31.757
31.732
31.704
31.673
31.638
31.599
31.556
31.508
31.456
31.402
31.346
31.289
31.233
31.179
31.127
31.078
31.034
30.996
30.967
30.95
30.95
30.973
31.023
31.105
31.224
31.387
31.597
31.86
32.176
32.546
32.966
33.435
33.946
34.493
35.067
35.659
36.258
36.853
37.434
37.989
38.51
38.99
39.424
39.809
40.143
40.425
40.657
40.842
40.982
41.082
41.144
41.171
41.168
41.137
41.083
41.01
40.922
40.822
40.715
40.602
40.484
40.363
40.237
40.107
39.972
39.832
39.687
39.536
39.378
39.213
39.041
38.861
38.673
38.477
38.275
38.066
37.853
37.637
37.42
37.204
36.992
36.785
36.586
36.396
36.215
36.043
35.881
35.73
35.589
35.46
35.344
35.242
35.156
35.088
35.037
35.005
34.991
34.996
35.018
35.055
35.107
35.172
35.248
35.334
35.428
35.526
35.629
35.731
35.832
35.93
36.02
36.103
36.176
36.239
36.29
36.33
36.359
36.377
36.384
36.381
36.367
36.343
36.309
36.264
36.211
36.148
36.077
35.998
35.914
35.824
35.73
35.633
35.532
35.428
35.322
35.213
35.102
34.989
34.877
34.765
34.655
34.548
34.442
34.339
34.238
34.139
34.041
33.943
33.847
33.751
33.657
33.564
33.472
33.381
33.292
33.205
33.12
33.04
32.964
32.894
32.83
32.771
32.718
32.67
32.627
32.59
32.557
32.53
32.507
32.489
32.476
32.467
32.463
32.465
32.47
32.477
32.486
32.495
32.504
32.511
32.516
32.518
32.517
32.511
32.5
32.486
32.468
32.448
32.427
32.404
32.382
32.36
32.338
32.315
32.293
32.27
32.246
32.221
32.195
32.168
32.14
32.111
32.08
32.049
32.016
31.982
31.947
31.913
31.883
31.859
31.842
31.835
31.839
31.857
31.894
31.952
32.039
32.159
32.317
32.516
32.76
33.048
33.381
33.758
34.175
34.628
35.111
35.619
36.142
36.671
37.197
37.709
38.201
38.663
39.091
39.479
39.825
40.127
40.384
40.598
40.77
40.902
40.995
41.052
41.075
41.068
41.034
40.978
40.904
40.816
40.718
40.612
40.5
40.384
40.263
40.137
40.005
39.867
39.724
39.574
39.418
39.257
39.09
38.918
38.74
38.556
38.366
38.171
37.971
37.766
37.558
37.348
37.137
36.926
36.719
36.515
36.316
36.124
35.941
35.767
35.606
35.459
35.327
35.213
35.117
35.042
34.988
34.957
34.95
34.964
34.998
35.049
35.114
35.191
35.276
35.369
35.467
35.568
35.67
35.77
35.866
35.957
36.038
36.109
36.166
36.21
36.242
36.263
36.273
36.275
36.27
36.259
36.244
36.223
36.195
36.159
36.113
36.06
35.998
35.93
35.857
35.781
35.703
35.623
35.541
35.456
35.369
35.28
35.187
35.091
34.993
34.894
34.794
34.694
34.593
34.492
34.388
34.283
34.176
34.068
33.959
33.85
33.743
33.639
33.54
33.447
33.36
33.28
33.206
33.137
33.074
33.014
32.959
32.907
32.858
32.814
32.774
32.739
32.708
32.681
32.657
32.634
32.612
32.59
32.567
32.542
32.516
32.488
32.459
32.431
32.402
32.375
32.349
32.325
32.304
32.286
32.271
32.259
32.25
32.244
32.241
32.239
32.24
32.241
32.244
32.246
32.247
32.246
32.243
32.237
32.23
32.22
32.209
32.195
32.18
32.163
32.144
32.124
32.102
32.075
32.046
32.013
31.978
31.944
31.912
31.888
31.876
31.881
31.909
31.965
32.055
32.184
32.355
32.573
32.841
33.159
33.529
33.946
34.402
34.889
35.401
35.93
36.469
37.01
37.546
38.068
38.571
39.047
39.494
39.904
40.276
40.605
40.89
41.131
41.329
41.484
41.6
41.679
41.724
41.739
41.726
41.69
41.635
41.564
41.48
41.386
41.285
41.177
41.062
40.943
40.818
40.689
40.556
40.419
40.278
40.134
39.986
39.835
39.68
39.52
39.356
39.187
39.014
38.838
38.659
38.48
38.3
38.12
37.942
37.766
37.593
37.423
37.259
37.102
36.953
36.814
36.687
36.574
36.475
36.391
36.322
36.27
36.233
36.211
36.204
36.211
36.23
36.261
36.302
36.351
36.406
36.464
36.524
36.583
36.639
36.69
36.737
36.779
36.814
36.843
36.865
36.882
36.893
36.898
36.896
36.888
36.872
36.848
36.816
36.776
36.729
36.676
36.617
36.553
36.483
36.409
36.331
36.248
36.16
36.069
35.973
35.874
35.773
35.67
35.565
35.458
35.349
35.239
35.129
35.019
34.91
34.803
34.699
34.597
34.499
34.404
34.314
34.228
34.147
34.07
33.997
33.926
33.858
33.791
33.725
33.662
33.601
33.543
33.488
33.437
33.389
33.346
33.306
33.269
33.235
33.204
33.177
33.152
33.129
33.11
33.092
33.077
33.063
33.05
33.036
33.023
33.01
32.998
32.986
32.976
32.966
32.958
32.951
32.945
32.941
32.939
32.938
32.936
32.933
32.928
32.921
32.91
32.897
32.881
32.863
32.844
32.823
32.8
32.775
32.747
32.716
32.682
32.645
32.605
32.563
32.52
32.475
32.429
32.383
32.337
32.291
32.246
32.204
32.167
32.137
32.117
32.11
32.119
32.151
32.21
32.302
32.431
32.604
32.822
33.09
33.409
33.776
34.19
34.643
35.13
35.643
36.172
36.707
37.24
37.761
38.262
38.735
39.175
39.577
39.938
40.257
40.532
40.763
40.952
41.101
41.214
41.293
41.342
41.364
41.363
41.342
41.303
41.251
41.187
41.114
41.032
40.944
40.849
40.748
40.64
40.525
40.403
40.274
40.14
40.0
39.856
39.708
39.558
39.406
39.252
39.096
38.938
38.779
38.618
38.457
38.294
38.132
37.969
37.808
37.648
37.49
37.335
37.184
37.037
36.896
36.762
36.639
36.528
36.43
36.349
36.283
36.235
36.204
36.189
36.19
36.205
36.232
36.269
36.313
36.362
36.413
36.466
36.519
36.569
36.617
36.659
36.696
36.726
36.75
36.767
36.778
36.784
36.783
36.777
36.766
36.75
36.727
36.699
36.665
36.623
36.575
36.518
36.454
36.382
36.303
36.218
36.127
36.032
35.934
35.834
35.732
35.628
35.523
35.417
35.312
35.211
35.113
35.02
34.932
34.847
34.764
34.684
34.605
34.525
34.445
34.365
34.285
34.205
34.126
34.05
33.975
33.902
33.832
33.762
33.695
33.628
33.562
33.497
33.436
33.379
33.327
33.279
33.236
33.198
33.164
33.134
33.108
33.086
33.067
33.05
33.036
33.024
33.013
33.005
33.0
32.996
32.992
32.989
32.984
32.977
32.97
32.961
32.95
32.938
32.925
32.911
32.896
32.881
32.865
32.849
32.833
32.817
32.801
32.785
32.768
32.751
32.733
32.713
32.693
32.672
32.649
32.624
32.597
32.567
32.534
32.498
32.46
32.419
32.375
32.329
32.282
32.234
32.184
32.135
32.087
32.041
31.997
31.956
31.92
31.889
31.867
31.855
31.859
31.882
31.93
32.007
32.119
32.269
32.462
32.7
32.986
33.319
33.699
34.121
34.581
35.072
35.585
36.112
36.642
37.167
37.676
38.163
38.618
39.038
39.417
39.753
40.044
40.291
40.494
40.655
40.775
40.858
40.908
40.929
40.924
40.899
40.855
40.796
40.723
40.639
40.544
40.44
40.328
40.208
40.081
39.95
39.815
39.678
39.539
39.398
39.255
39.109
38.961
38.81
38.657
38.499
38.338
38.174
38.007
37.837
37.665
37.492
37.319
37.145
36.972
36.802
36.635
36.473
36.319
36.175
36.044
35.928
35.828
35.746
35.683
35.639
35.613
35.606
35.616
35.641
35.681
35.732
35.794
35.863
35.938
36.015
36.092
36.167
36.237
36.302
36.359
36.409
36.452
36.487
36.516
36.538
36.555
36.566
36.571
36.57
36.561
36.547
36.526
