Trial 1:0back
34.733
34.851
34.985
35.133
35.294
35.466
35.645
35.828
36.012
36.193
36.368
36.532
36.685
36.822
36.943
37.046
37.131
37.197
37.245
37.275
37.288
37.287
37.272
37.245
37.21
37.168
37.12
37.068
37.014
36.959
36.904
36.851
36.801
36.753
36.709
36.668
36.632
36.6
36.57
36.544
36.52
36.498
36.478
36.459
36.443
36.427
36.412
36.397
36.381
36.364
36.347
36.328
36.308
36.286
36.263
36.239
36.213
36.186
36.158
36.131
36.103
36.077
36.054
36.033
36.016
36.003
35.994
35.99
35.99
35.995
36.004
36.017
36.034
36.055
36.078
36.102
36.128
36.154
36.18
36.206
36.229
36.251
36.271
36.288
36.301
36.312
36.318
36.32
36.318
36.311
36.301
36.286
36.266
36.242
36.214
36.181
36.145
36.105
36.063
36.018
35.972
35.926
35.881
35.838
35.796
35.757
35.721
35.687
35.655
35.625
35.597
35.57
35.544
35.519
35.495
35.472
35.45
35.429
35.409
35.389
35.369
35.35
35.331
35.313
35.295
35.278
35.262
35.246
35.231
35.215
35.2
35.184
35.168
35.153
35.137
35.123
35.109
35.096
35.085
35.073
35.063
35.052
35.041
35.03
35.019
35.007
34.995
34.983
34.969
34.955
34.942
34.928
34.914
34.9
34.887
34.874
34.862
34.849
34.837
34.826
34.815
34.805
34.796
34.787
34.778
34.769
34.759
34.748
34.736
34.723
34.709
34.695
34.68
34.666
34.652
34.639
34.626
34.614
34.602
34.591
34.58
34.568
34.557
34.545
34.533
34.521
34.508
34.494
34.48
34.465
34.45
34.434
34.419
34.404
34.391
34.377
34.365
34.354
34.342
34.331
34.32
34.309
34.297
34.285
34.273
34.26
34.246
34.232
34.217
34.203
34.189
34.175
34.161
34.149
34.136
34.124
34.113
34.103
34.093
34.083
34.073
34.062
34.05
34.038
34.026
34.014
34.002
33.992
33.985
33.981
33.982
33.99
34.006
34.032
34.071
34.125
34.194
34.281
34.385
34.506
34.643
34.795
34.96
35.136
35.318
35.504
35.69
35.873
36.048
36.213
36.365
36.502
36.623
36.726
36.811
36.878
36.927
36.959
36.975
36.976
36.963
36.937
36.9
36.853
36.799
36.74
36.676
36.611
36.546
36.481
36.418
36.357
36.299
36.243
36.191
36.142
36.095
36.052
36.013
35.978
35.947
35.92
35.897
35.877
35.86
35.845
35.83
35.815
35.8
35.784
35.765
35.744
35.72
35.694
35.666
35.636
35.605
35.574
35.545
35.517
35.493
35.473
35.458
35.447
35.442
35.442
35.448
35.459
35.475
35.497
35.524
35.555
35.589
35.626
35.664
35.703
35.741
35.777
35.812
35.845
35.873
35.897
35.916
35.929
35.934
35.933
35.926
35.913
35.896
35.874
35.849
35.821
35.79
35.757
35.722
35.685
35.648
35.609
35.571
35.532
35.493
35.455
35.417
35.379
35.341
35.303
35.266
35.229
35.194
35.159
35.126
35.094
35.063
35.033
35.006
34.98
34.957
34.935
34.915
34.896
34.878
34.861
34.844
34.829
34.814
34.799
34.785
34.77
34.756
34.741
34.725
34.71
34.694
34.679
34.664
34.651
34.638
34.626
34.616
34.608
34.602
34.597
34.595
34.594
34.594
34.595
34.595
34.595
34.593
34.59
34.585
34.579
34.57
34.56
34.548
34.535
34.522
34.509
34.498
34.488
34.479
34.471
34.464
34.457
34.45
34.442
34.435
34.427
34.418
34.409
34.398
34.387
34.375
34.361
34.347
34.332
34.317
34.302
34.287
34.273
34.259
34.245
34.232
34.22
34.208
34.196
34.184
34.172
34.161
34.149
34.137
34.125
34.113
34.102
34.091
34.08
34.069
34.058
34.047
34.035
34.024
34.014
34.004
33.994
33.986
33.977
33.968
33.959
33.949
33.939
33.928
33.916
33.904
33.891
33.877
33.862
33.848
33.833
33.819
33.806
33.794
33.783
33.774
33.768
33.765
33.768
33.777
33.794
33.821
33.86
33.912
33.979
34.062
34.161
34.277
34.408
34.554
34.71
34.875
35.045
35.217
35.389
35.557
35.718
35.87
36.01
36.136
36.246
36.338
36.412
36.467
36.505
36.526
36.531
36.522
36.499
36.466
36.423
36.373
36.316
36.256
36.192
36.128
36.063
35.999
35.937
35.877
35.82
35.767
35.718
35.673
35.632
35.596
35.565
35.537
35.514
35.494
35.477
35.462
35.448
35.435
35.421
35.406
35.39
35.372
35.352
35.329
35.304
35.277
35.248
35.218
35.188
35.158
35.13
35.105
35.083
35.065
35.052
35.044
35.042
35.045
35.054
35.068
35.087
35.11
35.136
35.165
35.196
35.229
35.263
35.296
35.329
35.36
35.388
35.413
35.434
35.452
35.465
35.474
35.479
35.478
35.472
35.461
35.445
35.424
35.399
35.371
35.34
35.307
35.271
35.233
35.193
35.152
35.11
35.068
35.025
34.983
34.942
34.902
34.863
34.826
34.791
34.758
34.727
34.7
34.675
34.653
34.632
34.614
34.597
34.581
34.567
34.553
34.541
34.528
34.517
34.505
34.494
34.483
34.472
34.46
34.448
34.437
34.426
34.415
34.405
34.396
34.388
34.38
34.373
34.367
34.363
34.358
34.355
34.351
34.348
34.345
34.342
34.338
34.334
34.329
34.324
34.318
34.312
34.306
34.299
34.292
34.285
34.279
34.273
34.268
34.263
34.259
34.255
34.251
34.247
34.243
34.239
34.235
34.229
34.223
34.216
34.207
34.197
34.186
34.174
34.161
34.149
34.135
34.122
34.109
34.096
34.083
34.071
34.059
34.048
34.036
34.025
34.013
34.002
33.99
33.979
33.968
33.957
33.947
33.937
33.928
33.919
33.91
33.901
33.893
33.884
33.875
33.866
33.856
33.848
33.839
33.831
33.822
33.813
33.803
33.793
33.782
33.771
33.758
33.746
33.734
33.722
33.711
33.699
33.689
33.679
33.67
33.662
33.654
33.647
33.64
33.634
33.628
33.623
33.618
33.614
33.611
33.612
33.615
33.623
33.637
33.658
33.689
33.732
33.788
33.859
33.947
34.053
34.175
34.313
34.464
34.627
34.798
34.973
35.15
35.326
35.495
35.657
35.807
35.944
36.064
36.166
36.249
36.313
36.358
36.385
36.394
36.388
36.368
36.336
36.294
36.243
36.187
36.126
36.063
35.998
35.934
35.871
35.81
35.753
35.7
35.65
35.604
35.562
35.524
35.489
35.458
35.43
35.404
35.381
35.36
35.342
35.325
35.309
35.294
35.279
35.265
35.251
35.235
35.219
35.201
35.18
35.158
35.133
35.107
35.08
35.053
35.026
35.0
34.977
34.958
34.942
34.93
34.924
34.921
34.924
34.93
34.942
34.957
34.976
34.998
35.023
35.052
35.082
35.115
35.148
35.181
35.212
35.242
35.269
35.293
35.313
35.329
35.34
35.345
35.345
35.34
35.329
35.313
35.293
35.269
35.241
35.211
35.18
35.148
35.116
35.084
35.052
35.02
34.989
34.958
34.928
34.898
34.869
34.84
34.811
34.783
34.755
34.729
34.704
34.68
34.657
34.635
34.615
34.596
34.579
34.563
34.548
34.534
34.522
34.511
34.5
34.49
34.48
34.47
34.46
34.448
34.436
34.423
34.41
34.397
34.385
34.374
34.365
34.358
34.352
34.348
34.346
34.345
34.346
34.347
34.349
34.352
34.354
34.355
34.356
34.355
34.352
34.349
34.343
34.337
34.328
34.318
34.307
34.294
34.282
34.269
34.256
34.244
34.233
34.223
34.215
34.208
34.203
34.199
34.196
34.194
34.193
34.192
34.189
34.185
34.18
34.172
34.163
34.152
34.139
34.125
34.11
34.093
34.076
34.059
34.043
34.028
34.016
34.006
33.998
33.991
33.986
33.982
33.978
33.975
33.972
33.969
33.966
33.962
33.958
33.953
33.947
33.941
33.934
33.927
33.919
33.911
33.903
33.894
33.884
33.875
33.865
33.856
33.846
33.838
33.829
33.82
33.812
33.803
33.794
33.786
33.778
33.771
33.763
33.756
33.749
33.742
33.736
33.731
33.727
33.724
33.722
33.721
33.721
33.721
33.722
33.723
33.724
33.726
33.73
33.735
33.746
33.762
33.788
33.826
33.879
33.948
34.036
34.141
34.264
34.403
34.557
34.723
34.899
35.081
35.267
35.452
35.633
35.805
35.964
36.107
36.232
36.336
36.42
36.483
36.525
36.548
36.551
36.538
36.509
36.467
36.414
36.352
36.284
36.213
36.14
36.068
35.997
35.929
35.864
35.802
35.744
35.689
35.636
35.586
35.538
35.493
35.45
35.41
35.373
35.339
35.309
35.282
35.258
35.238
35.22
35.204
35.19
35.177
35.165
35.153
35.14
35.127
35.112
35.095
35.076
35.054
35.032
35.009
34.986
34.965
34.947
34.932
34.922
34.916
34.915
34.919
34.928
34.943
34.962
34.986
35.014
35.045
35.078
35.113
35.149
35.185
35.22
35.253
35.285
35.313
35.339
35.36
35.376
35.388
35.395
35.398
35.395
35.388
35.377
35.361
35.341
35.318
35.293
35.266
35.237
35.208
35.178
35.149
35.118
35.088
35.057
35.026
34.995
34.962
34.93
34.896
34.863
34.83
34.797
34.765
34.734
34.704
34.676
34.65
34.626
34.604
34.585
34.566
34.549
34.533
34.518
34.504
34.491
34.479
34.469
34.459
34.451
34.442
34.434
34.425
34.416
34.407
34.399
34.391
34.384
34.377
34.371
34.366
34.361
34.358
34.355
34.352
34.348
34.345
34.34
34.335
34.329
34.323
34.316
34.309
34.302
34.295
34.287
34.278
34.269
34.26
34.251
34.242
34.234
34.227
34.222
34.219
34.217
34.216
34.215
34.215
34.215
34.215
34.213
34.21
34.204
34.197
34.189
34.179
34.168
34.156
34.143
34.13
34.116
34.102
34.089
34.077
34.065
34.055
34.046
34.038
34.03
34.024
34.018
34.014
34.01
34.007
34.005
34.001
33.998
33.993
33.986
33.978
33.969
33.958
33.947
33.936
33.926
33.916
33.907
33.899
33.892
33.885
33.878
33.871
33.863
33.854
33.845
33.835
33.825
33.816
33.806
33.796
33.786
33.776
33.766
33.755
33.746
33.738
33.731
33.726
33.724
33.724
33.727
33.734
33.745
33.761
33.785
33.817
33.86
33.915
33.985
34.069
34.17
34.288
34.42
34.566
34.723
34.89
35.061
35.235
35.407
35.574
35.732
35.879
36.012
36.129
36.228
36.309
36.372
36.416
36.441
36.448
36.439
36.414
36.376
36.326
36.267
36.2
36.129
36.054
35.978
35.901
35.827
35.757
35.691
35.63
35.574
35.524
35.478
35.438
35.401
35.369
35.341
35.316
35.294
35.274
35.256
35.239
35.223
35.208
35.192
35.176
35.159
35.14
35.119
35.097
35.072
35.046
35.019
34.991
34.964
34.939
34.915
34.896
34.88
34.868
34.862
34.86
34.865
34.876
34.892
34.913
34.938
34.967
34.999
35.032
35.066
35.1
35.134
35.168
35.202
35.235
35.266
35.296
35.323
35.347
35.367
35.383
35.394
35.401
35.402
35.399
35.392
35.382
35.368
35.35
35.33
35.306
35.279
35.25
35.217
35.183
35.148
35.112
35.075
35.039
35.004
34.971
34.938
34.907
34.878
34.851
34.826
34.802
34.781
34.762
34.744
34.727
34.711
34.695
34.679
34.663
34.647
34.629
34.612
34.594
34.577
34.561
34.546
34.533
34.521
34.51
34.5
34.492
34.486
34.481
34.477
34.474
34.473
34.472
34.471
34.469
34.467
34.465
34.461
34.457
34.451
34.445
34.437
34.43
34.422
34.415
34.408
34.402
34.396
34.392
34.389
34.386
34.385
34.385
34.385
34.385
34.386
34.385
34.384
34.382
34.378
34.374
34.367
34.36
34.352
34.343
34.333
34.323
34.313
34.303
34.293
34.283
34.273
34.264
34.255
34.248
34.241
34.236
34.231
34.227
34.222
34.218
34.212
34.206
34.198
34.189
34.178
34.167
34.155
34.143
34.131
34.119
34.107
34.095
34.084
34.073
34.063
34.053
34.043
34.033
34.024
34.014
34.005
33.995
33.985
33.974
33.964
33.954
33.944
33.935
33.928
33.923
33.92
33.921
33.926
33.936
33.954
33.98
34.018
34.068
34.131
34.21
34.303
34.412
34.536
34.672
34.819
34.975
35.137
35.302
35.466
35.626
35.779
35.922
36.053
36.17
36.271
36.355
36.422
36.471
36.503
36.518
36.518
36.503
36.476
36.437
36.39
36.334
36.271
36.204
36.134
36.061
35.988
35.914
35.843
35.774
35.709
35.647
35.59
35.537
35.488
35.443
35.401
35.363
35.328
35.297
35.268
35.241
35.216
35.192
35.168
35.145
35.121
35.098
35.073
35.048
35.022
34.996
34.968
34.941
34.913
34.887
34.863
34.843
34.826
34.815
34.81
34.812
34.821
34.837
34.861
34.891
34.928
34.971
35.018
35.069
35.122
35.177
35.232
35.286
35.338
35.386
35.431
35.47
35.503
35.53
35.55
35.564
35.572
35.574
35.571
35.563
35.55
35.535
35.515
35.493
35.468
35.439
35.409
35.376
35.341
35.304
35.267
35.229
35.19
35.152
35.116
35.08
35.046
35.013
34.983
34.953
34.926
34.899
34.874
34.851
34.828
34.806
34.786
34.767
34.75
34.733
34.716
34.7
34.684
34.668
34.653
34.639
34.624
34.611
34.598
34.585
34.574
34.562
34.552
34.543
34.535
34.528
34.522
34.517
34.513
34.51
34.507
34.507
34.507
34.509
34.511
34.514
34.516
34.517
34.517
34.517
34.515
34.512
34.508
34.504
34.5
34.495
34.49
34.484
34.478
34.472
34.466
34.46
34.456
34.451
34.448
34.445
34.442
34.439
34.437
34.434
34.431
34.426
34.421
34.416
34.41
34.403
34.395
34.387
34.378
34.368
34.359
34.349
34.34
34.331
34.324
34.317
34.31
34.305
34.299
34.294
34.288
34.283
34.276
34.269
34.26
34.25
34.239
34.227
34.213
34.199
34.183
34.167
34.15
34.134
34.118
34.103
34.089
34.078
34.069
34.063
34.061
34.063
34.073
34.09
34.118
34.157
34.21
34.278
34.362
34.462
34.58
34.713
34.861
35.021
35.191
35.367
35.547
35.727
35.903
36.073
36.234
36.382
36.517
36.636
36.738
36.821
36.887
36.934
36.964
36.977
36.974
36.957
36.928
36.888
36.839
36.783
36.72
36.654
36.584
36.514
36.445
36.378
36.314
36.253
36.196
36.143
36.094
36.05
36.01
35.973
35.94
35.91
35.884
35.859
35.838
35.818
35.799
35.781
35.763
35.746
35.727
35.707
35.686
35.662
35.636
35.609
35.58
35.551
35.523
35.496
35.471
35.449
35.432
35.419
35.411
35.408
35.412
35.421
35.436
35.456
35.481
35.511
35.544
35.581
35.62
35.661
35.703
35.746
35.788
35.829
35.868
35.904
35.936
35.964
35.987
36.006
36.019
36.028
36.031
36.029
36.022
36.011
35.994
35.974
35.95
35.923
35.894
35.864
35.832
35.799
35.766
35.732
35.697
35.663
35.628
35.593
35.558
35.523
35.489
35.455
35.421
35.388
35.355
35.324
35.294
35.265
35.238
35.212
35.188
35.165
35.144
35.125
35.107
35.09
35.074
35.06
35.046
35.033
35.02
35.008
34.997
34.987
34.977
34.967
34.958
34.949
34.941
34.933
34.925
34.918
34.911
34.904
34.899
34.894
34.889
34.884
34.88
34.876
34.872
34.869
34.866
34.865
34.864
34.863
34.863
34.863
34.861
34.859
34.855
34.849
34.843
34.836
34.829
34.821
34.814
34.807
34.8
34.793
34.786
34.78
34.775
34.769
34.765
34.76
34.755
34.751
34.745
34.739
34.732
34.724
34.716
34.706
34.696
34.685
34.673
34.66
34.644
34.628
34.611
34.593
34.576
34.558
34.541
34.525
34.509
34.495
34.48
34.466
34.453
34.44
34.427
34.414
34.402
34.391
34.381
34.376
34.375
34.38
34.394
34.418
34.454
34.504
34.57
34.653
34.754
34.872
35.007
35.157
35.32
35.493
35.672
35.856
36.039
36.219
36.393
36.557
36.709
36.846
36.967
37.069
37.152
37.216
37.261
37.288
37.298
37.293
37.275
37.245
37.206
37.159
37.106
37.049
36.989
36.929
36.868
36.808
36.75
36.693
36.638
36.586
36.538
36.493
36.452
36.416
36.384
36.355
36.33
36.309
36.289
36.27
36.251
36.232
36.212
36.191
36.167
36.141
36.112
36.081
36.048
36.015
35.981
35.947
35.914
35.883
35.855
35.831
35.811
35.796
35.787
35.785
35.789
35.799
35.816
35.838
35.864
35.895
35.928
35.964
36.001
36.039
36.077
36.114
36.151
36.186
36.22
36.252
36.281
36.307
36.33
36.348
36.362
36.371
36.375
36.373
36.367
36.355
36.338
36.316
36.291
36.262
36.231
36.197
36.162
36.126
36.088
36.049
36.009
35.969
35.929
35.889
35.85
35.812
35.775
35.74
35.705
35.672
35.639
35.608
35.579
35.552
35.527
35.504
35.483
35.464
35.446
35.43
35.416
35.402
35.389
35.376
35.365
35.354
35.344
35.333
35.321
35.309
35.296
35.283
35.268
35.254
35.239
35.224
35.208
35.193
35.178
35.163
35.15
35.138
35.127
35.119
35.112
35.107
35.102
35.097
35.093
35.088
35.082
35.076
35.07
35.063
35.056
35.048
35.039
35.028
35.017
35.005
34.993
34.98
34.967
34.954
34.943
34.932
34.922
34.912
34.902
34.893
34.883
34.874
34.864
34.853
34.84
34.826
34.811
34.794
34.776
34.758
34.739
34.72
34.701
34.683
34.665
34.648
34.632
34.617
34.603
34.589
34.576
34.564
34.553
34.541
34.53
34.52
34.51
34.502
34.497
34.496
34.5
34.512
34.532
34.562
34.604
34.66
34.73
34.817
34.919
35.037
35.172
35.32
35.48
35.649
35.825
36.004
36.182
36.357
36.525
36.682
36.826
36.954
37.064
37.156
37.228
37.282
37.317
37.336
37.338
37.326
37.302
37.267
37.222
37.17
37.112
37.051
36.987
36.922
36.858
36.795
36.734
36.676
36.621
36.57
36.523
36.481
36.442
36.406
36.374
36.344
36.317
36.292
36.269
36.246
36.223
36.2
36.177
36.152
36.126
36.099
36.071
36.042
36.012
35.982
35.952
35.922
35.893
35.867
35.844
35.824
35.809
35.799
35.794
35.794
35.799
35.81
35.826
35.846
35.871
35.9
35.932
35.966
36.003
36.04
36.078
36.116
36.152
36.187
36.219
36.247
36.271
36.289
36.302
36.308
36.309
36.305
36.297
36.285
36.27
36.251
36.229
36.204
36.176
36.146
36.114
36.08
36.045
36.01
35.974
35.938
35.903
35.867
35.833
35.799
35.767
35.736
35.706
35.678
35.651
35.624
35.598
35.572
35.547
35.522
35.497
35.472
35.447
35.423
35.4
35.379
35.359
35.34
35.322
35.306
35.292
35.278
35.265
35.253
35.241
35.229
35.216
35.204
35.191
35.178
35.165
35.151
35.138
35.125
35.112
35.1
35.089
35.078
35.069
35.06
35.052
35.044
35.037
35.03
35.023
35.016
35.01
35.004
34.998
34.994
34.989
34.984
34.979
34.973
34.966
34.959
34.951
34.942
34.932
34.922
34.91
34.898
34.885
34.872
34.859
34.846
34.834
34.822
34.81
34.799
34.786
34.774
34.76
34.745
34.728
34.711
34.693
34.674
34.655
34.635
34.615
34.595
34.576
34.558
34.542
34.528
34.518
34.512
34.511
34.516
34.528
34.549
34.581
34.625
34.684
34.757
34.847
34.951
35.071
35.203
35.347
35.5
35.66
35.824
35.989
36.152
36.31
36.46
36.6
36.728
36.841
36.939
37.02
37.085
37.133
37.166
37.183
37.185
37.174
37.152
37.12
37.079
37.031
36.978
36.92
36.859
36.796
36.733
36.669
36.607
36.547
36.49
36.436
36.386
36.339
36.295
36.256
36.22
36.188
36.159
36.132
36.107
36.083
36.059
36.034
36.009
35.982
35.953
35.922
35.889
35.855
35.819
35.783
35.748
35.714
35.683
35.656
35.634
35.617
35.605
35.6
35.602
35.609
35.622
35.64
35.663
35.69
35.721
35.756
35.794
35.834
35.875
35.917
35.958
35.997
36.034
36.067
36.096
36.121
36.141
36.155
36.165
36.169
36.168
36.161
36.15
36.135
36.117
36.096
36.072
36.045
36.017
35.986
35.953
35.92
35.885
35.849
35.814
35.779
35.745
35.711
35.678
35.645
35.614
35.583
35.554
35.526
35.5
35.476
35.452
35.43
35.409
35.387
35.365
35.343
35.319
35.295
35.27
35.246
35.222
35.199
35.176
35.155
35.135
35.116
35.099
35.084
35.071
35.059
35.049
35.04
35.031
35.022
35.014
35.006
34.997
34.988
34.979
34.97
34.96
34.95
34.94
34.928
34.916
34.903
34.889
34.874
34.86
34.847
34.835
34.826
34.819
34.813
34.81
34.808
34.806
34.805
34.804
34.802
34.8
34.796
34.791
34.784
34.775
34.765
34.754
34.741
34.728
34.715
34.701
34.687
34.674
34.661
34.648
34.636
34.625
34.613
34.602
34.59
34.579
34.567
34.555
34.544
34.532
34.519
34.506
34.492
34.479
34.466
34.455
34.446
34.441
34.442
34.45
34.467
34.495
34.536
34.592
34.664
34.754
34.86
34.984
35.122
35.273
35.435
35.606
35.781
35.958
36.133
36.303
36.466
36.62
36.762
36.891
37.006
37.105
37.188
37.255
37.305
37.339
37.357
37.36
37.35
37.327
37.295
37.253
37.204
37.15
37.093
37.035
36.976
36.918
36.862
36.808
36.757
36.71
36.667
36.627
36.591
36.557
36.527
36.499
36.472
36.447
36.422
36.396
36.371
36.344
36.316
36.286
36.254
36.22
36.186
36.15
36.113
36.078
36.044
36.013
35.983
35.957
35.935
35.917
35.902
35.893
35.89
35.892
35.901
35.914
35.933
35.956
35.984
36.014
36.048
36.083
36.12
36.158
36.196
36.233
36.269
36.304
36.335
36.363
36.387
