Trial 1:0back
37.174
37.186
37.202
37.219
37.237
37.255
37.272
37.286
37.296
37.304
37.308
37.309
37.306
37.3
37.29
37.277
37.261
37.241
37.217
37.188
37.155
37.118
37.078
37.035
36.99
36.942
36.892
36.839
36.784
36.726
36.666
36.602
36.534
36.462
36.386
36.307
36.226
36.143
36.06
35.976
35.892
35.81
35.729
35.651
35.576
35.505
35.438
35.375
35.317
35.261
35.208
35.156
35.104
35.053
35.002
34.953
34.905
34.859
34.815
34.772
34.73
34.69
34.652
34.616
34.581
34.547
34.514
34.482
34.451
34.419
34.386
34.352
34.315
34.278
34.24
34.202
34.165
34.13
34.098
34.07
34.045
34.025
34.009
33.997
33.989
33.985
33.983
33.984
33.985
33.987
33.987
33.985
33.979
33.97
33.955
33.935
33.913
33.887
33.858
33.826
33.792
33.757
33.723
33.691
33.661
33.634
33.61
33.589
33.571
33.557
33.546
33.537
33.529
33.522
33.515
33.507
33.497
33.486
33.473
33.456
33.438
33.417
33.395
33.371
33.347
33.322
33.298
33.274
33.251
33.229
33.207
33.186
33.167
33.149
33.131
33.113
33.095
33.073
33.049
33.021
32.989
32.955
32.918
32.88
32.84
32.799
32.759
32.72
32.683
32.647
32.616
32.588
32.565
32.546
32.532
32.523
32.523
32.534
32.56
32.609
32.686
32.8
32.96
33.172
33.442
33.772
34.16
34.603
35.093
35.62
36.174
36.743
37.314
37.876
38.417
38.929
39.403
39.835
40.22
40.556
40.84
41.073
41.255
41.389
41.478
41.528
41.544
41.529
41.487
41.423
41.341
41.245
41.137
41.021
40.9
40.777
40.653
40.53
40.407
40.286
40.167
40.052
39.941
39.835
39.733
39.635
39.543
39.455
39.371
39.291
39.215
39.14
39.066
38.992
38.918
38.844
38.77
38.694
38.618
38.539
38.457
38.371
38.283
38.193
38.101
38.008
37.915
37.824
37.736
37.654
37.58
37.513
37.454
37.403
37.362
37.328
37.303
37.286
37.277
37.275
37.279
37.29
37.304
37.322
37.342
37.363
37.382
37.399
37.412
37.419
37.422
37.421
37.415
37.407
37.396
37.383
37.368
37.353
37.336
37.316
37.294
37.267
37.236
37.201
37.161
37.116
37.067
37.013
36.956
36.894
36.83
36.762
36.692
36.621
36.548
36.475
36.402
36.328
36.255
36.181
36.106
36.029
35.952
35.873
35.794
35.716
35.638
35.56
35.483
35.409
35.336
35.267
35.199
35.134
35.073
35.016
34.963
34.914
34.867
34.821
34.776
34.73
34.684
34.636
34.587
34.537
34.486
34.435
34.387
34.342
34.3
34.262
34.229
34.2
34.175
34.155
34.137
34.122
34.109
34.097
34.085
34.073
34.058
34.04
34.019
33.995
33.97
33.943
33.915
33.888
33.864
33.843
33.825
33.812
33.802
33.797
33.795
33.794
33.794
33.794
33.795
33.795
33.793
33.787
33.78
33.769
33.755
33.739
33.719
33.697
33.673
33.647
33.62
33.592
33.564
33.537
33.511
33.485
33.461
33.439
33.417
33.395
33.373
33.351
33.329
33.307
33.282
33.256
33.229
33.2
33.169
33.137
33.105
33.072
33.042
33.013
32.986
32.96
32.936
32.913
32.888
32.863
32.836
32.807
32.775
32.743
32.709
32.675
32.64
32.606
32.574
32.544
32.517
32.496
32.481
32.479
32.493
32.532
32.602
32.713
32.87
33.083
33.355
33.691
34.09
34.549
35.06
35.615
36.202
36.807
37.419
38.022
38.606
39.158
39.669
40.132
40.541
40.892
41.185
41.42
41.6
41.73
41.812
41.853
41.856
41.827
41.771
41.694
41.601
41.495
41.381
41.262
41.14
41.018
40.897
40.778
40.663
40.551
40.443
40.339
40.237
40.136
40.036
39.936
39.838
39.741
39.647
39.556
39.467
39.381
39.298
39.219
39.143
39.069
38.998
38.927
38.855
38.781
38.704
38.625
38.543
38.457
38.369
38.277
38.183
38.089
37.996
37.906
37.82
37.74
37.667
37.602
37.547
37.502
37.467
37.442
37.426
37.418
37.417
37.421
37.431
37.444
37.46
37.477
37.494
37.511
37.527
37.542
37.555
37.565
37.572
37.574
37.571
37.561
37.547
37.526
37.5
37.468
37.431
37.388
37.341
37.289
37.234
37.175
37.11
37.042
36.97
36.896
36.82
36.742
36.662
36.582
36.501
36.421
36.342
36.263
36.185
36.108
36.032
35.957
35.883
35.809
35.735
35.661
35.584
35.507
35.428
35.349
35.269
35.189
35.111
35.037
34.966
34.901
34.84
34.785
34.734
34.686
34.642
34.599
34.558
34.518
34.479
34.44
34.402
34.365
34.327
34.289
34.251
34.211
34.171
34.13
34.091
34.055
34.022
33.992
33.965
33.941
33.922
33.905
33.89
33.878
33.868
33.859
33.852
33.846
33.84
33.833
33.825
33.816
33.807
33.798
33.789
33.781
33.773
33.764
33.756
33.747
33.737
33.727
33.715
33.703
33.69
33.676
33.659
33.638
33.614
33.587
33.556
33.521
33.484
33.445
33.405
33.366
33.329
33.294
33.262
33.233
33.206
33.181
33.158
33.137
33.118
33.1
33.084
33.069
33.054
33.038
33.023
33.007
32.99
32.973
32.955
32.936
32.914
32.889
32.86
32.832
32.808
32.792
32.781
32.774
32.77
32.764
32.756
32.744
32.726
32.701
32.67
32.633
32.592
32.547
32.5
32.451
32.403
32.356
32.314
32.278
32.247
32.224
32.209
32.205
32.214
32.241
32.292
32.372
32.489
32.654
32.874
33.155
33.501
33.912
34.385
34.916
35.493
36.107
36.743
37.386
38.022
38.638
39.221
39.763
40.256
40.694
41.075
41.399
41.665
41.875
42.031
42.138
42.199
42.22
42.206
42.164
42.097
42.011
41.911
41.799
41.682
41.56
41.438
41.317
41.197
41.08
40.965
40.853
40.742
40.632
40.525
40.419
40.316
40.216
40.117
40.02
39.924
39.831
39.74
39.65
39.562
39.475
39.39
39.308
39.228
39.151
39.075
38.998
38.921
38.842
38.76
38.676
38.59
38.502
38.413
38.324
38.235
38.147
38.06
37.977
37.9
37.829
37.767
37.713
37.668
37.635
37.612
37.6
37.597
37.601
37.611
37.624
37.639
37.653
37.666
37.676
37.683
37.685
37.684
37.677
37.666
37.65
37.631
37.607
37.579
37.546
37.506
37.462
37.412
37.359
37.303
37.244
37.182
37.119
37.053
36.987
36.917
36.845
36.77
36.69
36.605
36.516
36.424
36.328
36.231
36.134
36.039
35.945
35.856
35.771
35.69
35.613
35.541
35.471
35.405
35.34
35.277
35.214
35.149
35.083
35.016
34.946
34.876
34.805
34.734
34.665
34.598
34.535
34.475
34.42
34.37
34.323
34.281
34.241
34.204
34.17
34.136
34.105
34.074
34.045
34.016
33.988
33.96
33.932
33.905
33.879
33.854
33.829
33.806
33.783
33.761
33.74
33.72
33.701
33.683
33.664
33.646
33.628
33.611
33.594
33.577
33.557
33.536
33.514
33.492
33.47
33.448
33.428
33.409
33.393
33.379
33.367
33.356
33.345
33.335
33.326
33.317
33.307
33.295
33.28
33.261
33.239
33.212
33.182
33.149
33.115
33.081
33.047
33.015
32.984
32.952
32.918
32.883
32.846
32.807
32.768
32.729
32.691
32.656
32.623
32.594
32.568
32.545
32.525
32.508
32.492
32.476
32.459
32.441
32.42
32.396
32.371
32.344
32.316
32.287
32.257
32.226
32.196
32.167
32.139
32.114
32.094
32.081
32.079
32.095
32.134
32.204
32.313
32.47
32.684
32.962
33.307
33.721
34.201
34.739
35.325
35.948
36.595
37.251
37.902
38.534
39.134
39.691
40.196
40.644
41.032
41.357
41.622
41.827
41.976
42.075
42.129
42.143
42.125
42.078
42.008
41.92
41.817
41.703
41.58
41.452
41.32
41.188
41.056
40.927
40.799
40.67
40.539
40.406
40.272
40.139
40.009
39.884
39.765
39.653
39.549
39.454
39.368
39.289
39.216
39.148
39.084
39.022
38.959
38.895
38.827
38.754
38.674
38.587
38.493
38.392
38.286
38.175
38.062
37.948
37.836
37.726
37.621
37.524
37.435
37.357
37.29
37.236
37.194
37.164
37.145
37.136
37.135
37.139
37.147
37.155
37.165
37.173
37.181
37.188
37.194
37.198
37.202
37.204
37.205
37.203
37.196
37.182
37.163
37.136
37.103
37.061
37.011
36.954
36.89
36.821
36.748
36.671
36.591
36.508
36.423
36.337
36.25
36.161
36.072
35.982
35.893
35.804
35.715
35.628
35.542
35.459
35.379
35.301
35.225
35.151
35.077
35.004
34.93
34.855
34.777
34.697
34.615
34.53
34.444
34.357
34.269
34.183
34.1
34.02
33.946
33.878
33.816
33.761
33.713
33.672
33.638
33.609
33.584
33.563
33.545
33.529
33.514
33.498
33.48
33.459
33.435
33.409
33.38
33.348
33.316
33.284
33.252
33.222
33.193
33.168
33.145
33.125
33.108
33.091
33.076
33.06
33.045
33.029
33.014
32.999
32.986
32.976
32.968
32.964
32.962
32.962
32.963
32.963
32.962
32.959
32.954
32.947
32.937
32.924
32.908
32.89
32.868
32.844
32.817
32.787
32.756
32.723
32.688
32.653
32.617
32.58
32.542
32.504
32.467
32.431
32.397
32.365
32.336
32.308
32.283
32.259
32.237
32.218
32.199
32.18
32.161
32.14
32.119
32.096
32.073
32.049
32.025
32.002
31.981
31.961
31.942
31.924
31.907
31.893
31.882
31.875
31.876
31.889
31.922
31.982
32.078
32.218
32.413
32.668
32.988
33.374
33.825
34.337
34.902
35.509
36.146
36.797
37.448
38.085
38.696
39.269
39.795
40.267
40.679
41.028
41.312
41.534
41.697
41.806
41.866
41.882
41.862
41.812
41.737
41.643
41.532
41.41
41.278
41.141
40.999
40.855
40.707
40.558
40.408
40.258
40.103
39.943
39.782
39.621
39.465
39.317
39.179
39.054
38.941
38.841
38.754
38.677
38.61
38.548
38.489
38.431
38.372
38.31
38.244
38.172
38.094
38.011
37.923
37.83
37.733
37.633
37.53
37.429
37.33
37.236
37.147
37.067
36.996
36.937
36.891
36.858
36.838
36.831
36.836
36.851
36.876
36.908
36.945
36.985
37.026
37.067
37.105
37.138
37.167
37.19
37.207
37.217
37.22
37.215
37.202
37.182
37.155
37.12
37.078
37.029
36.972
36.909
36.84
36.767
36.689
36.608
36.523
36.436
36.347
36.258
36.169
36.08
35.99
35.899
35.807
35.714
35.62
35.526
35.431
35.338
35.246
35.158
35.076
35.003
34.937
34.878
34.825
34.776
34.728
34.681
34.632
34.58
34.524
34.464
34.398
34.329
34.257
34.183
34.109
34.036
33.966
33.9
33.84
33.787
33.742
33.704
33.672
33.647
33.628
33.613
33.602
33.593
33.586
33.579
33.572
33.562
33.55
33.535
33.518
33.501
33.485
33.471
33.458
33.446
33.436
33.427
33.42
33.415
33.409
33.403
33.395
33.387
33.378
33.367
33.355
33.34
33.324
33.307
33.29
33.271
33.251
33.23
33.209
33.187
33.165
33.142
33.119
33.094
33.069
33.044
33.019
32.993
32.967
32.94
32.909
32.874
32.834
32.791
32.745
32.697
32.646
32.595
32.544
32.493
32.443
32.394
32.347
32.304
32.265
32.231
32.202
32.183
32.176
32.187
32.221
32.287
32.392
32.545
32.755
33.026
33.363
33.767
34.234
34.759
35.33
35.936
36.563
37.199
37.829
38.441
39.021
39.56
40.049
40.484
40.861
41.18
41.44
41.645
41.798
41.905
41.97
41.998
41.993
41.961
41.905
41.83
41.74
41.638
41.525
41.403
41.275
41.143
41.009
40.874
40.74
40.608
40.479
40.354
40.233
40.118
40.008
39.904
39.804
39.709
39.619
39.533
39.453
39.376
39.302
39.231
39.161
39.09
39.016
38.938
38.853
38.761
38.661
38.554
38.437
38.313
38.183
38.05
37.917
37.786
37.66
37.543
37.437
37.343
37.263
37.199
37.149
37.113
37.091
37.081
37.08
37.086
37.098
37.116
37.137
37.16
37.182
37.202
37.219
37.233
37.244
37.252
37.254
37.25
37.239
37.222
37.197
37.165
37.125
37.076
37.018
36.953
36.879
36.8
36.718
36.634
36.551
36.468
36.386
36.305
36.226
36.148
36.069
35.989
35.907
35.822
35.736
35.648
35.56
35.472
35.384
35.296
35.209
35.123
35.037
34.952
34.868
34.787
34.707
34.629
34.552
34.476
34.402
34.329
34.256
34.185
34.118
34.053
33.992
33.937
33.886
33.84
33.8
33.763
33.729
33.697
33.666
33.637
33.608
33.577
33.543
33.507
33.469
33.431
33.392
33.354
33.318
33.285
33.254
33.228
33.206
33.187
33.171
33.159
33.149
33.142
33.136
33.131
33.127
33.123
33.119
33.113
33.106
33.096
33.083
33.068
33.051
33.032
33.012
32.992
32.973
32.956
32.94
32.926
32.912
32.899
32.887
32.874
32.86
32.844
32.826
32.806
32.785
32.761
32.735
32.707
32.677
32.645
32.611
32.576
32.54
32.503
32.466
32.429
32.392
32.357
32.322
32.288
32.255
32.224
32.195
32.169
32.143
32.118
32.094
32.071
32.049
32.026
32.003
31.981
31.963
31.95
31.946
31.959
31.994
32.061
32.17
32.329
32.547
32.831
33.184
33.607
34.094
34.64
35.235
35.867
36.525
37.192
37.856
38.501
39.116
39.69
40.215
40.686
41.099
41.451
41.742
41.973
42.147
42.269
42.342
42.374
42.369
42.334
42.276
42.2
42.11
42.009
41.9
41.786
41.67
41.555
41.442
41.331
41.223
41.119
41.018
40.92
40.827
40.737
40.651
40.568
40.488
40.412
40.34
40.272
40.207
40.146
40.088
40.034
39.98
39.925
39.867
39.803
39.731
39.651
39.561
39.461
39.351
39.234
39.109
38.981
38.85
38.72
38.592
38.468
38.351
38.24
38.137
38.043
37.957
37.881
37.813
37.753
37.7
37.656
37.618
37.588
37.565
37.548
37.534
37.521
37.511
37.501
37.492
37.483
37.473
37.463
37.45
37.436
37.418
37.395
37.366
37.329
37.284
37.233
37.173
37.108
37.036
36.961
36.883
36.804
36.725
36.645
36.565
36.486
36.408
36.331
36.253
36.174
36.094
36.015
35.935
35.854
35.772
35.689
35.603
35.517
35.432
35.347
35.263
35.181
35.1
35.022
34.946
34.873
34.803
34.734
34.667
34.6
34.535
34.47
34.405
34.339
34.274
34.21
34.149
34.09
34.036
33.985
33.937
33.893
33.851
33.812
33.775
33.739
33.705
33.671
33.636
33.603
33.57
33.538
33.509
33.482
33.458
33.437
33.421
33.408
33.398
33.389
33.38
33.371
33.36
33.349
33.336
33.32
33.302
33.281
33.258
33.233
33.206
33.176
33.145
33.113
33.081
33.05
33.023
32.998
32.975
32.955
32.937
32.921
32.906
32.89
32.872
32.85
32.826
32.799
32.77
32.739
32.706
32.671
32.634
32.597
32.558
32.519
32.48
32.44
32.4
32.36
32.32
32.281
32.243
32.207
32.172
32.138
32.105
32.072
32.039
32.004
31.969
31.932
31.894
31.854
31.816
31.778
31.744
31.716
31.695
31.689
31.703
31.744
31.821
31.943
32.119
32.355
32.658
33.027
33.463
33.961
34.514
35.112
35.743
36.394
37.051
37.7
38.33
38.929
39.487
39.994
40.445
40.836
41.165
41.434
41.645
41.799
41.899
41.95
41.957
41.927
41.866
41.78
41.677
41.561
41.438
41.311
41.183
41.057
40.933
40.814
40.701
40.595
40.497
40.407
40.324
40.246
40.173
40.104
40.039
39.976
39.916
39.858
39.8
39.743
39.684
39.622
39.556
39.486
39.411
39.33
39.242
39.145
39.038
38.923
38.799
38.669
38.533
38.393
38.251
38.108
37.966
37.829
37.697
37.572
37.456
37.349
37.253
37.169
37.098
37.039
36.994
36.961
36.94
36.928
36.923
36.923
36.927
36.934
36.943
36.951
36.956
36.958
36.956
36.949
36.937
36.919
36.895
36.863
36.825
36.781
36.731
36.676
36.616
36.553
36.487
36.418
36.347
36.272
36.194
36.113
36.03
35.945
35.861
35.778
35.697
35.619
35.544
35.471
35.4
35.33
35.26
35.191
35.121
35.05
34.978
34.906
34.833
34.76
34.686
34.613
34.539
34.465
34.393
34.322
34.253
34.186
34.12
34.057
33.996
33.939
33.884
33.831
33.782
33.737
33.697
33.662
33.632
33.607
33.585
33.568
33.554
33.543
33.534
33.525
33.514
33.5
33.483
33.462
33.437
33.41
33.38
33.349
33.318
33.288
33.261
33.238
33.221
33.209
33.203
33.201
33.203
33.209
33.216
33.224
33.23
33.235
33.238
33.238
33.235
33.228
33.217
33.202
33.184
33.164
33.143
33.121
33.099
33.078
33.058
33.04
33.022
33.005
32.986
32.965
32.941
32.913
32.882
32.848
32.811
32.771
32.729
32.687
32.644
32.603
32.562
32.522
32.485
32.451
32.42
32.392
32.367
32.346
32.326
32.307
32.288
32.267
32.243
32.216
32.186
32.154
32.121
32.09
32.064
32.048
32.047
32.069
32.123
32.216
32.357
32.554
32.811
33.133
33.518
33.964
34.463
35.008
35.588
36.189
36.801
37.41
38.003
38.57
39.1
39.587
40.023
40.403
40.725
40.988
41.192
41.341
41.438
41.486
41.492
41.461
41.398
41.309
41.201
41.077
40.944
40.804
40.661
40.518
40.378
40.244
40.116
39.995
39.88
39.772
39.669
39.571
39.477
39.387
39.301
39.22
39.142
39.067
38.994
38.922
38.848
38.772
38.692
38.608
38.517
38.419
38.315
38.204
38.087
37.966
37.841
37.713
37.582
37.45
37.318
37.19
37.065
36.946
36.834
36.729
36.636
36.554
36.487
36.435
36.399
36.379
36.373
36.38
36.397
36.423
36.454
36.488
36.523
36.555
36.583
36.607
36.627
36.641
36.648
36.648
36.64
36.623
36.597
36.563
36.521
36.472
36.416
36.354
36.286
36.214
36.137
36.056
35.971
35.882
35.79
35.697
35.601
35.505
35.407
35.309
35.209
35.109
35.009
34.911
34.815
34.723
34.636
34.553
34.476
34.402
34.331
34.263
34.197
34.131
34.065
34.0
33.934
33.868
33.804
33.741
33.679
33.621
33.569
33.524
33.484
33.449
33.418
33.389
33.36
33.331
33.301
33.268
33.232
33.194
33.153
33.11
33.066
33.022
32.98
32.94
32.903
32.87
32.842
32.817
32.797
32.78
32.767
32.756
32.749
32.743
32.738
32.733
32.728
32.722
32.716
32.708
32.698
32.687
32.677
32.667
32.657
32.648
32.639
32.631
32.624
32.618
32.611
32.605
32.598
32.59
32.582
32.57
32.555
32.536
32.512
32.482
32.446
32.405
32.359
32.31
32.259
32.206
32.154
32.102
32.052
32.003
31.955
31.91
31.867
31.827
31.789
31.753
31.719
31.687
31.657
31.628
31.604
31.586
31.576
31.577
31.595
31.635
31.706
31.815
31.971
32.183
32.454
32.791
33.193
33.657
34.178
34.747
35.354
35.987
36.632
37.277
37.909
38.516
39.09
39.622
40.106
40.535
40.906
41.217
41.468
41.662
41.802
41.892
41.938
41.944
41.915
41.858
41.778
41.68
41.57
41.45
41.324
41.194
41.064
40.936
40.813
40.696
40.586
40.485
40.393
40.308
40.231
40.161
40.098
40.04
39.987
39.937
39.89
39.842
39.792
39.74
39.685
39.626
39.56
39.485
39.402
39.309
39.207
39.095
38.974
38.846
38.709
38.567
38.42
38.27
38.119
37.97
37.824
37.684
37.552
37.427
37.312
37.207
37.112
37.029
36.959
36.9
36.852
36.816
36.79
36.775
36.769
36.77
36.775
36.783
36.791
36.798
36.8
36.799
36.791
36.778
36.759
36.735
36.705
36.67
36.631
36.586
36.537
36.483
36.423
36.358
36.287
36.211
36.132
36.051
35.967
35.881
35.794
35.708
35.621
35.534
35.447
35.357
35.266
35.174
35.082
34.99
34.899
34.81
34.724
34.64
34.559
34.48
34.404
34.33
34.258
34.187
34.116
34.047
33.978
33.909
33.84
33.771
33.702
33.633
33.565
33.498
33.433
33.37
33.311
33.256
33.205
33.158
33.115
33.076
33.04
33.007
32.976
32.949
32.923
32.901
32.879
32.859
32.84
32.821
32.804
32.787
32.77
32.752
32.733
32.714
32.694
32.672
32.649
32.624
32.6
32.576
32.554
32.533
32.514
32.497
32.483
32.471
32.46
32.45
32.441
32.431
32.419
32.406
32.391
32.374
32.354
32.331
32.306
32.279
32.251
32.223
32.193
32.162
32.13
32.096
32.06
32.02
31.977
31.929
31.878
31.823
31.768
31.713
31.658
31.606
31.557
31.512
31.473
31.439
31.412
31.391
31.379
31.376
31.388
31.418
31.472
31.558
31.683
31.855
32.081
32.368
32.719
33.135
33.613
34.148
34.731
35.35
35.995
36.649
37.301
37.935
38.54
39.104
39.62
40.081
40.483
40.825
41.109
41.336
41.507
41.626
41.697
41.725
41.714
41.672
41.603
41.513
41.407
41.291
41.169
41.043
40.917
40.791
40.667
40.545
40.427
40.314
40.206
40.104
40.007
39.918
39.837
39.762
39.693
39.628
39.565
39.504
39.444
39.384
39.323
39.259
39.191
39.119
39.041
38.956
38.864
38.763
38.652
38.531
38.399
38.258
38.109
37.953
37.793
37.632
37.472
37.318
37.169
37.03
36.9
36.782
36.677
36.586
36.508
36.443
36.392
36.354
36.328
36.313
36.308
36.312
36.322
36.335
36.35
36.362
36.369
36.371
36.364
36.348
36.323
36.29
36.248
36.2
36.147
36.09
36.029
35.966
35.9
35.833
35.764
35.693
35.618
35.54
35.456
35.369
35.278
35.183
35.086
34.986
34.885
34.785
34.687
34.591
34.499
34.41
34.326
34.246
34.17
