Trial 1:0back
36.407
36.423
36.433
36.437
36.436
36.429
36.416
36.398
36.374
36.346
36.314
36.279
36.242
36.203
36.164
36.124
36.084
36.044
36.003
35.962
35.921
35.881
35.841
35.801
35.763
35.725
35.689
35.654
35.621
35.59
35.561
35.533
35.508
35.485
35.464
35.445
35.427
35.41
35.393
35.377
35.361
35.345
35.329
35.313
35.296
35.279
35.262
35.245
35.228
35.212
35.196
35.181
35.167
35.153
35.14
35.127
35.115
35.103
35.092
35.082
35.072
35.063
35.055
35.047
35.04
35.034
35.028
35.021
35.015
35.008
35.001
34.993
34.984
34.974
34.963
34.95
34.936
34.92
34.904
34.887
34.87
34.853
34.837
34.822
34.807
34.794
34.783
34.773
34.764
34.756
34.749
34.742
34.735
34.727
34.718
34.708
34.696
34.683
34.668
34.652
34.634
34.615
34.595
34.574
34.552
34.531
34.511
34.492
34.474
34.458
34.443
34.43
34.417
34.406
34.394
34.383
34.372
34.36
34.348
34.336
34.324
34.312
34.301
34.291
34.284
34.279
34.278
34.284
34.297
34.321
34.356
34.406
34.472
34.555
34.656
34.775
34.911
35.062
35.226
35.401
35.584
35.772
35.963
36.154
36.34
36.52
36.689
36.847
36.989
37.116
37.225
37.316
37.39
37.445
37.483
37.505
37.511
37.502
37.48
37.447
37.404
37.353
37.296
37.236
37.173
37.109
37.045
36.981
36.92
36.862
36.806
36.755
36.708
36.665
36.627
36.592
36.562
36.534
36.51
36.489
36.47
36.453
36.437
36.423
36.409
36.395
36.38
36.364
36.347
36.328
36.307
36.284
36.261
36.237
36.212
36.189
36.167
36.147
36.131
36.119
36.111
36.107
36.109
36.116
36.128
36.144
36.163
36.185
36.21
36.237
36.265
36.293
36.322
36.351
36.378
36.405
36.428
36.449
36.466
36.479
36.488
36.492
36.491
36.486
36.476
36.463
36.446
36.425
36.403
36.378
36.351
36.323
36.294
36.263
36.231
36.197
36.162
36.126
36.09
36.053
36.015
35.978
35.941
35.905
35.869
35.833
35.797
35.762
35.728
35.696
35.665
35.635
35.608
35.583
35.561
35.54
35.52
35.501
35.483
35.464
35.445
35.424
35.403
35.38
35.357
35.333
35.31
35.286
35.264
35.243
35.224
35.206
35.19
35.176
35.164
35.153
35.143
35.134
35.127
35.12
35.115
35.109
35.104
35.099
35.093
35.087
35.08
35.072
35.063
35.054
35.042
35.029
35.015
35.0
34.984
34.968
34.953
34.938
34.925
34.913
34.902
34.893
34.886
34.88
34.874
34.869
34.864
34.859
34.853
34.847
34.841
34.833
34.825
34.816
34.805
34.793
34.78
34.766
34.751
34.735
34.719
34.701
34.684
34.667
34.651
34.635
34.62
34.605
34.591
34.578
34.566
34.553
34.541
34.528
34.515
34.501
34.487
34.472
34.456
34.44
34.423
34.406
34.388
34.371
34.355
34.338
34.321
34.305
34.289
34.273
34.258
34.244
34.232
34.222
34.214
34.211
34.212
34.22
34.237
34.266
34.308
34.364
34.437
34.528
34.636
34.762
34.905
35.064
35.236
35.421
35.615
35.815
36.016
36.216
36.409
36.594
36.766
36.924
37.065
37.187
37.291
37.375
37.44
37.487
37.516
37.529
37.526
37.509
37.481
37.443
37.396
37.342
37.284
37.222
37.157
37.092
37.027
36.963
36.902
36.845
36.791
36.741
36.696
36.655
36.617
36.584
36.553
36.526
36.502
36.479
36.459
36.441
36.424
36.407
36.39
36.373
36.355
36.335
36.313
36.288
36.262
36.234
36.205
36.175
36.146
36.119
36.094
36.073
36.057
36.047
36.042
36.044
36.052
36.067
36.089
36.115
36.147
36.182
36.22
36.259
36.3
36.339
36.378
36.414
36.447
36.476
36.501
36.521
36.536
36.544
36.547
36.544
36.534
36.519
36.498
36.473
36.444
36.412
36.377
36.34
36.303
36.265
36.227
36.189
36.151
36.114
36.077
36.04
36.004
35.968
35.932
35.897
35.862
35.828
35.795
35.763
35.732
35.704
35.676
35.65
35.626
35.602
35.58
35.557
35.536
35.515
35.494
35.473
35.453
35.432
35.412
35.392
35.373
35.354
35.335
35.316
35.298
35.28
35.262
35.244
35.226
35.209
35.194
35.179
35.167
35.155
35.145
35.136
35.128
35.121
35.115
35.108
35.101
35.093
35.083
35.073
35.061
35.049
35.035
35.022
35.008
34.994
34.98
34.966
34.952
34.938
34.923
34.908
34.893
34.879
34.864
34.85
34.837
34.824
34.812
34.801
34.789
34.777
34.765
34.754
34.742
34.73
34.719
34.707
34.696
34.685
34.675
34.665
34.656
34.646
34.637
34.628
34.618
34.608
34.598
34.588
34.576
34.564
34.551
34.538
34.524
34.509
34.495
34.481
34.467
34.455
34.443
34.431
34.421
34.41
34.4
34.388
34.377
34.364
34.352
34.338
34.325
34.311
34.296
34.281
34.265
34.248
34.231
34.214
34.197
34.181
34.166
34.152
34.139
34.128
34.119
34.113
34.111
34.115
34.127
34.148
34.181
34.227
34.289
34.369
34.466
34.583
34.717
34.868
35.034
35.212
35.399
35.593
35.79
35.986
36.179
36.363
36.538
36.699
36.844
36.973
37.084
37.177
37.252
37.309
37.349
37.372
37.381
37.377
37.36
37.332
37.296
37.253
37.203
37.149
37.091
37.031
36.969
36.906
36.845
36.784
36.726
36.67
36.617
36.566
36.518
36.472
36.428
36.386
36.347
36.31
36.275
36.243
36.212
36.182
36.153
36.125
36.096
36.068
36.039
36.01
35.98
35.951
35.923
35.896
35.871
35.85
35.832
35.818
35.809
35.805
35.807
35.813
35.825
35.842
35.863
35.889
35.92
35.954
35.991
36.031
36.072
36.115
36.157
36.198
36.238
36.276
36.309
36.338
36.362
36.381
36.394
36.4
36.4
36.395
36.383
36.366
36.343
36.316
36.284
36.248
36.208
36.166
36.122
36.077
36.03
35.983
35.936
35.89
35.845
35.801
35.759
35.719
35.68
35.644
35.611
35.58
35.55
35.523
35.496
35.471
35.446
35.421
35.396
35.371
35.346
35.323
35.3
35.279
35.257
35.237
35.218
35.2
35.182
35.166
35.152
35.138
35.125
35.113
35.102
35.09
35.079
35.069
35.058
35.048
35.038
35.028
35.018
35.008
34.998
34.988
34.978
34.968
34.958
34.948
34.938
34.928
34.919
34.909
34.9
34.89
34.882
34.874
34.866
34.858
34.85
34.841
34.83
34.818
34.804
34.788
34.772
34.755
34.737
34.72
34.702
34.684
34.667
34.65
34.634
34.619
34.604
34.59
34.578
34.566
34.555
34.544
34.534
34.524
34.514
34.504
34.495
34.485
34.476
34.465
34.454
34.441
34.426
34.41
34.393
34.375
34.356
34.337
34.319
34.301
34.284
34.268
34.253
34.239
34.225
34.213
34.201
34.189
34.178
34.166
34.154
34.143
34.132
34.121
34.112
34.105
34.099
34.095
34.095
34.1
34.111
34.131
34.161
34.205
34.264
34.34
34.434
34.547
34.678
34.828
34.994
35.175
35.368
35.57
35.778
35.986
36.191
36.39
36.578
36.753
36.913
37.054
37.177
37.28
37.362
37.424
37.467
37.492
37.5
37.492
37.472
37.442
37.403
37.357
37.306
37.253
37.198
37.142
37.088
37.035
36.985
36.938
36.894
36.854
36.817
36.783
36.751
36.721
36.693
36.667
36.642
36.618
36.595
36.573
36.551
36.53
36.508
36.484
36.457
36.427
36.395
36.359
36.321
36.281
36.241
36.2
36.161
36.123
36.088
36.057
36.03
36.009
35.994
35.986
35.985
35.99
36.002
36.021
36.045
36.074
36.108
36.145
36.184
36.226
36.268
36.311
36.352
36.391
36.427
36.46
36.488
36.511
36.529
36.542
36.549
36.55
36.546
36.535
36.52
36.501
36.477
36.45
36.42
36.387
36.352
36.314
36.274
36.233
36.19
36.146
36.101
36.056
36.01
35.965
35.921
35.878
35.836
35.794
35.754
35.713
35.674
35.635
35.599
35.563
35.529
35.497
35.466
35.436
35.407
35.381
35.356
35.332
35.31
35.29
35.27
35.251
35.233
35.216
35.201
35.186
35.174
35.162
35.15
35.139
35.129
35.118
35.107
35.096
35.086
35.075
35.064
35.053
35.041
35.029
35.017
35.004
34.991
34.979
34.967
34.955
34.944
34.933
34.923
34.913
34.903
34.893
34.883
34.874
34.864
34.853
34.842
34.83
34.817
34.802
34.785
34.768
34.749
34.73
34.711
34.692
34.673
34.655
34.638
34.622
34.608
34.595
34.583
34.571
34.558
34.545
34.531
34.516
34.499
34.482
34.465
34.447
34.43
34.413
34.396
34.38
34.365
34.351
34.338
34.325
34.313
34.302
34.291
34.281
34.27
34.26
34.249
34.237
34.225
34.212
34.198
34.183
34.168
34.152
34.136
34.12
34.104
34.089
34.073
34.058
34.043
34.029
34.017
34.007
34.001
33.999
34.003
34.012
34.03
34.058
34.097
34.15
34.218
34.303
34.408
34.531
34.674
34.835
35.012
35.203
35.405
35.614
35.827
36.04
36.249
36.453
36.647
36.829
36.996
37.146
37.275
37.383
37.471
37.538
37.584
37.612
37.622
37.616
37.597
37.567
37.527
37.481
37.43
37.375
37.318
37.26
37.203
37.148
37.094
37.043
36.994
36.948
36.904
36.862
36.823
36.787
36.754
36.723
36.694
36.667
36.641
36.617
36.593
36.569
36.546
36.522
36.496
36.47
36.441
36.411
36.378
36.343
36.307
36.269
36.231
36.193
36.157
36.123
36.093
36.066
36.044
36.027
36.016
36.011
36.012
36.02
36.035
36.055
36.081
36.112
36.147
36.184
36.225
36.266
36.308
36.35
36.391
36.43
36.466
36.498
36.525
36.546
36.562
36.571
36.573
36.569
36.559
36.543
36.521
36.494
36.462
36.426
36.386
36.344
36.3
36.254
36.208
36.163
36.119
36.076
36.034
35.993
35.953
35.913
35.873
35.833
35.793
35.753
35.713
35.673
35.634
35.595
35.556
35.519
35.483
35.448
35.414
35.381
35.35
35.321
35.293
35.268
35.244
35.223
35.203
35.185
35.168
35.153
35.139
35.125
35.113
35.101
35.09
35.08
35.069
35.059
35.048
35.036
35.023
35.009
34.994
34.978
34.963
34.947
34.932
34.918
34.904
34.89
34.876
34.863
34.85
34.838
34.827
34.817
34.807
34.798
34.789
34.779
34.768
34.757
34.744
34.731
34.716
34.699
34.683
34.666
34.649
34.631
34.614
34.597
34.579
34.56
34.541
34.521
34.501
34.481
34.462
34.443
34.426
34.409
34.393
34.379
34.364
34.35
34.336
34.322
34.309
34.295
34.281
34.268
34.253
34.239
34.223
34.206
34.189
34.17
34.151
34.132
34.111
34.091
34.07
34.05
34.03
34.011
33.994
33.978
33.963
33.95
33.938
33.926
33.915
33.905
33.894
33.885
33.876
33.869
33.863
33.86
33.861
33.867
33.881
33.905
33.941
33.993
34.062
34.15
34.258
34.387
34.536
34.705
34.89
35.09
35.3
35.518
35.74
35.961
36.177
36.384
36.579
36.759
36.922
37.066
37.191
37.296
37.38
37.444
37.489
37.516
37.525
37.518
37.497
37.464
37.42
37.37
37.313
37.253
37.19
37.126
37.063
37.0
36.94
36.882
36.826
36.774
36.726
36.68
36.638
36.6
36.564
36.531
36.5
36.472
36.444
36.417
36.39
36.363
36.334
36.304
36.272
36.238
36.203
36.166
36.128
36.09
36.051
36.014
35.978
35.944
35.913
35.885
35.863
35.847
35.837
35.835
35.84
35.853
35.871
35.896
35.925
35.959
35.996
36.035
36.077
36.12
36.164
36.207
36.25
36.29
36.328
36.362
36.392
36.418
36.439
36.453
36.462
36.463
36.458
36.448
36.431
36.41
36.385
36.356
36.325
36.292
36.256
36.218
36.18
36.14
36.099
36.056
36.013
35.969
35.924
35.879
35.833
35.788
35.742
35.697
35.653
35.61
35.568
35.527
35.488
35.451
35.415
35.381
35.348
35.317
35.287
35.259
35.231
35.205
35.18
35.156
35.133
35.11
35.088
35.067
35.046
35.025
35.006
34.987
34.97
34.955
34.941
34.928
34.916
34.905
34.895
34.885
34.876
34.867
34.858
34.849
34.839
34.83
34.82
34.811
34.802
34.794
34.786
34.777
34.768
34.758
34.748
34.737
34.727
34.717
34.707
34.697
34.687
34.677
34.666
34.654
34.642
34.629
34.616
34.602
34.588
34.574
34.56
34.547
34.533
34.52
34.506
34.493
34.479
34.464
34.449
34.434
34.418
34.401
34.384
34.367
34.349
34.331
34.312
34.294
34.275
34.256
34.238
34.22
34.203
34.187
34.171
34.157
34.142
34.128
34.114
34.1
34.087
34.074
34.062
34.051
34.039
34.028
34.016
34.003
33.989
33.974
33.959
33.943
33.929
33.915
33.901
33.888
33.877
33.867
33.858
33.853
33.851
33.855
33.865
33.884
33.915
33.959
34.02
34.098
34.196
34.313
34.45
34.605
34.778
34.966
35.166
35.375
35.59
35.807
36.021
36.228
36.425
36.608
36.774
36.923
37.053
37.162
37.251
37.32
37.369
37.398
37.411
37.407
37.388
37.356
37.313
37.261
37.201
37.136
37.067
36.996
36.925
36.854
36.784
36.717
36.652
36.59
36.531
36.476
36.424
36.375
36.329
36.286
36.246
36.207
36.17
36.134
36.098
36.062
36.025
35.989
35.952
35.914
35.876
35.836
35.796
35.756
35.715
35.675
35.637
35.601
35.568
35.539
35.515
35.498
35.488
35.484
35.489
35.5
35.519
35.544
35.576
35.613
35.655
35.701
35.75
35.8
35.852
35.903
35.954
36.002
36.046
36.087
36.123
36.154
36.178
36.196
36.208
36.212
36.209
36.199
36.183
36.161
36.133
36.099
36.062
36.021
35.978
35.934
35.889
35.843
35.798
35.754
35.71
35.667
35.624
35.582
35.542
35.501
35.462
35.423
35.385
35.346
35.308
35.27
35.231
35.192
35.154
35.115
35.077
35.04
35.003
34.967
34.933
34.901
34.872
34.845
34.82
34.798
34.78
34.764
34.75
34.737
34.726
34.715
34.704
34.694
34.685
34.676
34.668
34.66
34.652
34.643
34.634
34.623
34.611
34.598
34.585
34.571
34.558
34.547
34.537
34.528
34.521
34.515
34.511
34.508
34.506
34.505
34.503
34.501
34.498
34.495
34.491
34.485
34.479
34.472
34.464
34.455
34.445
34.433
34.42
34.407
34.394
34.381
34.369
34.356
34.344
34.331
34.319
34.307
34.294
34.281
34.269
34.255
34.242
34.227
34.212
34.195
34.178
34.16
34.141
34.121
34.101
34.081
34.061
34.042
34.023
34.006
33.989
33.972
33.956
33.941
33.926
33.911
33.896
33.882
33.868
33.853
33.839
33.825
33.811
33.798
33.785
33.773
33.765
33.76
33.761
33.772
33.792
33.827
33.877
33.945
34.032
34.141
34.27
34.42
34.59
34.777
34.979
35.192
35.414
35.64
35.866
36.089
36.304
36.509
36.699
36.873
37.029
37.165
37.281
37.376
37.449
37.501
37.533
37.546
37.541
37.521
37.488
37.443
37.389
37.328
37.262
37.192
37.121
37.05
36.981
36.913
36.848
36.786
36.726
36.668
36.614
36.562
36.515
36.471
36.43
36.393
36.359
36.328
36.3
36.273
36.247
36.221
36.196
36.17
36.142
36.112
36.08
36.046
36.01
35.972
35.933
35.895
35.859
35.824
35.794
35.768
35.748
35.735
35.728
35.728
35.734
35.746
35.765
35.789
35.819
35.853
35.893
35.935
35.98
36.026
36.071
36.115
36.157
36.197
36.233
36.265
36.292
36.315
36.331
36.341
36.344
36.342
36.333
36.319
36.301
36.278
36.252
36.223
36.191
36.157
36.121
36.082
36.042
36.0
35.958
35.915
35.871
35.827
35.782
35.737
35.692
35.647
35.604
35.561
35.52
35.48
35.441
35.403
35.367
35.332
35.299
35.267
35.236
35.206
35.177
35.149
35.123
35.098
35.074
35.051
35.029
35.009
34.989
34.969
34.95
34.93
34.91
34.889
34.868
34.848
34.828
34.809
34.79
34.772
34.755
34.739
34.725
34.712
34.701
34.693
34.687
34.683
34.68
34.679
34.677
34.676
34.675
34.674
34.672
34.67
34.668
34.665
34.661
34.657
34.651
34.644
34.635
34.625
34.613
34.599
34.585
34.57
34.556
34.541
34.527
34.514
34.501
34.488
34.476
34.464
34.453
34.442
34.431
34.421
34.411
34.4
34.389
34.376
34.361
34.346
34.329
34.311
34.293
34.275
34.257
34.241
34.225
34.21
34.195
34.181
34.168
34.154
34.14
34.126
34.111
34.095
34.079
34.063
34.047
34.032
34.016
34.001
33.984
33.968
33.951
33.934
33.915
33.896
33.876
33.857
33.839
33.824
33.813
33.808
33.81
33.823
33.847
33.885
33.94
34.013
34.106
34.22
34.355
34.51
34.684
34.874
35.078
35.292
35.514
35.74
35.966
36.189
36.404
36.61
36.802
36.978
37.136
37.275
37.393
37.492
37.57
37.628
37.666
37.685
37.687
37.674
37.646
37.607
37.558
37.502
37.44
37.374
37.306
37.237
37.168
37.101
37.037
36.975
36.918
36.863
36.813
36.766
36.722
36.681
36.642
36.607
36.574
36.543
36.514
36.487
36.46
36.434
36.406
36.379
36.35
36.322
36.292
36.263
36.234
36.205
36.177
36.151
36.127
36.105
36.086
36.071
36.059
36.051
36.046
36.045
36.049
36.057
36.069
36.085
36.104
36.126
36.151
36.178
36.208
36.24
36.272
36.304
36.334
36.364
36.391
36.416
36.437
36.455
36.469
36.478
36.484
36.485
36.481
36.473
36.461
36.445
36.425
36.402
36.375
36.346
36.314
36.279
36.242
36.204
36.164
36.123
36.08
36.037
35.994
35.95
35.906
35.862
35.817
35.773
35.729
35.685
35.642
35.599
35.557
35.517
35.479
35.442
35.409
35.378
35.35
35.324
35.299
35.277
35.256
35.236
35.217
35.199
35.182
35.164
35.147
35.129
35.113
35.097
35.082
35.068
35.055
35.042
35.031
35.02
35.011
35.002
34.994
34.986
34.978
34.971
34.964
34.958
34.953
34.949
34.944
34.94
34.936
34.93
34.924
34.916
34.908
34.899
34.889
34.878
34.867
34.854
34.84
34.825
34.81
34.795
34.779
34.763
34.748
34.733
34.719
34.705
34.692
34.679
34.668
34.656
34.644
34.631
34.618
34.604
34.59
34.575
34.56
34.545
34.53
34.514
34.497
34.48
34.462
34.443
34.424
34.405
34.385
34.365
34.346
34.327
34.308
34.291
34.275
34.26
34.247
34.234
34.223
34.212
34.202
34.191
34.18
34.167
34.154
34.139
34.122
34.105
34.086
34.067
34.048
34.029
34.011
33.995
33.98
33.968
33.96
33.957
33.959
33.968
33.984
34.011
34.049
34.102
34.17
34.257
34.362
34.486
34.63
34.791
34.97
35.163
35.369
35.583
35.804
36.027
36.247
36.462
36.668
36.861
37.038
37.197
37.337
37.456
37.553
37.628
37.682
37.716
37.731
37.729
37.711
37.679
37.637
37.586
37.529
37.467
37.403
37.337
37.272
37.207
37.145
37.084
37.027
36.973
36.922
36.876
36.833
36.795
36.761
36.729
36.7
36.673
36.647
36.621
36.597
36.571
36.545
36.518
36.488
36.457
36.424
36.39
36.354
36.316
36.279
36.241
36.205
36.171
36.139
36.111
36.086
36.067
36.054
36.046
36.046
36.051
36.064
36.083
36.108
36.138
36.172
36.21
36.251
36.293
36.335
36.376
36.417
36.455
36.492
36.525
36.556
36.582
36.605
36.622
36.634
36.641
36.642
36.639
36.63
36.617
36.6
36.577
36.551
36.52
36.485
36.448
36.407
36.364
36.319
36.273
36.226
36.178
36.131
36.083
36.037
35.992
35.948
35.905
35.862
35.821
35.782
35.744
35.707
35.672
35.638
35.605
35.573
35.543
35.513
35.484
35.456
35.428
35.4
35.374
35.348
35.323
35.299
35.277
35.255
35.234
35.214
35.195
35.178
35.162
35.147
35.134
35.121
35.11
35.1
35.091
35.083
35.076
35.069
35.063
35.058
35.054
35.05
35.048
35.045
35.043
35.04
35.036
35.032
35.027
35.021
35.015
35.008
35.0
34.992
34.982
34.972
34.961
34.949
34.937
34.925
34.913
34.901
34.888
34.875
34.862
34.848
34.834
34.82
34.805
34.791
34.776
34.761
34.746
34.73
34.714
34.698
34.682
34.666
34.65
34.634
34.617
34.601
34.585
34.569
34.553
34.538
34.524
34.509
34.494
34.48
34.465
34.449
34.434
34.417
34.4
34.383
34.366
34.349
34.331
34.312
34.294
34.276
34.257
34.239
34.221
34.204
34.188
34.175
34.165
34.159
34.157
34.163
34.176
34.2
34.235
34.286
34.352
34.436
34.539
34.661
34.803
34.964
35.141
35.333
35.536
35.747
35.962
36.178
36.389
36.594
36.787
36.966
37.128
37.271
37.394
37.497
37.58
37.642
37.686
37.712
37.72
37.714
37.695
37.665
37.625
37.578
37.525
37.469
37.409
37.349
37.288
37.229
37.172
37.117
37.066
37.018
36.972
36.93
36.889
36.85
36.813
36.778
36.743
36.71
36.677
36.645
36.613
36.581
36.548
36.513
36.476
36.437
36.397
36.356
36.314
36.271
36.229
36.188
36.15
36.114
36.082
36.055
36.034
36.019
36.012
36.012
36.021
36.038
36.062
36.093
36.13
36.173
36.222
36.274
36.329
36.386
36.443
36.498
36.55
36.597
36.639
36.675
36.703
36.724
36.736
36.741
36.738
36.727
36.709
36.684
36.653
36.617
36.577
36.534
36.488
36.44
36.39
36.34
36.289
36.238
36.187
36.136
36.086
36.036
35.988
35.942
35.898
35.857
35.818
35.781
35.748
35.716
35.686
35.658
35.63
35.604
35.578
35.553
35.529
35.504
35.48
