Trial 1:0back
32.547
32.809
33.115
33.464
33.855
34.284
34.749
35.243
35.761
36.296
36.841
37.389
37.933
38.465
38.978
39.466
39.923
40.345
40.728
41.068
41.365
41.618
41.827
41.993
42.117
42.201
42.248
42.26
42.241
42.193
42.119
42.023
41.908
41.776
41.629
41.471
41.304
41.131
40.953
40.773
40.592
40.412
40.234
40.058
39.886
39.718
39.553
39.392
39.234
39.079
38.925
38.773
38.621
38.468
38.315
38.161
38.006
37.85
37.693
37.537
37.382
37.23
37.081
36.937
36.799
36.668
36.546
36.434
36.333
36.243
36.165
36.1
36.047
36.006
35.976
35.957
35.948
35.948
35.955
35.97
35.99
36.014
36.04
36.068
36.097
36.124
36.149
36.172
36.19
36.203
36.212
36.213
36.208
36.196
36.176
36.148
36.113
36.071
36.022
35.967
35.907
35.841
35.772
35.698
35.621
35.541
35.459
35.375
35.289
35.202
35.113
35.024
34.934
34.844
34.755
34.666
34.577
34.489
34.402
34.317
34.232
34.149
34.068
33.987
33.908
33.831
33.755
33.68
33.607
33.536
33.466
33.399
33.333
33.269
33.207
33.147
33.089
33.032
32.977
32.925
32.873
32.824
32.776
32.729
32.684
32.641
32.598
32.556
32.515
32.476
32.437
32.399
32.362
32.327
32.292
32.259
32.226
32.194
32.163
32.132
32.101
32.069
32.037
32.005
31.972
31.939
31.908
31.878
31.852
31.83
31.815
31.809
31.816
31.84
31.885
31.957
32.059
32.196
32.373
32.591
32.853
33.16
33.511
33.904
34.335
34.8
35.294
35.81
36.342
36.881
37.421
37.954
38.473
38.971
39.442
39.881
40.285
40.648
40.97
41.248
41.481
41.67
41.816
41.919
41.983
42.01
42.003
41.965
41.9
41.811
41.701
41.573
41.43
41.275
41.111
40.939
40.761
40.58
40.396
40.212
40.029
39.847
39.667
39.488
39.312
39.138
38.966
38.794
38.624
38.454
38.285
38.116
37.949
37.782
37.616
37.452
37.291
37.133
36.978
36.828
36.683
36.545
36.415
36.293
36.18
36.078
35.986
35.906
35.837
35.78
35.735
35.702
35.68
35.668
35.666
35.673
35.688
35.709
35.737
35.77
35.806
35.844
35.882
35.92
35.954
35.986
36.012
36.032
36.046
36.053
36.051
36.042
36.024
35.998
35.964
35.922
35.872
35.815
35.752
35.683
35.609
35.53
35.447
35.362
35.275
35.186
35.097
35.007
34.917
34.828
34.738
34.649
34.56
34.471
34.383
34.296
34.209
34.123
34.038
33.954
33.871
33.79
33.711
33.633
33.558
33.484
33.412
33.341
33.272
33.204
33.139
33.076
33.016
32.958
32.902
32.849
32.797
32.746
32.698
32.65
32.604
32.559
32.515
32.472
32.429
32.388
32.347
32.308
32.27
32.232
32.196
32.16
32.124
32.09
32.057
32.024
31.993
31.962
31.932
31.901
31.87
31.838
31.806
31.772
31.738
31.703
31.669
31.635
31.602
31.572
31.547
31.529
31.521
31.528
31.552
31.599
31.673
31.779
31.919
32.098
32.318
32.58
32.884
33.231
33.616
34.038
34.492
34.971
35.471
35.983
36.501
37.017
37.523
38.013
38.48
38.92
39.326
39.696
40.026
40.313
40.556
40.755
40.91
41.022
41.094
41.127
41.126
41.093
41.031
40.944
40.836
40.709
40.567
40.412
40.246
40.073
39.893
39.71
39.524
39.338
39.153
38.97
38.79
38.614
38.441
38.27
38.102
37.936
37.771
37.607
37.444
37.28
37.116
36.951
36.786
36.621
36.456
36.292
36.13
35.972
35.818
35.67
35.529
35.397
35.275
35.164
35.065
34.979
34.907
34.849
34.805
34.776
34.761
34.759
34.77
34.791
34.823
34.863
34.909
34.962
35.017
35.075
35.133
35.19
35.244
35.294
35.339
35.377
35.407
35.429
35.44
35.442
35.432
35.412
35.381
35.339
35.288
35.228
35.16
35.085
35.004
34.917
34.826
34.731
34.633
34.534
34.433
34.332
34.231
34.131
34.031
33.933
33.836
33.741
33.647
33.556
33.467
33.38
33.295
33.211
33.128
33.046
32.965
32.885
32.804
32.725
32.646
32.568
32.491
32.415
32.339
32.265
32.191
32.119
32.048
31.98
31.914
31.85
31.789
31.731
31.675
31.622
31.572
31.524
31.478
31.434
31.392
31.352
31.314
31.278
31.242
31.208
31.174
31.14
31.107
31.074
31.04
31.006
30.971
30.936
30.901
30.866
30.834
30.804
30.779
30.763
30.757
30.765
30.791
30.84
30.914
31.019
31.157
31.331
31.543
31.795
32.086
32.414
32.778
33.173
33.595
34.039
34.498
34.967
35.44
35.908
36.367
36.809
37.23
37.623
37.986
38.314
38.606
38.859
39.072
39.247
39.383
39.483
39.547
39.579
39.581
39.555
39.504
39.432
39.341
39.234
39.114
38.981
38.84
38.691
38.536
38.378
38.216
38.053
37.889
37.725
37.562
37.4
37.24
37.081
36.925
36.77
36.617
36.465
36.315
36.166
36.018
35.872
35.727
35.584
35.443
35.304
35.168
35.037
34.909
34.787
34.671
34.562
34.461
34.369
34.287
34.215
34.153
34.102
34.061
34.031
34.011
34.0
33.997
34.002
34.014
34.031
34.052
34.075
34.1
34.126
34.152
34.176
34.198
34.217
34.233
34.245
34.253
34.256
34.254
34.247
34.233
34.213
34.186
34.153
34.113
34.067
34.016
33.959
33.898
33.833
33.764
33.692
33.618
33.541
33.463
33.384
33.304
33.223
33.142
33.061
32.979
32.898
32.818
32.738
32.66
32.583
32.508
32.435
32.363
32.294
32.226
32.161
32.097
32.035
31.975
31.917
31.861
31.807
31.755
31.705
31.657
31.611
31.566
31.524
31.483
31.444
31.406
31.369
31.333
31.297
31.261
31.225
31.189
31.152
31.115
31.077
31.04
31.003
30.966
30.929
30.893
30.859
30.825
30.793
30.761
30.732
30.703
30.676
30.65
30.626
30.602
30.581
30.564
30.551
30.546
30.552
30.572
30.61
30.671
30.758
30.875
31.025
31.211
31.434
31.695
31.993
32.328
32.698
33.098
33.525
33.972
34.434
34.904
35.374
35.839
36.292
36.727
37.139
37.522
37.873
38.189
38.468
38.709
38.912
39.078
39.207
39.302
39.365
39.397
39.402
39.382
39.339
39.277
39.197
39.103
38.996
38.88
38.756
38.627
38.494
38.36
38.224
38.089
37.956
37.824
37.695
37.569
37.445
37.322
37.202
37.083
36.966
36.849
36.731
36.614
36.496
36.377
36.257
36.137
36.016
35.895
35.775
35.655
35.536
35.42
35.307
35.198
35.093
34.995
34.903
34.819
34.744
34.679
34.623
34.578
34.544
34.52
34.505
34.498
34.5
34.509
34.523
34.541
34.562
34.584
34.606
34.627
34.647
34.664
34.679
34.69
34.698
34.701
34.699
34.691
34.678
34.659
34.634
34.604
34.568
34.527
34.482
34.433
34.381
34.326
34.268
34.208
34.146
34.083
34.017
33.951
33.883
33.813
33.742
33.67
33.597
33.523
33.448
33.374
33.299
33.226
33.154
33.083
33.014
32.948
32.884
32.823
32.765
32.71
32.658
32.607
32.56
32.514
32.469
32.426
32.382
32.338
32.292
32.246
32.198
32.15
32.102
32.055
32.008
31.963
31.919
31.878
31.839
31.803
31.769
31.738
31.71
31.683
31.659
31.637
31.616
31.597
31.578
31.559
31.54
31.521
31.5
31.478
31.455
31.43
31.405
31.379
31.353
31.326
31.3
31.274
31.249
31.225
31.202
31.181
31.163
31.148
31.139
31.136
31.143
31.163
31.2
31.257
31.338
31.447
31.586
31.757
31.963
32.204
32.479
32.788
33.128
33.495
33.886
34.296
34.719
35.15
35.582
36.009
36.426
36.827
37.207
37.56
37.885
38.177
38.435
38.658
38.846
38.999
39.118
39.205
39.263
39.293
39.299
39.283
39.248
39.196
39.13
39.051
38.962
38.864
38.76
38.65
38.536
38.418
38.299
38.179
38.058
37.937
37.816
37.696
37.577
37.46
37.344
37.23
37.117
37.005
36.893
36.78
36.667
36.553
36.437
36.321
36.203
36.086
35.969
35.854
35.742
35.634
35.53
35.432
35.341
35.257
35.181
35.113
35.055
35.006
34.967
34.936
34.915
34.901
34.895
34.895
34.901
34.911
34.925
34.942
34.961
34.981
35.0
35.02
35.038
35.054
35.067
35.078
35.085
35.088
35.087
35.081
35.07
35.054
35.033
35.007
34.976
34.941
34.9
34.855
34.805
34.752
34.694
34.633
34.568
34.502
34.434
34.364
34.293
34.222
34.151
34.08
34.01
33.941
33.873
33.805
33.739
33.673
33.609
33.546
33.484
33.424
33.365
33.307
33.25
33.195
33.14
33.086
33.033
32.98
32.928
32.876
32.825
32.774
32.724
32.676
32.628
32.583
32.538
32.495
32.454
32.415
32.377
32.341
32.307
32.275
32.245
32.217
32.19
32.165
32.142
32.12
32.098
32.077
32.057
32.036
32.014
31.992
31.969
31.946
31.922
31.898
31.874
31.849
31.825
31.801
31.777
31.753
31.729
31.705
31.681
31.656
31.632
31.607
31.582
31.557
31.533
31.509
31.485
31.463
31.443
31.425
31.412
31.405
31.408
31.422
31.451
31.498
31.567
31.661
31.782
31.934
32.118
32.334
32.582
32.862
33.171
33.508
33.868
34.247
34.64
35.043
35.448
35.852
36.247
36.628
36.992
37.333
37.647
37.933
38.187
38.408
38.595
38.749
38.869
38.958
39.016
39.047
39.053
39.036
39.0
38.946
38.877
38.795
38.703
38.603
38.495
38.383
38.267
38.148
38.029
37.909
37.79
37.672
37.555
37.44
37.326
37.213
37.102
36.991
36.88
36.77
36.658
36.547
36.435
36.322
36.209
36.096
35.983
35.871
35.761
35.654
35.551
35.454
35.362
35.278
35.202
35.134
35.074
35.023
34.981
34.947
34.922
34.906
34.898
34.897
34.903
34.917
34.936
34.961
34.991
35.025
35.061
35.1
35.139
35.178
35.215
35.249
35.279
35.305
35.325
35.339
35.347
35.348
35.343
35.331
35.312
35.287
35.255
35.217
35.173
35.124
35.07
35.011
34.947
34.88
34.809
34.736
34.661
34.583
34.505
34.426
34.346
34.266
34.187
34.107
34.029
33.953
33.878
33.804
33.732
33.662
33.595
33.53
33.467
33.408
33.351
33.298
33.248
33.202
33.158
33.118
33.08
33.045
33.012
32.981
32.951
32.922
32.893
32.864
32.833
32.802
32.77
32.736
32.702
32.666
32.63
32.594
32.558
32.522
32.487
32.454
32.422
32.391
32.363
32.336
32.311
32.289
32.267
32.248
32.229
32.212
32.194
32.177
32.158
32.139
32.118
32.096
32.072
32.046
32.017
31.987
31.954
31.92
31.885
31.849
31.814
31.781
31.751
31.726
31.709
31.702
31.707
31.727
31.766
31.827
31.914
32.029
32.174
32.353
32.565
32.81
33.088
33.396
33.73
34.087
34.463
34.852
35.25
35.65
36.046
36.435
36.81
37.168
37.505
37.817
38.101
38.356
38.579
38.77
38.929
39.058
39.156
39.227
39.271
39.291
39.289
39.267
39.228
39.173
39.104
39.025
38.937
38.842
38.74
38.634
38.525
38.414
38.301
38.188
38.075
37.963
37.851
37.74
37.63
37.521
37.411
37.302
37.191
37.08
36.967
36.853
36.738
36.621
36.503
36.386
36.269
36.154
36.041
35.932
35.826
35.726
35.632
35.545
35.465
35.393
35.329
35.275
35.23
35.194
35.167
35.151
35.142
35.142
35.149
35.163
35.183
35.207
35.235
35.265
35.297
35.33
35.362
35.392
35.42
35.444
35.465
35.481
35.492
35.499
35.501
35.498
35.489
35.475
35.455
35.43
35.398
35.361
35.318
35.27
35.218
35.162
35.102
35.038
34.972
34.904
34.834
34.763
34.691
34.62
34.549
34.479
34.41
34.342
34.276
34.211
34.147
34.083
34.021
33.958
33.896
33.834
33.773
33.712
33.652
33.593
33.535
33.479
33.425
33.373
33.323
33.276
33.23
33.187
33.145
33.105
33.066
33.029
32.993
32.957
32.923
32.889
32.856
32.825
32.794
32.763
32.734
32.705
32.678
32.653
32.629
32.607
32.587
32.567
32.549
32.531
32.512
32.492
32.472
32.451
32.43
32.408
32.386
32.363
32.341
32.319
32.297
32.275
32.252
32.229
32.206
32.181
32.157
32.133
32.11
32.089
32.07
32.056
32.047
32.046
32.055
32.077
32.117
32.176
32.26
32.37
32.51
32.682
32.888
33.129
33.404
33.711
34.05
34.416
34.806
35.216
35.64
36.073
36.51
36.947
37.376
37.794
38.195
38.575
38.931
39.259
39.557
39.823
40.057
40.258
40.427
40.563
40.669
40.746
40.796
40.821
40.822
40.803
40.766
40.713
40.647
40.568
40.48
40.384
40.281
40.173
40.063
39.95
39.836
39.722
39.608
39.495
39.384
39.275
39.167
39.061
38.956
38.851
38.747
38.641
38.535
38.427
38.317
38.205
38.091
37.976
37.86
37.744
37.63
37.516
37.406
37.299
37.197
37.101
37.01
36.927
36.85
36.782
36.721
36.668
36.623
36.586
36.557
36.534
36.518
36.508
36.503
36.504
36.509
36.516
36.526
36.538
36.55
36.561
36.572
36.582
36.59
36.595
36.597
36.596
36.59
36.58
36.565
36.544
36.519
36.489
36.454
36.413
36.367
36.316
36.261
36.2
36.136
36.067
35.996
35.921
35.845
35.767
35.689
35.61
35.531
35.452
35.374
35.298
35.223
35.148
35.075
35.003
34.933
34.864
34.796
34.729
34.664
34.599
34.536
34.474
34.413
34.353
34.295
34.237
34.181
34.127
34.074
34.021
33.971
33.92
33.871
33.822
33.774
33.726
33.679
33.634
33.589
33.545
33.503
33.462
33.422
33.382
33.344
33.307
33.272
33.237
33.205
33.174
33.145
33.117
33.091
33.066
33.042
33.019
32.995
32.972
32.947
32.922
32.897
32.87
32.843
32.815
32.787
32.76
32.733
32.706
32.68
32.654
32.629
32.604
32.581
32.559
32.54
32.524
32.514
32.51
32.516
32.534
32.568
32.622
32.697
32.799
32.93
33.093
33.29
33.522
33.788
34.089
34.421
34.784
35.172
35.583
36.01
36.45
36.896
37.343
37.785
38.217
38.633
39.029
39.4
39.743
40.056
40.336
40.582
40.794
40.972
41.116
41.227
41.307
41.359
41.383
41.383
41.362
41.322
41.264
41.192
41.108
41.012
40.908
40.795
40.676
40.552
40.425
40.294
40.162
40.03
39.898
39.766
39.636
39.507
39.379
39.253
39.129
39.006
38.884
38.763
38.642
38.52
38.398
38.274
38.15
38.026
37.901
37.777
37.654
37.534
37.416
37.304
37.196
37.095
37.001
36.916
36.839
36.77
36.711
36.661
36.619
36.587
36.564
36.549
36.543
36.545
36.554
36.57
36.59
36.614
36.64
36.668
36.695
36.721
36.743
36.762
36.776
36.785
36.788
36.784
36.773
36.754
36.729
36.696
36.658
36.613
36.562
36.507
36.446
36.382
36.314
36.244
36.171
36.096
36.019
35.94
35.861
35.781
35.701
35.621
35.54
35.46
35.38
35.301
35.221
35.142
35.064
34.986
34.909
34.833
34.758
34.683
34.608
34.535
34.462
34.39
34.319
34.25
34.182
34.116
34.051
33.988
33.927
33.867
33.809
33.752
33.698
33.645
33.595
33.546
33.498
33.453
33.409
33.366
33.325
33.284
33.245
33.207
33.171
33.135
33.1
33.067
33.035
33.004
32.974
32.945
32.916
32.888
32.86
32.833
32.807
32.781
32.756
32.731
32.707
32.683
32.66
32.636
32.611
32.586
32.56
32.534
32.507
32.479
32.452
32.426
32.401
32.38
32.364
32.355
32.356
32.371
32.403
32.456
32.533
32.638
32.774
32.943
33.148
33.389
33.666
33.977
34.322
34.696
35.095
35.514
35.949
36.392
36.839
37.283
37.719
38.14
38.542
38.919
39.269
39.587
39.873
40.123
40.338
40.518
40.662
40.772
40.85
40.896
40.914
40.906
40.874
40.821
40.75
40.663
40.564
40.453
40.333
40.207
40.074
39.938
39.798
39.656
39.512
39.367
39.221
39.074
38.927
38.779
38.631
38.482
38.333
38.183
38.033
37.882
37.732
37.582
37.433
37.286
37.142
37.002
36.865
36.734
36.608
36.488
36.376
36.272
36.177
36.092
36.016
35.951
35.897
35.854
35.821
35.799
35.786
35.783
35.789
35.802
35.823
35.849
35.879
35.913
35.949
35.986
36.023
36.06
36.094
36.125
36.153
36.175
36.192
36.202
36.205
36.202
36.19
36.172
36.146
36.113
36.074
36.028
35.977
35.921
35.86
35.794
35.724
35.651
35.573
35.492
35.409
35.324
35.237
35.15
35.064
34.977
34.892
34.808
34.725
34.643
34.563
34.484
34.408
34.332
34.258
34.186
34.115
34.045
33.977
33.91
33.844
33.78
33.716
33.654
33.592
33.532
33.472
33.413
33.354
33.297
33.241
33.186
33.131
33.078
33.025
32.973
32.921
32.87
32.82
32.77
32.721
32.673
32.626
32.58
32.536
32.493
32.452
32.412
32.375
32.339
32.307
32.277
32.25
32.226
32.205
32.186
32.17
32.157
32.146
32.137
32.129
32.122
32.114
32.106
32.098
32.088
32.078
32.067
32.058
32.051
32.048
32.053
32.069
32.098
32.147
32.217
32.314
32.441
32.6
32.795
33.027
33.297
33.605
33.95
34.33
34.74
35.177
35.634
36.106
36.586
37.068
37.544
38.009
38.455
38.879
39.275
39.639
39.968
40.26
40.514
40.729
40.905
41.045
41.148
41.217
41.254
41.262
41.242
41.198
41.131
41.046
40.943
40.826
40.698
40.559
40.412
40.258
40.1
39.937
39.773
39.607
39.441
39.277
39.113
38.952
38.792
38.635
38.479
38.326
38.174
38.023
37.874
37.727
37.581
37.436
37.293
37.152
37.013
36.877
36.744
36.616
36.491
36.372
36.259
36.152
36.054
35.964
35.883
35.812
35.752
35.701
35.661
35.631
35.609
35.596
35.592
35.595
35.605
35.622
35.645
35.672
35.702
35.735
35.769
35.803
35.837
35.868
35.896
35.919
35.936
35.947
35.951
35.946
35.934
35.915
35.887
35.853
35.812
35.764
35.71
35.651
35.588
35.521
35.451
35.379
35.306
35.231
35.155
35.079
35.002
34.924
34.845
34.765
34.686
34.605
34.525
34.444
34.363
34.281
34.2
34.118
34.038
33.959
33.881
33.806
33.733
33.662
33.595
33.53
33.467
33.407
33.349
33.292
33.236
33.18
33.126
33.071
33.017
32.963
32.91
32.857
32.806
32.757
32.708
32.661
32.616
32.571
32.528
32.487
32.448
32.411
32.375
32.342
32.311
32.281
32.252
32.225
32.199
32.175
32.15
32.127
32.104
32.082
32.059
32.036
32.012
31.987
31.961
31.935
31.909
31.881
31.854
31.826
31.799
31.773
31.748
31.726
31.707
31.694
31.688
31.693
31.71
31.744
31.798
31.876
31.983
32.121
32.296
32.509
32.763
33.059
33.396
33.773
34.188
34.637
35.114
35.615
36.133
36.661
37.193
37.721
38.239
38.74
39.218
39.669
40.087
40.469
40.813
41.117
41.379
41.6
41.781
41.922
42.025
42.093
42.127
42.132
42.11
42.063
41.995
41.908
41.805
41.687
41.558
41.419
41.272
41.119
40.962
40.801
40.637
40.473
40.308
40.144
39.981
39.819
39.657
39.497
39.338
39.18
39.023
38.866
38.71
38.554
38.399
38.244
38.091
37.938
37.788
37.639
37.493
37.35
37.211
37.077
36.949
36.828
36.715
36.61
36.514
36.427
36.35
36.283
36.226
36.179
36.142
36.115
36.098
36.089
36.089
36.095
36.108
36.127
36.15
36.175
36.202
36.229
36.255
36.279
36.3
36.317
36.329
36.336
36.338
36.333
36.322
36.303
36.278
36.246
36.207
36.162
36.11
36.054
35.992
35.926
35.856
35.782
35.706
35.628
35.547
35.466
35.384
35.301
35.217
35.133
35.048
34.963
34.878
34.793
34.708
34.623
34.538
34.453
34.37
34.287
34.206
34.126
34.047
33.97
33.893
33.818
33.744
33.671
33.601
33.532
33.466
33.402
33.341
33.283
33.227
33.173
33.121
33.07
33.021
32.973
32.925
32.878
32.83
32.783
32.735
32.688
32.641
32.595
32.55
32.506
32.463
32.422
32.382
32.344
32.308
32.273
32.24
32.207
32.175
32.144
32.114
32.085
32.057
32.03
32.004
31.979
31.955
31.932
31.908
31.885
31.861
31.838
31.815
31.793
31.773
31.759
31.753
31.759
31.781
31.823
31.89
31.985
32.115
32.281
32.489
32.738
33.032
33.368
33.746
34.163
34.616
35.097
35.603
36.125
36.657
37.191
37.719
38.236
38.735
39.209
39.654
40.065
40.439
40.774
41.067
41.319
41.529
41.698
41.827
41.918
41.974
41.997
41.989
41.954
41.895
41.815
41.716
41.602
41.474
41.336
41.188
41.032
40.871
40.704
40.533
40.36
40.184
40.009
39.833
39.657
39.483
39.308
39.135
38.962
38.789
38.618
38.447
38.278
38.109
37.941
37.775
37.61
37.447
37.287
37.13
36.977
36.828
36.686
36.551
36.424
36.307
36.2
36.105
36.021
35.949
35.889
35.841
35.804
35.778
35.763
35.757
35.76
35.77
35.788
35.811
35.839
35.871
35.904
35.939
35.975
36.011
36.045
36.077
36.106
36.129
36.146
36.157
36.16
36.156
36.144
36.125
36.1
36.067
36.028
35.983
35.932
35.876
35.814
35.748
35.677
35.603
35.525
35.445
35.362
35.277
35.191
35.103
35.015
34.926
34.837
34.747
34.659
34.571
34.485
34.399
34.315
34.231
34.148
34.066
33.985
33.907
33.829
33.753
33.679
33.606
33.534
33.463
33.394
33.326
33.26
33.196
33.134
33.074
33.016
32.96
32.906
32.853
32.801
32.751
32.702
32.654
32.608
32.563
32.52
32.478
32.438
32.399
