Trial 1:0back
38.119
38.208
38.275
38.323
38.354
38.369
38.37
38.36
38.34
38.31
38.274
38.234
38.19
38.145
38.102
38.06
38.021
37.987
37.957
37.932
37.911
37.895
37.883
37.875
37.869
37.866
37.866
37.866
37.867
37.868
37.867
37.864
37.857
37.846
37.829
37.807
37.778
37.744
37.705
37.662
37.616
37.566
37.514
37.46
37.403
37.345
37.287
37.229
37.174
37.123
37.076
37.035
36.999
36.97
36.947
36.931
36.92
36.913
36.91
36.908
36.907
36.909
36.912
36.916
36.921
36.925
36.928
36.929
36.927
36.923
36.917
36.91
36.901
36.89
36.875
36.856
36.834
36.808
36.78
36.751
36.719
36.687
36.653
36.618
36.582
36.544
36.504
36.463
36.42
36.375
36.33
36.283
36.236
36.188
36.139
36.09
36.04
35.99
35.941
35.891
35.842
35.795
35.75
35.707
35.667
35.63
35.594
35.56
35.526
35.492
35.457
35.422
35.388
35.355
35.323
35.292
35.262
35.233
35.205
35.178
35.151
35.126
35.101
35.077
35.054
35.031
35.009
34.987
34.966
34.946
34.926
34.907
34.886
34.866
34.845
34.824
34.804
34.783
34.762
34.742
34.722
34.702
34.683
34.664
34.645
34.626
34.606
34.584
34.558
34.529
34.498
34.465
34.433
34.403
34.375
34.351
34.329
34.309
34.293
34.279
34.267
34.258
34.25
34.241
34.232
34.221
34.208
34.194
34.179
34.164
34.149
34.135
34.12
34.106
34.09
34.075
34.059
34.043
34.026
34.007
33.988
33.966
33.942
33.915
33.888
33.859
33.83
33.8
33.771
33.743
33.717
33.693
33.672
33.657
33.647
33.646
33.655
33.678
33.717
33.775
33.855
33.958
34.087
34.243
34.424
34.629
34.857
35.106
35.371
35.651
35.941
36.236
36.531
36.819
37.096
37.357
37.599
37.82
38.019
38.194
38.345
38.47
38.57
38.645
38.698
38.731
38.747
38.749
38.74
38.723
38.698
38.669
38.638
38.606
38.575
38.548
38.523
38.501
38.482
38.465
38.451
38.441
38.434
38.43
38.428
38.428
38.43
38.432
38.435
38.439
38.442
38.444
38.444
38.442
38.437
38.43
38.419
38.403
38.383
38.357
38.324
38.285
38.24
38.19
38.134
38.074
38.01
37.944
37.876
37.808
37.741
37.676
37.614
37.555
37.502
37.454
37.411
37.375
37.346
37.322
37.304
37.291
37.281
37.274
37.269
37.265
37.261
37.257
37.252
37.246
37.238
37.227
37.214
37.197
37.178
37.156
37.13
37.101
37.069
37.033
36.996
36.958
36.92
36.881
36.842
36.801
36.757
36.711
36.665
36.618
36.572
36.526
36.481
36.434
36.387
36.338
36.289
36.238
36.187
36.136
36.086
36.036
35.987
35.94
35.895
35.851
35.808
35.766
35.723
35.681
35.638
35.595
35.551
35.507
35.463
35.418
35.374
35.331
35.289
35.247
35.207
35.169
35.134
35.102
35.072
35.043
35.015
34.986
34.956
34.925
34.895
34.865
34.835
34.806
34.777
34.749
34.723
34.698
34.676
34.656
34.639
34.622
34.607
34.591
34.574
34.556
34.535
34.513
34.49
34.466
34.442
34.416
34.391
34.365
34.34
34.315
34.291
34.267
34.242
34.217
34.192
34.166
34.139
34.113
34.087
34.061
34.035
34.008
33.982
33.957
33.931
33.906
33.881
33.858
33.835
33.813
33.792
33.772
33.754
33.738
33.725
33.714
33.705
33.698
33.691
33.683
33.674
33.663
33.651
33.637
33.621
33.601
33.579
33.554
33.528
33.502
33.476
33.451
33.428
33.407
33.387
33.368
33.352
33.338
33.327
33.322
33.325
33.338
33.364
33.406
33.467
33.55
33.658
33.792
33.953
34.138
34.347
34.577
34.827
35.092
35.369
35.654
35.941
36.226
36.506
36.776
37.032
37.272
37.492
37.69
37.865
38.014
38.138
38.236
38.31
38.362
38.393
38.407
38.405
38.391
38.365
38.331
38.29
38.245
38.198
38.153
38.11
38.071
38.036
38.007
37.982
37.963
37.95
37.942
37.939
37.941
37.946
37.954
37.964
37.974
37.983
37.99
37.994
37.995
37.99
37.982
37.968
37.95
37.926
37.897
37.864
37.826
37.784
37.738
37.688
37.634
37.577
37.518
37.458
37.397
37.338
37.28
37.227
37.177
37.132
37.09
37.052
37.018
36.988
36.961
36.936
36.914
36.894
36.876
36.863
36.854
36.847
36.842
36.837
36.832
36.825
36.818
36.81
36.802
36.792
36.78
36.766
36.747
36.725
36.7
36.671
36.639
36.605
36.569
36.532
36.494
36.456
36.418
36.38
36.341
36.302
36.263
36.224
36.185
36.146
36.106
36.067
36.027
35.987
35.946
35.906
35.866
35.826
35.787
35.749
35.713
35.679
35.646
35.615
35.584
35.553
35.52
35.486
35.45
35.412
35.373
35.332
35.29
35.247
35.203
35.161
35.121
35.085
35.052
35.023
34.996
34.971
34.947
34.923
34.898
34.873
34.847
34.82
34.792
34.764
34.735
34.706
34.678
34.651
34.625
34.6
34.576
34.554
34.533
34.513
34.494
34.476
34.458
34.442
34.425
34.408
34.392
34.375
34.359
34.342
34.327
34.311
34.295
34.279
34.263
34.246
34.231
34.217
34.205
34.192
34.18
34.167
34.153
34.138
34.121
34.103
34.085
34.065
34.045
34.024
34.001
33.977
33.951
33.923
33.894
33.865
33.834
33.802
33.769
33.735
33.702
33.669
33.638
33.608
33.581
33.556
33.533
33.514
33.497
33.483
33.472
33.465
33.463
33.466
33.478
33.498
33.531
33.579
33.644
33.727
33.83
33.953
34.098
34.266
34.457
34.668
34.899
35.146
35.404
35.67
35.938
36.203
36.462
36.711
36.948
37.167
37.368
37.547
37.703
37.834
37.941
38.024
38.085
38.126
38.147
38.151
38.139
38.113
38.077
38.032
37.981
37.927
37.871
37.815
37.76
37.707
37.658
37.614
37.574
37.54
37.511
37.487
37.468
37.453
37.441
37.43
37.42
37.411
37.4
37.389
37.375
37.357
37.336
37.309
37.277
37.241
37.199
37.153
37.102
37.048
36.991
36.932
36.871
36.809
36.749
36.691
36.636
36.585
36.537
36.493
36.452
36.417
36.385
36.359
36.336
36.317
36.3
36.285
36.274
36.265
36.261
36.261
36.265
36.272
36.28
36.287
36.293
36.297
36.3
36.299
36.296
36.288
36.276
36.259
36.238
36.213
36.184
36.152
36.117
36.08
36.041
36.002
35.962
35.921
35.878
35.833
35.786
35.738
35.688
35.638
35.587
35.535
35.484
35.434
35.385
35.338
35.293
35.25
35.208
35.169
35.132
35.099
35.069
35.043
35.018
34.994
34.969
34.944
34.919
34.892
34.865
34.837
34.808
34.778
34.747
34.715
34.684
34.652
34.62
34.588
34.557
34.527
34.496
34.465
34.433
34.402
34.37
34.34
34.312
34.284
34.258
34.234
34.21
34.188
34.167
34.147
34.128
34.109
34.089
34.068
34.045
34.023
34.002
33.983
33.964
33.945
33.926
33.907
33.886
33.865
33.843
33.82
33.797
33.775
33.752
33.73
33.708
33.686
33.665
33.645
33.625
33.605
33.586
33.568
33.55
33.533
33.518
33.503
33.487
33.471
33.453
33.433
33.41
33.386
33.36
33.333
33.307
33.279
33.252
33.225
33.198
33.174
33.153
33.134
33.117
33.103
33.089
33.076
33.062
33.049
33.036
33.023
33.01
32.997
32.984
32.97
32.956
32.94
32.924
32.908
32.893
32.877
32.861
32.846
32.834
32.825
32.822
32.829
32.847
32.881
32.931
33.002
33.096
33.214
33.36
33.532
33.732
33.956
34.204
34.471
34.754
35.047
35.346
35.644
35.938
36.222
36.491
36.742
36.971
37.175
37.353
37.505
37.631
37.732
37.81
37.864
37.898
37.911
37.909
37.891
37.863
37.825
37.779
37.729
37.677
37.624
37.573
37.525
37.482
37.444
37.412
37.386
37.365
37.349
37.338
37.33
37.326
37.324
37.325
37.328
37.332
37.337
37.342
37.347
37.351
37.353
37.352
37.347
37.339
37.326
37.308
37.284
37.254
37.218
37.177
37.131
37.08
37.024
36.963
36.901
36.837
36.774
36.713
36.655
36.599
36.545
36.495
36.448
36.405
36.367
36.334
36.306
36.282
36.263
36.248
36.237
36.23
36.226
36.223
36.222
36.219
36.216
36.21
36.201
36.19
36.177
36.161
36.143
36.123
36.1
36.076
36.049
36.019
35.987
35.952
35.916
35.879
35.84
35.801
35.761
35.72
35.68
35.639
35.598
35.557
35.515
35.473
35.431
35.388
35.344
35.301
35.259
35.217
35.174
35.132
35.089
35.046
35.003
34.962
34.923
34.887
34.852
34.819
34.788
34.757
34.727
34.697
34.667
34.636
34.604
34.571
34.537
34.502
34.467
34.431
34.395
34.359
34.324
34.288
34.254
34.221
34.189
34.158
34.129
34.102
34.075
34.05
34.024
33.998
33.973
33.95
33.929
33.91
33.892
33.874
33.856
33.837
33.818
33.8
33.782
33.764
33.746
33.728
33.71
33.691
33.672
33.653
33.633
33.614
33.594
33.574
33.554
33.533
33.512
33.49
33.466
33.441
33.415
33.387
33.359
33.329
33.299
33.269
33.24
33.212
33.185
33.159
33.133
33.108
33.084
33.061
33.041
33.023
33.007
32.994
32.982
32.971
32.96
32.948
32.936
32.923
32.908
32.892
32.874
32.856
32.836
32.817
32.798
32.78
32.761
32.742
32.722
32.702
32.68
32.658
32.635
32.613
32.59
32.567
32.544
32.521
32.5
32.48
32.463
32.448
32.436
32.424
32.414
32.404
32.394
32.385
32.376
32.366
32.356
32.345
32.333
32.322
32.312
32.306
32.306
32.313
32.331
32.36
32.405
32.467
32.55
32.657
32.789
32.948
33.132
33.339
33.566
33.81
34.066
34.33
34.598
34.864
35.123
35.371
35.603
35.815
36.004
36.169
36.307
36.419
36.507
36.578
36.636
36.682
36.717
36.741
36.753
36.751
36.737
36.71
36.671
36.62
36.56
36.492
36.421
36.348
36.275
36.205
36.138
36.075
36.018
35.968
35.926
35.893
35.869
35.853
35.845
35.844
35.848
35.854
35.862
35.87
35.876
35.879
35.88
35.875
35.866
35.852
35.832
35.807
35.778
35.745
35.708
35.668
35.624
35.577
35.528
35.479
35.431
35.383
35.337
35.292
35.251
35.214
35.181
35.154
35.131
35.114
35.101
35.091
35.085
35.082
35.081
35.08
35.079
35.078
35.075
35.071
35.065
35.056
35.046
35.034
35.022
35.01
34.998
34.986
34.974
34.963
34.95
34.937
34.923
34.906
34.882
34.852
34.815
34.774
34.73
34.686
34.643
34.602
34.564
34.529
34.497
34.468
34.441
34.417
34.394
34.372
34.35
34.328
34.306
34.282
34.256
34.228
34.198
34.167
34.134
34.101
34.066
34.032
33.998
33.966
33.934
33.903
33.873
33.844
33.815
33.788
33.762
33.738
33.717
33.698
33.681
33.664
33.646
33.627
33.607
33.587
33.567
33.548
33.529
33.511
33.494
33.477
33.461
33.446
33.432
33.418
33.404
33.39
33.376
33.362
33.347
33.332
33.316
33.3
33.283
33.264
33.245
33.224
33.202
33.18
33.159
33.139
33.122
33.105
33.09
33.074
33.059
33.045
33.031
33.018
33.006
32.993
32.982
32.971
32.961
32.952
32.944
32.936
32.928
32.919
32.91
32.898
32.884
32.868
32.85
32.829
32.808
32.785
32.761
32.737
32.713
32.691
32.671
32.653
32.637
32.622
32.609
32.596
32.585
32.576
32.568
32.561
32.554
32.549
32.545
32.542
32.538
32.535
32.531
32.525
32.519
32.51
32.5
32.488
32.474
32.461
32.449
32.439
32.433
32.43
32.434
32.444
32.463
32.493
32.536
32.593
32.666
32.756
32.864
32.989
33.132
33.292
33.469
33.66
33.863
34.073
34.287
34.499
34.706
34.903
35.088
35.257
35.408
35.538
35.647
35.733
35.798
35.842
35.867
35.875
35.867
35.847
35.816
35.777
35.732
35.683
35.632
35.582
35.532
35.485
35.444
35.411
35.388
35.373
35.365
35.363
35.363
35.364
35.364
35.36
35.353
35.341
35.326
35.309
35.289
35.267
35.244
35.218
35.19
35.161
35.129
35.096
35.063
35.029
34.994
34.958
34.921
34.883
34.845
34.807
34.769
34.732
34.696
34.663
34.63
34.6
34.573
34.549
34.529
34.514
34.504
34.499
34.499
34.504
34.513
34.526
34.543
34.562
34.582
34.603
34.623
34.642
34.658
34.671
34.682
34.69
34.694
34.695
34.693
34.686
34.675
34.661
34.646
34.629
34.61
34.589
34.566
34.54
34.512
34.482
34.451
34.419
34.386
34.353
34.321
34.289
34.257
34.226
34.195
34.165
34.136
34.109
34.084
34.061
34.04
34.019
33.999
33.98
33.961
33.942
33.922
33.902
33.88
33.858
33.835
33.814
33.792
33.769
33.744
33.717
33.687
33.655
33.622
33.589
33.555
33.521
33.487
33.455
33.424
33.395
33.368
33.343
33.32
33.301
33.283
33.268
33.254
33.242
33.23
33.22
33.212
33.205
33.2
33.197
33.196
33.197
33.199
33.201
33.203
33.204
33.201
33.195
33.186
33.175
33.163
33.151
33.138
33.125
33.112
33.099
33.087
33.074
33.062
33.05
33.038
33.026
33.014
33.002
32.992
32.982
32.974
32.966
32.959
32.953
32.948
32.942
32.935
32.927
32.919
32.912
32.904
32.896
32.889
32.885
32.882
32.881
32.881
32.881
32.881
32.878
32.872
32.862
32.849
32.832
32.812
32.79
32.767
32.743
32.72
32.698
32.678
32.659
32.643
32.63
32.62
32.611
32.605
32.599
32.594
32.592
32.593
32.599
32.611
32.632
32.662
32.706
32.764
32.839
32.934
33.05
33.187
33.346
33.524
33.721
33.931
34.153
34.38
34.611
34.839
35.061
35.273
35.471
35.652
35.814
35.954
36.071
36.165
36.236
36.285
36.313
36.324
36.319
36.303
36.278
36.247
36.212
36.175
36.136
36.097
36.058
36.02
35.984
35.95
35.918
35.889
35.862
35.838
35.816
35.797
35.78
35.766
35.754
35.744
35.737
35.731
35.726
35.723
35.722
35.722
35.724
35.726
35.729
35.736
35.751
35.772
35.798
35.824
35.846
35.86
35.864
35.855
35.834
35.802
35.758
35.707
35.648
35.585
35.52
35.454
35.39
35.33
35.275
35.227
35.186
35.153
35.128
35.109
35.096
35.089
35.088
35.091
35.097
35.106
35.116
35.125
35.132
35.137
35.14
35.14
35.137
35.133
35.125
35.114
35.101
35.084
35.066
35.045
35.024
35.003
34.981
34.958
34.935
34.91
34.884
34.857
34.829
34.801
34.772
34.743
34.714
34.686
34.658
34.631
34.605
34.581
34.558
34.536
34.516
34.497
34.479
34.461
34.444
34.426
34.408
34.388
34.367
34.344
34.319
34.293
34.267
34.241
34.215
34.188
34.16
34.13
34.1
34.07
34.041
34.013
33.989
33.966
33.945
33.927
33.911
33.898
33.888
33.88
33.875
33.872
33.87
33.868
33.866
33.864
33.861
33.857
33.854
33.851
33.847
33.843
33.838
33.832
33.825
33.815
33.804
33.79
33.775
33.756
33.736
33.714
33.694
33.675
33.657
33.642
33.628
33.616
33.605
33.597
33.589
33.582
33.576
33.569
33.563
33.557
33.551
33.545
33.54
33.535
33.53
33.524
33.519
33.513
33.506
33.498
33.488
33.477
33.465
33.451
33.434
33.415
33.394
33.373
33.352
33.333
33.315
33.298
33.281
33.264
33.249
33.234
33.221
33.207
33.19
33.17
33.146
33.122
33.098
33.078
33.062
33.052
33.048
33.049
33.054
33.062
33.072
33.082
33.091
33.1
33.107
33.11
33.11
33.106
33.097
33.086
33.072
33.056
33.04
33.024
33.008
32.993
32.981
32.974
32.972
32.98
33.0
33.034
33.084
33.152
33.24
33.35
33.482
33.636
33.813
34.009
34.223
34.451
34.689
34.934
35.182
35.427
35.666
35.895
36.11
36.307
36.484
36.639
36.773
36.885
36.974
37.041
37.087
37.113
37.12
37.11
37.085
37.05
37.006
36.956
36.903
36.849
36.795
36.743
36.695
36.651
36.613
36.581
36.554
36.532
36.514
36.5
36.488
36.48
36.474
36.47
36.468
36.467
36.467
36.467
36.468
36.468
36.469
36.469
36.469
36.469
36.469
36.468
36.465
36.459
36.449
36.435
36.416
36.391
36.36
36.324
36.283
36.239
36.194
36.15
36.107
36.066
36.028
35.992
35.958
35.927
35.9
35.877
35.857
35.842
35.829
35.819
35.811
35.804
35.797
35.79
35.784
35.779
35.775
35.772
35.769
35.767
35.766
35.764
35.762
35.758
35.753
35.744
35.732
35.716
35.696
35.673
35.648
35.62
35.59
35.559
35.527
35.494
35.463
35.432
35.403
35.375
35.348
35.321
35.295
35.268
35.241
35.213
35.186
35.16
35.134
35.109
35.083
35.057
35.031
35.005
34.98
34.956
34.932
34.909
34.887
34.864
34.841
34.813
34.782
34.747
34.712
34.675
34.639
34.604
34.57
34.54
34.513
34.49
34.471
34.454
34.439
34.425
34.413
34.4
34.388
34.375
34.362
34.348
34.335
34.323
34.311
34.301
34.291
34.282
34.272
34.262
34.252
34.243
34.233
34.222
34.212
34.2
34.188
34.175
34.16
34.144
34.128
34.113
34.099
34.086
34.075
34.064
34.051
34.037
34.022
34.005
33.988
33.972
33.957
33.943
33.929
33.916
33.904
33.894
33.884
33.875
33.866
33.858
33.85
33.841
33.833
33.824
33.814
33.804
33.793
33.782
33.77
33.758
33.745
33.732
33.719
33.708
33.697
33.687
33.675
33.661
33.646
33.633
33.628
33.629
33.636
33.646
33.659
33.671
33.681
33.687
33.689
33.687
33.68
33.669
33.654
33.636
33.616
33.595
33.573
33.551
33.53
33.508
33.488
33.469
33.45
33.434
33.42
33.41
33.402
33.396
33.393
33.39
33.39
33.393
33.401
33.413
33.433
33.461
33.5
33.551
33.618
33.702
33.806
33.931
34.08
34.251
34.441
34.65
34.874
35.109
35.351
35.597
35.842
36.081
36.311
36.527
36.726
36.904
37.06
37.192
37.298
37.379
37.436
37.471
37.485
37.481
37.461
37.427
37.384
37.332
37.275
37.215
37.152
37.088
37.025
36.966
36.909
36.857
36.809
36.765
36.725
36.687
36.652
36.62
36.592
36.566
36.543
36.523
36.504
36.487
36.471
36.457
36.444
36.43
36.414
36.396
36.375
36.351
36.325
36.296
36.264
36.23
36.194
36.158
36.123
36.088
36.055
36.024
35.997
35.972
35.95
35.93
35.913
35.898
35.886
35.877
35.872
35.871
35.873
35.878
35.885
35.894
35.903
35.913
35.924
35.935
35.946
35.957
35.967
35.976
35.984
35.989
35.991
35.99
35.985
35.977
35.966
35.951
35.932
35.911
35.887
35.862
35.837
35.812
35.786
35.759
35.731
35.701
35.67
35.638
35.606
35.573
35.54
35.507
35.474
35.443
35.413
35.386
35.361
35.339
35.318
35.299
35.281
35.264
35.248
35.232
35.215
35.198
35.178
35.157
35.134
35.107
35.078
35.046
35.014
34.98
34.948
34.916
34.887
34.859
34.834
34.81
34.789
34.769
34.751
34.733
34.713
34.692
34.671
34.65
34.631
34.614
34.598
34.583
34.569
34.556
34.542
34.53
34.517
34.505
34.494
34.483
34.473
34.464
34.455
34.447
34.439
34.431
34.425
34.419
34.414
34.409
34.404
34.398
34.391
34.382
34.372
34.36
34.346
34.331
34.315
34.298
34.282
34.267
34.253
34.239
34.224
34.209
34.193
34.177
34.161
34.146
34.132
34.118
34.105
34.093
34.081
34.07
34.06
34.051
34.043
34.036
34.028
34.02
34.011
34.0
33.988
33.974
33.958
33.94
33.921
33.901
33.881
33.861
33.843
33.828
33.814
33.803
33.792
33.784
33.777
33.773
33.776
33.785
33.806
33.838
33.886
33.951
34.035
34.14
34.268
34.417
34.587
34.777
34.983
35.204
35.435
35.672
35.91
36.146
36.373
36.59
36.792
36.976
37.14
37.283
37.404
37.504
37.582
37.639
37.677
37.698
37.702
37.692
37.67
37.64
37.604
37.563
37.518
37.47
37.42
37.37
37.321
37.274
37.231
37.193
37.16
37.133
37.11
37.091
37.076
37.065
37.056
37.049
37.043
37.038
37.032
37.024
37.016
37.006
36.994
36.979
36.962
36.941
36.916
36.888
36.857
36.824
36.789
36.753
36.717
36.68
36.644
36.607
36.57
36.533
36.497
36.463
36.432
36.406
36.392
36.391
36.403
36.425
36.454
36.487
36.52
36.55
36.573
36.589
36.596
36.594
36.584
36.567
36.545
36.519
36.49
36.46
36.429
36.399
36.369
36.341
36.315
36.292
36.27
36.25
36.23
36.211
36.192
36.172
36.151
36.129
36.104
36.077
36.046
36.012
35.976
35.939
35.901
35.864
35.827
35.79
35.753
35.716
35.677
35.639
35.601
35.563
35.526
35.49
35.454
35.419
35.386
35.354
35.324
35.297
35.273
35.25
35.229
35.209
35.189
35.17
35.15
35.13
35.109
35.087
35.065
35.042
35.019
34.995
34.972
34.948
34.925
34.903
34.88
34.859
34.837
34.816
34.795
34.774
34.753
34.731
34.708
34.684
34.659
34.633
34.609
34.586
34.564
34.543
34.522
34.503
34.487
34.472
34.46
34.449
34.439
34.428
34.415
34.4
34.383
34.365
34.347
34.33
34.314
34.299
34.287
34.276
34.266
34.257
34.248
34.239
34.229
34.217
34.203
34.187
34.167
34.147
34.127
34.107
34.088
34.071
34.053
34.036
34.019
34.002
33.984
33.967
33.949
33.931
33.913
33.895
33.879
33.863
33.848
33.833
33.819
33.806
33.792
33.779
33.765
33.752
33.738
33.725
33.715
33.708
33.706
33.71
33.722
