Trial 1:0back
35.709
35.709
35.706
35.701
35.693
35.684
35.675
35.664
35.653
35.64
35.626
35.612
35.596
35.579
35.562
35.542
35.522
35.501
35.479
35.457
35.437
35.417
35.398
35.379
35.36
35.341
35.321
35.302
35.284
35.266
35.248
35.232
35.215
35.2
35.186
35.173
35.161
35.151
35.14
35.13
35.121
35.113
35.106
35.101
35.096
35.092
35.088
35.084
35.08
35.077
35.075
35.073
35.072
35.07
35.069
35.067
35.065
35.063
35.059
35.054
35.048
35.04
35.031
35.02
35.009
34.997
34.986
34.975
34.964
34.954
34.944
34.936
34.93
34.925
34.921
34.916
34.912
34.907
34.902
34.899
34.896
34.894
34.894
34.896
34.9
34.907
34.921
34.94
34.967
35.0
35.039
35.083
35.133
35.187
35.248
35.314
35.384
35.458
35.533
35.61
35.686
35.762
35.837
35.908
35.974
36.034
36.086
36.131
36.168
36.196
36.216
36.229
36.233
36.23
36.22
36.204
36.184
36.16
36.133
36.104
36.074
36.042
36.01
35.977
35.944
35.912
35.881
35.85
35.82
35.788
35.757
35.725
35.694
35.662
35.631
35.598
35.565
35.531
35.496
35.46
35.424
35.389
35.353
35.318
35.283
35.25
35.219
35.191
35.167
35.147
35.131
35.119
35.11
35.105
35.105
35.109
35.117
35.128
35.142
35.159
35.177
35.197
35.219
35.241
35.264
35.284
35.303
35.321
35.336
35.35
35.362
35.374
35.385
35.394
35.403
35.411
35.418
35.426
35.433
35.439
35.445
35.449
35.451
35.45
35.446
35.441
35.433
35.425
35.415
35.405
35.393
35.381
35.367
35.351
35.334
35.315
35.295
35.274
35.253
35.232
35.211
35.19
35.172
35.154
35.139
35.125
35.113
35.102
35.091
35.081
35.072
35.063
35.055
35.047
35.038
35.03
35.022
35.014
35.005
34.997
34.988
34.978
34.967
34.955
34.943
34.93
34.918
34.906
34.895
34.884
34.874
34.863
34.853
34.844
34.835
34.826
34.818
34.811
34.804
34.798
34.792
34.788
34.783
34.778
34.774
34.769
34.766
34.764
34.762
34.762
34.763
34.765
34.769
34.777
34.788
34.804
34.825
34.853
34.887
34.927
34.974
35.028
35.088
35.156
35.228
35.306
35.388
35.473
35.56
35.647
35.733
35.815
35.893
35.964
36.028
36.085
36.133
36.174
36.206
36.23
36.246
36.252
36.251
36.243
36.229
36.211
36.188
36.162
36.134
36.104
36.074
36.044
36.015
35.986
35.957
35.929
35.902
35.877
35.853
35.83
35.809
35.789
35.769
35.748
35.726
35.703
35.68
35.654
35.627
35.599
35.567
35.533
35.498
35.461
35.425
35.39
35.356
35.325
35.297
35.272
35.251
35.234
35.221
35.212
35.208
35.206
35.207
35.211
35.218
35.227
35.239
35.254
35.27
35.286
35.302
35.317
35.332
35.346
35.36
35.373
35.383
35.392
35.399
35.405
35.411
35.416
35.421
35.427
35.433
35.44
35.448
35.456
35.465
35.472
35.477
35.479
35.478
35.473
35.466
35.457
35.446
35.433
35.418
35.401
35.382
35.361
35.338
35.315
35.291
35.266
35.242
35.219
35.197
35.178
35.16
35.146
35.133
35.123
35.115
35.108
35.103
35.097
35.092
35.085
35.076
35.066
35.055
35.043
35.031
35.019
35.007
34.995
34.982
34.969
34.956
34.944
34.932
34.922
34.913
34.905
34.898
34.893
34.888
34.886
34.885
34.885
34.888
34.891
34.895
34.899
34.903
34.908
34.912
34.916
34.919
34.922
34.924
34.926
34.928
34.93
34.932
34.933
34.934
34.935
34.936
34.938
34.941
34.943
34.944
34.946
34.949
34.954
34.962
34.975
34.993
35.017
35.048
35.084
35.127
35.177
35.232
35.292
35.357
35.426
35.498
35.571
35.646
35.719
35.791
35.859
35.924
35.983
36.036
36.082
36.12
36.152
36.175
36.19
36.198
36.2
36.196
36.187
36.174
36.157
36.137
36.115
36.092
36.068
36.044
36.019
35.995
35.97
35.946
35.923
35.902
35.884
35.868
35.853
35.84
35.829
35.818
35.808
35.799
35.79
35.782
35.773
35.764
35.753
35.742
35.729
35.716
35.703
35.688
35.673
35.657
35.642
35.626
35.611
35.596
35.582
35.568
35.553
35.538
35.524
35.511
35.499
35.49
35.482
35.476
35.472
35.471
35.472
35.476
35.482
35.489
35.498
35.507
35.516
35.525
35.534
35.543
35.552
35.56
35.566
35.57
35.572
35.572
35.571
35.569
35.567
35.565
35.563
35.562
35.561
35.561
35.562
35.562
35.562
35.561
35.557
35.549
35.539
35.525
35.509
35.492
35.473
35.452
35.431
35.409
35.387
35.367
35.348
35.331
35.316
35.3
35.285
35.271
35.256
35.242
35.229
35.217
35.205
35.192
35.18
35.168
35.157
35.146
35.136
35.126
35.115
35.104
35.091
35.077
35.063
35.049
35.034
35.02
35.005
34.991
34.978
34.967
34.957
34.949
34.943
34.937
34.931
34.927
34.923
34.92
34.918
34.917
34.915
34.913
34.912
34.911
34.911
34.911
34.911
34.909
34.906
34.902
34.897
34.891
34.885
34.879
34.871
34.863
34.855
34.846
34.839
34.832
34.826
34.822
34.818
34.816
34.816
34.818
34.823
34.83
34.841
34.854
34.87
34.89
34.915
34.945
34.981
35.024
35.073
35.128
35.188
35.254
35.325
35.399
35.476
35.553
35.629
35.705
35.778
35.849
35.917
35.98
36.038
36.089
36.132
36.167
36.193
36.211
36.22
36.223
36.219
36.211
36.198
36.182
36.163
36.144
36.123
36.102
36.08
36.057
36.034
36.01
35.986
35.962
35.939
35.917
35.895
35.874
35.854
35.833
35.814
35.794
35.776
35.758
35.74
35.721
35.701
35.681
35.66
35.639
35.617
35.594
35.572
35.549
35.526
35.504
35.482
35.46
35.438
35.417
35.397
35.379
35.363
35.35
35.34
35.333
35.33
35.33
35.334
35.341
35.35
35.362
35.375
35.388
35.402
35.417
35.432
35.448
35.464
35.48
35.494
35.506
35.516
35.524
35.53
35.532
35.532
35.528
35.521
35.512
35.501
35.489
35.476
35.464
35.452
35.441
35.431
35.423
35.416
35.41
35.403
35.396
35.387
35.376
35.364
35.351
35.338
35.324
35.309
35.294
35.278
35.261
35.245
35.229
35.215
35.2
35.186
35.171
35.156
35.139
35.123
35.107
35.092
35.079
35.066
35.054
35.043
35.033
35.024
35.017
35.011
35.006
35.003
35.0
34.997
34.994
34.991
34.988
34.985
34.979
34.972
34.963
34.951
34.939
34.927
34.914
34.902
34.891
34.88
34.87
34.863
34.858
34.855
34.853
34.852
34.851
34.849
34.848
34.847
34.846
34.845
34.845
34.844
34.843
34.842
34.842
34.842
34.842
34.842
34.841
34.838
34.834
34.829
34.823
34.815
34.806
34.796
34.784
34.772
34.759
34.746
34.734
34.723
34.714
34.705
34.697
34.692
34.688
34.688
34.69
34.694
34.7
34.709
34.722
34.738
34.76
34.786
34.817
34.854
34.896
34.944
34.999
35.059
35.124
35.192
35.264
35.337
35.41
35.484
35.557
35.629
35.698
35.763
35.823
35.876
35.922
35.96
35.99
36.013
36.027
36.035
36.036
36.032
36.023
36.01
35.994
35.975
35.953
35.928
35.902
35.875
35.848
35.823
35.799
35.777
35.756
35.736
35.716
35.696
35.677
35.658
35.64
35.621
35.602
35.581
35.56
35.538
35.515
35.493
35.471
35.448
35.424
35.399
35.374
35.349
35.325
35.301
35.279
35.257
35.238
35.221
35.207
35.197
35.191
35.191
35.195
35.203
35.214
35.228
35.243
35.26
35.279
35.299
35.32
35.342
35.364
35.386
35.408
35.429
35.45
35.467
35.481
35.491
35.496
35.497
35.496
35.491
35.485
35.475
35.464
35.45
35.437
35.423
35.41
35.398
35.385
35.373
35.36
35.348
35.335
35.322
35.308
35.293
35.278
35.262
35.245
35.228
35.211
35.194
35.177
35.161
35.145
35.13
35.116
35.103
35.09
35.078
35.066
35.054
35.042
35.03
35.019
35.009
35.0
34.992
34.984
34.977
34.971
34.965
34.958
34.951
34.943
34.933
34.922
34.91
34.897
34.885
34.873
34.862
34.852
34.843
34.836
34.83
34.825
34.821
34.818
34.815
34.812
34.808
34.803
34.798
34.791
34.783
34.775
34.766
34.756
34.747
34.738
34.729
34.722
34.715
34.71
34.705
34.702
34.701
34.702
34.705
34.71
34.717
34.724
34.732
34.741
34.749
34.758
34.765
34.771
34.775
34.777
34.777
34.776
34.772
34.767
34.76
34.753
34.746
34.741
34.737
34.737
34.739
34.745
34.754
34.768
34.787
34.811
34.84
34.877
34.919
34.967
35.02
35.078
35.141
35.207
35.276
35.346
35.415
35.482
35.545
35.603
35.655
35.7
35.737
35.767
35.789
35.804
35.813
35.815
35.813
35.806
35.795
35.781
35.765
35.748
35.73
35.712
35.693
35.674
35.656
35.637
35.619
35.601
35.583
35.565
35.548
35.529
35.51
35.49
35.468
35.445
35.421
35.396
35.371
35.346
35.321
35.296
35.272
35.247
35.223
35.199
35.176
35.154
35.133
35.113
35.094
35.077
35.062
35.048
35.035
35.024
35.016
35.009
35.005
35.004
35.004
35.006
35.009
35.014
35.02
35.028
35.038
35.05
35.064
35.079
35.095
35.113
35.132
35.151
35.169
35.185
35.199
35.211
35.22
35.228
35.234
35.238
35.241
35.241
35.24
35.238
35.234
35.228
35.22
35.211
35.2
35.187
35.172
35.156
35.139
35.122
35.104
35.086
35.068
35.051
35.035
35.02
35.008
34.996
34.985
34.973
34.962
34.951
34.94
34.929
34.918
34.907
34.894
34.881
34.867
34.852
34.836
34.82
34.803
34.786
34.769
34.753
34.738
34.724
34.713
34.703
34.694
34.687
34.681
34.676
34.672
34.669
34.667
34.665
34.664
34.662
34.661
34.659
34.658
34.657
34.654
34.651
34.646
34.641
34.635
34.629
34.622
34.615
34.607
34.599
34.59
34.582
34.575
34.568
34.564
34.56
34.558
34.557
34.558
34.56
34.563
34.567
34.571
34.575
34.578
34.581
34.585
34.59
34.595
34.602
34.61
34.62
34.632
34.647
34.666
34.689
34.717
34.75
34.788
34.831
34.88
34.934
34.994
35.059
35.128
35.199
35.271
35.343
35.415
35.484
35.549
35.61
35.664
35.712
35.753
35.787
35.814
35.835
35.847
35.853
35.851
35.842
35.827
35.809
35.787
35.762
35.735
35.707
35.677
35.648
35.618
35.591
35.565
35.541
35.519
35.497
35.476
35.456
35.437
35.419
35.401
35.383
35.364
35.346
35.327
35.309
35.292
35.275
35.258
35.241
35.222
35.201
35.18
35.157
35.134
35.111
35.088
35.066
35.045
35.027
35.011
35.0
34.993
34.99
34.991
34.995
35.002
35.011
35.022
35.036
35.051
35.068
35.085
35.103
35.122
35.141
35.16
35.178
35.194
35.207
35.216
35.222
35.224
35.224
35.222
35.218
35.213
35.206
35.199
35.191
35.183
35.176
35.169
35.162
35.156
35.151
35.146
35.142
35.139
35.137
35.136
35.135
35.133
35.13
35.126
35.121
35.114
35.105
35.093
35.078
35.06
35.041
35.02
35.0
34.981
34.963
34.946
34.93
34.916
34.904
34.893
34.883
34.874
34.865
34.855
34.844
34.833
34.823
34.813
34.804
34.795
34.786
34.778
34.77
34.762
34.754
34.746
34.737
34.728
34.716
34.702
34.688
34.673
34.658
34.642
34.628
34.615
34.604
34.595
34.589
34.585
34.584
34.583
34.583
34.584
34.584
34.585
34.585
34.585
34.584
34.582
34.58
34.578
34.576
34.575
34.574
34.573
34.573
34.573
34.573
34.575
34.577
34.58
34.582
34.584
34.586
34.588
34.591
34.595
34.602
34.613
34.627
34.647
34.672
34.703
34.741
34.785
34.835
34.891
34.952
35.018
35.088
35.16
35.235
35.31
35.385
35.457
35.526
35.591
35.649
35.701
35.744
35.78
35.808
35.828
35.84
35.847
35.848
35.843
35.834
35.822
35.805
35.787
35.766
35.743
35.718
35.692
35.664
35.635
35.606
35.578
35.551
35.524
35.498
35.473
35.449
35.425
35.402
35.379
35.354
35.329
35.302
35.275
35.246
35.217
35.189
35.16
35.132
35.104
35.077
35.051
35.028
35.007
34.99
34.978
34.968
34.962
34.96
34.96
34.963
34.97
34.979
34.99
35.003
35.016
35.03
35.043
35.056
35.069
35.082
35.095
35.108
35.121
35.135
35.149
35.163
35.177
35.19
35.202
35.211
35.218
35.222
35.224
35.224
35.222
35.219
35.214
35.209
35.203
35.198
35.193
35.189
35.185
35.18
35.175
35.169
35.162
35.155
35.147
35.137
35.126
35.114
35.1
35.085
35.069
35.053
35.037
35.02
35.005
34.99
34.976
34.963
34.951
34.941
34.932
34.925
34.919
34.915
34.912
34.91
34.908
34.905
34.902
34.898
34.893
34.887
34.88
34.87
34.858
34.844
34.829
34.812
34.796
34.779
34.762
34.746
34.73
34.715
34.701
34.689
34.678
34.667
34.657
34.648
34.639
34.632
34.626
34.623
34.621
34.621
34.622
34.625
34.63
34.635
34.641
34.648
34.655
34.662
34.668
34.673
34.678
34.682
34.685
34.686
34.686
34.684
34.682
34.68
34.678
34.678
34.678
34.68
34.684
34.692
34.705
34.724
34.749
34.78
34.818
34.86
34.908
34.961
35.017
35.077
35.137
35.198
35.257
35.314
35.37
35.424
35.476
35.525
35.571
35.613
35.649
35.68
35.705
35.724
35.738
35.747
35.75
35.749
35.744
35.735
35.722
35.707
35.69
35.671
35.65
35.627
35.604
35.579
35.554
35.528
35.502
35.476
35.448
35.42
35.392
35.364
35.338
35.312
35.288
35.264
35.24
35.215
35.191
35.167
35.143
35.12
35.097
35.074
35.051
35.029
35.008
34.99
34.974
34.961
34.95
34.941
34.935
34.932
34.93
34.931
34.933
34.936
34.94
34.944
34.95
34.957
34.966
34.977
34.991
35.006
35.022
35.039
35.056
35.073
35.09
35.106
35.12
35.133
35.145
35.155
35.165
35.174
35.182
35.188
35.193
35.196
35.197
35.197
35.195
35.192
35.187
35.18
35.172
35.161
35.15
35.139
35.128
35.117
35.107
35.097
35.086
35.076
35.065
35.054
35.043
35.032
35.02
35.007
34.994
34.981
34.968
34.956
34.943
34.931
34.918
34.904
34.889
34.873
34.858
34.842
34.826
34.809
34.793
34.778
34.763
34.749
34.737
34.726
34.717
34.708
34.7
34.693
34.686
34.68
34.676
34.673
34.672
34.672
34.673
34.674
34.677
34.679
34.68
34.682
34.684
34.685
34.687
34.689
34.69
34.691
34.692
34.693
34.693
34.693
34.693
34.692
34.689
34.685
34.68
34.675
34.668
34.662
34.656
34.649
34.643
34.638
34.634
34.632
34.631
34.63
34.631
34.631
34.63
34.629
34.627
34.625
34.621
34.618
34.614
34.61
34.608
34.609
34.612
34.619
34.63
34.646
34.666
34.693
34.725
34.763
34.808
34.859
34.917
34.982
35.052
35.128
35.209
35.293
35.379
35.465
35.548
35.626
35.7
35.767
35.827
35.879
35.923
35.958
35.984
36.002
36.013
36.016
36.013
36.004
35.99
35.971
35.947
35.92
35.89
35.859
35.828
35.798
35.771
35.746
35.723
35.701
35.68
35.66
35.641
35.621
35.601
35.58
35.559
35.538
35.517
35.495
35.474
35.451
35.426
35.399
35.37
35.339
35.307
35.275
35.243
35.213
35.184
35.158
35.134
35.115
35.101
35.092
35.087
35.085
35.086
35.09
35.095
35.102
35.112
35.123
35.136
35.15
35.165
35.181
35.198
35.215
35.232
35.248
35.263
35.275
35.286
35.295
35.304
35.311
35.319
35.326
35.333
35.339
35.346
35.352
35.358
35.363
35.366
35.367
35.365
35.361
35.354
35.346
35.336
35.325
35.313
35.3
35.284
35.267
35.25
35.231
35.213
35.196
35.178
35.161
35.145
35.128
35.113
35.099
35.086
35.075
35.065
35.056
35.047
35.039
35.032
35.025
35.018
35.011
35.003
34.994
34.983
34.973
34.962
34.952
34.943
34.935
34.927
34.919
34.912
34.906
34.9
34.894
34.888
34.882
34.874
34.865
34.856
34.847
34.839
34.831
34.824
34.818
34.812
34.806
34.801
34.797
34.793
34.788
34.783
34.777
34.77
34.764
34.758
34.753
34.748
34.744
34.74
34.737
34.734
34.731
34.729
34.726
34.722
34.716
34.711
34.704
34.698
34.693
34.687
34.682
34.678
34.676
34.676
34.678
34.682
34.686
34.692
34.697
34.702
34.705
34.708
34.709
34.71
34.709
34.707
34.703
34.698
34.691
34.683
34.674
34.664
34.653
34.641
34.628
34.615
34.602
34.59
34.579
34.568
34.559
34.551
34.545
34.542
34.54
34.542
34.546
34.553
34.562
34.575
34.592
34.614
34.642
34.676
34.717
34.766
34.822
34.886
34.956
35.032
35.113
35.196
35.281
35.367
35.453
35.536
35.616
35.692
35.763
35.827
35.883
35.932
35.972
36.004
36.028
36.045
36.055
36.059
36.056
36.048
36.036
36.02
36.0
35.976
35.95
35.92
35.889
35.855
35.82
35.784
35.747
35.71
35.674
35.64
35.608
35.578
35.55
35.524
35.501
35.48
35.462
35.446
35.433
35.42
35.408
35.395
35.383
35.37
35.357
35.344
35.331
35.318
35.304
35.29
35.275
35.26
35.245
35.231
35.217
35.203
35.189
35.176
35.164
35.155
35.15
35.148
35.149
35.153
35.16
35.168
35.178
35.19
35.204
35.219
35.237
35.255
35.273
35.291
35.309
35.325
35.339
35.352
35.361
35.367
35.369
35.367
35.363
35.357
35.35
35.343
35.334
35.325
35.316
35.307
35.299
35.29
35.281
35.271
35.26
35.248
35.234
35.221
35.208
35.195
35.184
35.173
35.162
35.152
35.142
35.133
35.125
35.117
35.108
35.099
35.09
35.079
35.069
35.058
35.047
35.036
35.025
35.013
35.001
34.989
34.978
34.966
34.955
34.944
34.932
34.92
34.907
34.895
34.884
34.874
34.865
34.855
34.846
34.838
34.829
34.82
34.812
34.803
34.793
34.783
34.772
34.761
34.752
34.743
34.736
34.731
34.727
34.726
34.726
34.728
34.731
34.735
34.739
34.743
34.745
34.746
34.747
34.747
34.747
34.747
34.746
34.744
34.741
34.736
34.73
34.723
34.716
34.708
34.699
34.69
34.682
34.674
34.668
34.664
34.661
34.659
34.657
34.655
34.652
34.649
34.646
34.643
34.64
34.637
34.635
34.634
34.634
34.636
34.639
34.642
34.646
34.648
34.649
34.649
34.648
34.646
34.642
34.637
34.63
34.622
34.614
34.606
34.598
34.59
34.581
34.572
34.564
34.556
34.55
34.545
34.543
34.543
34.545
34.551
34.559
34.572
34.591
34.617
34.65
34.691
34.739
34.794
34.857
34.926
35.001
35.079
35.16
35.243
35.327
35.41
35.491
35.569
35.641
35.707
35.766
35.817
35.86
35.895
35.922
35.941
35.953
35.959
35.96
35.956
35.949
35.939
35.926
35.909
35.89
35.867
35.842
35.816
35.788
35.758
35.728
35.698
35.669
35.64
35.612
35.587
35.562
35.538
35.514
35.49
35.466
35.442
35.419
35.396
35.373
35.349
35.325
35.3
35.274
35.248
35.223
35.198
35.174
35.151
35.129
35.108
35.088
35.07
35.055
35.041
35.03
35.02
35.012
35.007
35.004
35.003
35.003
35.005
35.008
35.011
35.015
35.021
35.03
35.04
35.054
35.07
35.089
35.11
35.133
35.157
35.182
35.207
35.231
35.253
35.272
35.288
35.301
35.311
35.318
35.323
35.323
35.32
35.313
35.305
35.294
35.283
35.27
35.257
35.242
35.227
35.211
35.196
35.182
35.17
35.159
35.149
35.139
35.13
35.122
35.115
35.108
35.101
35.093
35.083
35.073
35.061
35.048
35.034
35.02
35.005
34.99
34.975
34.96
34.945
34.931
34.917
34.904
34.891
34.879
34.868
34.858
34.851
34.845
34.84
34.837
34.833
34.83
34.827
34.824
34.821
34.819
34.816
34.812
34.808
34.804
34.8
34.797
34.795
34.793
34.79
34.788
34.785
34.783
34.782
34.78
34.779
34.778
34.776
34.773
34.77
34.767
34.766
34.764
34.763
34.76
34.756
34.751
34.746
34.741
34.736
34.733
34.73
34.728
34.727
34.726
34.726
34.727
34.728
34.729
34.729
34.728
34.727
34.725
34.723
34.72
34.716
34.711
34.707
34.702
34.699
34.698
34.697
34.698
34.697
34.696
34.692
34.688
34.683
34.677
34.672
34.668
34.665
34.663
34.664
34.669
34.677
34.689
34.706
34.728
34.756
34.789
34.829
34.876
34.928
34.986
35.048
35.114
35.183
35.255
35.327
35.4
35.47
35.538
35.6
35.658
35.709
35.755
35.793
35.825
35.849
35.867
35.878
35.884
35.885
35.881
35.873
35.861
35.845
35.825
35.803
35.778
35.751
35.723
35.694
35.664
35.633
35.602
35.571
35.54
35.509
35.478
35.447
35.417
35.388
35.36
35.334
35.309
35.285
35.263
35.241
35.22
35.199
35.177
35.155
35.131
35.106
35.081
35.056
35.032
35.01
34.99
34.972
34.957
34.944
34.934
34.925
34.919
34.916
34.914
34.915
34.919
34.925
34.934
34.946
34.963
34.983
35.007
35.034
35.062
35.092
35.121
35.15
35.178
35.205
35.23
35.252
35.272
35.288
35.301
35.311
35.317
35.319
35.318
35.314
35.307
35.297
35.286
35.275
35.264
35.254
35.245
35.237
35.23
35.222
35.216
35.209
35.203
35.195
35.186
35.175
35.162
35.148
35.134
35.12
35.106
35.091
35.076
35.061
35.046
35.03
35.014
34.998
