Trial 1:0back
39.561
39.489
39.414
39.336
39.253
39.166
39.075
38.978
38.878
38.775
38.668
38.559
38.449
38.338
38.228
38.119
38.014
37.912
37.815
37.722
37.634
37.551
37.472
37.398
37.328
37.262
37.201
37.143
37.09
37.042
36.998
36.959
36.924
36.895
36.871
36.852
36.838
36.828
36.822
36.82
36.821
36.824
36.831
36.84
36.852
36.865
36.879
36.892
36.903
36.912
36.917
36.917
36.911
36.899
36.88
36.856
36.825
36.788
36.745
36.696
36.643
36.586
36.526
36.463
36.4
36.336
36.271
36.207
36.142
36.077
36.011
35.946
35.879
35.812
35.745
35.676
35.607
35.537
35.467
35.398
35.329
35.262
35.196
35.132
35.071
35.013
34.956
34.902
34.848
34.796
34.743
34.69
34.636
34.582
34.527
34.471
34.414
34.356
34.298
34.24
34.181
34.121
34.062
34.003
33.945
33.888
33.832
33.776
33.72
33.666
33.613
33.562
33.514
33.468
33.424
33.382
33.342
33.305
33.269
33.237
33.209
33.186
33.169
33.159
33.158
33.168
33.189
33.224
33.274
33.341
33.425
33.529
33.652
33.796
33.96
34.144
34.346
34.566
34.801
35.048
35.306
35.57
35.837
36.103
36.366
36.624
36.873
37.112
37.339
37.552
37.749
37.929
38.093
38.237
38.362
38.468
38.553
38.618
38.665
38.693
38.704
38.699
38.678
38.644
38.599
38.543
38.478
38.407
38.331
38.253
38.172
38.091
38.01
37.929
37.849
37.769
37.688
37.607
37.524
37.438
37.351
37.261
37.17
37.079
36.989
36.901
36.816
36.736
36.661
36.593
36.532
36.479
36.435
36.397
36.366
36.339
36.315
36.292
36.268
36.244
36.217
36.187
36.156
36.123
36.09
36.059
36.029
36.002
35.979
35.96
35.945
35.935
35.928
35.926
35.926
35.929
35.932
35.936
35.937
35.936
35.93
35.919
35.9
35.874
35.841
35.801
35.754
35.7
35.641
35.579
35.516
35.453
35.392
35.334
35.28
35.231
35.186
35.145
35.108
35.075
35.045
35.016
34.988
34.959
34.929
34.898
34.864
34.828
34.79
34.751
34.711
34.67
34.629
34.586
34.543
34.5
34.458
34.417
34.377
34.34
34.304
34.271
34.239
34.21
34.183
34.157
34.132
34.108
34.084
34.06
34.035
34.009
33.981
33.952
33.922
33.89
33.856
33.822
33.786
33.75
33.712
33.674
33.636
33.599
33.565
33.535
33.511
33.495
33.49
33.497
33.52
33.561
33.622
33.708
33.817
33.952
34.113
34.299
34.508
34.739
34.989
35.256
35.534
35.82
36.11
36.398
36.681
36.955
37.214
37.457
37.681
37.884
38.065
38.224
38.361
38.477
38.572
38.647
38.704
38.744
38.767
38.776
38.772
38.756
38.73
38.692
38.646
38.59
38.527
38.456
38.378
38.295
38.205
38.111
38.014
37.912
37.808
37.701
37.591
37.48
37.368
37.256
37.145
37.035
36.927
36.822
36.72
36.623
36.53
36.441
36.358
36.279
36.205
36.137
36.075
36.017
35.965
35.918
35.874
35.836
35.801
35.771
35.745
35.724
35.706
35.692
35.684
35.68
35.682
35.688
35.697
35.71
35.724
35.739
35.753
35.764
35.772
35.774
35.771
35.763
35.75
35.731
35.709
35.682
35.652
35.62
35.587
35.553
35.519
35.485
35.45
35.416
35.382
35.347
35.311
35.274
35.234
35.191
35.145
35.095
35.044
34.99
34.935
34.878
34.82
34.761
34.7
34.64
34.581
34.522
34.465
34.409
34.357
34.307
34.261
34.219
34.18
34.144
34.111
34.079
34.049
34.02
33.991
33.962
33.931
33.898
33.863
33.824
33.781
33.735
33.685
33.632
33.576
33.519
33.461
33.404
33.348
33.295
33.245
33.2
33.16
33.128
33.103
33.085
33.076
33.077
33.09
33.117
33.159
33.22
33.299
33.399
33.521
33.664
33.831
34.021
34.232
34.461
34.705
34.962
35.228
35.498
35.769
36.037
36.299
36.55
36.788
37.011
37.217
37.405
37.574
37.723
37.851
37.96
38.05
38.123
38.181
38.225
38.256
38.275
38.283
38.28
38.268
38.247
38.217
38.179
38.133
38.079
38.017
37.949
37.874
37.794
37.71
37.622
37.531
37.438
37.343
37.247
37.15
37.054
36.958
36.861
36.765
36.668
36.572
36.478
36.386
36.296
36.208
36.124
36.044
35.968
35.896
35.827
35.763
35.702
35.643
35.588
35.535
35.485
35.438
35.394
35.355
35.32
35.289
35.262
35.24
35.222
35.208
35.2
35.197
35.199
35.206
35.216
35.23
35.244
35.258
35.27
35.279
35.282
35.28
35.271
35.255
35.231
35.199
35.161
35.116
35.065
35.01
34.952
34.893
34.831
34.77
34.711
34.653
34.599
34.549
34.504
34.465
34.43
34.401
34.375
34.352
34.33
34.309
34.287
34.263
34.237
34.209
34.176
34.141
34.102
34.06
34.015
33.967
33.917
33.865
33.813
33.762
33.712
33.666
33.623
33.583
33.548
33.516
33.486
33.46
33.435
33.411
33.386
33.36
33.333
33.302
33.267
33.227
33.182
33.132
33.078
33.021
32.961
32.9
32.839
32.78
32.724
32.674
32.633
32.603
32.588
32.591
32.613
32.658
32.727
32.821
32.941
33.087
33.255
33.445
33.655
33.88
34.118
34.366
34.621
34.88
35.14
35.397
35.651
35.897
36.134
36.359
36.57
36.766
36.946
37.109
37.253
37.379
37.486
37.573
37.64
37.687
37.715
37.726
37.721
37.702
37.673
37.634
37.588
37.537
37.482
37.425
37.365
37.306
37.245
37.184
37.122
37.059
36.993
36.925
36.855
36.781
36.703
36.622
36.536
36.447
36.355
36.26
36.163
36.065
35.967
35.87
35.776
35.687
35.604
35.527
35.458
35.396
35.341
35.293
35.251
35.214
35.182
35.152
35.125
35.098
35.071
35.045
35.019
34.995
34.971
34.949
34.929
34.912
34.897
34.885
34.876
34.87
34.866
34.865
34.866
34.868
34.869
34.87
34.868
34.863
34.854
34.84
34.821
34.797
34.768
34.734
34.696
34.656
34.614
34.572
34.529
34.487
34.446
34.407
34.369
34.333
34.297
34.261
34.225
34.188
34.151
34.113
34.074
34.034
33.993
33.951
33.909
33.868
33.828
33.79
33.754
33.72
33.69
33.664
33.641
33.622
33.605
33.589
33.575
33.56
33.545
33.527
33.506
33.482
33.452
33.418
33.379
33.337
33.291
33.242
33.189
33.134
33.076
33.017
32.959
32.9
32.843
32.789
32.737
32.689
32.646
32.607
32.574
32.546
32.524
32.509
32.502
32.504
32.518
32.545
32.587
32.647
32.726
32.824
32.945
33.086
33.249
33.431
33.632
33.847
34.075
34.313
34.556
34.803
35.049
35.292
35.529
35.758
35.978
36.186
36.382
36.563
36.729
36.88
37.013
37.129
37.227
37.307
37.369
37.412
37.438
37.446
37.439
37.416
37.379
37.33
37.271
37.205
37.132
37.055
36.973
36.888
36.801
36.711
36.62
36.528
36.435
36.342
36.251
36.163
36.076
35.992
35.911
35.831
35.753
35.677
35.604
35.532
35.464
35.398
35.336
35.277
35.222
35.169
35.12
35.073
35.03
34.989
34.95
34.913
34.877
34.842
34.808
34.774
34.74
34.707
34.673
34.64
34.608
34.578
34.551
34.527
34.508
34.493
34.483
34.478
34.479
34.483
34.491
34.502
34.514
34.527
34.54
34.551
34.56
34.567
34.572
34.574
34.572
34.567
34.558
34.545
34.528
34.506
34.481
34.45
34.415
34.375
34.331
34.283
34.232
34.178
34.121
34.063
34.005
33.946
33.889
33.834
33.781
33.73
33.681
33.635
33.591
33.548
33.507
33.467
33.428
33.39
33.353
33.317
33.282
33.248
33.215
33.184
33.154
33.127
33.102
33.079
33.058
33.04
33.024
33.01
32.997
32.984
32.971
32.958
32.944
32.927
32.909
32.889
32.866
32.84
32.812
32.782
32.75
32.717
32.684
32.652
32.621
32.592
32.567
32.544
32.525
32.511
32.503
32.502
32.511
32.531
32.564
32.612
32.677
32.759
32.861
32.982
33.123
33.284
33.462
33.657
33.867
34.089
34.32
34.556
34.793
35.029
35.26
35.484
35.698
35.9
36.088
36.261
36.418
36.559
36.682
36.789
36.879
36.953
37.01
37.053
37.082
37.098
37.103
37.097
37.083
37.063
37.036
37.004
36.969
36.929
36.886
36.84
36.79
36.735
36.675
36.609
36.537
36.459
36.377
36.289
36.198
36.104
36.01
35.916
35.824
35.735
35.649
35.569
35.494
35.425
35.363
35.305
35.254
35.207
35.165
35.127
35.091
35.058
35.027
34.998
34.969
34.942
34.916
34.892
34.871
34.851
34.835
34.822
34.812
34.805
34.802
34.801
34.804
34.81
34.818
34.827
34.835
34.841
34.843
34.84
34.833
34.82
34.804
34.783
34.759
34.733
34.704
34.675
34.646
34.618
34.591
34.568
34.548
34.531
34.516
34.503
34.491
34.479
34.467
34.453
34.437
34.42
34.4
34.378
34.355
34.329
34.303
34.276
34.25
34.225
34.201
34.18
34.162
34.146
34.133
34.121
34.109
34.096
34.082
34.066
34.045
34.021
33.993
33.961
33.924
33.885
33.842
33.797
33.749
33.701
33.652
33.603
33.555
33.509
33.465
33.423
33.384
33.347
33.313
33.282
33.252
33.224
33.198
33.173
33.151
33.131
33.114
33.102
33.096
33.098
33.111
33.137
33.179
33.239
33.318
33.417
33.537
33.678
33.84
34.019
34.214
34.422
34.64
34.866
35.096
35.328
35.557
35.782
35.999
36.206
36.402
36.585
36.753
36.907
37.045
37.167
37.274
37.366
37.443
37.505
37.552
37.586
37.606
37.615
37.612
37.599
37.577
37.546
37.507
37.46
37.407
37.347
37.282
37.212
37.139
37.063
36.984
36.903
36.817
36.728
36.635
36.537
36.436
36.331
36.223
36.114
36.005
35.899
35.796
35.699
35.608
35.524
35.448
35.382
35.324
35.275
35.235
35.202
35.177
35.158
35.143
35.132
35.123
35.115
35.107
35.098
35.088
35.076
35.063
35.049
35.036
35.023
35.012
35.003
34.997
34.994
34.993
34.996
35.001
35.009
35.02
35.033
35.048
35.063
35.077
35.088
35.096
35.098
35.095
35.084
35.066
35.041
35.01
34.973
34.931
34.884
34.834
34.783
34.73
34.679
34.628
34.58
34.535
34.493
34.453
34.416
34.382
34.351
34.322
34.296
34.27
34.245
34.218
34.19
34.16
34.127
34.092
34.055
34.017
33.977
33.936
33.894
33.853
33.813
33.774
33.737
33.703
33.67
33.639
33.609
33.581
33.553
33.524
33.496
33.467
33.438
33.409
33.38
33.352
33.325
33.299
33.275
33.255
33.238
33.228
33.224
33.231
33.25
33.283
33.334
33.405
33.498
33.614
33.752
33.912
34.093
34.292
34.507
34.734
34.97
35.212
35.455
35.697
35.933
36.16
36.375
36.577
36.766
36.94
37.098
37.242
37.37
37.485
37.586
37.675
37.752
37.817
37.871
37.913
37.944
37.963
37.971
37.969
37.957
37.937
37.908
37.873
37.831
37.783
37.731
37.673
37.612
37.547
37.478
37.407
37.334
37.258
37.181
37.102
37.021
36.937
36.849
36.759
36.666
36.571
36.474
36.377
36.28
36.185
36.092
36.002
35.918
35.839
35.766
35.7
35.639
35.584
35.536
35.494
35.457
35.425
35.399
35.376
35.358
35.344
35.333
35.325
35.319
35.316
35.315
35.317
35.322
35.328
35.337
35.348
35.36
35.372
35.384
35.394
35.401
35.404
35.403
35.395
35.382
35.363
35.339
35.31
35.278
35.243
35.208
35.173
35.141
35.11
35.08
35.05
35.022
34.993
34.964
34.935
34.905
34.874
34.842
34.808
34.772
34.735
34.696
34.656
34.615
34.573
34.53
34.488
34.446
34.404
34.362
34.321
34.281
34.243
34.207
34.172
34.14
34.109
34.08
34.052
34.025
33.998
33.97
33.94
33.907
33.872
33.834
33.794
33.751
33.706
33.66
33.614
33.569
33.525
33.485
33.449
33.42
33.396
33.381
33.373
33.375
33.387
33.41
33.445
33.494
33.557
33.637
33.733
33.847
33.978
34.125
34.289
34.469
34.663
34.87
35.088
35.316
35.551
35.791
36.033
36.275
36.514
36.748
36.974
37.191
37.395
37.585
37.76
37.919
38.061
38.184
38.29
38.377
38.447
38.499
38.536
38.559
38.568
38.566
38.552
38.529
38.495
38.452
38.401
38.343
38.278
38.208
38.133
38.055
37.974
37.891
37.806
37.72
37.633
37.543
37.453
37.36
37.267
37.172
37.078
36.983
36.888
36.796
36.706
36.621
36.54
36.466
36.397
36.335
36.281
36.233
36.192
36.158
36.13
36.107
36.088
36.071
36.057
36.045
36.035
36.026
36.019
36.013
36.008
36.005
36.003
36.003
36.004
36.005
36.007
36.01
36.012
36.013
36.014
36.013
36.009
36.001
35.989
35.972
35.952
35.927
35.899
35.868
35.834
35.796
35.754
35.707
35.656
35.6
35.541
35.477
35.41
35.341
35.269
35.197
35.125
35.055
34.986
34.921
34.858
34.799
34.746
34.697
34.652
34.612
34.575
34.541
34.508
34.478
34.447
34.417
34.386
34.355
34.322
34.289
34.256
34.223
34.191
34.158
34.126
34.095
34.066
34.037
34.011
33.986
33.964
33.943
33.923
33.905
33.888
33.87
33.852
33.832
33.81
33.785
33.759
33.73
33.701
33.67
33.639
33.61
33.583
33.561
33.545
33.539
33.545
33.566
33.604
33.662
33.742
33.845
33.972
34.121
34.291
34.481
34.686
34.905
35.134
35.369
35.606
35.843
36.076
36.304
36.523
36.733
36.929
37.111
37.278
37.43
37.566
37.687
37.793
37.884
37.961
38.024
38.076
38.116
38.146
38.167
38.18
38.185
38.181
38.168
38.144
38.108
38.061
38.003
37.934
37.855
37.768
37.673
37.572
37.467
37.36
37.252
37.144
37.037
36.933
36.833
36.735
36.642
36.552
36.466
36.384
36.305
36.229
36.156
36.087
36.02
35.956
35.895
35.838
35.785
35.737
35.694
35.656
35.625
35.599
35.58
35.564
35.553
35.546
35.541
35.538
35.536
35.535
35.535
35.535
35.535
35.535
35.535
35.536
35.538
35.54
35.544
35.548
35.553
35.557
35.559
35.559
35.555
35.546
35.533
35.515
35.493
35.466
35.435
35.401
35.365
35.327
35.29
35.254
35.221
35.19
35.161
35.135
35.111
35.089
35.068
35.047
35.027
35.006
34.984
34.959
34.931
34.898
34.861
34.82
34.776
34.729
34.682
34.634
34.587
34.541
34.497
34.455
34.415
34.378
34.344
34.312
34.282
34.254
34.227
34.201
34.176
34.149
34.121
34.091
34.058
34.024
33.986
33.946
33.904
33.86
33.813
33.765
33.718
33.671
33.628
33.589
33.557
33.534
33.521
33.52
33.533
33.561
33.605
33.667
33.747
33.848
33.97
34.113
34.276
34.459
34.66
34.876
35.106
35.346
35.592
35.842
36.093
36.341
36.584
36.82
37.047
37.264
37.468
37.66
37.838
38.001
38.15
38.283
38.402
38.504
38.591
38.662
38.718
38.757
38.781
38.789
38.783
38.763
38.73
38.684
38.627
38.559
38.481
38.394
38.299
38.198
38.092
37.983
37.871
37.76
37.649
37.541
37.435
37.334
37.237
37.145
37.058
36.978
36.903
36.833
36.769
36.71
36.656
36.606
36.559
36.514
36.471
36.427
36.383
36.339
36.296
36.253
36.212
36.174
36.138
36.105
36.077
36.053
36.033
36.018
36.007
36.0
35.997
35.998
36.0
36.003
36.008
36.012
36.016
36.02
36.023
36.025
36.026
36.027
36.027
36.026
36.023
36.019
36.013
36.005
35.993
35.977
35.957
35.931
35.899
35.861
35.817
35.768
35.716
35.662
35.608
35.555
35.503
35.455
35.411
35.371
35.334
35.302
35.273
35.247
35.223
35.2
35.177
35.152
35.125
35.094
35.06
35.023
34.983
34.939
34.892
34.842
34.79
34.737
34.683
34.629
34.576
34.526
34.477
34.43
34.384
34.338
34.293
34.247
34.199
34.15
34.099
34.047
33.993
33.94
33.886
33.833
33.781
33.732
33.686
33.644
33.611
33.587
33.575
33.58
33.603
33.647
33.714
33.806
33.924
34.07
34.243
34.441
34.662
34.905
35.165
35.438
35.721
36.008
36.297
36.582
36.86
37.128
37.382
37.621
37.842
38.045
38.228
38.391
38.534
38.656
38.758
38.842
38.909
38.959
38.994
39.015
39.023
39.018
39.001
38.974
38.937
38.891
38.835
38.772
38.7
38.622
38.538
38.449
38.357
38.262
38.165
38.066
37.966
37.867
37.769
37.674
37.58
37.488
37.398
37.311
37.225
37.14
37.056
36.973
36.891
36.81
36.729
36.649
36.571
36.495
36.423
36.355
36.292
36.235
36.183
36.139
36.101
36.07
36.046
36.03
36.02
36.017
36.019
36.026
36.036
36.047
36.059
36.069
36.076
36.079
36.077
36.068
36.053
36.032
36.004
35.971
35.933
35.89
35.845
35.797
35.746
35.695
35.644
35.593
35.542
35.492
35.443
35.393
35.344
35.296
35.248
35.2
35.152
35.104
35.054
35.002
34.949
34.894
34.839
34.782
34.726
34.671
34.617
34.566
34.517
34.472
34.43
34.392
34.359
34.33
34.305
34.285
34.268
34.253
34.24
34.228
34.217
34.205
34.191
34.176
34.158
34.137
34.113
34.086
34.056
34.023
33.987
33.95
33.91
33.869
33.827
33.784
33.742
33.701
33.661
33.622
33.585
33.55
33.519
33.492
33.471
33.459
33.458
33.47
33.498
33.545
33.611
33.699
33.811
33.946
34.106
34.292
34.502
34.734
34.985
35.253
35.534
35.823
36.115
36.407
36.692
36.968
37.23
37.476
37.704
37.912
38.099
38.266
38.411
38.537
38.643
38.73
38.801
38.856
38.895
38.92
38.93
38.926
38.909
38.88
38.84
38.79
38.731
38.666
38.595
38.519
38.44
38.359
38.275
38.19
38.103
38.014
37.924
37.833
37.741
37.647
37.553
37.457
37.363
37.27
37.179
37.091
37.008
36.929
36.855
36.786
36.723
36.665
36.612
36.564
36.52
36.481
36.446
36.415
36.385
36.358
36.331
36.305
36.28
36.256
36.232
36.208
36.187
36.167
36.149
36.134
36.12
36.108
36.098
36.089
36.082
36.076
36.072
36.067
36.064
36.06
36.056
36.053
36.05
36.048
36.045
36.04
36.034
36.025
36.012
35.996
35.975
35.949
35.919
35.885
35.847
35.804
35.759
35.71
35.66
35.61
35.56
35.511
35.463
35.416
35.37
35.325
35.281
35.237
35.194
35.151
35.108
35.065
35.021
34.976
34.929
34.88
34.829
34.777
34.725
34.672
34.62
34.569
34.519
34.469
34.42
34.373
34.326
34.28
34.236
34.194
34.152
34.111
34.071
34.031
33.99
33.95
33.908
33.866
33.822
33.777
33.732
33.685
33.639
33.594
33.55
33.508
33.471
33.44
33.416
33.403
33.401
33.415
33.445
33.494
33.564
33.657
33.774
33.916
34.081
34.269
34.478
34.706
34.95
35.207
35.475
35.749
36.027
36.304
36.576
36.84
37.092
37.332
37.556
37.762
37.951
38.121
38.272
38.404
38.518
38.613
38.691
38.752
38.796
38.824
38.837
38.836
38.822
38.797
38.761
38.716
38.662
38.601
38.533
38.461
38.384
38.303
38.219
38.132
38.044
37.953
37.86
37.764
37.667
37.567
37.464
37.358
37.249
37.139
37.028
36.918
36.81
36.704
36.601
36.504
36.412
36.326
36.248
36.177
36.113
36.056
36.005
35.96
35.921
35.888
35.859
35.835
35.815
35.798
35.783
35.771
35.761
35.754
35.75
35.749
35.751
35.757
35.764
35.772
35.782
35.791
35.8
35.808
35.813
35.817
35.817
35.814
35.807
35.796
35.781
35.762
35.74
35.715
35.687
35.655
35.621
35.585
35.546
35.505
35.461
35.415
35.367
35.319
35.271
35.224
35.179
35.135
35.092
35.051
35.01
34.969
34.928
34.885
34.841
34.795
34.748
34.699
34.648
34.595
34.541
34.485
34.427
34.368
34.309
34.25
34.19
34.132
34.074
34.018
33.963
33.908
33.855
33.802
33.749
33.696
33.642
33.589
33.535
33.483
33.432
33.383
33.336
33.292
33.251
33.215
33.182
33.151
33.124
33.098
33.073
33.049
33.026
33.004
32.984
32.966
32.951
32.94
32.936
32.941
32.958
32.991
33.043
33.117
33.215
33.339
33.491
33.67
33.877
34.108
34.362
34.637
34.928
35.232
35.544
35.86
36.176
36.486
36.788
37.077
37.35
37.604
37.837
38.046
38.232
38.393
38.529
38.642
38.731
38.799
38.846
38.875
38.886
38.881
38.862
38.831
38.788
38.736
38.676
38.609
38.537
38.461
38.381
38.299
38.214
38.127
38.038
37.947
37.856
37.765
37.674
37.584
37.495
37.408
37.322
37.237
37.154
37.07
36.987
36.902
36.817
36.731
36.646
36.561
36.478
36.397
36.319
36.247
36.181
36.122
36.07
36.026
35.99
35.962
35.942
35.929
35.922
35.921
35.923
35.929
35.937
35.948
35.959
35.972
35.985
35.998
36.009
36.019
36.025
36.028
36.027
36.022
36.012
35.997
35.979
35.955
35.928
35.897
35.863
35.826
35.786
35.743
35.698
35.65
35.601
35.551
35.501
35.45
35.398
35.344
35.29
35.236
35.182
35.129
35.076
35.025
34.974
34.925
34.876
34.827
34.779
34.73
34.682
34.633
34.585
34.536
34.488
34.439
34.39
34.34
34.289
34.238
34.188
34.138
34.09
34.042
33.996
33.951
33.906
33.861
33.816
33.77
33.723
33.674
33.625
33.574
33.522
33.469
33.415
33.359
33.303
33.248
33.194
33.144
33.097
33.058
33.029
33.011
33.009
33.026
33.066
33.131
33.223
33.346
33.499
33.682
33.895
34.136
34.402
34.691
34.997
35.318
