Trial 1:0back
36.588
36.519
36.452
36.387
36.325
36.265
36.206
36.15
36.095
36.041
35.989
35.937
35.887
35.836
35.786
35.736
35.685
35.636
35.587
35.54
35.494
35.45
35.408
35.368
35.332
35.298
35.268
35.242
35.221
35.205
35.194
35.187
35.185
35.186
35.19
35.196
35.205
35.216
35.228
35.241
35.254
35.267
35.28
35.292
35.302
35.311
35.319
35.324
35.327
35.328
35.325
35.321
35.313
35.303
35.291
35.277
35.259
35.239
35.217
35.192
35.166
35.138
35.108
35.077
35.044
35.009
34.972
34.935
34.896
34.857
34.817
34.777
34.736
34.694
34.651
34.609
34.566
34.524
34.482
34.441
34.401
34.362
34.324
34.286
34.249
34.212
34.175
34.139
34.102
34.065
34.027
33.99
33.953
33.916
33.88
33.845
33.811
33.779
33.748
33.717
33.687
33.657
33.628
33.599
33.57
33.541
33.513
33.486
33.459
33.433
33.407
33.382
33.357
33.333
33.309
33.285
33.262
33.239
33.216
33.193
33.171
33.15
33.129
33.109
33.091
33.073
33.057
33.042
33.029
33.018
33.01
33.006
33.008
33.018
33.037
33.068
33.114
33.176
33.257
33.358
33.48
33.623
33.787
33.97
34.172
34.389
34.619
34.858
35.103
35.35
35.595
35.835
36.065
36.282
36.485
36.671
36.838
36.986
37.113
37.22
37.307
37.375
37.424
37.455
37.469
37.468
37.454
37.427
37.39
37.344
37.29
37.23
37.164
37.094
37.02
36.943
36.864
36.784
36.702
36.62
36.538
36.456
36.375
36.295
36.216
36.138
36.061
35.986
35.913
35.841
35.771
35.703
35.637
35.574
35.513
35.453
35.396
35.339
35.284
35.229
35.175
35.122
35.07
35.02
34.971
34.926
34.884
34.846
34.812
34.783
34.76
34.742
34.729
34.721
34.718
34.721
34.729
34.741
34.758
34.778
34.802
34.828
34.855
34.883
34.91
34.936
34.961
34.983
35.003
35.02
35.034
35.044
35.052
35.056
35.058
35.057
35.054
35.05
35.044
35.037
35.028
35.019
35.007
34.993
34.975
34.955
34.931
34.904
34.873
34.838
34.8
34.76
34.716
34.671
34.624
34.578
34.532
34.487
34.443
34.4
34.359
34.32
34.282
34.245
34.208
34.173
34.139
34.106
34.074
34.044
34.014
33.985
33.957
33.928
33.899
33.87
33.84
33.809
33.777
33.746
33.714
33.682
33.65
33.619
33.589
33.56
33.533
33.506
33.481
33.457
33.434
33.412
33.391
33.369
33.348
33.326
33.305
33.284
33.263
33.243
33.223
33.204
33.186
33.17
33.154
33.139
33.126
33.116
33.109
33.107
33.111
33.123
33.145
33.181
33.232
33.301
33.39
33.501
33.633
33.787
33.961
34.154
34.364
34.587
34.821
35.061
35.304
35.547
35.785
36.015
36.235
36.44
36.63
36.802
36.956
37.091
37.206
37.303
37.381
37.442
37.485
37.512
37.524
37.521
37.506
37.478
37.441
37.394
37.34
37.278
37.211
37.137
37.059
36.977
36.891
36.802
36.711
36.621
36.531
36.443
36.358
36.277
36.198
36.124
36.052
35.984
35.92
35.857
35.797
35.739
35.681
35.623
35.564
35.505
35.445
35.385
35.324
35.264
35.205
35.147
35.091
35.037
34.987
34.941
34.899
34.862
34.83
34.805
34.786
34.774
34.767
34.766
34.77
34.779
34.791
34.808
34.827
34.85
34.874
34.9
34.927
34.953
34.98
35.006
35.031
35.053
35.073
35.091
35.105
35.115
35.122
35.125
35.126
35.122
35.115
35.104
35.09
35.072
35.051
35.028
35.003
34.976
34.949
34.921
34.893
34.864
34.834
34.804
34.773
34.742
34.71
34.677
34.643
34.608
34.573
34.536
34.499
34.463
34.426
34.39
34.356
34.322
34.289
34.256
34.225
34.193
34.16
34.127
34.094
34.06
34.025
33.989
33.952
33.916
33.88
33.845
33.811
33.778
33.748
33.719
33.692
33.666
33.643
33.621
33.6
33.58
33.561
33.541
33.522
33.504
33.485
33.466
33.447
33.428
33.409
33.389
33.369
33.348
33.327
33.306
33.284
33.262
33.241
33.219
33.198
33.177
33.157
33.139
33.122
33.108
33.098
33.094
33.099
33.116
33.146
33.193
33.259
33.346
33.455
33.587
33.743
33.921
34.119
34.336
34.567
34.811
35.063
35.32
35.578
35.834
36.085
36.327
36.559
36.778
36.982
37.17
37.339
37.49
37.621
37.733
37.826
37.9
37.956
37.994
38.016
38.022
38.013
37.99
37.957
37.912
37.859
37.798
37.731
37.659
37.582
37.503
37.421
37.339
37.255
37.172
37.09
37.008
36.929
36.852
36.778
36.708
36.64
36.577
36.516
36.458
36.403
36.35
36.298
36.248
36.198
36.149
36.101
36.052
36.004
35.955
35.906
35.858
35.809
35.76
35.713
35.667
35.622
35.58
35.541
35.505
35.472
35.444
35.42
35.401
35.387
35.379
35.376
35.378
35.384
35.393
35.405
35.42
35.436
35.453
35.471
35.489
35.507
35.525
35.542
35.557
35.571
35.582
35.59
35.595
35.598
35.598
35.596
35.592
35.586
35.577
35.565
35.55
35.533
35.514
35.493
35.47
35.445
35.418
35.39
35.36
35.327
35.294
35.258
35.222
35.184
35.146
35.108
35.068
35.028
34.986
34.945
34.903
34.861
34.819
34.778
34.736
34.695
34.654
34.613
34.573
34.533
34.493
34.455
34.417
34.38
34.343
34.307
34.271
34.236
34.201
34.168
34.136
34.105
34.075
34.046
34.017
33.99
33.963
33.936
33.909
33.883
33.858
33.832
33.807
33.782
33.758
33.734
33.711
33.687
33.664
33.641
33.618
33.595
33.573
33.552
33.531
33.512
33.493
33.475
33.458
33.442
33.429
33.419
33.414
33.417
33.429
33.453
33.492
33.549
33.625
33.723
33.843
33.986
34.152
34.339
34.547
34.773
35.013
35.266
35.526
35.791
36.055
36.316
36.57
36.813
37.043
37.257
37.452
37.628
37.784
37.918
38.032
38.125
38.197
38.25
38.284
38.301
38.303
38.292
38.268
38.235
38.192
38.142
38.085
38.022
37.954
37.882
37.807
37.729
37.65
37.569
37.489
37.409
37.329
37.252
37.175
37.102
37.03
36.961
36.894
36.83
36.768
36.707
36.649
36.591
36.533
36.477
36.421
36.365
36.308
36.252
36.196
36.139
36.084
36.029
35.976
35.925
35.877
35.833
35.793
35.757
35.725
35.698
35.676
35.658
35.644
35.633
35.627
35.623
35.624
35.628
35.635
35.644
35.655
35.668
35.682
35.697
35.711
35.725
35.739
35.752
35.764
35.774
35.784
35.791
35.795
35.797
35.796
35.793
35.787
35.779
35.769
35.756
35.741
35.723
35.702
35.678
35.652
35.623
35.591
35.557
35.522
35.485
35.447
35.408
35.368
35.328
35.288
35.249
35.21
35.171
35.132
35.093
35.054
35.014
34.973
34.932
34.89
34.848
34.807
34.765
34.724
34.684
34.644
34.605
34.568
34.532
34.497
34.462
34.429
34.395
34.361
34.327
34.293
34.258
34.223
34.189
34.154
34.12
34.086
34.052
34.018
33.985
33.951
33.919
33.887
33.857
33.828
33.8
33.773
33.747
33.721
33.696
33.671
33.645
33.62
33.594
33.568
33.543
33.518
33.495
33.474
33.457
33.445
33.441
33.446
33.464
33.497
33.547
33.617
33.708
33.822
33.959
34.119
34.301
34.502
34.721
34.954
35.199
35.452
35.71
35.968
36.222
36.469
36.707
36.93
37.139
37.33
37.502
37.655
37.787
37.9
37.992
38.065
38.12
38.158
38.179
38.185
38.176
38.154
38.12
38.075
38.021
37.959
37.891
37.817
37.738
37.656
37.571
37.485
37.398
37.311
37.224
37.138
37.053
36.97
36.888
36.808
36.73
36.654
36.582
36.511
36.444
36.378
36.313
36.25
36.188
36.127
36.066
36.005
35.945
35.885
35.826
35.768
35.711
35.655
35.601
35.549
35.501
35.457
35.418
35.385
35.358
35.336
35.322
35.313
35.311
35.313
35.321
35.333
35.348
35.366
35.387
35.409
35.433
35.457
35.481
35.504
35.526
35.547
35.565
35.58
35.593
35.602
35.607
35.61
35.609
35.605
35.598
35.588
35.576
35.561
35.544
35.525
35.504
35.48
35.454
35.426
35.396
35.363
35.329
35.294
35.258
35.221
35.184
35.147
35.11
35.072
35.033
34.994
34.956
34.917
34.878
34.839
34.799
34.758
34.717
34.675
34.632
34.588
34.545
34.501
34.457
34.414
34.372
34.331
34.291
34.253
34.215
34.179
34.144
34.11
34.077
34.045
34.014
33.984
33.954
33.924
33.896
33.868
33.841
33.815
33.789
33.763
33.737
33.711
33.685
33.658
33.631
33.604
33.578
33.553
33.529
33.507
33.486
33.466
33.45
33.438
33.432
33.433
33.445
33.469
33.509
33.565
33.641
33.738
33.856
33.996
34.158
34.34
34.541
34.757
34.986
35.225
35.471
35.719
35.967
36.211
36.447
36.673
36.887
37.086
37.268
37.432
37.578
37.704
37.81
37.896
37.962
38.009
38.039
38.051
38.047
38.029
37.998
37.956
37.904
37.843
37.775
37.702
37.623
37.541
37.457
37.371
37.284
37.197
37.11
37.025
36.941
36.859
36.778
36.699
36.621
36.544
36.469
36.395
36.323
36.252
36.183
36.115
36.049
35.983
35.918
35.853
35.788
35.723
35.658
35.595
35.533
35.474
35.419
35.368
35.322
35.281
35.245
35.214
35.187
35.166
35.15
35.139
35.133
35.131
35.134
35.14
35.151
35.165
35.182
35.201
35.221
35.241
35.261
35.28
35.298
35.315
35.329
35.341
35.351
35.359
35.364
35.367
35.367
35.366
35.361
35.354
35.345
35.332
35.317
35.299
35.278
35.255
35.23
35.204
35.175
35.145
35.114
35.081
35.045
35.008
34.969
34.929
34.886
34.843
34.8
34.756
34.712
34.669
34.627
34.586
34.546
34.507
34.469
34.432
34.396
34.361
34.326
34.292
34.258
34.224
34.189
34.155
34.12
34.084
34.048
34.012
33.977
33.943
33.91
33.878
33.849
33.821
33.794
33.768
33.743
33.718
33.694
33.669
33.644
33.618
33.592
33.565
33.537
33.51
33.483
33.457
33.432
33.407
33.383
33.361
33.34
33.32
33.302
33.287
33.275
33.269
33.271
33.283
33.309
33.351
33.412
33.495
33.6
33.729
33.882
34.058
34.255
34.472
34.706
34.952
35.207
35.468
35.731
35.992
36.248
36.496
36.733
36.957
37.165
37.356
37.529
37.683
37.817
37.931
38.026
38.102
38.16
38.2
38.223
38.231
38.226
38.207
38.178
38.138
38.09
38.034
37.972
37.905
37.833
37.758
37.68
37.601
37.519
37.437
37.355
37.273
37.192
37.111
37.031
36.952
36.875
36.8
36.728
36.658
36.592
36.53
36.47
36.414
36.359
36.305
36.252
36.199
36.145
36.091
36.037
35.982
35.928
35.875
35.824
35.776
35.73
35.689
35.653
35.622
35.596
35.575
35.559
35.547
35.54
35.538
35.538
35.543
35.55
35.56
35.572
35.585
35.6
35.615
35.631
35.646
35.66
35.673
35.685
35.695
35.702
35.706
35.708
35.707
35.703
35.696
35.686
35.674
35.658
35.64
35.62
35.598
35.574
35.548
35.519
35.49
35.458
35.424
35.389
35.353
35.315
35.277
35.237
35.198
35.158
35.119
35.08
35.041
35.003
34.965
34.926
34.888
34.848
34.808
34.767
34.725
34.683
34.64
34.598
34.557
34.516
34.476
34.438
34.401
34.365
34.33
34.296
34.262
34.228
34.194
34.16
34.126
34.091
34.057
34.022
33.988
33.954
33.921
33.888
33.856
33.825
33.794
33.765
33.736
33.708
33.679
33.651
33.624
33.597
33.572
33.547
33.523
33.499
33.476
33.454
33.433
33.412
33.394
33.379
33.369
33.368
33.376
33.398
33.436
33.493
33.57
33.671
33.796
33.945
34.117
34.311
34.525
34.756
35.001
35.256
35.518
35.782
36.046
36.306
36.559
36.801
37.031
37.246
37.443
37.623
37.782
37.922
38.042
38.143
38.224
38.288
38.335
38.365
38.38
38.38
38.367
38.341
38.303
38.255
38.198
38.133
38.062
37.987
37.908
37.827
37.744
37.661
37.577
37.493
37.41
37.327
37.246
37.166
37.088
37.012
36.939
36.87
36.803
36.739
36.678
36.618
36.559
36.501
36.444
36.386
36.328
36.271
36.213
36.155
36.099
36.043
35.988
35.936
35.886
35.839
35.797
35.759
35.725
35.696
35.671
35.651
35.636
35.624
35.617
35.613
35.612
35.615
35.62
35.629
35.641
35.654
35.669
35.685
35.701
35.716
35.731
35.745
35.758
35.769
35.778
35.784
35.788
35.788
35.786
35.781
35.773
35.762
35.748
35.732
35.713
35.692
35.669
35.644
35.618
35.588
35.557
35.524
35.49
35.454
35.417
35.378
35.339
35.298
35.256
35.212
35.168
35.123
35.078
35.032
34.987
34.941
34.896
34.85
34.806
34.763
34.72
34.677
34.635
34.594
34.552
34.511
34.47
34.429
34.388
34.348
34.308
34.269
34.231
34.195
34.159
34.126
34.093
34.062
34.033
34.004
33.976
33.949
33.922
33.894
33.866
33.838
33.81
33.781
33.752
33.722
33.692
33.662
33.631
33.601
33.571
33.541
33.512
33.485
33.459
33.438
33.421
33.41
33.409
33.42
33.445
33.487
33.549
33.632
33.738
33.868
34.021
34.196
34.392
34.606
34.838
35.082
35.337
35.598
35.861
36.123
36.38
36.629
36.867
37.091
37.298
37.488
37.659
37.809
37.939
38.049
38.138
38.208
38.261
38.297
38.318
38.325
38.319
38.3
38.271
38.232
38.184
38.128
38.064
37.995
37.921
37.843
37.763
37.681
37.599
37.516
37.433
37.35
37.269
37.189
37.111
37.034
36.96
36.888
36.817
36.748
36.68
36.612
36.544
36.477
36.41
36.343
36.277
36.211
36.146
36.081
36.018
35.957
35.899
35.843
35.792
35.745
35.703
35.666
35.634
35.606
35.583
35.563
35.547
35.536
35.528
35.525
35.527
35.533
35.543
35.557
35.575
35.596
35.62
35.645
35.672
35.699
35.725
35.75
35.772
35.791
35.806
35.816
35.821
35.821
35.815
35.803
35.787
35.766
35.74
35.711
35.678
35.642
35.606
35.569
35.531
35.493
35.455
35.417
35.378
35.339
35.3
35.26
35.222
35.183
35.146
35.108
35.071
35.034
34.996
34.957
34.918
34.878
34.837
34.796
34.754
34.711
34.667
34.624
34.581
34.539
34.498
34.457
34.417
34.376
34.336
34.296
34.255
34.215
34.175
34.135
34.096
34.057
34.019
33.983
33.947
33.913
33.88
33.848
33.817
33.787
33.758
33.729
33.701
33.674
33.646
33.619
33.592
33.564
33.537
33.509
33.481
33.452
33.423
33.394
33.367
33.341
33.319
33.301
33.291
33.29
33.301
33.328
33.373
33.438
33.527
33.641
33.78
33.945
34.134
34.346
34.577
34.826
35.087
35.358
35.634
35.912
36.188
36.458
36.72
36.971
37.208
37.43
37.633
37.818
37.983
38.128
38.253
38.357
38.441
38.507
38.555
38.586
38.601
38.602
38.589
38.563
38.526
38.48
38.426
38.366
38.301
38.233
38.162
38.089
38.014
37.939
37.863
37.786
37.708
37.629
37.55
37.471
37.392
37.314
37.236
37.161
37.086
37.013
36.942
36.872
36.803
36.735
36.668
36.602
36.536
36.472
36.409
36.347
36.287
36.228
36.172
36.118
36.066
36.018
35.972
35.93
35.891
35.857
35.827
35.802
35.781
35.765
35.755
35.748
35.745
35.746
35.751
35.759
35.769
35.781
35.793
35.807
35.82
35.833
35.846
35.858
35.87
35.88
35.888
35.895
35.899
35.899
35.897
35.89
35.878
35.862
35.842
35.817
35.79
35.76
35.727
35.692
35.656
35.617
35.578
35.538
35.497
35.455
35.413
35.371
35.327
35.284
35.239
35.194
35.148
35.102
35.056
35.01
34.963
34.917
34.871
34.825
34.78
34.734
34.689
34.644
34.6
34.557
34.514
34.472
34.432
34.392
34.354
34.316
34.28
34.243
34.207
34.169
34.131
34.092
34.053
34.013
33.973
33.933
33.894
33.857
33.82
33.785
33.751
33.717
33.684
33.651
33.618
33.584
33.55
33.515
33.48
33.444
33.41
33.377
33.346
33.317
33.291
33.269
33.251
33.239
33.235
33.242
33.261
33.295
33.348
33.421
33.517
33.638
33.784
33.957
34.154
34.375
34.616
34.875
35.147
35.429
35.717
36.005
36.291
36.571
36.84
37.097
37.339
37.563
37.768
37.954
38.12
38.266
38.392
38.499
38.587
38.657
38.709
38.745
38.766
38.771
38.763
38.742
38.71
38.666
38.614
38.554
38.487
38.415
38.338
38.259
38.179
38.097
38.015
37.934
37.854
37.775
37.697
37.622
37.549
37.478
37.409
37.343
37.279
37.216
37.156
37.098
37.04
36.983
36.927
36.87
36.813
36.755
36.696
36.637
36.577
36.518
36.459
36.402
36.348
36.296
36.247
36.201
36.159
36.12
36.086
36.055
36.029
36.007
35.99
35.977
35.969
35.965
35.964
35.965
35.97
35.977
35.986
35.996
36.006
36.016
36.026
36.034
36.041
36.047
36.051
36.054
36.054
36.053
36.048
36.04
36.029
36.014
35.995
35.971
35.943
35.912
35.878
35.842
35.804
35.764
35.722
35.679
35.635
35.589
35.543
35.497
35.45
35.404
35.358
35.312
35.266
35.22
35.173
35.126
35.078
35.029
34.98
34.929
34.877
34.825
34.772
34.719
34.666
34.612
34.559
34.507
34.455
34.404
34.355
34.308
34.262
34.219
34.178
34.138
34.1
34.063
34.027
33.99
33.953
33.915
33.878
33.84
33.803
33.766
33.73
33.695
33.66
33.626
33.593
33.561
33.529
33.498
33.466
33.433
33.4
33.366
33.332
33.298
33.265
33.231
33.199
33.168
33.139
33.113
33.09
33.072
33.06
33.056
33.062
33.081
33.116
33.168
33.241
33.336
33.455
33.599
33.768
33.96
34.175
34.41
34.664
34.931
35.209
35.494
35.782
36.068
36.35
36.623
36.885
37.132
37.364
37.577
37.771
37.944
38.097
38.229
38.34
38.43
38.502
38.554
38.589
38.608
38.612
38.602
38.58
38.546
38.503
38.452
38.393
38.329
38.259
38.185
38.108
38.028
37.945
37.861
37.776
37.691
37.605
37.519
37.434
37.35
37.268
37.188
37.109
37.034
36.96
36.889
36.82
36.753
36.687
36.623
36.559
36.495
36.432
36.367
36.303
36.238
36.173
36.11
36.049
35.992
35.939
35.89
35.845
35.806
35.772
35.743
35.72
35.703
35.691
35.685
35.684
35.688
35.696
35.708
35.723
35.739
35.758
35.777
35.795
35.813
35.829
35.843
35.855
35.863
35.869
35.871
35.869
35.864
35.856
35.843
35.827
35.808
35.787
35.763
35.737
35.71
35.68
35.649
35.616
35.58
35.543
35.503
35.461
35.417
35.371
35.324
35.276
35.226
35.176
35.125
35.075
35.024
34.972
34.921
34.87
34.82
34.769
34.719
34.668
34.617
34.566
34.514
34.463
34.412
34.362
34.312
34.263
34.216
34.17
34.125
34.082
34.041
34.001
33.962
33.924
33.888
33.852
33.816
33.78
33.742
33.705
33.666
33.627
33.589
33.55
33.512
33.474
33.437
33.401
33.366
33.332
33.3
33.268
33.238
33.208
33.179
33.15
33.122
33.093
33.064
33.035
33.007
32.982
32.96
32.945
32.938
32.944
32.964
33.003
33.063
33.146
33.253
33.386
33.544
33.725
33.927
34.148
34.385
34.635
34.894
35.159
35.425
35.689
35.947
36.197
36.434
36.658
36.865
37.054
37.223
37.373
37.502
37.612
37.702
37.772
37.823
37.857
37.874
37.875
37.861
37.834
37.795
37.746
37.687
37.619
37.545
37.464
37.379
37.29
37.198
37.104
37.01
36.915
36.82
36.727
36.636
36.546
36.459
36.373
36.289
36.207
36.127
36.049
35.972
35.896
35.82
35.745
35.67
35.597
35.524
35.452
35.383
35.315
35.249
35.187
35.128
35.073
35.022
34.975
34.934
34.897
34.866
34.84
34.819
34.803
34.792
34.786
34.786
34.791
34.8
34.813
34.829
34.847
34.867
34.889
34.912
34.935
34.959
34.982
35.005
35.025
35.041
35.054
35.062
35.065
35.062
35.053
35.039
35.021
34.998
34.972
34.944
34.914
34.881
34.848
34.813
34.777
34.741
34.704
34.666
34.628
34.589
34.549
34.509
34.468
34.426
34.383
34.339
34.294
34.249
34.203
34.157
34.111
34.065
34.02
33.975
33.93
33.886
33.843
33.8
33.758
33.716
33.675
33.633
33.591
33.55
33.509
33.469
33.429
33.39
33.351
33.314
33.277
33.242
33.207
33.174
33.141
33.109
33.077
33.045
33.012
32.979
32.947
32.915
32.884
32.854
32.824
32.796
32.767
32.739
32.712
32.685
32.659
32.632
32.607
32.584
32.563
32.546
32.536
32.533
32.54
32.56
32.597
32.651
32.726
32.824
32.945
33.091
33.259
33.45
33.661
33.891
34.134
34.389
34.65
34.915
35.18
35.44
35.692
35.933
36.161
36.372
36.564
36.736
36.887
37.017
37.126
37.214
37.281
37.329
37.359
37.372
37.369
37.352
37.322
37.281
37.23
37.172
37.107
37.036
36.962
36.884
36.805
36.724
36.642
36.559
36.476
36.394
36.312
36.231
36.15
36.071
35.993
35.917
35.843
35.772
35.701
35.633
35.565
35.499
35.433
35.368
35.304
35.241
35.179
35.117
35.057
34.997
34.94
34.885
34.833
34.784
34.738
34.697
34.659
34.625
34.595
34.569
34.547
34.529
34.514
34.502
34.494
34.49
34.489
34.491
34.496
34.505
34.515
34.528
34.543
34.558
34.574
34.59
34.606
34.622
34.637
34.65
34.66
34.668
34.673
34.674
34.672
34.665
34.654
34.639
34.621
34.599
34.574
