Trial 1:0back
31.222
31.228
31.233
31.236
31.237
31.236
31.232
31.226
31.216
31.203
31.187
31.168
31.146
31.121
31.095
31.066
31.035
31.0
30.961
30.918
30.871
30.821
30.77
30.716
30.663
30.611
30.562
30.515
30.472
30.434
30.402
30.377
30.362
30.362
30.381
30.427
30.507
30.628
30.8
31.031
31.326
31.691
32.127
32.634
33.205
33.834
34.51
35.219
35.949
36.684
37.412
38.117
38.786
39.409
39.975
40.479
40.916
41.285
41.587
41.825
42.002
42.124
42.195
42.222
42.21
42.165
42.093
41.999
41.887
41.758
41.618
41.469
41.311
41.148
40.98
40.808
40.631
40.451
40.266
40.076
39.878
39.674
39.462
39.242
39.014
38.778
38.535
38.285
38.03
37.77
37.507
37.243
36.978
36.714
36.454
36.197
35.946
35.699
35.457
35.221
34.992
34.77
34.557
34.355
34.166
33.992
33.837
33.704
33.594
33.511
33.456
33.431
33.436
33.471
33.535
33.627
33.744
33.884
34.043
34.219
34.407
34.603
34.804
35.006
35.207
35.404
35.594
35.776
35.947
36.104
36.248
36.377
36.489
36.584
36.661
36.718
36.757
36.777
36.78
36.765
36.735
36.691
36.637
36.575
36.504
36.428
36.348
36.263
36.176
36.085
35.991
35.893
35.791
35.686
35.575
35.46
35.34
35.215
35.087
34.954
34.818
34.68
34.54
34.399
34.259
34.121
33.985
33.852
33.722
33.595
33.473
33.355
33.241
33.132
33.028
32.926
32.829
32.736
32.646
32.561
32.48
32.403
32.332
32.266
32.205
32.149
32.097
32.051
32.011
31.977
31.95
31.928
31.91
31.895
31.88
31.866
31.851
31.836
31.822
31.807
31.794
31.782
31.773
31.767
31.764
31.766
31.771
31.779
31.79
31.803
31.818
31.836
31.857
31.879
31.902
31.924
31.946
31.967
31.986
32.003
32.019
32.033
32.044
32.054
32.06
32.065
32.067
32.065
32.06
32.05
32.035
32.014
31.988
31.958
31.923
31.886
31.847
31.809
31.773
31.739
31.709
31.685
31.668
31.659
31.662
31.677
31.708
31.759
31.835
31.941
32.082
32.265
32.495
32.776
33.111
33.503
33.951
34.45
34.995
35.576
36.185
36.81
37.438
38.058
38.658
39.227
39.756
40.237
40.665
41.036
41.348
41.602
41.801
41.949
42.051
42.112
42.137
42.131
42.099
42.043
41.967
41.875
41.768
41.648
41.516
41.371
41.216
41.051
40.876
40.694
40.507
40.316
40.121
39.921
39.718
39.51
39.298
39.08
38.856
38.624
38.383
38.134
37.876
37.612
37.341
37.066
36.789
36.51
36.232
35.957
35.687
35.424
35.169
34.925
34.693
34.474
34.271
34.084
33.917
33.77
33.648
33.551
33.483
33.444
33.436
33.458
33.511
33.592
33.7
33.833
33.988
34.161
34.348
34.547
34.754
34.966
35.177
35.383
35.579
35.762
35.93
36.082
36.217
36.336
36.438
36.525
36.596
36.653
36.694
36.72
36.731
36.726
36.708
36.675
36.629
36.571
36.502
36.423
36.337
36.243
36.145
36.043
35.937
35.829
35.718
35.603
35.487
35.367
35.245
35.12
34.992
34.861
34.727
34.591
34.453
34.315
34.176
34.041
33.908
33.781
33.66
33.546
33.439
33.338
33.245
33.158
33.076
32.999
32.925
32.852
32.781
32.709
32.636
32.564
32.493
32.423
32.356
32.294
32.236
32.184
32.139
32.101
32.069
32.041
32.017
31.995
31.975
31.956
31.938
31.921
31.906
31.891
31.879
31.868
31.858
31.85
31.843
31.838
31.835
31.833
31.834
31.837
31.843
31.85
31.859
31.87
31.882
31.896
31.913
31.93
31.946
31.96
31.971
31.978
31.981
31.98
31.976
31.969
31.959
31.948
31.936
31.922
31.906
31.888
31.867
31.843
31.818
31.793
31.769
31.748
31.735
31.734
31.751
31.791
31.862
31.971
32.124
32.326
32.584
32.899
33.274
33.708
34.198
34.739
35.325
35.946
36.59
37.248
37.906
38.555
39.182
39.777
40.333
40.842
41.298
41.699
42.042
42.326
42.552
42.722
42.839
42.908
42.933
42.92
42.876
42.805
42.713
42.606
42.487
42.36
42.227
42.088
41.945
41.796
41.642
41.481
41.314
41.139
40.958
40.77
40.575
40.374
40.166
39.954
39.736
39.515
39.293
39.071
38.85
38.63
38.409
38.186
37.96
37.731
37.499
37.262
37.024
36.785
36.548
36.316
36.09
35.873
35.669
35.479
35.305
35.152
35.02
34.911
34.826
34.767
34.733
34.725
34.741
34.782
34.845
34.929
35.034
35.157
35.297
35.45
35.614
35.785
35.958
36.131
36.299
36.459
36.608
36.743
36.863
36.967
37.054
37.124
37.177
37.215
37.238
37.248
37.246
37.234
37.212
37.181
37.141
37.092
37.034
36.967
36.892
36.811
36.724
36.631
36.53
36.421
36.305
36.183
36.054
35.921
35.785
35.646
35.508
35.372
35.239
35.109
34.982
34.857
34.734
34.612
34.491
34.369
34.248
34.127
34.007
33.889
33.773
33.661
33.555
33.454
33.359
33.271
33.188
33.111
33.038
32.969
32.904
32.842
32.783
32.726
32.671
32.619
32.57
32.524
32.481
32.441
32.402
32.366
32.332
32.301
32.274
32.252
32.235
32.222
32.215
32.213
32.215
32.221
32.229
32.238
32.249
32.261
32.274
32.288
32.302
32.317
32.333
32.349
32.366
32.382
32.397
32.411
32.423
32.433
32.439
32.442
32.439
32.431
32.418
32.401
32.38
32.357
32.333
32.308
32.285
32.262
32.242
32.222
32.204
32.187
32.171
32.156
32.145
32.14
32.146
32.168
32.212
32.286
32.397
32.553
32.758
33.019
33.337
33.715
34.151
34.642
35.181
35.759
36.368
36.995
37.629
38.257
38.869
39.453
40.002
40.507
40.963
41.368
41.719
42.017
42.262
42.456
42.603
42.706
42.769
42.796
42.794
42.767
42.719
42.651
42.567
42.468
42.356
42.235
42.106
41.97
41.827
41.677
41.52
41.354
41.18
40.996
40.802
40.604
40.407
40.212
40.018
39.825
39.631
39.435
39.234
39.029
38.819
38.604
38.383
38.159
37.93
37.699
37.465
37.231
36.999
36.77
36.547
36.333
36.131
35.944
35.774
35.624
35.498
35.396
35.321
35.271
35.249
35.252
35.281
35.334
35.41
35.505
35.616
35.741
35.876
36.017
36.162
36.307
36.451
36.59
36.723
36.848
36.963
37.066
37.157
37.234
37.298
37.348
37.385
37.409
37.421
37.42
37.407
37.384
37.352
37.311
37.263
37.208
37.147
37.08
37.005
36.924
36.836
36.741
36.639
36.53
36.415
36.294
36.167
36.037
35.904
35.768
35.632
35.496
35.363
35.233
35.106
34.984
34.866
34.752
34.643
34.537
34.434
34.333
34.234
34.136
34.039
33.942
33.846
33.751
33.66
33.572
33.488
33.409
33.334
33.264
33.2
33.141
33.086
33.035
32.99
32.948
32.91
32.876
32.845
32.818
32.795
32.776
32.761
32.748
32.739
32.732
32.729
32.728
32.729
32.732
32.737
32.742
32.747
32.752
32.756
32.758
32.759
32.759
32.757
32.755
32.752
32.751
32.751
32.755
32.761
32.771
32.783
32.796
32.808
32.819
32.828
32.833
32.834
32.829
32.819
32.804
32.782
32.755
32.724
32.688
32.65
32.61
32.57
32.531
32.492
32.455
32.42
32.387
32.356
32.33
32.31
32.297
32.296
32.311
32.346
32.407
32.502
32.635
32.813
33.04
33.322
33.659
34.052
34.499
34.996
35.535
36.107
36.701
37.305
37.908
38.497
39.063
39.598
40.094
40.547
40.951
41.305
41.608
41.86
42.064
42.222
42.336
42.41
42.449
42.456
42.439
42.4
42.345
42.276
42.194
42.102
42.002
41.892
41.775
41.649
41.516
41.375
41.226
41.069
40.904
40.729
40.545
40.352
40.152
39.946
39.736
39.522
39.308
39.094
38.881
38.671
38.463
38.258
38.056
37.857
37.661
37.468
37.278
37.092
36.912
36.737
36.57
36.413
36.267
36.135
36.02
35.924
35.848
35.795
35.763
35.755
35.769
35.805
35.862
35.937
36.025
36.124
36.229
36.338
36.448
36.558
36.665
36.769
36.868
36.962
37.049
37.131
37.206
37.272
37.33
37.379
37.416
37.443
37.459
37.463
37.455
37.436
37.406
37.366
37.316
37.258
37.193
37.12
37.042
36.958
36.87
36.777
36.679
36.577
36.471
36.362
36.249
36.132
36.013
35.891
35.768
35.644
35.521
35.398
35.277
35.158
35.041
34.927
34.815
34.706
34.599
34.496
34.395
34.297
34.202
34.109
34.02
33.934
33.852
33.775
33.701
33.632
33.568
33.509
33.455
33.406
33.361
33.321
33.284
33.25
33.218
33.187
33.157
33.128
33.099
33.07
33.042
33.015
32.989
32.967
32.948
32.933
32.923
32.918
32.917
32.92
32.926
32.933
32.941
32.949
32.957
32.963
32.968
32.972
32.975
32.978
32.981
32.986
32.992
32.999
33.007
33.017
33.027
33.036
33.042
33.046
33.044
33.037
33.024
33.004
32.977
32.944
32.906
32.864
32.818
32.772
32.725
32.68
32.637
32.597
32.559
32.525
32.494
32.469
32.45
32.44
32.442
32.462
32.502
32.569
32.666
32.802
32.979
33.205
33.481
33.81
34.189
34.617
35.088
35.595
36.13
36.685
37.25
37.814
38.365
38.895
39.393
39.851
40.264
40.628
40.943
41.207
41.422
41.591
41.715
41.8
41.848
41.865
41.855
41.822
41.77
41.7
41.617
41.522
41.418
41.306
41.188
41.064
40.936
40.804
40.668
40.528
40.384
40.234
40.078
39.915
39.746
39.571
39.388
39.2
39.007
38.811
38.613
38.414
38.214
38.015
37.819
37.626
37.437
37.252
37.069
36.89
36.716
36.545
36.38
36.222
36.071
35.93
35.802
35.689
35.594
35.519
35.464
35.432
35.423
35.435
35.469
35.521
35.589
35.672
35.768
35.873
35.984
36.099
36.214
36.328
36.437
36.539
36.632
36.717
36.791
36.856
36.909
36.952
36.982
37.001
37.008
37.003
36.987
36.96
36.923
36.878
36.826
36.768
36.704
36.635
36.561
36.482
36.398
36.309
36.215
36.117
36.015
35.909
35.798
35.683
35.565
35.443
35.32
35.196
35.072
34.948
34.825
34.704
34.587
34.473
34.362
34.256
34.153
34.055
33.96
33.869
33.78
33.695
33.611
33.529
33.45
33.372
33.298
33.228
33.163
33.103
33.048
32.999
32.957
32.919
32.887
32.859
32.834
32.812
32.791
32.771
32.751
32.732
32.714
32.696
32.68
32.665
32.653
32.643
32.638
32.635
32.636
32.64
32.646
32.654
32.663
32.671
32.678
32.684
32.689
32.692
32.692
32.688
32.68
32.668
32.653
32.634
32.613
32.591
32.568
32.544
32.519
32.492
32.465
32.436
32.407
32.376
32.344
32.311
32.278
32.246
32.216
32.192
32.176
32.172
32.185
32.217
32.274
32.36
32.478
32.634
32.831
33.07
33.355
33.684
34.056
34.468
34.915
35.391
35.889
36.4
36.917
37.43
37.93
38.411
38.865
39.286
39.669
40.011
40.31
40.564
40.773
40.939
41.062
41.146
41.192
41.205
41.188
41.147
41.084
41.004
40.909
40.802
40.685
40.561
40.431
40.295
40.153
40.007
39.856
39.701
39.541
39.377
39.208
39.035
38.857
38.674
38.486
38.293
38.096
37.895
37.69
37.484
37.276
37.069
36.862
36.656
36.45
36.246
36.044
35.846
35.654
35.472
35.302
35.147
35.009
34.892
34.796
34.725
34.677
34.654
34.657
34.683
34.732
34.801
34.886
34.987
35.099
35.223
35.354
35.492
35.634
35.777
35.918
36.056
36.188
36.312
36.424
36.524
36.611
36.683
36.741
36.784
36.812
36.826
36.826
36.813
36.789
36.753
36.708
36.655
36.596
36.532
36.464
36.391
36.314
36.232
36.145
36.052
35.954
35.85
35.741
35.628
35.511
35.391
35.27
35.148
35.026
34.907
34.791
34.677
34.567
34.46
34.356
34.255
34.157
34.062
33.97
33.881
33.797
33.717
33.641
33.57
33.505
33.445
33.39
33.341
33.298
33.261
33.228
33.2
33.174
33.15
33.126
33.101
33.077
33.051
33.025
32.999
32.973
32.949
32.928
32.909
32.896
32.886
32.882
32.881
32.884
32.889
32.894
32.899
32.901
32.899
32.892
32.879
32.859
32.833
32.8
32.762
32.72
32.675
32.628
32.581
32.534
32.49
32.448
32.409
32.373
32.34
32.311
32.289
32.273
32.267
32.275
32.299
32.346
32.418
32.52
32.658
32.833
33.051
33.31
33.612
33.954
34.334
34.747
35.187
35.647
36.12
36.596
37.068
37.529
37.973
38.393
38.786
39.148
39.476
39.769
40.026
40.247
40.43
40.576
40.687
40.763
40.808
40.823
40.81
40.771
40.711
40.631
40.535
40.427
40.309
40.184
40.051
39.912
39.769
39.62
39.466
39.306
39.141
38.971
38.795
38.614
38.428
38.237
38.042
37.843
37.641
37.436
37.228
37.017
36.804
36.587
36.367
36.145
35.922
35.702
35.485
35.276
35.077
34.892
34.723
34.575
34.45
34.349
34.275
34.229
34.212
34.223
34.261
34.318
34.391
34.479
34.582
34.697
34.824
34.96
35.104
35.253
35.405
35.559
35.71
35.858
35.999
36.131
36.253
36.362
36.456
36.533
36.593
36.635
36.66
36.668
36.66
36.636
36.598
36.549
36.49
36.422
36.347
36.267
36.181
36.092
35.999
35.902
35.802
35.699
35.593
35.484
35.372
35.257
35.139
35.019
34.897
34.774
34.651
34.529
34.409
34.293
34.18
34.071
33.967
33.868
33.774
33.686
33.604
33.526
33.453
33.384
33.317
33.254
33.194
33.137
33.084
33.036
32.994
32.957
32.926
32.901
32.88
32.864
32.851
32.841
32.833
32.826
32.818
32.809
32.797
32.784
32.768
32.75
32.73
32.71
32.691
32.672
32.654
32.636
32.62
32.604
32.588
32.574
32.561
32.551
32.543
32.54
32.542
32.552
32.572
32.608
32.665
32.748
32.863
33.014
33.204
33.435
33.709
34.025
34.38
34.771
35.194
35.642
36.11
36.588
37.069
37.546
38.011
38.459
38.883
39.278
39.641
39.968
40.259
40.513
40.729
40.908
41.051
41.16
41.236
41.281
41.297
41.287
41.254
41.201
41.131
41.047
40.953
40.851
40.741
40.625
40.503
40.375
40.242
40.103
39.958
39.807
39.651
39.491
39.327
39.16
38.992
38.822
38.65
38.476
38.301
38.124
37.945
37.764
37.581
37.397
37.211
37.026
36.843
36.664
36.491
36.325
36.167
36.017
35.878
35.753
35.643
35.551
35.479
35.427
35.396
35.385
35.395
35.424
35.471
35.533
35.609
35.697
35.792
35.894
36.0
36.106
36.211
36.312
36.409
36.499
36.584
36.66
36.728
36.786
36.833
36.867
36.889
36.898
36.895
36.881
36.857
36.824
36.78
36.728
36.669
36.602
36.529
36.45
36.365
36.275
36.18
36.081
35.979
35.874
35.766
35.655
35.541
35.424
35.303
35.181
35.058
34.934
34.811
34.69
34.571
34.454
34.342
34.233
34.129
34.029
33.933
33.841
33.752
33.666
33.583
33.503
33.429
33.359
33.294
33.235
33.183
33.139
33.103
33.074
33.052
33.034
33.02
33.006
32.994
32.981
32.968
32.954
32.939
32.924
32.908
32.892
32.876
32.861
32.847
32.836
32.826
32.818
32.813
32.81
32.809
32.808
32.806
32.803
32.798
32.79
32.779
32.765
32.747
32.726
32.702
32.676
32.648
32.619
32.59
32.562
32.535
32.512
32.493
32.48
32.474
32.48
32.502
32.546
32.616
32.719
32.86
33.044
33.274
33.553
33.881
34.256
34.676
35.134
35.623
36.136
36.662
37.191
37.714
38.222
38.707
39.162
39.582
39.965
40.308
40.609
40.869
41.088
41.268
41.411
41.521
41.602
41.657
41.689
41.699
41.691
41.666
41.624
41.568
41.499
41.417
41.325
41.223
41.113
40.996
40.873
40.746
40.614
40.477
40.338
40.195
40.049
39.9
39.75
39.598
39.445
39.293
39.141
38.99
38.842
38.695
38.55
38.407
38.265
38.124
37.983
37.842
37.701
37.559
37.417
37.274
37.134
36.999
36.872
36.756
36.654
36.568
36.5
36.45
36.418
36.404
36.406
36.423
36.451
36.488
36.532
36.579
36.627
36.675
36.721
36.766
36.809
36.851
36.891
36.929
36.964
36.994
37.018
37.036
37.047
37.05
37.044
37.029
37.004
36.969
36.924
36.87
36.807
36.737
36.66
36.579
36.495
36.409
36.321
36.231
36.139
36.046
35.952
35.857
35.761
35.664
35.564
35.463
35.359
35.252
35.143
35.031
34.917
34.801
34.685
34.57
34.46
34.359
34.27
34.189
34.114
34.045
33.98
33.917
33.856
33.794
33.733
33.672
33.612
33.553
33.498
33.447
33.4
33.358
33.321
33.29
33.264
33.241
33.222
33.204
33.188
33.172
33.157
33.141
33.126
33.111
33.096
33.083
33.072
33.064
33.057
33.052
33.047
33.043
33.038
33.033
33.028
33.02
33.01
32.997
32.981
32.963
32.942
32.92
32.897
32.873
32.85
32.827
32.805
32.784
32.763
32.742
32.719
32.693
32.664
32.63
32.591
32.548
32.501
32.452
32.403
32.355
32.313
32.28
32.26
32.259
32.283
32.336
32.424
32.551
32.721
32.937
33.201
33.512
33.869
34.267
34.702
35.167
35.655
36.16
36.673
37.186
37.692
38.182
38.65
39.09
39.496
39.864
40.193
40.479
40.723
40.926
41.088
41.212
41.302
41.361
41.391
41.397
41.383
41.35
41.302
41.241
41.17
41.088
41.0
40.904
40.803
40.696
40.585
40.471
40.353
40.232
40.109
39.984
39.858
39.732
39.607
39.483
39.359
39.235
39.111
38.985
38.858
38.728
38.595
38.459
38.32
38.181
38.041
37.901
37.762
37.626
37.493
37.366
37.245
37.131
37.025
36.928
36.841
36.763
36.695
36.636
36.589
36.553
36.53
36.519
36.519
36.529
36.548
36.575
36.608
36.644
36.682
36.718
36.752
36.781
36.804
36.82
36.83
36.833
36.829
36.819
36.803
36.782
36.758
36.729
36.698
36.663
36.626
36.585
36.54
36.491
36.437
36.377
36.31
36.236
36.156
36.07
35.979
35.883
35.783
35.681
35.576
35.471
35.365
35.259
35.154
35.049
34.946
34.844
34.743
34.642
34.541
34.439
34.336
34.231
34.126
34.021
33.919
33.819
33.724
33.636
33.554
33.479
33.412
33.351
33.297
33.247
33.201
33.157
33.115
33.073
33.033
32.994
32.956
32.919
32.884
32.851
32.821
32.794
32.772
32.755
32.742
32.734
32.728
32.724
32.719
32.714
32.706
32.698
32.687
32.674
32.662
32.649
32.637
32.627
32.618
32.611
32.606
32.604
32.602
32.601
32.6
32.597
32.592
32.584
32.573
32.56
32.545
32.527
32.506
32.483
32.459
32.433
32.406
32.379
32.351
32.322
32.292
32.259
32.223
32.184
32.142
32.096
32.047
31.994
31.94
31.883
31.825
31.768
31.711
31.657
31.608
31.567
31.536
31.52
31.521
31.545
31.596
31.68
31.802
31.966
32.178
32.439
32.753
33.119
33.534
33.995
34.493
35.019
35.565
36.12
36.675
37.22
37.747
38.247
38.715
39.144
39.531
39.873
40.169
40.419
40.625
40.79
40.917
41.009
41.071
41.106
41.119
41.11
41.085
41.044
40.989
40.922
40.844
40.757
40.661
40.557
40.448
40.334
40.215
40.093
39.969
39.841
39.711
39.578
39.443
39.305
39.164
39.021
38.875
38.726
38.576
38.424
38.273
38.122
37.971
37.823
37.677
37.535
37.396
37.26
37.129
37.004
36.886
36.774
36.67
36.574
36.486
36.406
36.337
36.279
36.233
36.2
36.181
36.175
36.182
36.2
36.229
36.266
36.31
36.359
36.411
36.465
36.518
36.569
36.616
36.657
36.693
36.722
36.745
36.762
36.773
36.779
36.78
36.775
36.765
36.748
36.723
36.689
36.647
36.596
36.535
36.467
36.39
36.307
36.218
36.124
36.027
35.927
35.826
35.724
35.624
35.525
35.427
35.329
35.232
35.135
35.038
34.94
34.842
34.744
34.647
34.551
34.459
34.368
34.279
34.193
34.109
34.027
33.947
33.871
33.797
33.727
33.66
33.596
33.533
33.473
33.416
33.362
33.311
33.266
33.225
33.19
33.161
33.138
33.121
33.108
33.1
33.096
33.095
33.096
33.098
33.1
33.102
33.104
33.104
33.104
33.103
33.103
33.103
33.102
33.1
33.098
33.096
33.093
33.09
33.087
33.083
33.078
33.071
33.062
33.05
33.035
33.018
32.997
32.974
32.949
32.92
32.89
32.857
32.824
32.79
32.754
32.716
32.677
32.635
32.59
32.541
32.489
32.434
32.378
32.319
32.26
32.202
32.147
32.097
32.056
32.027
32.014
32.022
32.055
32.117
32.212
32.344
32.517
32.734
32.996
33.302
33.65
34.038
34.459
34.91
35.382
35.87
36.363
36.855
37.337
37.802
38.244
38.656
39.034
39.375
39.677
39.939
40.16
40.344
40.489
40.6
40.677
40.726
40.749
40.749
40.732
40.697
40.649
40.588
40.516
40.434
40.343
40.243
40.136
40.021
39.899
39.773
39.643
39.508
39.372
39.233
39.094
38.953
38.813
38.671
38.527
38.38
38.231
38.08
37.926
37.767
37.602
37.43
37.255
37.083
36.916
36.756
36.605
36.465
36.337
36.221
36.118
36.027
35.949
35.884
35.832
35.794
35.768
35.754
35.754
35.767
35.791
35.828
35.874
35.929
35.99
36.057
36.126
36.195
36.263
36.327
36.385
36.437
36.479
36.512
36.535
36.547
36.55
36.544
36.53
36.511
36.488
36.461
36.431
36.398
36.362
36.32
36.274
36.221
36.162
36.094
36.019
35.936
35.846
35.749
35.648
35.542
35.434
35.324
35.213
35.102
