Trial 1:0back
31.568
31.564
31.56
31.555
31.549
31.54
31.53
31.518
31.505
31.489
31.472
31.452
31.429
31.402
31.372
31.339
31.303
31.267
31.234
31.204
31.181
31.167
31.167
31.184
31.223
31.29
31.392
31.537
31.735
31.994
32.321
32.721
33.196
33.741
34.352
35.019
35.731
36.474
37.233
37.992
38.736
39.453
40.13
40.758
41.329
41.836
42.276
42.646
42.946
43.179
43.347
43.454
43.505
43.508
43.467
43.39
43.282
43.149
42.996
42.826
42.644
42.452
42.255
42.053
41.849
41.644
41.441
41.24
41.044
40.852
40.666
40.487
40.313
40.147
39.986
39.832
39.683
39.537
39.393
39.25
39.107
38.964
38.821
38.678
38.534
38.391
38.249
38.108
37.968
37.83
37.695
37.562
37.432
37.305
37.182
37.064
36.953
36.851
36.76
36.681
36.613
36.56
36.519
36.494
36.482
36.484
36.498
36.522
36.553
36.589
36.627
36.664
36.7
36.733
36.762
36.785
36.803
36.815
36.82
36.817
36.804
36.781
36.745
36.699
36.642
36.576
36.502
36.422
36.336
36.247
36.155
36.06
35.963
35.866
35.769
35.672
35.574
35.475
35.375
35.271
35.164
35.055
34.943
34.831
34.719
34.606
34.492
34.378
34.263
34.148
34.035
33.924
33.816
33.713
33.613
33.518
33.426
33.337
33.25
33.164
33.079
32.996
32.914
32.835
32.758
32.685
32.615
32.549
32.486
32.426
32.369
32.316
32.266
32.219
32.175
32.134
32.095
32.058
32.022
31.986
31.95
31.913
31.875
31.835
31.796
31.757
31.719
31.681
31.646
31.612
31.58
31.55
31.522
31.496
31.472
31.449
31.429
31.411
31.394
31.377
31.36
31.342
31.322
31.303
31.283
31.263
31.244
31.225
31.207
31.19
31.174
31.16
31.148
31.137
31.128
31.12
31.113
31.106
31.1
31.093
31.086
31.078
31.07
31.06
31.05
31.04
31.028
31.016
31.003
30.99
30.974
30.957
30.939
30.919
30.897
30.873
30.848
30.822
30.795
30.769
30.744
30.722
30.704
30.692
30.691
30.704
30.735
30.791
30.878
31.004
31.18
31.413
31.714
32.091
32.548
33.086
33.704
34.392
35.142
35.939
36.768
37.613
38.456
39.281
40.072
40.818
41.506
42.129
42.68
43.156
43.556
43.881
44.133
44.318
44.439
44.504
44.517
44.485
44.414
44.31
44.178
44.023
43.849
43.662
43.464
43.261
43.054
42.848
42.644
42.445
42.252
42.067
41.891
41.724
41.566
41.416
41.276
41.144
41.02
40.9
40.785
40.67
40.556
40.441
40.323
40.203
40.078
39.949
39.816
39.68
39.541
39.402
39.261
39.121
38.98
38.839
38.698
38.559
38.421
38.285
38.153
38.025
37.901
37.784
37.676
37.578
37.492
37.419
37.36
37.315
37.283
37.261
37.25
37.246
37.249
37.256
37.266
37.276
37.286
37.293
37.298
37.298
37.294
37.283
37.266
37.24
37.206
37.162
37.109
37.046
36.974
36.892
36.802
36.704
36.602
36.495
36.385
36.274
36.164
36.054
35.945
35.839
35.735
35.632
35.53
35.427
35.323
35.216
35.107
34.996
34.883
34.77
34.656
34.541
34.427
34.313
34.2
34.086
33.975
33.866
33.761
33.66
33.562
33.468
33.377
33.288
33.2
33.115
33.033
32.954
32.878
32.805
32.735
32.667
32.602
32.54
32.479
32.421
32.365
32.31
32.257
32.205
32.154
32.104
32.054
32.006
31.958
31.913
31.869
31.827
31.787
31.75
31.714
31.68
31.648
31.617
31.588
31.559
31.532
31.505
31.48
31.455
31.431
31.409
31.386
31.365
31.344
31.322
31.301
31.278
31.254
31.227
31.2
31.171
31.142
31.112
31.084
31.057
31.033
31.011
30.993
30.978
30.965
30.955
30.947
30.94
30.934
30.928
30.923
30.917
30.91
30.902
30.892
30.881
30.866
30.85
30.833
30.816
30.797
30.779
30.76
30.741
30.722
30.702
30.681
30.659
30.637
30.614
30.592
30.571
30.553
30.538
30.529
30.529
30.542
30.571
30.621
30.699
30.811
30.966
31.174
31.445
31.788
32.209
32.713
33.298
33.961
34.694
35.486
36.322
37.185
38.057
38.921
39.76
40.559
41.303
41.982
42.587
43.113
43.556
43.915
44.193
44.394
44.524
44.588
44.594
44.549
44.462
44.339
44.189
44.016
43.829
43.63
43.426
43.22
43.013
42.808
42.604
42.402
42.205
42.011
41.823
41.639
41.46
41.286
41.118
40.954
40.796
40.641
40.49
40.342
40.197
40.056
39.917
39.781
39.647
39.515
39.385
39.255
39.125
38.995
38.864
38.73
38.593
38.453
38.309
38.163
38.017
37.872
37.73
37.593
37.464
37.344
37.236
37.141
37.058
36.989
36.932
36.886
36.85
36.821
36.801
36.787
36.78
36.778
36.78
36.784
36.79
36.794
36.798
36.799
36.797
36.79
36.777
36.757
36.729
36.692
36.647
36.595
36.535
36.47
36.4
36.324
36.244
36.16
36.071
35.978
35.88
35.777
35.669
35.557
35.443
35.327
35.209
35.09
34.969
34.845
34.719
34.59
34.461
34.333
34.208
34.086
33.97
33.858
33.753
33.653
33.559
33.469
33.383
33.301
33.222
33.145
33.069
32.993
32.916
32.839
32.76
32.682
32.604
32.528
32.454
32.382
32.314
32.249
32.186
32.126
32.069
32.014
31.963
31.915
31.87
31.827
31.787
31.748
31.71
31.672
31.634
31.597
31.56
31.522
31.485
31.447
31.409
31.371
31.332
31.293
31.255
31.218
31.182
31.148
31.117
31.089
31.063
31.041
31.021
31.003
30.988
30.975
30.964
30.955
30.947
30.94
30.933
30.926
30.917
30.907
30.894
30.877
30.859
30.838
30.816
30.795
30.773
30.751
30.73
30.71
30.692
30.676
30.663
30.653
30.647
30.642
30.64
30.639
30.639
30.639
30.638
30.637
30.635
30.631
30.625
30.618
30.608
30.596
30.58
30.561
30.539
30.515
30.49
30.464
30.438
30.415
30.394
30.377
30.366
30.362
30.371
30.397
30.444
30.519
30.628
30.779
30.98
31.24
31.568
31.973
32.458
33.025
33.672
34.392
35.175
36.006
36.87
37.748
38.624
39.479
40.297
41.063
41.766
42.395
42.945
43.41
43.791
44.09
44.308
44.453
44.528
44.543
44.504
44.419
44.295
44.139
43.957
43.755
43.536
43.306
43.068
42.824
42.578
42.331
42.085
41.842
41.605
41.375
41.153
40.941
40.737
40.544
40.36
40.184
40.016
39.855
39.701
39.551
39.404
39.259
39.114
38.97
38.825
38.678
38.531
38.383
38.236
38.09
37.946
37.804
37.667
37.535
37.408
37.288
37.174
37.066
36.966
36.875
36.793
36.723
36.665
36.619
36.586
36.567
36.559
36.563
36.576
36.598
36.626
36.657
36.689
36.72
36.747
36.77
36.788
36.802
36.809
36.811
36.807
36.796
36.778
36.754
36.722
36.683
36.635
36.579
36.514
36.44
36.359
36.272
36.179
36.084
35.985
35.883
35.778
35.67
35.559
35.444
35.328
35.211
35.094
34.978
34.864
34.751
34.641
34.533
34.427
34.322
34.218
34.113
34.009
33.905
33.801
33.699
33.599
33.502
33.408
33.318
33.229
33.143
33.06
32.978
32.9
32.825
32.754
32.687
32.624
32.566
32.511
32.458
32.408
32.36
32.313
32.267
32.222
32.176
32.131
32.084
32.036
31.987
31.939
31.892
31.846
31.802
31.762
31.723
31.686
31.652
31.62
31.591
31.564
31.541
31.519
31.5
31.484
31.47
31.458
31.446
31.436
31.426
31.418
31.41
31.403
31.397
31.39
31.385
31.379
31.374
31.37
31.365
31.362
31.358
31.355
31.351
31.347
31.342
31.336
31.329
31.319
31.308
31.294
31.279
31.263
31.245
31.229
31.214
31.2
31.186
31.17
31.152
31.132
31.108
31.082
31.055
31.028
31.003
30.984
30.974
30.977
30.999
31.044
31.119
31.231
31.387
31.594
31.862
32.198
32.608
33.097
33.663
34.304
35.01
35.771
36.574
37.403
38.243
39.076
39.885
40.657
41.377
42.034
42.622
43.133
43.567
43.921
44.198
44.401
44.534
44.603
44.615
44.576
44.492
44.371
44.217
44.037
43.838
43.624
43.401
43.172
42.941
42.71
42.483
42.26
42.043
41.833
41.629
41.433
41.244
41.063
40.889
40.723
40.564
40.412
40.263
40.118
39.975
39.831
39.687
39.541
39.392
39.241
39.087
38.932
38.776
38.62
38.464
38.31
38.158
38.008
37.86
37.715
37.574
37.438
37.308
37.185
37.072
36.969
36.878
36.799
36.733
36.681
36.641
36.612
36.593
36.582
36.577
36.577
36.582
36.589
36.6
36.611
36.624
36.636
36.647
36.656
36.661
36.66
36.652
36.636
36.609
36.574
36.528
36.474
36.413
36.345
36.272
36.193
36.112
36.027
35.939
35.849
35.756
35.659
35.557
35.451
35.34
35.226
35.111
34.995
34.879
34.763
34.647
34.53
34.413
34.296
34.179
34.064
33.951
33.842
33.737
33.636
33.54
33.448
33.36
33.276
33.194
33.113
33.033
32.954
32.875
32.799
32.724
32.652
32.583
32.517
32.454
32.392
32.33
32.269
32.208
32.149
32.091
32.037
31.985
31.935
31.886
31.838
31.789
31.739
31.689
31.64
31.592
31.547
31.504
31.465
31.428
31.394
31.363
31.333
31.307
31.284
31.265
31.25
31.238
31.228
31.22
31.213
31.205
31.197
31.189
31.182
31.175
31.171
31.167
31.163
31.158
31.153
31.145
31.136
31.124
31.112
31.099
31.088
31.077
31.067
31.058
31.05
31.041
31.031
31.019
31.007
30.994
30.98
30.965
30.951
30.936
30.922
30.907
30.892
30.877
30.862
30.846
30.83
30.813
30.796
30.779
30.762
30.746
30.734
30.726
30.727
30.739
30.765
30.811
30.88
30.978
31.111
31.285
31.508
31.789
32.138
32.561
33.064
33.649
34.313
35.05
35.85
36.698
37.579
38.475
39.367
40.236
41.066
41.842
42.551
43.183
43.733
44.196
44.572
44.863
45.074
45.208
45.274
45.28
45.232
45.141
45.013
44.856
44.678
44.486
44.284
44.079
43.873
43.669
43.467
43.27
43.076
42.886
42.7
42.518
42.339
42.162
41.989
41.818
41.65
41.486
41.325
41.169
41.016
40.867
40.721
40.58
40.442
40.307
40.175
40.045
39.915
39.785
39.653
39.519
39.382
39.241
39.098
38.952
38.804
38.654
38.505
38.359
38.218
38.083
37.957
37.84
37.734
37.638
37.553
37.478
37.414
37.358
37.31
37.268
37.232
37.2
37.174
37.151
37.131
37.114
37.098
37.083
37.068
37.05
37.029
37.003
36.971
36.933
36.888
36.835
36.777
36.712
36.643
36.568
36.491
36.41
36.327
36.241
36.152
36.06
35.963
35.863
35.758
35.651
35.541
35.431
35.32
35.21
35.102
34.996
34.89
34.785
34.681
34.577
34.473
34.371
34.269
34.168
34.068
33.969
33.871
33.775
33.681
33.588
33.496
33.406
33.316
33.227
33.139
33.053
32.97
32.891
32.817
32.746
32.678
32.611
32.546
32.482
32.419
32.357
32.297
32.239
32.183
32.129
32.077
32.027
31.977
31.929
31.881
31.836
31.792
31.751
31.712
31.674
31.637
31.601
31.566
31.531
31.498
31.465
31.435
31.405
31.377
31.35
31.324
31.297
31.271
31.246
31.223
31.202
31.182
31.164
31.147
31.131
31.115
31.099
31.083
31.066
31.049
31.032
31.013
30.995
30.977
30.961
30.946
30.932
30.92
30.909
30.898
30.889
30.88
30.872
30.864
30.856
30.849
30.842
30.834
30.825
30.815
30.803
30.789
30.774
30.756
30.737
30.717
30.696
30.675
30.654
30.633
30.614
30.597
30.584
30.577
30.578
30.591
30.62
30.668
30.741
30.844
30.985
31.169
31.405
31.702
32.069
32.513
33.037
33.642
34.323
35.072
35.879
36.73
37.606
38.492
39.368
40.216
41.022
41.77
42.452
43.058
43.585
44.028
44.389
44.67
44.873
45.006
45.074
45.086
45.049
44.97
44.856
44.714
44.548
44.364
44.167
43.96
43.749
43.534
43.319
43.104
42.891
42.682
42.478
42.279
42.088
41.903
41.725
41.554
41.391
41.235
41.084
40.939
40.797
40.659
40.522
40.386
40.25
40.114
39.975
39.834
39.689
39.541
39.388
39.233
39.075
38.916
38.756
38.596
38.438
38.283
38.131
37.984
37.845
37.715
37.594
37.485
37.388
37.303
37.232
37.173
37.125
37.089
37.061
37.04
37.025
37.014
37.007
37.002
37.0
36.999
36.999
36.998
36.995
36.99
36.981
36.967
36.948
36.923
36.889
36.846
36.795
36.735
36.666
36.589
36.506
36.418
36.324
36.228
36.129
36.027
35.923
35.817
35.708
35.599
35.488
35.374
35.259
35.143
35.026
34.911
34.798
34.687
34.579
34.472
34.367
34.262
34.159
34.057
33.957
33.859
33.763
33.671
33.582
33.496
33.413
33.331
33.252
33.174
33.097
33.021
32.945
32.872
32.8
32.732
32.666
32.604
32.545
32.487
32.431
32.375
32.319
32.263
32.208
32.154
32.102
32.055
32.01
31.968
31.929
31.892
31.856
31.823
31.791
31.762
31.735
31.709
31.685
31.66
31.635
31.61
31.585
31.561
31.538
31.518
31.501
31.486
31.474
31.463
31.454
31.444
31.435
31.426
31.418
31.411
31.405
31.401
31.398
31.395
31.393
31.391
31.387
31.382
31.376
31.367
31.357
31.344
31.329
31.313
31.296
31.278
31.258
31.237
31.215
31.193
31.171
31.149
31.127
31.105
31.084
31.064
31.045
31.025
31.007
30.989
30.975
30.963
30.957
30.958
30.97
30.995
31.039
31.105
31.199
31.326
31.494
31.709
31.98
32.315
32.721
33.201
33.755
34.381
35.07
35.814
36.599
37.41
38.232
39.049
39.844
40.603
41.312
41.96
42.539
43.044
43.472
43.822
44.096
44.297
44.43
44.5
44.513
44.477
44.397
44.281
44.133
43.961
43.769
43.563
43.344
43.118
42.885
42.65
42.414
42.18
41.951
41.729
41.514
41.307
41.109
40.921
40.741
40.57
40.408
40.253
40.103
39.959
39.819
39.681
39.544
39.411
39.284
39.162
39.044
38.927
38.809
38.686
38.557
38.422
38.28
38.132
37.98
37.826
37.673
37.522
37.377
37.239
37.112
36.996
36.892
36.802
36.727
36.668
36.624
36.595
36.579
36.575
36.581
36.595
36.616
36.64
36.666
36.691
36.713
36.73
36.741
36.745
36.74
36.728
36.707
36.677
36.639
36.592
36.538
36.477
36.408
36.333
36.251
36.164
36.072
35.976
35.875
35.771
35.664
35.554
35.442
35.329
35.214
35.099
34.984
34.869
34.754
34.641
34.53
34.42
34.312
34.207
34.104
34.005
33.908
33.814
33.722
33.633
33.545
33.459
33.374
33.29
33.207
33.125
33.045
32.966
32.891
32.818
32.748
32.68
32.614
32.549
32.485
32.421
32.357
32.294
32.232
32.174
32.12
32.071
32.026
31.985
31.948
31.912
31.878
31.844
31.811
31.778
31.746
31.714
31.682
31.651
31.62
31.588
31.556
31.525
31.494
31.466
31.439
31.415
31.392
31.371
31.352
31.334
31.318
31.305
31.294
31.285
31.279
31.274
31.27
31.265
31.26
31.254
31.248
31.24
31.232
31.225
31.217
31.209
31.201
31.193
31.183
31.173
31.163
31.152
31.142
31.131
31.121
31.109
31.094
31.077
31.057
31.034
31.008
30.981
30.954
30.927
30.901
30.878
30.857
30.84
30.828
30.822
30.825
30.84
30.871
30.922
30.998
31.106
31.25
31.44
31.682
31.986
32.36
32.808
33.333
33.935
34.609
35.345
36.132
36.958
37.806
38.663
39.512
40.337
41.123
41.857
42.528
43.127
43.648
44.091
44.454
44.738
44.946
45.085
45.158
45.174
45.139
45.059
44.941
44.791
44.617
44.425
44.22
44.007
43.79
43.573
43.36
43.151
42.95
42.756
42.572
42.396
42.229
42.071
41.922
41.781
41.647
41.518
41.393
41.271
41.15
41.029
40.906
40.782
40.654
40.523
40.39
40.253
40.114
39.971
39.826
39.677
39.526
39.373
39.218
39.061
38.903
38.744
38.586
38.429
38.277
38.13
37.99
37.86
37.742
37.636
37.543
37.462
37.395
37.339
37.295
37.26
37.232
37.211
37.193
37.179
37.166
37.153
37.139
37.124
37.107
37.088
37.066
37.042
37.013
36.98
36.94
36.895
36.841
36.78
36.709
36.631
36.544
36.45
36.349
36.244
36.135
36.022
35.908
35.791
35.674
35.556
35.438
35.321
35.206
35.094
34.984
34.877
34.773
34.671
34.57
34.47
34.369
34.267
34.165
34.061
33.957
33.853
33.75
33.648
33.547
33.447
33.349
33.253
33.159
33.067
32.978
32.893
32.811
32.732
32.656
32.583
32.512
32.444
32.378
32.315
32.255
32.198
32.143
32.092
32.042
31.995
31.95
31.907
31.865
31.824
31.785
31.746
31.707
31.67
31.633
31.597
31.562
31.528
31.495
31.462
31.43
31.398
31.368
31.339
31.311
31.285
31.26
31.237
31.215
31.193
31.172
31.153
31.135
31.118
31.102
31.086
31.071
31.056
31.04
31.024
31.006
30.988
30.969
30.951
30.933
30.915
30.899
30.884
30.869
30.855
30.841
30.828
30.816
30.804
30.791
30.779
30.766
30.754
30.743
30.732
30.722
30.714
30.706
30.699
30.691
30.682
30.673
30.661
30.648
30.634
30.619
30.604
30.588
30.572
30.556
30.538
30.519
30.501
30.484
30.47
30.461
30.462
30.473
30.5
30.545
30.612
30.708
30.84
31.016
31.246
31.541
31.909
32.356
32.887
33.502
34.197
34.963
35.789
36.658
37.554
38.458
39.353
40.221
41.046
41.815
42.516
43.142
43.687
44.148
44.526
44.822
45.04
45.186
45.266
45.289
45.263
45.193
45.089
44.955
44.799
44.625
44.439
44.242
44.037
43.827
43.613
43.4
43.187
42.976
42.769
42.566
42.37
42.18
41.998
41.826
41.663
41.509
41.365
41.23
41.102
40.98
40.862
40.747
40.634
40.52
40.403
40.281
40.152
40.016
39.872
39.721
39.565
39.405
39.243
39.08
38.917
38.757
38.599
38.447
38.3
38.161
38.03
37.906
37.791
37.685
37.588
37.503
37.429
37.366
37.314
37.271
37.236
37.209
37.187
37.169
37.155
37.141
37.126
37.109
37.088
37.063
37.034
37.002
36.967
36.927
36.882
36.832
36.776
36.714
36.646
36.57
36.488
36.4
36.306
36.207
36.104
35.997
35.887
35.775
35.661
35.546
35.43
35.312
35.193
35.075
34.958
34.842
34.728
34.615
34.503
34.391
34.279
34.167
34.055
33.944
33.832
33.723
33.614
33.508
33.406
33.309
33.217
33.131
33.05
32.974
32.901
32.831
32.764
32.698
32.634
32.57
32.507
32.445
32.383
32.32
32.258
32.196
32.136
32.076
32.017
31.959
31.903
31.849
31.797
31.748
31.701
31.656
31.613
31.571
31.529
31.488
31.448
31.409
31.372
31.336
31.302
31.269
31.238
31.209
31.181
31.154
31.129
31.104
31.082
31.061
31.04
31.021
31.002
30.984
30.966
30.948
30.931
30.913
30.895
30.877
30.857
30.837
30.815
30.793
30.77
30.747
30.724
30.702
30.681
30.662
30.644
30.629
30.616
30.606
30.599
30.593
30.587
30.582
30.575
30.566
30.555
30.541
30.527
30.51
30.493
30.476
30.458
30.44
30.422
30.405
30.388
30.373
30.358
30.345
30.332
30.318
30.303
30.287
30.27
30.253
30.236
30.22
30.205
30.191
30.179
30.168
30.159
30.153
30.152
30.159
30.176
30.207
30.255
30.324
30.419
30.545
30.708
30.916
31.179
31.505
31.903
32.381
32.94
33.581
34.299
35.085
35.926
36.806
37.708
38.612
39.499
40.353
41.155
41.894
42.557
43.137
43.63
44.034
44.353
44.588
44.745
44.832
44.856
44.826
44.75
44.637
44.493
44.325
44.14
43.942
43.735
43.524
43.31
43.096
42.883
42.672
42.464
42.258
42.053
41.849
41.646
41.445
41.247
41.054
40.866
40.685
40.51
40.342
40.181
40.028
39.882
39.742
39.608
39.478
39.349
39.222
39.094
38.965
38.833
38.699
38.561
38.42
38.278
38.136
37.995
37.856
37.721
37.591
37.466
37.348
37.236
37.131
37.036
36.95
36.875
36.812
36.761
36.724
36.701
36.689
36.689
36.697
36.711
36.729
36.747
36.764
36.779
36.788
36.792
36.789
36.779
36.76
36.734
36.7
36.658
36.606
36.546
36.477
36.401
36.317
36.228
36.135
36.038
35.938
35.837
35.733
35.627
35.519
35.408
35.295
35.18
35.063
34.946
34.828
34.71
34.591
34.473
34.356
34.24
34.127
34.016
33.907
33.801
33.697
33.594
33.493
33.395
33.3
33.208
33.116
33.023
32.926
32.825
32.721
32.615
32.511
32.411
32.316
32.228
32.149
32.08
32.021
31.971
31.93
31.896
31.867
31.842
31.819
31.796
31.773
31.748
31.722
31.694
31.664
31.632
31.598
31.563
31.526
31.488
31.45
31.412
31.376
31.341
31.308
31.276
31.246
31.218
31.19
31.162
31.136
31.11
31.085
31.06
31.037
31.014
30.992
30.97
30.949
30.928
30.908
30.89
30.872
30.855
30.84
30.826
30.813
30.8
30.787
30.774
30.76
30.745
30.73
30.713
30.695
30.678
30.66
30.643
30.627
30.613
30.601
30.592
30.585
30.581
30.577
30.573
30.569
30.564
30.558
30.549
30.539
30.528
30.515
30.5
30.485
30.47
30.454
30.438
30.421
30.405
30.388
30.372
30.356
30.34
30.324
30.308
30.292
30.277
30.265
30.258
30.258
30.269
30.293
30.334
30.395
30.481
30.597
30.746
30.937
31.176
31.471
31.831
32.265
32.777
33.369
34.041
34.785
35.591
36.446
37.333
38.233
39.129
