Trial 1:0back
35.456
35.432
35.407
35.382
35.357
35.333
35.309
35.286
35.266
35.247
35.23
35.215
35.201
35.19
35.179
35.169
35.16
35.152
35.144
35.136
35.128
35.12
35.111
35.101
35.091
35.08
35.069
35.058
35.046
35.034
35.022
35.009
34.996
34.983
34.969
34.955
34.941
34.926
34.91
34.895
34.879
34.864
34.849
34.835
34.822
34.809
34.797
34.785
34.773
34.76
34.748
34.735
34.722
34.709
34.695
34.681
34.667
34.653
34.638
34.623
34.607
34.591
34.574
34.557
34.54
34.523
34.507
34.491
34.477
34.465
34.454
34.443
34.432
34.421
34.41
34.398
34.385
34.371
34.356
34.339
34.321
34.303
34.284
34.265
34.246
34.229
34.213
34.2
34.192
34.192
34.2
34.219
34.252
34.3
34.365
34.448
34.551
34.673
34.815
34.974
35.15
35.34
35.541
35.75
35.963
36.176
36.385
36.587
36.78
36.959
37.125
37.274
37.406
37.521
37.617
37.694
37.753
37.793
37.817
37.826
37.821
37.803
37.774
37.736
37.691
37.639
37.583
37.525
37.464
37.404
37.344
37.286
37.23
37.176
37.125
37.076
37.029
36.984
36.941
36.902
36.865
36.83
36.799
36.77
36.742
36.714
36.687
36.659
36.629
36.597
36.564
36.529
36.491
36.451
36.41
36.368
36.326
36.286
36.248
36.215
36.188
36.167
36.154
36.149
36.152
36.162
36.18
36.205
36.234
36.269
36.307
36.349
36.392
36.437
36.482
36.525
36.566
36.603
36.637
36.665
36.689
36.707
36.718
36.724
36.724
36.717
36.704
36.684
36.657
36.625
36.589
36.548
36.505
36.46
36.412
36.364
36.314
36.264
36.215
36.165
36.117
36.069
36.023
35.979
35.937
35.896
35.858
35.821
35.786
35.754
35.723
35.693
35.664
35.637
35.61
35.584
35.558
35.533
35.508
35.482
35.457
35.431
35.404
35.377
35.35
35.323
35.297
35.271
35.247
35.225
35.205
35.187
35.17
35.155
35.14
35.126
35.112
35.099
35.086
35.074
35.062
35.052
35.041
35.031
35.021
35.01
34.998
34.985
34.972
34.958
34.945
34.932
34.918
34.903
34.888
34.873
34.858
34.844
34.83
34.816
34.804
34.793
34.783
34.773
34.764
34.754
34.745
34.736
34.727
34.717
34.707
34.696
34.686
34.675
34.664
34.653
34.641
34.629
34.616
34.601
34.584
34.567
34.549
34.53
34.511
34.492
34.473
34.455
34.437
34.42
34.402
34.386
34.37
34.355
34.341
34.327
34.313
34.3
34.286
34.272
34.257
34.24
34.223
34.205
34.185
34.165
34.143
34.122
34.101
34.081
34.063
34.048
34.036
34.029
34.027
34.03
34.041
34.06
34.091
34.134
34.193
34.268
34.363
34.477
34.612
34.766
34.939
35.129
35.331
35.545
35.765
35.99
36.216
36.438
36.654
36.859
37.052
37.229
37.388
37.526
37.644
37.741
37.817
37.873
37.91
37.929
37.932
37.921
37.898
37.865
37.825
37.779
37.729
37.677
37.624
37.571
37.518
37.467
37.417
37.368
37.321
37.276
37.233
37.194
37.157
37.123
37.093
37.065
37.04
37.016
36.993
36.97
36.948
36.925
36.903
36.879
36.855
36.83
36.803
36.774
36.743
36.711
36.678
36.645
36.612
36.58
36.55
36.522
36.497
36.476
36.459
36.446
36.439
36.438
36.442
36.453
36.469
36.491
36.518
36.547
36.58
36.614
36.648
36.682
36.715
36.745
36.772
36.796
36.814
36.827
36.834
36.835
36.831
36.821
36.808
36.79
36.768
36.743
36.714
36.682
36.648
36.611
36.572
36.531
36.489
36.445
36.401
36.357
36.312
36.268
36.223
36.179
36.135
36.093
36.052
36.012
35.972
35.934
35.896
35.858
35.82
35.783
35.745
35.708
35.672
35.636
35.602
35.57
35.54
35.511
35.483
35.458
35.433
35.411
35.39
35.37
35.352
35.335
35.32
35.306
35.293
35.281
35.269
35.258
35.246
35.235
35.223
35.211
35.199
35.186
35.173
35.16
35.146
35.132
35.118
35.103
35.088
35.074
35.06
35.045
35.032
35.018
35.006
34.994
34.983
34.972
34.962
34.95
34.938
34.925
34.912
34.897
34.882
34.866
34.85
34.834
34.816
34.798
34.78
34.761
34.742
34.723
34.705
34.687
34.669
34.652
34.636
34.619
34.602
34.586
34.569
34.552
34.535
34.519
34.504
34.489
34.474
34.459
34.445
34.43
34.415
34.4
34.385
34.369
34.351
34.333
34.314
34.295
34.276
34.257
34.239
34.221
34.205
34.189
34.174
34.158
34.143
34.128
34.113
34.098
34.083
34.068
34.053
34.038
34.023
34.009
33.994
33.981
33.97
33.961
33.957
33.956
33.962
33.976
34.0
34.037
34.09
34.16
34.249
34.357
34.485
34.634
34.801
34.986
35.187
35.4
35.623
35.853
36.084
36.312
36.535
36.748
36.948
37.131
37.295
37.438
37.56
37.66
37.738
37.795
37.833
37.853
37.856
37.845
37.822
37.787
37.744
37.694
37.64
37.583
37.525
37.467
37.411
37.357
37.306
37.258
37.213
37.17
37.131
37.096
37.063
37.034
37.009
36.986
36.965
36.946
36.927
36.908
36.889
36.869
36.847
36.823
36.796
36.765
36.731
36.694
36.653
36.61
36.566
36.522
36.478
36.435
36.395
36.358
36.324
36.295
36.271
36.252
36.24
36.234
36.235
36.242
36.256
36.276
36.301
36.33
36.363
36.398
36.435
36.473
36.511
36.547
36.58
36.61
36.635
36.656
36.672
36.681
36.685
36.681
36.672
36.657
36.636
36.609
36.578
36.542
36.501
36.457
36.409
36.36
36.309
36.257
36.205
36.152
36.1
36.048
35.996
35.945
35.895
35.847
35.802
35.759
35.72
35.683
35.648
35.616
35.585
35.555
35.527
35.5
35.474
35.448
35.423
35.397
35.37
35.344
35.316
35.289
35.262
35.234
35.207
35.181
35.156
35.133
35.111
35.091
35.072
35.055
35.04
35.025
35.013
35.002
34.992
34.983
34.975
34.966
34.956
34.946
34.935
34.923
34.911
34.897
34.883
34.868
34.853
34.837
34.822
34.806
34.79
34.774
34.759
34.744
34.73
34.715
34.7
34.686
34.671
34.657
34.644
34.631
34.618
34.606
34.594
34.581
34.568
34.555
34.541
34.526
34.51
34.493
34.475
34.457
34.438
34.42
34.402
34.384
34.367
34.351
34.336
34.322
34.307
34.294
34.281
34.27
34.259
34.25
34.241
34.233
34.225
34.217
34.209
34.199
34.189
34.177
34.164
34.15
34.134
34.118
34.1
34.081
34.062
34.043
34.023
34.003
33.984
33.966
33.949
33.933
33.918
33.905
33.892
33.88
33.868
33.857
33.847
33.837
33.827
33.817
33.807
33.798
33.789
33.783
33.781
33.784
33.795
33.816
33.848
33.896
33.961
34.045
34.151
34.279
34.428
34.597
34.785
34.988
35.203
35.425
35.651
35.877
36.097
36.309
36.508
36.692
36.858
37.005
37.131
37.236
37.32
37.383
37.427
37.453
37.462
37.456
37.437
37.407
37.367
37.32
37.267
37.209
37.148
37.085
37.021
36.956
36.892
36.83
36.769
36.711
36.656
36.605
36.557
36.514
36.475
36.439
36.406
36.376
36.349
36.323
36.298
36.274
36.248
36.222
36.193
36.162
36.129
36.094
36.057
36.019
35.981
35.943
35.907
35.873
35.843
35.817
35.796
35.781
35.772
35.77
35.774
35.784
35.801
35.824
35.851
35.883
35.92
35.96
36.002
36.046
36.09
36.133
36.175
36.214
36.249
36.28
36.306
36.327
36.341
36.349
36.349
36.343
36.331
36.312
36.287
36.258
36.225
36.189
36.149
36.106
36.061
36.013
35.964
35.914
35.863
35.814
35.765
35.718
35.673
35.63
35.589
35.55
35.512
35.475
35.44
35.406
35.373
35.342
35.312
35.284
35.256
35.228
35.201
35.175
35.148
35.122
35.096
35.071
35.046
35.021
34.998
34.975
34.953
34.932
34.911
34.892
34.873
34.855
34.838
34.822
34.807
34.793
34.78
34.768
34.757
34.748
34.74
34.733
34.726
34.719
34.711
34.703
34.693
34.683
34.671
34.659
34.645
34.631
34.616
34.6
34.585
34.571
34.557
34.544
34.532
34.522
34.512
34.502
34.492
34.482
34.471
34.46
34.449
34.437
34.425
34.413
34.402
34.391
34.38
34.369
34.357
34.347
34.336
34.325
34.315
34.304
34.294
34.283
34.272
34.261
34.25
34.238
34.227
34.215
34.203
34.19
34.176
34.16
34.143
34.125
34.106
34.086
34.066
34.045
34.024
34.004
33.984
33.964
33.946
33.927
33.909
33.891
33.872
33.853
33.834
33.814
33.795
33.775
33.757
33.741
33.726
33.713
33.702
33.694
33.689
33.687
33.69
33.698
33.713
33.736
33.77
33.816
33.877
33.954
34.05
34.166
34.302
34.458
34.632
34.823
35.028
35.243
35.465
35.69
35.914
36.133
36.342
36.54
36.721
36.885
37.028
37.15
37.251
37.33
37.388
37.426
37.445
37.446
37.433
37.405
37.367
37.319
37.263
37.202
37.136
37.069
36.999
36.93
36.862
36.795
36.731
36.67
36.613
36.56
36.51
36.465
36.423
36.387
36.354
36.325
36.3
36.277
36.256
36.235
36.215
36.194
36.172
36.148
36.123
36.095
36.065
36.033
35.999
35.963
35.927
35.89
35.855
35.821
35.79
35.762
35.74
35.723
35.712
35.706
35.707
35.714
35.728
35.748
35.773
35.804
35.839
35.877
35.917
35.958
36.0
36.04
36.079
36.114
36.145
36.173
36.196
36.214
36.227
36.234
36.236
36.232
36.221
36.205
36.184
36.157
36.126
36.09
36.051
36.009
35.965
35.918
35.869
35.819
35.768
35.717
35.667
35.618
35.571
35.526
35.482
35.44
35.4
35.362
35.326
35.292
35.259
35.226
35.194
35.162
35.13
35.099
35.069
35.04
35.012
34.985
34.959
34.934
34.909
34.885
34.863
34.841
34.821
34.801
34.784
34.767
34.752
34.737
34.723
34.708
34.694
34.68
34.667
34.655
34.644
34.635
34.627
34.62
34.615
34.61
34.606
34.603
34.6
34.597
34.593
34.588
34.583
34.576
34.568
34.558
34.546
34.532
34.516
34.5
34.483
34.467
34.451
34.435
34.421
34.408
34.397
34.387
34.378
34.37
34.362
34.354
34.347
34.338
34.329
34.318
34.306
34.293
34.277
34.259
34.24
34.218
34.195
34.171
34.148
34.126
34.104
34.083
34.064
34.045
34.028
34.012
33.998
33.985
33.973
33.961
33.95
33.94
33.93
33.92
33.909
33.899
33.889
33.878
33.868
33.858
33.848
33.838
33.828
33.818
33.808
33.798
33.788
33.777
33.767
33.758
33.748
33.738
33.728
33.718
33.708
33.698
33.687
33.677
33.667
33.658
33.652
33.649
33.652
33.662
33.684
33.719
33.77
33.84
33.931
34.044
34.179
34.336
34.515
34.714
34.929
35.157
35.396
35.64
35.884
36.123
36.355
36.574
36.777
36.963
37.129
37.274
37.395
37.494
37.57
37.624
37.657
37.671
37.668
37.649
37.618
37.577
37.527
37.471
37.411
37.347
37.283
37.218
37.153
37.091
37.03
36.973
36.918
36.867
36.819
36.775
36.734
36.697
36.664
36.634
36.606
36.581
36.558
36.536
36.515
36.494
36.474
36.452
36.428
36.401
36.372
36.34
36.305
36.268
36.229
36.191
36.153
36.116
36.083
36.052
36.026
36.005
35.99
35.981
35.978
35.981
35.991
36.006
36.027
36.052
36.08
36.111
36.143
36.177
36.21
36.243
36.275
36.305
36.333
36.358
36.379
36.397
36.41
36.418
36.422
36.42
36.413
36.401
36.385
36.363
36.338
36.31
36.278
36.243
36.205
36.165
36.123
36.079
36.035
35.99
35.945
35.9
35.855
35.809
35.764
35.719
35.674
35.63
35.586
35.544
35.503
35.463
35.426
35.39
35.356
35.323
35.292
35.262
35.235
35.209
35.185
35.163
35.142
35.122
35.102
35.083
35.063
35.043
35.021
35.0
34.978
34.956
34.934
34.913
34.893
34.874
34.857
34.84
34.824
34.809
34.794
34.78
34.767
34.755
34.744
34.733
34.723
34.714
34.705
34.696
34.688
34.679
34.671
34.663
34.654
34.645
34.636
34.626
34.615
34.604
34.593
34.581
34.57
34.559
34.548
34.537
34.526
34.516
34.505
34.495
34.485
34.474
34.463
34.451
34.439
34.425
34.411
34.397
34.381
34.365
34.349
34.332
34.315
34.298
34.281
34.263
34.245
34.226
34.206
34.186
34.166
34.146
34.127
34.108
34.089
34.071
34.054
34.038
34.024
34.01
33.997
33.986
33.975
33.966
33.957
33.949
33.941
33.934
33.926
33.917
33.908
33.896
33.883
33.867
33.851
33.835
33.818
33.801
33.785
33.769
33.754
33.74
33.727
33.716
33.707
33.701
33.699
33.702
33.713
33.732
33.764
33.808
33.869
33.947
34.044
34.161
34.298
34.456
34.632
34.825
35.033
35.253
35.48
35.711
35.942
36.169
36.387
36.594
36.786
36.959
37.113
37.245
37.354
37.439
37.502
37.543
37.564
37.568
37.555
37.528
37.489
37.442
37.387
37.326
37.263
37.197
37.131
37.066
37.002
36.941
36.883
36.828
36.777
36.728
36.682
36.64
36.599
36.562
36.526
36.493
36.46
36.429
36.399
36.369
36.34
36.31
36.282
36.253
36.224
36.194
36.163
36.13
36.096
36.061
36.025
35.988
35.951
35.916
35.882
35.851
35.823
35.801
35.784
35.774
35.77
35.774
35.785
35.803
35.827
35.857
35.892
35.931
35.973
36.017
36.062
36.106
36.148
36.188
36.224
36.255
36.282
36.303
36.318
36.326
36.329
36.325
36.315
36.3
36.279
36.254
36.224
36.189
36.151
36.11
36.065
36.018
35.97
35.921
35.871
35.822
35.774
35.726
35.68
35.636
35.593
35.552
35.513
35.475
35.439
35.403
35.367
35.331
35.296
35.261
35.226
35.192
35.158
35.125
35.093
35.062
35.032
35.003
34.975
34.948
34.921
34.895
34.869
34.843
34.818
34.792
34.766
34.74
34.714
34.69
34.666
34.644
34.623
34.603
34.585
34.569
34.554
34.541
34.529
34.518
34.508
34.499
34.491
34.482
34.475
34.468
34.461
34.454
34.448
34.441
34.435
34.427
34.42
34.412
34.404
34.396
34.387
34.378
34.369
34.36
34.351
34.341
34.331
34.321
34.31
34.299
34.288
34.277
34.265
34.253
34.241
34.228
34.216
34.204
34.192
34.181
34.17
34.159
34.146
34.132
34.117
34.1
34.082
34.065
34.047
34.029
34.012
33.996
33.981
33.966
33.952
33.938
33.924
33.909
33.893
33.878
33.862
33.846
33.831
33.816
33.8
33.785
33.77
33.755
33.739
33.724
33.707
33.69
33.673
33.657
33.64
33.624
33.609
33.594
33.581
33.568
33.558
33.549
33.542
33.54
33.543
33.552
33.569
33.595
33.634
33.687
33.756
33.844
33.951
34.079
34.228
34.396
34.584
34.787
35.004
35.23
35.461
35.693
35.922
36.144
36.355
36.552
36.731
36.891
37.028
37.142
37.231
37.297
37.339
37.361
37.363
37.349
37.319
37.275
37.221
37.158
37.088
37.014
36.937
36.86
36.784
36.709
36.637
36.569
36.503
36.442
36.384
36.331
36.282
36.238
36.198
36.162
36.131
36.103
36.077
36.052
36.027
36.001
35.975
35.947
35.917
35.887
35.854
35.82
35.784
35.747
35.71
35.672
35.634
35.599
35.565
35.535
35.51
35.489
35.474
35.465
35.462
35.464
35.473
35.487
35.507
35.531
35.56
35.592
35.628
35.665
35.704
35.743
35.783
35.821
35.858
35.893
35.925
35.954
35.979
35.999
36.015
36.026
36.032
36.033
36.029
36.019
36.005
35.986
35.962
35.933
35.9
35.862
35.822
35.778
35.731
35.682
35.631
35.579
35.527
35.475
35.424
35.375
35.327
35.282
35.239
35.198
35.159
35.121
35.086
35.052
35.02
34.989
34.959
34.93
34.902
34.873
34.845
34.817
34.79
34.763
34.738
34.714
34.691
34.67
34.65
34.631
34.612
34.594
34.578
34.562
34.548
34.536
34.525
34.516
34.508
34.501
34.495
34.49
34.485
34.481
34.478
34.474
34.471
34.468
34.464
34.46
34.456
34.45
34.444
34.437
34.43
34.422
34.414
34.405
34.395
34.385
34.374
34.363
34.351
34.339
34.326
34.313
34.298
34.282
34.265
34.249
34.232
34.215
34.198
34.182
34.166
34.151
34.137
34.123
34.11
34.097
34.084
34.071
34.058
34.044
34.03
34.016
34.002
33.986
33.971
33.956
33.94
33.925
33.91
33.896
33.883
33.87
33.857
33.845
33.833
33.82
33.808
33.794
33.78
33.765
33.749
33.733
33.717
33.701
33.686
33.673
33.662
33.653
33.648
33.646
33.651
33.663
33.686
33.721
33.77
33.837
33.922
34.028
34.154
34.299
34.464
34.645
34.841
35.047
35.262
35.479
35.696
35.908
36.111
36.302
36.476
36.633
36.771
36.889
36.985
37.06
37.113
37.146
37.16
37.157
37.137
37.105
37.06
37.006
36.946
36.88
36.81
36.739
36.667
36.595
36.524
36.454
36.387
36.324
36.265
36.211
36.16
36.115
36.073
36.035
36.001
35.968
35.938
35.909
35.882
35.854
35.826
35.796
35.765
35.731
35.693
35.653
35.61
35.565
35.519
35.473
35.428
35.385
35.344
35.308
35.276
35.25
35.23
35.218
35.214
35.218
35.231
35.252
35.281
35.316
35.357
35.403
35.453
35.506
35.56
35.614
35.667
35.717
35.762
35.803
35.838
35.866
35.888
35.904
35.913
35.915
35.911
35.901
35.886
35.866
35.841
35.812
35.78
35.744
35.705
35.664
35.621
35.576
35.531
35.486
35.44
35.394
35.348
35.302
35.256
35.211
35.167
35.122
35.079
35.036
34.993
34.952
34.913
34.875
34.84
34.806
34.775
34.746
34.719
34.694
34.67
34.648
34.627
34.607
34.587
34.567
34.547
34.527
34.507
34.488
34.469
34.452
34.436
34.422
34.411
34.401
34.393
34.386
34.382
34.378
34.374
34.371
34.367
34.362
34.357
34.352
34.346
34.34
34.332
34.324
34.315
34.305
34.294
34.282
34.27
34.259
34.247
34.236
34.226
34.216
34.207
34.198
34.189
34.18
34.171
34.163
34.155
34.147
34.139
34.131
34.121
34.11
34.099
34.087
34.074
34.06
34.047
34.034
34.021
34.008
33.995
33.981
33.968
33.955
33.942
33.93
33.918
33.907
33.895
33.884
33.873
33.862
33.85
33.838
33.826
33.812
33.798
33.783
33.767
33.751
33.734
33.717
33.701
33.685
33.669
33.656
33.643
33.633
33.625
33.621
33.622
33.631
33.649
33.68
33.724
33.785
33.864
33.962
34.08
34.218
34.375
34.551
34.743
34.948
35.164
35.386
35.61
35.833
36.05
36.259
36.455
36.636
36.799
36.944
37.067
37.17
37.251
37.312
37.352
37.374
37.38
37.37
37.347
37.313
37.27
37.22
37.165
37.106
37.046
36.985
36.925
36.866
36.809
36.755
36.704
36.656
36.61
36.568
36.527
36.489
36.452
36.417
36.383
36.351
36.321
36.291
36.263
36.233
36.204
36.173
36.14
36.106
36.07
36.033
35.995
35.957
35.918
35.88
35.843
35.807
35.773
35.742
35.715
35.692
35.674
35.662
35.656
35.655
35.661
35.673
35.691
35.714
35.743
35.776
35.813
35.853
35.895
35.938
35.981
36.022
36.062
36.099
36.132
36.162
36.188
36.209
36.224
36.235
36.24
36.239
36.233
36.22
36.202
36.178
36.149
36.117
36.08
36.041
35.998
35.952
35.905
35.856
35.806
35.756
35.704
35.653
35.603
35.554
35.507
35.462
35.419
35.379
35.342
35.308
35.276
35.247
35.22
35.194
35.169
35.145
35.121
35.098
35.075
35.052
35.03
35.008
34.986
34.964
34.941
34.919
34.897
34.876
34.855
34.834
34.815
34.796
34.778
34.76
34.742
34.724
34.707
34.69
34.673
34.657
34.641
34.626
34.611
34.597
34.584
34.571
34.559
34.548
34.538
34.529
34.52
34.513
34.507
34.501
34.495
34.49
34.485
34.48
34.474
34.466
34.456
34.445
34.432
34.417
34.402
34.386
34.371
34.357
34.344
34.332
34.321
34.312
34.304
34.297
34.289
34.282
34.275
34.267
34.258
34.248
34.237
34.226
34.214
34.202
34.189
34.175
34.161
34.146
34.13
34.115
34.098
34.082
34.065
34.049
34.032
34.015
33.998
33.981
33.964
33.946
33.929
33.912
33.895
33.879
33.865
33.852
33.842
33.837
33.837
33.845
33.862
33.89
33.932
33.99
34.066
34.161
34.277
34.413
34.568
34.742
34.932
35.135
35.348
35.568
35.79
36.012
36.229
36.437
36.635
36.818
36.985
37.133
37.261
37.369
37.457
37.524
37.573
37.603
37.618
37.617
37.602
37.576
37.538
37.492
37.438
37.378
37.313
37.247
37.179
37.111
37.044
36.979
36.916
36.857
36.8
36.748
36.701
36.658
36.619
36.584
36.554
36.527
36.503
36.482
36.461
36.441
36.42
36.399
36.376
36.352
36.326
36.298
36.268
36.235
36.201
36.166
36.131
36.098
36.067
36.04
36.016
35.997
35.984
35.976
35.974
35.978
35.987
36.002
36.021
36.046
36.076
36.109
36.147
36.187
36.229
36.27
36.311
36.35
36.386
36.419
36.449
36.476
36.497
36.514
36.525
36.53
36.529
36.522
36.509
36.489
36.465
36.436
36.402
36.365
36.325
36.282
36.237
36.191
36.144
36.098
36.053
36.008
35.965
35.922
35.88
35.838
35.797
35.756
35.715
35.674
35.634
35.595
35.558
35.522
35.488
35.454
35.422
35.391
35.362
35.333
35.306
35.279
35.252
35.227
35.201
35.176
35.152
35.127
35.103
35.078
35.054
35.03
35.006
34.983
34.962
34.942
34.925
34.91
34.896
34.885
