Trial 1:0back
36.195
36.163
36.147
36.147
36.163
36.194
36.237
36.292
36.356
36.427
36.501
36.577
36.653
36.726
36.795
36.857
36.911
36.955
36.991
37.015
37.028
37.031
37.024
37.008
36.984
36.954
36.916
36.872
36.821
36.762
36.697
36.625
36.546
36.464
36.38
36.295
36.21
36.127
36.044
35.963
35.881
35.799
35.716
35.632
35.546
35.46
35.374
35.289
35.206
35.126
35.049
34.975
34.903
34.833
34.765
34.697
34.632
34.569
34.511
34.456
34.406
34.361
34.322
34.287
34.257
34.231
34.209
34.189
34.171
34.155
34.138
34.122
34.104
34.086
34.066
34.044
34.021
33.994
33.964
33.93
33.892
33.851
33.807
33.762
33.716
33.67
33.624
33.579
33.534
33.488
33.442
33.396
33.35
33.304
33.26
33.217
33.177
33.141
33.109
33.083
33.065
33.057
33.061
33.082
33.122
33.187
33.281
33.408
33.573
33.777
34.022
34.307
34.63
34.985
35.365
35.764
36.175
36.59
36.999
37.397
37.775
38.127
38.45
38.738
38.991
39.207
39.389
39.534
39.645
39.723
39.771
39.789
39.781
39.749
39.697
39.629
39.548
39.457
39.358
39.255
39.149
39.042
38.936
38.833
38.733
38.637
38.545
38.456
38.372
38.292
38.217
38.145
38.078
38.013
37.949
37.885
37.821
37.757
37.69
37.622
37.55
37.474
37.391
37.302
37.205
37.099
36.986
36.864
36.734
36.598
36.456
36.311
36.165
36.021
35.881
35.748
35.624
35.51
35.408
35.322
35.251
35.196
35.159
35.136
35.128
35.132
35.146
35.169
35.199
35.233
35.269
35.307
35.344
35.378
35.408
35.434
35.453
35.465
35.47
35.466
35.454
35.433
35.404
35.369
35.329
35.284
35.235
35.18
35.12
35.054
34.983
34.908
34.827
34.744
34.656
34.565
34.472
34.375
34.276
34.175
34.073
33.97
33.868
33.766
33.667
33.568
33.471
33.374
33.279
33.187
33.097
33.012
32.93
32.853
32.78
32.709
32.642
32.576
32.512
32.45
32.39
32.334
32.281
32.233
32.187
32.146
32.108
32.073
32.041
32.013
31.988
31.966
31.947
31.929
31.912
31.896
31.88
31.865
31.85
31.834
31.818
31.801
31.783
31.763
31.743
31.723
31.703
31.683
31.662
31.641
31.618
31.595
31.57
31.546
31.522
31.499
31.478
31.459
31.444
31.434
31.433
31.441
31.461
31.496
31.553
31.637
31.756
31.918
32.127
32.39
32.708
33.082
33.508
33.982
34.495
35.039
35.603
36.173
36.74
37.291
37.816
38.306
38.754
39.155
39.506
39.804
40.049
40.242
40.386
40.484
40.539
40.557
40.541
40.497
40.43
40.344
40.245
40.137
40.024
39.91
39.798
39.69
39.588
39.492
39.402
39.317
39.238
39.163
39.091
39.021
38.953
38.888
38.825
38.765
38.707
38.652
38.599
38.547
38.495
38.44
38.382
38.319
38.249
38.171
38.082
37.983
37.875
37.756
37.628
37.493
37.352
37.205
37.055
36.902
36.748
36.597
36.452
36.313
36.184
36.066
35.962
35.872
35.796
35.736
35.69
35.659
35.641
35.632
35.632
35.638
35.648
35.662
35.677
35.693
35.708
35.721
35.732
35.741
35.745
35.746
35.742
35.732
35.715
35.693
35.663
35.627
35.582
35.53
35.471
35.404
35.332
35.255
35.174
35.089
35.001
34.91
34.818
34.724
34.63
34.536
34.443
34.349
34.257
34.165
34.075
33.988
33.903
33.821
33.741
33.662
33.583
33.504
33.425
33.346
33.269
33.193
33.119
33.047
32.976
32.908
32.84
32.775
32.712
32.65
32.592
32.537
32.486
32.438
32.394
32.352
32.311
32.271
32.23
32.19
32.152
32.117
32.085
32.057
32.034
32.016
32.002
31.992
31.985
31.98
31.976
31.973
31.97
31.967
31.963
31.958
31.951
31.943
31.933
31.92
31.905
31.887
31.866
31.843
31.817
31.79
31.761
31.731
31.699
31.667
31.635
31.604
31.574
31.548
31.527
31.513
31.509
31.517
31.543
31.592
31.672
31.79
31.952
32.168
32.443
32.78
33.178
33.634
34.142
34.691
35.27
35.866
36.465
37.056
37.627
38.165
38.661
39.108
39.5
39.835
40.111
40.329
40.492
40.603
40.667
40.691
40.68
40.64
40.576
40.495
40.4
40.294
40.181
40.064
39.946
39.834
39.733
39.643
39.565
39.496
39.432
39.371
39.311
39.251
39.19
39.128
39.064
38.999
38.934
38.868
38.802
38.735
38.666
38.597
38.525
38.452
38.377
38.298
38.216
38.13
38.04
37.946
37.849
37.747
37.642
37.534
37.424
37.31
37.196
37.081
36.966
36.853
36.744
36.639
36.542
36.454
36.376
36.308
36.25
36.201
36.16
36.126
36.097
36.072
36.052
36.036
36.024
36.015
36.009
36.006
36.003
36.001
35.998
35.993
35.986
35.975
35.96
35.939
35.912
35.88
35.843
35.801
35.753
35.702
35.646
35.586
35.521
35.454
35.383
35.311
35.235
35.158
35.078
34.998
34.916
34.834
34.752
34.67
34.589
34.51
34.432
34.355
34.279
34.205
34.131
34.058
33.984
33.911
33.837
33.765
33.694
33.624
33.554
33.485
33.417
33.35
33.284
33.22
33.159
33.099
33.042
32.987
32.936
32.888
32.844
32.803
32.766
32.731
32.699
32.67
32.642
32.618
32.596
32.576
32.559
32.544
32.53
32.517
32.506
32.495
32.485
32.475
32.466
32.456
32.447
32.438
32.429
32.419
32.408
32.397
32.385
32.373
32.361
32.349
32.335
32.32
32.302
32.281
32.257
32.23
32.2
32.166
32.131
32.093
32.053
32.012
31.97
31.927
31.883
31.84
31.797
31.756
31.718
31.685
31.659
31.645
31.647
31.672
31.727
31.819
31.953
32.137
32.373
32.665
33.01
33.406
33.845
34.321
34.822
35.337
35.856
36.366
36.857
37.319
37.744
38.124
38.456
38.737
38.966
39.147
39.279
39.367
39.415
39.428
39.41
39.367
39.304
39.225
39.134
39.033
38.925
38.813
38.7
38.587
38.476
38.37
38.268
38.172
38.083
38.001
37.927
37.86
37.801
37.749
37.704
37.665
37.629
37.595
37.562
37.528
37.491
37.451
37.405
37.354
37.298
37.236
37.168
37.094
37.015
36.93
36.839
36.743
36.641
36.535
36.426
36.315
36.204
36.096
35.994
35.898
35.811
35.732
35.663
35.603
35.551
35.507
35.472
35.445
35.425
35.411
35.402
35.396
35.394
35.394
35.396
35.4
35.406
35.411
35.415
35.417
35.415
35.408
35.397
35.38
35.358
35.331
35.299
35.263
35.223
35.179
35.131
35.081
35.028
34.973
34.915
34.856
34.795
34.733
34.672
34.612
34.553
34.495
34.438
34.382
34.326
34.27
34.213
34.155
34.098
34.04
33.981
33.922
33.862
33.801
33.739
33.676
33.614
33.553
33.493
33.436
33.381
33.328
33.278
33.23
33.184
33.142
33.102
33.064
33.028
32.994
32.961
32.93
32.9
32.874
32.849
32.828
32.808
32.789
32.772
32.756
32.742
32.729
32.718
32.709
32.702
32.698
32.695
32.694
32.692
32.69
32.688
32.685
32.682
32.678
32.675
32.671
32.665
32.657
32.647
32.633
32.615
32.593
32.569
32.542
32.514
32.485
32.456
32.426
32.396
32.366
32.336
32.307
32.28
32.254
32.23
32.207
32.184
32.164
32.146
32.132
32.123
32.12
32.126
32.145
32.179
32.235
32.317
32.43
32.578
32.764
32.99
33.254
33.554
33.883
34.234
34.601
34.974
35.348
35.713
36.063
36.391
36.691
36.959
37.193
37.389
37.548
37.669
37.754
37.805
37.824
37.816
37.784
37.73
37.658
37.572
37.474
37.369
37.261
37.151
37.043
36.94
36.843
36.754
36.675
36.604
36.542
36.489
36.442
36.401
36.365
36.332
36.301
36.272
36.245
36.219
36.193
36.164
36.132
36.094
36.05
35.997
35.936
35.866
35.786
35.7
35.607
35.511
35.413
35.315
35.22
35.129
35.045
34.968
34.899
34.837
34.785
34.741
34.707
34.682
34.667
34.662
34.664
34.674
34.69
34.71
34.734
34.758
34.781
34.802
34.82
34.834
34.843
34.847
34.847
34.842
34.833
34.819
34.8
34.776
34.747
34.713
34.674
34.631
34.587
34.541
34.496
34.45
34.405
34.358
34.31
34.261
34.21
34.158
34.105
34.052
33.999
33.946
33.894
33.842
33.79
33.74
33.689
33.637
33.586
33.534
33.482
33.428
33.375
33.321
33.27
33.22
33.173
33.129
33.087
33.046
33.007
32.969
32.933
32.899
32.866
32.835
32.805
32.776
32.749
32.724
32.701
32.679
32.66
32.641
32.624
32.609
32.595
32.584
32.574
32.567
32.56
32.555
32.55
32.545
32.54
32.534
32.528
32.521
32.514
32.507
32.5
32.492
32.484
32.476
32.467
32.456
32.444
32.431
32.417
32.401
32.383
32.365
32.346
32.325
32.304
32.281
32.257
32.233
32.21
32.188
32.166
32.144
32.123
32.101
32.078
32.055
32.031
32.007
31.984
31.963
31.946
31.936
31.934
31.946
31.974
32.022
32.095
32.197
32.332
32.502
32.708
32.949
33.223
33.525
33.85
34.191
34.541
34.893
35.238
35.571
35.885
36.174
36.435
36.663
36.858
37.017
37.141
37.229
37.283
37.305
37.298
37.266
37.213
37.142
37.059
36.965
36.865
36.762
36.659
36.558
36.461
36.37
36.287
36.211
36.145
36.088
36.039
35.999
35.965
35.937
35.913
35.89
35.869
35.849
35.828
35.807
35.786
35.763
35.738
35.711
35.681
35.645
35.605
35.557
35.503
35.442
35.375
35.303
35.229
35.154
35.08
35.007
34.937
34.871
34.809
34.752
34.701
34.656
34.618
34.587
34.562
34.541
34.525
34.512
34.502
34.496
34.493
34.493
34.494
34.497
34.5
34.503
34.506
34.51
34.514
34.518
34.523
34.527
34.529
34.528
34.523
34.514
34.501
34.483
34.462
34.437
34.41
34.381
34.35
34.317
34.282
34.244
34.205
34.163
34.119
34.072
34.024
33.976
33.928
33.88
33.831
33.782
33.732
33.681
33.628
33.574
33.519
33.466
33.413
33.363
33.316
33.273
33.232
33.195
33.16
33.127
33.095
33.063
33.032
33.002
32.974
32.948
32.924
32.902
32.884
32.868
32.855
32.843
32.831
32.819
32.807
32.794
32.781
32.769
32.758
32.749
32.741
32.733
32.726
32.719
32.712
32.704
32.697
32.689
32.68
32.67
32.659
32.645
32.628
32.609
32.589
32.566
32.543
32.519
32.496
32.473
32.451
32.43
32.41
32.393
32.38
32.371
32.367
32.368
32.376
32.392
32.419
32.461
32.52
32.601
32.706
32.839
32.998
33.183
33.392
33.623
33.871
34.133
34.405
34.68
34.956
35.225
35.484
35.729
35.954
36.156
36.333
36.483
36.602
36.693
36.754
36.789
36.798
36.786
36.754
36.705
36.641
36.565
36.479
36.387
36.292
36.196
36.101
36.01
35.924
35.844
35.772
35.707
35.651
35.602
35.56
35.523
35.49
35.461
35.434
35.41
35.387
35.365
35.342
35.318
35.291
35.262
35.231
35.195
35.155
35.112
35.064
35.01
34.952
34.889
34.822
34.752
34.679
34.604
34.531
34.46
34.392
34.329
34.271
34.22
34.176
34.139
34.108
34.085
34.069
34.059
34.054
34.053
34.055
34.06
34.067
34.076
34.086
34.097
34.108
34.12
34.13
34.14
34.148
34.154
34.157
34.157
34.155
34.149
34.142
34.134
34.124
34.111
34.095
34.077
34.055
34.031
34.005
33.978
33.949
33.92
33.889
33.856
33.823
33.788
33.753
33.717
33.682
33.648
33.614
33.581
33.549
33.517
33.485
33.452
33.418
33.384
33.349
33.312
33.276
33.239
33.201
33.164
33.128
33.094
33.06
33.028
32.999
32.971
32.946
32.923
32.901
32.882
32.864
32.848
32.834
32.821
32.809
32.798
32.787
32.777
32.767
32.758
32.75
32.742
32.735
32.728
32.722
32.714
32.705
32.694
32.68
32.665
32.648
32.63
32.612
32.596
32.58
32.565
32.551
32.537
32.523
32.509
32.495
32.482
32.469
32.458
32.449
32.441
32.436
32.433
32.434
32.44
32.451
32.472
32.503
32.549
32.614
32.701
32.812
32.949
33.112
33.301
33.514
33.748
33.997
34.258
34.525
34.793
35.059
35.316
35.562
35.794
36.007
36.198
36.362
36.498
36.604
36.681
36.728
36.75
36.746
36.723
36.682
36.627
36.563
36.492
36.416
36.337
36.257
36.176
36.096
36.017
35.94
35.867
35.797
35.731
35.67
35.614
35.563
35.517
35.475
35.437
35.402
35.37
35.339
35.308
35.277
35.246
35.213
35.18
35.144
35.107
35.067
35.024
34.978
34.928
34.874
34.818
34.759
34.699
34.64
34.581
34.525
34.473
34.426
34.385
34.35
34.323
34.302
34.287
34.276
34.269
34.267
34.268
34.273
34.282
34.293
34.306
34.322
34.338
34.354
34.37
34.385
34.398
34.408
34.416
34.421
34.423
34.421
34.416
34.408
34.398
34.383
34.365
34.343
34.319
34.292
34.265
34.236
34.205
34.173
34.139
34.103
34.065
34.025
33.985
33.945
33.906
33.868
33.832
33.796
33.762
33.729
33.696
33.665
33.635
33.606
33.578
33.552
33.526
33.502
33.479
33.456
33.435
33.413
33.393
33.371
33.349
33.326
33.301
33.275
33.248
33.22
33.192
33.163
33.133
33.105
33.077
33.051
33.027
33.005
32.985
32.967
32.951
32.936
32.923
32.912
32.902
32.893
32.886
32.881
32.877
32.875
32.874
32.874
32.874
32.873
32.871
32.869
32.865
32.862
32.857
32.851
32.843
32.835
32.826
32.817
32.806
32.795
32.783
32.771
32.76
32.75
32.742
32.736
32.732
32.729
32.726
32.724
32.723
32.72
32.717
32.713
32.707
32.701
32.694
32.687
32.679
32.672
32.663
32.654
32.644
32.633
32.62
32.607
32.594
32.58
32.564
32.548
32.532
32.515
32.497
32.478
32.458
32.435
32.41
32.383
32.353
32.323
32.294
32.266
32.241
32.217
32.196
32.176
32.159
32.146
32.14
32.144
32.163
32.202
32.265
32.357
32.479
32.636
32.826
33.05
33.305
33.59
33.899
34.229
34.572
34.922
35.273
35.618
35.95
36.262
36.55
36.807
37.031
37.218
37.368
37.482
37.559
37.602
37.614
37.598
37.557
37.498
37.422
37.334
37.237
37.134
37.027
36.92
36.814
36.711
36.611
36.515
36.424
36.337
36.257
36.182
36.115
36.055
36.004
35.96
35.923
35.893
35.867
35.844
35.823
35.801
35.778
35.751
35.721
35.687
35.651
35.612
35.57
35.526
35.479
35.429
35.376
35.322
35.266
35.21
35.154
35.1
35.049
35.002
34.961
34.926
34.898
34.877
34.863
34.854
34.851
34.853
34.859
34.869
34.881
34.895
34.909
34.923
34.936
34.946
34.956
34.963
34.968
34.971
34.971
34.966
34.956
34.942
34.922
34.897
34.868
34.838
34.807
34.775
34.743
34.711
34.679
34.647
34.615
34.583
34.552
34.522
34.493
34.465
34.436
34.405
34.371
34.335
34.297
34.257
34.217
34.177
34.138
34.1
34.064
34.029
33.996
33.964
33.932
33.901
33.869
33.839
33.81
33.781
33.752
33.723
33.694
33.664
33.633
33.603
33.574
33.546
33.52
33.495
33.472
33.452
33.433
33.417
33.403
33.391
33.381
33.374
33.367
33.361
33.356
33.351
33.345
33.339
33.333
33.326
33.318
33.308
33.297
33.284
33.269
33.254
33.24
33.226
33.212
33.2
33.189
33.18
33.172
33.165
33.159
33.155
33.151
33.148
33.145
33.144
33.143
33.144
33.145
33.147
33.148
33.149
33.148
33.146
33.143
33.138
33.132
33.124
33.113
33.1
33.084
33.066
33.047
33.025
33.003
32.979
32.954
32.929
32.904
32.878
32.853
32.829
32.805
32.782
32.76
32.739
32.719
32.699
32.678
32.657
32.636
32.615
32.592
32.57
32.547
32.525
32.502
32.48
32.459
32.441
32.426
32.417
32.415
32.425
32.449
32.491
32.554
32.643
32.76
32.909
33.091
33.307
33.554
33.83
34.131
34.45
34.781
35.116
35.449
35.772
36.08
36.365
36.625
36.854
37.051
37.216
37.349
37.45
37.52
37.56
37.574
37.563
37.529
37.475
37.404
37.318
37.222
37.117
37.009
36.901
36.795
36.693
36.598
36.508
36.425
36.349
36.28
36.216
36.159
36.106
36.058
36.014
35.973
35.935
35.897
35.86
35.822
35.783
35.744
35.706
35.669
35.633
35.597
35.561
35.525
35.488
35.449
35.409
35.368
35.328
35.29
35.254
35.222
35.194
35.168
35.147
35.129
35.113
35.1
35.089
35.08
35.073
35.069
35.068
35.071
35.078
35.087
35.098
35.111
35.123
35.136
35.147
35.158
35.167
35.174
35.179
35.182
35.183
35.18
35.175
35.168
35.16
35.149
35.137
35.123
35.106
35.087
35.065
35.04
35.012
34.983
34.951
34.919
34.886
34.852
34.818
34.784
34.749
34.712
34.673
34.634
34.593
34.551
34.509
34.465
34.422
34.379
34.335
34.291
34.247
34.203
34.161
34.12
34.082
34.046
34.014
33.984
33.956
33.93
33.906
33.883
33.862
33.842
33.823
33.805
33.789
33.775
33.763
33.753
33.744
33.737
33.731
33.725
33.719
33.713
33.706
33.699
33.691
33.682
33.672
33.661
33.649
33.637
33.624
33.612
33.6
33.589
33.578
33.569
33.56
33.551
33.543
33.536
33.53
33.526
33.524
33.524
33.524
33.523
33.522
33.518
33.514
33.507
33.499
33.489
33.478
33.465
33.451
33.435
33.419
33.402
33.384
33.367
33.349
33.332
33.314
33.295
33.277
33.257
33.237
33.217
33.195
33.172
33.149
33.126
33.103
33.081
33.059
33.038
33.019
33.002
32.99
32.984
32.989
33.008
33.045
33.101
33.178
33.279
33.407
33.562
33.746
33.957
34.194
34.455
34.737
35.034
35.342
35.653
35.964
36.266
36.556
36.828
37.077
37.299
37.493
37.657
37.791
37.894
37.968
38.016
38.038
38.036
38.013
37.973
37.916
37.847
37.767
37.679
37.584
37.486
37.385
37.284
37.185
37.089
36.998
36.914
36.836
36.767
36.706
36.654
36.609
36.569
36.534
36.501
36.471
36.439
36.406
36.372
36.334
36.294
36.252
36.207
36.16
36.112
36.061
36.008
35.952
35.896
35.838
35.78
35.724
35.67
35.62
35.575
35.537
35.505
35.479
35.458
35.443
35.434
35.428
35.426
35.428
35.431
35.438
35.443
35.446
35.445
35.44
35.433
35.426
35.42
35.417
35.419
35.425
35.434
35.446
35.459
35.473
35.487
35.5
35.512
35.523
35.533
35.538
35.539
35.534
35.522
35.504
35.479
35.448
35.412
35.37
35.326
35.279
35.232
35.185
35.139
35.093
35.048
35.002
34.955
34.907
34.858
34.808
34.758
34.708
34.658
34.607
34.556
34.506
34.456
34.408
34.361
34.315
34.27
34.226
34.184
34.144
34.105
34.067
34.03
33.995
33.961
33.929
33.901
33.875
33.852
33.832
33.814
33.798
33.784
33.771
33.76
33.75
33.74
33.732
33.724
33.715
33.705
33.693
33.68
33.665
33.647
33.628
33.608
33.589
33.571
33.554
33.538
33.524
33.512
33.503
33.496
33.492
33.489
33.488
33.487
33.487
33.486
33.483
33.48
33.475
33.468
33.46
33.452
33.444
33.437
33.431
33.425
33.419
33.412
33.406
33.399
33.392
33.385
33.378
33.371
33.364
33.355
33.346
33.336
33.326
33.313
33.299
33.281
33.262
33.24
33.216
33.191
33.163
33.135
33.106
33.077
33.049
33.021
32.993
32.965
32.938
32.91
32.884
32.859
32.836
32.815
32.797
32.782
32.771
32.765
32.767
32.779
32.806
32.851
32.921
33.019
33.15
33.319
33.528
33.778
34.067
34.391
34.745
35.123
35.519
35.923
36.33
36.732
37.122
37.491
37.834
38.144
38.418
38.652
38.844
38.995
39.105
39.177
39.214
39.22
39.201
39.16
39.101
39.028
38.943
38.851
38.753
38.652
38.55
38.449
38.352
38.257
38.167
38.083
38.004
37.929
37.859
37.794
37.732
37.673
37.617
37.564
37.514
37.465
37.418
37.373
37.327
37.281
37.234
37.186
37.136
37.085
37.034
36.982
36.931
36.882
36.833
36.786
36.74
36.693
36.647
36.6
36.553
36.506
36.458
36.412
36.369
36.33
36.296
36.269
36.249
36.235
36.227
36.223
36.223
36.225
36.229
36.233
36.239
36.246
36.253
36.261
36.269
36.278
36.286
36.295
36.303
36.308
36.31
36.308
36.3
36.286
36.267
36.244
36.216
36.184
36.148
36.109
36.067
36.022
35.976
35.929
35.882
35.833
35.783
35.731
35.677
35.622
35.566
35.509
35.453
35.396
35.341
35.287
35.236
35.187
35.14
35.094
35.05
35.005
34.961
34.915
34.868
34.82
34.772
34.725
34.679
34.633
34.59
34.548
34.509
34.472
34.436
34.402
34.369
34.337
34.306
34.276
34.247
34.219
34.192
34.167
34.144
34.123
34.102
34.083
34.063
34.045
34.026
34.009
33.992
33.976
33.961
33.948
33.935
33.923
33.91
33.897
33.884
33.871
33.859
33.847
33.836
33.827
33.819
33.812
33.804
33.795
33.785
33.773
33.76
33.746
33.733
33.72
33.708
33.696
33.685
33.673
33.662
33.65
33.638
33.625
33.611
33.596
33.58
33.564
33.547
33.529
33.51
33.491
33.471
33.449
33.426
33.402
33.377
33.35
33.321
33.291
33.259
33.227
33.194
33.161
33.129
33.098
33.068
33.04
33.013
32.99
32.969
32.953
32.942
32.939
32.949
32.976
33.024
33.098
33.204
33.345
33.525
33.746
34.01
34.314
34.655
35.029
35.427
35.842
36.265
36.688
37.102
37.501
37.875
38.22
38.531
38.804
39.037
