Trial 1:0back
33.054
33.036
33.019
33.003
32.992
32.988
32.993
33.011
33.045
33.1
33.178
33.282
33.415
33.578
33.776
34.011
34.282
34.591
34.933
35.307
35.706
36.125
36.556
36.99
37.418
37.83
38.22
38.579
38.901
39.181
39.415
39.602
39.74
39.83
39.875
39.878
39.845
39.779
39.685
39.569
39.433
39.283
39.124
38.959
38.792
38.625
38.462
38.304
38.155
38.014
37.882
37.758
37.642
37.534
37.435
37.344
37.26
37.181
37.107
37.036
36.967
36.902
36.838
36.775
36.709
36.641
36.568
36.492
36.411
36.325
36.234
36.138
36.04
35.94
35.839
35.739
35.64
35.545
35.455
35.371
35.294
35.224
35.163
35.112
35.069
35.037
35.014
34.999
34.991
34.989
34.992
35.0
35.013
35.028
35.044
35.061
35.079
35.096
35.113
35.126
35.137
35.145
35.149
35.15
35.147
35.141
35.128
35.11
35.086
35.056
35.021
34.982
34.936
34.886
34.83
34.769
34.704
34.636
34.564
34.491
34.416
34.339
34.261
34.181
34.099
34.018
33.938
33.859
33.784
33.713
33.648
33.59
33.539
33.495
33.457
33.425
33.398
33.377
33.36
33.347
33.338
33.333
33.33
33.331
33.332
33.333
33.333
33.33
33.324
33.315
33.304
33.289
33.273
33.255
33.236
33.218
33.2
33.186
33.176
33.17
33.169
33.173
33.181
33.192
33.205
33.221
33.236
33.251
33.265
33.279
33.292
33.303
33.311
33.315
33.314
33.309
33.299
33.284
33.265
33.241
33.213
33.182
33.149
33.116
33.086
33.058
33.036
33.02
33.014
33.02
33.041
33.079
33.135
33.213
33.314
33.441
33.595
33.779
33.993
34.238
34.513
34.818
35.149
35.503
35.876
36.262
36.655
37.05
37.441
37.821
38.181
38.515
38.816
39.079
39.302
39.482
39.617
39.709
39.759
39.769
39.743
39.685
39.597
39.486
39.355
39.211
39.057
38.9
38.741
38.585
38.434
38.289
38.153
38.025
37.904
37.789
37.681
37.579
37.483
37.391
37.302
37.216
37.132
37.049
36.968
36.887
36.805
36.723
36.64
36.556
36.47
36.382
36.291
36.197
36.101
36.002
35.904
35.807
35.711
35.617
35.524
35.433
35.346
35.263
35.184
35.112
35.047
34.99
34.943
34.905
34.877
34.856
34.843
34.835
34.833
34.836
34.844
34.856
34.871
34.889
34.911
34.934
34.959
34.985
35.012
35.038
35.062
35.083
35.101
35.115
35.124
35.127
35.123
35.111
35.093
35.067
35.033
34.992
34.942
34.887
34.825
34.76
34.692
34.621
34.547
34.472
34.397
34.323
34.25
34.178
34.108
34.039
33.974
33.912
33.856
33.806
33.762
33.722
33.686
33.654
33.624
33.597
33.572
33.549
33.526
33.504
33.483
33.462
33.441
33.422
33.403
33.385
33.367
33.351
33.336
33.323
33.312
33.303
33.295
33.289
33.286
33.287
33.291
33.298
33.306
33.315
33.324
33.332
33.339
33.344
33.347
33.347
33.343
33.337
33.327
33.315
33.302
33.289
33.274
33.257
33.24
33.223
33.206
33.189
33.173
33.156
33.141
33.128
33.119
33.113
33.112
33.117
33.128
33.147
33.176
33.217
33.273
33.343
33.431
33.539
33.671
33.828
34.015
34.234
34.486
34.771
35.087
35.434
35.805
36.197
36.602
37.015
37.428
37.834
38.225
38.593
38.933
39.237
39.501
39.721
39.896
40.025
40.108
40.149
40.151
40.119
40.056
39.967
39.855
39.726
39.583
39.431
39.273
39.113
38.953
38.798
38.647
38.503
38.366
38.237
38.119
38.01
37.911
37.822
37.741
37.666
37.597
37.533
37.472
37.414
37.356
37.299
37.242
37.185
37.127
37.064
36.995
36.919
36.838
36.752
36.659
36.56
36.456
36.346
36.229
36.108
35.984
35.856
35.726
35.597
35.474
35.358
35.253
35.16
35.082
35.02
34.976
34.948
34.938
34.942
34.961
34.989
35.026
35.066
35.109
35.154
35.198
35.239
35.276
35.307
35.331
35.346
35.353
35.352
35.342
35.323
35.296
35.26
35.216
35.164
35.106
35.041
34.971
34.899
34.827
34.756
34.687
34.619
34.554
34.492
34.433
34.379
34.329
34.282
34.236
34.193
34.152
34.114
34.076
34.04
34.004
33.969
33.933
33.898
33.861
33.823
33.784
33.744
33.703
33.662
33.622
33.586
33.553
33.524
33.501
33.484
33.471
33.462
33.458
33.455
33.454
33.452
33.451
33.451
33.452
33.453
33.455
33.456
33.455
33.452
33.448
33.444
33.437
33.428
33.416
33.402
33.387
33.372
33.358
33.344
33.332
33.321
33.311
33.301
33.292
33.284
33.277
33.271
33.266
33.262
33.258
33.254
33.251
33.247
33.243
33.238
33.231
33.224
33.216
33.21
33.205
33.203
33.207
33.222
33.251
33.299
33.37
33.465
33.59
33.747
33.939
34.168
34.435
34.738
35.075
35.444
35.84
36.255
36.681
37.11
37.534
37.945
38.336
38.699
39.027
39.315
39.56
39.76
39.913
40.019
40.082
40.103
40.087
40.037
39.96
39.859
39.739
39.608
39.468
39.324
39.179
39.036
38.896
38.759
38.629
38.505
38.389
38.279
38.177
38.082
37.992
37.908
37.829
37.754
37.684
37.617
37.552
37.487
37.42
37.352
37.281
37.207
37.129
37.049
36.964
36.873
36.777
36.675
36.568
36.458
36.346
36.232
36.117
36.004
35.893
35.786
35.685
35.591
35.505
35.428
35.36
35.303
35.256
35.221
35.195
35.179
35.171
35.17
35.175
35.183
35.195
35.209
35.222
35.235
35.247
35.256
35.263
35.266
35.264
35.257
35.246
35.232
35.214
35.193
35.168
35.141
35.11
35.078
35.044
35.008
34.969
34.929
34.885
34.84
34.79
34.735
34.675
34.61
34.54
34.468
34.394
34.318
34.241
34.161
34.078
33.996
33.917
33.842
33.771
33.704
33.643
33.588
33.539
33.496
33.461
33.432
33.409
33.39
33.373
33.358
33.343
33.329
33.316
33.303
33.289
33.276
33.263
33.25
33.238
33.226
33.214
33.202
33.191
33.182
33.175
33.17
33.169
33.172
33.177
33.186
33.197
33.209
33.222
33.235
33.248
33.26
33.271
33.282
33.292
33.3
33.306
33.308
33.307
33.303
33.297
33.289
33.278
33.264
33.246
33.227
33.206
33.185
33.166
33.148
33.13
33.115
33.101
33.091
33.084
33.081
33.083
33.09
33.102
33.119
33.142
33.172
33.209
33.254
33.309
33.374
33.453
33.55
33.667
33.81
33.981
34.183
34.416
34.682
34.979
35.306
35.658
36.028
36.412
36.802
37.192
37.574
37.941
38.287
38.605
38.89
39.138
39.346
39.512
39.634
39.715
39.757
39.762
39.734
39.677
39.596
39.496
39.379
39.251
39.113
38.97
38.826
38.682
38.542
38.407
38.275
38.148
38.028
37.914
37.808
37.709
37.618
37.533
37.453
37.381
37.314
37.251
37.192
37.135
37.079
37.023
36.966
36.905
36.839
36.768
36.69
36.606
36.515
36.418
36.315
36.207
36.096
35.983
35.871
35.761
35.655
35.553
35.458
35.371
35.295
35.229
35.174
35.131
35.099
35.077
35.066
35.063
35.07
35.084
35.104
35.129
35.157
35.187
35.216
35.243
35.266
35.285
35.299
35.307
35.309
35.305
35.294
35.276
35.252
35.221
35.185
35.142
35.094
35.041
34.982
34.919
34.854
34.787
34.72
34.653
34.586
34.519
34.452
34.386
34.321
34.258
34.197
34.138
34.081
34.025
33.97
33.917
33.865
33.813
33.761
33.71
33.659
33.61
33.562
33.514
33.467
33.421
33.375
33.331
33.29
33.254
33.222
33.194
33.172
33.155
33.143
33.135
33.133
33.138
33.149
33.165
33.184
33.203
33.222
33.241
33.256
33.268
33.276
33.28
33.28
33.277
33.271
33.263
33.254
33.243
33.231
33.218
33.206
33.194
33.184
33.176
33.169
33.164
33.161
33.159
33.158
33.157
33.155
33.151
33.146
33.138
33.128
33.115
33.1
33.082
33.063
33.043
33.023
33.006
32.992
32.982
32.977
32.978
32.986
33.006
33.038
33.085
33.149
33.231
33.335
33.463
33.618
33.804
34.022
34.274
34.559
34.876
35.22
35.587
35.971
36.367
36.766
37.161
37.545
37.911
38.252
38.563
38.84
39.079
39.277
39.432
39.542
39.61
39.635
39.622
39.575
39.497
39.393
39.267
39.125
38.971
38.809
38.644
38.479
38.315
38.154
38.0
37.853
37.712
37.579
37.451
37.331
37.217
37.112
37.013
36.922
36.836
36.756
36.681
36.61
36.54
36.471
36.401
36.328
36.253
36.176
36.095
36.011
35.924
35.833
35.74
35.646
35.552
35.462
35.375
35.293
35.218
35.15
35.089
35.037
34.993
34.958
34.932
34.913
34.902
34.897
34.896
34.899
34.905
34.912
34.92
34.929
34.939
34.948
34.956
34.963
34.97
34.976
34.982
34.988
34.993
34.995
34.993
34.987
34.977
34.963
34.945
34.922
34.895
34.862
34.824
34.779
34.729
34.674
34.614
34.55
34.482
34.411
34.34
34.268
34.196
34.126
34.057
33.991
33.927
33.867
33.81
33.755
33.703
33.654
33.608
33.566
33.529
33.498
33.471
33.447
33.425
33.405
33.386
33.367
33.349
33.332
33.315
33.298
33.281
33.264
33.248
33.231
33.214
33.198
33.181
33.164
33.15
33.138
33.129
33.123
33.12
33.119
33.12
33.124
33.134
33.152
33.176
33.208
33.243
33.278
33.308
33.331
33.343
33.342
33.327
33.301
33.266
33.224
33.179
33.133
33.086
33.042
33.003
32.969
32.942
32.923
32.911
32.904
32.901
32.903
32.908
32.918
32.932
32.949
32.97
32.993
33.019
33.048
33.082
33.121
33.169
33.229
33.303
33.395
33.51
33.65
33.819
34.021
34.257
34.526
34.827
35.16
35.522
35.907
36.311
36.726
37.145
37.56
37.964
38.348
38.706
39.031
39.317
39.56
39.757
39.907
40.01
40.068
40.084
40.062
40.005
39.918
39.806
39.675
39.529
39.372
39.209
39.041
38.874
38.709
38.548
38.393
38.245
38.103
37.969
37.845
37.73
37.625
37.531
37.445
37.369
37.301
37.241
37.186
37.134
37.082
37.029
36.972
36.912
36.845
36.773
36.695
36.611
36.521
36.426
36.326
36.221
36.112
35.999
35.886
35.775
35.667
35.565
35.47
35.382
35.304
35.238
35.183
35.141
35.109
35.088
35.076
35.073
35.078
35.089
35.107
35.128
35.152
35.177
35.2
35.221
35.238
35.25
35.256
35.257
35.251
35.239
35.221
35.197
35.167
35.13
35.088
35.041
34.99
34.937
34.883
34.827
34.771
34.715
34.658
34.604
34.55
34.497
34.444
34.39
34.335
34.281
34.226
34.171
34.117
34.062
34.007
33.951
33.896
33.842
33.788
33.736
33.687
33.639
33.593
33.551
33.51
33.474
33.441
33.412
33.387
33.367
33.352
33.343
33.338
33.336
33.336
33.337
33.339
33.34
33.342
33.341
33.338
33.332
33.323
33.312
33.299
33.285
33.271
33.257
33.242
33.225
33.207
33.189
33.172
33.158
33.146
33.136
33.13
33.127
33.128
33.133
33.142
33.152
33.164
33.176
33.188
33.199
33.209
33.216
33.22
33.22
33.217
33.211
33.2
33.187
33.171
33.152
33.132
33.11
33.089
33.069
33.051
33.036
33.026
33.019
33.02
33.03
33.051
33.084
33.127
33.18
33.246
33.331
33.44
33.58
33.757
33.972
34.23
34.529
34.869
35.247
35.654
36.083
36.525
36.972
37.415
37.844
38.252
38.629
38.969
39.267
39.521
39.728
39.887
40.0
40.068
40.093
40.081
40.034
39.958
39.856
39.733
39.593
39.44
39.28
39.115
38.95
38.787
38.629
38.477
38.334
38.201
38.076
37.962
37.857
37.76
37.671
37.59
37.516
37.448
37.385
37.327
37.27
37.216
37.162
37.109
37.055
36.999
36.939
36.876
36.809
36.739
36.665
36.587
36.506
36.421
36.333
36.243
36.151
36.058
35.966
35.874
35.785
35.698
35.616
35.539
35.469
35.406
35.351
35.304
35.265
35.234
35.211
35.196
35.188
35.187
35.193
35.203
35.219
35.237
35.256
35.275
35.293
35.308
35.321
35.331
35.336
35.335
35.327
35.313
35.292
35.266
35.233
35.193
35.147
35.094
35.036
34.974
34.909
34.842
34.773
34.702
34.63
34.559
34.488
34.419
34.354
34.291
34.233
34.177
34.126
34.079
34.036
33.997
33.96
33.925
33.891
33.858
33.825
33.792
33.758
33.724
33.688
33.652
33.615
33.578
33.541
33.506
33.472
33.442
33.416
33.394
33.378
33.366
33.36
33.357
33.359
33.364
33.373
33.384
33.397
33.409
33.422
33.433
33.443
33.45
33.456
33.459
33.46
33.458
33.453
33.446
33.437
33.429
33.419
33.41
33.4
33.389
33.377
33.365
33.353
33.34
33.327
33.313
33.298
33.285
33.272
33.262
33.252
33.244
33.235
33.228
33.221
33.216
33.215
33.217
33.226
33.244
33.272
33.316
33.377
33.459
33.564
33.696
33.857
34.051
34.28
34.545
34.844
35.176
35.537
35.922
36.325
36.738
37.151
37.557
37.946
38.311
38.644
38.939
39.194
39.404
39.569
39.688
39.761
39.791
39.78
39.733
39.654
39.547
39.417
39.269
39.107
38.936
38.759
38.582
38.407
38.237
38.074
37.919
37.774
37.639
37.517
37.406
37.306
37.217
37.139
37.069
37.007
36.95
36.897
36.845
36.793
36.739
36.682
36.621
36.555
36.482
36.403
36.317
36.225
36.127
36.026
35.921
35.815
35.709
35.606
35.508
35.416
35.331
35.254
35.185
35.124
35.073
35.032
35.0
34.977
34.962
34.954
34.952
34.955
34.963
34.975
34.99
35.007
35.025
35.045
35.065
35.083
35.098
35.109
35.115
35.115
35.111
35.1
35.085
35.066
35.042
35.016
34.987
34.956
34.923
34.889
34.852
34.812
34.77
34.726
34.68
34.63
34.576
34.519
34.457
34.392
34.326
34.258
34.19
34.12
34.051
33.983
33.918
33.856
33.799
33.747
33.701
33.66
33.623
33.59
33.562
33.537
33.517
33.5
33.486
33.476
33.468
33.462
33.456
33.451
33.444
33.436
33.427
33.419
33.411
33.403
33.395
33.387
33.38
33.372
33.365
33.359
33.354
33.35
33.348
33.347
33.347
33.35
33.354
33.358
33.363
33.368
33.373
33.378
33.383
33.388
33.392
33.394
33.392
33.387
33.379
33.367
33.351
33.332
33.309
33.283
33.256
33.228
33.202
33.178
33.159
33.146
33.142
33.147
33.162
33.189
33.229
33.285
33.359
33.456
33.578
33.729
33.911
34.125
34.372
34.65
34.96
35.298
35.661
36.047
36.454
36.876
37.306
37.736
38.154
38.551
38.916
39.243
39.524
39.754
39.932
40.057
40.132
40.16
40.145
40.094
40.011
39.902
39.775
39.635
39.487
39.336
39.183
39.031
38.881
38.736
38.597
38.463
38.335
38.213
38.097
37.987
37.886
37.792
37.707
37.628
37.555
37.487
37.424
37.364
37.306
37.249
37.19
37.13
37.066
36.998
36.924
36.844
36.757
36.665
36.569
36.469
36.368
36.266
36.163
36.061
35.961
35.866
35.777
35.693
35.615
35.545
35.483
35.43
35.386
35.349
35.318
35.293
35.272
35.256
35.245
35.238
35.235
35.236
35.241
35.25
35.264
35.279
35.296
35.313
35.328
35.341
35.351
35.357
35.358
35.353
35.341
35.322
35.295
35.261
35.221
35.174
35.122
35.066
35.005
34.941
34.873
34.802
34.731
34.658
34.585
34.513
34.444
34.377
34.312
34.249
34.19
34.133
34.08
34.031
33.986
33.945
33.907
33.872
33.839
33.809
33.782
33.757
33.734
33.712
33.69
33.667
33.645
33.624
33.604
33.586
33.569
33.551
33.533
33.515
33.498
33.482
33.468
33.456
33.447
33.441
33.438
33.439
33.443
33.45
33.46
33.471
33.484
33.498
33.51
33.521
33.53
33.536
33.538
33.538
33.533
33.525
33.514
33.5
33.485
33.467
33.447
33.426
33.406
33.386
33.367
33.348
33.332
33.317
33.305
33.297
33.291
33.288
33.287
33.289
33.293
33.302
33.316
33.337
33.367
33.409
33.464
33.536
33.627
33.742
33.885
34.059
34.266
34.508
34.785
35.097
35.443
35.817
36.215
36.632
37.059
37.489
37.912
38.321
38.706
39.062
39.381
39.659
39.891
40.077
40.217
40.312
40.364
40.373
40.344
40.28
40.187
40.068
39.931
39.779
39.621
39.463
39.31
39.167
39.034
38.913
38.803
38.702
38.609
38.521
38.437
38.356
38.277
38.199
38.121
38.045
37.969
37.894
37.821
37.748
37.677
37.606
37.534
37.461
37.383
37.3
37.211
37.117
37.016
36.911
36.8
36.686
36.57
36.452
36.333
36.216
36.1
35.99
35.886
35.79
35.703
35.625
35.556
35.496
35.446
35.406
35.377
35.356
35.342
35.333
35.329
35.329
35.334
35.342
35.353
35.365
35.379
35.393
35.405
35.415
35.421
35.421
35.415
35.404
35.386
35.363
35.334
35.301
35.262
35.218
35.17
35.118
35.064
35.009
34.954
34.899
34.845
34.791
34.739
34.687
34.636
34.586
34.534
34.482
34.428
34.373
34.317
34.259
34.2
34.139
34.078
34.016
33.955
33.896
33.84
33.786
33.737
33.691
33.651
33.617
33.588
33.564
33.546
33.533
33.523
33.517
33.514
33.513
33.513
33.513
33.511
33.507
33.502
33.496
33.488
33.48
33.471
33.461
33.452
33.442
33.434
33.426
33.418
33.41
33.403
33.395
33.388
33.383
33.38
33.379
33.38
33.382
33.385
33.388
33.39
33.39
33.388
33.383
33.375
33.363
33.349
33.331
33.31
33.287
33.261
33.233
33.205
33.177
33.152
33.132
33.118
33.111
33.111
33.123
33.146
33.186
33.244
33.325
33.43
33.563
33.727
33.924
34.156
34.425
34.73
35.068
35.438
35.834
36.251
36.681
37.115
37.543
37.957
38.345
38.7
39.015
39.287
39.513
39.694
39.829
39.921
39.972
39.987
39.969
39.924
39.854
39.765
39.66
39.542
39.416
39.284
39.149
39.015
38.883
38.754
38.63
38.512
38.403
38.302
38.21
38.125
38.047
37.975
37.909
37.847
37.787
37.729
37.671
37.611
37.55
37.486
37.419
37.349
37.275
37.196
37.112
37.023
36.93
36.831
36.727
36.617
36.503
36.386
36.267
36.15
36.034
35.922
35.815
35.713
35.618
35.53
35.449
35.377
35.313
35.258
35.211
35.172
35.141
35.118
35.103
35.096
35.098
35.107
35.123
35.146
35.173
35.203
35.234
35.266
35.294
35.318
35.337
35.347
35.35
35.346
35.333
35.313
35.287
35.253
35.214
35.168
35.118
35.062
35.003
34.939
34.87
34.798
34.724
34.648
34.572
34.496
34.42
34.344
34.272
34.202
34.137
34.077
34.022
33.973
33.929
33.889
33.855
33.824
33.798
33.774
33.751
33.727
33.703
33.679
33.653
33.626
33.598
33.567
33.534
33.499
33.465
33.432
33.4
33.372
33.346
33.324
33.306
33.293
33.284
33.281
33.282
33.289
33.299
33.313
33.328
33.344
33.358
33.371
33.38
33.386
33.387
33.385
33.378
33.366
33.349
33.327
33.302
33.274
33.246
33.216
33.185
33.154
33.124
33.096
33.072
33.053
33.04
33.035
33.039
33.054
33.082
33.13
33.201
33.3
33.428
33.589
33.783
34.01
34.27
34.56
34.876
35.217
35.577
35.953
36.337
36.723
37.103
37.471
37.82
38.145
38.442
38.705
38.932
39.121
39.271
39.383
39.457
39.497
39.504
39.481
39.433
39.363
39.273
39.168
39.048
38.919
38.783
38.643
38.501
38.358
38.217
38.079
37.946
37.819
37.699
37.586
37.479
37.378
37.283
37.193
37.108
37.027
36.949
36.874
36.801
36.729
36.656
36.583
36.506
36.425
36.339
36.25
36.157
36.059
35.957
35.853
35.747
35.64
35.532
35.425
35.32
35.216
35.117
35.022
34.934
34.853
34.781
34.719
34.667
34.625
34.594
34.573
34.562
34.561
34.568
34.582
34.603
34.63
34.664
34.702
34.744
34.786
34.829
34.87
34.91
34.945
34.973
34.993
35.002
35.001
34.988
34.964
34.929
34.884
34.83
34.767
34.698
34.623
34.545
34.467
34.388
34.31
34.234
34.162
34.093
34.029
33.971
33.918
33.869
33.824
33.782
33.743
33.708
33.674
33.642
33.611
33.579
33.547
33.514
33.482
33.449
33.417
33.384
33.352
33.322
33.294
33.269
33.247
33.228
33.213
33.203
33.196
33.194
33.197
33.203
33.212
33.224
33.237
33.252
33.267
33.281
33.293
33.302
33.307
33.308
33.306
33.299
33.288
33.271
33.248
33.22
33.188
33.153
33.118
33.083
33.049
33.019
32.993
32.973
32.96
32.956
32.963
32.982
33.016
33.068
33.14
33.234
33.354
33.5
33.676
33.884
34.126
34.402
34.714
35.058
35.431
35.828
36.242
36.666
37.091
37.506
37.902
38.271
38.606
38.903
39.158
39.37
39.539
39.664
39.748
39.792
39.798
39.77
39.713
39.63
39.526
39.404
39.267
39.121
38.97
38.818
38.669
38.523
38.381
38.245
38.115
37.992
37.878
37.77
37.67
37.577
37.489
37.407
37.329
37.255
37.182
37.111
37.042
36.974
36.907
36.839
36.769
36.695
36.617
36.535
36.448
36.356
36.26
36.159
36.057
35.953
35.851
35.748
35.647
35.547
35.45
35.356
35.267
35.184
35.107
35.036
34.974
34.922
34.881
34.85
34.828
34.816
34.812
34.818
34.832
34.853
34.881
34.914
34.95
34.987
35.025
35.06
35.091
35.117
35.135
35.147
35.15
35.144
35.13
35.107
35.076
35.037
34.991
34.937
34.877
34.813
34.745
34.673
34.597
34.52
34.441
34.364
34.289
34.216
34.146
34.079
34.016
