Trial 1:0back
42.717
42.517
42.291
42.046
41.788
41.522
41.251
40.98
40.712
40.448
40.191
39.941
39.698
39.464
39.237
39.015
38.799
38.588
38.38
38.178
37.979
37.785
37.595
37.411
37.231
37.056
36.888
36.726
36.572
36.425
36.286
36.155
36.031
35.914
35.805
35.702
35.605
35.515
35.432
35.356
35.289
35.232
35.186
35.151
35.128
35.118
35.118
35.129
35.148
35.174
35.206
35.242
35.28
35.319
35.358
35.396
35.433
35.467
35.499
35.528
35.554
35.575
35.591
35.6
35.604
35.601
35.593
35.58
35.563
35.541
35.513
35.479
35.438
35.389
35.334
35.274
35.21
35.144
35.076
35.006
34.935
34.864
34.791
34.717
34.642
34.568
34.494
34.421
34.349
34.28
34.212
34.145
34.08
34.016
33.953
33.891
33.83
33.771
33.713
33.656
33.601
33.546
33.491
33.437
33.382
33.327
33.272
33.218
33.166
33.115
33.066
33.019
32.973
32.929
32.887
32.847
32.808
32.771
32.735
32.701
32.668
32.637
32.606
32.578
32.55
32.524
32.5
32.478
32.458
32.44
32.424
32.411
32.399
32.389
32.382
32.376
32.371
32.367
32.363
32.361
32.36
32.36
32.361
32.364
32.367
32.372
32.375
32.378
32.379
32.377
32.373
32.366
32.357
32.348
32.338
32.328
32.318
32.309
32.301
32.295
32.29
32.287
32.286
32.288
32.292
32.298
32.305
32.313
32.324
32.339
32.361
32.392
32.437
32.498
32.581
32.689
32.826
32.996
33.201
33.445
33.728
34.053
34.42
34.831
35.286
35.782
36.317
36.885
37.478
38.087
38.701
39.309
39.898
40.458
40.977
41.447
41.86
42.212
42.499
42.719
42.875
42.968
43.002
42.983
42.915
42.806
42.66
42.485
42.286
42.067
41.834
41.59
41.339
41.085
40.83
40.577
40.327
40.082
39.843
39.61
39.385
39.167
38.956
38.753
38.556
38.364
38.178
37.997
37.82
37.647
37.477
37.312
37.152
36.998
36.849
36.707
36.57
36.44
36.318
36.202
36.094
35.995
35.903
35.821
35.748
35.687
35.636
35.597
35.571
35.557
35.553
35.56
35.575
35.597
35.625
35.659
35.697
35.739
35.785
35.834
35.884
35.934
35.982
36.027
36.068
36.104
36.134
36.158
36.176
36.187
36.193
36.193
36.188
36.177
36.161
36.138
36.108
36.072
36.029
35.981
35.926
35.867
35.803
35.737
35.667
35.595
35.519
35.439
35.356
35.27
35.182
35.092
35.002
34.914
34.827
34.743
34.662
34.582
34.505
34.428
34.352
34.278
34.206
34.136
34.07
34.008
33.949
33.895
33.845
33.797
33.75
33.705
33.66
33.616
33.573
33.532
33.492
33.455
33.419
33.385
33.352
33.32
33.288
33.256
33.226
33.196
33.168
33.141
33.114
33.088
33.063
33.039
33.018
32.998
32.98
32.965
32.953
32.944
32.938
32.934
32.931
32.928
32.926
32.924
32.922
32.919
32.916
32.912
32.908
32.903
32.897
32.89
32.881
32.871
32.861
32.85
32.84
32.831
32.825
32.822
32.824
32.834
32.853
32.884
32.932
32.998
33.087
33.201
33.344
33.519
33.729
33.975
34.261
34.59
34.964
35.386
35.854
36.368
36.924
37.515
38.134
38.768
39.405
40.033
40.64
41.215
41.747
42.228
42.652
43.013
43.31
43.541
43.71
43.817
43.867
43.865
43.814
43.721
43.591
43.432
43.246
43.038
42.814
42.578
42.334
42.087
41.839
41.593
41.352
41.116
40.888
40.668
40.459
40.259
40.068
39.886
39.711
39.542
39.377
39.217
39.059
38.903
38.748
38.595
38.442
38.291
38.142
37.996
37.855
37.717
37.585
37.457
37.335
37.219
37.109
37.007
36.914
36.831
36.758
36.695
36.644
36.603
36.571
36.548
36.534
36.527
36.526
36.532
36.543
36.558
36.576
36.597
36.621
36.646
36.673
36.7
36.727
36.753
36.777
36.796
36.811
36.821
36.824
36.821
36.809
36.791
36.766
36.735
36.698
36.655
36.606
36.55
36.488
36.419
36.345
36.265
36.181
36.093
36.003
35.91
35.816
35.72
35.622
35.522
35.421
35.321
35.222
35.125
35.03
34.937
34.846
34.759
34.674
34.591
34.512
34.435
34.361
34.29
34.221
34.154
34.087
34.023
33.959
33.898
33.839
33.782
33.728
33.675
33.625
33.576
33.528
33.482
33.438
33.396
33.357
33.321
33.289
33.261
33.235
33.212
33.19
33.17
33.151
33.132
33.114
33.097
33.08
33.064
33.048
33.033
33.017
33.0
32.982
32.961
32.938
32.912
32.884
32.855
32.825
32.795
32.766
32.74
32.717
32.697
32.682
32.673
32.67
32.674
32.685
32.706
32.738
32.782
32.841
32.918
33.017
33.142
33.297
33.487
33.717
33.989
34.308
34.678
35.1
35.574
36.1
36.674
37.288
37.934
38.601
39.278
39.953
40.612
41.244
41.838
42.385
42.878
43.31
43.679
43.982
44.22
44.393
44.506
44.561
44.564
44.519
44.434
44.313
44.164
43.992
43.802
43.601
43.393
43.181
42.968
42.758
42.553
42.354
42.163
41.98
41.806
41.639
41.481
41.329
41.185
41.046
40.911
40.781
40.654
40.53
40.408
40.288
40.167
40.047
39.924
39.8
39.674
39.544
39.413
39.28
39.144
39.009
38.873
38.739
38.607
38.478
38.353
38.232
38.115
38.004
37.898
37.8
37.71
37.629
37.559
37.498
37.448
37.407
37.375
37.351
37.334
37.323
37.316
37.312
37.308
37.304
37.298
37.29
37.279
37.264
37.245
37.223
37.197
37.166
37.131
37.09
37.044
36.992
36.935
36.873
36.807
36.738
36.665
36.591
36.514
36.433
36.35
36.263
36.174
36.081
35.987
35.891
35.794
35.696
35.595
35.494
35.391
35.288
35.186
35.084
34.984
34.885
34.789
34.694
34.603
34.514
34.429
34.349
34.273
34.201
34.133
34.069
34.007
33.946
33.886
33.828
33.77
33.714
33.658
33.604
33.551
33.499
33.446
33.393
33.34
33.286
33.232
33.18
33.129
33.081
33.035
32.992
32.95
32.91
32.871
32.834
32.799
32.767
32.737
32.71
32.684
32.661
32.64
32.62
32.601
32.584
32.569
32.555
32.542
32.53
32.519
32.509
32.5
32.492
32.486
32.48
32.476
32.471
32.465
32.457
32.446
32.432
32.416
32.4
32.383
32.367
32.349
32.331
32.312
32.292
32.271
32.249
32.228
32.208
32.19
32.175
32.163
32.154
32.15
32.151
32.159
32.176
32.206
32.253
32.32
32.414
32.537
32.695
32.891
33.13
33.416
33.756
34.154
34.613
35.133
35.714
36.348
37.027
37.74
38.474
39.216
39.951
40.664
41.342
41.973
42.548
43.058
43.498
43.866
44.16
44.383
44.537
44.628
44.663
44.649
44.592
44.5
44.379
44.237
44.079
43.91
43.736
43.56
43.384
43.211
43.043
42.881
42.725
42.576
42.433
42.298
42.169
42.047
41.93
41.819
41.712
41.609
41.507
41.408
41.309
41.21
41.11
41.008
40.903
40.794
40.682
40.566
40.445
40.32
40.189
40.055
39.917
39.775
39.632
39.488
39.343
39.199
39.057
38.917
38.78
38.648
38.524
38.407
38.301
38.206
38.122
38.049
37.985
37.93
37.881
37.84
37.803
37.771
37.742
37.716
37.692
37.67
37.649
37.628
37.605
37.58
37.55
37.514
37.471
37.42
37.361
37.294
37.221
37.143
37.062
36.978
36.892
36.804
36.714
36.621
36.526
36.429
36.33
36.23
36.128
36.026
35.924
35.822
35.721
35.619
35.516
35.413
35.31
35.207
35.105
35.003
34.903
34.805
34.71
34.618
34.529
34.443
34.359
34.278
34.199
34.121
34.045
33.97
33.897
33.827
33.759
33.693
33.63
33.569
33.509
33.452
33.395
33.34
33.286
33.232
33.181
33.13
33.081
33.034
32.988
32.943
32.898
32.855
32.811
32.767
32.724
32.681
32.639
32.599
32.561
32.526
32.493
32.462
32.433
32.407
32.382
32.359
32.338
32.318
32.299
32.281
32.264
32.248
32.232
32.214
32.195
32.172
32.143
32.109
32.07
32.03
31.99
31.953
31.921
31.895
31.876
31.864
31.86
31.863
31.871
31.884
31.899
31.914
31.927
31.938
31.948
31.955
31.961
31.964
31.965
31.962
31.956
31.945
31.929
31.908
31.884
31.857
31.828
31.798
31.768
31.737
31.706
31.675
31.644
31.615
31.59
31.57
31.559
31.56
31.576
31.61
31.665
31.744
31.85
31.986
32.158
32.368
32.622
32.925
33.284
33.703
34.184
34.726
35.326
35.977
36.669
37.392
38.131
38.873
39.602
40.307
40.974
41.594
42.157
42.656
43.088
43.449
43.741
43.965
44.126
44.227
44.275
44.274
44.231
44.153
44.047
43.916
43.768
43.606
43.437
43.264
43.091
42.921
42.755
42.596
42.443
42.297
42.158
42.028
41.904
41.788
41.679
41.576
41.479
41.387
41.299
41.214
41.129
41.044
40.956
40.865
40.77
40.668
40.559
40.442
40.316
40.18
40.036
39.884
39.725
39.562
39.396
39.231
39.067
38.907
38.754
38.607
38.468
38.337
38.216
38.104
38.003
37.912
37.832
37.764
37.707
37.66
37.621
37.59
37.564
37.542
37.523
37.504
37.485
37.464
37.441
37.414
37.384
37.35
37.313
37.273
37.229
37.181
37.128
37.069
37.003
36.931
36.851
36.766
36.675
36.579
36.479
36.376
36.27
36.161
36.049
35.936
35.821
35.706
35.59
35.474
35.357
35.242
35.126
35.013
34.901
34.793
34.687
34.584
34.485
34.389
34.295
34.204
34.116
34.03
33.947
33.867
33.79
33.716
33.644
33.576
33.51
33.447
33.388
33.331
33.275
33.22
33.166
33.111
33.055
32.999
32.942
32.885
32.829
32.774
32.72
32.666
32.613
32.56
32.508
32.458
32.409
32.363
32.318
32.276
32.236
32.198
32.162
32.128
32.096
32.068
32.042
32.02
32.001
31.985
31.971
31.958
31.947
31.936
31.924
31.911
31.897
31.882
31.865
31.848
31.829
31.809
31.789
31.767
31.745
31.72
31.695
31.668
31.642
31.616
31.592
31.571
31.553
31.539
31.527
31.519
31.513
31.509
31.506
31.502
31.498
31.492
31.485
31.477
31.467
31.457
31.445
31.433
31.421
31.408
31.395
31.383
31.371
31.359
31.348
31.337
31.325
31.313
31.301
31.288
31.275
31.262
31.25
31.237
31.224
31.21
31.197
31.186
31.177
31.175
31.18
31.195
31.225
31.271
31.338
31.429
31.55
31.704
31.896
32.132
32.416
32.753
33.149
33.605
34.123
34.701
35.333
36.011
36.726
37.463
38.21
38.952
39.674
40.363
41.007
41.597
42.125
42.586
42.977
43.296
43.545
43.727
43.846
43.909
43.921
43.888
43.817
43.714
43.584
43.434
43.268
43.091
42.906
42.718
42.529
42.342
42.161
41.986
41.82
41.662
41.515
41.379
41.253
41.138
41.031
40.932
40.838
40.748
40.66
40.571
40.481
40.388
40.29
40.188
40.08
39.965
39.846
39.721
39.591
39.457
39.319
39.177
39.033
38.887
38.741
38.594
38.45
38.309
38.174
38.044
37.922
37.81
37.707
37.615
37.534
37.465
37.406
37.357
37.318
37.288
37.266
37.248
37.236
37.227
37.221
37.215
37.211
37.206
37.199
37.189
37.173
37.151
37.12
37.082
37.035
36.98
36.918
36.848
36.77
36.686
36.595
36.5
36.401
36.3
36.198
36.095
35.991
35.886
35.779
35.671
35.561
35.45
35.338
35.227
35.117
35.009
34.903
34.799
34.699
34.601
34.506
34.415
34.327
34.241
34.157
34.076
33.996
33.917
33.839
33.763
33.688
33.616
33.547
33.479
33.414
33.351
33.29
33.232
33.175
33.121
33.067
33.015
32.963
32.912
32.861
32.81
32.76
32.71
32.661
32.613
32.567
32.522
32.477
32.434
32.392
32.353
32.317
32.282
32.251
32.222
32.196
32.172
32.149
32.127
32.105
32.084
32.064
32.045
32.027
32.01
31.994
31.978
31.961
31.944
31.927
31.908
31.891
31.874
31.858
31.844
31.832
31.821
31.811
31.802
31.795
31.79
31.787
31.785
31.784
31.782
31.781
31.779
31.776
31.772
31.765
31.757
31.745
31.729
31.71
31.686
31.658
31.627
31.592
31.555
31.518
31.482
31.449
31.418
31.391
31.368
31.352
31.341
31.337
31.342
31.358
31.386
31.43
31.492
31.577
31.686
31.824
31.995
32.202
32.449
32.741
33.084
33.481
33.935
34.448
35.015
35.633
36.291
36.981
37.689
38.401
39.104
39.785
40.431
41.031
41.575
42.057
42.47
42.813
43.085
43.288
43.425
43.501
43.523
43.497
43.43
43.33
43.202
43.054
42.892
42.719
42.541
42.361
42.182
42.007
41.837
41.672
41.514
41.363
41.219
41.08
40.948
40.822
40.701
40.585
40.473
40.366
40.263
40.163
40.064
39.967
39.869
39.768
39.664
39.555
39.441
39.319
39.191
39.055
38.912
38.762
38.606
38.448
38.287
38.129
37.973
37.823
37.68
37.544
37.416
37.297
37.186
37.086
36.996
36.916
36.848
36.791
36.745
36.709
36.682
36.661
36.647
36.638
36.634
36.633
36.636
36.641
36.645
36.647
36.645
36.635
36.618
36.592
36.557
36.514
36.46
36.397
36.325
36.243
36.155
36.06
35.962
35.861
35.759
35.655
35.551
35.444
35.335
35.225
35.112
34.999
34.887
34.777
34.668
34.562
34.457
34.354
34.252
34.15
34.048
33.947
33.849
33.753
33.66
33.571
33.486
33.405
33.327
33.252
33.18
33.111
33.045
32.98
32.918
32.858
32.8
32.744
32.689
32.636
32.584
32.533
32.482
32.431
32.381
32.331
32.282
32.234
32.187
32.144
32.102
32.063
32.026
31.99
31.955
31.92
31.884
31.849
31.814
31.781
31.749
31.72
31.694
31.67
31.647
31.625
31.604
31.583
31.564
31.547
31.532
31.518
31.507
31.497
31.487
31.476
31.465
31.453
31.439
31.426
31.413
31.404
31.4
31.398
31.397
31.396
31.392
31.386
31.375
31.362
31.345
31.326
31.305
31.283
31.262
31.241
31.223
31.207
31.192
31.18
31.17
31.161
31.153
31.145
31.138
31.132
31.126
31.12
31.113
31.105
31.094
31.081
31.066
31.049
31.031
31.014
30.997
30.982
30.968
30.954
30.943
30.933
30.927
30.927
30.935
30.952
30.982
31.026
31.087
31.169
31.276
31.412
31.582
31.791
32.044
32.344
32.698
33.11
33.584
34.12
34.718
35.372
36.074
36.814
37.578
38.353
39.123
39.874
40.593
41.267
41.886
42.443
42.93
43.345
43.687
43.955
44.154
44.287
44.36
44.379
44.351
44.283
44.183
44.058
43.912
43.753
43.583
43.407
43.229
43.052
42.878
42.709
42.546
42.391
42.244
42.106
41.975
41.854
41.744
41.65
41.572
41.509
41.457
41.413
41.372
41.329
41.28
41.221
41.15
41.064
40.962
40.844
40.71
40.562
40.4
40.229
40.051
39.869
39.685
39.501
39.318
39.138
38.962
38.79
38.623
38.462
38.308
38.162
38.024
37.897
37.78
37.674
37.58
37.498
37.427
37.365
37.311
37.265
37.224
37.188
37.154
37.122
37.091
37.06
37.029
36.997
36.965
36.931
36.894
36.854
36.809
36.76
36.704
36.643
36.575
36.5
36.42
36.335
36.246
36.152
36.055
35.955
35.852
35.747
35.64
35.531
35.421
35.31
35.199
35.087
34.975
34.863
34.753
34.644
34.536
34.43
34.327
34.226
34.129
34.035
33.944
33.857
33.774
33.693
33.616
33.54
33.467
33.397
33.328
33.262
33.197
33.133
33.071
33.01
32.949
32.889
32.83
32.773
32.717
32.662
32.608
32.555
32.504
32.454
32.407
32.362
32.319
32.278
32.239
32.201
32.163
32.126
32.089
32.051
32.013
31.974
31.936
31.9
31.865
31.832
31.8
31.77
31.74
31.71
31.681
31.653
31.626
31.601
31.578
31.557
31.537
31.517
31.498
31.479
31.461
31.444
31.428
31.413
31.4
31.386
31.372
31.357
31.339
31.321
31.301
31.281
31.263
31.245
31.229
31.213
31.198
31.183
31.167
31.15
31.132
31.114
31.096
31.079
31.062
31.046
31.032
31.02
31.009
30.999
30.992
30.986
30.981
30.978
30.977
30.976
30.976
30.976
30.977
30.977
30.976
30.973
30.968
30.96
30.948
30.933
30.915
30.897
30.88
30.865
30.855
30.85
30.853
30.867
30.896
30.943
31.013
31.11
31.237
31.399
31.597
31.836
32.121
32.455
32.845
33.293
33.802
34.373
35.003
35.684
36.407
37.161
37.932
38.705
39.464
40.195
40.886
41.524
42.101
42.611
43.049
43.413
43.704
43.924
44.078
44.17
44.205
44.191
44.134
44.04
43.917
43.772
43.609
43.434
43.25
43.062
42.872
42.683
42.497
42.317
42.142
41.977
41.822
41.678
41.545
41.424
41.315
41.216
41.126
41.042
40.964
40.889
40.814
40.739
40.66
40.576
40.483
40.382
40.273
40.154
40.027
39.891
39.749
39.6
39.446
39.287
39.125
38.96
38.793
38.626
38.459
38.293
38.132
37.977
37.83
37.692
37.566
37.453
37.352
37.264
37.187
37.121
37.063
37.011
36.966
36.925
36.888
36.854
36.824
36.797
36.771
36.746
36.72
36.692
36.661
36.625
36.585
36.538
36.486
36.428
36.366
36.3
36.23
36.158
36.084
36.009
35.933
35.853
35.769
35.681
35.589
35.494
35.396
35.296
35.193
35.089
34.983
34.875
34.766
34.657
34.547
34.437
34.328
34.22
34.113
34.009
33.908
33.812
33.719
33.63
33.544
33.462
33.381
33.303
33.227
33.154
33.082
33.013
32.945
32.879
32.815
32.75
32.685
32.619
32.552
32.485
32.418
32.354
32.292
32.233
32.178
32.127
32.078
32.032
31.989
31.95
31.913
31.879
31.849
31.821
31.795
31.771
31.748
31.725
31.701
31.675
31.649
31.622
31.596
31.569
31.542
31.515
31.488
31.461
31.434
31.407
31.381
31.356
31.334
31.313
31.294
31.276
31.259
31.243
31.228
31.214
31.203
31.193
31.185
31.176
31.166
31.155
31.141
31.125
31.108
31.089
31.07
31.051
31.034
31.019
31.006
30.996
30.988
30.982
30.979
30.977
30.976
30.977
30.977
30.977
30.976
30.974
30.969
30.961
30.95
30.938
30.923
30.905
30.886
30.864
30.84
30.817
30.794
30.773
30.755
30.742
30.735
30.736
30.747
30.771
30.811
30.871
30.956
31.069
31.215
31.397
31.621
31.889
32.204
32.57
32.99
33.465
33.996
34.582
35.219
35.9
36.617
37.358
38.108
38.855
39.584
40.281
40.936
41.537
42.076
42.546
42.944
43.269
43.521
43.703
43.817
43.868
43.861
43.802
43.7
43.561
43.392
43.199
42.989
42.768
42.541
42.314
42.09
41.875
41.668
41.472
41.288
41.116
40.956
40.807
40.669
40.54
40.418
40.302
40.191
40.082
39.976
39.872
39.768
39.664
39.56
39.456
39.353
39.25
39.146
39.039
38.926
38.807
38.68
38.545
38.404
38.257
38.108
37.957
37.806
37.659
37.517
37.381
37.254
37.136
37.028
36.93
36.841
36.762
36.693
36.632
36.582
36.541
36.51
36.486
36.47
36.458
36.45
36.442
36.435
36.426
36.416
36.402
36.386
36.364
36.336
36.303
36.263
36.219
36.169
36.116
36.06
36.0
35.937
35.87
35.798
35.723
35.644
35.561
35.475
35.384
35.29
35.192
35.093
34.991
34.887
34.782
34.677
34.573
34.469
34.367
34.267
34.168
34.072
33.978
33.885
33.794
33.704
33.616
33.528
33.441
33.356
33.274
33.194
33.118
33.045
32.975
32.909
32.845
32.784
32.725
32.67
32.617
32.566
32.518
32.472
32.428
32.384
32.34
32.297
32.252
32.205
32.158
32.111
32.064
32.017
31.972
31.927
31.885
31.844
31.806
31.771
31.738
31.708
31.68
31.655
31.633
31.613
31.594
31.576
31.56
31.543
31.528
31.514
31.5
31.489
31.48
31.473
31.468
31.464
31.46
31.456
31.451
31.444
31.436
31.425
31.412
31.397
31.382
31.367
31.351
31.335
31.32
31.304
31.288
31.273
31.258
31.244
31.231
31.218
31.207
31.198
31.19
31.184
31.18
31.177
31.174
31.17
31.165
31.157
31.146
31.133
31.117
31.099
31.08
31.062
31.047
31.035
31.029
31.029
31.04
31.063
31.104
31.167
31.255
31.374
31.527
31.72
31.954
32.233
32.56
32.937
33.367
33.853
34.395
34.992
35.64
36.329
37.052
37.794
38.543
39.284
40.004
40.688
41.324
41.901
42.412
42.852
43.216
43.506
43.722
43.866
43.944
43.962
43.927
43.848
43.732
43.587
43.42
43.238
43.045
42.847
42.648
42.45
42.257
42.069
41.887
41.713
41.546
41.388
41.239
41.098
40.967
40.845
40.731
40.624
40.524
40.427
40.332
40.238
40.142
40.044
39.943
39.838
39.727
39.611
39.489
39.362
39.23
39.094
38.954
38.811
38.664
38.514
38.361
38.207
38.053
37.902
37.754
37.613
37.478
37.352
37.235
37.128
37.031
36.944
36.866
36.799
36.74
36.688
36.642
36.601
36.565
36.533
36.506
36.481
36.459
36.438
36.418
36.395
36.37
36.342
36.309
36.272
36.231
36.185
36.136
36.081
36.021
35.956
35.886
35.811
35.733
35.651
35.565
35.476
35.382
35.284
35.183
35.08
34.974
34.868
34.762
34.657
34.552
34.449
34.347
34.245
34.145
34.045
33.946
33.849
33.755
33.666
33.581
33.5
33.424
33.351
33.281
33.213
33.146
33.081
33.016
32.951
32.887
32.823
32.76
32.699
32.641
32.584
32.528
32.473
32.417
32.361
32.303
32.245
32.186
32.127
32.071
32.017
31.965
31.918
31.873
31.832
31.794
31.76
31.73
31.705
31.683
31.665
31.65
31.637
31.624
31.61
