Trial 1:0back
33.408
33.352
33.296
33.241
33.186
33.133
33.081
33.031
32.984
32.939
32.896
32.854
32.814
32.774
32.736
32.7
32.664
32.631
32.599
32.57
32.542
32.518
32.499
32.485
32.48
32.485
32.504
32.539
32.594
32.673
32.78
32.92
33.099
33.321
33.59
33.907
34.275
34.693
35.156
35.662
36.205
36.775
37.364
37.962
38.557
39.139
39.699
40.225
40.71
41.146
41.529
41.854
42.119
42.325
42.472
42.564
42.603
42.596
42.546
42.461
42.344
42.203
42.042
41.868
41.682
41.489
41.291
41.091
40.891
40.691
40.494
40.299
40.108
39.919
39.734
39.553
39.375
39.2
39.029
38.86
38.694
38.528
38.363
38.198
38.035
37.872
37.71
37.55
37.393
37.238
37.086
36.938
36.793
36.652
36.514
36.381
36.252
36.129
36.011
35.9
35.795
35.697
35.606
35.522
35.445
35.377
35.318
35.267
35.225
35.193
35.169
35.154
35.147
35.147
35.154
35.166
35.183
35.203
35.225
35.249
35.273
35.296
35.316
35.333
35.346
35.355
35.359
35.359
35.354
35.343
35.327
35.305
35.277
35.244
35.205
35.161
35.113
35.061
35.006
34.947
34.886
34.823
34.759
34.694
34.626
34.557
34.484
34.409
34.332
34.254
34.175
34.096
34.017
33.94
33.864
33.792
33.721
33.652
33.584
33.517
33.451
33.386
33.322
33.26
33.198
33.138
33.078
33.02
32.961
32.904
32.847
32.791
32.735
32.681
32.627
32.574
32.523
32.473
32.426
32.381
32.34
32.304
32.274
32.252
32.241
32.244
32.264
32.306
32.373
32.472
32.606
32.781
32.999
33.265
33.582
33.948
34.357
34.803
35.28
35.784
36.31
36.852
37.402
37.954
38.499
39.029
39.533
40.004
40.435
40.82
41.153
41.431
41.652
41.815
41.922
41.977
41.984
41.946
41.871
41.764
41.631
41.478
41.307
41.125
40.934
40.738
40.54
40.341
40.144
39.951
39.761
39.575
39.394
39.216
39.042
38.871
38.702
38.537
38.373
38.213
38.055
37.9
37.746
37.594
37.441
37.29
37.139
36.987
36.837
36.687
36.537
36.388
36.24
36.095
35.951
35.811
35.675
35.537
35.393
35.245
35.097
34.953
34.821
34.704
34.608
34.533
34.483
34.455
34.451
34.467
34.5
34.546
34.602
34.665
34.733
34.801
34.868
34.929
34.984
35.031
35.069
35.098
35.119
35.131
35.136
35.133
35.125
35.111
35.091
35.067
35.038
35.005
34.967
34.926
34.88
34.831
34.779
34.723
34.664
34.603
34.539
34.472
34.403
34.333
34.26
34.187
34.112
34.036
33.959
33.881
33.804
33.726
33.65
33.575
33.503
33.432
33.363
33.297
33.233
33.171
33.112
33.054
32.998
32.943
32.889
32.835
32.781
32.728
32.674
32.62
32.567
32.514
32.462
32.412
32.363
32.316
32.272
32.232
32.198
32.171
32.151
32.14
32.139
32.152
32.183
32.237
32.317
32.43
32.58
32.772
33.011
33.3
33.64
34.03
34.467
34.948
35.465
36.01
36.575
37.147
37.718
38.275
38.809
39.31
39.77
40.182
40.541
40.843
41.086
41.272
41.4
41.475
41.499
41.477
41.415
41.318
41.192
41.042
40.873
40.692
40.501
40.306
40.109
39.912
39.716
39.524
39.334
39.149
38.968
38.79
38.617
38.448
38.283
38.122
37.963
37.807
37.652
37.498
37.345
37.193
37.041
36.889
36.739
36.59
36.443
36.296
36.152
36.009
35.87
35.735
35.604
35.479
35.36
35.251
35.152
35.064
34.988
34.926
34.877
34.84
34.817
34.807
34.808
34.819
34.837
34.864
34.896
34.934
34.978
35.025
35.074
35.125
35.176
35.226
35.273
35.315
35.352
35.383
35.408
35.425
35.436
35.439
35.436
35.425
35.408
35.384
35.355
35.32
35.279
35.234
35.183
35.129
35.07
35.008
34.942
34.874
34.802
34.729
34.655
34.581
34.507
34.435
34.364
34.294
34.225
34.157
34.088
34.017
33.946
33.873
33.801
33.728
33.654
33.579
33.504
33.431
33.359
33.289
33.222
33.157
33.094
33.031
32.97
32.911
32.853
32.795
32.739
32.685
32.631
32.58
32.529
32.481
32.435
32.392
32.354
32.321
32.294
32.276
32.268
32.274
32.298
32.344
32.416
32.519
32.658
32.837
33.059
33.326
33.641
34.004
34.412
34.863
35.35
35.867
36.404
36.953
37.503
38.043
38.562
39.051
39.504
39.912
40.27
40.576
40.827
41.023
41.163
41.251
41.288
41.28
41.231
41.144
41.027
40.883
40.718
40.536
40.344
40.144
39.94
39.736
39.533
39.333
39.137
38.946
38.76
38.578
38.4
38.224
38.051
37.88
37.71
37.541
37.371
37.202
37.034
36.865
36.697
36.529
36.362
36.195
36.029
35.864
35.698
35.531
35.366
35.203
35.045
34.893
34.748
34.613
34.489
34.378
34.28
34.194
34.121
34.059
34.009
33.971
33.944
33.927
33.919
33.92
33.928
33.943
33.963
33.987
34.015
34.043
34.071
34.096
34.119
34.138
34.153
34.163
34.169
34.169
34.163
34.153
34.137
34.117
34.09
34.058
34.02
33.978
33.93
33.877
33.82
33.76
33.695
33.627
33.555
33.48
33.402
33.321
33.239
33.156
33.07
32.984
32.896
32.808
32.719
32.631
32.543
32.457
32.372
32.291
32.215
32.144
32.078
32.016
31.957
31.9
31.843
31.787
31.729
31.671
31.612
31.552
31.493
31.435
31.38
31.328
31.279
31.232
31.189
31.149
31.113
31.08
31.053
31.029
31.011
31.0
30.997
31.005
31.025
31.063
31.12
31.201
31.31
31.452
31.629
31.846
32.107
32.413
32.768
33.171
33.621
34.114
34.646
35.21
35.797
36.398
37.002
37.599
38.178
38.728
39.241
39.709
40.126
40.486
40.787
41.028
41.209
41.332
41.399
41.415
41.384
41.31
41.2
41.059
40.892
40.706
40.504
40.29
40.068
39.841
39.612
39.383
39.156
38.93
38.708
38.489
38.272
38.058
37.846
37.634
37.424
37.214
37.005
36.796
36.588
36.378
36.17
35.964
35.762
35.563
35.368
35.178
34.995
34.819
34.653
34.496
34.35
34.215
34.093
33.985
33.892
33.813
33.747
33.696
33.657
33.63
33.615
33.611
33.617
33.63
33.649
33.674
33.704
33.737
33.774
33.812
33.852
33.893
33.932
33.969
34.002
34.031
34.055
34.075
34.089
34.098
34.102
34.102
34.097
34.089
34.076
34.059
34.04
34.018
33.993
33.965
33.933
33.899
33.861
33.819
33.774
33.726
33.675
33.623
33.569
33.516
33.462
33.409
33.355
33.302
33.248
33.195
33.141
33.088
33.033
32.979
32.924
32.87
32.817
32.765
32.713
32.662
32.611
32.561
32.511
32.462
32.414
32.366
32.319
32.274
32.231
32.191
32.155
32.124
32.099
32.081
32.073
32.078
32.097
32.136
32.198
32.287
32.408
32.565
32.761
33.001
33.288
33.622
34.003
34.427
34.892
35.391
35.916
36.46
37.012
37.565
38.106
38.629
39.122
39.579
39.992
40.357
40.669
40.927
41.13
41.279
41.376
41.424
41.425
41.384
41.307
41.199
41.064
40.907
40.734
40.548
40.352
40.15
39.946
39.739
39.532
39.326
39.122
38.922
38.725
38.531
38.339
38.15
37.962
37.776
37.59
37.403
37.216
37.028
36.84
36.651
36.461
36.271
36.081
35.891
35.704
35.52
35.34
35.166
35.002
34.848
34.706
34.579
34.466
34.367
34.282
34.211
34.152
34.106
34.071
34.049
34.037
34.035
34.041
34.054
34.074
34.1
34.131
34.167
34.206
34.249
34.294
34.34
34.386
34.429
34.469
34.504
34.533
34.556
34.573
34.582
34.585
34.583
34.576
34.564
34.549
34.53
34.507
34.48
34.449
34.414
34.374
34.33
34.282
34.232
34.179
34.123
34.064
34.002
33.938
33.871
33.802
33.732
33.659
33.585
33.511
33.437
33.363
33.289
33.216
33.144
33.074
33.005
32.938
32.872
32.809
32.749
32.692
32.639
32.59
32.546
32.505
32.471
32.445
32.428
32.422
32.43
32.455
32.502
32.576
32.682
32.825
33.01
33.24
33.52
33.851
34.233
34.664
35.139
35.654
36.2
36.768
37.348
37.93
38.502
39.054
39.576
40.06
40.496
40.879
41.206
41.475
41.685
41.837
41.933
41.977
41.973
41.926
41.841
41.725
41.582
41.418
41.238
41.046
40.844
40.636
40.424
40.211
39.999
39.787
39.578
39.371
39.168
38.967
38.77
38.575
38.382
38.189
37.995
37.8
37.605
37.41
37.217
37.026
36.837
36.652
36.471
36.293
36.12
35.952
35.788
35.627
35.471
35.319
35.173
35.033
34.901
34.775
34.658
34.549
34.448
34.359
34.28
34.213
34.156
34.111
34.078
34.054
34.042
34.039
34.045
34.058
34.077
34.102
34.131
34.162
34.195
34.227
34.259
34.288
34.314
34.337
34.357
34.372
34.384
34.392
34.396
34.397
34.392
34.383
34.369
34.35
34.326
34.296
34.26
34.22
34.175
34.125
34.072
34.014
33.952
33.887
33.82
33.752
33.682
33.612
33.543
33.475
33.407
33.341
33.276
33.21
33.143
33.075
33.005
32.935
32.865
32.796
32.728
32.662
32.598
32.535
32.474
32.415
32.357
32.302
32.249
32.201
32.156
32.118
32.088
32.069
32.065
32.08
32.118
32.185
32.288
32.431
32.62
32.861
33.154
33.503
33.907
34.365
34.872
35.42
36.002
36.608
37.227
37.846
38.455
39.042
39.597
40.111
40.575
40.984
41.335
41.625
41.854
42.022
42.133
42.19
42.198
42.16
42.083
41.972
41.832
41.67
41.491
41.298
41.097
40.89
40.681
40.472
40.264
40.059
39.857
39.66
39.467
39.278
39.092
38.911
38.734
38.559
38.387
38.217
38.049
37.883
37.718
37.554
37.39
37.226
37.062
36.898
36.735
36.57
36.405
36.24
36.076
35.914
35.754
35.598
35.447
35.299
35.158
35.024
34.899
34.783
34.676
34.578
34.491
34.415
34.349
34.293
34.247
34.21
34.181
34.162
34.15
34.147
34.149
34.157
34.17
34.186
34.204
34.223
34.243
34.262
34.279
34.293
34.301
34.303
34.3
34.29
34.276
34.256
34.233
34.206
34.175
34.142
34.105
34.064
34.021
33.975
33.927
33.877
33.824
33.769
33.712
33.651
33.587
33.522
33.454
33.384
33.314
33.242
33.171
33.1
33.029
32.959
32.89
32.822
32.755
32.689
32.625
32.561
32.498
32.436
32.375
32.315
32.257
32.2
32.145
32.091
32.037
31.985
31.933
31.882
31.834
31.789
31.747
31.71
31.678
31.652
31.629
31.612
31.602
31.599
31.606
31.627
31.665
31.722
31.805
31.92
32.071
32.267
32.513
32.813
33.17
33.585
34.056
34.581
35.153
35.764
36.403
37.059
37.719
38.371
39.002
39.599
40.154
40.658
41.103
41.486
41.801
42.048
42.228
42.345
42.401
42.402
42.353
42.262
42.136
41.981
41.803
41.61
41.406
41.195
40.98
40.764
40.548
40.336
40.128
39.925
39.726
39.53
39.339
39.151
38.967
38.785
38.606
38.43
38.258
38.087
37.918
37.751
37.584
37.417
37.25
37.083
36.916
36.749
36.583
36.416
36.251
36.087
35.925
35.766
35.61
35.459
35.313
35.173
35.04
34.915
34.797
34.689
34.59
34.501
34.424
34.357
34.302
34.258
34.224
34.201
34.188
34.184
34.188
34.199
34.215
34.235
34.256
34.279
34.301
34.321
34.338
34.352
34.364
34.373
34.378
34.379
34.376
34.369
34.357
34.341
34.319
34.293
34.26
34.222
34.179
34.131
34.079
34.024
33.966
33.906
33.843
33.779
33.713
33.645
33.575
33.504
33.433
33.361
33.289
33.218
33.147
33.076
33.006
32.936
32.865
32.796
32.727
32.658
32.589
32.519
32.45
32.382
32.315
32.25
32.188
32.13
32.075
32.024
31.977
31.934
31.895
31.858
31.826
31.795
31.767
31.741
31.716
31.693
31.67
31.65
31.63
31.61
31.591
31.572
31.554
31.537
31.523
31.512
31.506
31.508
31.517
31.538
31.574
31.629
31.709
31.819
31.964
32.151
32.382
32.664
33.0
33.392
33.84
34.34
34.888
35.477
36.099
36.744
37.4
38.055
38.696
39.314
39.895
40.431
40.914
41.337
41.696
41.989
42.214
42.374
42.471
42.511
42.5
42.443
42.345
42.212
42.05
41.865
41.662
41.446
41.221
40.99
40.759
40.529
40.302
40.079
39.862
39.651
39.447
39.248
39.054
38.865
38.68
38.5
38.323
38.147
37.973
37.798
37.623
37.445
37.266
37.084
36.9
36.716
36.531
36.347
36.162
35.979
35.799
35.624
35.455
35.293
35.139
34.992
34.855
34.728
34.612
34.507
34.413
34.331
34.261
34.204
34.159
34.125
34.102
34.089
34.086
34.09
34.102
34.12
34.143
34.17
34.201
34.233
34.266
34.298
34.33
34.36
34.388
34.413
34.433
34.448
34.458
34.463
34.461
34.452
34.437
34.415
34.386
34.351
34.31
34.264
34.213
34.158
34.098
34.035
33.967
33.897
33.824
33.749
33.673
33.596
33.517
33.438
33.358
33.277
33.194
33.111
33.026
32.941
32.855
32.77
32.684
32.6
32.518
32.438
32.36
32.286
32.215
32.147
32.081
32.02
31.962
31.908
31.858
31.812
31.77
31.731
31.695
31.66
31.628
31.596
31.565
31.535
31.506
31.479
31.453
31.429
31.406
31.386
31.369
31.354
31.342
31.332
31.324
31.319
31.315
31.312
31.311
31.311
31.313
31.317
31.325
31.338
31.357
31.386
31.427
31.483
31.558
31.657
31.786
31.951
32.158
32.412
32.717
33.073
33.483
33.946
34.459
35.017
35.614
36.239
36.883
37.535
38.183
38.814
39.417
39.98
40.496
40.957
41.356
41.69
41.957
42.156
42.29
42.362
42.375
42.335
42.248
42.12
41.958
41.767
41.553
41.322
41.078
40.826
40.57
40.313
40.057
39.805
39.556
39.313
39.074
38.839
38.608
38.382
38.159
37.938
37.72
37.503
37.287
37.073
36.86
36.65
36.442
36.239
36.039
35.844
35.654
35.469
35.288
35.113
34.945
34.783
34.628
34.48
34.342
34.213
34.095
33.989
33.897
33.817
33.75
33.697
33.658
33.633
33.621
33.621
33.631
33.65
33.678
33.714
33.756
33.803
33.854
33.909
33.965
34.021
34.078
34.132
34.183
34.231
34.275
34.315
34.35
34.381
34.406
34.425
34.438
34.444
34.443
34.435
34.42
34.399
34.371
34.337
34.298
34.253
34.203
34.148
34.088
34.025
33.958
33.89
33.82
33.748
33.675
33.602
33.528
33.453
33.378
33.301
33.224
33.146
33.067
32.988
32.909
32.831
32.754
32.68
32.607
32.538
32.473
32.41
32.35
32.295
32.243
32.196
32.151
32.11
32.071
32.034
31.999
31.965
31.933
31.902
31.871
31.841
31.812
31.783
31.755
31.729
31.705
31.683
31.665
31.651
31.642
31.639
31.643
31.658
31.686
31.729
31.792
31.88
31.995
32.145
32.333
32.566
32.847
33.179
33.563
33.998
34.483
35.011
35.577
36.172
36.785
37.407
38.025
38.629
39.207
39.749
40.245
40.687
41.069
41.386
41.637
41.821
41.942
42.004
42.01
41.967
41.881
41.757
41.602
41.422
41.221
41.005
40.776
40.539
40.296
40.049
39.801
39.553
39.305
39.058
38.812
38.568
38.326
38.085
37.847
37.612
37.379
37.149
36.921
36.696
36.474
36.254
36.037
35.822
35.609
35.398
35.191
34.988
34.791
34.6
34.417
34.244
34.082
33.932
33.796
33.674
33.565
33.471
33.392
33.326
33.275
33.238
33.215
33.206
33.211
33.227
33.255
33.293
33.34
33.394
33.455
33.521
33.59
33.66
33.729
33.796
33.859
33.918
33.974
34.025
34.072
34.115
34.152
34.182
34.207
34.225
34.238
34.243
34.241
34.231
34.213
34.189
34.16
34.126
34.087
34.045
33.999
33.95
33.898
33.843
33.785
33.722
33.655
33.586
33.515
33.442
33.367
33.291
33.215
33.138
33.061
32.986
32.912
32.839
32.767
32.696
32.627
32.561
32.498
32.438
32.38
32.325
32.273
32.222
32.173
32.126
32.081
32.037
31.994
31.951
31.908
31.866
31.825
31.785
31.746
31.709
31.673
31.64
31.61
31.583
31.56
31.542
31.528
31.521
31.522
31.531
31.552
31.586
31.637
31.711
31.812
31.946
32.118
32.335
32.599
32.915
33.285
33.709
34.186
34.712
35.281
35.886
36.517
37.165
37.816
38.459
39.082
39.673
40.221
40.719
41.159
41.536
41.847
42.09
42.267
42.381
42.435
42.434
42.384
42.291
42.161
42.0
41.815
41.61
41.39
41.159
40.921
40.679
40.436
40.192
39.95
39.71
39.473
39.239
39.008
38.781
38.558
38.336
38.117
37.901
37.686
37.473
37.261
37.051
36.842
36.634
36.429
36.228
36.031
35.838
35.65
35.469
35.296
35.131
34.974
34.824
34.681
34.545
34.416
34.295
34.181
34.075
33.978
33.891
33.814
33.748
33.693
33.651
33.62
33.601
33.594
33.598
33.613
33.638
33.673
33.716
33.766
33.821
33.879
33.938
33.997
34.055
34.109
34.159
34.204
34.244
34.277
34.304
34.323
34.334
34.337
34.334
34.324
34.309
34.288
34.262
34.232
34.196
34.156
34.111
34.063
34.01
33.955
33.897
33.836
33.773
33.708
33.641
33.572
33.501
33.429
33.354
33.279
33.202
33.126
33.05
32.972
32.893
32.812
32.73
32.649
32.57
32.492
32.417
32.344
32.275
32.211
32.15
32.095
32.043
31.994
31.948
31.905
31.864
31.826
31.788
31.751
31.716
31.68
31.646
31.612
31.579
31.547
31.517
31.49
31.465
31.443
31.424
31.409
31.4
31.397
31.402
31.419
31.45
31.501
31.576
31.68
31.819
31.998
32.222
32.495
32.823
33.208
33.648
34.142
34.687
35.275
35.899
36.549
37.213
37.878
38.533
39.164
39.76
40.312
40.811
41.25
41.624
41.93
42.168
42.339
42.446
42.494
42.486
42.428
42.327
42.189
42.022
41.831
41.621
41.396
41.161
40.92
40.675
40.429
40.185
39.943
39.705
39.47
39.24
39.014
38.792
38.573
38.358
38.147
37.938
37.732
37.527
37.325
37.124
36.926
36.729
36.533
36.338
36.145
35.954
35.765
35.578
35.395
35.215
35.041
34.873
34.713
34.562
34.421
34.29
34.17
34.061
33.964
33.879
33.806
33.745
33.696
33.659
33.635
33.622
33.621
33.632
33.652
33.681
33.718
33.762
33.811
33.863
33.917
33.971
34.026
34.079
34.129
34.176
34.218
34.255
34.286
34.311
34.331
34.342
34.342
34.328
34.301
34.264
34.219
34.169
34.117
34.067
34.02
33.977
33.94
33.906
33.874
33.844
33.812
33.779
33.742
33.7
33.654
33.602
33.546
33.484
33.417
33.346
33.27
33.191
33.11
33.028
32.946
32.866
32.786
32.709
32.633
32.56
32.489
32.422
32.357
32.295
32.235
32.177
32.12
32.065
32.012
31.962
31.913
31.865
31.819
31.775
31.73
31.687
31.645
31.604
31.565
31.529
31.496
31.467
31.441
31.419
31.402
31.391
31.386
31.39
31.405
31.434
31.481
31.55
31.646
31.774
31.941
32.15
32.407
32.716
33.078
33.495
33.966
34.488
35.054
35.656
36.284
36.929
37.577
38.217
38.837
39.425
39.97
40.466
40.903
41.279
41.589
41.834
42.013
42.129
42.185
42.186
42.139
42.048
41.92
41.761
41.577
41.374
41.156
40.927
40.691
40.45
40.207
39.963
39.719
39.476
39.236
38.999
38.764
38.533
38.305
38.08
37.858
37.639
37.421
37.205
36.99
36.778
36.567
36.358
36.15
35.945
35.743
35.544
35.348
35.156
34.968
34.787
34.611
34.443
34.283
34.132
33.991
33.861
33.742
33.634
33.538
33.453
33.38
33.319
33.27
33.233
33.207
33.193
33.191
33.202
33.224
33.256
33.298
33.347
33.402
33.463
33.527
33.593
33.658
33.722
33.782
33.839
33.89
33.936
33.975
34.007
34.031
34.048
34.059
34.063
34.061
34.053
34.04
34.022
34.0
33.972
33.941
33.905
33.864
33.82
33.773
33.722
33.668
33.611
33.551
33.489
33.424
33.357
33.289
33.219
33.147
33.073
32.998
32.924
32.851
32.778
32.706
32.635
32.565
32.498
32.433
32.371
32.311
32.253
32.198
32.145
32.095
32.047
32.001
31.957
31.915
31.876
31.839
31.805
31.774
31.746
31.721
31.698
31.677
31.657
31.637
31.617
31.597
31.576
31.557
31.541
31.528
31.52
31.52
31.531
31.555
31.596
31.657
31.742
31.858
32.008
32.199
32.436
32.722
33.06
33.451
33.895
34.389
34.929
35.506
36.114
36.741
37.376
38.007
38.622
39.21
39.761
40.264
40.714
41.103
41.43
41.691
41.887
42.02
42.093
42.11
42.078
42.001
41.885
41.737
41.562
41.365
41.15
40.922
40.684
40.44
40.193
39.943
39.693
39.443
39.195
38.948
38.703
38.461
38.219
37.979
37.74
37.502
37.266
37.032
36.801
36.572
36.346
36.124
35.905
35.691
35.482
35.278
35.079
34.888
34.704
34.53
34.366
34.213
34.07
33.94
33.824
33.721
33.632
33.557
33.495
33.448
33.416
33.399
33.395
33.404
33.425
33.456
33.496
33.543
33.596
33.654
33.717
33.783
33.852
33.922
33.992
34.06
34.127
34.189
34.247
34.3
34.347
34.388
34.424
34.454
34.478
34.496
34.507
34.511
34.509
34.502
34.489
34.471
34.448
34.419
34.386
34.348
34.306
34.259
34.209
34.157
34.103
34.046
33.987
33.927
33.867
33.806
33.747
33.688
33.629
33.569
33.508
33.446
33.382
33.317
33.251
33.185
33.118
33.05
32.984
32.919
32.855
32.794
32.736
32.679
32.625
32.571
32.52
32.47
