Trial 1:0back
33.634
33.625
33.615
33.605
33.594
33.583
33.571
33.56
33.547
33.535
33.523
33.514
33.506
33.501
33.498
33.497
33.496
33.495
33.495
33.494
33.492
33.489
33.485
33.479
33.471
33.461
33.45
33.438
33.426
33.413
33.398
33.383
33.366
33.35
33.334
33.321
33.308
33.297
33.288
33.28
33.274
33.272
33.276
33.289
33.313
33.352
33.408
33.485
33.583
33.705
33.851
34.02
34.212
34.425
34.657
34.904
35.164
35.43
35.699
35.966
36.225
36.471
36.701
36.909
37.094
37.253
37.387
37.495
37.578
37.637
37.672
37.687
37.683
37.664
37.632
37.592
37.545
37.495
37.443
37.391
37.342
37.295
37.252
37.211
37.175
37.142
37.113
37.089
37.067
37.049
37.033
37.018
37.004
36.992
36.98
36.968
36.956
36.942
36.928
36.913
36.897
36.878
36.856
36.829
36.797
36.762
36.722
36.68
36.634
36.587
36.538
36.489
36.439
36.391
36.343
36.296
36.252
36.21
36.17
36.133
36.099
36.067
36.037
36.011
35.988
35.967
35.948
35.933
35.922
35.918
35.918
35.923
35.93
35.938
35.944
35.947
35.946
35.941
35.932
35.919
35.902
35.883
35.861
35.837
35.811
35.785
35.758
35.733
35.708
35.684
35.661
35.638
35.615
35.593
35.571
35.548
35.526
35.503
35.48
35.455
35.428
35.398
35.366
35.331
35.293
35.253
35.211
35.168
35.125
35.083
35.043
35.006
34.971
34.94
34.911
34.885
34.862
34.842
34.822
34.804
34.786
34.768
34.749
34.73
34.709
34.688
34.667
34.645
34.623
34.6
34.576
34.552
34.526
34.501
34.475
34.45
34.426
34.402
34.38
34.359
34.339
34.321
34.304
34.287
34.272
34.257
34.241
34.226
34.212
34.197
34.183
34.17
34.156
34.143
34.13
34.119
34.107
34.096
34.085
34.075
34.064
34.054
34.043
34.032
34.02
34.009
33.998
33.987
33.977
33.967
33.956
33.946
33.935
33.923
33.911
33.897
33.882
33.866
33.849
33.833
33.816
33.8
33.786
33.773
33.762
33.752
33.743
33.735
33.728
33.722
33.716
33.71
33.704
33.698
33.69
33.681
33.67
33.658
33.645
33.632
33.619
33.606
33.594
33.584
33.575
33.568
33.563
33.559
33.555
33.551
33.545
33.539
33.532
33.524
33.515
33.506
33.497
33.491
33.489
33.492
33.505
33.53
33.57
33.629
33.71
33.816
33.949
34.11
34.299
34.514
34.753
35.012
35.286
35.568
35.854
36.136
36.412
36.676
36.923
37.15
37.351
37.526
37.671
37.788
37.878
37.943
37.984
38.004
38.005
37.989
37.959
37.919
37.872
37.819
37.764
37.707
37.651
37.597
37.545
37.497
37.451
37.409
37.37
37.334
37.301
37.27
37.241
37.213
37.185
37.159
37.133
37.108
37.082
37.055
37.025
36.994
36.961
36.927
36.891
36.853
36.814
36.773
36.731
36.688
36.644
36.599
36.554
36.508
36.462
36.418
36.374
36.332
36.291
36.252
36.215
36.181
36.149
36.121
36.096
36.075
36.058
36.047
36.041
36.039
36.039
36.04
36.042
36.044
36.045
36.047
36.048
36.049
36.05
36.051
36.052
36.053
36.053
36.052
36.051
36.048
36.044
36.038
36.031
36.021
36.009
35.996
35.981
35.964
35.945
35.924
35.899
35.872
35.842
35.809
35.774
35.737
35.698
35.657
35.614
35.569
35.523
35.477
35.431
35.386
35.34
35.294
35.248
35.201
35.155
35.109
35.065
35.022
34.979
34.938
34.898
34.859
34.821
34.785
34.752
34.721
34.691
34.663
34.634
34.606
34.579
34.553
34.528
34.504
34.479
34.454
34.429
34.404
34.379
34.353
34.327
34.301
34.275
34.25
34.225
34.202
34.18
34.16
34.143
34.128
34.115
34.103
34.089
34.071
34.049
34.022
33.993
33.963
33.935
33.909
33.886
33.868
33.854
33.845
33.841
33.841
33.845
33.852
33.861
33.871
33.882
33.894
33.905
33.915
33.923
33.929
33.931
33.93
33.925
33.918
33.907
33.895
33.88
33.862
33.844
33.824
33.804
33.784
33.766
33.75
33.736
33.725
33.716
33.71
33.705
33.701
33.697
33.693
33.688
33.682
33.675
33.667
33.659
33.652
33.647
33.646
33.65
33.662
33.685
33.723
33.779
33.854
33.951
34.071
34.213
34.378
34.564
34.77
34.991
35.226
35.47
35.72
35.971
36.219
36.459
36.687
36.898
37.086
37.249
37.386
37.499
37.589
37.657
37.706
37.737
37.754
37.757
37.749
37.731
37.706
37.675
37.642
37.606
37.569
37.53
37.49
37.448
37.405
37.361
37.317
37.273
37.229
37.185
37.141
37.097
37.054
37.011
36.969
36.928
36.888
36.848
36.808
36.769
36.728
36.687
36.644
36.6
36.554
36.506
36.457
36.406
36.353
36.301
36.249
36.2
36.154
36.11
36.067
36.026
35.987
35.948
35.911
35.874
35.84
35.809
35.78
35.756
35.735
35.718
35.705
35.695
35.69
35.688
35.689
35.694
35.701
35.709
35.72
35.731
35.743
35.754
35.765
35.773
35.778
35.781
35.778
35.769
35.755
35.737
35.716
35.695
35.672
35.651
35.631
35.612
35.593
35.576
35.559
35.541
35.524
35.505
35.484
35.462
35.437
35.41
35.379
35.345
35.308
35.27
35.23
35.191
35.151
35.113
35.075
35.037
35.001
34.966
34.934
34.903
34.874
34.846
34.819
34.793
34.767
34.74
34.712
34.682
34.651
34.618
34.583
34.547
34.511
34.475
34.441
34.41
34.381
34.353
34.328
34.305
34.283
34.263
34.245
34.228
34.213
34.198
34.184
34.17
34.156
34.141
34.125
34.108
34.089
34.068
34.046
34.023
34.0
33.978
33.958
33.939
33.921
33.904
33.889
33.874
33.861
33.848
33.837
33.827
33.818
33.81
33.808
33.815
33.831
33.854
33.881
33.907
33.931
33.948
33.957
33.957
33.948
33.93
33.906
33.875
33.84
33.801
33.76
33.718
33.677
33.638
33.604
33.573
33.547
33.525
33.508
33.495
33.486
33.479
33.475
33.472
33.468
33.465
33.46
33.453
33.444
33.433
33.42
33.406
33.389
33.372
33.353
33.335
33.319
33.307
33.299
33.297
33.304
33.321
33.352
33.4
33.468
33.56
33.676
33.819
33.989
34.184
34.403
34.643
34.901
35.173
35.454
35.739
36.023
36.303
36.571
36.825
37.061
37.276
37.468
37.636
37.78
37.899
37.994
38.066
38.117
38.151
38.168
38.17
38.16
38.138
38.108
38.071
38.03
37.987
37.943
37.898
37.855
37.812
37.771
37.732
37.695
37.659
37.625
37.592
37.559
37.526
37.493
37.459
37.424
37.389
37.353
37.316
37.28
37.243
37.206
37.168
37.131
37.094
37.057
37.018
36.977
36.932
36.885
36.836
36.786
36.736
36.688
36.642
36.599
36.559
36.523
36.49
36.459
36.432
36.407
36.384
36.364
36.345
36.329
36.313
36.299
36.286
36.274
36.263
36.252
36.242
36.232
36.222
36.215
36.209
36.205
36.203
36.201
36.199
36.196
36.193
36.188
36.183
36.177
36.169
36.16
36.15
36.139
36.125
36.11
36.093
36.073
36.052
36.03
36.006
35.98
35.953
35.924
35.893
35.86
35.826
35.789
35.751
35.712
35.672
35.634
35.597
35.561
35.526
35.491
35.457
35.422
35.389
35.355
35.321
35.287
35.252
35.218
35.183
35.149
35.114
35.079
35.044
35.009
34.974
34.937
34.9
34.862
34.824
34.786
34.749
34.713
34.677
34.641
34.607
34.573
34.541
34.511
34.483
34.457
34.434
34.412
34.392
34.373
34.355
34.338
34.321
34.304
34.287
34.268
34.249
34.23
34.21
34.19
34.171
34.151
34.131
34.112
34.093
34.075
34.058
34.041
34.024
34.008
33.991
33.975
33.958
33.942
33.926
33.91
33.895
33.879
33.858
33.832
33.8
33.764
33.726
33.689
33.655
33.623
33.597
33.575
33.559
33.549
33.544
33.544
33.547
33.552
33.559
33.566
33.573
33.58
33.584
33.587
33.586
33.583
33.578
33.569
33.558
33.545
33.53
33.514
33.497
33.48
33.461
33.442
33.423
33.403
33.384
33.364
33.346
33.327
33.31
33.293
33.278
33.265
33.256
33.251
33.254
33.266
33.291
33.33
33.387
33.465
33.564
33.686
33.833
34.003
34.197
34.413
34.651
34.906
35.176
35.455
35.739
36.022
36.3
36.569
36.824
37.063
37.283
37.482
37.657
37.809
37.937
38.042
38.12
38.171
38.198
38.204
38.193
38.17
38.138
38.101
38.062
38.022
37.985
37.951
37.92
37.892
37.867
37.843
37.821
37.801
37.782
37.763
37.744
37.723
37.699
37.672
37.642
37.609
37.575
37.539
37.503
37.465
37.428
37.391
37.355
37.318
37.281
37.244
37.207
37.17
37.132
37.093
37.054
37.013
36.971
36.927
36.882
36.836
36.791
36.745
36.701
36.659
36.619
36.582
36.545
36.51
36.476
36.444
36.415
36.389
36.367
36.349
36.336
36.326
36.322
36.321
36.324
36.33
36.338
36.346
36.355
36.364
36.372
36.378
36.383
36.387
36.389
36.389
36.386
36.38
36.37
36.356
36.338
36.315
36.289
36.26
36.229
36.195
36.16
36.124
36.087
36.05
36.013
35.975
35.937
35.899
35.86
35.822
35.785
35.748
35.713
35.678
35.644
35.61
35.576
35.542
35.51
35.477
35.446
35.415
35.383
35.351
35.317
35.281
35.245
35.208
35.171
35.134
35.096
35.056
35.016
34.974
34.933
34.892
34.851
34.812
34.773
34.736
34.701
34.668
34.637
34.608
34.58
34.553
34.527
34.5
34.472
34.443
34.414
34.384
34.354
34.324
34.292
34.26
34.226
34.192
34.159
34.125
34.093
34.062
34.032
34.004
33.978
33.953
33.929
33.908
33.888
33.869
33.85
33.83
33.81
33.79
33.77
33.749
33.73
33.71
33.692
33.676
33.661
33.648
33.637
33.627
33.619
33.612
33.605
33.599
33.593
33.588
33.582
33.576
33.568
33.56
33.55
33.54
33.529
33.519
33.508
33.498
33.489
33.48
33.471
33.462
33.453
33.444
33.436
33.429
33.421
33.413
33.404
33.395
33.386
33.379
33.375
33.378
33.391
33.415
33.455
33.512
33.59
33.692
33.817
33.968
34.142
34.339
34.555
34.789
35.036
35.292
35.554
35.816
36.073
36.32
36.555
36.772
36.97
37.147
37.301
37.432
37.54
37.627
37.694
37.742
37.775
37.793
37.799
37.795
37.782
37.761
37.735
37.704
37.67
37.63
37.583
37.53
37.473
37.414
37.355
37.298
37.246
37.201
37.163
37.133
37.109
37.091
37.075
37.061
37.048
37.033
37.016
36.996
36.973
36.945
36.913
36.876
36.835
36.788
36.738
36.684
36.627
36.567
36.506
36.443
36.379
36.318
36.259
36.203
36.151
36.102
36.057
36.015
35.978
35.946
35.919
35.897
35.879
35.867
35.859
35.855
35.854
35.856
35.86
35.867
35.876
35.886
35.896
35.907
35.916
35.924
35.93
35.935
35.938
35.939
35.936
35.931
35.926
35.919
35.911
35.902
35.89
35.876
35.859
35.839
35.816
35.79
35.762
35.731
35.699
35.665
35.629
35.591
35.551
35.511
35.471
35.433
35.395
35.358
35.321
35.285
35.25
35.216
35.182
35.148
35.113
35.077
35.04
35.002
34.962
34.922
34.881
34.842
34.802
34.763
34.725
34.687
34.65
34.614
34.578
34.542
34.507
34.472
34.438
34.404
34.372
34.341
34.312
34.285
34.259
34.236
34.214
34.193
34.175
34.159
34.143
34.128
34.113
34.099
34.083
34.067
34.049
34.031
34.011
33.991
33.97
33.948
33.928
33.908
33.889
33.873
33.859
33.846
33.835
33.825
33.815
33.807
33.798
33.79
33.781
33.771
33.759
33.746
33.732
33.716
33.699
33.681
33.664
33.646
33.629
33.611
33.595
33.579
33.564
33.551
33.538
33.525
33.511
33.495
33.478
33.461
33.443
33.427
33.413
33.403
33.399
33.402
33.415
33.443
33.487
33.549
33.632
33.736
33.863
34.011
34.181
34.372
34.581
34.806
35.043
35.289
35.538
35.786
36.03
36.268
36.496
36.711
36.911
37.093
37.257
37.401
37.525
37.629
37.714
37.781
37.83
37.863
37.883
37.891
37.89
37.881
37.867
37.848
37.827
37.803
37.777
37.749
37.719
37.688
37.656
37.623
37.59
37.557
37.525
37.493
37.462
37.433
37.405
37.379
37.354
37.328
37.302
37.275
37.248
37.219
37.19
37.159
37.125
37.089
37.05
37.008
36.964
36.919
36.873
36.826
36.779
36.732
36.684
36.636
36.589
36.543
36.498
36.456
36.416
36.378
36.344
36.313
36.285
36.262
36.243
36.229
36.216
36.206
36.195
36.184
36.175
36.166
36.16
36.155
36.152
36.151
36.15
36.149
36.148
36.146
36.142
36.138
36.132
36.126
36.117
36.108
36.095
36.081
36.065
36.046
36.025
36.001
35.973
35.943
35.91
35.877
35.842
35.807
35.77
35.732
35.692
35.651
35.609
35.566
35.522
35.476
35.429
35.382
35.334
35.287
35.239
35.193
35.148
35.106
35.065
35.027
34.991
34.956
34.924
34.894
34.866
34.839
34.811
34.782
34.756
34.731
34.707
34.683
34.659
34.632
34.604
34.574
34.541
34.505
34.468
34.43
34.392
34.354
34.316
34.278
34.242
34.208
34.176
34.147
34.121
34.097
34.074
34.052
34.031
34.01
33.989
33.97
33.952
33.935
33.919
33.904
33.89
33.876
33.864
33.852
33.842
33.833
33.823
33.812
33.801
33.79
33.777
33.764
33.75
33.734
33.717
33.699
33.681
33.662
33.643
33.626
33.61
33.597
33.584
33.574
33.564
33.556
33.549
33.541
33.533
33.524
33.513
33.5
33.485
33.468
33.449
33.429
33.407
33.383
33.358
33.333
33.308
33.284
33.262
33.243
33.227
33.215
33.208
33.207
33.214
33.231
33.259
33.301
33.358
33.433
33.528
33.646
33.786
33.949
34.134
34.338
34.558
34.792
35.035
35.285
35.539
35.794
36.045
36.289
36.523
36.743
36.948
37.136
37.305
37.454
37.583
37.692
37.781
37.851
37.903
37.939
37.96
37.969
37.968
37.959
37.944
37.922
37.897
37.867
37.836
37.802
37.767
37.731
37.694
37.657
37.62
37.582
37.545
37.509
37.474
37.441
37.41
37.379
37.35
37.323
37.297
37.273
37.251
37.229
37.208
37.185
37.161
37.135
37.107
37.077
37.045
37.01
36.973
36.934
36.892
36.849
36.804
36.757
36.708
36.658
36.608
36.558
36.51
36.463
36.42
36.379
36.341
36.307
36.276
36.247
36.222
36.201
36.185
36.175
36.169
36.166
36.167
36.168
36.171
36.173
36.175
36.176
36.176
36.174
36.171
36.165
36.156
36.143
36.128
36.11
36.09
36.067
36.042
36.013
35.982
35.95
35.916
35.881
35.846
35.809
35.77
35.73
35.69
35.649
35.607
35.566
35.526
35.487
35.449
35.412
35.374
35.336
35.298
35.26
35.222
35.184
35.146
35.107
35.069
35.03
34.992
34.956
34.92
34.883
34.846
34.808
34.768
34.729
34.69
34.654
34.619
34.587
34.557
34.529
34.503
34.478
34.454
34.43
34.406
34.381
34.355
34.328
34.299
34.269
34.238
34.206
34.173
34.138
34.104
34.069
34.036
34.004
33.976
33.951
33.93
33.911
33.895
33.881
33.869
33.858
33.848
33.839
33.829
33.819
33.807
33.794
33.779
33.764
33.749
33.733
33.716
33.698
33.68
33.662
33.644
33.629
33.616
33.604
33.594
33.585
33.576
33.568
33.56
33.552
33.543
33.533
33.521
33.506
33.49
33.472
33.454
33.436
33.418
33.4
33.382
33.364
33.346
33.329
33.313
33.297
33.284
33.271
33.259
33.248
33.239
33.232
33.228
33.229
33.235
33.25
33.274
33.312
33.364
33.435
33.526
33.637
33.769
33.922
34.093
34.283
34.487
34.704
34.93
35.161
35.394
35.624
35.847
36.059
36.257
36.439
36.602
36.743
36.863
36.96
37.034
37.086
37.119
37.134
37.135
37.124
37.104
37.076
37.042
37.004
36.962
36.918
36.874
36.831
36.789
36.749
36.711
36.675
36.64
36.606
36.574
36.544
36.515
36.488
36.461
36.434
36.407
36.38
36.351
36.322
36.292
36.261
36.227
36.192
36.153
36.112
36.069
36.025
35.979
35.933
35.886
35.84
35.794
35.749
35.707
35.666
35.628
35.592
35.558
35.526
35.496
35.47
35.447
35.428
35.413
35.402
35.393
35.387
35.382
35.38
35.378
35.378
35.38
35.382
35.386
35.391
35.396
35.401
35.407
35.411
35.414
35.416
35.415
35.411
35.407
35.402
35.396
35.391
35.384
35.376
35.366
35.353
35.338
35.321
35.301
35.279
35.255
35.23
35.203
35.175
35.146
35.116
35.086
35.055
35.025
34.996
34.968
34.94
34.914
34.889
34.866
34.845
34.824
34.802
34.78
34.755
34.729
34.701
34.671
34.639
34.606
34.572
34.539
34.506
34.474
34.444
34.415
34.388
34.363
34.339
34.317
34.295
34.275
34.256
34.238
34.222
34.205
34.187
34.168
34.147
34.125
34.102
34.079
34.054
34.03
34.006
33.983
33.961
33.94
33.92
33.902
33.886
33.871
33.858
33.845
33.834
33.822
33.811
33.797
33.782
33.764
33.745
33.724
33.703
33.682
33.661
33.641
33.622
33.605
33.589
33.574
33.56
33.547
33.536
33.526
33.517
33.508
33.499
33.488
33.477
33.464
33.45
33.435
33.419
33.401
33.383
33.364
33.345
33.327
33.312
33.3
33.293
33.294
33.303
33.324
33.36
33.412
33.483
33.572
33.68
33.807
33.95
34.109
34.281
34.466
34.66
34.859
35.061
35.263
35.461
35.652
35.835
36.005
36.162
36.303
36.429
36.538
36.629
36.703
36.76
36.801
36.827
36.839
36.841
36.832
36.814
36.79
36.759
36.723
36.684
36.643
36.599
36.554
36.509
36.465
36.422
36.381
36.343
36.307
36.274
36.243
36.214
36.183
36.15
36.115
36.079
36.042
36.005
35.97
35.936
35.904
35.875
35.849
35.824
35.8
35.776
35.753
35.728
35.702
35.674
35.643
35.61
35.575
35.538
35.5
35.462
35.425
35.39
35.358
35.33
35.305
35.285
35.269
35.259
35.254
35.253
35.256
35.262
35.269
35.277
35.283
35.289
35.292
35.294
35.294
35.293
35.29
35.286
35.281
35.275
35.268
35.262
35.254
35.245
35.235
35.223
35.21
35.195
35.179
35.161
35.142
35.122
35.099
35.074
35.047
35.018
34.988
34.957
34.926
34.895
34.863
34.83
34.797
34.763
34.73
34.698
34.665
34.632
34.598
34.564
34.53
34.496
34.463
34.431
34.401
34.373
34.346
34.32
34.296
34.273
34.25
34.229
34.207
34.186
34.165
34.144
34.124
34.104
34.086
34.069
34.052
34.034
34.017
33.998
33.98
33.961
33.941
33.92
33.899
33.878
33.856
33.835
33.815
33.797
33.781
33.766
33.753
33.742
33.732
33.724
33.718
33.715
33.714
33.714
33.715
33.715
33.714
33.711
33.706
33.699
33.69
33.678
33.665
33.651
33.637
33.622
33.607
33.592
33.577
33.563
33.549
33.535
33.521
33.508
33.497
33.488
33.479
33.471
33.463
33.454
33.445
33.435
33.423
33.41
33.397
33.383
33.369
33.353
33.336
33.317
33.3
33.283
33.267
33.252
33.238
33.225
33.215
33.207
33.202
33.201
33.206
33.217
33.237
33.266
33.308
33.363
33.435
33.526
33.636
33.766
33.916
34.086
34.274
34.478
34.696
34.925
35.159
35.396
35.63
35.858
36.075
36.278
36.464
36.631
36.778
36.902
37.004
37.084
37.143
37.184
37.208
37.218
37.215
37.203
37.183
37.157
37.129
37.098
37.066
37.035
37.005
36.975
36.946
36.918
36.891
36.867
36.845
36.825
36.808
36.792
36.777
36.763
36.751
36.741
36.732
36.725
36.718
36.71
36.702
36.693
36.681
36.668
36.652
36.633
36.612
36.588
36.56
36.528
36.494
36.458
36.419
36.378
36.335
36.289
36.241
36.191
36.141
36.093
36.047
36.005
35.966
35.931
35.899
35.871
35.848
35.828
35.813
35.801
35.793
35.788
35.784
35.783
35.785
35.788
35.793
35.798
35.803
35.808
35.811
35.812
35.811
35.807
35.801
35.793
35.781
35.766
35.748
35.727
35.703
35.678
35.652
35.625
35.596
35.565
35.534
35.501
35.469
35.437
35.406
35.375
35.343
35.311
35.277
35.244
35.21
35.176
35.144
35.113
35.083
35.053
35.024
34.996
34.968
34.939
34.912
34.884
34.855
34.825
34.794
34.764
34.735
34.707
34.68
34.653
34.628
34.602
34.576
34.549
34.521
34.493
34.464
34.436
34.408
34.381
34.354
34.328
34.302
34.279
34.256
34.234
34.213
34.192
34.173
34.155
34.138
34.124
34.111
34.098
34.086
34.074
34.061
34.049
34.036
34.024
34.013
34.001
33.99
33.978
33.965
33.951
33.936
33.921
33.905
33.888
33.87
33.853
33.835
33.82
33.807
33.795
33.785
33.776
33.768
33.761
33.754
33.747
33.74
33.733
33.724
33.715
33.705
33.694
33.681
33.669
33.656
33.643
33.628
33.612
33.595
33.577
33.558
33.54
33.521
33.503
33.486
33.47
33.454
33.44
33.425
33.411
33.397
33.384
33.369
33.355
33.34
33.327
33.315
33.307
33.302
33.303
33.311
33.329
33.36
33.407
33.472
33.557
33.665
33.797
33.952
34.13
34.328
34.545
34.777
35.02
35.27
35.521
35.768
36.006
36.232
36.444
36.639
36.816
36.974
37.11
37.226
37.32
37.394
37.45
37.488
37.511
37.521
37.519
37.505
37.483
37.453
37.417
37.378
37.337
37.295
37.255
37.215
37.178
37.143
37.111
37.082
37.056
37.034
37.014
36.996
36.98
36.965
36.951
