Trial 1:0back
33.889
33.877
33.866
33.855
33.843
33.831
33.819
33.806
33.792
33.777
33.762
33.745
33.726
33.706
33.685
33.663
33.641
33.618
33.594
33.569
33.544
33.517
33.489
33.459
33.428
33.397
33.367
33.34
33.316
33.296
33.283
33.276
33.278
33.291
33.316
33.354
33.406
33.474
33.555
33.652
33.762
33.885
34.019
34.163
34.315
34.471
34.629
34.786
34.94
35.088
35.229
35.361
35.481
35.591
35.689
35.775
35.85
35.915
35.97
36.016
36.055
36.088
36.116
36.14
36.16
36.175
36.186
36.194
36.197
36.196
36.19
36.181
36.166
36.146
36.119
36.086
36.046
36.0
35.949
35.894
35.835
35.774
35.714
35.653
35.595
35.54
35.488
35.441
35.398
35.359
35.322
35.288
35.256
35.225
35.196
35.167
35.14
35.112
35.083
35.054
35.023
34.991
34.955
34.918
34.878
34.837
34.795
34.754
34.715
34.679
34.647
34.619
34.597
34.58
34.566
34.556
34.55
34.547
34.547
34.548
34.55
34.552
34.553
34.552
34.549
34.543
34.534
34.522
34.506
34.486
34.464
34.439
34.414
34.388
34.363
34.34
34.319
34.301
34.285
34.272
34.261
34.251
34.241
34.231
34.22
34.207
34.191
34.173
34.151
34.126
34.1
34.071
34.043
34.015
33.99
33.968
33.949
33.933
33.92
33.91
33.901
33.892
33.885
33.877
33.871
33.864
33.858
33.85
33.842
33.833
33.824
33.813
33.803
33.792
33.781
33.77
33.76
33.75
33.742
33.735
33.731
33.728
33.726
33.724
33.72
33.714
33.707
33.697
33.685
33.671
33.655
33.639
33.623
33.608
33.595
33.586
33.582
33.586
33.598
33.621
33.655
33.703
33.765
33.842
33.934
34.039
34.157
34.286
34.423
34.566
34.713
34.861
35.007
35.151
35.29
35.423
35.55
35.67
35.782
35.886
35.982
36.069
36.147
36.216
36.276
36.327
36.368
36.399
36.422
36.437
36.445
36.447
36.444
36.437
36.427
36.413
36.397
36.379
36.358
36.337
36.314
36.29
36.264
36.238
36.211
36.182
36.15
36.116
36.078
36.037
35.993
35.947
35.899
35.851
35.803
35.756
35.711
35.67
35.63
35.593
35.558
35.525
35.493
35.462
35.431
35.4
35.37
35.34
35.312
35.284
35.258
35.234
35.213
35.193
35.175
35.159
35.144
35.131
35.119
35.11
35.104
35.101
35.102
35.107
35.115
35.125
35.136
35.148
35.158
35.168
35.175
35.178
35.178
35.174
35.166
35.155
35.141
35.123
35.103
35.08
35.054
35.025
34.995
34.962
34.929
34.894
34.859
34.825
34.792
34.761
34.731
34.704
34.679
34.656
34.633
34.612
34.592
34.574
34.557
34.543
34.53
34.519
34.509
34.501
34.494
34.486
34.479
34.473
34.467
34.463
34.46
34.46
34.462
34.465
34.47
34.475
34.481
34.485
34.487
34.486
34.481
34.471
34.457
34.437
34.413
34.385
34.355
34.323
34.29
34.256
34.223
34.191
34.16
34.131
34.106
34.086
34.073
34.068
34.074
34.092
34.125
34.174
34.241
34.326
34.427
34.545
34.676
34.819
34.97
35.125
35.282
35.438
35.591
35.737
35.877
36.009
36.132
36.245
36.347
36.438
36.518
36.586
36.643
36.689
36.723
36.748
36.763
36.769
36.766
36.755
36.735
36.709
36.677
36.641
36.6
36.556
36.511
36.466
36.421
36.377
36.334
36.293
36.252
36.213
36.173
36.133
36.093
36.052
36.01
35.968
35.926
35.883
35.84
35.798
35.756
35.716
35.678
35.64
35.604
35.568
35.532
35.498
35.464
35.431
35.399
35.368
35.337
35.306
35.276
35.245
35.216
35.188
35.163
35.142
35.126
35.114
35.108
35.107
35.111
35.118
35.128
35.14
35.154
35.168
35.182
35.195
35.207
35.217
35.223
35.226
35.225
35.22
35.211
35.198
35.181
35.161
35.138
35.111
35.083
35.054
35.024
34.994
34.965
34.937
34.909
34.883
34.857
34.83
34.803
34.774
34.744
34.713
34.681
34.649
34.618
34.586
34.555
34.524
34.494
34.464
34.436
34.409
34.386
34.365
34.348
34.335
34.325
34.318
34.315
34.315
34.315
34.316
34.315
34.312
34.306
34.295
34.28
34.262
34.24
34.217
34.193
34.169
34.145
34.122
34.101
34.081
34.062
34.043
34.025
34.007
33.989
33.971
33.955
33.938
33.923
33.908
33.895
33.881
33.868
33.856
33.845
33.838
33.836
33.84
33.854
33.879
33.917
33.969
34.037
34.12
34.217
34.329
34.453
34.588
34.731
34.882
35.038
35.198
35.36
35.522
35.683
35.84
35.993
36.14
36.279
36.41
36.531
36.64
36.738
36.822
36.892
36.949
36.992
37.021
37.038
37.044
37.039
37.025
37.004
36.977
36.946
36.911
36.876
36.84
36.803
36.767
36.732
36.697
36.662
36.627
36.592
36.556
36.518
36.479
36.437
36.395
36.351
36.305
36.258
36.21
36.161
36.11
36.057
36.005
35.952
35.9
35.85
35.801
35.754
35.71
35.669
35.631
35.595
35.562
35.531
35.502
35.474
35.449
35.424
35.4
35.377
35.354
35.331
35.31
35.288
35.267
35.247
35.227
35.208
35.191
35.175
35.162
35.152
35.146
35.143
35.143
35.146
35.15
35.156
35.161
35.166
35.17
35.173
35.174
35.173
35.17
35.165
35.156
35.144
35.129
35.111
35.089
35.063
35.035
35.004
34.971
34.936
34.902
34.867
34.833
34.8
34.768
34.737
34.707
34.677
34.647
34.618
34.59
34.563
34.537
34.512
34.49
34.47
34.453
34.438
34.426
34.416
34.408
34.402
34.396
34.391
34.386
34.38
34.372
34.362
34.35
34.335
34.317
34.298
34.276
34.251
34.223
34.193
34.161
34.126
34.089
34.051
34.013
33.976
33.94
33.907
33.877
33.851
33.829
33.812
33.799
33.791
33.788
33.789
33.796
33.808
33.826
33.852
33.887
33.931
33.987
34.055
34.134
34.225
34.327
34.44
34.563
34.696
34.837
34.985
35.138
35.295
35.456
35.616
35.775
35.931
36.08
36.222
36.354
36.476
36.586
36.684
36.771
36.844
36.905
36.954
36.99
37.016
37.032
37.04
37.041
37.036
37.025
37.011
36.993
36.972
36.948
36.922
36.893
36.861
36.827
36.791
36.752
36.71
36.666
36.621
36.575
36.529
36.483
36.438
36.393
36.35
36.307
36.264
36.222
36.181
36.141
36.103
36.066
36.032
35.999
35.967
35.936
35.904
35.87
35.835
35.799
35.761
35.723
35.686
35.651
35.617
35.587
35.561
35.538
35.52
35.506
35.497
35.49
35.488
35.488
35.491
35.497
35.503
35.512
35.521
35.53
35.539
35.546
35.551
35.553
35.552
35.546
35.537
35.523
35.506
35.486
35.463
35.439
35.413
35.386
35.357
35.327
35.297
35.267
35.238
35.21
35.185
35.163
35.144
35.128
35.115
35.103
35.094
35.087
35.08
35.073
35.067
35.059
35.051
35.04
35.028
35.013
34.996
34.977
34.955
34.932
34.907
34.881
34.853
34.823
34.792
34.761
34.728
34.696
34.663
34.631
34.598
34.565
34.532
34.499
34.465
34.429
34.393
34.356
34.318
34.28
34.241
34.202
34.164
34.128
34.095
34.067
34.043
34.024
34.011
34.004
34.004
34.01
34.024
34.046
34.079
34.123
34.18
34.249
34.333
34.43
34.54
34.662
34.796
34.939
35.09
35.247
35.408
35.572
35.736
35.899
36.06
36.217
36.368
36.511
36.647
36.772
36.887
36.99
37.08
37.158
37.223
37.276
37.318
37.35
37.372
37.385
37.39
37.386
37.375
37.356
37.331
37.3
37.266
37.23
37.192
37.153
37.113
37.073
37.033
36.993
36.953
36.912
36.871
36.83
36.788
36.745
36.701
36.656
36.61
36.563
36.515
36.467
36.418
36.369
36.319
36.27
36.221
36.172
36.124
36.078
36.033
35.99
35.949
35.91
35.874
35.84
35.809
35.78
35.754
35.73
35.709
35.69
35.673
35.658
35.645
35.635
35.626
35.619
35.614
35.611
35.609
35.608
35.608
35.61
35.612
35.615
35.617
35.619
35.618
35.615
35.611
35.604
35.596
35.586
35.576
35.564
35.552
35.539
35.524
35.509
35.491
35.473
35.453
35.43
35.406
35.379
35.35
35.32
35.289
35.256
35.225
35.193
35.163
35.134
35.105
35.078
35.051
35.025
35.001
34.978
34.957
34.939
34.923
34.909
34.897
34.886
34.875
34.866
34.856
34.847
34.836
34.824
34.811
34.795
34.776
34.756
34.732
34.707
34.681
34.653
34.623
34.592
34.56
34.527
34.494
34.46
34.426
34.392
34.358
34.326
34.294
34.264
34.236
34.21
34.187
34.167
34.15
34.138
34.131
34.13
34.136
34.15
34.173
34.208
34.256
34.32
34.401
34.498
34.612
34.741
34.884
35.04
35.205
35.378
35.557
35.74
35.923
36.106
36.286
36.462
36.631
36.791
36.942
37.082
37.209
37.324
37.424
37.512
37.586
37.646
37.693
37.727
37.748
37.758
37.758
37.749
37.733
37.712
37.686
37.658
37.629
37.6
37.572
37.545
37.519
37.494
37.47
37.447
37.425
37.404
37.382
37.36
37.337
37.311
37.281
37.247
37.207
37.161
37.11
37.053
36.992
36.928
36.861
36.792
36.724
36.655
36.589
36.526
36.467
36.412
36.363
36.32
36.282
36.248
36.22
36.195
36.173
36.153
36.133
36.114
36.095
36.076
36.057
36.038
36.02
36.004
35.989
35.976
35.966
35.958
35.953
35.952
35.952
35.954
35.957
35.96
35.963
35.966
35.969
35.971
35.972
35.97
35.966
35.959
35.947
35.931
35.911
35.888
35.861
35.831
35.798
35.761
35.721
35.678
35.63
35.58
35.527
35.473
35.417
35.361
35.305
35.251
35.197
35.147
35.099
35.055
35.014
34.977
34.943
34.912
34.882
34.854
34.827
34.8
34.774
34.748
34.721
34.694
34.665
34.634
34.601
34.565
34.525
34.482
34.436
34.387
34.336
34.284
34.23
34.177
34.125
34.074
34.025
33.979
33.936
33.896
33.859
33.824
33.791
33.76
33.73
33.702
33.675
33.65
33.626
33.604
33.582
33.562
33.544
33.527
33.513
33.504
33.502
33.508
33.525
33.556
33.603
33.668
33.752
33.856
33.98
34.123
34.284
34.461
34.652
34.852
35.059
35.27
35.481
35.691
35.897
36.098
36.291
36.474
36.647
36.808
36.956
37.089
37.209
37.314
37.405
37.482
37.547
37.6
37.641
37.673
37.696
37.711
37.719
37.721
37.718
37.711
37.701
37.688
37.673
37.656
37.638
37.617
37.595
37.569
37.538
37.503
37.461
37.414
37.362
37.305
37.244
37.18
37.113
37.044
36.976
36.908
36.842
36.779
36.718
36.66
36.605
36.553
36.505
36.459
36.416
36.374
36.335
36.296
36.258
36.22
36.182
36.144
36.104
36.065
36.027
35.991
35.958
35.928
35.903
35.882
35.866
35.855
35.848
35.845
35.845
35.848
35.854
35.859
35.866
35.872
35.878
35.881
35.882
35.878
35.869
35.854
35.834
35.808
35.776
35.741
35.702
35.661
35.619
35.577
35.536
35.495
35.457
35.421
35.387
35.355
35.325
35.296
35.268
35.242
35.218
35.194
35.172
35.15
35.13
35.11
35.09
35.071
35.051
35.032
35.013
34.995
34.977
34.961
34.947
34.935
34.924
34.914
34.904
34.892
34.879
34.864
34.845
34.823
34.797
34.769
34.738
34.706
34.675
34.645
34.617
34.589
34.563
34.537
34.512
34.486
34.461
34.437
34.413
34.391
34.37
34.35
34.333
34.316
34.301
34.287
34.274
34.262
34.252
34.245
34.243
34.246
34.257
34.277
34.308
34.353
34.411
34.485
34.574
34.678
34.799
34.935
35.085
35.248
35.423
35.608
35.802
36.002
36.207
36.412
36.616
36.814
37.005
37.186
37.355
37.511
37.651
37.776
37.883
37.972
38.044
38.098
38.136
38.157
38.163
38.157
38.14
38.115
38.084
38.049
38.011
37.972
37.933
37.896
37.859
37.823
37.788
37.754
37.72
37.688
37.656
37.624
37.59
37.553
37.512
37.465
37.413
37.356
37.292
37.225
37.153
37.079
37.004
36.928
36.853
36.781
36.71
36.642
36.577
36.515
36.458
36.404
36.355
36.31
36.27
36.235
36.204
36.177
36.153
36.132
36.113
36.094
36.077
36.06
36.043
36.028
36.014
36.001
35.99
35.982
35.975
35.971
35.968
35.966
35.964
35.963
35.96
35.957
35.953
35.948
35.941
35.931
35.918
35.9
35.879
35.853
35.822
35.788
35.75
35.709
35.666
35.622
35.577
35.533
35.489
35.447
35.406
35.367
35.329
35.293
35.259
35.227
35.197
35.169
35.143
35.119
35.096
35.076
35.058
35.041
35.026
35.013
34.999
34.985
34.97
34.953
34.935
34.914
34.892
34.869
34.843
34.815
34.785
34.752
34.717
34.68
34.642
34.603
34.562
34.522
34.48
34.439
34.398
34.358
34.32
34.284
34.25
34.219
34.19
34.165
34.144
34.126
34.113
34.104
34.1
34.101
34.11
34.127
34.152
34.186
34.232
34.289
34.36
34.446
34.548
34.665
34.799
34.948
35.111
35.288
35.475
35.672
35.875
36.079
36.283
36.483
36.677
36.86
37.032
37.19
37.332
37.459
37.571
37.666
37.746
37.811
37.861
37.9
37.927
37.944
37.953
37.954
37.948
37.937
37.92
37.899
37.871
37.839
37.803
37.762
37.718
37.671
37.622
37.57
37.517
37.462
37.404
37.345
37.282
37.218
37.151
37.082
37.013
36.944
36.877
36.812
36.749
36.689
36.633
36.578
36.525
36.473
36.421
36.369
36.317
36.266
36.215
36.164
36.115
36.066
36.019
35.972
35.928
35.885
35.846
35.809
35.777
35.749
35.724
35.704
35.687
35.674
35.664
35.656
35.651
35.646
35.642
35.638
35.635
35.631
35.627
35.621
35.615
35.608
35.6
35.591
35.581
35.569
35.555
35.537
35.514
35.486
35.452
35.413
35.37
35.324
35.274
35.222
35.167
35.112
35.056
34.999
34.943
34.887
34.834
34.783
34.735
34.691
34.652
34.617
34.586
34.56
34.537
34.516
34.497
34.478
34.459
34.44
34.42
34.4
34.379
34.359
34.34
34.322
34.306
34.291
34.276
34.262
34.248
34.234
34.22
34.206
34.192
34.177
34.161
34.144
34.125
34.103
34.077
34.048
34.016
33.98
33.942
33.901
33.859
33.817
33.775
33.736
33.698
33.665
33.636
33.613
33.597
33.586
33.583
33.586
33.596
33.613
33.637
33.671
33.715
33.771
33.84
33.924
34.023
34.137
34.266
34.407
34.56
34.721
34.887
35.058
35.229
35.401
35.57
35.735
35.894
36.046
36.192
36.329
36.458
36.578
36.689
36.791
36.883
36.965
37.035
37.093
37.138
37.171
37.191
37.199
37.196
37.184
37.162
37.133
37.097
37.057
37.014
36.967
36.918
36.867
36.813
36.758
36.701
36.641
36.578
36.514
36.449
36.383
36.316
36.249
36.181
36.112
36.043
35.974
35.905
35.835
35.767
35.701
35.638
35.577
35.519
35.464
35.412
35.364
35.318
35.275
35.234
35.195
35.159
35.125
35.093
35.063
35.035
35.008
34.983
34.96
34.939
34.919
34.902
34.886
34.872
34.858
34.847
34.836
34.826
34.818
34.812
34.807
34.805
34.805
34.807
34.809
34.813
34.815
34.817
34.815
34.811
34.802
34.789
34.771
34.747
34.717
34.684
34.647
34.607
34.565
34.522
34.478
34.432
34.386
34.339
34.292
34.243
34.196
34.149
34.104
34.062
34.023
33.988
33.957
33.931
33.91
33.895
33.885
33.878
33.875
33.875
33.876
33.878
33.88
33.88
33.879
33.876
33.871
33.863
33.852
33.839
33.823
33.806
33.787
33.768
33.748
33.729
33.71
33.691
33.673
33.654
33.634
33.613
33.589
33.564
33.537
33.506
33.474
33.439
33.402
33.364
33.326
33.289
33.255
33.224
33.197
33.175
33.159
33.149
33.147
33.153
33.167
33.19
33.223
33.268
33.326
33.398
33.485
33.587
33.705
33.836
33.982
34.138
34.304
34.477
34.655
34.835
35.016
35.195
35.369
35.537
35.697
35.847
35.987
36.116
36.234
36.341
36.436
36.52
36.591
36.651
36.698
36.733
36.757
36.771
36.776
36.773
36.764
36.749
36.73
36.706
36.678
36.645
36.607
36.564
36.517
36.466
36.412
36.354
36.295
36.233
36.169
36.105
36.04
35.975
35.912
35.85
35.79
35.733
35.678
35.625
35.576
35.529
35.483
35.439
35.395
35.351
35.307
35.264
35.22
35.176
35.133
35.09
35.048
35.009
34.973
34.941
34.914
34.892
34.875
34.863
34.855
34.849
34.847
34.847
34.85
34.855
34.861
34.868
34.875
34.882
34.887
34.891
34.893
34.893
34.892
34.889
34.886
34.883
34.88
34.876
34.871
34.865
34.857
34.848
34.838
34.825
34.81
34.791
34.77
34.747
34.722
34.696
34.67
34.645
34.621
34.599
34.578
34.558
34.539
34.521
34.503
34.485
34.468
34.452
34.437
34.422
34.409
34.396
34.383
34.37
34.358
34.346
34.334
34.321
34.309
34.296
34.283
34.271
34.258
34.246
34.234
34.222
34.209
34.196
34.182
34.168
34.153
34.138
34.122
34.107
34.091
34.076
34.06
34.045
34.029
34.013
33.997
33.98
33.961
33.942
33.921
33.899
33.877
33.855
33.836
33.821
33.811
33.81
33.819
33.84
33.876
33.928
33.997
34.083
34.186
34.306
34.441
34.59
34.751
34.921
35.098
35.279
35.462
35.646
35.827
36.002
36.171
36.333
36.485
36.627
36.758
36.879
36.988
37.085
37.171
37.244
37.305
37.355
37.392
37.419
37.434
37.439
37.436
37.425
37.408
37.387
37.362
37.334
37.304
37.27
37.233
37.192
37.148
37.099
37.045
36.988
36.927
36.863
36.797
36.729
36.659
36.59
36.521
36.453
36.387
36.323
36.263
36.204
36.149
36.097
36.047
35.999
35.953
35.908
35.864
35.821
35.779
35.738
35.698
35.66
35.624
35.589
35.556
35.524
35.493
35.463
35.435
35.409
35.386
35.365
35.348
35.334
35.322
35.313
35.307
35.302
35.299
35.298
35.297
35.296
35.295
35.293
35.291
35.288
35.283
35.278
35.271
35.263
35.254
35.244
35.232
35.219
35.205
35.189
35.173
35.155
35.136
35.117
35.096
35.074
35.051
35.025
34.997
34.968
34.936
34.903
34.867
34.831
34.795
34.758
34.723
34.69
34.66
34.633
34.61
34.59
34.574
34.562
34.553
34.546
34.542
34.54
34.539
34.537
34.534
34.528
34.519
34.506
34.488
34.466
34.439
34.408
34.373
34.337
34.298
34.259
34.22
34.18
34.142
34.104
34.068
34.033
34.0
33.968
33.936
33.905
33.876
33.847
33.82
33.794
33.77
33.749
33.73
33.714
33.7
33.691
33.685
33.684
33.69
33.706
33.732
33.771
33.826
33.898
33.989
34.097
34.223
34.367
34.526
34.699
34.883
35.077
35.277
35.481
35.686
35.89
36.09
36.284
36.471
36.649
36.817
36.972
37.114
37.242
37.356
37.455
37.54
37.609
37.665
37.706
37.735
37.752
37.758
37.753
37.74
37.72
37.693
37.661
37.626
37.589
37.551
37.511
37.471
37.431
37.391
37.35
37.31
37.27
37.229
37.189
37.148
37.106
37.063
37.016
36.965
36.91
36.851
36.788
36.721
36.654
36.585
36.518
36.453
36.391
36.332
36.277
36.225
36.176
36.13
36.086
36.045
36.007
35.971
35.938
35.905
35.874
35.844
35.814
35.785
35.756
35.728
35.701
35.676
35.653
35.632
35.613
35.595
35.579
35.565
35.551
35.539
35.527
35.517
35.508
35.499
35.492
35.486
35.48
35.474
35.468
35.462
35.453
35.444
35.432
35.419
35.404
35.387
35.367
35.345
35.32
35.292
35.26
35.226
35.189
35.149
35.106
35.061
35.015
34.969
34.925
34.883
34.843
34.808
34.776
34.749
34.725
34.703
34.683
34.664
34.646
34.628
34.611
34.594
34.577
34.56
34.542
34.525
34.508
34.49
34.473
34.455
34.436
34.417
34.396
34.374
34.351
34.327
34.302
34.276
34.251
34.226
34.202
34.178
34.155
34.133
34.111
34.089
34.069
34.05
34.032
34.013
33.995
33.978
33.961
33.947
33.935
33.929
33.927
33.933
33.947
33.97
34.005
34.053
34.115
34.191
34.283
34.391
34.514
34.653
34.804
34.968
35.142
35.323
35.509
35.698
35.889
36.077
36.262
36.44
36.611
36.772
36.923
37.062
37.189
37.304
37.406
37.497
37.576
37.644
37.702
37.749
37.785
37.811
37.826
37.831
37.827
37.813
37.791
37.762
37.726
37.685
37.639
37.59
37.539
37.486
37.432
37.376
37.32
37.263
37.207
37.15
37.095
37.04
36.985
36.931
36.877
36.823
36.768
36.713
36.656
36.599
36.54
36.481
36.42
36.36
36.3
36.243
36.189
36.139
36.092
36.05
36.012
35.978
35.948
35.922
35.9
35.881
35.864
35.851
35.841
35.833
35.828
35.826
35.825
35.827
35.829
35.831
35.833
35.835
35.835
35.834
35.832
35.828
35.823
35.815
35.805
35.792
35.776
35.756
35.735
35.71
35.683
35.653
35.621
35.588
35.554
35.52
35.485
35.451
35.416
35.383
35.349
35.316
35.283
35.252
35.222
35.193
35.166
35.139
35.113
35.088
35.064
35.041
35.018
34.997
34.978
34.961
34.947
34.936
34.928
34.922
34.919
34.917
34.916
34.916
34.915
34.912
34.907
34.898
34.885
34.868
34.846
34.819
34.788
34.754
34.716
34.677
34.636
34.595
34.553
34.511
34.469
34.427
34.386
34.346
34.308
34.272
34.241
34.213
34.19
34.172
34.16
34.153
34.154
34.163
34.182
34.212
34.254
34.311
34.382
34.468
34.571
34.689
34.823
34.972
35.134
35.309
35.494
35.686
