Trial 1:0back
34.387
34.589
34.808
35.043
35.296
35.567
35.857
36.168
36.502
36.858
37.234
37.623
38.018
38.41
38.789
39.146
39.471
39.756
39.996
40.187
40.328
40.418
40.458
40.453
40.407
40.327
40.219
40.089
39.942
39.786
39.623
39.459
39.295
39.136
38.983
38.839
38.704
38.578
38.464
38.36
38.265
38.177
38.093
38.013
37.934
37.856
37.777
37.699
37.62
37.541
37.461
37.381
37.3
37.219
37.137
37.053
36.966
36.879
36.791
36.706
36.625
36.548
36.478
36.413
36.355
36.304
36.261
36.224
36.195
36.174
36.16
36.151
36.148
36.15
36.155
36.16
36.164
36.167
36.167
36.164
36.159
36.151
36.142
36.131
36.119
36.105
36.088
36.067
36.042
36.013
35.98
35.945
35.908
35.87
35.831
35.791
35.75
35.708
35.665
35.62
35.575
35.529
35.483
35.438
35.395
35.352
35.31
35.268
35.225
35.18
35.132
35.083
35.033
34.981
34.927
34.873
34.818
34.761
34.703
34.644
34.584
34.525
34.469
34.417
34.369
34.325
34.284
34.245
34.208
34.172
34.137
34.104
34.071
34.038
34.005
33.972
33.938
33.904
33.871
33.836
33.802
33.767
33.733
33.698
33.662
33.626
33.59
33.553
33.516
33.479
33.443
33.41
33.378
33.348
33.321
33.296
33.276
33.258
33.243
33.232
33.226
33.224
33.229
33.24
33.261
33.292
33.334
33.391
33.463
33.553
33.661
33.79
33.939
34.108
34.3
34.516
34.762
35.041
35.36
35.72
36.123
36.563
37.034
37.526
38.027
38.524
39.004
39.454
39.864
40.224
40.529
40.774
40.957
41.078
41.142
41.152
41.115
41.037
40.927
40.791
40.636
40.469
40.295
40.12
39.947
39.78
39.62
39.469
39.328
39.197
39.076
38.964
38.861
38.765
38.675
38.59
38.507
38.424
38.34
38.255
38.169
38.081
37.992
37.902
37.81
37.719
37.627
37.535
37.443
37.351
37.261
37.173
37.088
37.008
36.934
36.865
36.801
36.743
36.689
36.639
36.593
36.55
36.51
36.473
36.441
36.413
36.391
36.374
36.361
36.35
36.34
36.329
36.315
36.3
36.283
36.265
36.244
36.222
36.199
36.173
36.144
36.111
36.075
36.034
35.991
35.945
35.899
35.853
35.809
35.766
35.723
35.68
35.635
35.589
35.543
35.496
35.448
35.4
35.352
35.304
35.255
35.205
35.154
35.103
35.05
34.997
34.944
34.89
34.837
34.785
34.731
34.677
34.621
34.564
34.506
34.448
34.391
34.335
34.28
34.226
34.172
34.12
34.07
34.021
33.974
33.929
33.885
33.845
33.808
33.773
33.738
33.703
33.667
33.629
33.59
33.549
33.507
33.465
33.422
33.378
33.336
33.295
33.256
33.22
33.185
33.152
33.121
33.092
33.063
33.034
33.006
32.979
32.955
32.932
32.912
32.895
32.881
32.872
32.867
32.867
32.875
32.892
32.919
32.957
33.008
33.075
33.16
33.265
33.39
33.539
33.715
33.921
34.165
34.454
34.796
35.193
35.646
36.148
36.691
37.262
37.849
38.435
39.004
39.542
40.036
40.476
40.854
41.164
41.403
41.571
41.671
41.706
41.683
41.609
41.491
41.338
41.158
40.96
40.75
40.535
40.323
40.117
39.923
39.741
39.575
39.423
39.284
39.158
39.042
38.935
38.835
38.742
38.652
38.566
38.48
38.395
38.307
38.216
38.122
38.025
37.925
37.822
37.717
37.611
37.505
37.401
37.299
37.2
37.104
37.013
36.924
36.837
36.753
36.671
36.592
36.517
36.448
36.382
36.321
36.265
36.213
36.165
36.119
36.077
36.039
36.004
35.971
35.942
35.917
35.894
35.874
35.856
35.838
35.819
35.799
35.775
35.747
35.714
35.678
35.64
35.601
35.562
35.524
35.487
35.449
35.412
35.374
35.337
35.301
35.266
35.231
35.196
35.161
35.124
35.085
35.044
35.0
34.953
34.905
34.854
34.802
34.749
34.694
34.638
34.581
34.524
34.466
34.409
34.353
34.296
34.239
34.182
34.124
34.065
34.005
33.943
33.881
33.819
33.759
33.701
33.645
33.592
33.541
33.494
33.449
33.407
33.369
33.333
33.298
33.264
33.231
33.198
33.166
33.135
33.103
33.071
33.038
33.006
32.974
32.942
32.911
32.879
32.846
32.814
32.781
32.748
32.716
32.683
32.65
32.617
32.584
32.554
32.525
32.498
32.473
32.449
32.428
32.408
32.392
32.378
32.37
32.368
32.375
32.393
32.423
32.469
32.532
32.611
32.708
32.824
32.958
33.112
33.284
33.475
33.687
33.924
34.192
34.496
34.839
35.222
35.643
36.097
36.573
37.062
37.551
38.028
38.481
38.896
39.265
39.581
39.838
40.034
40.168
40.243
40.263
40.233
40.162
40.055
39.922
39.769
39.603
39.43
39.254
39.081
38.914
38.756
38.609
38.472
38.346
38.23
38.123
38.023
37.931
37.843
37.759
37.677
37.596
37.513
37.429
37.342
37.254
37.164
37.073
36.981
36.889
36.798
36.707
36.617
36.529
36.442
36.357
36.274
36.194
36.117
36.044
35.977
35.914
35.857
35.804
35.756
35.713
35.672
35.635
35.602
35.574
35.551
35.532
35.518
35.507
35.497
35.489
35.481
35.471
35.459
35.445
35.428
35.41
35.39
35.371
35.351
35.329
35.304
35.276
35.244
35.21
35.175
35.138
35.1
35.063
35.025
34.985
34.944
34.904
34.864
34.825
34.787
34.749
34.712
34.675
34.637
34.596
34.553
34.507
34.458
34.407
34.354
34.301
34.248
34.195
34.142
34.09
34.036
33.982
33.927
33.873
33.819
33.767
33.715
33.664
33.613
33.563
33.513
33.463
33.414
33.366
33.318
33.273
33.231
33.19
33.152
33.113
33.075
33.038
33.002
32.968
32.936
32.906
32.879
32.852
32.827
32.803
32.778
32.754
32.73
32.705
32.679
32.653
32.627
32.6
32.572
32.542
32.512
32.481
32.449
32.416
32.382
32.348
32.316
32.286
32.26
32.238
32.222
32.21
32.203
32.202
32.209
32.226
32.252
32.289
32.338
32.402
32.482
32.579
32.694
32.827
32.977
33.145
33.33
33.531
33.748
33.982
34.232
34.497
34.781
35.085
35.41
35.757
36.12
36.495
36.874
37.247
37.607
37.945
38.252
38.523
38.751
38.934
39.068
39.154
39.194
39.192
39.152
39.078
38.978
38.857
38.721
38.574
38.423
38.27
38.12
37.974
37.835
37.703
37.58
37.465
37.359
37.26
37.167
37.079
36.995
36.914
36.837
36.761
36.686
36.611
36.536
36.461
36.386
36.312
36.238
36.166
36.095
36.024
35.953
35.883
35.814
35.746
35.68
35.615
35.555
35.5
35.45
35.407
35.37
35.339
35.313
35.29
35.272
35.257
35.245
35.238
35.233
35.23
35.229
35.229
35.23
35.23
35.228
35.225
35.219
35.211
35.2
35.187
35.173
35.157
35.138
35.116
35.092
35.064
35.035
35.004
34.972
34.941
34.91
34.88
34.849
34.816
34.781
34.745
34.706
34.665
34.623
34.581
34.545
34.524
34.518
34.524
34.536
34.55
34.559
34.561
34.551
34.53
34.494
34.444
34.38
34.304
34.218
34.122
34.022
33.918
33.816
33.717
33.623
33.537
33.46
33.391
33.332
33.28
33.237
33.201
33.173
33.149
33.13
33.112
33.094
33.076
33.058
33.038
33.017
32.995
32.973
32.95
32.926
32.901
32.875
32.847
32.817
32.786
32.754
32.722
32.691
32.66
32.63
32.602
32.576
32.554
32.539
32.532
32.537
32.553
32.585
32.632
32.696
32.776
32.873
32.989
33.123
33.276
33.445
33.631
33.831
34.044
34.268
34.503
34.749
35.008
35.278
35.563
35.863
36.176
36.5
36.829
37.158
37.478
37.782
38.063
38.314
38.528
38.702
38.833
38.921
38.965
38.968
38.934
38.867
38.772
38.654
38.517
38.368
38.211
38.051
37.893
37.741
37.597
37.462
37.336
37.219
37.111
37.013
36.923
36.84
36.763
36.689
36.616
36.544
36.471
36.397
36.32
36.241
36.158
36.072
35.982
35.892
35.802
35.714
35.628
35.545
35.468
35.396
35.33
35.271
35.22
35.177
35.142
35.114
35.091
35.072
35.058
35.046
35.038
35.032
35.027
35.024
35.023
35.022
35.022
35.023
35.025
35.027
35.029
35.028
35.025
35.02
35.012
35.002
34.99
34.977
34.962
34.945
34.927
34.905
34.881
34.855
34.825
34.791
34.755
34.718
34.681
34.644
34.608
34.572
34.535
34.498
34.461
34.423
34.386
34.349
34.313
34.276
34.238
34.198
34.156
34.112
34.066
34.018
33.97
33.921
33.872
33.825
33.778
33.732
33.687
33.643
33.598
33.553
33.509
33.466
33.424
33.383
33.342
33.301
33.26
33.22
33.18
33.14
33.101
33.064
33.029
32.995
32.962
32.93
32.899
32.869
32.84
32.811
32.784
32.759
32.735
32.712
32.688
32.664
32.639
32.614
32.592
32.573
32.559
32.553
32.555
32.569
32.596
32.639
32.699
32.778
32.876
32.995
33.134
33.291
33.465
33.655
33.859
34.076
34.305
34.545
34.798
35.064
35.342
35.634
35.939
36.255
36.58
36.909
37.235
37.552
37.853
38.131
38.38
38.594
38.77
38.904
38.995
39.045
39.055
39.025
38.96
38.865
38.746
38.61
38.462
38.308
38.154
38.003
37.858
37.721
37.595
37.479
37.374
37.28
37.195
37.118
37.047
36.979
36.913
36.847
36.78
36.712
36.643
36.571
36.497
36.421
36.343
36.263
36.182
36.101
36.019
35.938
35.857
35.778
35.702
35.63
35.564
35.504
35.449
35.401
35.36
35.324
35.293
35.268
35.247
35.229
35.215
35.203
35.194
35.186
35.182
35.179
35.178
35.176
35.176
35.175
35.174
35.172
35.17
35.166
35.161
35.153
35.144
35.131
35.116
35.098
35.077
35.051
35.021
34.987
34.947
34.902
34.852
34.799
34.744
34.689
34.634
34.58
34.528
34.476
34.427
34.381
34.336
34.293
34.252
34.212
34.172
34.132
34.092
34.051
34.01
33.968
33.927
33.888
33.85
33.813
33.776
33.739
33.702
33.663
33.624
33.584
33.544
33.502
33.459
33.415
33.37
33.325
33.281
33.237
33.195
33.154
33.115
33.079
33.045
33.013
32.983
32.952
32.921
32.891
32.86
32.83
32.801
32.772
32.743
32.714
32.686
32.658
32.633
32.609
32.589
32.572
32.561
32.556
32.557
32.565
32.582
32.609
32.65
32.705
32.778
32.872
32.986
33.121
33.276
33.449
33.639
33.847
34.073
34.317
34.582
34.87
35.182
35.52
35.882
36.265
36.664
37.069
37.472
37.862
38.229
38.563
38.859
39.11
39.313
39.467
39.571
39.628
39.639
39.608
39.54
39.441
39.318
39.175
39.019
38.856
38.692
38.529
38.373
38.225
38.089
37.964
37.85
37.746
37.65
37.56
37.477
37.398
37.321
37.247
37.175
37.103
37.031
36.957
36.881
36.802
36.719
36.635
36.548
36.462
36.376
36.293
36.211
36.131
36.052
35.978
35.907
35.839
35.776
35.716
35.662
35.613
35.57
35.531
35.497
35.466
35.439
35.415
35.393
35.375
35.36
35.348
35.339
35.332
35.327
35.324
35.322
35.321
35.317
35.31
35.301
35.288
35.272
35.253
35.231
35.206
35.178
35.146
35.113
35.078
35.042
35.005
34.966
34.926
34.886
34.845
34.805
34.765
34.726
34.687
34.649
34.612
34.576
34.541
34.507
34.473
34.438
34.402
34.365
34.327
34.288
34.248
34.204
34.159
34.111
34.053
33.981
33.897
33.806
33.711
33.62
33.536
33.462
33.401
33.354
33.319
33.296
33.283
33.279
33.283
33.292
33.304
33.316
33.325
33.331
33.331
33.325
33.314
33.299
33.281
33.26
33.236
33.21
33.182
33.151
33.118
33.084
33.048
33.011
32.975
32.94
32.906
32.874
32.846
32.823
32.805
32.797
32.802
32.822
32.861
32.921
33.002
33.104
33.227
33.369
33.529
33.706
33.898
34.104
34.322
34.551
34.789
35.036
35.289
35.547
35.811
36.081
36.357
36.64
36.925
37.211
37.491
37.763
38.018
38.253
38.461
38.639
38.783
38.891
38.961
38.993
38.992
38.962
38.906
38.83
38.738
38.635
38.524
38.407
38.288
38.167
38.047
37.929
37.815
37.705
37.6
37.501
37.409
37.322
37.242
37.168
37.097
37.029
36.961
36.892
36.82
36.748
36.675
36.601
36.528
36.454
36.381
36.308
36.235
36.161
36.088
36.016
35.946
35.879
35.816
35.758
35.707
35.662
35.624
35.591
35.562
35.537
35.514
35.494
35.477
35.461
35.447
35.433
35.421
35.409
35.399
35.39
35.383
35.375
35.366
35.356
35.344
35.331
35.316
35.299
35.282
35.264
35.246
35.228
35.209
35.19
35.17
35.148
35.125
35.099
35.072
35.041
35.007
34.969
34.928
34.885
34.84
34.792
34.742
34.69
34.638
34.584
34.531
34.477
34.424
34.372
34.32
34.268
34.217
34.168
34.121
34.076
34.033
33.992
33.953
33.917
33.881
33.847
33.811
33.776
33.738
33.699
33.659
33.618
33.577
33.536
33.496
33.457
33.421
33.387
33.356
33.325
33.296
33.268
33.241
33.215
33.189
33.163
33.136
33.108
33.079
33.049
33.017
32.984
32.951
32.916
32.883
32.852
32.827
32.809
32.797
32.793
32.797
32.813
32.84
32.882
32.94
33.014
33.105
33.213
33.337
33.477
33.633
33.803
33.987
34.183
34.388
34.602
34.822
35.049
35.281
35.519
35.763
36.016
36.278
36.549
36.826
37.105
37.381
37.648
37.899
38.128
38.331
38.503
38.639
38.739
38.802
38.829
38.824
38.789
38.728
38.645
38.546
38.433
38.311
38.182
38.052
37.924
37.8
37.681
37.57
37.468
37.373
37.286
37.206
37.13
37.058
36.987
36.918
36.848
36.778
36.708
36.638
36.567
36.496
36.425
36.353
36.281
36.208
36.134
36.06
35.989
35.921
35.857
35.798
35.742
35.691
35.644
35.599
35.558
35.521
35.488
35.46
35.438
35.421
35.409
35.401
35.397
35.394
35.39
35.386
35.382
35.376
35.369
35.361
35.353
35.344
35.334
35.323
35.309
35.292
35.274
35.253
35.231
35.207
35.182
35.155
35.126
35.094
35.061
35.025
34.988
34.948
34.907
34.866
34.824
34.783
34.743
34.703
34.664
34.625
34.586
34.546
34.506
34.467
34.428
34.388
34.348
34.307
34.267
34.229
34.193
34.159
34.125
34.088
34.05
34.009
33.965
33.919
33.872
33.822
33.772
33.721
33.67
33.622
33.574
33.529
33.487
33.447
33.412
33.38
33.351
33.324
33.298
33.273
33.25
33.229
33.208
33.188
33.167
33.145
33.123
33.099
33.076
33.054
33.033
33.013
32.997
32.988
32.988
33.001
33.028
33.07
33.13
33.208
33.306
33.424
33.561
33.715
33.887
34.073
34.272
34.483
34.706
34.938
35.177
35.423
35.674
35.932
36.196
36.464
36.736
37.007
37.276
37.536
37.783
38.011
38.216
38.394
38.54
38.653
38.732
38.779
38.794
38.78
38.739
38.675
38.593
38.495
38.386
38.269
38.148
38.024
37.9
37.778
37.658
37.541
37.43
37.324
37.224
37.129
37.04
36.956
36.877
36.801
36.727
36.654
36.58
36.505
36.429
36.352
36.274
36.196
36.119
36.041
35.964
35.889
35.816
35.745
35.676
35.609
35.547
35.488
35.436
35.39
35.352
35.322
35.299
35.281
35.269
35.259
35.253
35.25
35.25
35.251
35.253
35.255
35.259
35.262
35.266
35.268
35.269
35.267
35.262
35.254
35.243
35.231
35.224
35.226
35.234
35.247
35.259
35.267
35.266
35.255
35.233
35.199
35.155
35.1
35.037
34.967
34.894
34.818
34.74
34.662
34.585
34.511
34.442
34.378
34.319
34.264
34.212
34.161
34.111
34.062
34.013
33.966
33.921
33.877
33.835
33.794
33.755
33.715
33.675
33.634
33.594
33.556
33.52
33.486
33.456
33.427
33.398
33.369
33.34
33.31
33.281
33.252
33.222
33.191
33.158
33.125
33.09
33.054
33.016
32.979
32.944
32.911
32.883
32.859
32.841
32.83
32.825
32.828
32.841
32.865
32.903
32.956
33.024
33.108
33.209
33.326
33.462
33.616
33.788
33.978
34.186
34.413
34.661
34.934
35.235
35.566
35.927
36.315
36.726
37.152
37.582
38.007
38.414
38.793
39.137
39.437
39.688
39.884
40.025
40.111
40.144
40.127
40.068
39.971
39.843
39.69
39.519
39.335
39.146
38.958
38.774
38.599
38.434
38.282
38.142
38.016
37.904
37.804
37.716
37.638
37.566
37.498
37.432
37.364
37.295
37.223
37.147
37.066
36.98
36.892
36.802
36.71
36.619
36.529
36.439
36.352
36.265
36.181
36.1
36.021
35.947
35.876
35.81
35.749
35.693
35.643
35.599
35.559
35.524
35.493
35.467
35.445
35.428
35.415
35.407
35.402
35.398
35.394
35.39
35.384
35.376
35.366
35.357
35.347
35.338
35.33
35.321
35.313
35.305
35.294
35.281
35.264
35.242
35.217
35.186
35.152
35.115
35.076
35.035
34.991
34.946
34.899
34.851
34.803
34.755
34.708
34.66
34.613
34.566
34.517
34.467
34.417
34.366
34.314
34.263
34.213
34.165
34.118
34.074
34.03
33.986
33.943
33.899
33.855
33.811
33.768
33.726
33.684
33.641
33.597
33.552
33.508
33.466
33.425
33.387
33.35
33.315
33.281
33.248
33.214
33.179
33.143
33.107
33.07
33.033
32.999
32.966
32.934
32.903
32.873
32.843
32.813
32.784
32.758
32.735
32.717
32.706
32.703
32.71
32.728
32.762
32.812
32.883
32.974
33.087
33.223
33.381
33.559
33.757
33.974
34.21
34.466
34.743
35.046
35.376
35.734
36.117
36.522
36.942
37.368
37.79
38.199
38.582
38.93
39.236
39.492
39.696
39.845
39.941
39.985
39.982
39.935
39.851
39.736
39.598
39.443
39.278
39.109
38.94
38.775
38.616
38.466
38.326
38.195
38.076
37.965
37.863
37.767
37.677
37.591
37.509
37.429
37.35
37.27
37.191
37.111
37.029
36.943
36.856
36.767
36.677
36.588
36.499
36.414
36.332
36.253
36.177
36.106
36.039
35.979
35.924
35.873
35.827
35.785
35.747
35.713
35.684
35.656
35.631
35.607
35.584
35.561
35.539
35.518
35.499
35.479
35.459
35.438
35.416
35.394
35.371
35.347
35.321
35.295
35.266
35.238
35.209
35.182
35.155
35.129
35.103
35.076
35.05
35.024
34.997
34.97
34.943
34.918
34.893
34.868
34.842
34.813
34.783
34.748
34.71
34.668
34.623
34.575
34.524
34.47
34.414
34.357
34.298
34.238
34.178
34.116
34.054
33.993
33.932
33.872
33.812
33.753
33.696
33.64
33.586
33.533
33.483
33.436
33.393
33.353
33.316
33.281
33.248
33.216
33.185
33.154
33.124
33.094
33.064
33.034
33.002
32.968
32.933
32.898
32.861
32.825
32.79
32.757
32.726
32.696
32.668
32.641
32.617
32.597
32.581
32.572
32.572
32.583
32.607
32.645
32.699
32.771
32.862
32.974
33.109
33.27
33.454
33.661
33.887
34.132
34.394
34.674
34.973
35.291
35.631
35.992
36.372
36.764
37.163
37.56
37.944
38.308
38.639
38.929
39.173
39.364
39.502
39.587
39.622
39.612
39.561
39.476
39.362
39.225
39.072
38.907
38.737
38.565
38.394
38.227
38.068
37.918
37.778
37.649
37.531
37.423
37.323
37.232
37.146
37.065
36.987
36.911
36.834
36.757
36.678
36.599
36.519
36.44
36.362
36.283
36.204
36.125
36.047
35.97
35.895
35.822
35.752
35.685
35.621
35.56
35.503
35.451
35.401
35.354
35.31
35.269
35.232
35.201
35.174
35.153
35.136
35.123
35.114
35.108
35.104
35.103
35.101
35.098
35.094
35.087
35.078
35.066
35.051
35.032
35.009
34.985
34.958
34.93
34.901
34.871
34.841
34.809
34.777
34.745
34.712
34.679
34.645
34.61
34.575
34.539
34.503
34.466
34.428
34.389
34.35
34.311
34.271
34.231
34.189
34.146
34.102
34.057
34.012
33.967
33.923
33.877
33.831
33.784
33.736
33.689
33.64
33.592
33.544
33.495
33.448
33.4
33.354
33.308
33.264
33.218
33.17
33.121
33.071
33.022
32.973
32.926
32.881
32.84
32.803
32.771
32.742
32.716
32.693
32.672
32.653
32.634
32.617
32.6
32.583
32.566
32.549
32.533
32.519
32.507
32.498
32.495
32.499
32.514
32.54
32.58
32.633
32.703
32.791
32.897
33.024
33.171
33.339
33.528
33.735
33.959
34.202
34.462
34.741
35.039
35.357
35.693
36.048
36.416
36.793
37.17
37.54
37.892
38.217
38.508
38.756
38.959
39.112
39.217
39.274
39.286
39.258
39.195
39.103
38.986
38.85
38.701
38.544
38.383
38.222
38.064
37.911
37.765
37.626
37.494
37.372
37.259
37.155
37.057
36.965
36.877
36.792
36.711
36.633
36.556
36.482
36.409
36.337
36.265
36.192
36.12
36.047
35.974
35.9
35.827
35.754
35.683
35.615
35.551
35.491
35.435
35.383
35.335
35.291
35.251
35.215
35.185
35.16
35.142
35.128
35.118
35.113
35.109
35.106
35.103
35.1
35.097
35.094
35.091
35.089
35.088
35.087
35.085
35.081
35.074
35.065
35.053
35.038
35.021
35.0
34.975
34.947
34.915
34.878
34.839
34.799
34.756
34.712
34.667
34.621
34.574
34.527
34.479
34.428
34.375
34.321
34.266
34.213
34.162
34.113
34.066
34.02
33.976
33.933
33.892
33.853
33.814
33.776
33.737
33.699
33.661
33.623
33.586
33.549
33.513
33.477
33.441
33.405
33.369
33.334
33.298
33.261
33.223
33.185
33.146
33.108
33.07
33.033
32.995
32.958
32.922
32.887
32.852
32.819
32.787
32.756
32.726
