Trial 1:0back
36.038
36.018
35.999
35.981
35.964
35.948
35.935
35.924
35.916
35.912
35.912
35.914
35.917
35.921
35.925
35.928
35.93
35.932
35.934
35.935
35.937
35.939
35.94
35.939
35.936
35.93
35.92
35.907
35.891
35.874
35.86
35.853
35.85
35.852
35.857
35.862
35.867
35.869
35.866
35.857
35.841
35.818
35.789
35.755
35.719
35.68
35.64
35.601
35.564
35.53
35.5
35.474
35.453
35.436
35.423
35.413
35.404
35.394
35.384
35.37
35.354
35.335
35.315
35.294
35.274
35.255
35.238
35.221
35.204
35.189
35.174
35.16
35.148
35.136
35.124
35.111
35.097
35.083
35.069
35.054
35.04
35.026
35.013
35.001
34.99
34.981
34.974
34.968
34.963
34.959
34.956
34.955
34.954
34.954
34.954
34.953
34.952
34.948
34.942
34.935
34.927
34.918
34.909
34.9
34.891
34.884
34.878
34.873
34.87
34.866
34.861
34.855
34.847
34.836
34.824
34.811
34.797
34.784
34.772
34.762
34.754
34.747
34.742
34.737
34.732
34.727
34.724
34.721
34.72
34.719
34.72
34.72
34.721
34.723
34.727
34.733
34.744
34.761
34.786
34.818
34.86
34.911
34.972
35.042
35.122
35.211
35.307
35.409
35.515
35.621
35.725
35.825
35.919
36.005
36.082
36.149
36.208
36.257
36.299
36.334
36.362
36.384
36.401
36.413
36.422
36.428
36.431
36.434
36.434
36.433
36.429
36.425
36.419
36.412
36.405
36.398
36.39
36.382
36.373
36.365
36.358
36.352
36.346
36.341
36.336
36.329
36.32
36.309
36.297
36.283
36.27
36.256
36.244
36.231
36.22
36.208
36.198
36.188
36.179
36.173
36.167
36.161
36.155
36.149
36.142
36.136
36.131
36.127
36.123
36.119
36.116
36.113
36.113
36.114
36.119
36.126
36.136
36.149
36.164
36.18
36.197
36.213
36.227
36.239
36.249
36.257
36.263
36.267
36.268
36.265
36.258
36.246
36.231
36.214
36.194
36.174
36.154
36.135
36.116
36.097
36.079
36.061
36.041
36.019
35.996
35.971
35.945
35.918
35.89
35.862
35.835
35.808
35.783
35.76
35.737
35.714
35.693
35.673
35.654
35.636
35.62
35.604
35.589
35.575
35.562
35.55
35.539
35.528
35.519
35.511
35.503
35.496
35.489
35.48
35.471
35.46
35.448
35.433
35.418
35.401
35.385
35.368
35.352
35.336
35.321
35.308
35.296
35.285
35.276
35.268
35.261
35.253
35.246
35.237
35.227
35.218
35.208
35.199
35.189
35.179
35.168
35.155
35.142
35.129
35.118
35.108
35.1
35.093
35.086
35.079
35.07
35.058
35.044
35.028
35.011
34.993
34.974
34.957
34.94
34.924
34.907
34.888
34.868
34.847
34.824
34.802
34.781
34.761
34.742
34.726
34.714
34.705
34.701
34.701
34.704
34.709
34.713
34.717
34.721
34.724
34.729
34.734
34.741
34.749
34.759
34.771
34.786
34.807
34.835
34.87
34.915
34.969
35.035
35.111
35.197
35.291
35.391
35.496
35.604
35.713
35.82
35.925
36.026
36.123
36.215
36.303
36.386
36.464
36.536
36.602
36.663
36.719
36.768
36.812
36.849
36.881
36.906
36.926
36.94
36.951
36.957
36.96
36.961
36.96
36.958
36.956
36.953
36.95
36.947
36.943
36.937
36.93
36.921
36.911
36.901
36.891
36.882
36.876
36.873
36.872
36.872
36.874
36.875
36.875
36.873
36.868
36.861
36.85
36.836
36.82
36.803
36.784
36.764
36.743
36.721
36.698
36.673
36.647
36.62
36.593
36.567
36.544
36.523
36.505
36.49
36.477
36.467
36.458
36.451
36.447
36.444
36.442
36.442
36.444
36.448
36.454
36.463
36.471
36.479
36.484
36.488
36.489
36.488
36.483
36.476
36.467
36.455
36.44
36.423
36.404
36.384
36.362
36.338
36.311
36.283
36.253
36.222
36.192
36.162
36.133
36.107
36.083
36.06
36.038
36.017
35.997
35.978
35.961
35.946
35.934
35.925
35.918
35.913
35.908
35.902
35.894
35.883
35.869
35.854
35.836
35.816
35.794
35.769
35.742
35.715
35.686
35.657
35.629
35.601
35.576
35.552
35.529
35.508
35.489
35.47
35.451
35.432
35.413
35.394
35.375
35.356
35.337
35.319
35.302
35.285
35.269
35.253
35.236
35.218
35.2
35.181
35.163
35.145
35.129
35.114
35.101
35.088
35.076
35.064
35.051
35.038
35.026
35.013
35.0
34.986
34.972
34.958
34.945
34.931
34.919
34.908
34.897
34.886
34.875
34.863
34.85
34.837
34.824
34.811
34.799
34.787
34.777
34.768
34.76
34.752
34.744
34.734
34.723
34.712
34.7
34.687
34.675
34.663
34.652
34.64
34.63
34.623
34.619
34.618
34.621
34.629
34.643
34.665
34.697
34.739
34.792
34.856
34.929
35.012
35.103
35.202
35.308
35.419
35.533
35.648
35.761
35.872
35.978
36.077
36.168
36.251
36.324
36.385
36.437
36.48
36.516
36.544
36.566
36.583
36.594
36.601
36.606
36.608
36.61
36.612
36.615
36.619
36.625
36.631
36.639
36.646
36.654
36.663
36.672
36.681
36.691
36.702
36.712
36.722
36.732
36.739
36.745
36.747
36.747
36.744
36.738
36.729
36.717
36.704
36.689
36.673
36.654
36.634
36.611
36.588
36.565
36.542
36.519
36.498
36.477
36.458
36.44
36.423
36.408
36.394
36.38
36.367
36.353
36.339
36.325
36.31
36.295
36.281
36.268
36.256
36.245
36.235
36.226
36.219
36.212
36.206
36.201
36.196
36.19
36.184
36.176
36.166
36.154
36.139
36.124
36.106
36.089
36.07
36.052
36.035
36.018
36.003
35.988
35.974
35.959
35.945
35.931
35.916
35.901
35.884
35.867
35.848
35.83
35.812
35.793
35.775
35.756
35.736
35.715
35.693
35.67
35.647
35.623
35.599
35.576
35.552
35.529
35.505
35.482
35.459
35.438
35.418
35.398
35.38
35.362
35.345
35.33
35.316
35.303
35.291
35.28
35.269
35.258
35.247
35.237
35.229
35.221
35.214
35.207
35.199
35.191
35.182
35.171
35.157
35.141
35.124
35.105
35.086
35.067
35.049
35.032
35.016
35.002
34.989
34.978
34.969
34.962
34.956
34.951
34.945
34.936
34.924
34.908
34.89
34.869
34.848
34.826
34.805
34.786
34.77
34.758
34.747
34.739
34.73
34.723
34.717
34.712
34.707
34.703
34.699
34.695
34.69
34.684
34.676
34.667
34.657
34.646
34.635
34.623
34.613
34.602
34.59
34.578
34.565
34.552
34.54
34.53
34.521
34.513
34.507
34.503
34.501
34.5
34.501
34.504
34.51
34.518
34.53
34.546
34.566
34.593
34.626
34.666
34.714
34.77
34.833
34.904
34.983
35.067
35.156
35.25
35.347
35.446
35.548
35.65
35.749
35.843
35.931
36.012
36.083
36.146
36.2
36.247
36.287
36.321
36.349
36.371
36.386
36.396
36.399
36.398
36.393
36.385
36.376
36.366
36.355
36.345
36.335
36.326
36.319
36.313
36.308
36.306
36.305
36.306
36.309
36.314
36.32
36.325
36.329
36.329
36.326
36.32
36.311
36.299
36.284
36.266
36.245
36.221
36.196
36.17
36.144
36.117
36.09
36.063
36.036
36.01
35.985
35.961
35.94
35.921
35.905
35.892
35.882
35.875
35.872
35.873
35.876
35.88
35.886
35.891
35.896
35.899
35.898
35.894
35.885
35.874
35.861
35.847
35.833
35.82
35.808
35.799
35.79
35.782
35.775
35.768
35.761
35.756
35.752
35.748
35.745
35.743
35.739
35.734
35.726
35.717
35.705
35.691
35.675
35.657
35.637
35.617
35.597
35.577
35.559
35.541
35.524
35.508
35.492
35.475
35.459
35.441
35.424
35.406
35.387
35.369
35.35
35.331
35.313
35.295
35.278
35.26
35.243
35.227
35.213
35.199
35.187
35.175
35.163
35.15
35.136
35.121
35.108
35.096
35.087
35.081
35.077
35.074
35.072
35.07
35.068
35.067
35.064
35.059
35.052
35.041
35.026
35.008
34.987
34.966
34.944
34.921
34.899
34.879
34.861
34.845
34.832
34.821
34.812
34.803
34.795
34.787
34.78
34.775
34.771
34.768
34.766
34.764
34.761
34.759
34.756
34.753
34.748
34.74
34.729
34.714
34.697
34.677
34.657
34.636
34.615
34.597
34.579
34.563
34.549
34.535
34.522
34.509
34.498
34.486
34.476
34.465
34.456
34.446
34.438
34.432
34.429
34.432
34.441
34.458
34.486
34.524
34.574
34.635
34.706
34.787
34.878
34.977
35.082
35.191
35.302
35.413
35.523
35.631
35.735
35.835
35.929
36.017
36.096
36.166
36.228
36.279
36.322
36.357
36.384
36.405
36.421
36.432
36.439
36.444
36.446
36.446
36.446
36.444
36.442
36.44
36.438
36.438
36.441
36.446
36.453
36.462
36.47
36.479
36.486
36.492
36.494
36.495
36.493
36.49
36.486
36.48
36.474
36.467
36.458
36.448
36.435
36.42
36.403
36.384
36.366
36.347
36.33
36.312
36.295
36.275
36.255
36.234
36.212
36.192
36.172
36.154
36.137
36.122
36.109
36.098
36.093
36.099
36.116
36.143
36.176
36.21
36.243
36.272
36.293
36.305
36.307
36.298
36.28
36.254
36.221
36.183
36.143
36.1
36.058
36.017
35.978
35.943
35.911
35.882
35.856
35.831
35.807
35.785
35.764
35.743
35.724
35.704
35.684
35.663
35.642
35.62
35.597
35.575
35.553
35.53
35.507
35.482
35.454
35.427
35.4
35.375
35.352
35.332
35.313
35.297
35.282
35.267
35.252
35.238
35.225
35.212
35.201
35.191
35.183
35.176
35.17
35.165
35.161
35.155
35.149
35.14
35.13
35.117
35.103
35.086
35.067
35.047
35.027
35.007
34.986
34.966
34.946
34.927
34.909
34.891
34.876
34.862
34.851
34.841
34.832
34.824
34.816
34.808
34.798
34.788
34.776
34.763
34.749
34.735
34.722
34.708
34.695
34.681
34.667
34.655
34.643
34.633
34.623
34.614
34.603
34.59
34.576
34.561
34.545
34.529
34.513
34.498
34.483
34.468
34.453
34.44
34.427
34.416
34.406
34.397
34.389
34.382
34.376
34.371
34.367
34.362
34.355
34.346
34.333
34.319
34.305
34.293
34.282
34.274
34.268
34.264
34.263
34.265
34.272
34.287
34.311
34.346
34.393
34.453
34.526
34.612
34.708
34.812
34.923
35.038
35.155
35.273
35.39
35.505
35.616
35.723
35.823
35.915
36.001
36.078
36.145
36.204
36.254
36.294
36.328
36.356
36.379
36.397
36.413
36.427
36.439
36.451
36.463
36.474
36.485
36.496
36.507
36.517
36.525
36.532
36.538
36.542
36.546
36.549
36.551
36.553
36.555
36.556
36.558
36.559
36.559
36.56
36.561
36.562
36.563
36.563
36.562
36.559
36.554
36.545
36.532
36.517
36.501
36.483
36.466
36.448
36.43
36.412
36.393
36.375
36.357
36.34
36.323
36.306
36.29
36.273
36.256
36.239
36.223
36.207
36.192
36.179
36.166
36.155
36.144
36.134
36.124
36.113
36.103
36.092
36.082
36.072
36.063
36.053
36.044
36.035
36.026
36.015
36.003
35.989
35.973
35.954
35.934
35.913
35.89
35.865
35.838
35.811
35.782
35.753
35.724
35.695
35.666
35.639
35.613
35.589
35.566
35.546
35.528
35.512
35.497
35.482
35.466
35.449
35.433
35.417
35.402
35.388
35.376
35.365
35.355
35.346
35.337
35.329
35.32
35.311
35.302
35.293
35.284
35.273
35.262
35.25
35.239
35.227
35.215
35.202
35.189
35.175
35.16
35.144
35.127
35.111
35.096
35.082
35.067
35.053
35.038
35.023
35.007
34.99
34.972
34.954
34.936
34.919
34.903
34.888
34.872
34.855
34.837
34.817
34.797
34.776
34.756
34.737
34.719
34.703
34.687
34.673
34.661
34.651
34.644
34.639
34.635
34.631
34.627
34.622
34.615
34.608
34.598
34.587
34.573
34.559
34.544
34.528
34.512
34.495
34.478
34.462
34.445
34.429
34.413
34.397
34.38
34.361
34.342
34.323
34.305
34.291
34.279
34.271
34.265
34.262
34.26
34.258
34.259
34.261
34.266
34.274
34.284
34.3
34.321
34.35
34.389
34.437
34.495
34.563
34.64
34.728
34.824
34.93
35.041
35.158
35.276
35.393
35.509
35.622
35.731
35.836
35.933
36.023
36.104
36.176
36.239
36.292
36.337
36.375
36.405
36.429
36.447
36.46
36.468
36.473
36.474
36.474
36.471
36.467
36.462
36.458
36.455
36.453
36.453
36.455
36.458
36.463
36.469
36.475
36.481
36.487
36.491
36.493
36.492
36.49
36.484
36.478
36.469
36.459
36.449
36.437
36.424
36.411
36.398
36.385
36.371
36.357
36.342
36.325
36.308
36.291
36.273
36.254
36.236
36.217
36.197
36.178
36.159
36.14
36.122
36.106
36.092
36.081
36.071
36.063
36.057
36.052
36.048
36.044
36.04
36.037
36.032
36.027
36.021
36.014
36.007
36.0
35.993
35.985
35.975
35.963
35.951
35.938
35.926
35.914
35.903
35.893
35.882
35.872
35.861
35.848
35.834
35.817
35.797
35.775
35.751
35.728
35.704
35.68
35.656
35.632
35.607
35.581
35.556
35.532
35.509
35.487
35.465
35.444
35.423
35.401
35.38
35.359
35.34
35.323
35.308
35.295
35.285
35.276
35.268
35.259
35.248
35.235
35.22
35.204
35.189
35.176
35.164
35.154
35.144
35.136
35.127
35.118
35.108
35.099
35.088
35.077
35.065
35.051
35.037
35.023
35.008
34.993
34.977
34.961
34.942
34.92
34.896
34.871
34.846
34.821
34.799
34.778
34.761
34.745
34.733
34.722
34.714
34.708
34.703
34.7
34.696
34.692
34.687
34.681
34.672
34.663
34.653
34.643
34.632
34.622
34.611
34.599
34.587
34.575
34.563
34.554
34.546
34.539
34.535
34.531
34.528
34.525
34.52
34.513
34.503
34.49
34.473
34.455
34.435
34.414
34.393
34.371
34.35
34.33
34.31
34.291
34.275
34.261
34.25
34.242
34.238
34.24
34.246
34.259
34.279
34.306
34.344
34.393
34.453
34.525
34.608
34.701
34.803
34.912
35.026
35.144
35.264
35.385
35.505
35.62
35.728
35.828
35.918
36.0
36.073
36.138
36.196
36.248
36.294
36.335
36.372
36.405
36.433
36.457
36.477
36.495
36.51
36.524
36.535
36.545
36.553
36.559
36.563
36.565
36.566
36.566
36.565
36.562
36.559
36.554
36.549
36.544
36.537
36.53
36.521
36.513
36.503
36.494
36.486
36.478
36.47
36.462
36.453
36.443
36.429
36.41
36.387
36.359
36.33
36.299
36.267
36.236
36.205
36.177
36.151
36.129
36.111
36.097
36.088
36.084
36.085
36.088
36.094
36.102
36.11
36.119
36.128
36.135
36.14
36.143
36.144
36.142
36.139
36.133
36.127
36.12
36.111
36.102
36.092
36.081
36.069
36.056
36.042
36.027
36.011
35.992
35.973
35.953
35.934
35.914
35.893
35.872
35.851
35.828
35.806
35.783
35.761
35.738
35.715
35.692
35.669
35.645
35.622
35.598
35.572
35.546
35.518
35.49
35.463
35.437
35.412
35.388
35.366
35.345
35.327
35.312
35.298
35.286
35.275
35.264
35.252
35.239
35.226
35.212
35.198
35.183
35.168
35.153
35.138
35.122
35.108
35.094
35.081
35.069
35.057
35.044
35.03
35.015
34.999
34.984
34.97
34.956
34.944
34.932
34.921
34.909
34.897
34.885
34.873
34.862
34.852
34.843
34.835
34.828
34.82
34.812
34.804
34.796
34.788
34.779
34.77
34.761
34.75
34.738
34.725
34.71
34.694
34.678
34.661
34.645
34.629
34.615
34.602
34.59
34.579
34.567
34.554
34.54
34.526
34.51
34.494
34.478
34.464
34.452
34.443
34.44
34.443
34.453
34.473
34.502
34.541
34.591
34.651
34.722
34.801
34.889
34.984
35.087
35.197
35.311
35.43
35.55
35.67
35.787
35.898
36.002
36.097
36.181
36.256
36.32
36.375
36.421
36.459
36.49
36.514
36.533
36.548
36.558
36.564
36.566
36.565
36.561
36.555
36.547
36.538
36.53
36.521
36.514
36.509
36.506
36.505
36.506
36.509
36.515
36.522
36.529
36.535
36.539
36.541
36.542
36.541
36.537
36.531
36.526
36.525
36.526
36.529
36.531
36.531
36.527
36.516
36.497
36.471
36.438
36.398
36.354
36.305
36.254
36.202
36.152
36.105
36.064
36.027
35.997
35.972
35.953
35.94
35.933
35.934
35.94
35.95
35.963
35.978
35.993
36.008
36.021
36.032
36.041
36.048
36.052
36.053
36.051
36.045
36.036
36.023
36.006
35.985
35.961
35.933
35.902
35.869
35.834
35.799
35.763
35.728
35.695
35.664
35.636
35.61
35.586
35.564
35.545
35.528
35.512
35.498
35.483
35.468
35.451
35.433
35.414
35.393
35.371
35.349
35.326
35.304
35.282
35.26
35.239
35.22
35.201
35.185
35.172
35.16
35.152
35.146
35.143
35.14
35.137
35.133
35.129
35.124
35.117
35.11
35.103
35.093
35.082
35.069
35.052
35.032
35.012
34.991
34.969
34.947
34.925
34.905
34.885
34.866
34.849
34.832
34.817
34.804
34.792
34.782
34.772
34.761
34.749
34.735
34.717
34.695
34.67
34.64
34.608
34.573
34.536
34.5
34.465
34.433
34.404
34.381
34.362
34.348
34.339
34.333
34.33
34.328
34.327
34.326
34.325
34.326
34.328
34.33
34.334
34.338
34.342
34.346
34.351
34.36
34.374
34.394
34.424
34.464
34.516
34.582
34.662
34.755
34.858
34.969
35.087
35.209
35.333
35.456
35.576
35.691
35.799
35.899
35.99
36.071
36.143
36.206
36.261
36.309
36.35
36.384
36.412
36.434
36.449
36.459
36.465
36.466
36.464
36.459
36.452
36.446
36.439
36.435
36.433
36.433
36.435
36.439
36.443
36.447
36.451
36.455
36.458
36.461
36.462
36.461
36.457
36.45
36.439
36.425
36.408
36.389
36.367
36.344
36.319
36.292
36.265
36.237
36.208
36.18
36.154
36.131
36.113
36.101
36.094
36.092
36.094
36.098
36.103
36.107
36.11
36.111
36.111
36.108
36.103
36.095
36.085
36.071
36.055
36.039
36.023
36.008
35.995
35.983
35.971
35.959
35.949
35.939
35.928
35.91
35.883
35.85
35.813
35.773
35.735
35.699
35.667
35.64
35.617
35.599
35.586
35.577
35.571
35.568
35.565
35.562
35.557
35.549
35.539
35.527
35.512
35.493
35.472
35.448
35.423
35.397
35.37
35.343
35.317
35.291
35.267
35.243
35.221
35.2
35.179
35.159
35.139
35.117
35.095
35.072
35.049
35.026
35.005
34.986
34.969
34.955
34.943
34.933
34.925
34.919
34.915
34.912
34.91
34.908
34.907
34.904
34.9
34.893
34.883
34.87
34.856
34.84
34.824
34.806
34.788
34.77
34.752
34.735
34.718
34.701
34.685
34.67
34.655
34.642
34.63
34.619
34.608
34.597
34.586
34.574
34.562
34.549
34.536
34.524
34.513
34.503
34.494
34.485
34.476
34.466
34.455
34.443
34.43
34.418
34.408
34.398
34.39
34.383
34.379
34.38
34.387
34.404
34.431
34.47
34.522
34.587
34.664
34.753
34.853
34.962
35.078
35.198
35.321
35.444
35.565
35.682
35.793
35.898
35.993
36.078
36.153
36.217
36.272
36.318
36.356
36.388
36.412
36.432
36.446
36.457
36.466
36.472
36.477
36.481
36.483
36.484
36.485
36.486
36.486
36.485
36.483
36.48
36.475
36.469
36.462
36.453
36.444
36.434
36.423
36.412
36.4
36.386
36.372
36.357
36.34
36.32
36.299
36.275
36.249
36.221
36.193
36.165
36.137
36.109
36.081
36.053
36.026
36.0
35.976
35.954
35.935
35.919
35.906
35.895
35.886
35.879
35.876
35.875
35.878
35.883
35.89
35.898
35.906
35.911
35.914
35.913
35.908
35.9
35.89
35.876
35.861
35.845
35.828
35.81
35.791
35.77
35.749
35.727
35.706
35.686
35.666
35.649
35.634
35.621
35.61
35.601
35.593
35.586
35.578
35.57
35.558
35.544
35.526
35.505
35.481
35.455
35.427
35.398
35.367
35.334
35.3
35.266
35.233
35.202
35.172
35.145
35.12
35.098
35.077
35.059
35.044
35.032
35.021
35.011
35.001
34.993
34.986
34.981
34.976
34.97
34.963
34.953
34.942
34.928
34.914
34.899
34.884
34.869
34.853
34.836
34.818
34.8
34.782
34.765
34.75
34.737
34.724
34.712
34.7
34.688
34.676
34.666
34.657
34.648
34.64
34.632
34.624
34.618
34.612
34.608
34.606
34.605
34.606
34.607
34.607
34.607
34.605
34.6
34.593
34.582
34.567
34.549
34.528
34.504
34.478
34.45
34.421
34.392
34.363
34.334
34.307
34.282
34.259
34.238
34.219
34.202
34.187
34.173
34.161
34.149
34.139
34.131
34.127
34.129
34.138
34.155
34.181
34.218
34.266
34.324
34.395
34.48
34.582
34.698
34.829
34.97
35.118
35.269
35.42
35.568
35.711
35.847
35.974
36.09
36.196
36.29
36.373
36.446
36.51
36.565
36.611
36.648
36.677
36.699
36.715
36.727
36.734
36.739
36.742
36.743
36.743
36.743
36.743
36.743
36.744
36.745
36.747
36.749
36.752
36.754
36.754
36.753
36.749
36.744
36.737
36.73
36.724
36.718
36.713
36.707
36.7
36.692
36.683
36.672
36.659
36.646
36.633
36.618
36.601
36.582
36.562
36.539
36.516
36.49
36.465
36.439
36.414
36.391
36.369
36.348
36.328
36.309
36.292
36.276
36.263
36.254
36.249
36.248
36.25
36.254
36.259
36.264
36.269
36.273
36.276
36.278
36.278
36.276
36.273
36.267
36.258
36.246
36.233
36.218
36.202
36.184
36.164
36.144
36.122
