Trial 1:0back
33.383
33.374
33.372
33.38
33.4
33.436
33.49
33.563
33.656
33.768
33.9
34.05
34.215
34.394
34.584
34.783
34.989
35.202
35.42
35.641
35.862
36.081
36.295
36.502
36.701
36.89
37.071
37.242
37.405
37.559
37.705
37.845
37.978
38.104
38.223
38.337
38.444
38.543
38.631
38.707
38.766
38.809
38.835
38.842
38.833
38.807
38.765
38.71
38.642
38.562
38.473
38.377
38.274
38.166
38.056
37.946
37.836
37.73
37.626
37.527
37.432
37.343
37.257
37.175
37.095
37.018
36.943
36.87
36.801
36.735
36.673
36.615
36.562
36.514
36.469
36.429
36.393
36.361
36.333
36.309
36.288
36.27
36.256
36.243
36.232
36.223
36.216
36.21
36.204
36.198
36.193
36.187
36.183
36.178
36.174
36.17
36.165
36.157
36.147
36.134
36.119
36.102
36.083
36.062
36.039
36.014
35.986
35.955
35.922
35.886
35.849
35.809
35.766
35.722
35.676
35.629
35.582
35.534
35.484
35.434
35.384
35.333
35.283
35.232
35.18
35.128
35.076
35.025
34.973
34.922
34.87
34.819
34.767
34.716
34.664
34.612
34.559
34.506
34.452
34.399
34.347
34.296
34.246
34.197
34.151
34.106
34.064
34.024
33.985
33.949
33.913
33.878
33.845
33.813
33.782
33.752
33.722
33.692
33.663
33.635
33.608
33.581
33.555
33.53
33.504
33.48
33.456
33.434
33.412
33.391
33.37
33.348
33.327
33.306
33.286
33.268
33.251
33.24
33.237
33.246
33.269
33.309
33.365
33.438
33.53
33.639
33.768
33.916
34.081
34.262
34.456
34.659
34.87
35.083
35.297
35.507
35.712
35.91
36.1
36.281
36.451
36.612
36.762
36.899
37.024
37.135
37.231
37.315
37.386
37.447
37.498
37.542
37.579
37.611
37.639
37.662
37.68
37.693
37.701
37.703
37.7
37.69
37.677
37.659
37.638
37.614
37.588
37.56
37.53
37.496
37.457
37.412
37.362
37.306
37.245
37.182
37.116
37.049
36.981
36.913
36.843
36.772
36.7
36.628
36.557
36.488
36.42
36.355
36.296
36.243
36.198
36.159
36.127
36.099
36.073
36.049
36.024
36.001
35.979
35.959
35.944
35.933
35.926
35.923
35.922
35.923
35.926
35.93
35.936
35.943
35.951
35.96
35.969
35.976
35.98
35.979
35.973
35.958
35.936
35.907
35.874
35.836
35.797
35.756
35.713
35.668
35.622
35.574
35.525
35.475
35.425
35.377
35.332
35.289
35.25
35.214
35.18
35.148
35.116
35.083
35.049
35.013
34.975
34.936
34.897
34.858
34.819
34.779
34.738
34.695
34.649
34.601
34.551
34.501
34.448
34.394
34.339
34.283
34.227
34.172
34.12
34.072
34.026
33.983
33.942
33.904
33.868
33.833
33.801
33.77
33.74
33.712
33.686
33.661
33.637
33.614
33.59
33.566
33.541
33.517
33.494
33.471
33.447
33.425
33.404
33.385
33.369
33.358
33.354
33.358
33.373
33.402
33.446
33.509
33.59
33.69
33.808
33.942
34.092
34.257
34.434
34.623
34.819
35.022
35.228
35.436
35.643
35.846
36.045
36.236
36.419
36.59
36.751
36.899
37.037
37.162
37.277
37.381
37.475
37.561
37.639
37.709
37.773
37.831
37.883
37.929
37.971
38.007
38.038
38.063
38.08
38.09
38.092
38.087
38.073
38.05
38.018
37.975
37.924
37.864
37.795
37.721
37.641
37.558
37.473
37.385
37.293
37.2
37.105
37.009
36.913
36.816
36.719
36.625
36.534
36.448
36.367
36.292
36.224
36.162
36.107
36.057
36.014
35.976
35.945
35.92
35.901
35.887
35.878
35.873
35.87
35.869
35.868
35.867
35.866
35.865
35.863
35.861
35.859
35.858
35.855
35.852
35.847
35.839
35.828
35.813
35.795
35.775
35.755
35.734
35.713
35.692
35.669
35.645
35.618
35.588
35.555
35.52
35.483
35.443
35.403
35.361
35.319
35.276
35.231
35.184
35.135
35.083
35.03
34.976
34.921
34.867
34.813
34.761
34.709
34.656
34.602
34.547
34.491
34.434
34.378
34.324
34.272
34.222
34.174
34.129
34.085
34.044
34.003
33.963
33.924
33.887
33.851
33.817
33.782
33.747
33.712
33.676
33.642
33.608
33.577
33.549
33.523
33.499
33.476
33.453
33.43
33.407
33.382
33.355
33.328
33.302
33.28
33.262
33.251
33.249
33.257
33.279
33.316
33.37
33.444
33.538
33.653
33.786
33.938
34.105
34.288
34.484
34.691
34.908
35.134
35.367
35.607
35.853
36.104
36.362
36.627
36.899
37.177
37.462
37.75
38.039
38.323
38.596
38.853
39.088
39.295
39.466
39.597
39.686
39.735
39.746
39.722
39.668
39.589
39.492
39.379
39.256
39.124
38.988
38.852
38.718
38.587
38.462
38.342
38.229
38.121
38.018
37.919
37.825
37.734
37.647
37.56
37.474
37.387
37.3
37.212
37.123
37.033
36.942
36.851
36.761
36.672
36.585
36.503
36.426
36.353
36.286
36.226
36.173
36.126
36.087
36.053
36.024
36.002
35.984
35.97
35.959
35.95
35.942
35.936
35.929
35.923
35.916
35.909
35.9
35.889
35.874
35.856
35.837
35.816
35.794
35.771
35.745
35.718
35.69
35.661
35.633
35.606
35.58
35.555
35.53
35.507
35.495
35.494
35.501
35.512
35.525
35.536
35.54
35.534
35.517
35.486
35.44
35.379
35.305
35.22
35.126
35.027
34.926
34.825
34.727
34.631
34.542
34.46
34.384
34.317
34.257
34.205
34.161
34.124
34.092
34.064
34.038
34.013
33.987
33.959
33.927
33.893
33.855
33.815
33.773
33.73
33.688
33.646
33.604
33.563
33.521
33.48
33.439
33.399
33.359
33.32
33.282
33.245
33.209
33.176
33.144
33.115
33.088
33.067
33.052
33.044
33.047
33.059
33.083
33.12
33.173
33.243
33.33
33.436
33.561
33.706
33.87
34.05
34.245
34.455
34.677
34.907
35.137
35.363
35.587
35.816
36.056
36.313
36.591
36.893
37.215
37.554
37.9
38.247
38.585
38.904
39.196
39.454
39.673
39.848
39.978
40.062
40.102
40.099
40.058
39.984
39.881
39.754
39.609
39.45
39.284
39.114
38.946
38.781
38.625
38.478
38.343
38.218
38.103
37.999
37.902
37.812
37.727
37.646
37.568
37.491
37.416
37.34
37.263
37.186
37.107
37.027
36.946
36.864
36.783
36.704
36.627
36.554
36.485
36.421
36.363
36.31
36.262
36.219
36.18
36.145
36.114
36.088
36.065
36.047
36.031
36.019
36.01
36.003
36.0
35.998
35.998
35.996
35.995
35.992
35.988
35.983
35.977
35.97
35.961
35.949
35.933
35.913
35.89
35.863
35.832
35.796
35.755
35.71
35.661
35.609
35.555
35.498
35.441
35.384
35.327
35.27
35.214
35.159
35.105
35.053
35.003
34.955
34.909
34.863
34.818
34.773
34.727
34.68
34.632
34.583
34.531
34.477
34.42
34.363
34.305
34.248
34.192
34.138
34.086
34.034
33.985
33.939
33.896
33.854
33.814
33.774
33.735
33.697
33.66
33.624
33.589
33.553
33.517
33.48
33.444
33.409
33.375
33.342
33.309
33.275
33.24
33.206
33.172
33.137
33.101
33.066
33.033
33.002
32.975
32.952
32.935
32.924
32.922
32.931
32.955
32.995
33.054
33.132
33.23
33.348
33.488
33.649
33.83
34.031
34.249
34.483
34.732
34.997
35.276
35.571
35.883
36.212
36.558
36.917
37.287
37.661
38.032
38.391
38.731
39.043
39.322
39.563
39.761
39.914
40.021
40.081
40.096
40.071
40.008
39.913
39.792
39.65
39.494
39.329
39.162
38.998
38.841
38.694
38.559
38.435
38.323
38.22
38.126
38.038
37.955
37.876
37.801
37.726
37.653
37.58
37.505
37.43
37.351
37.27
37.186
37.099
37.011
36.922
36.834
36.748
36.667
36.591
36.522
36.459
36.402
36.35
36.303
36.26
36.22
36.184
36.153
36.126
36.105
36.089
36.077
36.068
36.06
36.052
36.043
36.033
36.021
36.008
35.994
35.979
35.965
35.952
35.938
35.924
35.909
35.891
35.871
35.848
35.821
35.793
35.762
35.73
35.695
35.659
35.623
35.586
35.547
35.507
35.464
35.42
35.373
35.324
35.274
35.223
35.171
35.118
35.064
35.007
34.947
34.884
34.821
34.757
34.692
34.629
34.567
34.506
34.446
34.387
34.331
34.277
34.226
34.177
34.13
34.086
34.045
34.006
33.968
33.931
33.893
33.856
33.817
33.779
33.739
33.7
33.66
33.619
33.576
33.534
33.492
33.45
33.409
33.369
33.331
33.295
33.261
33.229
33.197
33.166
33.135
33.105
33.075
33.045
33.016
32.985
32.954
32.922
32.892
32.865
32.843
32.827
32.818
32.82
32.834
32.863
32.908
32.971
33.053
33.156
33.281
33.427
33.594
33.779
33.982
34.199
34.43
34.672
34.926
35.189
35.461
35.741
36.028
36.322
36.623
36.928
37.238
37.547
37.85
38.143
38.418
38.669
38.891
39.08
39.235
39.353
39.435
39.481
39.492
39.473
39.425
39.352
39.259
39.149
39.028
38.898
38.762
38.624
38.488
38.354
38.226
38.103
37.986
37.876
37.772
37.675
37.581
37.491
37.405
37.321
37.24
37.161
37.084
37.011
36.942
36.874
36.808
36.742
36.677
36.613
36.549
36.486
36.422
36.36
36.298
36.238
36.181
36.128
36.078
36.033
35.993
35.956
35.923
35.896
35.874
35.858
35.846
35.839
35.835
35.834
35.834
35.834
35.833
35.832
35.828
35.821
35.811
35.798
35.783
35.765
35.745
35.723
35.699
35.672
35.642
35.609
35.571
35.53
35.488
35.444
35.4
35.356
35.312
35.267
35.222
35.174
35.125
35.075
35.024
34.973
34.922
34.872
34.824
34.777
34.731
34.684
34.637
34.587
34.536
34.484
34.431
34.378
34.325
34.274
34.223
34.173
34.124
34.075
34.026
33.977
33.928
33.879
33.83
33.78
33.729
33.676
33.623
33.568
33.514
33.461
33.411
33.364
33.322
33.285
33.25
33.217
33.184
33.153
33.122
33.09
33.059
33.028
32.996
32.965
32.933
32.9
32.868
32.836
32.804
32.774
32.746
32.723
32.703
32.688
32.676
32.67
32.67
32.679
32.698
32.73
32.776
32.838
32.917
33.014
33.128
33.26
33.41
33.576
33.756
33.949
34.154
34.37
34.596
34.829
35.067
35.311
35.556
35.804
36.053
36.305
36.559
36.816
37.074
37.331
37.585
37.832
38.066
38.284
38.479
38.65
38.792
38.905
38.985
39.034
39.05
39.037
38.996
38.926
38.825
38.695
38.542
38.376
38.203
38.031
37.865
37.709
37.568
37.442
37.333
37.239
37.159
37.092
37.033
36.983
36.937
36.895
36.852
36.807
36.759
36.706
36.648
36.586
36.521
36.452
36.382
36.311
36.24
36.17
36.103
36.041
35.983
35.929
35.879
35.834
35.794
35.759
35.728
35.702
35.681
35.664
35.651
35.642
35.637
35.636
35.637
35.64
35.643
35.646
35.65
35.652
35.654
35.654
35.652
35.649
35.642
35.632
35.619
35.601
35.579
35.553
35.523
35.491
35.456
35.421
35.385
35.348
35.309
35.27
35.228
35.186
35.141
35.095
35.047
34.998
34.948
34.895
34.832
34.757
34.671
34.577
34.48
34.384
34.294
34.212
34.142
34.083
34.035
33.998
33.97
33.949
33.932
33.917
33.902
33.884
33.864
33.84
33.811
33.778
33.741
33.699
33.654
33.607
33.56
33.514
33.47
33.428
33.389
33.353
33.318
33.285
33.253
33.219
33.185
33.15
33.115
33.08
33.047
33.015
32.985
32.955
32.924
32.893
32.862
32.831
32.801
32.773
32.749
32.73
32.716
32.711
32.715
32.731
32.761
32.808
32.874
32.96
33.069
33.2
33.352
33.524
33.712
33.913
34.125
34.343
34.565
34.789
35.013
35.234
35.452
35.663
35.865
36.058
36.238
36.404
36.556
36.694
36.817
36.926
37.023
37.108
37.183
37.25
37.309
37.357
37.394
37.421
37.436
37.441
37.435
37.42
37.397
37.37
37.339
37.305
37.271
37.235
37.199
37.161
37.121
37.079
37.035
36.99
36.942
36.892
36.841
36.789
36.736
36.683
36.628
36.57
36.508
36.441
36.37
36.296
36.221
36.148
36.077
36.009
35.945
35.885
35.83
35.779
35.733
35.691
35.654
35.622
35.595
35.574
35.559
35.549
35.544
35.543
35.545
35.549
35.555
35.561
35.568
35.575
35.581
35.586
35.59
35.591
35.591
35.587
35.58
35.57
35.556
35.54
35.52
35.496
35.47
35.44
35.407
35.372
35.335
35.296
35.254
35.209
35.162
35.113
35.064
35.014
34.964
34.915
34.867
34.818
34.771
34.723
34.677
34.63
34.584
34.536
34.486
34.435
34.383
34.331
34.279
34.226
34.174
34.122
34.072
34.022
33.974
33.928
33.883
33.838
33.794
33.751
33.709
33.669
33.63
33.591
33.553
33.517
33.482
33.449
33.416
33.385
33.354
33.323
33.293
33.263
33.233
33.203
33.173
33.142
33.109
33.076
33.042
33.006
32.97
32.933
32.896
32.86
32.826
32.796
32.771
32.755
32.749
32.757
32.781
32.822
32.882
32.961
33.061
33.18
33.32
33.479
33.658
33.853
34.061
34.281
34.51
34.746
34.988
35.235
35.485
35.739
35.994
36.25
36.507
36.767
37.028
37.29
37.552
37.811
38.064
38.305
38.531
38.736
38.918
39.072
39.196
39.288
39.346
39.37
39.362
39.325
39.263
39.178
39.076
38.96
38.834
38.703
38.568
38.432
38.298
38.165
38.037
37.913
37.796
37.684
37.579
37.48
37.387
37.297
37.209
37.124
37.039
36.954
36.867
36.781
36.697
36.614
36.535
36.461
36.39
36.322
36.258
36.196
36.136
36.08
36.028
35.98
35.936
35.898
35.866
35.84
35.821
35.808
35.799
35.795
35.793
35.793
35.795
35.797
35.8
35.801
35.801
35.798
35.791
35.782
35.769
35.751
35.729
35.704
35.676
35.648
35.621
35.596
35.574
35.554
35.534
35.512
35.485
35.454
35.418
35.376
35.331
35.282
35.23
35.176
35.118
35.058
34.994
34.928
34.86
34.79
34.72
34.651
34.584
34.52
34.46
34.402
34.346
34.292
34.24
34.188
34.137
34.089
34.043
33.999
33.958
33.917
33.877
33.835
33.792
33.747
33.7
33.653
33.607
33.561
33.516
33.472
33.429
33.387
33.346
33.305
33.265
33.225
33.187
33.149
33.112
33.076
33.041
33.005
32.97
32.935
32.9
32.865
32.831
32.798
32.766
32.734
32.704
32.676
32.651
32.631
32.618
32.613
32.619
32.638
32.675
32.731
32.808
32.908
33.032
33.179
33.349
33.542
33.753
33.982
34.225
34.48
34.745
35.019
35.302
35.595
35.9
36.216
36.544
36.881
37.225
37.572
37.916
38.251
38.569
38.863
39.128
39.359
39.552
39.703
39.812
39.878
39.902
39.888
39.837
39.754
39.645
39.515
39.368
39.209
39.045
38.881
38.72
38.565
38.419
38.284
38.158
38.044
37.939
37.842
37.755
37.675
37.602
37.532
37.464
37.396
37.327
37.256
37.182
37.106
37.025
36.942
36.854
36.764
36.673
36.582
36.492
36.405
36.32
36.238
36.161
36.09
36.025
35.967
35.916
35.873
35.837
35.807
35.784
35.766
35.755
35.747
35.743
35.739
35.735
35.729
35.721
35.709
35.695
35.678
35.66
35.64
35.621
35.6
35.579
35.558
35.536
35.512
35.487
35.458
35.428
35.396
35.362
35.326
35.289
35.25
35.21
35.168
35.126
35.082
35.038
34.994
34.948
34.901
34.852
34.801
34.748
34.692
34.636
34.578
34.521
34.464
34.409
34.356
34.307
34.26
34.216
34.171
34.126
34.08
34.032
33.982
33.931
33.88
33.827
33.773
33.718
33.662
33.604
33.547
33.49
33.433
33.378
33.327
33.28
33.236
33.194
33.154
33.114
33.074
33.035
32.996
32.959
32.925
32.893
32.862
32.832
32.803
32.773
32.743
32.713
32.684
32.656
32.63
32.604
32.57
32.525
32.473
32.419
32.372
32.338
32.324
32.338
32.384
32.465
32.58
32.728
32.909
33.118
33.353
33.611
33.887
34.18
34.487
34.805
35.135
35.477
35.831
36.198
36.576
36.961
37.348
37.731
38.102
38.454
38.78
39.073
39.328
39.541
39.709
39.831
39.906
39.937
39.927
39.879
39.797
39.687
39.555
39.408
39.251
39.09
38.929
38.771
38.618
38.472
38.333
38.204
38.084
37.972
37.868
37.77
37.679
37.593
37.513
37.436
37.361
37.286
37.211
37.133
37.053
36.971
36.886
36.8
36.713
36.624
36.534
36.445
36.358
36.273
36.191
36.112
36.038
35.969
35.905
35.847
35.797
35.753
35.716
35.684
35.657
35.634
35.616
35.602
35.592
35.585
35.579
35.575
35.571
35.568
35.564
35.558
35.55
35.539
35.525
35.509
35.49
35.471
35.45
35.427
35.403
35.377
35.35
35.321
35.29
35.256
35.221
35.182
35.141
35.098
35.052
35.005
34.956
34.904
34.851
34.797
34.742
34.687
34.63
34.572
34.512
34.451
34.39
34.328
34.265
34.202
34.139
34.078
34.019
33.963
33.91
33.86
33.812
33.766
33.721
33.678
33.637
33.596
33.555
33.513
33.469
33.424
33.377
33.328
33.278
33.227
33.175
33.124
33.075
33.029
32.986
32.945
32.907
32.869
32.833
32.799
32.767
32.738
32.713
32.691
32.672
32.654
32.638
32.62
32.602
32.582
32.56
32.537
32.515
32.496
32.483
32.478
32.485
32.504
32.539
32.592
32.663
32.755
32.868
33.002
33.157
33.331
33.522
33.728
33.947
34.177
34.418
34.669
34.93
35.201
35.485
35.781
36.09
36.411
36.742
37.078
37.412
37.737
38.045
38.33
38.584
38.803
38.983
39.123
39.22
39.277
39.295
39.275
39.222
39.14
39.035
38.911
38.774
38.628
38.478
38.327
38.179
38.037
37.903
37.777
37.661
37.554
37.454
37.36
37.27
37.184
37.1
37.017
36.936
36.855
36.774
36.691
36.608
36.524
36.438
36.351
36.263
36.175
36.088
36.006
35.932
35.868
35.813
35.768
35.731
35.7
35.673
35.649
35.626
35.604
35.582
35.56
35.539
35.518
35.499
35.481
35.464
35.447
35.432
35.417
35.404
35.392
35.381
35.372
35.365
35.358
35.352
35.345
35.337
35.327
35.312
35.292
35.27
35.246
35.222
35.196
35.169
35.14
35.108
35.074
35.039
35.001
34.962
34.922
34.881
34.836
34.79
34.742
34.692
34.642
34.59
34.536
34.479
34.421
34.362
34.302
34.241
34.181
34.12
34.06
33.999
33.939
33.879
33.821
33.765
33.71
33.658
33.609
33.563
33.518
33.475
33.434
33.393
33.353
33.313
33.275
33.238
33.201
33.164
33.128
33.092
33.057
33.023
32.991
32.959
32.927
32.896
32.867
32.838
32.809
32.78
32.751
32.721
32.691
32.661
32.632
32.605
32.58
32.559
32.544
32.536
32.538
32.552
32.58
32.624
32.686
32.768
32.871
32.994
33.137
33.3
33.48
33.677
33.886
34.106
34.333
34.564
34.797
35.03
35.26
35.488
35.712
35.929
36.139
36.342
36.536
36.722
36.898
37.065
37.221
37.366
37.499
37.618
37.723
37.815
37.893
37.954
37.999
38.025
38.034
38.025
38.001
37.961
37.909
37.845
37.773
37.694
37.609
37.52
37.429
37.337
37.245
37.154
37.063
36.973
36.884
36.797
36.711
36.626
36.542
36.46
36.379
36.299
36.219
36.141
36.063
35.986
35.912
35.841
35.775
35.713
35.656
35.603
35.555
35.512
35.475
35.444
35.418
35.397
35.38
35.368
35.359
35.354
35.351
35.351
35.354
35.358
35.361
35.365
35.368
35.37
35.371
35.368
35.364
35.356
35.347
35.336
35.323
35.309
35.294
35.277
35.258
35.235
35.209
35.181
35.15
35.118
35.084
35.048
35.012
34.974
34.933
34.89
34.844
34.796
34.746
34.694
34.641
34.588
34.536
34.484
34.434
34.384
34.335
34.287
34.24
34.194
34.148
34.105
34.063
34.021
33.98
33.939
33.898
33.856
33.811
33.765
33.718
33.671
33.624
33.578
33.532
33.489
33.45
33.416
33.386
33.358
33.332
33.308
33.285
33.26
33.232
33.201
33.165
33.124
33.079
33.029
32.978
32.926
32.875
32.826
32.782
32.743
32.71
32.684
32.668
32.662
32.671
32.695
32.738
32.803
32.889
32.997
33.126
33.275
33.441
33.625
33.823
34.035
34.257
34.487
34.722
34.96
35.197
35.433
35.665
35.894
36.118
36.337
36.552
36.762
36.969
37.171
37.369
37.561
37.746
37.92
38.082
38.228
38.355
38.462
38.548
38.612
38.653
38.671
38.667
38.64
38.594
38.527
38.444
38.346
38.237
38.12
37.997
37.872
37.746
37.622
37.501
37.385
37.274
37.167
37.067
36.971
36.88
36.793
36.708
36.627
36.548
36.47
36.392
36.314
36.236
36.158
36.08
36.004
35.931
35.864
35.801
35.744
35.691
35.645
35.604
35.57
35.542
35.52
35.504
35.492
35.484
35.48
35.48
35.483
35.488
35.495
35.501
35.507
35.513
35.516
35.518
35.515
35.509
35.498
35.483
35.464
35.441
35.416
35.387
35.356
35.323
35.287
35.25
35.211
35.169
35.125
35.078
35.029
34.978
34.925
34.87
34.814
34.758
34.701
34.646
34.593
34.542
34.494
34.448
34.404
34.361
34.32
34.279
34.239
34.199
34.159
34.119
34.079
34.039
33.998
33.956
33.912
33.866
33.819
33.769
33.717
33.663
33.608
33.553
33.499
33.447
33.398
33.353
33.311
33.271
33.233
33.196
33.162
33.129
33.096
33.062
33.029
32.994
32.959
32.924
32.89
32.858
32.829
32.802
32.779
32.762
32.751
32.748
32.755
32.774
32.806
32.855
