Trial 1:0back
33.497
33.51
33.52
33.528
33.532
33.532
33.529
33.523
33.516
33.508
33.501
33.493
33.487
33.482
33.48
33.48
33.483
33.491
33.506
33.53
33.567
33.62
33.693
33.791
33.916
34.074
34.267
34.499
34.77
35.079
35.424
35.799
36.2
36.618
37.046
37.472
37.888
38.283
38.648
38.976
39.259
39.494
39.679
39.813
39.898
39.935
39.929
39.884
39.805
39.699
39.571
39.426
39.271
39.109
38.944
38.781
38.623
38.474
38.335
38.206
38.087
37.976
37.875
37.782
37.698
37.62
37.548
37.48
37.414
37.351
37.287
37.222
37.154
37.082
37.006
36.926
36.841
36.751
36.657
36.557
36.453
36.345
36.233
36.119
36.005
35.89
35.777
35.666
35.557
35.454
35.355
35.264
35.179
35.102
35.033
34.972
34.919
34.875
34.841
34.816
34.8
34.793
34.793
34.799
34.812
34.829
34.85
34.873
34.896
34.918
34.94
34.96
34.977
34.99
34.999
35.002
35.0
34.991
34.977
34.957
34.933
34.906
34.876
34.843
34.81
34.776
34.742
34.708
34.672
34.637
34.6
34.564
34.527
34.49
34.451
34.41
34.366
34.32
34.271
34.22
34.166
34.11
34.054
33.996
33.94
33.887
33.842
33.805
33.778
33.758
33.743
33.729
33.715
33.699
33.68
33.66
33.639
33.617
33.595
33.572
33.549
33.528
33.51
33.494
33.481
33.47
33.462
33.457
33.455
33.455
33.458
33.462
33.468
33.474
33.482
33.49
33.497
33.503
33.507
33.51
33.511
33.511
33.51
33.508
33.504
33.499
33.493
33.486
33.48
33.473
33.467
33.463
33.463
33.468
33.478
33.492
33.512
33.54
33.576
33.623
33.684
33.762
33.86
33.983
34.136
34.322
34.546
34.808
35.108
35.446
35.816
36.213
36.63
37.059
37.489
37.912
38.315
38.691
39.032
39.332
39.588
39.797
39.956
40.065
40.126
40.142
40.118
40.059
39.971
39.861
39.734
39.596
39.452
39.306
39.159
39.015
38.875
38.741
38.611
38.486
38.366
38.251
38.14
38.034
37.931
37.829
37.729
37.63
37.534
37.44
37.348
37.257
37.169
37.082
36.997
36.915
36.832
36.75
36.666
36.582
36.498
36.413
36.326
36.237
36.146
36.053
35.957
35.858
35.758
35.658
35.558
35.46
35.365
35.273
35.186
35.105
35.031
34.967
34.912
34.869
34.835
34.812
34.798
34.794
34.798
34.812
34.834
34.863
34.898
34.937
34.98
35.026
35.073
35.118
35.162
35.201
35.236
35.264
35.284
35.293
35.291
35.276
35.248
35.209
35.159
35.099
35.031
34.958
34.88
34.8
34.72
34.641
34.563
34.488
34.416
34.349
34.284
34.222
34.161
34.103
34.046
33.992
33.942
33.897
33.856
33.819
33.787
33.76
33.736
33.716
33.7
33.685
33.674
33.663
33.653
33.643
33.633
33.621
33.608
33.594
33.578
33.561
33.543
33.525
33.506
33.488
33.472
33.457
33.445
33.435
33.427
33.423
33.422
33.424
33.429
33.437
33.446
33.458
33.472
33.487
33.501
33.513
33.522
33.527
33.53
33.53
33.527
33.523
33.518
33.514
33.511
33.511
33.512
33.512
33.51
33.506
33.499
33.488
33.476
33.461
33.445
33.429
33.416
33.408
33.406
33.414
33.431
33.462
33.507
33.571
33.657
33.77
33.915
34.096
34.317
34.58
34.885
35.23
35.61
36.02
36.451
36.895
37.341
37.779
38.2
38.593
38.953
39.272
39.545
39.771
39.948
40.077
40.16
40.201
40.203
40.171
40.109
40.024
39.919
39.799
39.667
39.527
39.382
39.236
39.089
38.946
38.807
38.675
38.55
38.433
38.324
38.223
38.129
38.041
37.957
37.877
37.8
37.725
37.651
37.579
37.505
37.43
37.35
37.267
37.178
37.086
36.988
36.885
36.777
36.665
36.549
36.431
36.31
36.187
36.063
35.941
35.822
35.709
35.604
35.508
35.421
35.345
35.281
35.227
35.185
35.152
35.127
35.11
35.1
35.096
35.098
35.103
35.113
35.125
35.139
35.156
35.174
35.193
35.212
35.23
35.248
35.263
35.277
35.288
35.296
35.3
35.3
35.294
35.282
35.263
35.238
35.208
35.174
35.135
35.092
35.046
34.997
34.946
34.892
34.836
34.778
34.718
34.657
34.595
34.531
34.466
34.399
34.33
34.261
34.194
34.13
34.068
34.009
33.952
33.898
33.846
33.798
33.754
33.713
33.676
33.643
33.614
33.588
33.565
33.546
33.53
33.517
33.508
33.502
33.498
33.494
33.491
33.485
33.478
33.47
33.46
33.45
33.44
33.43
33.42
33.411
33.404
33.398
33.395
33.395
33.397
33.402
33.41
33.421
33.435
33.451
33.469
33.488
33.509
33.531
33.554
33.578
33.6
33.619
33.637
33.651
33.661
33.668
33.669
33.667
33.66
33.65
33.636
33.619
33.598
33.575
33.55
33.523
33.496
33.468
33.44
33.413
33.387
33.366
33.348
33.337
33.331
33.33
33.336
33.348
33.369
33.401
33.444
33.503
33.58
33.679
33.804
33.959
34.149
34.377
34.645
34.955
35.306
35.692
36.107
36.543
36.989
37.437
37.876
38.297
38.69
39.046
39.361
39.629
39.847
40.017
40.137
40.213
40.247
40.243
40.207
40.141
40.051
39.944
39.824
39.697
39.566
39.434
39.304
39.179
39.059
38.942
38.825
38.709
38.592
38.476
38.364
38.256
38.153
38.056
37.965
37.878
37.793
37.71
37.63
37.552
37.477
37.404
37.329
37.251
37.169
37.081
36.988
36.889
36.786
36.678
36.566
36.453
36.339
36.225
36.114
36.005
35.901
35.802
35.71
35.627
35.554
35.49
35.437
35.393
35.357
35.327
35.304
35.287
35.277
35.274
35.277
35.285
35.298
35.316
35.337
35.361
35.385
35.408
35.429
35.448
35.464
35.477
35.484
35.485
35.48
35.469
35.453
35.431
35.405
35.375
35.34
35.301
35.258
35.212
35.161
35.105
35.045
34.98
34.913
34.844
34.774
34.702
34.629
34.556
34.485
34.417
34.351
34.289
34.229
34.172
34.118
34.067
34.019
33.974
33.933
33.895
33.861
33.83
33.8
33.772
33.744
33.716
33.69
33.666
33.642
33.619
33.595
33.57
33.544
33.518
33.492
33.465
33.438
33.411
33.384
33.358
33.334
33.312
33.292
33.273
33.257
33.245
33.237
33.235
33.236
33.241
33.25
33.261
33.275
33.292
33.309
33.328
33.346
33.365
33.384
33.403
33.423
33.443
33.462
33.48
33.497
33.512
33.525
33.535
33.541
33.543
33.542
33.539
33.534
33.529
33.521
33.511
33.5
33.489
33.477
33.467
33.458
33.451
33.446
33.442
33.442
33.446
33.455
33.47
33.493
33.529
33.58
33.65
33.741
33.858
34.005
34.188
34.41
34.672
34.974
35.315
35.69
36.093
36.516
36.95
37.385
37.812
38.222
38.604
38.951
39.256
39.516
39.728
39.892
40.009
40.079
40.105
40.094
40.05
39.978
39.884
39.774
39.652
39.524
39.391
39.257
39.123
38.99
38.86
38.733
38.607
38.482
38.359
38.238
38.119
38.003
37.889
37.777
37.667
37.56
37.457
37.36
37.268
37.182
37.101
37.029
36.963
36.901
36.838
36.769
36.691
36.605
36.511
36.411
36.308
36.203
36.098
35.996
35.898
35.804
35.717
35.637
35.564
35.498
35.438
35.384
35.335
35.291
35.254
35.224
35.2
35.184
35.175
35.173
35.177
35.189
35.207
35.23
35.258
35.29
35.326
35.364
35.404
35.443
35.48
35.513
35.543
35.568
35.586
35.596
35.599
35.595
35.583
35.562
35.533
35.494
35.447
35.394
35.335
35.271
35.203
35.132
35.059
34.983
34.907
34.83
34.753
34.677
34.604
34.534
34.467
34.405
34.347
34.293
34.242
34.195
34.153
34.116
34.082
34.05
34.02
33.993
33.968
33.945
33.926
33.91
33.894
33.879
33.865
33.849
33.832
33.813
33.793
33.771
33.747
33.723
33.698
33.673
33.649
33.625
33.602
33.582
33.565
33.551
33.54
33.529
33.52
33.513
33.507
33.503
33.501
33.501
33.502
33.505
33.511
33.516
33.522
33.526
33.528
33.529
33.527
33.524
33.518
33.509
33.497
33.481
33.463
33.446
33.428
33.411
33.396
33.383
33.374
33.371
33.376
33.392
33.421
33.466
33.531
33.619
33.735
33.883
34.065
34.284
34.543
34.839
35.17
35.532
35.916
36.316
36.723
37.127
37.519
37.89
38.233
38.542
38.812
39.039
39.222
39.36
39.455
39.509
39.524
39.505
39.454
39.378
39.28
39.165
39.037
38.898
38.754
38.606
38.457
38.308
38.16
38.014
37.87
37.731
37.597
37.469
37.349
37.235
37.129
37.029
36.934
36.845
36.758
36.673
36.588
36.504
36.42
36.334
36.245
36.153
36.057
35.958
35.855
35.747
35.636
35.521
35.405
35.287
35.172
35.06
34.953
34.854
34.763
34.684
34.616
34.562
34.522
34.494
34.478
34.474
34.48
34.497
34.522
34.555
34.595
34.639
34.688
34.737
34.781
34.818
34.848
34.872
34.891
34.907
34.922
34.936
34.951
34.967
34.982
34.995
35.005
35.01
35.01
35.006
34.997
34.983
34.962
34.935
34.9
34.858
34.81
34.756
34.697
34.635
34.571
34.507
34.441
34.374
34.306
34.236
34.167
34.101
34.038
33.978
33.923
33.871
33.822
33.777
33.736
33.698
33.662
33.629
33.599
33.571
33.546
33.523
33.503
33.485
33.468
33.453
33.44
33.429
33.419
33.411
33.403
33.397
33.392
33.387
33.383
33.378
33.372
33.365
33.358
33.349
33.341
33.331
33.321
33.31
33.297
33.283
33.268
33.252
33.235
33.217
33.201
33.186
33.175
33.169
33.167
33.169
33.175
33.184
33.198
33.215
33.236
33.261
33.29
33.325
33.366
33.417
33.478
33.554
33.648
33.766
33.911
34.09
34.304
34.556
34.847
35.174
35.535
35.923
36.332
36.753
37.176
37.591
37.99
38.362
38.702
39.003
39.262
39.475
39.642
39.762
39.838
39.872
39.87
39.835
39.773
39.687
39.582
39.462
39.332
39.195
39.053
38.909
38.766
38.623
38.484
38.347
38.213
38.084
37.96
37.84
37.725
37.613
37.504
37.399
37.299
37.204
37.114
37.029
36.947
36.868
36.79
36.713
36.635
36.553
36.466
36.374
36.277
36.176
36.07
35.961
35.851
35.739
35.627
35.517
35.41
35.307
35.211
35.122
35.04
34.968
34.905
34.853
34.81
34.778
34.755
34.741
34.735
34.738
34.748
34.764
34.784
34.808
34.834
34.863
34.895
34.928
34.961
34.993
35.022
35.047
35.07
35.088
35.1
35.106
35.105
35.097
35.083
35.062
35.035
35.001
34.96
34.914
34.863
34.807
34.749
34.686
34.619
34.547
34.472
34.396
34.32
34.246
34.173
34.103
34.038
33.977
33.922
33.872
33.827
33.787
33.752
33.721
33.694
33.671
33.649
33.628
33.608
33.588
33.57
33.551
33.532
33.512
33.492
33.472
33.453
33.436
33.418
33.402
33.387
33.374
33.363
33.355
33.348
33.341
33.334
33.327
33.321
33.316
33.313
33.311
33.31
33.31
33.311
33.314
33.317
33.32
33.323
33.326
33.328
33.329
33.33
33.33
33.331
33.331
33.33
33.328
33.325
33.321
33.316
33.313
33.312
33.316
33.329
33.352
33.388
33.438
33.506
33.596
33.715
33.866
34.054
34.283
34.553
34.866
35.219
35.607
36.022
36.455
36.897
37.337
37.765
38.172
38.55
38.893
39.195
39.451
39.661
39.824
39.941
40.017
40.052
40.05
40.014
39.947
39.856
39.745
39.619
39.484
39.341
39.194
39.045
38.895
38.747
38.603
38.463
38.331
38.206
38.09
37.982
37.882
37.791
37.708
37.631
37.558
37.488
37.418
37.348
37.276
37.203
37.127
37.047
36.963
36.873
36.78
36.681
36.578
36.469
36.356
36.237
36.116
35.992
35.867
35.744
35.622
35.504
35.391
35.286
35.189
35.103
35.029
34.967
34.918
34.881
34.857
34.845
34.843
34.852
34.868
34.891
34.919
34.95
34.984
35.019
35.052
35.083
35.109
35.13
35.147
35.159
35.166
35.167
35.16
35.147
35.127
35.103
35.074
35.039
35.0
34.958
34.912
34.866
34.819
34.772
34.723
34.673
34.623
34.574
34.524
34.474
34.423
34.372
34.32
34.268
34.215
34.161
34.105
34.046
33.986
33.926
33.865
33.806
33.747
33.691
33.637
33.587
33.542
33.502
33.466
33.432
33.402
33.375
33.352
33.333
33.316
33.3
33.286
33.275
33.266
33.26
33.256
33.253
33.252
33.251
33.252
33.253
33.254
33.254
33.252
33.247
33.24
33.231
33.222
33.212
33.201
33.19
33.179
33.169
33.161
33.154
33.149
33.144
33.141
33.139
33.14
33.144
33.151
33.162
33.178
33.201
33.231
33.271
33.323
33.39
33.476
33.585
33.72
33.886
34.085
34.32
34.594
34.905
35.252
35.631
36.034
36.456
36.886
37.315
37.734
38.133
38.503
38.838
39.134
39.386
39.592
39.752
39.867
39.939
39.971
39.967
39.93
39.865
39.777
39.669
39.547
39.413
39.273
39.131
38.994
38.865
38.746
38.638
38.539
38.446
38.357
38.271
38.187
38.102
38.017
37.931
37.844
37.753
37.659
37.561
37.458
37.353
37.245
37.136
37.025
36.913
36.801
36.689
36.576
36.464
36.351
36.239
36.129
36.022
35.917
35.817
35.721
35.631
35.547
35.469
35.397
35.329
35.267
35.21
35.158
35.113
35.074
35.04
35.012
34.99
34.973
34.96
34.952
34.949
34.95
34.954
34.963
34.976
34.992
35.01
35.029
35.048
35.067
35.084
35.098
35.107
35.111
35.109
35.102
35.089
35.071
35.048
35.02
34.987
34.949
34.907
34.861
34.81
34.756
34.699
34.639
34.576
34.511
34.442
34.371
34.297
34.22
34.141
34.062
33.984
33.909
33.837
33.77
33.707
33.649
33.596
33.548
33.505
33.467
33.434
33.406
33.382
33.363
33.347
33.336
33.328
33.322
33.319
33.317
33.316
33.315
33.315
33.314
33.312
33.308
33.304
33.299
33.294
33.288
33.283
33.278
33.275
33.273
33.273
33.275
33.28
33.286
33.293
33.3
33.307
33.316
33.324
33.331
33.338
33.345
33.352
33.358
33.364
33.368
33.372
33.375
33.379
33.385
33.394
33.408
33.43
33.463
33.511
33.579
33.674
33.799
33.96
34.16
34.403
34.689
35.015
35.378
35.772
36.19
36.621
37.057
37.487
37.903
38.296
38.658
38.984
39.266
39.503
39.694
39.838
39.936
39.989
40.002
39.978
39.922
39.84
39.736
39.615
39.481
39.341
39.196
39.051
38.907
38.765
38.628
38.498
38.376
38.263
38.159
38.062
37.972
37.888
37.811
37.737
37.666
37.597
37.529
37.461
37.392
37.321
37.246
37.168
37.086
36.998
36.905
36.805
36.7
36.59
36.477
36.36
36.242
36.122
36.002
35.884
35.769
35.657
35.548
35.444
35.348
35.266
35.198
35.139
35.088
35.042
34.998
34.957
34.921
34.893
34.875
34.866
34.867
34.878
34.899
34.928
34.963
35.002
35.043
35.085
35.126
35.164
35.198
35.227
35.249
35.263
35.267
35.263
35.248
35.225
35.192
35.151
35.102
35.046
34.984
34.916
34.844
34.768
34.691
34.613
34.535
34.459
34.385
34.314
34.245
34.178
34.114
34.052
33.993
33.938
33.886
33.838
33.792
33.749
33.708
33.67
33.635
33.601
33.569
33.538
33.509
33.482
33.457
33.436
33.417
33.401
33.387
33.373
33.362
33.354
33.348
33.344
33.342
33.342
33.345
33.349
33.355
33.363
33.371
33.381
33.393
33.406
33.42
33.433
33.445
33.455
33.464
33.47
33.474
33.474
33.47
33.463
33.453
33.439
33.424
33.406
33.387
33.365
33.343
33.32
33.299
33.278
33.259
33.243
33.23
33.222
33.22
33.226
33.24
33.264
33.298
33.347
33.413
33.501
33.616
33.762
33.943
34.163
34.422
34.722
35.06
35.431
35.83
36.248
36.677
37.108
37.531
37.936
38.315
38.66
38.964
39.223
39.436
39.601
39.72
39.795
39.828
39.824
39.788
39.727
39.646
39.552
39.447
39.336
39.222
39.105
38.989
38.876
38.765
38.66
38.559
38.462
38.369
38.28
38.195
38.114
38.037
37.961
37.886
37.811
37.735
37.66
37.585
37.511
37.437
37.361
37.284
37.203
37.12
37.033
36.941
36.845
36.743
36.636
36.526
36.413
36.298
36.182
36.065
35.949
35.836
35.727
35.624
35.53
35.446
35.374
35.313
35.265
35.228
35.202
35.186
35.179
35.18
35.189
35.204
35.226
35.252
35.283
35.316
35.35
35.383
35.414
35.443
35.469
35.491
35.51
35.524
35.534
35.539
35.537
35.529
35.514
35.491
35.459
35.422
35.379
35.332
35.279
35.222
35.16
35.093
35.023
34.95
34.874
34.796
34.718
34.64
34.563
34.487
34.412
34.339
34.268
34.199
34.136
34.077
34.025
33.977
33.935
33.898
33.866
33.839
33.816
33.798
33.783
33.77
33.76
33.752
33.747
33.743
33.741
33.739
33.738
33.736
33.734
33.73
33.724
33.715
33.705
33.693
33.682
33.669
33.656
33.643
33.63
33.62
33.613
33.609
33.609
33.611
33.616
33.624
33.632
33.641
33.649
33.654
33.655
33.654
33.65
33.645
33.639
33.631
33.623
33.613
33.604
33.595
33.585
33.576
33.568
33.563
33.565
33.576
33.601
33.643
33.706
33.795
33.915
34.069
34.262
34.493
34.764
35.069
35.406
35.768
36.147
36.535
36.924
37.304
37.669
38.01
38.319
38.592
38.826
39.02
39.174
39.287
39.361
39.4
39.408
39.389
39.346
39.281
39.199
39.101
38.991
38.872
38.745
38.612
38.477
38.339
38.201
38.063
37.925
37.789
37.657
37.531
37.413
37.303
37.202
37.111
37.03
36.958
36.896
36.839
36.787
36.736
36.684
36.63
36.571
36.506
36.433
36.352
36.262
36.164
36.059
35.946
35.827
35.703
35.577
35.451
35.328
35.211
35.1
34.999
34.909
34.831
34.765
34.713
34.675
34.651
34.64
34.641
34.654
34.678
34.711
34.753
34.803
34.858
34.918
34.981
35.044
35.107
35.167
35.221
35.269
35.307
35.335
35.353
35.359
35.353
35.335
35.306
35.267
35.218
35.161
35.096
35.023
34.944
34.861
34.776
34.691
34.606
34.521
34.437
34.354
34.274
34.199
34.13
34.066
34.008
33.956
33.91
33.87
33.835
33.805
33.779
33.755
33.732
33.71
33.688
33.667
33.647
33.626
33.605
33.583
33.561
33.539
33.516
33.494
33.472
33.452
33.432
33.415
33.399
33.384
33.371
33.361
33.354
33.349
33.347
33.346
33.345
33.344
33.343
33.341
33.339
33.336
33.334
33.338
33.351
33.374
33.406
33.443
33.48
33.512
33.536
33.55
33.551
33.54
33.516
33.481
33.437
33.387
33.333
33.279
33.229
33.186
33.154
33.134
33.131
33.149
33.191
33.26
33.36
33.494
33.666
33.878
34.132
34.429
34.765
35.136
35.534
35.952
36.381
36.809
37.227
37.627
38.0
38.339
38.641
38.9
39.116
39.288
39.417
39.506
39.556
39.572
39.558
39.517
39.454
39.374
39.28
39.177
39.069
38.957
38.844
38.731
38.62
38.512
38.406
38.303
38.204
38.109
38.019
37.933
37.85
37.772
37.697
37.625
37.556
37.489
37.423
37.354
37.283
37.207
37.127
37.041
36.949
36.852
36.749
36.641
36.528
36.411
36.289
36.165
36.038
35.911
35.784
35.659
35.538
35.424
35.317
35.22
35.133
35.058
34.994
34.943
34.905
34.88
34.867
34.865
34.873
34.889
34.911
34.937
34.966
34.997
35.028
35.055
35.08
35.102
35.122
35.138
35.151
35.159
35.163
35.161
35.153
35.141
35.122
35.098
35.069
35.036
35.0
34.959
34.914
34.865
34.813
34.758
34.701
34.641
34.579
34.516
34.453
34.39
34.327
34.266
34.205
34.146
34.088
34.033
33.98
33.93
33.882
33.834
33.788
33.743
33.699
33.657
33.615
33.574
33.533
33.494
33.458
33.426
33.397
33.373
33.35
33.331
33.315
33.301
33.29
33.283
33.28
33.278
33.28
33.282
33.285
33.287
33.286
33.282
33.274
33.264
33.25
33.234
33.214
33.191
33.165
33.138
33.112
33.086
33.062
33.042
33.027
33.018
33.015
33.018
33.024
33.034
33.047
33.061
33.077
33.093
33.11
33.128
33.147
33.17
33.2
33.241
33.297
33.372
33.471
33.601
33.768
33.974
34.223
34.513
34.842
35.206
35.598
36.012
36.437
36.865
37.284
37.687
38.065
38.412
38.722
38.992
39.22
39.404
39.545
39.645
39.706
39.732
39.727
39.694
39.638
39.564
39.474
39.373
39.266
39.154
39.039
38.924
38.81
38.697
38.587
38.48
38.376
38.276
38.18
38.088
38.001
37.918
37.836
37.757
37.679
37.603
37.529
37.455
37.382
37.309
37.236
37.161
37.083
37.0
36.911
36.817
36.714
36.603
36.485
36.359
36.228
36.095
35.962
35.83
35.701
35.578
35.462
35.354
35.255
35.166
35.087
35.018
34.96
34.913
34.875
34.846
34.823
34.806
34.793
34.784
34.78
34.781
34.786
34.796
34.81
34.828
34.85
34.873
34.897
34.919
34.939
34.957
34.973
34.984
34.991
34.993
34.988
34.976
34.958
34.932
34.899
34.859
34.812
34.76
34.703
34.644
34.58
34.513
34.441
34.367
34.29
34.212
34.133
34.055
33.977
33.902
33.83
33.764
33.703
33.647
33.597
33.552
33.512
33.476
33.445
33.416
33.389
33.363
33.338
33.314
33.292
33.27
33.247
33.224
33.202
33.181
33.162
33.144
33.127
33.11
33.095
33.082
33.07
33.061
33.054
33.047
33.042
33.038
33.035
33.035
33.036
33.039
33.044
