Trial 1:0back
33.04
33.089
33.169
33.286
33.441
33.637
33.873
34.146
34.454
34.791
35.151
35.527
35.91
36.29
36.659
37.012
37.34
37.64
37.907
38.138
38.33
38.483
38.6
38.681
38.73
38.747
38.737
38.704
38.655
38.594
38.525
38.45
38.372
38.294
38.218
38.145
38.076
38.011
37.95
37.892
37.838
37.785
37.734
37.685
37.636
37.588
37.54
37.492
37.442
37.39
37.336
37.279
37.218
37.153
37.084
37.011
36.934
36.853
36.767
36.676
36.581
36.483
36.384
36.282
36.18
36.079
35.979
35.882
35.79
35.702
35.62
35.545
35.477
35.416
35.363
35.317
35.279
35.25
35.23
35.216
35.21
35.209
35.213
35.223
35.236
35.253
35.271
35.289
35.306
35.32
35.33
35.335
35.337
35.334
35.328
35.317
35.302
35.28
35.252
35.217
35.177
35.129
35.073
35.012
34.946
34.877
34.805
34.732
34.658
34.585
34.513
34.442
34.373
34.308
34.247
34.189
34.135
34.082
34.03
33.978
33.927
33.878
33.829
33.782
33.736
33.692
33.65
33.611
33.574
33.538
33.505
33.473
33.442
33.41
33.38
33.351
33.324
33.3
33.276
33.254
33.234
33.213
33.194
33.175
33.156
33.137
33.116
33.094
33.07
33.045
33.02
32.994
32.968
32.941
32.915
32.892
32.873
32.862
32.864
32.883
32.925
32.996
33.101
33.242
33.423
33.646
33.911
34.216
34.555
34.922
35.308
35.705
36.104
36.497
36.875
37.231
37.559
37.854
38.112
38.331
38.508
38.645
38.742
38.803
38.831
38.83
38.804
38.759
38.698
38.624
38.539
38.444
38.342
38.233
38.121
38.011
37.906
37.809
37.722
37.647
37.582
37.529
37.486
37.453
37.427
37.406
37.387
37.367
37.343
37.313
37.278
37.235
37.185
37.126
37.06
36.986
36.904
36.817
36.725
36.628
36.527
36.421
36.312
36.201
36.09
35.982
35.877
35.778
35.685
35.601
35.525
35.459
35.401
35.352
35.311
35.278
35.251
35.229
35.213
35.202
35.198
35.198
35.203
35.211
35.221
35.233
35.246
35.261
35.276
35.29
35.301
35.311
35.317
35.321
35.322
35.316
35.303
35.282
35.252
35.213
35.167
35.113
35.053
34.987
34.915
34.838
34.756
34.671
34.585
34.5
34.416
34.334
34.257
34.184
34.118
34.057
34.002
33.95
33.901
33.856
33.814
33.775
33.739
33.706
33.674
33.642
33.61
33.576
33.543
33.51
33.477
33.444
33.408
33.372
33.334
33.297
33.259
33.221
33.185
33.149
33.114
33.081
33.049
33.021
32.997
32.978
32.964
32.955
32.953
32.959
32.974
33.003
33.048
33.114
33.204
33.323
33.474
33.66
33.881
34.137
34.426
34.742
35.08
35.434
35.795
36.157
36.513
36.854
37.175
37.47
37.736
37.969
38.167
38.33
38.457
38.551
38.614
38.648
38.656
38.642
38.609
38.558
38.494
38.421
38.34
38.254
38.164
38.073
37.981
37.89
37.801
37.715
37.634
37.556
37.482
37.413
37.349
37.289
37.232
37.177
37.121
37.064
37.007
36.948
36.891
36.836
36.782
36.73
36.676
36.622
36.566
36.506
36.44
36.367
36.287
36.198
36.101
35.998
35.889
35.776
35.661
35.547
35.437
35.336
35.246
35.169
35.105
35.055
35.021
35.0
34.994
35.0
35.018
35.044
35.078
35.116
35.158
35.2
35.241
35.28
35.313
35.339
35.356
35.364
35.364
35.356
35.34
35.317
35.287
35.25
35.206
35.156
35.101
35.04
34.976
34.908
34.839
34.769
34.699
34.63
34.562
34.495
34.428
34.359
34.289
34.218
34.148
34.079
34.01
33.94
33.87
33.8
33.731
33.664
33.602
33.544
33.492
33.446
33.407
33.374
33.348
33.327
33.31
33.295
33.28
33.263
33.245
33.224
33.2
33.174
33.144
33.112
33.078
33.044
33.008
32.975
32.947
32.927
32.919
32.927
32.955
33.009
33.095
33.218
33.381
33.587
33.835
34.122
34.443
34.793
35.165
35.55
35.941
36.328
36.705
37.064
37.398
37.703
37.973
38.207
38.404
38.562
38.683
38.768
38.819
38.839
38.833
38.805
38.76
38.702
38.634
38.56
38.483
38.406
38.33
38.258
38.189
38.125
38.067
38.013
37.963
37.918
37.878
37.841
37.806
37.773
37.738
37.702
37.664
37.622
37.576
37.523
37.461
37.391
37.311
37.224
37.13
37.029
36.921
36.808
36.691
36.572
36.451
36.331
36.211
36.093
35.979
35.87
35.769
35.676
35.592
35.518
35.454
35.399
35.353
35.315
35.285
35.264
35.251
35.244
35.242
35.244
35.251
35.262
35.277
35.293
35.31
35.328
35.348
35.367
35.384
35.396
35.401
35.399
35.389
35.37
35.343
35.311
35.274
35.233
35.188
35.14
35.089
35.036
34.984
34.93
34.875
34.816
34.753
34.687
34.618
34.546
34.472
34.397
34.321
34.247
34.175
34.105
34.04
33.981
33.926
33.876
33.831
33.789
33.75
33.715
33.683
33.654
33.627
33.602
33.578
33.553
33.528
33.502
33.475
33.448
33.419
33.388
33.356
33.323
33.291
33.26
33.231
33.204
33.182
33.167
33.161
33.168
33.192
33.237
33.308
33.41
33.546
33.718
33.929
34.178
34.462
34.777
35.119
35.479
35.851
36.226
36.596
36.954
37.291
37.602
37.883
38.129
38.34
38.515
38.653
38.757
38.827
38.867
38.881
38.873
38.846
38.804
38.749
38.685
38.616
38.545
38.473
38.402
38.333
38.266
38.202
38.143
38.088
38.038
37.992
37.949
37.908
37.871
37.835
37.799
37.764
37.728
37.691
37.652
37.61
37.565
37.516
37.461
37.4
37.334
37.261
37.184
37.101
37.014
36.922
36.827
36.728
36.628
36.525
36.42
36.315
36.209
36.105
36.003
35.906
35.815
35.731
35.655
35.587
35.53
35.482
35.446
35.42
35.405
35.399
35.402
35.411
35.425
35.444
35.464
35.484
35.501
35.515
35.524
35.529
35.53
35.525
35.513
35.495
35.468
35.434
35.394
35.348
35.297
35.242
35.18
35.113
35.04
34.962
34.88
34.798
34.717
34.64
34.567
34.499
34.439
34.384
34.335
34.291
34.25
34.21
34.171
34.132
34.093
34.054
34.013
33.971
33.927
33.882
33.835
33.787
33.74
33.693
33.648
33.603
33.559
33.516
33.476
33.437
33.401
33.366
33.334
33.304
33.276
33.25
33.227
33.205
33.185
33.164
33.144
33.123
33.102
33.084
33.071
33.066
33.076
33.103
33.153
33.233
33.346
33.498
33.691
33.925
34.198
34.508
34.848
35.211
35.59
35.975
36.356
36.726
37.077
37.402
37.697
37.957
38.18
38.365
38.511
38.62
38.695
38.738
38.753
38.744
38.715
38.669
38.611
38.544
38.471
38.395
38.318
38.243
38.172
38.106
38.044
37.987
37.934
37.884
37.839
37.797
37.759
37.722
37.686
37.65
37.612
37.572
37.53
37.485
37.434
37.378
37.316
37.249
37.175
37.096
37.011
36.92
36.824
36.723
36.618
36.51
36.4
36.289
36.178
36.069
35.963
35.862
35.766
35.676
35.592
35.516
35.448
35.388
35.335
35.291
35.254
35.223
35.198
35.178
35.164
35.155
35.151
35.151
35.153
35.156
35.16
35.164
35.17
35.175
35.181
35.185
35.187
35.187
35.184
35.176
35.164
35.147
35.125
35.097
35.063
35.024
34.978
34.926
34.868
34.802
34.73
34.65
34.566
34.479
34.388
34.293
34.193
34.089
33.981
33.874
33.771
33.673
33.582
33.499
33.424
33.36
33.306
33.262
33.229
33.205
33.188
33.175
33.164
33.154
33.144
33.131
33.117
33.1
33.081
33.059
33.036
33.01
32.983
32.956
32.929
32.901
32.873
32.844
32.814
32.785
32.757
32.73
32.705
32.683
32.665
32.651
32.642
32.641
32.651
32.676
32.723
32.795
32.897
33.035
33.212
33.431
33.691
33.991
34.326
34.688
35.07
35.465
35.863
36.257
36.637
36.996
37.329
37.628
37.892
38.117
38.301
38.445
38.551
38.62
38.656
38.663
38.645
38.606
38.552
38.485
38.411
38.331
38.249
38.166
38.083
38.002
37.926
37.854
37.788
37.727
37.671
37.62
37.574
37.533
37.495
37.46
37.426
37.393
37.36
37.325
37.287
37.246
37.2
37.148
37.088
37.021
36.946
36.863
36.773
36.675
36.569
36.457
36.34
36.22
36.098
35.975
35.852
35.731
35.613
35.502
35.398
35.305
35.222
35.15
35.091
35.045
35.011
34.988
34.977
34.975
34.982
34.995
35.013
35.036
35.059
35.083
35.106
35.125
35.14
35.149
35.154
35.154
35.151
35.143
35.13
35.112
35.09
35.064
35.034
35.001
34.962
34.92
34.872
34.821
34.766
34.708
34.648
34.585
34.519
34.451
34.38
34.307
34.232
34.155
34.076
33.995
33.914
33.832
33.753
33.676
33.603
33.533
33.469
33.408
33.352
33.3
33.254
33.213
33.177
33.144
33.113
33.085
33.059
33.034
33.011
32.987
32.962
32.935
32.908
32.88
32.85
32.819
32.786
32.752
32.717
32.68
32.646
32.616
32.594
32.585
32.591
32.616
32.665
32.742
32.852
33.002
33.195
33.431
33.709
34.026
34.376
34.751
35.145
35.547
35.949
36.343
36.721
37.073
37.395
37.681
37.929
38.138
38.308
38.44
38.536
38.599
38.633
38.641
38.627
38.594
38.546
38.487
38.42
38.347
38.27
38.19
38.109
38.027
37.947
37.87
37.794
37.719
37.645
37.572
37.5
37.429
37.359
37.288
37.215
37.141
37.064
36.985
36.906
36.823
36.738
36.649
36.558
36.465
36.37
36.273
36.174
36.073
35.97
35.866
35.761
35.655
35.55
35.448
35.348
35.252
35.162
35.077
35.001
34.931
34.869
34.813
34.765
34.725
34.693
34.669
34.653
34.644
34.643
34.648
34.659
34.675
34.696
34.719
34.744
34.77
34.795
34.818
34.837
34.851
34.86
34.863
34.858
34.846
34.827
34.801
34.767
34.725
34.676
34.619
34.554
34.485
34.409
34.33
34.248
34.165
34.082
34.0
33.92
33.844
33.772
33.703
33.638
33.576
33.519
33.466
33.418
33.373
33.33
33.289
33.249
33.209
33.169
33.129
33.089
33.048
33.007
32.966
32.923
32.881
32.838
32.795
32.752
32.709
32.666
32.623
32.58
32.539
32.5
32.465
32.435
32.411
32.395
32.387
32.391
32.409
32.448
32.509
32.599
32.72
32.872
33.057
33.278
33.537
33.832
34.162
34.525
34.916
35.327
35.753
36.182
36.604
37.01
37.392
37.741
38.051
38.32
38.544
38.723
38.858
38.95
39.004
39.023
39.011
38.973
38.913
38.837
38.749
38.652
38.552
38.45
38.35
38.253
38.159
38.071
37.989
37.912
37.84
37.773
37.71
37.653
37.599
37.549
37.501
37.455
37.409
37.363
37.315
37.265
37.21
37.149
37.079
37.001
36.914
36.817
36.711
36.596
36.473
36.343
36.21
36.075
35.941
35.81
35.684
35.566
35.458
35.362
35.277
35.204
35.142
35.09
35.048
35.015
34.99
34.973
34.963
34.959
34.958
34.962
34.968
34.976
34.985
34.993
35.0
35.006
35.008
35.009
35.006
35.002
34.993
34.981
34.964
34.943
34.918
34.889
34.856
34.82
34.779
34.735
34.688
34.638
34.586
34.531
34.472
34.411
34.346
34.277
34.206
34.134
34.06
33.985
33.908
33.83
33.75
33.668
33.587
33.506
33.428
33.353
33.283
33.219
33.161
33.111
33.067
33.03
32.998
32.969
32.943
32.919
32.897
32.877
32.859
32.84
32.821
32.801
32.778
32.751
32.72
32.685
32.646
32.604
32.56
32.514
32.469
32.427
32.391
32.364
32.349
32.352
32.376
32.428
32.512
32.635
32.801
33.014
33.276
33.585
33.938
34.33
34.751
35.193
35.645
36.098
36.541
36.966
37.365
37.733
38.065
38.357
38.607
38.812
38.972
39.088
39.163
39.199
39.202
39.178
39.13
39.066
38.989
38.904
38.814
38.721
38.63
38.541
38.456
38.375
38.298
38.225
38.154
38.085
38.018
37.951
37.883
37.815
37.745
37.674
37.602
37.527
37.451
37.372
37.292
37.211
37.128
37.044
36.957
36.866
36.771
36.671
36.567
36.462
36.353
36.243
36.132
36.02
35.909
35.8
35.694
35.591
35.49
35.394
35.302
35.214
35.132
35.056
34.987
34.926
34.872
34.828
34.792
34.766
34.749
34.742
34.743
34.75
34.763
34.778
34.796
34.815
34.832
34.848
34.861
34.871
34.876
34.877
34.871
34.858
34.837
34.809
34.773
34.73
34.68
34.623
34.56
34.492
34.419
34.342
34.263
34.182
34.102
34.021
33.942
33.862
33.784
33.707
33.631
33.559
33.488
33.42
33.355
33.292
33.231
33.173
33.117
33.063
33.011
32.96
32.91
32.86
32.811
32.763
32.718
32.675
32.634
32.595
32.557
32.519
32.482
32.447
32.412
32.379
32.346
32.314
32.282
32.252
32.223
32.196
32.17
32.145
32.123
32.107
32.098
32.1
32.118
32.157
32.224
32.325
32.465
32.65
32.882
33.165
33.496
33.87
34.281
34.72
35.179
35.646
36.111
36.562
36.99
37.388
37.748
38.067
38.341
38.569
38.75
38.886
38.98
39.035
39.056
39.046
39.011
38.953
38.879
38.793
38.697
38.597
38.493
38.389
38.286
38.186
38.091
37.999
37.912
37.828
37.747
37.668
37.592
37.517
37.443
37.368
37.293
37.217
37.14
37.062
36.981
36.894
36.796
36.687
36.567
36.437
36.3
36.159
36.019
35.882
35.75
35.624
35.506
35.395
35.292
35.196
35.105
35.021
34.944
34.874
34.809
34.751
34.698
34.653
34.616
34.587
34.567
34.556
34.553
34.555
34.561
34.571
34.584
34.598
34.613
34.629
34.643
34.657
34.668
34.677
34.682
34.685
34.683
34.678
34.667
34.653
34.636
34.615
34.591
34.562
34.528
34.488
34.443
34.393
34.337
34.277
34.214
34.148
34.079
34.007
33.934
33.861
33.788
33.715
33.643
33.57
33.499
33.429
33.361
33.295
33.232
33.173
33.118
33.069
33.024
32.983
32.946
32.913
32.882
32.851
32.819
32.786
32.751
32.713
32.674
32.632
32.588
32.542
32.494
32.447
32.403
32.364
32.333
32.313
32.306
32.317
32.351
32.412
32.508
32.641
32.818
33.038
33.304
33.614
33.963
34.348
34.761
35.192
35.631
36.07
36.496
36.903
37.282
37.626
37.932
38.195
38.413
38.588
38.719
38.81
38.864
38.887
38.88
38.85
38.799
38.731
38.649
38.557
38.457
38.353
38.246
38.137
38.028
37.918
37.808
37.698
37.589
37.483
37.378
37.274
37.17
37.066
36.962
36.858
36.755
36.651
36.547
36.442
36.334
36.224
36.111
35.997
35.879
35.759
35.637
35.514
35.39
35.267
35.145
35.027
34.912
34.803
34.698
34.601
34.512
34.431
34.36
34.305
34.266
34.245
34.238
34.242
34.253
34.269
34.286
34.304
34.321
34.334
34.344
34.352
34.357
34.361
34.365
34.37
34.377
34.385
34.395
34.405
34.414
34.422
34.428
34.429
34.425
34.416
34.399
34.374
34.339
34.296
34.244
34.185
34.118
34.045
33.968
33.887
33.805
33.723
33.644
33.57
33.5
33.436
33.376
33.32
33.268
33.22
33.176
33.133
33.091
33.048
33.003
32.957
32.908
32.858
32.807
32.756
32.704
32.653
32.602
32.553
32.507
32.466
32.429
32.396
32.367
32.34
32.317
32.299
32.288
32.287
32.298
32.325
32.373
32.448
32.555
32.699
32.888
33.123
33.407
33.738
34.112
34.523
34.962
35.419
35.885
36.347
36.796
37.224
37.621
37.982
38.3
38.572
38.796
38.974
39.108
39.202
39.258
39.282
39.277
39.249
39.202
39.14
39.067
38.985
38.897
38.805
38.712
38.618
38.524
38.43
38.336
38.242
38.147
38.052
37.957
37.862
37.766
37.669
37.572
37.475
37.378
37.281
37.182
37.082
36.98
36.878
36.774
36.667
36.557
36.442
36.324
36.201
36.074
35.943
35.809
35.672
35.535
35.399
35.266
35.138
35.016
34.902
34.794
34.694
34.603
34.522
34.454
34.398
34.356
34.327
34.309
34.302
34.305
34.317
34.336
34.362
34.392
34.426
34.462
34.499
34.535
34.568
34.597
34.619
34.633
34.639
34.638
34.633
34.626
34.616
34.601
34.578
34.545
34.501
34.449
34.387
34.317
34.238
34.153
34.065
33.975
33.885
33.797
33.713
33.631
33.553
33.479
33.409
33.343
33.28
33.222
33.166
33.114
33.064
33.018
32.975
32.936
32.898
32.862
32.827
32.792
32.757
32.722
32.687
32.653
32.62
32.589
32.562
32.538
32.52
32.51
32.51
32.521
32.548
32.593
32.663
32.763
32.901
33.081
33.308
33.583
33.904
34.27
34.675
35.112
35.571
36.043
36.516
36.98
37.423
37.837
38.213
38.545
38.83
39.066
39.251
39.387
39.476
39.523
39.532
39.507
39.456
39.382
39.292
39.188
39.077
38.96
38.839
38.717
38.595
38.474
38.356
38.243
38.137
38.04
37.949
37.865
37.786
37.711
37.638
37.566
37.494
37.421
37.345
37.268
37.188
37.104
37.017
36.924
36.826
36.719
36.604
36.48
36.348
36.21
36.065
35.916
35.764
35.609
35.454
35.303
35.156
35.015
34.882
34.758
34.645
34.546
34.462
34.393
34.34
34.301
34.277
34.265
34.265
34.276
34.295
34.321
34.351
34.382
34.412
34.439
34.462
34.481
34.494
34.5
34.499
34.493
34.481
34.466
34.448
34.426
34.401
34.373
34.342
34.31
34.276
34.24
34.202
34.161
34.117
34.069
34.018
33.965
33.911
33.855
33.797
33.738
33.677
33.616
33.556
33.495
33.433
33.37
33.307
33.243
33.178
33.115
33.053
32.994
32.937
32.883
32.831
32.781
32.735
32.692
32.653
32.616
32.58
32.547
32.515
32.486
32.461
32.439
32.422
32.411
32.407
32.413
32.433
32.473
32.539
32.638
32.775
32.955
33.182
33.46
33.791
34.171
34.596
35.058
35.546
36.049
36.555
37.05
37.521
37.956
38.346
38.685
38.971
39.201
39.376
39.498
39.572
39.601
39.593
39.552
39.485
39.396
39.29
39.172
39.045
38.914
38.781
38.649
38.519
38.394
38.273
38.16
38.054
37.954
37.862
37.775
37.695
37.62
37.547
37.476
37.405
37.333
37.259
37.184
37.106
37.024
36.937
36.844
36.743
36.634
36.518
36.395
36.264
36.126
35.983
35.837
35.689
35.541
35.396
35.257
35.124
35.001
34.888
34.786
34.697
34.621
34.557
34.504
34.461
34.427
34.401
34.384
34.372
34.365
34.361
34.359
34.359
34.36
34.362
34.366
34.371
34.375
34.377
34.377
34.374
34.37
34.362
34.353
34.339
34.322
34.3
34.274
34.244
34.21
34.172
34.13
34.084
34.033
33.979
33.922
33.863
33.799
33.732
33.66
33.584
33.503
33.42
33.335
33.25
33.166
33.082
33.0
32.92
32.844
32.771
32.705
32.644
32.59
32.543
32.502
32.466
32.435
32.407
32.383
32.359
32.334
32.309
32.282
32.253
32.221
32.188
32.154
32.119
32.086
32.056
32.033
32.02
32.022
32.046
32.098
32.183
32.308
32.48
32.704
32.983
33.317
33.703
34.135
34.604
35.1
35.611
36.126
36.631
37.115
37.568
37.98
38.345
38.657
38.916
39.119
39.267
39.365
39.418
39.437
39.429
39.4
39.354
39.293
39.218
39.131
39.033
38.927
38.813
38.693
38.568
38.438
38.306
38.172
38.037
37.902
37.769
37.639
37.512
37.389
37.27
37.155
37.043
36.935
36.828
36.724
36.618
36.511
36.402
36.289
36.174
36.054
35.929
35.8
35.667
35.532
35.394
35.256
35.12
34.988
34.86
34.739
34.625
34.52
34.425
34.339
34.264
34.2
34.145
34.099
34.063
34.035
34.016
34.004
33.999
34.001
34.008
34.021
34.038
34.059
34.082
34.107
34.133
34.16
34.186
34.211
34.234
34.255
34.271
34.282
34.287
34.286
34.278
34.264
34.242
34.212
34.174
34.128
34.074
34.014
33.949
33.88
33.809
33.735
33.661
33.587
33.515
33.444
33.377
33.312
33.25
33.19
33.133
33.08
33.03
32.984
32.939
32.896
32.852
32.807
32.763
32.719
32.676
32.632
32.588
32.543
32.498
32.452
32.409
32.369
32.333
32.303
32.279
32.265
32.262
32.274
32.307
32.365
32.455
32.581
32.751
32.967
33.234
33.552
33.918
34.326
34.769
35.236
35.716
36.2
36.676
37.131
37.557
37.943
38.283
38.573
38.81
38.995
39.129
39.213
39.254
39.255
39.223
39.164
39.082
38.984
38.875
38.761
38.645
38.529
38.415
38.305
38.198
38.095
37.996
37.899
37.803
37.705
37.605
37.503
37.397
37.288
37.174
37.056
36.933
36.803
36.667
36.525
36.378
36.228
36.076
35.929
35.787
35.654
35.526
35.404
35.284
35.167
35.05
34.936
34.824
34.716
34.61
34.509
34.413
34.324
34.242
34.169
34.105
34.052
34.008
33.974
33.95
33.935
33.931
33.936
33.948
33.966
33.989
34.016
34.046
34.079
34.113
34.147
34.179
34.21
34.237
34.262
34.283
34.3
34.311
34.316
34.315
34.305
34.288
34.263
34.229
34.187
34.136
34.076
34.009
33.936
33.86
33.781
33.702
33.623
33.545
33.47
33.398
33.33
33.266
33.207
33.153
33.102
33.054
33.008
32.965
32.924
32.884
32.845
32.806
32.768
32.73
32.693
32.656
32.619
32.582
32.545
32.508
32.472
32.438
32.411
32.392
32.386
32.396
32.428
32.487
32.58
32.714
32.896
33.129
33.416
33.758
34.151
34.59
35.065
35.566
36.079
36.592
37.092
37.568
38.009
38.407
38.756
39.049
39.287
39.47
39.6
39.678
39.711
39.703
39.662
39.593
39.505
39.401
