Trial 1:0back
35.557
35.542
35.527
35.512
35.496
35.478
35.459
35.438
35.417
35.396
35.376
35.357
35.339
35.321
35.305
35.29
35.275
35.263
35.251
35.242
35.233
35.225
35.216
35.208
35.199
35.189
35.179
35.166
35.153
35.138
35.123
35.108
35.094
35.082
35.071
35.063
35.057
35.052
35.05
35.049
35.05
35.051
35.052
35.055
35.057
35.059
35.061
35.063
35.064
35.065
35.065
35.066
35.065
35.063
35.058
35.053
35.046
35.037
35.029
35.019
35.01
35.001
34.991
34.982
34.974
34.967
34.96
34.955
34.95
34.946
34.942
34.937
34.93
34.923
34.915
34.908
34.901
34.897
34.896
34.898
34.906
34.919
34.938
34.965
35.001
35.045
35.098
35.159
35.228
35.304
35.384
35.468
35.555
35.643
35.733
35.822
35.911
35.997
36.08
36.158
36.231
36.298
36.359
36.413
36.459
36.497
36.526
36.547
36.559
36.563
36.558
36.547
36.531
36.51
36.488
36.463
36.437
36.41
36.381
36.352
36.324
36.296
36.269
36.243
36.218
36.192
36.166
36.139
36.111
36.083
36.056
36.028
35.999
35.97
35.939
35.906
35.871
35.835
35.798
35.762
35.727
35.694
35.662
35.633
35.607
35.583
35.562
35.544
35.529
35.516
35.507
35.499
35.494
35.491
35.491
35.493
35.497
35.503
35.511
35.522
35.534
35.548
35.564
35.581
35.599
35.618
35.637
35.656
35.673
35.688
35.702
35.714
35.724
35.733
35.741
35.747
35.752
35.755
35.757
35.758
35.759
35.76
35.761
35.761
35.76
35.756
35.75
35.74
35.728
35.713
35.697
35.678
35.659
35.639
35.617
35.596
35.575
35.554
35.535
35.516
35.499
35.483
35.468
35.453
35.437
35.42
35.401
35.38
35.359
35.339
35.319
35.301
35.283
35.267
35.251
35.236
35.222
35.21
35.198
35.188
35.179
35.171
35.162
35.152
35.142
35.132
35.122
35.113
35.104
35.094
35.084
35.074
35.063
35.053
35.043
35.035
35.026
35.018
35.01
35.0
34.99
34.981
34.971
34.963
34.956
34.95
34.945
34.94
34.936
34.931
34.927
34.925
34.924
34.925
34.928
34.931
34.934
34.937
34.938
34.938
34.937
34.934
34.931
34.926
34.919
34.912
34.904
34.895
34.887
34.879
34.871
34.863
34.856
34.848
34.841
34.835
34.829
34.824
34.822
34.822
34.826
34.835
34.848
34.868
34.893
34.926
34.966
35.013
35.069
35.133
35.204
35.282
35.367
35.456
35.549
35.646
35.744
35.844
35.944
36.042
36.139
36.231
36.319
36.401
36.475
36.54
36.595
36.641
36.676
36.702
36.718
36.726
36.725
36.718
36.706
36.69
36.67
36.649
36.626
36.602
36.578
36.553
36.527
36.5
36.472
36.444
36.415
36.388
36.362
36.338
36.315
36.294
36.272
36.251
36.228
36.205
36.182
36.159
36.135
36.111
36.086
36.059
36.032
36.004
35.976
35.949
35.924
35.9
35.879
35.859
35.841
35.825
35.81
35.796
35.785
35.776
35.77
35.767
35.766
35.766
35.768
35.77
35.772
35.777
35.784
35.793
35.804
35.816
35.828
35.841
35.853
35.865
35.877
35.889
35.901
35.912
35.923
35.934
35.943
35.95
35.956
35.96
35.962
35.961
35.957
35.952
35.944
35.934
35.923
35.911
35.898
35.885
35.872
35.859
35.845
35.833
35.82
35.807
35.794
35.781
35.767
35.751
35.735
35.718
35.701
35.684
35.666
35.649
35.632
35.615
35.599
35.582
35.566
35.549
35.533
35.518
35.502
35.486
35.47
35.453
35.435
35.416
35.397
35.378
35.359
35.34
35.323
35.306
35.29
35.273
35.256
35.239
35.223
35.209
35.195
35.181
35.168
35.155
35.144
35.134
35.126
35.12
35.116
35.112
35.11
35.107
35.105
35.103
35.101
35.1
35.098
35.095
35.091
35.085
35.077
35.068
35.059
35.049
35.041
35.033
35.027
35.021
35.017
35.012
35.008
35.005
35.002
35.001
35.0
34.998
34.997
34.994
34.989
34.984
34.977
34.97
34.962
34.954
34.944
34.934
34.924
34.915
34.907
34.9
34.894
34.89
34.885
34.88
34.874
34.867
34.861
34.856
34.852
34.851
34.853
34.858
34.868
34.884
34.907
34.937
34.976
35.025
35.082
35.148
35.223
35.305
35.395
35.49
35.59
35.693
35.799
35.905
36.01
36.112
36.21
36.302
36.389
36.467
36.538
36.6
36.653
36.696
36.731
36.756
36.773
36.782
36.783
36.776
36.763
36.743
36.72
36.694
36.666
36.638
36.609
36.58
36.551
36.522
36.493
36.465
36.437
36.41
36.384
36.36
36.336
36.313
36.291
36.269
36.247
36.224
36.201
36.177
36.153
36.127
36.1
36.071
36.04
36.007
35.973
35.939
35.907
35.876
35.848
35.823
35.799
35.777
35.758
35.741
35.727
35.716
35.708
35.703
35.701
35.7
35.702
35.706
35.712
35.722
35.734
35.75
35.767
35.786
35.805
35.823
35.84
35.855
35.869
35.881
35.892
35.901
35.908
35.914
35.918
35.92
35.921
35.921
35.921
35.92
35.919
35.916
35.911
35.904
35.894
35.884
35.872
35.859
35.845
35.829
35.811
35.792
35.772
35.752
35.732
35.712
35.694
35.678
35.662
35.646
35.632
35.618
35.604
35.59
35.576
35.562
35.548
35.533
35.517
35.499
35.48
35.46
35.439
35.418
35.396
35.375
35.354
35.333
35.313
35.294
35.276
35.258
35.241
35.226
35.212
35.199
35.187
35.176
35.167
35.159
35.152
35.147
35.142
35.136
35.131
35.125
35.117
35.109
35.099
35.089
35.077
35.066
35.054
35.044
35.035
35.027
35.021
35.017
35.014
35.012
35.011
35.011
35.01
35.009
35.007
35.002
34.995
34.986
34.974
34.961
34.949
34.937
34.926
34.918
34.91
34.902
34.894
34.886
34.879
34.873
34.868
34.862
34.856
34.849
34.84
34.83
34.819
34.808
34.799
34.79
34.782
34.774
34.768
34.763
34.759
34.759
34.761
34.767
34.776
34.788
34.805
34.828
34.856
34.893
34.939
34.994
35.057
35.13
35.21
35.296
35.389
35.486
35.588
35.692
35.797
35.902
36.003
36.1
36.191
36.274
36.349
36.415
36.472
36.52
36.558
36.588
36.608
36.621
36.626
36.624
36.615
36.601
36.582
36.56
36.534
36.507
36.479
36.449
36.42
36.39
36.361
36.332
36.305
36.278
36.251
36.225
36.198
36.172
36.144
36.115
36.086
36.055
36.023
35.991
35.958
35.925
35.892
35.859
35.825
35.791
35.758
35.726
35.696
35.668
35.644
35.622
35.603
35.585
35.571
35.558
35.548
35.541
35.537
35.537
35.54
35.547
35.556
35.566
35.578
35.59
35.603
35.617
35.632
35.649
35.666
35.683
35.7
35.715
35.729
35.743
35.757
35.771
35.785
35.799
35.812
35.824
35.833
35.84
35.845
35.847
35.847
35.845
35.841
35.834
35.825
35.814
35.802
35.788
35.774
35.759
35.743
35.725
35.706
35.686
35.665
35.644
35.622
35.6
35.577
35.554
35.531
35.508
35.485
35.463
35.443
35.423
35.405
35.389
35.374
35.36
35.346
35.331
35.315
35.299
35.28
35.26
35.239
35.218
35.197
35.176
35.156
35.136
35.117
35.099
35.081
35.065
35.051
35.039
35.03
35.022
35.015
35.009
35.002
34.996
34.989
34.984
34.978
34.972
34.966
34.959
34.953
34.946
34.94
34.935
34.93
34.925
34.921
34.915
34.91
34.904
34.898
34.892
34.887
34.883
34.879
34.876
34.872
34.868
34.864
34.86
34.857
34.855
34.853
34.852
34.85
34.847
34.843
34.837
34.831
34.825
34.82
34.815
34.81
34.806
34.801
34.798
34.796
34.798
34.804
34.815
34.832
34.854
34.884
34.922
34.967
35.021
35.083
35.152
35.229
35.312
35.399
35.49
35.582
35.675
35.767
35.857
35.944
36.025
36.099
36.166
36.225
36.274
36.315
36.347
36.37
36.386
36.394
36.395
36.391
36.382
36.368
36.351
36.33
36.307
36.281
36.253
36.225
36.196
36.167
36.138
36.111
36.083
36.057
36.03
36.002
35.974
35.944
35.912
35.879
35.843
35.805
35.765
35.725
35.683
35.642
35.602
35.562
35.524
35.487
35.452
35.419
35.388
35.361
35.337
35.316
35.299
35.285
35.274
35.265
35.258
35.253
35.252
35.253
35.258
35.268
35.28
35.295
35.311
35.329
35.348
35.37
35.393
35.417
35.441
35.463
35.483
35.499
35.512
35.523
35.532
35.54
35.546
35.552
35.558
35.562
35.567
35.57
35.573
35.576
35.577
35.577
35.574
35.567
35.558
35.547
35.533
35.518
35.502
35.486
35.468
35.45
35.431
35.412
35.393
35.375
35.358
35.342
35.326
35.312
35.298
35.284
35.269
35.254
35.237
35.218
35.199
35.179
35.159
35.14
35.122
35.106
35.091
35.076
35.061
35.047
35.032
35.018
35.005
34.991
34.977
34.963
34.949
34.934
34.919
34.904
34.89
34.876
34.862
34.849
34.837
34.824
34.813
34.802
34.791
34.782
34.773
34.765
34.757
34.749
34.742
34.736
34.732
34.73
34.729
34.728
34.728
34.727
34.726
34.724
34.723
34.722
34.72
34.717
34.712
34.707
34.7
34.693
34.684
34.676
34.668
34.659
34.65
34.64
34.631
34.622
34.614
34.608
34.602
34.598
34.595
34.593
34.591
34.591
34.592
34.596
34.603
34.614
34.63
34.65
34.677
34.71
34.751
34.801
34.859
34.926
35.001
35.084
35.173
35.268
35.366
35.468
35.572
35.676
35.778
35.877
35.973
36.064
36.149
36.229
36.302
36.368
36.426
36.475
36.515
36.547
36.57
36.587
36.596
36.599
36.596
36.587
36.573
36.555
36.533
36.508
36.482
36.455
36.428
36.4
36.371
36.342
36.312
36.282
36.252
36.222
36.192
36.162
36.132
36.102
36.073
36.043
36.014
35.986
35.959
35.933
35.907
35.881
35.854
35.827
35.8
35.774
35.749
35.725
35.703
35.682
35.661
35.642
35.624
35.607
35.593
35.58
35.57
35.562
35.555
35.55
35.547
35.546
35.548
35.553
35.562
35.572
35.584
35.598
35.612
35.627
35.643
35.66
35.678
35.697
35.715
35.732
35.747
35.759
35.768
35.773
35.776
35.776
35.774
35.771
35.766
35.76
35.754
35.747
35.74
35.733
35.726
35.718
35.709
35.699
35.687
35.674
35.66
35.644
35.626
35.607
35.586
35.563
35.54
35.516
35.492
35.469
35.448
35.428
35.409
35.391
35.373
35.356
35.339
35.322
35.306
35.29
35.275
35.259
35.243
35.227
35.21
35.193
35.177
35.161
35.146
35.131
35.116
35.101
35.086
35.072
35.058
35.046
35.034
35.022
35.01
34.998
34.986
34.975
34.964
34.953
34.942
34.931
34.921
34.911
34.901
34.893
34.885
34.877
34.869
34.862
34.854
34.847
34.842
34.837
34.834
34.833
34.832
34.832
34.832
34.831
34.83
34.829
34.827
34.824
34.819
34.811
34.8
34.786
34.771
34.755
34.74
34.726
34.714
34.703
34.694
34.686
34.68
34.676
34.675
34.675
34.677
34.68
34.684
34.689
34.696
34.704
34.716
34.731
34.752
34.778
34.81
34.85
34.897
34.954
35.021
35.097
35.183
35.277
35.378
35.484
35.592
35.702
35.811
35.917
36.019
36.115
36.205
36.286
36.36
36.424
36.48
36.526
36.563
36.592
36.614
36.628
36.635
36.635
36.628
36.616
36.599
36.578
36.555
36.53
36.503
36.476
36.448
36.421
36.395
36.369
36.345
36.321
36.297
36.273
36.248
36.222
36.195
36.167
36.138
36.109
36.078
36.046
36.014
35.982
35.951
35.92
35.89
35.861
35.832
35.804
35.776
35.747
35.72
35.693
35.669
35.647
35.627
35.609
35.593
35.579
35.568
35.558
35.553
35.55
35.551
35.555
35.562
35.57
35.581
35.594
35.609
35.626
35.645
35.665
35.687
35.708
35.728
35.747
35.764
35.78
35.793
35.805
35.813
35.818
35.819
35.817
35.811
35.804
35.794
35.783
35.772
35.759
35.745
35.73
35.715
35.699
35.683
35.667
35.652
35.636
35.621
35.605
35.59
35.574
35.558
35.542
35.526
35.51
35.493
35.477
35.46
35.442
35.424
35.405
35.385
35.365
35.343
35.322
35.299
35.277
35.255
35.232
35.21
35.187
35.165
35.143
35.123
35.104
35.087
35.071
35.056
35.041
35.027
35.012
34.998
34.984
34.971
34.958
34.946
34.935
34.922
34.909
34.896
34.882
34.869
34.857
34.847
34.838
34.831
34.825
34.82
34.816
34.813
34.81
34.808
34.805
34.802
34.799
34.795
34.79
34.786
34.782
34.779
34.777
34.776
34.776
34.774
34.772
34.768
34.763
34.756
34.75
34.743
34.736
34.729
34.721
34.712
34.703
34.693
34.684
34.675
34.667
34.66
34.654
34.649
34.645
34.64
34.637
34.633
34.629
34.624
34.619
34.614
34.61
34.608
34.608
34.611
34.619
34.63
34.648
34.673
34.707
34.749
34.8
34.86
34.927
35.002
35.084
35.172
35.267
35.366
35.47
35.577
35.685
35.793
35.898
36.0
36.097
36.187
36.271
36.347
36.414
36.471
36.517
36.554
36.581
36.599
36.609
36.611
36.607
36.598
36.585
36.566
36.543
36.516
36.485
36.452
36.418
36.383
36.348
36.313
36.278
36.244
36.21
36.177
36.145
36.116
36.088
36.062
36.035
36.008
35.98
35.95
35.918
35.884
35.849
35.813
35.775
35.737
35.699
35.66
35.624
35.589
35.557
35.529
35.505
35.484
35.467
35.453
35.441
35.432
35.425
35.42
35.418
35.418
35.421
35.426
35.433
35.443
35.455
35.468
35.483
35.499
35.515
35.532
35.548
35.564
35.58
35.594
35.607
35.618
35.628
35.635
35.642
35.647
35.652
35.656
35.659
35.662
35.662
35.661
35.658
35.652
35.644
35.635
35.625
35.613
35.599
35.585
35.569
35.552
35.536
35.519
35.503
35.488
35.472
35.456
35.44
35.423
35.406
35.39
35.373
35.356
35.339
35.32
35.3
35.279
35.257
35.234
35.211
35.189
35.167
35.145
35.123
35.1
35.076
35.054
35.032
35.011
34.992
34.974
34.958
34.942
34.927
34.912
34.898
34.886
34.875
34.866
34.857
34.85
34.842
34.834
34.826
34.817
34.807
34.798
34.788
34.778
34.767
34.757
34.746
34.736
34.725
34.715
34.706
34.697
34.69
34.684
34.68
34.677
34.675
34.673
34.672
34.671
34.669
34.668
34.666
34.666
34.665
34.665
34.665
34.665
34.664
34.662
34.66
34.656
34.65
34.642
34.632
34.619
34.606
34.592
34.578
34.565
34.553
34.542
34.532
34.523
34.515
34.509
34.506
34.507
34.512
34.521
34.533
34.549
34.569
34.595
34.627
34.667
34.715
34.772
34.837
34.911
34.992
35.081
35.176
35.277
35.382
35.488
35.594
35.698
35.797
35.89
35.976
36.054
36.124
36.185
36.237
36.28
36.314
36.339
36.357
36.367
36.371
36.369
36.362
36.351
36.336
36.318
36.296
36.272
36.244
36.215
36.183
36.151
36.117
36.083
36.049
36.015
35.981
35.948
35.915
35.884
35.853
35.822
35.792
35.76
35.728
35.695
35.661
35.626
35.59
35.552
35.515
35.476
35.439
35.402
35.367
35.334
35.303
35.275
35.251
35.23
35.212
35.199
35.19
35.184
35.181
35.182
35.185
35.191
35.2
35.211
35.226
35.243
35.263
35.284
35.307
35.329
35.352
35.374
35.395
35.417
35.438
35.458
35.477
35.495
35.511
35.525
35.537
35.547
35.554
35.56
35.563
35.565
35.564
35.561
35.556
35.55
35.543
35.535
35.525
35.515
35.503
35.49
35.476
35.462
35.448
35.432
35.415
35.397
35.376
35.353
35.328
35.302
35.277
35.253
35.23
35.21
35.191
35.174
35.159
35.144
35.131
35.119
35.107
35.096
35.084
35.072
35.058
35.043
35.026
35.009
34.991
34.974
34.958
34.942
34.926
34.91
34.895
34.879
34.864
34.85
34.836
34.823
34.812
34.803
34.795
34.788
34.782
34.776
34.771
34.764
34.758
34.752
34.747
34.743
34.74
34.739
34.738
34.737
34.736
34.735
34.732
34.729
34.724
34.717
34.708
34.696
34.683
34.67
34.658
34.647
34.638
34.63
34.625
34.621
34.618
34.618
34.62
34.624
34.631
34.64
34.653
34.668
34.686
34.709
34.737
34.772
34.815
34.866
34.926
34.993
35.068
35.15
35.237
35.33
35.427
35.527
35.628
35.729
35.827
35.921
36.009
36.089
36.161
36.226
36.282
36.332
36.374
36.409
36.436
36.456
36.468
36.473
36.471
36.464
36.453
36.437
36.416
36.392
36.365
36.336
36.305
36.273
36.241
36.209
36.177
36.145
36.113
36.08
36.047
36.014
35.981
35.948
35.914
35.88
35.845
35.809
35.772
35.735
35.697
35.659
35.621
35.583
35.545
35.507
35.468
35.43
35.393
35.357
35.325
35.296
35.271
35.248
35.23
35.215
35.204
35.198
35.197
35.202
35.211
35.224
35.242
35.263
35.285
35.309
35.333
35.356
35.379
35.4
35.42
35.44
35.46
35.479
35.496
35.512
35.527
35.54
35.551
35.562
35.57
35.577
35.582
35.585
35.584
35.58
35.572
35.561
35.547
35.531
35.515
35.498
35.481
35.464
35.447
35.429
35.411
35.391
35.372
35.353
35.333
35.314
35.294
35.274
35.254
35.234
35.215
35.196
35.178
35.16
35.142
35.124
35.105
35.085
35.064
35.043
35.022
35.001
34.982
34.964
34.946
34.93
34.915
34.901
34.89
34.88
34.871
34.863
34.854
34.844
34.834
34.822
34.811
34.799
34.787
34.774
34.76
34.746
34.73
34.715
34.7
34.687
34.676
34.667
34.66
34.653
34.647
34.642
34.636
34.632
34.629
34.626
34.623
34.619
34.615
34.611
34.606
34.601
34.596
34.591
34.587
34.584
34.581
34.579
34.579
34.582
34.587
34.595
34.607
34.623
34.643
34.668
34.699
34.738
34.786
34.844
34.912
34.991
35.079
35.177
35.283
35.397
35.516
35.639
35.764
35.889
36.011
36.128
36.239
36.343
36.438
36.524
36.6
36.666
36.722
36.768
36.805
36.833
36.854
36.866
36.872
36.869
36.86
36.845
36.824
36.8
36.774
36.746
36.718
36.689
36.659
36.63
36.6
36.571
36.543
36.515
36.488
36.46
36.431
36.399
36.366
36.331
36.294
36.255
36.215
36.175
36.134
36.093
36.052
36.012
35.972
35.933
35.896
35.86
35.827
35.795
35.765
35.738
35.713
35.69
35.671
35.654
35.641
35.631
35.624
35.619
35.617
35.616
35.617
35.621
35.626
35.634
35.645
35.657
35.671
35.687
35.705
35.725
35.747
35.772
35.799
35.826
35.853
35.877
35.899
35.916
35.93
35.94
35.946
35.949
35.947
35.942
35.933
35.922
35.907
35.891
35.875
35.859
35.843
35.828
35.812
35.795
35.776
35.757
35.738
35.718
35.699
35.681
35.663
35.644
35.624
35.604
35.582
35.56
35.538
35.517
35.496
35.476
35.457
35.438
35.42
35.4
35.381
35.36
35.339
35.318
35.297
35.276
35.256
35.236
35.216
35.196
35.176
35.157
35.139
35.121
35.104
35.088
35.073
35.058
35.043
35.028
35.012
34.997
34.982
34.969
34.957
34.948
34.94
34.933
34.926
34.919
34.912
34.904
34.896
34.886
34.877
34.867
34.857
34.846
34.836
34.826
34.817
34.809
34.802
34.796
34.79
34.784
34.778
34.773
34.771
34.77
34.771
34.774
34.779
34.787
34.798
34.813
34.835
34.864
34.899
34.943
34.994
35.052
35.119
35.193
35.277
35.369
35.469
35.575
35.686
35.799
35.913
36.027
36.139
36.249
36.356
36.459
36.558
36.651
36.736
36.813
36.879
36.935
36.981
37.017
37.043
37.06
37.069
37.069
37.063
37.051
37.034
37.013
36.989
36.964
36.936
36.907
36.876
36.843
36.809
36.774
36.738
36.702
36.667
36.633
36.6
36.568
36.538
36.507
36.477
36.447
36.416
36.384
36.35
36.314
36.276
36.238
36.198
36.157
36.116
36.074
36.034
35.995
35.957
35.921
35.887
35.857
35.83
35.807
35.788
35.772
35.759
35.749
35.742
35.737
35.735
35.735
35.74
35.748
35.759
35.773
35.791
35.811
35.832
35.855
35.878
35.901
35.923
35.943
35.961
35.976
35.99
36.0
36.009
36.014
36.017
36.017
36.015
36.01
36.002
35.992
35.979
35.966
35.951
35.935
35.918
35.901
35.884
35.867
35.851
35.835
35.819
35.804
35.787
35.77
35.751
35.73
35.709
35.686
35.662
35.637
35.611
35.583
35.553
35.522
35.491
35.461
35.432
35.405
35.38
35.356
35.333
35.309
35.285
35.261
35.239
35.218
35.2
35.183
35.167
35.153
35.139
35.124
35.11
35.095
35.081
35.068
35.055
35.042
35.029
35.015
35.001
34.987
34.973
34.959
34.944
34.928
34.91
34.892
34.874
34.857
34.843
34.83
34.819
34.81
34.802
34.794
34.787
34.78
34.774
34.768
34.763
34.759
34.755
34.75
34.746
34.742
34.738
34.735
34.733
34.731
34.73
34.73
34.73
34.73
34.732
34.735
34.738
34.743
34.748
34.756
34.766
34.781
34.801
34.828
34.862
34.905
34.958
35.02
35.093
35.175
35.267
35.368
35.477
35.593
35.713
35.836
35.958
36.079
36.196
36.308
36.414
36.511
36.6
36.679
36.748
36.807
36.855
36.895
36.925
36.948
36.963
36.971
36.972
36.966
36.955
36.937
36.915
36.887
36.857
36.825
36.791
36.756
36.721
36.685
36.649
36.613
36.577
36.541
36.505
36.469
36.433
36.398
36.362
36.327
36.292
36.257
36.221
36.184
36.145
36.105
36.063
36.021
35.978
35.936
35.895
35.855
35.817
35.78
35.746
35.714
35.686
35.661
