Trial 1:0back
33.745
33.744
33.744
33.745
33.746
33.747
33.748
33.747
33.744
33.739
33.731
33.72
33.705
33.686
33.665
33.641
33.614
33.586
33.556
33.524
33.49
33.454
33.417
33.378
33.338
33.296
33.253
33.21
33.167
33.124
33.081
33.04
33.001
32.964
32.931
32.902
32.877
32.859
32.849
32.848
32.858
32.884
32.927
32.991
33.078
33.193
33.336
33.509
33.712
33.943
34.2
34.481
34.781
35.097
35.423
35.755
36.087
36.416
36.736
37.044
37.336
37.609
37.862
38.092
38.299
38.481
38.639
38.772
38.883
38.971
39.04
39.089
39.122
39.137
39.138
39.125
39.099
39.06
39.011
38.953
38.885
38.811
38.729
38.641
38.549
38.451
38.35
38.246
38.139
38.03
37.92
37.808
37.697
37.585
37.474
37.363
37.253
37.143
37.034
36.925
36.815
36.706
36.598
36.491
36.387
36.287
36.193
36.104
36.024
35.951
35.888
35.835
35.791
35.758
35.736
35.725
35.725
35.737
35.76
35.794
35.837
35.887
35.943
36.002
36.064
36.126
36.187
36.245
36.3
36.349
36.393
36.431
36.464
36.492
36.516
36.536
36.551
36.562
36.568
36.569
36.565
36.554
36.538
36.516
36.488
36.455
36.417
36.375
36.327
36.275
36.219
36.16
36.097
36.032
35.966
35.901
35.835
35.769
35.704
35.638
35.57
35.501
35.429
35.355
35.279
35.203
35.126
35.05
34.977
34.907
34.84
34.779
34.724
34.675
34.631
34.592
34.557
34.526
34.498
34.473
34.449
34.428
34.407
34.388
34.369
34.35
34.333
34.316
34.301
34.288
34.276
34.266
34.258
34.25
34.244
34.238
34.233
34.227
34.22
34.212
34.203
34.193
34.182
34.169
34.157
34.145
34.132
34.119
34.104
34.086
34.066
34.042
34.014
33.983
33.949
33.913
33.874
33.834
33.793
33.753
33.713
33.675
33.637
33.601
33.565
33.53
33.495
33.463
33.433
33.408
33.389
33.379
33.381
33.397
33.431
33.483
33.557
33.655
33.777
33.925
34.097
34.293
34.512
34.751
35.008
35.281
35.566
35.86
36.158
36.455
36.748
37.033
37.305
37.562
37.8
38.017
38.213
38.386
38.537
38.665
38.771
38.857
38.923
38.971
39.003
39.019
39.021
39.011
38.99
38.959
38.921
38.875
38.823
38.765
38.701
38.631
38.557
38.477
38.394
38.307
38.216
38.123
38.027
37.928
37.827
37.722
37.615
37.504
37.391
37.275
37.156
37.035
36.914
36.793
36.672
36.554
36.439
36.33
36.226
36.129
36.038
35.955
35.881
35.815
35.759
35.714
35.68
35.657
35.646
35.645
35.653
35.67
35.695
35.728
35.767
35.813
35.863
35.915
35.967
36.017
36.064
36.105
36.141
36.17
36.194
36.211
36.223
36.232
36.237
36.239
36.238
36.233
36.224
36.211
36.193
36.169
36.139
36.102
36.059
36.008
35.952
35.89
35.824
35.754
35.681
35.607
35.53
35.453
35.375
35.296
35.217
35.137
35.057
34.976
34.895
34.813
34.732
34.653
34.576
34.501
34.429
34.36
34.293
34.229
34.167
34.108
34.05
33.994
33.94
33.887
33.836
33.788
33.744
33.704
33.669
33.639
33.615
33.595
33.58
33.567
33.558
33.55
33.543
33.538
33.533
33.53
33.527
33.525
33.523
33.523
33.524
33.527
33.532
33.538
33.546
33.556
33.566
33.576
33.587
33.596
33.605
33.611
33.616
33.62
33.622
33.623
33.624
33.626
33.627
33.627
33.626
33.622
33.616
33.607
33.594
33.578
33.56
33.539
33.517
33.494
33.472
33.45
33.43
33.413
33.4
33.392
33.391
33.399
33.42
33.456
33.509
33.583
33.679
33.801
33.95
34.127
34.332
34.563
34.818
35.094
35.388
35.694
36.008
36.324
36.64
36.949
37.25
37.54
37.815
38.075
38.317
38.541
38.744
38.926
39.088
39.23
39.352
39.454
39.539
39.608
39.66
39.697
39.719
39.728
39.725
39.71
39.684
39.647
39.6
39.544
39.482
39.415
39.344
39.27
39.193
39.112
39.027
38.939
38.848
38.757
38.667
38.579
38.493
38.409
38.327
38.244
38.161
38.076
37.988
37.898
37.804
37.706
37.607
37.507
37.408
37.31
37.214
37.122
37.035
36.953
36.878
36.811
36.753
36.704
36.664
36.634
36.613
36.599
36.593
36.594
36.599
36.609
36.623
36.639
36.658
36.679
36.701
36.723
36.744
36.764
36.782
36.797
36.809
36.818
36.823
36.823
36.818
36.809
36.794
36.776
36.753
36.727
36.697
36.662
36.624
36.581
36.535
36.484
36.431
36.375
36.317
36.258
36.197
36.134
36.07
36.003
35.934
35.863
35.789
35.712
35.633
35.552
35.47
35.387
35.304
35.222
35.141
35.064
34.99
34.921
34.855
34.793
34.734
34.677
34.622
34.569
34.518
34.469
34.422
34.379
34.34
34.304
34.273
34.244
34.219
34.195
34.172
34.15
34.128
34.108
34.09
34.073
34.057
34.042
34.028
34.015
34.002
33.991
33.981
33.972
33.963
33.954
33.945
33.936
33.927
33.918
33.91
33.903
33.898
33.894
33.892
33.891
33.891
33.892
33.893
33.893
33.891
33.886
33.877
33.863
33.845
33.822
33.796
33.765
33.732
33.695
33.656
33.614
33.569
33.524
33.477
33.43
33.383
33.337
33.293
33.252
33.214
33.183
33.159
33.146
33.146
33.161
33.196
33.252
33.333
33.44
33.576
33.741
33.936
34.161
34.413
34.692
34.994
35.314
35.649
35.991
36.337
36.68
37.015
37.339
37.648
37.939
38.209
38.458
38.685
38.89
39.071
39.231
39.367
39.483
39.577
39.653
39.711
39.754
39.782
39.797
39.799
39.789
39.768
39.737
39.695
39.644
39.587
39.523
39.457
39.387
39.315
39.241
39.166
39.091
39.015
38.94
38.866
38.793
38.719
38.645
38.57
38.493
38.414
38.332
38.247
38.159
38.068
37.974
37.881
37.787
37.694
37.603
37.517
37.438
37.365
37.3
37.241
37.188
37.14
37.097
37.056
37.019
36.985
36.954
36.924
36.896
36.872
36.85
36.833
36.82
36.812
36.807
36.806
36.808
36.811
36.816
36.822
36.827
36.831
36.832
36.828
36.821
36.809
36.794
36.777
36.759
36.739
36.716
36.69
36.659
36.624
36.585
36.54
36.491
36.438
36.381
36.319
36.253
36.181
36.104
36.022
35.934
35.844
35.752
35.66
35.568
35.477
35.385
35.295
35.206
35.119
35.032
34.948
34.866
34.786
34.709
34.635
34.563
34.494
34.428
34.364
34.303
34.245
34.189
34.136
34.085
34.037
33.992
33.95
33.911
33.874
33.839
33.807
33.775
33.744
33.712
33.679
33.645
33.61
33.575
33.541
33.507
33.475
33.445
33.418
33.392
33.368
33.345
33.324
33.306
33.291
33.278
33.267
33.257
33.248
33.239
33.23
33.221
33.211
33.199
33.186
33.171
33.154
33.133
33.111
33.085
33.058
33.029
32.998
32.967
32.936
32.905
32.874
32.842
32.811
32.781
32.75
32.72
32.688
32.655
32.62
32.583
32.543
32.501
32.457
32.411
32.364
32.318
32.274
32.232
32.195
32.162
32.137
32.12
32.113
32.119
32.139
32.177
32.235
32.317
32.425
32.562
32.731
32.932
33.165
33.43
33.724
34.044
34.386
34.745
35.114
35.487
35.859
36.224
36.579
36.918
37.24
37.542
37.821
38.076
38.306
38.508
38.684
38.833
38.957
39.057
39.135
39.193
39.231
39.25
39.252
39.24
39.216
39.181
39.136
39.082
39.018
38.947
38.867
38.781
38.688
38.59
38.487
38.38
38.269
38.156
38.043
37.931
37.819
37.71
37.604
37.5
37.397
37.295
37.195
37.096
37.0
36.906
36.816
36.731
36.658
36.598
36.551
36.514
36.483
36.457
36.432
36.404
36.373
36.335
36.291
36.242
36.189
36.137
36.086
36.039
35.998
35.962
35.933
35.909
35.891
35.879
35.871
35.868
35.869
35.874
35.882
35.892
35.902
35.911
35.919
35.923
35.925
35.922
35.915
35.903
35.887
35.865
35.839
35.809
35.775
35.737
35.694
35.646
35.593
35.534
35.471
35.404
35.333
35.261
35.187
35.113
35.039
34.965
34.893
34.819
34.745
34.669
34.591
34.513
34.434
34.355
34.276
34.197
34.12
34.043
33.97
33.899
33.832
33.768
33.705
33.644
33.583
33.523
33.464
33.407
33.352
33.3
33.251
33.207
33.168
33.134
33.104
33.079
33.056
33.035
33.015
32.994
32.971
32.946
32.92
32.891
32.863
32.835
32.809
32.786
32.767
32.752
32.741
32.733
32.727
32.723
32.719
32.715
32.711
32.707
32.703
32.697
32.692
32.686
32.679
32.672
32.665
32.656
32.647
32.638
32.628
32.62
32.615
32.613
32.614
32.616
32.618
32.619
32.617
32.612
32.602
32.587
32.566
32.541
32.512
32.478
32.441
32.401
32.359
32.316
32.273
32.23
32.188
32.148
32.108
32.071
32.035
32.001
31.968
31.936
31.905
31.874
31.844
31.813
31.783
31.754
31.725
31.699
31.676
31.66
31.651
31.655
31.676
31.717
31.784
31.879
32.007
32.171
32.372
32.61
32.883
33.19
33.528
33.893
34.279
34.681
35.09
35.501
35.905
36.296
36.669
37.019
37.342
37.636
37.899
38.13
38.328
38.495
38.633
38.743
38.827
38.889
38.931
38.954
38.963
38.958
38.943
38.917
38.883
38.841
38.791
38.733
38.668
38.595
38.517
38.434
38.345
38.253
38.158
38.06
37.96
37.859
37.755
37.65
37.544
37.436
37.328
37.219
37.11
37.001
36.892
36.783
36.672
36.561
36.448
36.333
36.219
36.104
35.992
35.885
35.783
35.69
35.605
35.531
35.466
35.412
35.367
35.333
35.307
35.291
35.284
35.286
35.297
35.316
35.343
35.376
35.414
35.456
35.5
35.545
35.589
35.632
35.673
35.713
35.75
35.786
35.819
35.849
35.876
35.899
35.917
35.93
35.938
35.942
35.94
35.935
35.927
35.916
35.902
35.885
35.866
35.843
35.816
35.786
35.752
35.714
35.673
35.628
35.579
35.527
35.471
35.413
35.353
35.292
35.229
35.165
35.1
35.034
34.965
34.895
34.823
34.751
34.678
34.604
34.53
34.456
34.382
34.307
34.231
34.154
34.076
33.997
33.918
33.838
33.76
33.682
33.606
33.533
33.462
33.395
33.331
33.271
33.213
33.159
33.106
33.055
33.007
32.962
32.92
32.882
32.849
32.821
32.798
32.78
32.767
32.757
32.75
32.745
32.741
32.736
32.732
32.728
32.723
32.72
32.718
32.717
32.718
32.72
32.723
32.728
32.732
32.736
32.739
32.74
32.739
32.735
32.728
32.717
32.703
32.685
32.664
32.64
32.614
32.587
32.558
32.529
32.499
32.469
32.437
32.405
32.371
32.335
32.296
32.254
32.21
32.163
32.115
32.066
32.017
31.967
31.917
31.866
31.815
31.762
31.709
31.654
31.599
31.543
31.488
31.436
31.387
31.341
31.3
31.265
31.236
31.216
31.206
31.21
31.23
31.269
31.332
31.421
31.54
31.69
31.876
32.098
32.357
32.653
32.984
33.347
33.736
34.147
34.573
35.006
35.441
35.871
36.288
36.687
37.063
37.412
37.73
38.017
38.271
38.492
38.68
38.836
38.961
39.059
39.131
39.18
39.208
39.219
39.213
39.194
39.161
39.117
39.065
39.005
38.939
38.868
38.79
38.705
38.612
38.513
38.406
38.293
38.173
38.048
37.918
37.783
37.645
37.503
37.36
37.214
37.067
36.919
36.77
36.62
36.47
36.318
36.167
36.018
35.871
35.728
35.59
35.458
35.334
35.218
35.111
35.014
34.929
34.857
34.799
34.755
34.725
34.709
34.706
34.717
34.738
34.77
34.811
34.859
34.913
34.971
35.032
35.094
35.156
35.217
35.276
35.331
35.383
35.432
35.479
35.521
35.56
35.593
35.622
35.644
35.661
35.672
35.676
35.674
35.665
35.65
35.628
35.599
35.564
35.523
35.478
35.431
35.382
35.331
35.28
35.227
35.171
35.112
35.048
34.978
34.902
34.821
34.734
34.642
34.547
34.449
34.35
34.251
34.154
34.06
33.967
33.876
33.786
33.699
33.615
33.534
33.457
33.385
33.319
33.259
33.204
33.155
33.112
33.074
33.041
33.012
32.987
32.965
32.944
32.924
32.905
32.885
32.864
32.843
32.821
32.8
32.779
32.76
32.744
32.729
32.716
32.704
32.693
32.683
32.673
32.663
32.652
32.641
32.631
32.621
32.612
32.604
32.596
32.59
32.585
32.58
32.577
32.575
32.573
32.571
32.569
32.566
32.564
32.56
32.557
32.552
32.547
32.541
32.534
32.528
32.52
32.51
32.498
32.482
32.462
32.438
32.41
32.378
32.342
32.304
32.263
32.221
32.177
32.131
32.084
32.035
31.985
31.934
31.883
31.833
31.786
31.743
31.707
31.68
31.664
31.663
31.681
31.72
31.784
31.878
32.003
32.163
32.36
32.593
32.863
33.168
33.505
33.871
34.262
34.671
35.095
35.525
35.954
36.377
36.785
37.174
37.539
37.876
38.182
38.455
38.693
38.898
39.07
39.21
39.32
39.402
39.458
39.49
39.501
39.493
39.469
39.432
39.383
39.325
39.259
39.185
39.103
39.016
38.922
38.822
38.716
38.603
38.483
38.357
38.226
38.09
37.952
37.81
37.667
37.524
37.38
37.235
37.091
36.947
36.802
36.657
36.512
36.367
36.222
36.077
35.933
35.792
35.655
35.523
35.399
35.282
35.174
35.076
34.988
34.913
34.851
34.804
34.772
34.756
34.754
34.765
34.788
34.822
34.866
34.917
34.975
35.038
35.105
35.174
35.245
35.316
35.386
35.454
35.518
35.577
35.63
35.676
35.713
35.743
35.766
35.78
35.788
35.788
35.782
35.77
35.751
35.726
35.696
35.661
35.621
35.577
35.529
35.476
35.419
35.358
35.294
35.227
35.157
35.085
35.01
34.931
34.85
34.766
34.68
34.592
34.502
34.413
34.323
34.234
34.146
34.058
33.97
33.883
33.796
33.71
33.625
33.543
33.463
33.386
33.312
33.241
33.173
33.106
33.042
32.979
32.917
32.858
32.802
32.748
32.697
32.65
32.606
32.566
32.53
32.497
32.469
32.444
32.421
32.401
32.381
32.363
32.345
32.328
32.313
32.298
32.285
32.274
32.265
32.258
32.254
32.252
32.253
32.258
32.266
32.275
32.286
32.298
32.311
32.323
32.334
32.343
32.351
32.357
32.361
32.362
32.362
32.36
32.356
32.352
32.346
32.339
32.33
32.321
32.311
32.299
32.286
32.272
32.255
32.238
32.218
32.196
32.171
32.143
32.112
32.079
32.043
32.006
31.97
31.936
31.903
31.875
31.853
31.839
31.838
31.853
31.889
31.949
32.039
32.163
32.325
32.528
32.774
33.062
33.391
33.759
34.159
34.588
35.036
35.498
35.965
36.429
36.883
37.321
37.736
38.125
38.482
38.805
39.092
39.344
39.561
39.743
39.894
40.014
40.107
40.175
40.221
40.247
40.255
40.247
40.226
40.193
40.149
40.098
40.038
39.972
39.899
39.82
39.736
39.647
39.552
39.454
39.352
39.245
39.135
39.021
38.903
38.782
38.658
38.531
38.402
38.271
38.138
38.004
37.868
37.73
37.592
37.452
37.312
37.172
37.032
36.894
36.76
36.63
36.506
36.389
36.281
36.182
36.093
36.017
35.951
35.899
35.858
35.83
35.815
35.811
35.819
35.836
35.864
35.899
35.942
35.991
36.043
36.098
36.154
36.21
36.264
36.317
36.367
36.414
36.457
36.495
36.527
36.554
36.573
36.586
36.591
36.589
36.578
36.56
36.534
36.5
36.458
36.409
36.354
36.294
36.229
36.159
36.086
36.009
35.93
35.85
35.769
35.688
35.607
35.525
35.443
35.361
35.279
35.196
35.111
35.024
34.934
34.843
34.751
34.658
34.565
34.473
34.382
34.292
34.203
34.117
34.034
33.953
33.876
33.803
33.733
33.667
33.606
33.549
33.498
33.453
33.413
33.376
33.343
33.311
33.28
33.251
33.221
33.192
33.163
33.135
33.108
33.082
33.059
33.037
33.018
33.001
32.987
32.975
32.965
32.956
32.95
32.945
32.942
32.94
32.939
32.939
32.94
32.941
32.942
32.943
32.943
32.942
32.94
32.938
32.935
32.932
32.928
32.924
32.918
32.91
32.901
32.89
32.878
32.865
32.851
32.836
32.821
32.804
32.786
32.766
32.746
32.723
32.697
32.67
32.64
32.61
32.579
32.549
32.518
32.487
32.457
32.427
32.397
32.369
32.342
32.318
32.297
32.28
32.269
32.266
32.275
32.3
32.345
32.415
32.514
32.648
32.82
33.034
33.291
33.592
33.935
34.315
34.724
35.155
35.599
36.054
36.514
36.971
37.417
37.848
38.257
38.64
38.992
39.308
39.587
39.827
40.029
40.194
40.322
40.418
40.483
40.522
40.538
40.534
40.512
40.476
40.428
40.371
40.306
40.234
40.157
40.076
39.991
39.904
39.814
39.723
39.629
39.533
39.434
39.334
39.232
39.127
39.021
38.913
38.802
38.689
38.574
38.456
38.336
38.213
38.088
37.961
37.831
37.699
37.566
37.431
37.297
37.164
37.034
36.907
36.785
36.67
36.563
36.465
36.376
36.299
36.234
36.181
36.14
36.112
36.094
36.086
36.089
36.099
36.116
36.139
36.166
36.198
36.234
36.274
36.318
36.363
36.41
36.457
36.503
36.547
36.589
36.626
36.657
36.682
36.699
36.708
36.708
36.702
36.689
36.67
36.646
36.617
36.586
36.55
36.511
36.468
36.421
36.37
36.316
36.258
36.195
36.129
36.059
35.984
35.906
35.824
35.737
35.648
35.555
35.459
35.36
35.257
35.152
35.046
34.939
34.834
34.731
34.629
34.53
34.435
34.346
34.263
34.187
34.118
34.056
33.998
33.944
33.894
33.845
33.798
33.752
33.707
33.664
33.621
33.578
33.535
33.494
33.453
33.416
33.381
33.35
33.323
33.3
33.282
33.268
33.259
33.252
33.247
33.243
33.239
33.237
33.235
33.234
33.235
33.237
33.24
33.244
33.249
33.254
33.26
33.266
33.272
33.277
33.281
33.282
33.282
33.279
33.274
33.267
33.26
33.252
33.242
33.232
33.219
33.206
33.19
33.172
33.15
33.126
33.099
33.071
33.04
33.008
32.974
32.938
32.901
32.862
32.822
32.78
32.737
32.694
32.651
32.609
32.567
32.528
32.491
32.457
32.429
32.41
32.402
32.409
32.434
32.482
32.555
32.658
32.794
32.966
33.176
33.425
33.713
34.037
34.394
34.78
35.189
35.615
36.051
36.49
36.926
37.35
37.759
38.146
38.509
38.843
39.146
39.417
39.655
39.86
40.032
40.173
40.285
40.369
40.428
40.465
40.48
40.477
40.457
40.422
40.373
40.313
40.243
40.166
40.084
39.996
39.905
39.81
39.713
39.612
39.509
39.405
39.298
39.19
39.08
38.969
38.857
38.744
38.63
38.515
38.398
38.278
38.156
38.031
37.905
37.776
37.645
37.512
37.379
37.245
37.112
36.982
36.857
36.739
36.629
36.53
36.441
36.362
36.294
36.238
36.193
36.162
36.142
36.135
36.14
36.154
36.178
36.21
36.249
36.293
36.34
36.388
36.436
36.482
36.525
36.564
36.599
36.629
36.653
36.673
36.687
36.697
36.702
36.703
36.701
36.694
36.684
36.67
36.651
36.629
36.603
36.573
36.539
36.5
36.456
36.406
36.351
36.289
36.223
36.151
36.075
35.995
35.913
35.828
35.742
35.654
35.566
35.478
35.39
35.303
35.216
35.131
35.046
34.961
34.877
34.794
34.712
34.631
34.553
34.476
34.402
34.33
34.259
34.189
34.121
34.053
33.988
33.924
33.862
33.801
33.742
33.685
33.632
33.581
33.534
33.49
33.45
33.413
33.38
33.349
33.32
33.295
33.272
33.253
33.236
33.223
33.214
33.207
33.204
33.203
33.205
33.209
33.215
33.223
33.231
33.239
33.246
33.253
33.259
33.265
33.271
33.276
33.28
33.282
33.283
33.282
33.279
33.273
33.265
33.256
33.245
33.235
33.224
33.213
33.201
33.186
33.17
33.15
33.128
33.103
33.075
33.044
33.01
32.974
32.935
32.894
32.849
32.803
32.755
32.706
32.656
32.606
32.556
32.508
32.461
32.418
32.38
32.347
32.323
32.31
32.312
32.332
32.374
32.441
32.536
32.664
32.828
33.029
33.268
33.546
33.86
34.206
34.581
34.981
35.398
35.827
36.26
36.692
37.115
37.523
37.914
38.281
38.623
38.934
39.215
39.462
39.675
39.854
40.001
40.118
40.205
40.264
40.298
40.308
40.297
40.269
40.225
40.17
40.105
40.032
39.953
39.869
39.78
39.687
39.589
39.486
39.376
39.26
39.137
39.009
38.877
38.742
38.606
38.468
38.33
38.192
38.054
37.916
37.778
37.64
37.502
37.366
37.23
37.095
36.961
36.829
36.7
36.575
36.454
36.341
36.236
36.139
36.053
35.978
35.914
35.862
35.823
35.797
35.784
35.783
35.794
35.815
35.845
35.883
35.929
35.979
36.034
36.092
36.151
36.211
36.27
36.328
36.383
36.436
36.485
36.531
36.574
36.611
36.642
36.666
36.683
36.693
36.694
36.688
36.674
36.653
36.624
36.588
36.546
36.498
36.444
36.386
36.322
36.256
36.187
36.116
36.043
35.969
35.894
35.818
35.742
35.664
35.586
35.506
35.426
35.344
35.261
35.177
35.093
35.009
34.925
34.844
34.763
34.684
34.605
34.526
34.449
34.371
34.295
34.22
34.147
34.076
34.008
33.944
33.883
33.825
33.772
33.723
33.677
33.634
33.594
33.557
33.521
33.486
33.454
33.423
33.395
33.369
33.347
33.327
33.311
33.298
33.287
33.28
33.275
33.272
33.272
33.276
33.284
33.294
33.306
33.319
33.332
33.344
33.356
33.367
33.377
33.385
33.391
33.395
33.397
33.398
33.396
33.393
33.389
33.383
33.375
33.365
33.352
33.338
33.321
