Trial 1:0back
35.53
35.752
35.977
36.202
36.422
36.633
36.833
37.016
37.182
37.327
37.45
37.552
37.632
37.691
37.73
37.751
37.755
37.746
37.724
37.692
37.65
37.602
37.547
37.489
37.429
37.367
37.304
37.242
37.18
37.119
37.059
37.0
36.942
36.885
36.829
36.773
36.719
36.665
36.612
36.56
36.51
36.46
36.413
36.367
36.323
36.28
36.238
36.198
36.162
36.129
36.099
36.073
36.051
36.031
36.015
36.0
35.987
35.975
35.964
35.954
35.945
35.937
35.928
35.919
35.911
35.904
35.897
35.892
35.888
35.886
35.887
35.89
35.895
35.902
35.911
35.921
35.932
35.941
35.947
35.951
35.95
35.945
35.935
35.92
35.899
35.873
35.842
35.805
35.763
35.717
35.667
35.615
35.559
35.502
35.443
35.385
35.328
35.274
35.222
35.175
35.131
35.091
35.055
35.021
34.99
34.96
34.931
34.902
34.871
34.839
34.804
34.768
34.729
34.689
34.647
34.604
34.56
34.517
34.473
34.43
34.389
34.349
34.311
34.277
34.247
34.22
34.198
34.18
34.167
34.158
34.154
34.154
34.156
34.161
34.166
34.17
34.174
34.176
34.176
34.173
34.167
34.157
34.144
34.127
34.108
34.087
34.065
34.041
34.017
33.992
33.968
33.945
33.924
33.906
33.89
33.878
33.87
33.864
33.863
33.867
33.875
33.889
33.91
33.94
33.98
34.031
34.095
34.174
34.268
34.376
34.499
34.635
34.782
34.941
35.108
35.282
35.461
35.642
35.823
36.002
36.177
36.346
36.506
36.656
36.796
36.923
37.036
37.134
37.216
37.28
37.327
37.355
37.366
37.359
37.336
37.298
37.247
37.183
37.11
37.027
36.939
36.847
36.754
36.66
36.568
36.479
36.395
36.316
36.244
36.178
36.12
36.069
36.024
35.984
35.947
35.913
35.881
35.85
35.818
35.785
35.751
35.716
35.679
35.64
35.601
35.561
35.522
35.485
35.451
35.418
35.389
35.363
35.343
35.328
35.32
35.318
35.323
35.334
35.351
35.374
35.402
35.433
35.467
35.502
35.537
35.57
35.6
35.625
35.645
35.66
35.669
35.672
35.67
35.662
35.649
35.632
35.61
35.584
35.554
35.521
35.485
35.447
35.408
35.367
35.328
35.289
35.252
35.216
35.182
35.148
35.115
35.08
35.044
35.006
34.966
34.923
34.877
34.829
34.778
34.725
34.671
34.616
34.562
34.509
34.457
34.407
34.36
34.316
34.276
34.241
34.21
34.183
34.16
34.143
34.13
34.12
34.114
34.11
34.107
34.104
34.101
34.097
34.091
34.082
34.072
34.059
34.045
34.029
34.011
33.992
33.972
33.952
33.931
33.91
33.889
33.868
33.848
33.83
33.815
33.803
33.795
33.791
33.791
33.795
33.802
33.811
33.822
33.833
33.845
33.857
33.87
33.884
33.901
33.924
33.953
33.992
34.042
34.105
34.183
34.277
34.387
34.514
34.657
34.816
34.99
35.177
35.375
35.578
35.784
35.989
36.19
36.384
36.566
36.735
36.888
37.022
37.136
37.229
37.302
37.354
37.386
37.399
37.394
37.372
37.337
37.288
37.229
37.162
37.089
37.012
36.933
36.853
36.774
36.697
36.623
36.554
36.49
36.432
36.378
36.328
36.282
36.237
36.194
36.15
36.105
36.06
36.014
35.967
35.917
35.865
35.813
35.759
35.706
35.654
35.603
35.555
35.512
35.473
35.441
35.415
35.397
35.387
35.384
35.39
35.402
35.42
35.444
35.472
35.502
35.535
35.568
35.599
35.629
35.654
35.675
35.689
35.698
35.7
35.698
35.692
35.683
35.671
35.658
35.643
35.629
35.615
35.602
35.589
35.578
35.566
35.554
35.539
35.522
35.501
35.477
35.448
35.415
35.375
35.331
35.281
35.227
35.169
35.108
35.044
34.979
34.912
34.845
34.777
34.71
34.645
34.583
34.526
34.472
34.423
34.377
34.336
34.299
34.267
34.239
34.215
34.193
34.174
34.158
34.143
34.129
34.116
34.103
34.09
34.075
34.059
34.041
34.02
33.998
33.974
33.951
33.928
33.906
33.887
33.87
33.856
33.846
33.84
33.837
33.837
33.841
33.847
33.856
33.866
33.877
33.889
33.9
33.909
33.916
33.918
33.916
33.91
33.899
33.884
33.865
33.842
33.816
33.789
33.762
33.737
33.715
33.699
33.691
33.693
33.707
33.736
33.782
33.846
33.93
34.035
34.161
34.306
34.47
34.651
34.848
35.056
35.273
35.496
35.72
35.943
36.16
36.368
36.565
36.747
36.913
37.062
37.193
37.304
37.396
37.469
37.525
37.564
37.588
37.597
37.593
37.579
37.554
37.522
37.481
37.434
37.381
37.322
37.26
37.193
37.123
37.05
36.975
36.898
36.82
36.741
36.664
36.588
36.516
36.446
36.381
36.32
36.264
36.212
36.166
36.125
36.087
36.054
36.024
35.997
35.973
35.951
35.93
35.912
35.895
35.879
35.864
35.848
35.833
35.818
35.802
35.786
35.772
35.759
35.748
35.739
35.731
35.725
35.723
35.724
35.73
35.74
35.754
35.771
35.79
35.811
35.834
35.857
35.879
35.899
35.916
35.929
35.938
35.941
35.938
35.929
35.914
35.893
35.866
35.832
35.793
35.749
35.701
35.649
35.595
35.539
35.483
35.428
35.372
35.319
35.267
35.219
35.174
35.133
35.094
35.059
35.025
34.993
34.962
34.931
34.9
34.866
34.83
34.792
34.751
34.707
34.661
34.613
34.565
34.516
34.468
34.421
34.378
34.338
34.302
34.271
34.245
34.223
34.206
34.193
34.182
34.173
34.166
34.161
34.157
34.154
34.149
34.144
34.138
34.131
34.123
34.114
34.103
34.091
34.077
34.063
34.048
34.033
34.018
34.004
33.99
33.977
33.966
33.956
33.948
33.94
33.934
33.931
33.93
33.93
33.932
33.935
33.941
33.949
33.96
33.976
33.999
34.029
34.069
34.122
34.188
34.272
34.373
34.494
34.633
34.791
34.965
35.156
35.361
35.577
35.802
36.032
36.265
36.497
36.725
36.945
37.154
37.349
37.526
37.684
37.82
37.934
38.023
38.089
38.133
38.155
38.155
38.137
38.101
38.051
37.988
37.915
37.833
37.747
37.658
37.57
37.485
37.402
37.325
37.253
37.186
37.124
37.068
37.017
36.971
36.93
36.89
36.852
36.815
36.777
36.737
36.695
36.649
36.6
36.547
36.491
36.433
36.373
36.312
36.252
36.196
36.146
36.102
36.065
36.037
36.018
36.006
36.003
36.006
36.014
36.027
36.043
36.06
36.077
36.094
36.109
36.122
36.132
36.138
36.141
36.14
36.136
36.13
36.122
36.112
36.101
36.089
36.076
36.062
36.048
36.032
36.015
35.996
35.976
35.955
35.931
35.906
35.879
35.85
35.817
35.782
35.744
35.701
35.655
35.605
35.551
35.492
35.429
35.364
35.297
35.228
35.158
35.088
35.019
34.951
34.886
34.825
34.767
34.713
34.664
34.62
34.582
34.548
34.517
34.49
34.465
34.443
34.422
34.401
34.38
34.357
34.333
34.307
34.279
34.248
34.216
34.182
34.148
34.115
34.084
34.054
34.026
34.001
33.98
33.961
33.946
33.935
33.927
33.923
33.922
33.923
33.927
33.932
33.938
33.944
33.95
33.955
33.958
33.958
33.954
33.947
33.936
33.921
33.902
33.881
33.858
33.833
33.806
33.778
33.749
33.721
33.696
33.673
33.653
33.636
33.622
33.611
33.607
33.608
33.616
33.632
33.657
33.692
33.74
33.801
33.878
33.972
34.085
34.217
34.368
34.536
34.721
34.92
35.132
35.354
35.583
35.815
36.046
36.266
36.473
36.673
36.867
37.05
37.219
37.377
37.522
37.651
37.759
37.845
37.91
37.952
37.965
37.951
37.914
37.856
37.777
37.68
37.575
37.471
37.372
37.282
37.205
37.145
37.098
37.058
37.025
36.998
36.973
36.946
36.915
36.884
36.851
36.81
36.76
36.706
36.654
36.606
36.564
36.526
36.489
36.45
36.408
36.361
36.307
36.247
36.182
36.114
36.044
35.975
35.911
35.854
35.806
35.766
35.736
35.715
35.704
35.702
35.709
35.724
35.746
35.772
35.803
35.837
35.872
35.907
35.94
35.971
35.999
36.022
36.04
36.051
36.056
36.053
36.041
36.021
35.995
35.962
35.926
35.887
35.846
35.805
35.766
35.729
35.695
35.664
35.635
35.608
35.581
35.554
35.526
35.496
35.462
35.425
35.383
35.337
35.286
35.232
35.175
35.116
35.057
34.998
34.94
34.883
34.828
34.776
34.726
34.68
34.637
34.599
34.565
34.534
34.507
34.484
34.463
34.444
34.427
34.41
34.393
34.376
34.358
34.34
34.32
34.299
34.276
34.251
34.224
34.196
34.166
34.137
34.108
34.08
34.056
34.037
34.022
34.012
34.007
34.007
34.011
34.019
34.028
34.04
34.054
34.07
34.087
34.104
34.123
34.143
34.165
34.19
34.219
34.255
34.299
34.354
34.422
34.505
34.605
34.721
34.854
35.003
35.166
35.343
35.531
35.73
35.936
36.148
36.362
36.574
36.782
36.983
37.174
37.35
37.51
37.652
37.774
37.874
37.952
38.007
38.041
38.054
38.048
38.025
37.987
37.935
37.872
37.799
37.718
37.63
37.537
37.442
37.346
37.252
37.158
37.067
36.978
36.892
36.809
36.728
36.651
36.578
36.507
36.439
36.372
36.305
36.238
36.171
36.102
36.033
35.964
35.895
35.828
35.763
35.702
35.647
35.598
35.557
35.524
35.5
35.485
35.48
35.482
35.492
35.509
35.531
35.557
35.588
35.621
35.655
35.691
35.726
35.761
35.795
35.827
35.857
35.884
35.907
35.925
35.94
35.952
35.961
35.968
35.972
35.974
35.974
35.972
35.967
35.959
35.947
35.931
35.91
35.886
35.857
35.823
35.785
35.744
35.699
35.65
35.598
35.541
35.482
35.419
35.354
35.288
35.22
35.153
35.087
35.024
34.964
34.907
34.855
34.808
34.765
34.728
34.694
34.664
34.635
34.608
34.582
34.555
34.528
34.5
34.472
34.442
34.412
34.38
34.347
34.314
34.28
34.247
34.215
34.183
34.151
34.12
34.092
34.065
34.042
34.022
34.006
33.993
33.984
33.979
33.978
33.977
33.979
33.98
33.982
33.983
33.984
33.984
33.986
33.99
33.998
34.014
34.039
34.077
34.131
34.203
34.295
34.409
34.545
34.705
34.886
35.088
35.309
35.545
35.793
36.049
36.312
36.575
36.836
37.09
37.334
37.563
37.773
37.963
38.129
38.27
38.384
38.471
38.531
38.565
38.576
38.564
38.532
38.482
38.417
38.341
38.255
38.163
38.066
37.968
37.87
37.774
37.682
37.593
37.509
37.429
37.354
37.281
37.211
37.142
37.073
37.005
36.937
36.867
36.795
36.721
36.645
36.569
36.492
36.414
36.338
36.264
36.195
36.13
36.073
36.022
35.98
35.947
35.923
35.909
35.903
35.904
35.913
35.927
35.945
35.966
35.989
36.015
36.041
36.067
36.093
36.117
36.14
36.161
36.181
36.198
36.214
36.228
36.241
36.252
36.261
36.268
36.273
36.275
36.276
36.274
36.269
36.261
36.249
36.234
36.214
36.188
36.157
36.12
36.077
36.028
35.972
35.909
35.842
35.77
35.696
35.619
35.543
35.466
35.392
35.32
35.253
35.189
35.129
35.073
35.021
34.973
34.928
34.888
34.851
34.817
34.785
34.755
34.726
34.697
34.666
34.633
34.599
34.562
34.523
34.481
34.438
34.394
34.351
34.308
34.267
34.227
34.19
34.157
34.127
34.101
34.079
34.06
34.045
34.033
34.023
34.016
34.009
34.003
33.997
33.992
33.986
33.981
33.975
33.971
33.969
33.97
33.977
33.991
34.017
34.056
34.113
34.189
34.287
34.409
34.555
34.727
34.923
35.141
35.38
35.636
35.906
36.185
36.47
36.755
37.036
37.309
37.569
37.813
38.036
38.237
38.412
38.56
38.68
38.772
38.836
38.875
38.888
38.88
38.851
38.805
38.746
38.675
38.597
38.514
38.427
38.338
38.251
38.165
38.08
37.998
37.918
37.839
37.762
37.685
37.608
37.532
37.455
37.377
37.3
37.221
37.144
37.067
36.992
36.919
36.848
36.779
36.714
36.653
36.595
36.541
36.491
36.446
36.406
36.371
36.341
36.315
36.294
36.278
36.265
36.256
36.249
36.245
36.244
36.244
36.246
36.25
36.254
36.261
36.268
36.277
36.286
36.295
36.304
36.313
36.322
36.332
36.34
36.348
36.354
36.357
36.358
36.356
36.349
36.339
36.323
36.301
36.274
36.24
36.201
36.156
36.107
36.052
35.994
35.931
35.865
35.796
35.725
35.653
35.581
35.509
35.44
35.372
35.307
35.245
35.186
35.131
35.079
35.031
34.985
34.943
34.903
34.865
34.827
34.789
34.752
34.713
34.674
34.634
34.593
34.55
34.505
34.459
34.413
34.367
34.323
34.28
34.241
34.205
34.173
34.143
34.117
34.093
34.071
34.052
34.035
34.019
34.004
33.989
33.976
33.963
33.95
33.937
33.924
33.91
33.896
33.882
33.869
33.857
33.847
33.842
33.845
33.857
33.883
33.925
33.986
34.069
34.177
34.309
34.468
34.651
34.858
35.086
35.332
35.591
35.86
36.134
36.407
36.676
36.935
37.182
37.412
37.622
37.809
37.972
38.109
38.219
38.303
38.363
38.398
38.41
38.402
38.376
38.334
38.278
38.211
38.136
38.054
37.969
37.881
37.791
37.702
37.612
37.524
37.436
37.351
37.267
37.185
37.106
37.029
36.954
36.88
36.808
36.737
36.667
36.598
36.53
36.464
36.399
36.338
36.279
36.224
36.173
36.128
36.087
36.052
36.021
35.995
35.973
35.955
35.939
35.926
35.915
35.905
35.897
35.889
35.882
35.876
35.87
35.864
35.859
35.853
35.848
35.843
35.839
35.836
35.834
35.833
35.834
35.835
35.838
35.84
35.843
35.843
35.842
35.838
35.83
35.818
35.801
35.779
35.75
35.715
35.673
35.624
35.568
35.506
35.44
35.37
35.297
35.221
35.145
35.07
34.997
34.927
34.86
34.797
34.738
34.685
34.636
34.592
34.551
34.513
34.478
34.443
34.41
34.376
34.341
34.305
34.268
34.229
34.189
34.148
34.105
34.061
34.017
33.974
33.931
33.89
33.851
33.815
33.783
33.755
33.73
33.711
33.696
33.686
33.681
33.68
33.68
33.682
33.686
33.688
33.69
33.688
33.684
33.676
33.665
33.65
33.631
33.61
33.585
33.557
33.528
33.498
33.467
33.437
33.408
33.383
33.362
33.345
33.335
33.332
33.338
33.353
33.381
33.422
33.478
33.55
33.639
33.747
33.872
34.016
34.176
34.352
34.543
34.746
34.959
35.179
35.404
35.63
35.854
36.073
36.284
36.484
36.672
36.844
36.999
37.135
37.252
37.35
37.429
37.488
37.53
37.553
37.559
37.55
37.527
37.491
37.443
37.384
37.316
37.24
37.156
37.066
36.973
36.877
36.78
36.683
36.587
36.494
36.406
36.323
36.246
36.176
36.113
36.055
36.004
35.959
35.919
35.882
35.848
35.815
35.784
35.753
35.722
35.69
35.656
35.621
35.586
35.551
35.516
35.482
35.451
35.422
35.397
35.374
35.355
35.34
35.33
35.327
35.33
35.338
35.352
35.371
35.395
35.422
35.452
35.482
35.513
35.541
35.567
35.588
35.604
35.615
35.619
35.617
35.608
35.591
35.568
35.54
35.507
35.469
35.428
35.385
35.339
35.291
35.242
35.192
35.142
35.092
35.043
34.995
34.947
34.9
34.853
34.806
34.761
34.716
34.672
34.628
34.583
34.539
34.495
34.45
34.404
34.358
34.312
34.265
34.219
34.174
34.13
34.087
34.046
34.008
33.974
33.944
33.917
33.894
33.874
33.86
33.85
33.844
33.842
33.843
33.845
33.848
33.851
33.851
33.849
33.844
33.837
33.827
33.815
33.8
33.783
33.766
33.747
33.727
33.707
33.687
33.667
33.649
33.632
33.617
33.605
33.596
33.591
33.589
33.591
33.596
33.604
33.616
33.632
33.653
33.68
33.714
33.758
33.814
33.883
33.966
34.065
34.179
34.307
34.449
34.604
34.771
34.948
35.133
35.323
35.516
35.711
35.902
36.088
36.266
36.433
36.587
36.726
36.847
36.951
37.035
37.1
37.145
37.173
37.182
37.174
37.149
37.111
37.06
36.998
36.928
36.851
36.77
36.685
36.6
36.516
36.432
36.35
36.27
36.193
36.119
36.049
35.983
35.922
35.867
35.817
35.772
35.73
35.692
35.655
35.619
35.583
35.546
35.509
35.47
35.429
35.388
35.347
35.307
35.268
35.231
35.198
35.17
35.148
35.133
35.125
35.125
35.133
35.147
35.168
35.195
35.225
35.257
35.29
35.321
35.35
35.375
35.396
35.411
35.42
35.423
35.419
35.409
35.395
35.376
35.354
35.328
35.301
35.271
35.24
35.209
35.178
35.147
35.117
35.09
35.062
35.034
35.005
34.975
34.944
34.91
34.875
34.838
34.798
34.756
34.711
34.662
34.611
34.556
34.497
34.436
34.376
34.317
34.258
34.2
34.146
34.095
34.048
34.003
33.963
33.926
33.891
33.858
33.83
33.806
33.785
33.768
33.756
33.748
33.743
33.742
33.742
33.743
33.745
33.746
33.745
33.743
33.739
33.732
33.724
33.715
33.708
33.707
33.714
33.726
33.742
33.761
33.784
33.807
33.829
33.852
33.88
33.913
33.95
33.99
34.037
34.09
34.142
34.186
34.216
34.229
34.222
34.194
34.146
34.079
33.996
33.903
33.803
33.703
33.605
33.514
33.434
33.369
33.32
33.291
33.282
33.295
33.331
33.392
33.476
33.585
33.716
33.868
34.039
34.227
34.429
34.641
34.86
35.081
35.301
35.518
35.729
35.93
36.12
36.296
36.456
36.599
36.722
36.827
36.914
36.983
37.035
37.07
37.091
37.096
37.089
37.071
37.043
37.007
36.964
36.916
36.863
36.807
36.748
36.687
36.623
36.559
36.494
36.428
36.362
36.298
36.236
36.177
36.12
36.066
36.016
35.97
35.93
35.895
35.863
35.836
35.812
35.791
35.772
35.754
35.737
35.72
35.702
35.683
35.663
35.642
35.619
35.596
35.572
35.549
35.526
35.503
35.482
35.463
35.446
35.431
35.42
35.411
35.407
35.407
35.41
35.417
35.427
35.441
35.458
35.477
35.497
35.518
35.537
35.555
35.57
35.581
35.586
35.586
35.579
35.566
35.546
35.52
35.488
35.452
35.411
35.367
35.32
35.27
35.218
35.166
35.114
35.064
35.015
34.967
34.922
34.879
34.839
34.801
34.766
34.732
34.7
34.67
34.639
34.608
34.577
34.544
34.51
34.475
34.437
34.399
34.359
34.318
34.277
34.236
34.195
34.155
34.117
34.082
34.05
34.023
33.999
33.981
33.967
33.957
33.952
33.949
33.948
33.949
33.95
33.951
33.952
33.95
33.947
33.941
33.933
33.923
33.912
33.898
33.884
33.87
33.856
33.843
33.831
33.82
33.81
33.803
33.798
33.795
33.793
33.792
33.792
33.794
33.795
33.796
33.796
33.795
33.791
33.786
33.778
33.768
33.755
33.739
33.721
33.701
33.68
33.657
33.636
33.618
33.605
33.6
33.605
33.621
33.652
33.701
33.768
33.856
33.965
34.095
34.245
34.414
34.6
34.799
35.009
35.225
35.444
35.662
35.874
36.077
36.267
36.443
36.601
36.739
36.857
36.955
37.031
37.087
37.123
37.141
37.142
37.13
37.107
37.075
37.035
36.99
36.94
36.888
36.834
36.78
36.725
36.671
36.618
36.565
36.513
36.462
36.412
36.364
36.317
36.27
36.224
36.18
36.136
36.094
36.053
36.013
35.976
35.942
35.91
35.88
35.852
35.825
35.8
35.777
35.755
35.734
35.714
35.694
35.674
35.654
35.633
35.611
35.589
35.568
35.546
35.525
35.505
35.486
35.468
35.454
35.442
35.433
35.427
35.423
35.422
35.423
35.426
35.43
35.436
35.441
35.447
35.452
35.457
35.459
35.459
35.457
35.453
35.445
35.434
35.419
35.398
35.373
35.343
35.308
35.268
35.223
35.174
35.123
35.069
35.013
34.958
34.903
34.851
34.801
34.756
34.714
34.676
34.643
34.614
34.588
34.565
34.542
34.521
34.499
34.476
34.451
34.425
34.398
34.369
34.339
34.307
34.274
34.241
34.207
34.173
34.14
34.107
34.075
34.044
34.015
33.988
33.964
33.942
33.923
33.908
33.896
33.887
33.881
33.878
33.876
33.877
33.879
33.882
33.885
33.887
33.887
33.886
33.882
33.876
33.866
33.853
33.838
33.82
33.8
33.778
33.756
33.735
33.715
33.696
33.68
33.664
33.651
33.639
33.63
33.623
33.618
33.615
33.611
33.607
33.603
33.598
33.591
33.582
33.573
33.562
33.55
33.538
33.525
33.514
33.504
33.499
33.499
33.507
33.525
33.555
33.6
33.663
33.745
33.848
33.971
34.115
34.277
34.457
34.65
34.855
35.067
35.281
35.494
35.701
35.898
36.081
36.249
36.399
36.53
36.64
36.73
36.799
36.849
36.879
36.893
36.891
36.875
36.849
36.813
36.77
36.721
36.667
36.612
36.555
36.499
36.443
36.388
36.335
36.282
36.23
36.178
36.126
36.076
36.026
35.977
35.929
35.881
35.833
35.786
35.741
35.697
35.654
35.613
35.574
35.536
35.501
35.469
35.439
35.413
35.39
35.371
35.356
35.344
35.335
35.33
35.328
35.328
35.33
35.334
35.338
35.343
35.348
35.351
35.354
35.356
35.357
35.357
35.358
35.359
35.36
35.362
35.365
35.369
35.373
35.379
35.386
35.394
35.403
35.412
35.419
35.424
35.427
35.426
35.419
35.407
35.389
35.365
35.336
35.302
35.263
35.219
35.171
35.121
35.069
35.014
34.958
34.901
34.846
34.793
34.743
34.696
34.652
34.612
34.577
34.546
34.519
34.496
34.476
34.458
34.441
34.424
34.407
34.388
34.368
34.347
34.324
34.299
34.273
34.246
34.218
34.19
34.162
34.134
34.104
