Trial 1:0back
33.344
33.345
33.349
33.359
33.376
33.402
33.439
33.487
33.547
33.62
33.706
33.805
33.915
34.036
34.165
34.3
34.439
34.58
34.72
34.856
34.986
35.108
35.221
35.322
35.411
35.485
35.544
35.589
35.618
35.634
35.637
35.628
35.609
35.581
35.545
35.503
35.457
35.407
35.355
35.301
35.247
35.194
35.143
35.094
35.047
35.003
34.963
34.927
34.895
34.868
34.846
34.828
34.813
34.801
34.791
34.784
34.778
34.773
34.766
34.759
34.75
34.74
34.728
34.714
34.699
34.682
34.666
34.651
34.636
34.621
34.606
34.592
34.58
34.57
34.564
34.561
34.561
34.566
34.574
34.586
34.602
34.623
34.648
34.675
34.703
34.731
34.759
34.784
34.807
34.827
34.843
34.855
34.862
34.865
34.864
34.86
34.852
34.842
34.829
34.814
34.798
34.781
34.761
34.741
34.72
34.701
34.683
34.667
34.652
34.639
34.627
34.616
34.606
34.597
34.587
34.578
34.567
34.555
34.541
34.525
34.506
34.485
34.461
34.434
34.405
34.375
34.343
34.311
34.278
34.246
34.214
34.184
34.157
34.131
34.107
34.086
34.067
34.052
34.04
34.031
34.025
34.022
34.021
34.021
34.024
34.028
34.034
34.041
34.047
34.055
34.062
34.07
34.077
34.084
34.089
34.092
34.092
34.091
34.088
34.084
34.079
34.074
34.067
34.059
34.05
34.042
34.033
34.025
34.019
34.013
34.009
34.007
34.007
34.008
34.011
34.015
34.02
34.027
34.036
34.045
34.055
34.064
34.074
34.083
34.091
34.097
34.1
34.1
34.097
34.089
34.078
34.062
34.043
34.02
33.993
33.965
33.935
33.904
33.874
33.845
33.818
33.794
33.774
33.76
33.751
33.748
33.751
33.76
33.775
33.798
33.829
33.869
33.918
33.977
34.044
34.121
34.205
34.296
34.393
34.492
34.594
34.696
34.797
34.897
34.992
35.082
35.166
35.242
35.31
35.37
35.42
35.461
35.494
35.518
35.534
35.544
35.547
35.545
35.538
35.526
35.511
35.494
35.474
35.452
35.426
35.399
35.369
35.339
35.307
35.274
35.239
35.204
35.168
35.131
35.094
35.056
35.019
34.982
34.945
34.91
34.877
34.844
34.814
34.785
34.759
34.736
34.717
34.7
34.686
34.676
34.668
34.664
34.663
34.665
34.669
34.675
34.683
34.692
34.702
34.713
34.723
34.732
34.741
34.748
34.754
34.759
34.763
34.766
34.769
34.771
34.773
34.775
34.777
34.78
34.782
34.785
34.788
34.793
34.799
34.806
34.813
34.821
34.829
34.836
34.844
34.851
34.858
34.862
34.865
34.865
34.862
34.856
34.846
34.832
34.814
34.792
34.767
34.739
34.709
34.677
34.643
34.608
34.574
34.54
34.508
34.478
34.449
34.422
34.398
34.377
34.36
34.346
34.334
34.326
34.319
34.316
34.315
34.317
34.321
34.325
34.329
34.333
34.337
34.34
34.34
34.338
34.333
34.326
34.316
34.304
34.29
34.274
34.256
34.238
34.22
34.202
34.186
34.17
34.156
34.143
34.133
34.125
34.12
34.119
34.122
34.127
34.134
34.143
34.155
34.168
34.181
34.193
34.205
34.216
34.225
34.233
34.238
34.241
34.24
34.237
34.23
34.222
34.211
34.197
34.181
34.164
34.146
34.127
34.108
34.088
34.068
34.048
34.029
34.012
33.998
33.989
33.984
33.985
33.992
34.005
34.027
34.058
34.099
34.15
34.21
34.278
34.355
34.438
34.526
34.619
34.716
34.813
34.911
35.008
35.101
35.19
35.272
35.346
35.413
35.471
35.521
35.562
35.594
35.619
35.636
35.648
35.653
35.654
35.651
35.645
35.636
35.625
35.613
35.598
35.581
35.561
35.539
35.514
35.486
35.454
35.419
35.382
35.342
35.302
35.26
35.218
35.177
35.137
35.099
35.063
35.03
35.0
34.973
34.947
34.925
34.905
34.889
34.875
34.863
34.853
34.846
34.84
34.837
34.836
34.838
34.842
34.848
34.854
34.862
34.871
34.88
34.89
34.899
34.907
34.916
34.924
34.933
34.941
34.947
34.953
34.958
34.962
34.965
34.967
34.968
34.969
34.969
34.969
34.97
34.971
34.973
34.975
34.977
34.98
34.983
34.987
34.991
34.994
34.996
34.996
34.992
34.986
34.976
34.963
34.945
34.924
34.9
34.875
34.847
34.818
34.786
34.754
34.721
34.688
34.657
34.626
34.597
34.569
34.543
34.521
34.502
34.486
34.474
34.465
34.459
34.454
34.453
34.452
34.453
34.454
34.455
34.455
34.453
34.45
34.446
34.441
34.434
34.426
34.416
34.406
34.395
34.384
34.371
34.359
34.346
34.334
34.322
34.312
34.302
34.294
34.287
34.283
34.282
34.283
34.287
34.292
34.3
34.309
34.319
34.331
34.343
34.354
34.365
34.375
34.383
34.39
34.394
34.395
34.394
34.39
34.384
34.376
34.365
34.351
34.336
34.32
34.304
34.288
34.275
34.265
34.259
34.26
34.268
34.286
34.314
34.354
34.405
34.468
34.543
34.628
34.722
34.824
34.931
35.042
35.154
35.265
35.373
35.474
35.567
35.65
35.723
35.784
35.833
35.871
35.896
35.911
35.915
35.911
35.9
35.882
35.858
35.83
35.798
35.765
35.73
35.696
35.662
35.628
35.594
35.561
35.529
35.5
35.473
35.446
35.42
35.394
35.37
35.345
35.32
35.295
35.27
35.244
35.218
35.192
35.166
35.14
35.113
35.086
35.059
35.033
35.007
34.982
34.958
34.937
34.919
34.905
34.895
34.891
34.891
34.895
34.903
34.916
34.933
34.955
34.98
35.008
35.038
35.068
35.098
35.127
35.154
35.178
35.198
35.214
35.226
35.235
35.24
35.241
35.239
35.234
35.226
35.217
35.206
35.195
35.184
35.175
35.167
35.161
35.157
35.154
35.153
35.152
35.153
35.155
35.156
35.156
35.154
35.152
35.147
35.14
35.131
35.117
35.099
35.077
35.052
35.023
34.991
34.957
34.921
34.884
34.847
34.81
34.775
34.741
34.708
34.679
34.653
34.632
34.615
34.602
34.593
34.588
34.586
34.588
34.593
34.6
34.609
34.617
34.626
34.633
34.64
34.645
34.647
34.647
34.645
34.641
34.636
34.628
34.62
34.609
34.596
34.581
34.567
34.551
34.535
34.517
34.499
34.482
34.467
34.454
34.445
34.441
34.444
34.453
34.469
34.494
34.528
34.573
34.627
34.691
34.764
34.844
34.93
35.021
35.116
35.212
35.308
35.404
35.496
35.586
35.671
35.749
35.821
35.885
35.942
35.989
36.028
36.058
36.079
36.092
36.096
36.093
36.085
36.071
36.054
36.033
36.01
35.985
35.958
35.929
35.898
35.866
35.831
35.795
35.757
35.717
35.676
35.634
35.592
35.55
35.509
35.467
35.427
35.387
35.35
35.315
35.282
35.25
35.221
35.194
35.17
35.148
35.13
35.114
35.103
35.095
35.091
35.091
35.095
35.103
35.113
35.125
35.139
35.153
35.168
35.183
35.197
35.21
35.222
35.233
35.243
35.252
35.26
35.267
35.272
35.277
35.282
35.286
35.29
35.293
35.297
35.3
35.305
35.31
35.315
35.321
35.326
35.332
35.338
35.344
35.349
35.354
35.356
35.355
35.352
35.346
35.337
35.323
35.305
35.283
35.257
35.228
35.196
35.162
35.126
35.088
35.05
35.012
34.972
34.933
34.895
34.859
34.825
34.795
34.768
34.745
34.727
34.714
34.705
34.7
34.7
34.703
34.709
34.715
34.721
34.726
34.729
34.73
34.727
34.721
34.712
34.7
34.685
34.669
34.65
34.632
34.612
34.593
34.574
34.557
34.54
34.524
34.511
34.5
34.494
34.492
34.497
34.507
34.525
34.551
34.587
34.632
34.687
34.754
34.831
34.917
35.011
35.112
35.217
35.324
35.431
35.537
35.64
35.738
35.829
35.914
35.99
36.057
36.114
36.161
36.197
36.223
36.239
36.246
36.245
36.239
36.227
36.211
36.191
36.167
36.141
36.112
36.082
36.052
36.021
35.989
35.956
35.922
35.887
35.849
35.809
35.767
35.724
35.68
35.636
35.591
35.547
35.503
35.46
35.418
35.377
35.339
35.303
35.27
35.24
35.213
35.191
35.173
35.16
35.152
35.148
35.149
35.155
35.165
35.179
35.195
35.215
35.237
35.261
35.286
35.312
35.337
35.36
35.383
35.403
35.42
35.433
35.443
35.449
35.452
35.452
35.449
35.444
35.437
35.429
35.419
35.409
35.399
35.389
35.38
35.371
35.363
35.355
35.349
35.343
35.338
35.333
35.327
35.319
35.31
35.298
35.285
35.269
35.249
35.228
35.204
35.178
35.149
35.119
35.087
35.054
35.02
34.987
34.954
34.922
34.89
34.859
34.83
34.803
34.78
34.759
34.741
34.726
34.713
34.703
34.695
34.69
34.685
34.681
34.677
34.672
34.667
34.66
34.653
34.643
34.632
34.62
34.607
34.594
34.58
34.566
34.553
34.54
34.529
34.522
34.519
34.522
34.532
34.551
34.58
34.621
34.674
34.739
34.816
34.905
35.003
35.111
35.225
35.342
35.461
35.578
35.693
35.801
35.902
35.992
36.071
36.136
36.188
36.226
36.25
36.26
36.257
36.242
36.218
36.186
36.146
36.099
36.046
35.99
35.932
35.873
35.815
35.759
35.705
35.654
35.607
35.563
35.524
35.488
35.457
35.428
35.401
35.374
35.348
35.322
35.295
35.267
35.237
35.206
35.174
35.142
35.109
35.076
35.043
35.012
34.984
34.959
34.938
34.92
34.906
34.896
34.892
34.892
34.898
34.908
34.924
34.944
34.968
34.996
35.028
35.061
35.096
35.131
35.166
35.199
35.23
35.258
35.283
35.302
35.317
35.327
35.331
35.33
35.324
35.312
35.295
35.274
35.248
35.219
35.188
35.156
35.123
35.091
35.06
35.03
35.003
34.978
34.956
34.936
34.919
34.905
34.893
34.882
34.872
34.863
34.854
34.846
34.837
34.827
34.815
34.8
34.782
34.762
34.738
34.711
34.68
34.647
34.612
34.576
34.54
34.504
34.468
34.434
34.403
34.374
34.349
34.328
34.311
34.296
34.285
34.276
34.269
34.265
34.264
34.264
34.267
34.271
34.278
34.288
34.3
34.314
34.332
34.354
34.381
34.414
34.454
34.501
34.555
34.617
34.687
34.763
34.845
34.93
35.017
35.106
35.196
35.285
35.372
35.456
35.535
35.609
35.677
35.737
35.789
35.833
35.868
35.893
35.909
35.915
35.912
35.9
35.88
35.852
35.817
35.778
35.734
35.687
35.638
35.586
35.533
35.478
35.423
35.369
35.315
35.262
35.211
35.162
35.117
35.076
35.04
35.008
34.98
34.956
34.935
34.919
34.906
34.894
34.886
34.879
34.875
34.873
34.872
34.874
34.876
34.881
34.887
34.895
34.904
34.914
34.925
34.937
34.95
34.964
34.978
34.991
35.005
35.019
35.033
35.049
35.066
35.083
35.101
35.12
35.14
35.16
35.181
35.201
35.221
35.238
35.253
35.265
35.274
35.279
35.279
35.275
35.265
35.252
35.233
35.211
35.184
35.154
35.121
35.085
35.05
35.014
34.979
34.945
34.913
34.882
34.853
34.827
34.803
34.782
34.764
34.749
34.738
34.73
34.725
34.721
34.719
34.718
34.717
34.715
34.713
34.708
34.7
34.688
34.675
34.658
34.64
34.62
34.598
34.575
34.552
34.53
34.508
34.488
34.471
34.457
34.447
34.442
34.443
34.451
34.467
34.492
34.526
34.569
34.623
34.688
34.764
34.848
34.94
35.04
35.145
35.254
35.366
35.478
35.587
35.693
35.792
35.884
35.968
36.041
36.103
36.153
36.192
36.219
36.235
36.238
36.232
36.217
36.196
36.169
36.139
36.106
36.071
36.036
36.001
35.966
35.931
35.895
35.858
35.822
35.785
35.748
35.71
35.671
35.632
35.592
35.552
35.512
35.472
35.43
35.389
35.347
35.307
35.267
35.23
35.196
35.165
35.138
35.115
35.097
35.085
35.078
35.077
35.081
35.09
35.103
35.12
35.142
35.166
35.192
35.219
35.247
35.275
35.303
35.33
35.356
35.38
35.401
35.418
35.433
35.443
35.449
35.451
35.449
35.445
35.438
35.43
35.419
35.408
35.395
35.383
35.372
35.362
35.353
35.346
35.34
35.336
35.332
35.329
35.325
35.32
35.314
35.307
35.297
35.284
35.267
35.247
35.225
35.2
35.173
35.145
35.114
35.083
35.05
35.018
34.988
34.958
34.93
34.904
34.881
34.86
34.843
34.827
34.815
34.804
34.795
34.787
34.781
34.776
34.773
34.77
34.767
34.765
34.763
34.762
34.761
34.761
34.762
34.764
34.768
34.775
34.785
34.799
34.818
34.844
34.879
34.924
34.979
35.046
35.124
35.211
35.308
35.414
35.527
35.646
35.768
35.892
36.014
36.133
36.247
36.354
36.452
36.539
36.615
36.68
36.731
36.77
36.795
36.808
36.808
36.798
36.776
36.744
36.704
36.656
36.602
36.546
36.487
36.426
36.365
36.304
36.246
36.19
36.138
36.091
36.047
36.008
35.973
35.942
35.916
35.894
35.874
35.857
35.842
35.828
35.815
35.801
35.787
35.772
35.757
35.741
35.726
35.71
35.695
35.682
35.669
35.659
35.65
35.644
35.64
35.638
35.638
35.642
35.648
35.657
35.67
35.686
35.704
35.724
35.747
35.772
35.799
35.826
35.853
35.88
35.904
35.925
35.943
35.956
35.964
35.966
35.963
35.954
35.94
35.92
35.895
35.865
35.833
35.799
35.763
35.726
35.688
35.651
35.615
35.582
35.552
35.524
35.498
35.476
35.456
35.439
35.425
35.413
35.402
35.391
35.38
35.368
35.354
35.339
35.321
35.301
35.279
35.256
35.23
35.204
35.177
35.15
35.123
35.097
35.072
35.048
35.026
35.005
34.985
34.968
34.952
34.939
34.928
34.92
34.914
34.91
34.908
34.91
34.914
34.92
34.929
34.941
34.956
34.977
35.003
35.034
35.073
35.119
35.173
35.237
35.31
35.393
35.484
35.584
35.691
35.804
35.922
36.042
36.162
36.282
36.4
36.513
36.622
36.724
36.817
36.901
36.974
37.037
37.088
37.128
37.155
37.171
37.176
37.172
37.159
37.137
37.106
37.068
37.024
36.976
36.925
36.871
36.815
36.759
36.704
36.651
36.599
36.551
36.506
36.464
36.427
36.394
36.365
36.34
36.317
36.298
36.282
36.269
36.258
36.25
36.242
36.235
36.229
36.223
36.217
36.211
36.204
36.197
36.189
36.18
36.171
36.161
36.15
36.139
36.13
36.121
36.113
36.105
36.099
36.094
36.091
36.092
36.096
36.102
36.111
36.122
36.136
36.151
36.167
36.184
36.201
36.216
36.23
36.24
36.246
36.247
36.243
36.233
36.217
36.196
36.17
36.139
36.104
36.066
36.026
35.984
35.942
35.901
35.86
35.821
35.784
35.75
35.718
35.689
35.661
35.635
35.611
35.589
35.569
35.551
35.533
35.516
35.499
35.481
35.463
35.443
35.422
35.4
35.376
35.352
35.328
35.304
35.28
35.256
35.232
35.211
35.191
35.172
35.155
35.139
35.123
35.108
35.095
35.084
35.074
35.066
35.06
35.055
35.052
35.051
35.052
35.052
35.051
35.049
35.045
35.04
35.033
35.024
35.013
35.0
34.988
34.976
34.966
34.961
34.96
34.965
34.979
35.004
35.039
35.088
35.149
35.224
35.313
35.416
35.531
35.658
35.794
35.936
36.083
36.231
36.378
36.523
36.661
36.79
36.908
37.014
37.106
37.182
37.243
37.289
37.32
37.337
37.34
37.332
37.311
37.28
37.241
37.194
37.143
37.087
37.03
36.971
36.913
36.858
36.806
36.759
36.717
36.679
36.648
36.622
36.603
36.588
36.579
36.572
36.566
36.562
36.557
36.55
36.541
36.529
36.515
36.496
36.475
36.45
36.421
36.391
36.359
36.327
36.295
36.264
36.234
36.207
36.184
36.166
36.153
36.146
36.143
36.146
36.154
36.167
36.184
36.205
36.226
36.249
36.272
36.294
36.315
36.333
36.347
36.356
36.361
36.361
36.356
36.346
36.332
36.313
36.291
36.265
36.236
36.206
36.173
36.14
36.106
36.072
36.039
36.007
35.977
35.948
35.922
35.899
35.878
35.859
35.841
35.824
35.807
35.789
35.771
35.75
35.728
35.703
35.675
35.645
35.613
35.579
35.543
35.506
35.469
35.431
35.395
35.358
35.323
35.29
35.257
35.227
35.2
35.176
35.155
35.138
35.123
35.112
35.103
35.098
35.096
35.096
35.097
35.1
35.104
35.108
35.111
35.111
35.109
35.103
35.094
35.082
35.068
35.051
35.032
35.013
34.999
34.986
34.97
34.949
34.926
34.903
34.882
34.867
34.856
34.849
34.846
34.845
34.844
34.842
34.837
34.831
34.821
34.809
34.794
34.777
34.759
34.74
34.72
34.701
34.682
34.663
34.642
34.621
34.6
34.577
34.553
34.528
34.501
34.475
34.451
34.427
34.406
34.387
34.371
34.36
34.353
34.352
34.355
34.362
34.375
34.392
34.416
34.447
34.485
34.532
34.586
34.649
34.724
34.81
34.908
35.017
35.137
35.267
35.406
35.552
35.701
35.852
36.002
36.148
36.289
36.421
36.544
36.657
36.759
36.85
36.931
37.0
37.059
37.106
37.141
37.166
37.182
37.191
37.193
37.188
37.176
37.158
37.134
37.105
37.072
37.036
36.998
36.959
36.919
36.878
36.835
36.79
36.742
36.694
36.646
36.599
36.555
36.513
36.474
36.437
36.405
36.376
36.351
36.33
36.312
36.297
36.285
36.275
36.267
36.261
36.256
36.251
36.247
36.242
36.237
36.232
36.228
36.223
36.219
36.214
36.21
36.206
36.201
36.195
36.189
36.182
36.176
36.17
36.165
36.161
36.159
36.159
36.16
36.164
36.168
36.172
36.177
36.183
36.188
36.194
36.198
36.201
36.2
36.197
36.19
36.18
36.165
36.146
36.121
36.092
36.059
36.023
35.983
35.942
35.898
35.854
35.809
35.766
35.723
35.681
35.641
35.602
35.566
35.532
35.5
35.472
35.446
35.422
35.402
35.384
35.368
35.355
35.343
35.332
35.321
35.311
35.301
35.291
35.279
35.267
35.253
35.237
35.218
35.197
35.173
35.147
35.118
35.088
35.057
35.026
34.995
34.966
34.939
34.916
34.896
34.88
34.867
34.858
34.852
34.848
34.848
34.849
34.853
34.858
34.862
34.867
34.87
34.872
34.87
34.866
34.857
34.845
34.829
34.81
34.788
34.764
34.738
34.71
34.683
34.656
34.629
34.603
34.578
34.554
34.531
34.51
34.491
34.475
34.46
34.445
34.432
34.419
34.406
34.395
34.385
34.376
34.367
34.358
34.348
34.338
34.328
34.319
34.309
34.301
34.295
34.292
34.293
34.301
34.316
34.341
34.377
34.425
34.487
34.562
34.65
34.751
34.864
34.988
35.121
35.261
35.406
35.554
35.703
35.849
35.992
36.128
36.255
36.37
36.473
36.561
36.634
36.691
36.731
36.755
36.762
36.756
36.736
36.704
36.661
36.609
36.551
36.489
36.424
36.359
36.294
36.23
36.169
36.112
36.059
36.013
35.974
35.94
35.913
35.89
35.872
35.859
35.848
35.84
35.832
35.825
35.816
35.806
35.795
35.781
35.764
35.744
35.721
35.696
35.67
35.642
35.614
35.587
35.561
35.536
35.514
35.496
35.481
35.47
35.463
35.46
35.462
35.467
35.476
35.488
35.502
35.518
35.536
35.555
35.574
35.592
35.609
35.623
35.636
35.646
35.653
35.656
35.656
35.652
35.644
35.631
35.614
35.592
35.567
35.539
35.508
35.475
35.44
35.403
35.364
35.325
35.286
35.247
35.21
35.175
35.142
35.111
35.083
35.057
35.035
35.015
34.997
34.98
34.962
34.945
34.928
34.909
34.889
34.866
34.841
34.815
34.787
34.758
34.728
34.696
34.663
34.63
34.596
34.562
34.529
34.498
34.469
34.444
34.423
34.406
34.393
34.384
34.378
34.375
34.375
34.376
34.381
34.388
34.397
34.407
34.419
34.431
34.444
34.456
34.468
34.478
34.485
34.489
34.49
34.487
34.48
34.469
34.455
34.438
34.419
34.4
34.379
34.359
34.34
34.323
34.309
34.296
34.287
34.279
34.274
34.269
34.266
34.263
34.26
34.258
34.254
34.249
34.243
34.236
34.227
34.217
34.206
34.193
34.179
34.164
34.149
34.133
34.117
34.103
34.091
34.083
34.081
34.085
34.098
34.119
34.151
34.194
34.249
34.317
34.398
34.492
34.598
34.715
34.841
34.975
35.117
35.261
35.406
35.548
35.684
35.811
35.927
36.032
36.122
36.199
36.261
36.309
36.342
36.363
36.37
36.365
36.349
36.323
36.289
36.249
36.203
36.152
36.099
36.044
35.99
35.938
35.888
35.842
35.8
35.762
35.727
35.696
35.667
35.641
35.616
35.592
35.568
35.544
35.521
35.496
35.471
35.445
35.419
35.394
35.369
35.344
35.32
35.296
35.274
35.255
35.238
35.224
35.213
35.206
35.202
35.203
35.209
35.219
35.234
35.252
35.274
35.298
35.326
35.357
35.389
35.422
35.455
35.486
35.515
35.542
35.564
35.581
35.593
35.601
35.603
35.6
35.592
35.58
35.564
35.545
35.523
35.499
35.475
35.449
35.423
35.397
35.37
35.344
35.318
35.293
35.267
35.242
35.218
35.194
35.172
35.151
35.132
35.112
35.093
35.073
35.051
35.028
35.003
34.976
34.947
34.917
34.885
34.852
34.819
34.785
34.751
34.717
34.683
34.652
34.622
34.596
34.571
34.55
34.531
34.516
34.503
34.492
34.484
34.479
34.475
34.473
34.474
34.476
34.481
34.487
34.494
34.501
34.508
34.515
34.52
34.524
34.527
34.528
34.526
34.522
34.517
34.509
34.5
34.489
34.477
34.464
34.451
34.437
34.424
34.409
34.394
34.38
34.366
34.354
34.343
34.334
34.326
34.32
34.317
34.316
34.317
34.321
34.327
34.334
34.344
34.355
34.369
34.388
34.411
34.44
