Trial 1:0back
33.937
33.899
33.864
33.832
33.806
33.785
33.771
33.765
33.767
33.779
33.802
33.837
33.883
33.944
34.018
34.107
34.211
34.328
34.459
34.602
34.756
34.919
35.088
35.26
35.433
35.604
35.771
35.932
36.086
36.231
36.366
36.49
36.603
36.704
36.792
36.867
36.928
36.975
37.01
37.032
37.043
37.045
37.039
37.027
37.01
36.989
36.966
36.942
36.917
36.892
36.868
36.847
36.827
36.81
36.794
36.779
36.763
36.746
36.726
36.702
36.674
36.642
36.606
36.567
36.525
36.48
36.433
36.384
36.334
36.284
36.233
36.183
36.134
36.086
36.041
35.998
35.959
35.922
35.889
35.859
35.831
35.806
35.783
35.762
35.742
35.723
35.707
35.693
35.682
35.673
35.669
35.667
35.67
35.677
35.688
35.702
35.718
35.736
35.755
35.772
35.788
35.801
35.81
35.816
35.819
35.819
35.816
35.81
35.801
35.79
35.779
35.767
35.755
35.743
35.73
35.717
35.702
35.684
35.664
35.641
35.614
35.584
35.552
35.519
35.484
35.45
35.415
35.381
35.347
35.313
35.279
35.245
35.212
35.179
35.145
35.11
35.074
35.038
35.001
34.964
34.928
34.892
34.857
34.821
34.785
34.748
34.709
34.67
34.629
34.586
34.543
34.498
34.452
34.406
34.36
34.316
34.274
34.234
34.198
34.165
34.135
34.109
34.085
34.064
34.045
34.028
34.012
33.996
33.98
33.964
33.947
33.932
33.917
33.905
33.897
33.893
33.896
33.908
33.932
33.968
34.018
34.086
34.171
34.274
34.397
34.537
34.694
34.865
35.048
35.239
35.436
35.635
35.833
36.028
36.217
36.4
36.575
36.741
36.898
37.044
37.18
37.304
37.416
37.516
37.603
37.677
37.737
37.784
37.817
37.836
37.843
37.838
37.822
37.798
37.766
37.728
37.684
37.638
37.588
37.537
37.484
37.43
37.375
37.318
37.26
37.2
37.139
37.077
37.014
36.95
36.885
36.818
36.751
36.685
36.62
36.557
36.497
36.44
36.386
36.335
36.286
36.241
36.198
36.157
36.118
36.078
36.039
36.0
35.959
35.919
35.878
35.837
35.798
35.76
35.726
35.696
35.672
35.652
35.637
35.628
35.624
35.626
35.632
35.642
35.656
35.673
35.693
35.714
35.734
35.752
35.767
35.777
35.782
35.78
35.772
35.757
35.736
35.709
35.677
35.641
35.601
35.559
35.515
35.47
35.425
35.379
35.334
35.289
35.243
35.198
35.151
35.105
35.058
35.012
34.967
34.924
34.882
34.844
34.808
34.777
34.75
34.729
34.712
34.701
34.695
34.693
34.693
34.694
34.694
34.692
34.686
34.675
34.659
34.637
34.609
34.575
34.536
34.493
34.445
34.396
34.347
34.299
34.252
34.209
34.17
34.135
34.106
34.08
34.059
34.041
34.026
34.011
33.997
33.983
33.966
33.948
33.926
33.903
33.877
33.851
33.823
33.796
33.77
33.747
33.726
33.711
33.704
33.707
33.722
33.753
33.799
33.864
33.948
34.051
34.174
34.316
34.476
34.652
34.841
35.041
35.249
35.461
35.676
35.89
36.102
36.309
36.509
36.699
36.877
37.043
37.195
37.333
37.455
37.562
37.654
37.732
37.795
37.843
37.878
37.9
37.91
37.91
37.901
37.883
37.859
37.829
37.795
37.757
37.715
37.671
37.624
37.574
37.522
37.47
37.417
37.364
37.311
37.259
37.206
37.152
37.098
37.042
36.985
36.925
36.863
36.799
36.734
36.668
36.602
36.536
36.472
36.409
36.349
36.29
36.235
36.182
36.132
36.087
36.044
36.006
35.973
35.944
35.92
35.898
35.881
35.867
35.856
35.85
35.849
35.853
35.861
35.875
35.893
35.915
35.94
35.968
35.996
36.023
36.048
36.07
36.086
36.096
36.098
36.093
36.08
36.06
36.033
36.0
35.963
35.923
35.879
35.834
35.789
35.742
35.697
35.651
35.607
35.564
35.523
35.485
35.448
35.413
35.38
35.348
35.317
35.288
35.259
35.231
35.204
35.178
35.152
35.127
35.102
35.078
35.054
35.031
35.008
34.985
34.961
34.937
34.914
34.89
34.865
34.84
34.813
34.784
34.754
34.723
34.689
34.654
34.618
34.58
34.544
34.507
34.472
34.439
34.409
34.382
34.357
34.334
34.313
34.293
34.274
34.254
34.235
34.217
34.199
34.183
34.171
34.164
34.165
34.176
34.202
34.244
34.305
34.386
34.489
34.614
34.76
34.926
35.11
35.309
35.52
35.739
35.963
36.187
36.409
36.625
36.831
37.025
37.203
37.365
37.51
37.636
37.744
37.834
37.908
37.968
38.014
38.049
38.074
38.09
38.1
38.104
38.103
38.097
38.087
38.074
38.057
38.037
38.014
37.988
37.959
37.926
37.89
37.851
37.809
37.763
37.713
37.658
37.597
37.53
37.456
37.375
37.287
37.194
37.096
36.996
36.896
36.798
36.703
36.613
36.529
36.452
36.383
36.322
36.269
36.224
36.184
36.15
36.12
36.093
36.066
36.038
36.009
35.978
35.946
35.912
35.879
35.846
35.816
35.788
35.766
35.748
35.737
35.731
35.732
35.738
35.748
35.762
35.778
35.794
35.808
35.821
35.83
35.834
35.833
35.827
35.817
35.803
35.783
35.758
35.727
35.692
35.653
35.61
35.565
35.517
35.469
35.421
35.373
35.325
35.277
35.23
35.185
35.143
35.104
35.068
35.036
35.009
34.986
34.967
34.952
34.941
34.933
34.928
34.924
34.919
34.913
34.903
34.89
34.872
34.849
34.822
34.79
34.754
34.715
34.672
34.628
34.582
34.535
34.488
34.441
34.395
34.351
34.309
34.27
34.234
34.202
34.173
34.148
34.126
34.108
34.091
34.076
34.063
34.051
34.04
34.032
34.027
34.025
34.029
34.039
34.059
34.09
34.135
34.193
34.269
34.362
34.473
34.602
34.75
34.916
35.098
35.296
35.506
35.726
35.953
36.184
36.416
36.644
36.866
37.08
37.284
37.474
37.651
37.813
37.959
38.091
38.207
38.31
38.399
38.474
38.535
38.583
38.617
38.636
38.643
38.637
38.619
38.589
38.55
38.501
38.444
38.382
38.314
38.241
38.166
38.09
38.014
37.938
37.865
37.793
37.724
37.657
37.592
37.529
37.467
37.406
37.345
37.284
37.223
37.16
37.097
37.033
36.968
36.903
36.837
36.773
36.709
36.646
36.585
36.525
36.465
36.406
36.348
36.291
36.235
36.18
36.128
36.079
36.036
35.999
35.969
35.947
35.933
35.927
35.928
35.935
35.948
35.966
35.987
36.01
36.035
36.059
36.081
36.1
36.114
36.124
36.126
36.12
36.107
36.085
36.054
36.016
35.971
35.922
35.871
35.82
35.769
35.72
35.672
35.627
35.583
35.541
35.5
35.459
35.419
35.379
35.34
35.303
35.267
35.232
35.199
35.167
35.137
35.108
35.08
35.052
35.024
34.997
34.97
34.942
34.915
34.888
34.862
34.838
34.814
34.792
34.769
34.745
34.719
34.689
34.656
34.618
34.576
34.53
34.48
34.428
34.373
34.317
34.26
34.203
34.148
34.095
34.046
34.001
33.96
33.924
33.893
33.869
33.849
33.835
33.826
33.821
33.821
33.824
33.832
33.846
33.867
33.898
33.939
33.993
34.063
34.15
34.255
34.381
34.526
34.692
34.878
35.08
35.298
35.527
35.764
36.006
36.247
36.485
36.715
36.936
37.144
37.336
37.512
37.669
37.807
37.925
38.025
38.104
38.166
38.21
38.239
38.254
38.258
38.253
38.239
38.217
38.189
38.155
38.117
38.076
38.032
37.986
37.938
37.889
37.838
37.784
37.728
37.668
37.605
37.538
37.468
37.394
37.318
37.24
37.163
37.086
37.012
36.94
36.872
36.808
36.748
36.692
36.641
36.593
36.548
36.505
36.463
36.422
36.382
36.341
36.301
36.26
36.217
36.174
36.129
36.083
36.036
35.988
35.942
35.897
35.856
35.818
35.785
35.758
35.737
35.723
35.715
35.714
35.718
35.728
35.742
35.759
35.779
35.8
35.82
35.839
35.855
35.867
35.873
35.873
35.867
35.855
35.837
35.814
35.786
35.755
35.721
35.685
35.649
35.612
35.575
35.539
35.503
35.467
35.43
35.393
35.356
35.319
35.284
35.249
35.215
35.182
35.149
35.118
35.087
35.056
35.024
34.992
34.957
34.921
34.884
34.844
34.803
34.761
34.717
34.673
34.629
34.585
34.541
34.499
34.459
34.42
34.383
34.349
34.317
34.286
34.256
34.227
34.2
34.173
34.147
34.123
34.099
34.078
34.057
34.039
34.023
34.011
34.002
33.998
34.0
34.01
34.029
34.059
34.103
34.161
34.235
34.326
34.434
34.56
34.703
34.862
35.037
35.226
35.428
35.641
35.862
36.088
36.317
36.546
36.772
36.992
37.204
37.407
37.599
37.78
37.95
38.107
38.253
38.386
38.505
38.611
38.702
38.776
38.835
38.877
38.902
38.912
38.907
38.887
38.855
38.812
38.758
38.696
38.627
38.553
38.475
38.394
38.314
38.233
38.153
38.074
37.996
37.917
37.839
37.758
37.676
37.591
37.504
37.416
37.326
37.236
37.146
37.057
36.969
36.883
36.799
36.717
36.638
36.562
36.49
36.422
36.358
36.3
36.246
36.196
36.151
36.111
36.075
36.043
36.017
35.997
35.982
35.974
35.97
35.973
35.981
35.994
36.011
36.031
36.053
36.076
36.1
36.123
36.143
36.16
36.174
36.183
36.187
36.186
36.18
36.167
36.148
36.123
36.093
36.059
36.022
35.983
35.945
35.908
35.872
35.838
35.805
35.774
35.743
35.712
35.679
35.646
35.611
35.575
35.536
35.497
35.455
35.414
35.372
35.33
35.289
35.248
35.206
35.165
35.123
35.08
35.037
34.992
34.946
34.899
34.85
34.8
34.75
34.699
34.648
34.597
34.546
34.497
34.448
34.401
34.357
34.314
34.273
34.235
34.199
34.165
34.134
34.104
34.077
34.053
34.031
34.012
33.998
33.99
33.99
34.001
34.025
34.065
34.124
34.204
34.307
34.434
34.586
34.762
34.96
35.179
35.416
35.666
35.926
36.191
36.457
36.719
36.974
37.22
37.454
37.675
37.88
38.069
38.239
38.39
38.52
38.631
38.722
38.795
38.851
38.89
38.915
38.926
38.924
38.91
38.887
38.855
38.816
38.773
38.726
38.678
38.628
38.579
38.528
38.477
38.425
38.37
38.312
38.249
38.182
38.111
38.034
37.953
37.867
37.779
37.687
37.593
37.498
37.403
37.308
37.216
37.128
37.043
36.964
36.888
36.816
36.747
36.682
36.62
36.56
36.504
36.45
36.398
36.349
36.302
36.257
36.215
36.176
36.141
36.111
36.085
36.064
36.048
36.036
36.028
36.024
36.025
36.028
36.035
36.043
36.052
36.06
36.065
36.067
36.063
36.054
36.039
36.02
35.994
35.964
35.928
35.887
35.841
35.791
35.737
35.681
35.623
35.565
35.509
35.455
35.406
35.361
35.321
35.285
35.253
35.225
35.198
35.172
35.146
35.119
35.09
35.057
35.021
34.981
34.937
34.89
34.841
34.789
34.735
34.679
34.622
34.564
34.506
34.449
34.395
34.344
34.298
34.256
34.22
34.189
34.162
34.137
34.114
34.091
34.067
34.04
34.011
33.978
33.942
33.903
33.862
33.819
33.776
33.733
33.691
33.651
33.615
33.583
33.557
33.541
33.535
33.543
33.567
33.609
33.672
33.757
33.865
33.996
34.152
34.329
34.528
34.744
34.975
35.217
35.468
35.722
35.978
36.232
36.48
36.72
36.948
37.163
37.362
37.545
37.71
37.858
37.988
38.102
38.201
38.283
38.351
38.404
38.444
38.47
38.484
38.488
38.484
38.473
38.455
38.432
38.406
38.375
38.34
38.301
38.258
38.208
38.153
38.092
38.025
37.951
37.873
37.79
37.702
37.611
37.517
37.42
37.321
37.22
37.118
37.015
36.914
36.814
36.715
36.619
36.525
36.434
36.348
36.265
36.187
36.112
36.042
35.977
35.918
35.863
35.815
35.773
35.736
35.706
35.68
35.659
35.643
35.63
35.622
35.616
35.612
35.61
35.609
35.61
35.612
35.614
35.618
35.622
35.628
35.634
35.64
35.643
35.644
35.641
35.633
35.62
35.601
35.578
35.549
35.515
35.478
35.436
35.39
35.342
35.29
35.236
35.179
35.121
35.061
35.0
34.939
34.879
34.821
34.767
34.715
34.668
34.624
34.586
34.552
34.523
34.497
34.474
34.454
34.434
34.415
34.395
34.373
34.348
34.32
34.288
34.253
34.214
34.171
34.126
34.079
34.032
33.985
33.941
33.898
33.859
33.824
33.792
33.764
33.738
33.715
33.693
33.673
33.653
33.632
33.61
33.588
33.563
33.538
33.512
33.486
33.459
33.434
33.412
33.393
33.38
33.374
33.379
33.395
33.427
33.476
33.544
33.634
33.748
33.887
34.049
34.234
34.44
34.664
34.903
35.153
35.411
35.672
35.932
36.187
36.434
36.67
36.893
37.1
37.289
37.461
37.613
37.746
37.86
37.957
38.035
38.096
38.142
38.174
38.194
38.202
38.201
38.19
38.17
38.142
38.105
38.059
38.005
37.944
37.877
37.805
37.729
37.652
37.575
37.498
37.423
37.35
37.279
37.208
37.137
37.066
36.994
36.92
36.847
36.772
36.697
36.621
36.544
36.466
36.387
36.308
36.228
36.148
36.07
35.994
35.922
35.853
35.79
35.731
35.677
35.628
35.585
35.546
35.512
35.484
35.46
35.441
35.425
35.414
35.407
35.403
35.4
35.4
35.399
35.398
35.396
35.394
35.391
35.388
35.384
35.379
35.374
35.368
35.36
35.349
35.335
35.318
35.295
35.268
35.236
35.2
35.161
35.12
35.077
35.033
34.989
34.945
34.9
34.856
34.813
34.769
34.726
34.682
34.638
34.595
34.553
34.511
34.471
34.432
34.393
34.356
34.319
34.282
34.245
34.208
34.171
34.134
34.096
34.059
34.021
33.983
33.945
33.907
33.868
33.828
33.788
33.746
33.703
33.659
33.613
33.568
33.523
33.479
33.437
33.397
33.358
33.322
33.287
33.255
33.225
33.198
33.173
33.153
33.138
33.131
33.134
33.149
33.179
33.225
33.29
33.375
33.481
33.607
33.754
33.919
34.101
34.297
34.506
34.724
34.949
35.178
35.408
35.634
35.855
36.066
36.267
36.454
36.626
36.782
36.92
37.041
37.145
37.23
37.299
37.35
37.384
37.404
37.409
37.402
37.382
37.353
37.315
37.27
37.22
37.167
37.112
37.056
36.999
36.942
36.884
36.825
36.766
36.706
36.644
36.581
36.515
36.448
36.377
36.303
36.227
36.147
36.066
35.984
35.903
35.823
35.745
35.671
35.601
35.535
35.475
35.418
35.365
35.314
35.264
35.215
35.166
35.116
35.066
35.015
34.965
34.915
34.867
34.822
34.781
34.744
34.711
34.683
34.659
34.64
34.625
34.615
34.609
34.606
34.606
34.606
34.608
34.608
34.606
34.602
34.594
34.583
34.568
34.552
34.533
34.512
34.489
34.466
34.442
34.417
34.392
34.366
34.338
34.309
34.277
34.243
34.207
34.167
34.124
34.078
34.03
33.979
33.927
33.874
33.82
33.766
33.714
33.662
33.613
33.567
33.523
33.483
33.447
33.416
33.388
33.363
33.341
33.319
33.298
33.277
33.256
33.233
33.208
33.18
33.15
33.118
33.083
33.046
33.009
32.972
32.934
32.898
32.861
32.826
32.792
32.758
32.725
32.692
32.659
32.624
32.587
32.549
32.51
32.471
32.433
32.398
32.366
32.338
32.317
32.303
32.298
32.303
32.321
32.353
32.4
32.464
32.548
32.65
32.773
32.916
33.079
33.261
33.458
33.67
33.893
34.123
34.358
34.592
34.823
35.046
35.261
35.463
35.651
35.824
35.981
36.119
36.239
36.34
36.422
36.485
36.532
36.562
36.578
36.58
36.57
36.55
36.52
36.483
36.439
36.388
36.332
36.272
36.208
36.143
36.077
36.012
35.947
35.883
35.821
35.761
35.703
35.647
35.593
35.54
35.487
35.433
35.378
35.322
35.264
35.205
35.146
35.087
35.027
34.969
34.911
34.854
34.798
34.743
34.691
34.64
34.593
34.548
34.507
34.47
34.437
34.408
34.383
34.362
34.345
34.332
34.322
34.314
34.308
34.304
34.301
34.298
34.295
34.291
34.285
34.277
34.267
34.253
34.236
34.215
34.191
34.164
34.135
34.103
34.07
34.035
34.0
33.964
33.929
33.895
33.863
33.833
33.806
33.781
33.759
33.739
33.721
33.705
33.689
33.672
33.655
33.635
33.613
33.587
33.558
33.524
33.486
33.444
33.397
33.347
33.294
33.239
33.186
33.135
33.088
33.046
33.009
32.978
32.953
32.933
32.918
32.906
32.896
32.888
32.881
32.874
32.866
32.858
32.849
32.839
32.828
32.816
32.803
32.789
32.775
32.759
32.742
32.724
32.702
32.678
32.651
32.621
32.59
32.556
32.522
32.488
32.455
32.424
32.395
32.369
32.347
32.328
32.312
32.301
32.295
32.292
32.295
32.304
32.321
32.346
32.381
32.427
32.486
32.557
32.642
32.74
32.852
32.975
33.11
33.254
33.405
33.563
33.724
33.888
34.052
34.215
34.377
34.536
34.691
34.84
34.983
35.118
35.242
35.354
35.453
35.539
35.609
35.665
35.707
35.735
35.748
35.749
35.738
35.717
35.688
35.653
35.614
35.573
35.531
35.49
35.451
35.415
35.382
35.351
35.322
35.292
35.261
35.227
35.19
35.148
35.103
35.054
35.001
34.945
34.887
34.827
34.765
34.703
34.641
34.58
34.522
34.468
34.418
34.374
34.335
34.302
34.274
34.251
34.233
34.219
34.207
34.197
34.187
34.178
34.168
34.159
34.149
34.141
34.133
34.128
34.126
34.128
34.133
34.142
34.154
34.169
34.185
34.202
34.22
34.238
34.255
34.27
34.284
34.296
34.306
34.312
34.315
34.313
34.307
34.295
34.276
34.253
34.224
34.191
34.156
34.118
34.079
34.04
34.003
33.967
33.936
33.908
33.884
33.863
33.845
33.83
33.815
33.801
33.787
33.772
33.755
33.737
33.717
33.696
33.672
33.648
33.623
33.598
33.573
33.549
33.526
33.505
33.485
33.465
33.447
33.428
33.409
33.389
33.37
33.349
33.328
33.305
33.282
33.257
33.233
33.208
33.184
33.158
33.133
33.107
33.081
33.056
33.032
33.009
32.989
32.972
32.959
32.95
32.947
32.95
32.962
32.983
33.014
33.055
33.108
33.173
33.251
33.342
33.446
33.564
33.694
33.835
33.987
34.146
34.311
34.48
34.651
34.822
34.991
35.156
35.316
35.47
35.617
35.755
35.883
36.001
36.106
36.2
36.28
36.347
36.401
36.442
36.469
36.485
36.488
36.482
36.467
36.445
36.418
36.386
36.35
36.31
36.267
36.222
36.174
36.125
36.074
36.022
35.967
35.911
35.854
35.794
35.733
35.668
35.602
35.533
35.463
35.393
35.324
35.255
35.188
35.124
35.063
35.005
34.953
34.907
34.866
34.83
34.8
34.774
34.752
34.733
34.718
34.705
34.695
34.688
34.682
34.678
34.675
34.673
34.671
34.668
34.667
34.666
34.667
34.67
34.677
34.688
34.703
34.722
34.747
34.777
34.812
34.851
34.893
34.936
34.979
35.017
35.049
35.074
35.089
35.094
35.089
35.073
35.048
35.015
34.974
34.927
34.877
34.824
34.77
34.717
34.666
34.617
34.572
34.53
34.49
34.453
34.418
34.386
34.356
34.327
34.299
34.271
34.244
34.217
34.189
34.16
34.129
34.098
34.065
34.031
33.996
33.959
33.921
33.881
33.841
33.8
33.758
33.716
33.675
33.635
33.596
33.558
33.523
33.49
33.459
33.429
33.399
33.369
33.339
33.307
33.275
33.24
33.204
33.167
33.129
33.092
33.056
33.022
32.992
32.967
32.948
32.938
32.937
32.948
32.973
33.012
33.065
33.134
33.218
33.318
33.435
33.568
33.716
33.878
34.05
34.232
34.419
34.61
34.802
34.992
35.177
35.356
35.525
35.684
35.831
35.964
36.085
36.193
36.288
36.371
36.442
36.503
36.553
36.593
36.623
36.644
36.655
36.658
36.653
36.641
36.623
36.599
36.57
36.536
36.497
36.454
36.407
36.358
36.308
36.256
36.205
36.155
36.107
36.062
36.02
35.979
35.941
35.903
35.866
35.829
35.791
35.752
35.712
35.67
35.628
35.585
35.543
35.501
35.461
35.423
35.387
35.354
35.322
35.293
35.267
35.244
35.224
35.207
35.193
35.182
35.174
35.168
35.163
35.159
35.154
35.149
35.142
35.134
35.123
35.111
35.096
35.081
35.064
35.047
35.031
35.016
35.002
34.989
34.975
34.962
34.947
34.931
34.913
34.893
34.871
34.848
34.823
34.795
34.766
34.734
34.7
34.664
34.626
34.586
34.544
34.502
34.46
34.417
34.375
34.332
34.29
34.249
34.208
34.167
34.125
34.083
34.041
33.997
33.953
33.908
33.864
33.822
33.783
33.748
33.717
33.691
33.669
33.651
33.638
33.628
33.622
33.619
33.617
33.616
33.615
33.613
33.611
33.607
33.601
33.593
33.582
33.569
33.553
33.534
33.512
33.488
33.46
33.431
33.4
33.368
33.335
33.302
33.27
33.24
33.212
33.186
33.163
33.142
33.124
33.108
33.095
33.084
33.077
33.074
33.078
33.091
33.114
33.148
33.196
33.257
33.335
33.428
33.537
33.661
33.8
33.951
34.114
34.286
34.466
34.651
34.841
35.034
35.227
35.419
35.607
35.79
35.963
36.127
36.277
36.414
36.535
36.641
36.73
36.803
36.86
36.902
36.93
36.946
36.95
36.945
36.931
36.912
36.887
36.857
36.823
36.786
36.747
36.706
36.664
36.622
36.582
36.541
36.502
36.462
36.422
36.38
36.337
36.291
36.242
36.191
36.136
36.079
36.019
35.958
35.895
35.832
35.77
35.709
35.651
35.596
35.544
35.494
35.447
35.403
35.362
35.325
35.291
35.259
35.229
35.2
35.172
35.144
35.118
35.094
35.072
35.055
35.043
