Trial 1:0back
35.868
35.84
35.81
35.781
35.753
35.726
35.701
35.678
35.656
35.636
35.617
35.6
35.584
35.569
35.554
35.539
35.525
35.511
35.497
35.485
35.473
35.463
35.454
35.447
35.439
35.432
35.424
35.415
35.405
35.394
35.383
35.37
35.356
35.343
35.33
35.318
35.307
35.298
35.29
35.282
35.274
35.265
35.256
35.247
35.238
35.228
35.218
35.206
35.192
35.176
35.157
35.137
35.116
35.094
35.072
35.05
35.029
35.007
34.984
34.96
34.935
34.909
34.884
34.86
34.836
34.813
34.791
34.77
34.75
34.731
34.714
34.697
34.682
34.668
34.654
34.641
34.629
34.616
34.604
34.591
34.579
34.565
34.551
34.535
34.518
34.5
34.48
34.46
34.44
34.421
34.402
34.383
34.368
34.356
34.349
34.349
34.357
34.374
34.403
34.445
34.502
34.573
34.659
34.758
34.871
34.994
35.127
35.267
35.414
35.564
35.715
35.864
36.01
36.151
36.285
36.411
36.528
36.636
36.734
36.821
36.898
36.965
37.024
37.076
37.122
37.163
37.2
37.234
37.266
37.295
37.322
37.346
37.367
37.384
37.399
37.411
37.422
37.431
37.439
37.447
37.454
37.461
37.467
37.472
37.475
37.476
37.476
37.474
37.471
37.468
37.463
37.457
37.449
37.44
37.429
37.416
37.403
37.388
37.371
37.352
37.331
37.307
37.282
37.257
37.233
37.211
37.19
37.169
37.148
37.127
37.107
37.088
37.07
37.054
37.04
37.03
37.024
37.022
37.024
37.029
37.035
37.038
37.039
37.036
37.029
37.021
37.012
37.002
36.993
36.986
36.978
36.971
36.964
36.956
36.947
36.937
36.925
36.912
36.897
36.879
36.859
36.834
36.805
36.773
36.737
36.699
36.658
36.614
36.57
36.525
36.48
36.437
36.394
36.353
36.313
36.275
36.238
36.203
36.171
36.144
36.121
36.103
36.089
36.077
36.065
36.052
36.039
36.025
36.011
35.998
35.986
35.975
35.965
35.955
35.944
35.932
35.919
35.903
35.885
35.864
35.841
35.816
35.789
35.761
35.734
35.707
35.683
35.66
35.638
35.617
35.596
35.574
35.552
35.531
35.51
35.489
35.468
35.447
35.426
35.405
35.384
35.362
35.342
35.323
35.306
35.29
35.274
35.259
35.242
35.225
35.206
35.186
35.165
35.144
35.121
35.098
35.074
35.048
35.023
34.997
34.971
34.945
34.918
34.893
34.868
34.844
34.821
34.799
34.779
34.761
34.746
34.733
34.722
34.711
34.701
34.691
34.681
34.67
34.659
34.647
34.634
34.62
34.606
34.592
34.578
34.564
34.549
34.532
34.514
34.494
34.472
34.449
34.425
34.401
34.377
34.357
34.339
34.324
34.313
34.304
34.297
34.291
34.288
34.288
34.294
34.307
34.33
34.365
34.413
34.475
34.55
34.637
34.736
34.847
34.968
35.099
35.24
35.388
35.54
35.696
35.852
36.007
36.16
36.308
36.45
36.585
36.711
36.828
36.936
37.034
37.123
37.202
37.271
37.331
37.383
37.426
37.464
37.496
37.523
37.546
37.566
37.581
37.591
37.596
37.597
37.593
37.586
37.576
37.564
37.55
37.536
37.522
37.508
37.495
37.484
37.473
37.463
37.455
37.448
37.443
37.439
37.437
37.435
37.433
37.432
37.43
37.427
37.421
37.412
37.399
37.383
37.364
37.344
37.323
37.3
37.277
37.252
37.226
37.198
37.171
37.143
37.117
37.093
37.071
37.052
37.035
37.021
37.009
36.999
36.991
36.986
36.982
36.98
36.98
36.981
36.983
36.984
36.984
36.984
36.983
36.982
36.981
36.979
36.974
36.966
36.954
36.938
36.918
36.894
36.866
36.835
36.801
36.765
36.726
36.685
36.643
36.599
36.554
36.51
36.468
36.428
36.39
36.353
36.317
36.283
36.249
36.217
36.187
36.159
36.132
36.106
36.081
36.057
36.034
36.012
35.991
35.97
35.949
35.928
35.907
35.884
35.86
35.834
35.808
35.78
35.751
35.721
35.69
35.656
35.621
35.586
35.55
35.516
35.485
35.457
35.431
35.408
35.387
35.368
35.352
35.34
35.331
35.324
35.319
35.316
35.313
35.309
35.304
35.295
35.284
35.268
35.25
35.23
35.208
35.185
35.162
35.137
35.111
35.084
35.057
35.03
35.003
34.978
34.954
34.932
34.912
34.893
34.876
34.859
34.842
34.824
34.807
34.79
34.774
34.759
34.745
34.733
34.721
34.71
34.698
34.685
34.671
34.655
34.638
34.619
34.599
34.579
34.558
34.536
34.514
34.491
34.47
34.448
34.428
34.408
34.388
34.37
34.353
34.336
34.32
34.304
34.288
34.273
34.258
34.244
34.23
34.216
34.2
34.182
34.164
34.145
34.127
34.111
34.096
34.084
34.074
34.066
34.061
34.059
34.059
34.063
34.071
34.086
34.109
34.143
34.188
34.248
34.322
34.413
34.52
34.642
34.777
34.923
35.078
35.242
35.411
35.585
35.761
35.935
36.105
36.266
36.418
36.558
36.685
36.798
36.899
36.986
37.06
37.124
37.178
37.224
37.262
37.294
37.32
37.343
37.363
37.381
37.395
37.407
37.416
37.421
37.424
37.426
37.426
37.424
37.421
37.417
37.412
37.408
37.405
37.403
37.404
37.406
37.408
37.41
37.409
37.407
37.401
37.392
37.38
37.364
37.345
37.322
37.296
37.268
37.237
37.206
37.172
37.137
37.102
37.067
37.032
36.998
36.965
36.934
36.905
36.877
36.852
36.83
36.812
36.798
36.787
36.778
36.771
36.765
36.759
36.754
36.751
36.748
36.746
36.745
36.745
36.746
36.747
36.748
36.748
36.746
36.743
36.739
36.734
36.727
36.718
36.707
36.692
36.673
36.65
36.624
36.594
36.562
36.529
36.494
36.459
36.423
36.387
36.348
36.308
36.265
36.219
36.173
36.125
36.078
36.034
35.992
35.954
35.918
35.886
35.857
35.83
35.805
35.78
35.755
35.731
35.707
35.684
35.661
35.639
35.616
35.592
35.569
35.546
35.525
35.504
35.485
35.465
35.447
35.43
35.414
35.4
35.388
35.377
35.369
35.362
35.356
35.35
35.343
35.335
35.325
35.313
35.3
35.285
35.268
35.248
35.225
35.2
35.173
35.146
35.119
35.095
35.072
35.051
35.03
35.01
34.989
34.967
34.944
34.92
34.895
34.868
34.84
34.811
34.782
34.754
34.727
34.704
34.683
34.664
34.648
34.633
34.62
34.606
34.593
34.579
34.563
34.546
34.526
34.504
34.481
34.456
34.43
34.404
34.377
34.349
34.322
34.296
34.271
34.248
34.226
34.205
34.186
34.168
34.153
34.138
34.125
34.112
34.1
34.088
34.076
34.065
34.053
34.041
34.028
34.014
33.999
33.983
33.964
33.944
33.921
33.898
33.874
33.85
33.828
33.806
33.786
33.77
33.758
33.754
33.759
33.776
33.804
33.846
33.902
33.972
34.057
34.157
34.269
34.395
34.533
34.681
34.84
35.007
35.179
35.353
35.528
35.701
35.87
36.035
36.195
36.347
36.492
36.627
36.753
36.871
36.979
37.078
37.168
37.248
37.319
37.38
37.432
37.475
37.51
37.537
37.559
37.575
37.586
37.593
37.596
37.596
37.596
37.594
37.593
37.591
37.588
37.585
37.582
37.578
37.573
37.568
37.562
37.554
37.546
37.534
37.52
37.504
37.486
37.467
37.448
37.43
37.412
37.394
37.374
37.352
37.329
37.303
37.275
37.247
37.218
37.189
37.16
37.131
37.103
37.075
37.048
37.023
37.0
36.979
36.96
36.945
36.933
36.925
36.919
36.916
36.914
36.912
36.909
36.905
36.899
36.89
36.88
36.869
36.857
36.844
36.831
36.818
36.802
36.784
36.763
36.739
36.712
36.684
36.654
36.625
36.594
36.562
36.528
36.492
36.454
36.414
36.373
36.33
36.286
36.242
36.197
36.154
36.112
36.072
36.034
35.997
35.962
35.927
35.895
35.864
35.835
35.809
35.784
35.761
35.74
35.721
35.703
35.684
35.664
35.642
35.618
35.594
35.569
35.545
35.523
35.503
35.485
35.469
35.455
35.442
35.43
35.418
35.407
35.396
35.386
35.376
35.364
35.351
35.334
35.315
35.293
35.269
35.244
35.219
35.192
35.166
35.14
35.115
35.09
35.067
35.045
35.025
35.006
34.988
34.971
34.955
34.938
34.921
34.903
34.884
34.864
34.842
34.819
34.794
34.767
34.739
34.709
34.679
34.648
34.616
34.585
34.554
34.525
34.497
34.472
34.449
34.428
34.41
34.393
34.378
34.365
34.352
34.34
34.329
34.317
34.304
34.292
34.279
34.267
34.254
34.241
34.228
34.213
34.198
34.181
34.163
34.143
34.122
34.101
34.079
34.057
34.034
34.012
33.99
33.969
33.951
33.936
33.925
33.918
33.913
33.909
33.905
33.901
33.896
33.89
33.881
33.871
33.858
33.844
33.828
33.812
33.796
33.779
33.763
33.748
33.736
33.728
33.725
33.73
33.743
33.767
33.803
33.853
33.92
34.002
34.101
34.215
34.346
34.491
34.648
34.815
34.989
35.169
35.351
35.535
35.719
35.901
36.079
36.252
36.416
36.569
36.711
36.842
36.959
37.064
37.156
37.235
37.303
37.359
37.406
37.445
37.477
37.504
37.526
37.546
37.562
37.575
37.585
37.591
37.595
37.595
37.593
37.589
37.584
37.579
37.574
37.571
37.567
37.563
37.558
37.551
37.543
37.534
37.524
37.515
37.506
37.497
37.488
37.477
37.464
37.45
37.435
37.417
37.398
37.377
37.354
37.329
37.303
37.275
37.246
37.215
37.184
37.153
37.123
37.094
37.068
37.044
37.023
37.003
36.986
36.971
36.959
36.949
36.941
36.933
36.924
36.916
36.906
36.894
36.881
36.865
36.849
36.832
36.816
36.8
36.785
36.77
36.755
36.74
36.723
36.704
36.684
36.662
36.638
36.611
36.582
36.551
36.518
36.484
36.448
36.412
36.374
36.335
36.295
36.255
36.214
36.173
36.133
36.094
36.056
36.018
35.982
35.947
35.912
35.877
35.842
35.807
35.773
35.74
35.707
35.674
35.642
35.61
35.578
35.547
35.518
35.492
35.469
35.45
35.434
35.42
35.408
35.397
35.386
35.375
35.362
35.348
35.331
35.313
35.293
35.272
35.25
35.229
35.207
35.184
35.16
35.134
35.106
35.077
35.047
35.019
34.993
34.969
34.949
34.929
34.91
34.891
34.87
34.848
34.825
34.801
34.778
34.754
34.73
34.706
34.681
34.656
34.632
34.609
34.586
34.566
34.548
34.532
34.52
34.509
34.499
34.491
34.484
34.475
34.464
34.45
34.434
34.416
34.397
34.376
34.354
34.331
34.308
34.284
34.26
34.236
34.212
34.189
34.166
34.143
34.119
34.095
34.073
34.053
34.035
34.019
34.007
33.997
33.99
33.985
33.98
33.976
33.971
33.964
33.956
33.946
33.935
33.923
33.91
33.897
33.884
33.87
33.857
33.844
33.831
33.818
33.806
33.795
33.784
33.774
33.765
33.755
33.746
33.738
33.731
33.727
33.727
33.733
33.747
33.772
33.809
33.86
33.928
34.014
34.117
34.239
34.378
34.532
34.7
34.878
35.064
35.255
35.448
35.643
35.836
36.024
36.205
36.377
36.537
36.685
36.822
36.947
37.061
37.163
37.253
37.33
37.394
37.447
37.489
37.523
37.549
37.568
37.579
37.584
37.583
37.577
37.568
37.555
37.542
37.526
37.51
37.495
37.48
37.469
37.459
37.453
37.449
37.446
37.445
37.446
37.448
37.451
37.455
37.457
37.457
37.452
37.442
37.427
37.407
37.381
37.352
37.318
37.28
37.238
37.193
37.146
37.098
37.05
37.002
36.956
36.912
36.872
36.837
36.807
36.783
36.765
36.752
36.744
36.74
36.74
36.742
36.747
36.753
36.76
36.769
36.778
36.786
36.792
36.795
36.793
36.784
36.77
36.75
36.725
36.697
36.665
36.631
36.596
36.56
36.523
36.487
36.452
36.419
36.388
36.359
36.331
36.305
36.278
36.251
36.222
36.19
36.157
36.121
36.084
36.045
36.004
35.963
35.921
35.879
35.838
35.798
35.758
35.719
35.68
35.642
35.604
35.569
35.536
35.507
35.481
35.457
35.435
35.414
35.394
35.375
35.356
35.337
35.317
35.297
35.276
35.255
35.234
35.211
35.187
35.16
35.132
35.103
35.075
35.048
35.024
35.003
34.984
34.968
34.954
34.941
34.929
34.916
34.903
34.889
34.874
34.859
34.842
34.824
34.804
34.78
34.754
34.724
34.692
34.658
34.621
34.583
34.545
34.506
34.47
34.438
34.409
34.384
34.363
34.345
34.331
34.319
34.311
34.305
34.302
34.299
34.297
34.295
34.291
34.286
34.279
34.27
34.258
34.244
34.229
34.212
34.194
34.174
34.152
34.129
34.105
34.081
34.055
34.029
34.003
33.978
33.953
33.93
33.909
33.889
33.872
33.858
33.846
33.835
33.826
33.817
33.808
33.796
33.783
33.77
33.755
33.741
33.727
33.714
33.701
33.69
33.68
33.67
33.659
33.648
33.636
33.624
33.612
33.601
33.592
33.585
33.581
33.581
33.584
33.593
33.608
33.632
33.667
33.716
33.781
33.864
33.966
34.087
34.225
34.381
34.552
34.736
34.932
35.136
35.345
35.557
35.766
35.972
36.172
36.364
36.544
36.712
36.866
37.005
37.131
37.244
37.344
37.433
37.509
37.573
37.625
37.667
37.699
37.723
37.741
37.753
37.76
37.763
37.763
37.759
37.754
37.748
37.74
37.732
37.724
37.715
37.707
37.7
37.696
37.694
37.695
37.696
37.697
37.698
37.697
37.694
37.691
37.685
37.675
37.662
37.646
37.626
37.603
37.578
37.55
37.519
37.485
37.446
37.404
37.36
37.315
37.271
37.228
37.187
37.148
37.11
37.076
37.046
37.02
36.998
36.979
36.963
36.95
36.939
36.931
36.925
36.921
36.918
36.915
36.913
36.912
36.911
36.909
36.905
36.898
36.887
36.871
36.851
36.827
36.799
36.769
36.736
36.7
36.662
36.621
36.577
36.532
36.485
36.438
36.391
36.345
36.3
36.256
36.214
36.173
36.132
36.091
36.051
36.012
35.974
35.939
35.905
35.872
35.84
35.809
35.777
35.745
35.712
35.679
35.646
35.613
35.58
35.547
35.513
35.481
35.448
35.416
35.385
35.355
35.326
35.301
35.277
35.256
35.237
35.219
35.203
35.188
35.173
35.158
35.145
35.131
35.117
35.104
35.091
35.078
35.063
35.047
35.029
35.008
34.985
34.96
34.934
34.909
34.886
34.864
34.843
34.824
34.807
34.79
34.775
34.761
34.747
34.734
34.72
34.706
34.691
34.674
34.658
34.64
34.621
34.602
34.58
34.556
34.529
34.5
34.47
34.44
34.41
34.383
34.356
34.33
34.303
34.277
34.252
34.227
34.204
34.183
34.164
34.146
34.128
34.111
34.093
34.074
34.053
34.031
34.008
33.986
33.965
33.945
33.926
33.906
33.887
33.868
33.85
33.834
33.82
33.809
33.799
33.791
33.785
33.781
33.779
33.777
33.776
33.776
33.775
33.773
33.77
33.763
33.754
33.74
33.725
33.707
33.689
33.673
33.659
33.65
33.649
33.656
33.676
33.709
33.759
33.825
33.908
34.009
34.129
34.266
34.421
34.59
34.774
34.97
35.175
35.387
35.602
35.817
36.029
36.236
36.435
36.625
36.803
36.969
37.121
37.26
37.386
37.5
37.601
37.691
37.771
37.841
37.901
37.951
37.993
38.025
38.05
38.069
38.081
38.089
38.094
38.096
38.096
38.092
38.085
38.076
38.064
38.052
38.039
38.026
38.014
38.001
37.988
37.973
37.955
37.935
37.913
37.89
37.868
37.845
37.822
37.797
37.772
37.746
37.721
37.695
37.669
37.643
37.614
37.584
37.552
37.52
37.487
37.456
37.425
37.396
37.369
37.342
37.317
37.294
37.272
37.253
37.235
37.218
37.202
37.186
37.173
37.161
37.153
37.148
37.146
37.148
37.152
37.156
37.161
37.165
37.167
37.167
37.165
37.159
37.149
37.133
37.114
37.089
37.062
37.03
36.995
36.956
36.912
36.863
36.81
36.755
36.699
36.642
36.585
36.531
36.478
36.429
36.383
36.341
36.302
36.264
36.228
36.192
36.156
36.12
36.085
36.05
36.015
35.982
35.95
35.92
35.891
35.863
35.836
35.809
35.785
35.762
35.741
35.721
35.703
35.685
35.667
35.647
35.625
35.6
35.574
35.545
35.516
35.487
35.458
35.432
35.408
35.386
35.365
35.344
35.323
35.303
35.283
35.265
35.248
35.233
35.218
35.202
35.184
35.164
35.141
35.115
35.087
35.058
35.029
35.0
34.971
34.943
34.915
34.887
34.861
34.836
34.813
34.792
34.771
34.751
34.73
34.708
34.686
34.663
34.641
34.619
34.595
34.571
34.544
34.517
34.49
34.464
34.44
34.419
34.401
34.385
34.373
34.363
34.354
34.347
34.34
34.335
34.329
34.323
34.315
34.305
34.293
34.277
34.259
34.238
34.215
34.19
34.164
34.138
34.112
34.087
34.063
34.041
34.02
33.999
33.979
33.959
33.939
33.917
33.894
33.87
33.847
33.825
33.808
33.798
33.8
33.815
33.848
33.899
33.97
34.061
34.172
34.301
34.447
34.609
34.785
34.974
35.173
35.38
35.592
35.805
36.015
36.219
36.414
36.599
36.773
36.936
37.087
37.226
37.352
37.465
37.565
37.653
37.731
37.798
37.857
37.905
37.945
37.977
38.001
38.018
38.028
38.033
38.032
38.027
38.02
38.011
38.002
37.993
37.983
37.972
37.961
37.949
37.936
37.923
37.911
37.9
37.89
37.88
37.869
37.856
37.839
37.818
37.792
37.761
37.725
37.686
37.643
37.596
37.545
37.491
37.434
37.376
37.32
37.266
37.215
37.169
37.13
37.097
37.07
37.049
37.032
37.02
37.011
37.003
36.996
36.988
36.978
36.967
36.955
36.941
36.927
36.912
36.896
36.88
36.864
36.848
36.832
36.816
36.8
36.783
36.766
36.749
36.732
36.716
36.7
36.684
36.667
36.648
36.626
36.6
36.57
36.535
36.497
36.454
36.408
36.359
36.307
36.252
36.196
36.139
36.08
36.02
35.96
35.903
35.849
35.8
35.756
35.719
35.686
35.658
35.633
35.61
35.59
35.57
35.549
35.529
35.508
35.488
35.466
35.444
35.42
35.394
35.366
35.338
35.309
35.281
35.253
35.227
35.202
35.177
35.153
35.13
35.107
35.084
35.062
35.039
35.016
34.993
34.97
34.948
34.926
34.905
34.885
34.865
34.846
34.828
34.809
34.789
34.77
34.751
34.733
34.717
34.701
34.686
34.669
34.65
34.629
34.605
34.581
34.556
34.532
34.508
34.485
34.463
34.439
34.415
34.394
34.381
34.379
34.387
34.401
34.419
34.437
34.451
34.457
34.455
34.443
34.423
34.395
34.358
34.314
34.263
34.208
34.151
34.093
34.038
33.987
33.941
33.9
33.865
33.836
33.814
33.796
33.785
33.778
33.776
33.776
33.778
33.78
33.782
33.781
33.778
33.771
33.76
33.746
33.727
33.705
33.678
33.649
33.619
33.59
33.565
33.546
33.535
33.534
33.546
33.574
33.618
33.68
33.761
33.864
33.987
34.131
34.294
34.475
34.67
34.878
35.095
35.317
35.543
35.771
35.997
36.219
36.434
36.641
36.836
37.018
37.186
37.338
37.475
37.596
37.702
37.795
37.875
37.945
38.007
38.061
38.109
38.151
38.187
38.218
38.244
38.266
38.284
38.297
38.305
38.309
38.308
38.303
38.294
38.282
38.268
38.253
38.236
38.218
38.201
38.182
38.164
38.145
38.126
38.105
38.082
38.057
38.031
38.002
37.972
37.94
37.905
37.868
37.829
37.789
37.748
37.707
37.666
37.625
37.583
37.541
37.5
37.461
37.424
37.39
37.357
37.326
37.297
37.27
37.245
37.222
37.202
37.184
37.168
37.152
37.136
37.121
37.107
37.093
37.079
37.064
37.049
37.032
37.013
36.992
36.969
36.943
36.915
36.885
36.852
36.817
36.781
36.744
36.707
36.67
36.631
36.592
36.55
36.506
36.46
36.413
36.367
36.321
36.276
36.232
36.188
36.145
36.104
36.063
36.022
35.98
35.937
35.895
35.852
35.811
35.771
35.731
35.692
35.653
35.613
35.574
35.534
35.494
35.454
35.414
35.375
35.337
35.301
35.268
35.237
35.208
35.18
35.154
35.13
35.107
35.086
35.068
35.052
35.037
35.025
35.015
35.007
34.999
34.993
34.986
34.978
34.968
34.956
34.94
34.92
34.897
34.87
34.841
34.812
34.783
34.754
34.726
34.698
34.672
34.648
34.626
34.607
34.589
34.572
34.554
34.534
34.512
34.489
34.465
34.44
34.416
34.393
34.37
34.347
34.324
34.301
34.279
34.257
34.236
34.216
34.197
34.177
34.156
34.135
34.113
34.092
34.071
34.05
34.03
34.009
33.987
33.964
33.942
33.922
33.904
33.888
33.875
33.865
33.856
33.847
33.839
33.829
33.818
33.805
33.792
33.777
33.761
33.743
33.724
33.704
33.682
33.66
33.637
33.613
33.591
33.569
33.55
33.534
33.522
33.513
33.509
33.507
33.508
33.512
33.519
33.53
33.548
33.573
33.607
33.652
33.71
33.783
33.871
33.975
34.095
34.231
34.382
34.548
34.728
34.92
35.123
35.334
35.551
35.772
35.994
36.213
36.428
36.636
36.834
37.021
37.195
37.356
37.504
37.637
37.756
37.861
37.952
38.028
38.091
38.141
38.179
38.206
38.225
38.237
38.242
38.242
38.237
38.23
38.222
38.213
38.204
38.193
38.181
38.167
38.151
38.134
38.116
38.099
38.082
38.065
38.049
38.034
38.018
38.002
37.984
37.963
37.937
37.906
37.87
37.829
37.785
37.737
37.687
37.634
37.581
37.529
37.478
37.431
37.388
37.347
37.309
37.272
37.234
37.197
37.161
37.127
37.096
37.068
37.043
37.021
37.001
36.982
36.963
36.944
36.926
36.906
36.885
36.864
36.844
36.826
36.809
36.794
36.78
