Trial 1:0back
33.46
33.455
33.451
33.447
33.442
33.435
33.425
33.414
33.401
33.386
33.371
33.356
33.341
33.327
33.313
33.3
33.288
33.275
33.264
33.256
33.253
33.255
33.265
33.281
33.306
33.339
33.384
33.44
33.511
33.599
33.705
33.833
33.984
34.16
34.363
34.59
34.843
35.12
35.417
35.732
36.063
36.403
36.749
37.094
37.432
37.758
38.066
38.35
38.604
38.827
39.015
39.169
39.288
39.371
39.419
39.433
39.416
39.369
39.298
39.204
39.092
38.964
38.824
38.673
38.516
38.353
38.187
38.021
37.855
37.691
37.529
37.371
37.215
37.061
36.909
36.759
36.612
36.466
36.323
36.182
36.044
35.907
35.773
35.642
35.514
35.391
35.274
35.164
35.061
34.966
34.881
34.805
34.738
34.681
34.634
34.597
34.568
34.548
34.537
34.536
34.544
34.562
34.589
34.623
34.664
34.711
34.763
34.819
34.879
34.942
35.009
35.079
35.151
35.224
35.296
35.363
35.425
35.48
35.528
35.568
35.599
35.623
35.638
35.645
35.644
35.636
35.62
35.595
35.563
35.523
35.476
35.424
35.367
35.308
35.245
35.178
35.109
35.037
34.964
34.89
34.816
34.742
34.669
34.598
34.529
34.462
34.396
34.332
34.267
34.204
34.141
34.08
34.023
33.97
33.921
33.878
33.84
33.807
33.779
33.755
33.733
33.714
33.697
33.681
33.666
33.653
33.641
33.63
33.619
33.608
33.597
33.585
33.573
33.56
33.548
33.536
33.523
33.511
33.498
33.485
33.471
33.458
33.445
33.433
33.422
33.412
33.403
33.395
33.388
33.38
33.372
33.364
33.356
33.347
33.339
33.334
33.332
33.336
33.347
33.369
33.404
33.455
33.526
33.621
33.741
33.888
34.062
34.261
34.485
34.733
35.004
35.296
35.605
35.928
36.262
36.602
36.944
37.281
37.607
37.918
38.206
38.47
38.703
38.904
39.071
39.202
39.299
39.364
39.397
39.402
39.379
39.33
39.26
39.171
39.065
38.945
38.811
38.668
38.516
38.357
38.194
38.028
37.86
37.692
37.525
37.359
37.195
37.035
36.877
36.722
36.57
36.42
36.271
36.124
35.979
35.836
35.696
35.56
35.43
35.307
35.19
35.081
34.978
34.884
34.797
34.717
34.644
34.581
34.528
34.487
34.459
34.442
34.437
34.444
34.463
34.491
34.528
34.573
34.623
34.678
34.737
34.8
34.867
34.936
35.007
35.078
35.148
35.216
35.28
35.339
35.392
35.437
35.475
35.507
35.533
35.554
35.568
35.575
35.574
35.567
35.552
35.529
35.5
35.464
35.421
35.37
35.313
35.249
35.181
35.109
35.034
34.955
34.874
34.792
34.71
34.631
34.554
34.481
34.412
34.347
34.286
34.229
34.176
34.126
34.08
34.039
34.001
33.967
33.935
33.905
33.875
33.844
33.813
33.78
33.746
33.713
33.682
33.652
33.623
33.597
33.572
33.549
33.528
33.508
33.49
33.473
33.459
33.447
33.436
33.426
33.417
33.407
33.397
33.385
33.372
33.357
33.341
33.325
33.31
33.295
33.28
33.267
33.256
33.246
33.237
33.231
33.229
33.229
33.235
33.247
33.267
33.298
33.343
33.407
33.49
33.597
33.729
33.888
34.077
34.296
34.546
34.827
35.136
35.471
35.828
36.202
36.588
36.979
37.371
37.757
38.13
38.484
38.815
39.116
39.385
39.617
39.812
39.968
40.086
40.166
40.21
40.22
40.199
40.15
40.077
39.984
39.874
39.752
39.62
39.48
39.334
39.182
39.026
38.866
38.705
38.544
38.383
38.224
38.067
37.913
37.762
37.614
37.469
37.326
37.185
37.046
36.911
36.78
36.653
36.53
36.41
36.292
36.178
36.067
35.96
35.858
35.761
35.668
35.581
35.5
35.424
35.354
35.292
35.237
35.19
35.151
35.121
35.101
35.09
35.087
35.093
35.107
35.128
35.157
35.192
35.235
35.283
35.336
35.393
35.451
35.51
35.569
35.627
35.681
35.732
35.779
35.82
35.856
35.886
35.908
35.922
35.926
35.918
35.898
35.867
35.825
35.773
35.712
35.646
35.576
35.502
35.427
35.349
35.27
35.189
35.107
35.026
34.946
34.867
34.79
34.715
34.641
34.569
34.498
34.428
34.36
34.294
34.23
34.168
34.109
34.054
34.002
33.953
33.906
33.861
33.817
33.777
33.739
33.704
33.674
33.646
33.622
33.601
33.581
33.563
33.547
33.533
33.52
33.508
33.496
33.484
33.474
33.464
33.456
33.45
33.444
33.439
33.435
33.43
33.424
33.417
33.409
33.399
33.387
33.373
33.359
33.343
33.327
33.311
33.297
33.284
33.273
33.264
33.259
33.259
33.266
33.283
33.312
33.358
33.424
33.513
33.629
33.774
33.949
34.156
34.396
34.668
34.972
35.308
35.671
36.059
36.464
36.88
37.296
37.704
38.097
38.468
38.814
39.128
39.409
39.654
39.862
40.031
40.163
40.258
40.318
40.346
40.345
40.316
40.264
40.191
40.1
39.994
39.873
39.739
39.595
39.444
39.288
39.129
38.968
38.807
38.647
38.489
38.333
38.18
38.031
37.884
37.741
37.602
37.466
37.336
37.211
37.092
36.976
36.864
36.756
36.649
36.544
36.439
36.334
36.23
36.127
36.025
35.927
35.832
35.742
35.656
35.577
35.503
35.435
35.375
35.324
35.282
35.248
35.225
35.211
35.208
35.213
35.227
35.249
35.278
35.313
35.352
35.397
35.445
35.496
35.55
35.603
35.655
35.705
35.75
35.79
35.822
35.847
35.863
35.872
35.873
35.867
35.853
35.831
35.801
35.761
35.712
35.655
35.591
35.522
35.447
35.37
35.289
35.207
35.125
35.043
34.961
34.879
34.798
34.719
34.642
34.568
34.498
34.432
34.369
34.308
34.25
34.194
34.14
34.087
34.035
33.983
33.932
33.883
33.835
33.791
33.749
33.709
33.669
33.628
33.587
33.546
33.508
33.473
33.441
33.415
33.392
33.375
33.362
33.351
33.343
33.336
33.331
33.326
33.321
33.316
33.311
33.307
33.303
33.298
33.292
33.286
33.279
33.27
33.26
33.248
33.235
33.221
33.205
33.186
33.163
33.136
33.107
33.08
33.055
33.035
33.025
33.026
33.041
33.075
33.13
33.207
33.308
33.435
33.59
33.774
33.99
34.238
34.517
34.827
35.165
35.527
35.91
36.307
36.713
37.12
37.523
37.914
38.288
38.638
38.958
39.244
39.492
39.701
39.87
40.0
40.093
40.149
40.171
40.16
40.121
40.054
39.966
39.858
39.736
39.603
39.461
39.313
39.159
39.001
38.841
38.679
38.519
38.36
38.203
38.051
37.905
37.763
37.627
37.495
37.367
37.243
37.122
37.003
36.888
36.775
36.662
36.551
36.439
36.326
36.213
36.1
35.988
35.878
35.772
35.671
35.575
35.485
35.401
35.323
35.252
35.189
35.135
35.091
35.057
35.033
35.019
35.013
35.015
35.024
35.038
35.058
35.083
35.113
35.147
35.184
35.224
35.266
35.309
35.352
35.394
35.435
35.474
35.51
35.542
35.57
35.592
35.606
35.612
35.608
35.595
35.573
35.542
35.503
35.457
35.406
35.349
35.289
35.225
35.158
35.088
35.014
34.939
34.864
34.79
34.717
34.647
34.579
34.514
34.449
34.385
34.321
34.257
34.194
34.132
34.07
34.01
33.953
33.899
33.847
33.798
33.75
33.704
33.658
33.613
33.569
33.528
33.489
33.454
33.423
33.394
33.369
33.346
33.325
33.307
33.291
33.275
33.259
33.243
33.227
33.212
33.199
33.188
33.177
33.169
33.161
33.154
33.147
33.139
33.13
33.12
33.111
33.1
33.09
33.08
33.07
33.06
33.05
33.04
33.028
33.017
33.005
32.994
32.983
32.973
32.967
32.964
32.967
32.978
32.999
33.034
33.085
33.155
33.246
33.36
33.501
33.667
33.862
34.086
34.34
34.622
34.933
35.268
35.625
36.0
36.387
36.779
37.17
37.554
37.923
38.27
38.591
38.881
39.136
39.355
39.535
39.678
39.782
39.85
39.882
39.883
39.856
39.804
39.729
39.634
39.52
39.391
39.251
39.101
38.945
38.783
38.618
38.45
38.282
38.115
37.949
37.784
37.623
37.465
37.311
37.162
37.018
36.877
36.739
36.605
36.474
36.346
36.22
36.096
35.973
35.853
35.735
35.619
35.508
35.402
35.302
35.21
35.125
35.048
34.979
34.918
34.866
34.824
34.792
34.77
34.757
34.754
34.759
34.771
34.791
34.821
34.86
34.908
34.962
35.022
35.085
35.149
35.212
35.272
35.327
35.375
35.416
35.447
35.47
35.483
35.488
35.487
35.48
35.468
35.453
35.434
35.411
35.383
35.351
35.314
35.272
35.227
35.178
35.124
35.067
35.006
34.94
34.87
34.795
34.718
34.638
34.559
34.482
34.409
34.34
34.276
34.215
34.159
34.105
34.053
34.004
33.955
33.907
33.859
33.813
33.768
33.726
33.686
33.647
33.609
33.572
33.537
33.503
33.47
33.437
33.406
33.376
33.349
33.324
33.302
33.283
33.266
33.251
33.237
33.224
33.212
33.201
33.192
33.184
33.176
33.169
33.162
33.155
33.149
33.143
33.137
33.131
33.126
33.121
33.116
33.11
33.104
33.096
33.087
33.077
33.066
33.055
33.043
33.032
33.022
33.013
33.005
32.999
32.994
32.992
32.993
32.999
33.014
33.039
33.078
33.135
33.212
33.311
33.436
33.589
33.771
33.982
34.223
34.492
34.788
35.109
35.452
35.812
36.184
36.56
36.936
37.305
37.661
37.999
38.315
38.604
38.861
39.086
39.274
39.425
39.537
39.613
39.655
39.667
39.649
39.605
39.536
39.446
39.335
39.208
39.067
38.913
38.751
38.582
38.408
38.233
38.056
37.879
37.703
37.528
37.355
37.186
37.02
36.859
36.703
36.552
36.406
36.264
36.128
35.995
35.865
35.74
35.618
35.502
35.392
35.287
35.188
35.094
35.006
34.925
34.851
34.785
34.728
34.682
34.645
34.619
34.603
34.596
34.599
34.609
34.627
34.649
34.676
34.707
34.741
34.779
34.821
34.865
34.911
34.96
35.01
35.062
35.113
35.165
35.216
35.265
35.31
35.35
35.384
35.409
35.425
35.432
35.428
35.415
35.394
35.364
35.328
35.286
35.238
35.186
35.131
35.074
35.016
34.959
34.903
34.848
34.793
34.736
34.678
34.616
34.552
34.485
34.416
34.345
34.274
34.205
34.139
34.075
34.013
33.954
33.896
33.84
33.786
33.736
33.689
33.647
33.61
33.578
33.549
33.524
33.501
33.48
33.46
33.441
33.423
33.406
33.389
33.374
33.36
33.347
33.335
33.325
33.315
33.306
33.296
33.286
33.275
33.264
33.252
33.239
33.228
33.217
33.207
33.199
33.191
33.184
33.177
33.17
33.161
33.15
33.138
33.126
33.115
33.103
33.092
33.081
33.07
33.059
33.05
33.044
33.04
33.039
33.045
33.058
33.082
33.119
33.175
33.251
33.351
33.478
33.634
33.82
34.036
34.281
34.554
34.853
35.177
35.523
35.887
36.266
36.654
37.046
37.434
37.813
38.176
38.518
38.833
39.116
39.365
39.577
39.75
39.884
39.977
40.032
40.05
40.035
39.99
39.918
39.821
39.704
39.57
39.423
39.264
39.097
38.924
38.746
38.566
38.386
38.204
38.023
37.844
37.669
37.498
37.334
37.175
37.021
36.871
36.725
36.582
36.444
36.309
36.178
36.05
35.925
35.802
35.681
35.564
35.45
35.342
35.24
35.146
35.062
34.987
34.922
34.866
34.82
34.783
34.755
34.736
34.725
34.722
34.729
34.744
34.769
34.802
34.841
34.887
34.936
34.989
35.042
35.095
35.147
35.197
35.244
35.289
35.33
35.367
35.399
35.426
35.445
35.457
35.462
35.46
35.452
35.438
35.418
35.394
35.364
35.33
35.289
35.244
35.194
35.138
35.079
35.018
34.953
34.887
34.818
34.748
34.678
34.608
34.539
34.472
34.406
34.342
34.28
34.22
34.163
34.108
34.054
34.003
33.952
33.901
33.851
33.803
33.756
33.712
33.671
33.633
33.599
33.566
33.536
33.506
33.478
33.45
33.421
33.394
33.368
33.343
33.321
33.301
33.284
33.269
33.256
33.244
33.232
33.221
33.21
33.199
33.189
33.18
33.17
33.16
33.15
33.14
33.13
33.12
33.111
33.103
33.096
33.091
33.087
33.083
33.08
33.078
33.076
33.075
33.074
33.074
33.074
33.074
33.074
33.073
33.073
33.074
33.08
33.094
33.118
33.156
33.211
33.288
33.39
33.522
33.686
33.882
34.112
34.373
34.665
34.985
35.33
35.696
36.08
36.474
36.874
37.272
37.662
38.038
38.393
38.722
39.02
39.285
39.513
39.701
39.849
39.956
40.024
40.055
40.051
40.016
39.954
39.869
39.764
39.643
39.507
39.359
39.2
39.034
38.862
38.687
38.511
38.335
38.159
37.984
37.809
37.637
37.467
37.3
37.138
36.98
36.827
36.679
36.535
36.396
36.262
36.132
36.008
35.89
35.779
35.673
35.572
35.476
35.384
35.297
35.217
35.142
35.075
35.016
34.965
34.924
34.891
34.866
34.85
34.842
34.84
34.843
34.85
34.861
34.877
34.898
34.926
34.959
34.998
35.04
35.085
35.132
35.18
35.228
35.275
35.32
35.362
35.4
35.432
35.457
35.475
35.485
35.486
35.478
35.463
35.442
35.414
35.382
35.344
35.303
35.257
35.207
35.153
35.097
35.038
34.977
34.916
34.855
34.795
34.736
34.677
34.618
34.558
34.498
34.437
34.378
34.321
34.266
34.212
34.161
34.112
34.065
34.019
33.975
33.932
33.889
33.848
33.808
33.77
33.733
33.699
33.665
33.631
33.598
33.564
33.53
33.496
33.464
33.432
33.401
33.372
33.345
33.321
33.3
33.282
33.267
33.255
33.244
33.235
33.226
33.219
33.212
33.207
33.202
33.199
33.196
33.194
33.192
33.189
33.186
33.183
33.178
33.171
33.162
33.152
33.14
33.127
33.112
33.098
33.082
33.067
33.052
33.039
33.029
33.023
33.023
33.032
33.053
33.09
33.144
33.22
33.32
33.447
33.603
33.789
34.005
34.252
34.528
34.833
35.164
35.519
35.892
36.28
36.678
37.078
37.473
37.855
38.219
38.561
38.875
39.156
39.403
39.611
39.781
39.911
40.002
40.054
40.07
40.053
40.005
39.931
39.832
39.714
39.58
39.431
39.271
39.103
38.929
38.75
38.569
38.388
38.208
38.032
37.859
37.689
37.522
37.359
37.201
37.048
36.9
36.757
36.621
36.489
36.362
36.238
36.119
36.001
35.886
35.772
35.662
35.554
35.451
35.355
35.265
35.182
35.108
35.043
34.988
34.942
34.906
34.879
34.863
34.857
34.86
34.874
34.898
34.929
34.967
35.011
35.057
35.105
35.154
35.202
35.249
35.294
35.338
35.379
35.417
35.452
35.484
35.511
35.533
35.549
35.56
35.565
35.564
35.557
35.545
35.525
35.499
35.465
35.425
35.379
35.327
35.27
35.21
35.148
35.086
35.023
34.96
34.898
34.836
34.773
34.71
34.646
34.582
34.518
34.454
34.39
34.326
34.261
34.198
34.137
34.077
34.019
33.961
33.904
33.849
33.796
33.747
33.702
33.662
33.628
33.599
33.573
33.551
33.531
33.513
33.496
33.48
33.464
33.448
33.431
33.413
33.394
33.374
33.353
33.331
33.31
33.29
33.272
33.256
33.243
33.232
33.223
33.216
33.21
33.205
33.2
33.196
33.193
33.189
33.183
33.175
33.164
33.15
33.134
33.116
33.098
33.079
33.061
33.045
33.03
33.017
33.007
32.999
32.995
32.995
33.001
33.012
33.032
33.062
33.106
33.164
33.243
33.344
33.472
33.628
33.812
34.025
34.268
34.539
34.839
35.165
35.514
35.882
36.264
36.653
37.045
37.432
37.809
38.17
38.507
38.818
39.098
39.342
39.549
39.714
39.838
39.921
39.966
39.973
39.948
39.893
39.813
39.71
39.588
39.451
39.302
39.142
38.975
38.802
38.626
38.447
38.267
38.087
37.908
37.73
37.556
37.386
37.222
37.063
36.911
36.766
36.627
36.494
36.365
36.239
36.117
35.998
35.882
35.769
35.659
35.554
35.453
35.357
35.266
35.181
35.104
35.035
34.974
34.923
34.878
34.839
34.803
34.773
34.749
34.733
34.728
34.734
34.751
34.78
34.82
34.869
34.926
34.989
35.056
35.124
35.193
35.261
35.327
35.389
35.445
35.494
35.534
35.565
35.585
35.595
35.594
35.583
35.564
35.538
35.509
35.478
35.445
35.409
35.37
35.327
35.281
35.231
35.178
35.122
35.064
35.003
34.941
34.877
34.811
34.743
34.673
34.602
34.529
34.456
34.385
34.315
34.25
34.188
34.129
34.072
34.018
33.967
33.918
33.871
33.825
33.78
33.737
33.697
33.66
33.627
33.596
33.569
33.543
33.52
33.497
33.474
33.451
33.429
33.407
33.385
33.364
33.343
33.323
33.303
33.282
33.262
33.241
33.22
33.201
33.184
33.169
33.158
33.149
33.142
33.136
33.131
33.125
33.119
33.111
33.102
33.091
33.079
33.064
33.048
33.03
33.011
32.993
32.977
32.962
32.95
32.941
32.933
32.928
32.926
32.927
32.933
32.945
32.966
32.997
33.042
33.103
33.183
33.285
33.41
33.56
33.739
33.948
34.188
34.457
34.755
35.078
35.422
35.783
36.156
36.535
36.915
37.291
37.656
38.006
38.338
38.647
38.926
39.173
39.385
39.561
39.698
39.796
39.857
39.881
39.871
39.83
39.76
39.665
39.548
39.413
39.265
39.108
38.943
38.773
38.598
38.421
38.242
38.062
37.884
37.706
37.53
37.356
37.186
37.021
36.86
36.705
36.557
36.416
36.281
36.152
36.029
35.91
35.796
35.687
35.581
35.48
35.384
35.292
35.206
35.126
35.053
34.989
34.933
34.887
34.85
34.823
34.805
34.798
34.8
34.812
34.832
34.862
34.9
34.944
34.994
35.047
35.104
35.163
35.224
35.287
35.35
35.413
35.473
35.53
35.581
35.627
35.664
35.694
35.715
35.727
35.73
35.724
35.709
35.685
35.652
35.61
35.563
35.51
35.453
35.395
35.334
35.273
35.211
35.15
35.09
35.031
34.972
34.913
34.852
34.79
34.726
34.662
34.598
34.534
34.471
34.41
34.349
34.29
34.233
34.179
34.126
34.074
34.023
33.973
33.926
33.882
33.841
33.802
33.767
33.733
33.703
33.676
33.652
33.631
33.613
33.597
33.582
33.568
33.555
33.542
33.529
33.515
33.501
33.486
33.471
33.457
33.443
33.43
33.416
33.403
33.39
33.379
33.368
33.357
33.348
33.339
33.33
33.322
33.314
33.306
33.299
33.291
33.283
33.275
33.266
33.256
33.246
33.236
33.227
33.219
33.212
33.208
33.208
33.212
33.223
33.243
33.276
33.325
33.393
33.483
33.596
33.735
33.901
34.093
34.313
34.56
34.834
35.131
35.451
35.79
36.142
36.503
36.868
37.231
37.587
37.931
38.259
38.566
38.845
39.094
39.308
39.484
39.62
39.718
39.779
39.806
39.801
39.766
39.704
39.617
39.509
39.382
39.241
39.087
38.924
38.755
38.581
38.404
38.226
38.046
37.867
37.688
37.511
37.338
37.168
37.001
36.839
36.682
36.53
36.383
36.242
36.107
35.978
35.855
35.739
35.628
35.521
35.418
35.319
35.223
35.132
35.047
34.981
34.94
34.925
34.932
34.955
34.987
35.024
35.058
35.089
35.112
35.129
35.14
35.146
35.148
35.149
35.149
35.152
35.158
35.169
35.184
35.203
35.226
35.252
35.282
35.312
35.343
35.371
35.395
35.414
35.427
35.434
35.435
35.429
35.417
35.399
35.375
35.347
35.313
35.273
35.228
35.178
35.124
35.069
35.013
34.957
34.899
34.84
34.779
34.716
34.652
34.587
34.522
34.457
34.393
34.332
34.273
34.217
34.163
34.112
34.063
34.014
33.967
33.921
33.878
33.837
33.798
33.761
33.728
33.698
33.671
33.645
33.619
33.593
33.567
33.541
33.515
33.49
33.467
33.446
33.427
33.41
33.393
33.378
33.363
33.349
33.336
33.324
33.313
33.302
33.293
33.284
33.276
33.267
33.259
33.251
33.244
33.236
33.227
33.218
33.208
33.198
33.188
33.177
33.166
33.155
33.143
33.132
33.122
33.114
33.107
33.103
33.103
33.108
33.122
33.146
33.184
33.24
33.316
33.415
33.539
33.69
33.87
34.079
34.317
34.584
34.878
35.196
35.537
35.895
36.266
36.645
37.026
37.402
37.768
38.117
38.444
38.745
39.016
39.254
39.457
39.621
39.746
39.834
39.886
39.904
39.889
39.846
39.775
39.682
39.569
39.439
39.294
39.136
38.967
38.79
38.607
38.421
38.235
38.049
37.866
37.686
37.511
37.341
37.177
37.02
36.869
36.726
36.589
36.458
36.333
36.213
36.096
35.982
35.871
35.763
35.659
35.56
35.467
35.379
35.297
35.222
35.155
35.096
35.046
35.006
34.977
34.957
34.947
34.946
34.954
34.969
34.992
35.022
35.058
35.098
35.143
35.191
35.241
35.293
35.346
35.4
35.454
35.508
35.559
35.607
35.651
35.689
35.723
35.75
35.771
35.787
35.795
35.796
35.79
35.777
35.755
35.726
35.689
35.644
35.592
35.535
35.474
35.411
35.347
35.284
35.221
35.161
35.102
35.045
34.99
34.933
34.876
34.818
34.76
34.704
34.648
34.594
34.54
34.487
34.436
34.386
34.339
34.294
34.251
34.21
34.17
34.132
34.095
34.06
34.024
33.989
33.955
33.922
33.89
33.86
33.832
33.804
33.777
33.751
33.725
33.7
33.677
33.655
33.634
33.616
33.599
33.584
33.57
33.558
33.547
33.538
33.529
33.522
33.514
33.505
33.496
33.486
33.476
33.466
33.455
33.443
33.431
33.419
33.407
33.396
33.387
33.379
33.374
33.371
33.371
33.373
33.379
33.39
33.407
33.434
33.472
33.527
33.6
33.696
33.816
33.962
34.135
34.334
34.56
34.813
35.092
