Trial 1:0back
35.537
35.877
36.23
36.588
36.944
37.292
37.626
37.939
38.228
38.491
38.724
38.928
39.101
39.244
39.358
39.443
39.502
39.537
39.55
39.544
39.52
39.483
39.435
39.377
39.314
39.247
39.176
39.105
39.032
38.96
38.888
38.817
38.746
38.676
38.607
38.538
38.472
38.408
38.347
38.288
38.232
38.179
38.128
38.081
38.036
37.994
37.954
37.916
37.878
37.841
37.804
37.766
37.727
37.688
37.648
37.608
37.567
37.527
37.487
37.447
37.408
37.367
37.325
37.283
37.241
37.2
37.161
37.125
37.093
37.065
37.041
37.021
37.005
36.994
36.987
36.985
36.986
36.991
36.998
37.007
37.018
37.031
37.046
37.062
37.081
37.101
37.121
37.141
37.159
37.174
37.185
37.193
37.196
37.193
37.186
37.172
37.153
37.126
37.094
37.058
37.017
36.972
36.924
36.873
36.819
36.765
36.71
36.656
36.602
36.55
36.499
36.449
36.4
36.352
36.305
36.258
36.21
36.162
36.113
36.064
36.015
35.964
35.914
35.864
35.815
35.768
35.722
35.677
35.635
35.593
35.552
35.511
35.468
35.425
35.382
35.338
35.293
35.247
35.2
35.152
35.105
35.058
35.015
34.974
34.938
34.907
34.881
34.859
34.841
34.827
34.817
34.81
34.805
34.803
34.803
34.802
34.8
34.798
34.794
34.788
34.78
34.771
34.762
34.752
34.742
34.733
34.724
34.715
34.707
34.701
34.696
34.693
34.69
34.689
34.689
34.689
34.688
34.687
34.686
34.685
34.684
34.683
34.684
34.685
34.686
34.688
34.69
34.691
34.693
34.696
34.699
34.702
34.703
34.704
34.703
34.702
34.701
34.7
34.698
34.695
34.69
34.683
34.674
34.663
34.651
34.638
34.623
34.607
34.59
34.571
34.55
34.528
34.502
34.474
34.442
34.409
34.374
34.339
34.303
34.268
34.234
34.201
34.17
34.142
34.117
34.095
34.075
34.057
34.04
34.024
34.007
33.99
33.971
33.951
33.929
33.906
33.882
33.857
33.832
33.806
33.78
33.755
33.731
33.709
33.69
33.675
33.663
33.655
33.65
33.65
33.653
33.66
33.671
33.688
33.709
33.738
33.776
33.822
33.877
33.941
34.013
34.096
34.191
34.301
34.43
34.58
34.756
34.958
35.189
35.448
35.732
36.04
36.364
36.701
37.042
37.382
37.715
38.035
38.338
38.618
38.873
39.1
39.297
39.462
39.595
39.697
39.769
39.814
39.833
39.829
39.805
39.763
39.708
39.642
39.567
39.486
39.402
39.316
39.23
39.145
39.063
38.984
38.909
38.837
38.77
38.706
38.645
38.587
38.533
38.482
38.434
38.389
38.346
38.305
38.266
38.227
38.189
38.152
38.113
38.074
38.036
38.003
37.973
37.945
37.919
37.891
37.862
37.829
37.791
37.747
37.697
37.642
37.583
37.52
37.456
37.391
37.329
37.27
37.217
37.17
37.132
37.102
37.08
37.068
37.063
37.066
37.075
37.09
37.11
37.133
37.16
37.188
37.218
37.248
37.278
37.306
37.332
37.355
37.376
37.394
37.409
37.421
37.431
37.437
37.441
37.44
37.436
37.427
37.414
37.395
37.371
37.341
37.305
37.263
37.215
37.163
37.105
37.043
36.98
36.915
36.851
36.789
36.728
36.669
36.613
36.56
36.51
36.463
36.42
36.379
36.34
36.301
36.262
36.221
36.178
36.134
36.088
36.039
35.99
35.94
35.89
35.84
35.79
35.741
35.693
35.646
35.601
35.557
35.515
35.475
35.436
35.398
35.362
35.328
35.295
35.265
35.236
35.209
35.184
35.16
35.139
35.12
35.102
35.086
35.071
35.057
35.045
35.034
35.023
35.013
35.002
34.991
34.978
34.965
34.95
34.934
34.917
34.898
34.879
34.86
34.842
34.826
34.81
34.796
34.784
34.772
34.761
34.75
34.737
34.724
34.709
34.692
34.673
34.652
34.628
34.602
34.574
34.546
34.517
34.489
34.461
34.434
34.41
34.388
34.367
34.347
34.328
34.309
34.291
34.273
34.255
34.236
34.217
34.199
34.182
34.164
34.147
34.132
34.118
34.105
34.092
34.08
34.067
34.053
34.039
34.024
34.007
33.99
33.971
33.952
33.934
33.915
33.898
33.881
33.865
33.851
33.838
33.826
33.815
33.806
33.797
33.788
33.778
33.765
33.751
33.733
33.714
33.693
33.67
33.647
33.622
33.597
33.571
33.546
33.521
33.499
33.479
33.462
33.446
33.432
33.418
33.405
33.392
33.38
33.37
33.361
33.354
33.35
33.35
33.354
33.364
33.383
33.412
33.454
33.513
33.594
33.699
33.833
33.999
34.2
34.436
34.709
35.015
35.351
35.711
36.09
36.481
36.876
37.269
37.651
38.016
38.359
38.675
38.96
39.21
39.425
39.603
39.745
39.852
39.926
39.97
39.987
39.98
39.953
39.91
39.852
39.784
39.706
39.622
39.534
39.444
39.352
39.26
39.169
39.08
38.994
38.911
38.831
38.753
38.679
38.609
38.542
38.48
38.42
38.364
38.312
38.261
38.214
38.168
38.123
38.078
38.031
37.983
37.933
37.883
37.832
37.78
37.729
37.677
37.625
37.572
37.518
37.462
37.406
37.348
37.291
37.234
37.179
37.126
37.076
37.03
36.987
36.949
36.917
36.889
36.867
36.851
36.839
36.834
36.834
36.839
36.849
36.862
36.879
36.898
36.918
36.94
36.963
36.986
37.008
37.03
37.049
37.066
37.079
37.09
37.098
37.103
37.104
37.101
37.093
37.081
37.065
37.046
37.022
36.993
36.958
36.919
36.875
36.827
36.775
36.72
36.663
36.605
36.546
36.486
36.427
36.369
36.311
36.253
36.197
36.142
36.089
36.039
35.99
35.943
35.897
35.851
35.804
35.756
35.708
35.658
35.607
35.556
35.504
35.452
35.4
35.348
35.297
35.246
35.196
35.147
35.099
35.053
35.008
34.966
34.925
34.888
34.854
34.824
34.796
34.77
34.746
34.722
34.7
34.679
34.66
34.642
34.627
34.615
34.605
34.596
34.588
34.581
34.574
34.568
34.562
34.556
34.547
34.534
34.518
34.5
34.479
34.456
34.434
34.413
34.393
34.375
34.36
34.347
34.335
34.325
34.316
34.308
34.3
34.293
34.287
34.281
34.276
34.271
34.265
34.258
34.25
34.24
34.23
34.218
34.206
34.192
34.177
34.16
34.143
34.124
34.104
34.083
34.061
34.038
34.016
33.992
33.967
33.941
33.915
33.889
33.864
33.839
33.814
33.791
33.768
33.746
33.725
33.705
33.687
33.67
33.655
33.641
33.63
33.621
33.614
33.607
33.6
33.594
33.588
33.581
33.573
33.565
33.557
33.547
33.537
33.525
33.512
33.497
33.48
33.462
33.442
33.422
33.401
33.38
33.358
33.336
33.315
33.295
33.277
33.262
33.25
33.242
33.238
33.237
33.24
33.245
33.255
33.268
33.287
33.314
33.351
33.402
33.471
33.562
33.679
33.825
34.003
34.217
34.466
34.75
35.066
35.41
35.777
36.159
36.55
36.941
37.326
37.698
38.051
38.379
38.677
38.944
39.176
39.373
39.536
39.665
39.763
39.831
39.873
39.891
39.889
39.87
39.836
39.79
39.733
39.668
39.594
39.515
39.433
39.349
39.265
39.183
39.102
39.025
38.95
38.879
38.811
38.745
38.682
38.621
38.561
38.502
38.443
38.385
38.326
38.267
38.208
38.148
38.087
38.025
37.962
37.9
37.837
37.775
37.713
37.652
37.591
37.531
37.473
37.416
37.361
37.307
37.254
37.204
37.156
37.11
37.069
37.033
37.002
36.977
36.958
36.944
36.934
36.931
36.933
36.943
36.958
36.979
37.004
37.032
37.062
37.094
37.127
37.161
37.195
37.229
37.261
37.292
37.321
37.349
37.375
37.399
37.419
37.435
37.445
37.449
37.446
37.436
37.419
37.394
37.363
37.325
37.28
37.231
37.179
37.123
37.067
37.009
36.952
36.896
36.84
36.784
36.728
36.673
36.618
36.564
36.511
36.459
36.408
36.357
36.307
36.257
36.207
36.157
36.106
36.054
36.0
35.944
35.885
35.825
35.765
35.704
35.643
35.583
35.525
35.469
35.415
35.364
35.314
35.267
35.223
35.181
35.141
35.104
35.068
35.035
35.004
34.975
34.949
34.924
34.903
34.884
34.868
34.854
34.842
34.834
34.833
34.838
34.849
34.863
34.877
34.889
34.896
34.896
34.888
34.872
34.85
34.821
34.788
34.752
34.716
34.68
34.646
34.614
34.585
34.56
34.539
34.522
34.508
34.497
34.488
34.48
34.472
34.465
34.457
34.448
34.439
34.43
34.419
34.406
34.392
34.377
34.36
34.341
34.322
34.301
34.279
34.256
34.232
34.208
34.182
34.157
34.131
34.105
34.08
34.056
34.032
34.009
33.987
33.965
33.945
33.925
33.905
33.886
33.867
33.848
33.83
33.812
33.794
33.776
33.758
33.739
33.72
33.702
33.685
33.668
33.652
33.636
33.621
33.606
33.591
33.576
33.56
33.545
33.529
33.513
33.496
33.479
33.459
33.439
33.417
33.395
33.372
33.349
33.327
33.306
33.287
33.269
33.254
33.241
33.23
33.222
33.217
33.214
33.213
33.216
33.222
33.233
33.249
33.272
33.306
33.354
33.42
33.509
33.626
33.775
33.959
34.182
34.444
34.745
35.081
35.449
35.842
36.253
36.674
37.096
37.512
37.914
38.294
38.648
38.971
39.26
39.514
39.733
39.916
40.064
40.18
40.265
40.322
40.353
40.361
40.348
40.317
40.272
40.215
40.148
40.073
39.992
39.907
39.82
39.732
39.645
39.558
39.473
39.389
39.307
39.228
39.151
39.077
39.006
38.938
38.873
38.811
38.751
38.694
38.639
38.587
38.537
38.49
38.445
38.402
38.362
38.323
38.285
38.248
38.211
38.173
38.133
38.09
38.044
37.994
37.94
37.884
37.824
37.762
37.7
37.637
37.575
37.517
37.462
37.413
37.369
37.33
37.299
37.275
37.259
37.252
37.251
37.257
37.269
37.284
37.304
37.326
37.351
37.377
37.406
37.435
37.463
37.49
37.514
37.535
37.553
37.566
37.575
37.576
37.572
37.561
37.543
37.521
37.493
37.46
37.424
37.386
37.344
37.299
37.252
37.202
37.15
37.096
37.04
36.983
36.924
36.865
36.803
36.74
36.676
36.61
36.543
36.476
36.409
36.341
36.274
36.206
36.139
36.072
36.004
35.937
35.869
35.802
35.734
35.666
35.598
35.531
35.465
35.4
35.339
35.282
35.228
35.179
35.135
35.095
35.061
35.03
35.001
34.975
34.95
34.925
34.9
34.874
34.847
34.819
34.789
34.759
34.728
34.696
34.663
34.63
34.598
34.567
34.539
34.512
34.489
34.468
34.451
34.436
34.422
34.41
34.399
34.389
34.38
34.37
34.36
34.35
34.338
34.325
34.31
34.293
34.274
34.254
34.234
34.213
34.193
34.172
34.15
34.127
34.102
34.075
34.046
34.016
33.985
33.954
33.922
33.891
33.86
33.83
33.8
33.772
33.745
33.719
33.695
33.671
33.646
33.622
33.597
33.573
33.549
33.526
33.504
33.483
33.464
33.446
33.43
33.415
33.4
33.385
33.37
33.355
33.34
33.325
33.308
33.29
33.271
33.25
33.23
33.209
33.188
33.167
33.148
33.13
33.114
33.1
33.086
33.072
33.06
33.047
33.034
33.02
33.006
32.991
32.976
32.96
32.945
32.93
32.915
32.901
32.888
32.874
32.86
32.846
32.83
32.814
32.797
32.779
32.76
32.741
32.722
32.703
32.685
32.668
32.654
32.643
32.635
32.63
32.627
32.627
32.628
32.631
32.638
32.65
32.669
32.699
32.742
32.803
32.887
32.997
33.139
33.316
33.531
33.785
34.079
34.408
34.77
35.159
35.569
35.991
36.418
36.84
37.252
37.644
38.011
38.348
38.649
38.913
39.138
39.325
39.474
39.587
39.668
39.718
39.741
39.74
39.72
39.681
39.628
39.563
39.49
39.411
39.33
39.248
39.167
39.087
39.009
38.934
38.861
38.791
38.723
38.656
38.59
38.525
38.461
38.397
38.334
38.273
38.215
38.158
38.104
38.051
38.0
37.95
37.903
37.857
37.813
37.771
37.73
37.689
37.648
37.606
37.562
37.516
37.467
37.415
37.358
37.299
37.238
37.175
37.114
37.054
36.996
36.942
36.892
36.847
36.808
36.776
36.751
36.735
36.728
36.729
36.739
36.756
36.78
36.811
36.846
36.885
36.927
36.971
37.014
37.055
37.093
37.128
37.157
37.181
37.198
37.209
37.213
37.21
37.201
37.185
37.163
37.136
37.104
37.068
37.027
36.983
36.935
36.885
36.834
36.782
36.729
36.675
36.621
36.568
36.514
36.461
36.406
36.351
36.295
36.238
36.18
36.123
36.066
36.01
35.956
35.903
35.852
35.803
35.756
35.709
35.663
35.617
35.571
35.524
35.477
35.431
35.384
35.339
35.293
35.247
35.2
35.153
35.105
35.059
35.013
34.969
34.927
34.886
34.848
34.813
34.78
34.75
34.721
34.696
34.673
34.652
34.633
34.615
34.598
34.583
34.568
34.554
34.541
34.53
34.52
34.511
34.504
34.499
34.494
34.489
34.485
34.482
34.479
34.477
34.474
34.469
34.464
34.457
34.448
34.437
34.424
34.409
34.393
34.38
34.37
34.363
34.357
34.351
34.344
34.333
34.319
34.299
34.275
34.246
34.213
34.177
34.139
34.099
34.06
34.022
33.986
33.953
33.925
33.901
33.882
33.867
33.856
33.848
33.841
33.835
33.828
33.82
33.809
33.796
33.78
33.762
33.742
33.722
33.7
33.678
33.655
33.631
33.608
33.585
33.563
33.541
33.52
33.5
33.481
33.462
33.443
33.423
33.404
33.384
33.363
33.343
33.321
33.299
33.276
33.251
33.224
33.197
33.175
33.159
33.15
33.145
33.143
33.141
33.138
33.132
33.124
33.113
33.099
33.083
33.067
33.049
33.033
33.019
33.011
33.012
33.025
33.053
33.101
33.174
33.275
33.408
33.577
33.785
34.034
34.322
34.648
35.007
35.395
35.803
36.224
36.65
37.073
37.484
37.878
38.246
38.586
38.891
39.16
39.391
39.584
39.74
39.861
39.947
40.002
40.03
40.032
40.013
39.976
39.923
39.86
39.787
39.708
39.624
39.539
39.453
39.368
39.285
39.203
39.123
39.046
38.972
38.901
38.833
38.767
38.703
38.641
38.58
38.52
38.462
38.405
38.351
38.298
38.246
38.197
38.149
38.103
38.058
38.014
37.971
37.927
37.882
37.836
37.787
37.735
37.679
37.621
37.56
37.496
37.43
37.364
37.298
37.234
37.174
37.118
37.068
37.025
36.988
36.958
36.936
36.921
36.912
36.91
36.914
36.923
36.937
36.954
36.973
36.995
37.018
37.043
37.068
37.092
37.116
37.138
37.16
37.178
37.194
37.206
37.214
37.219
37.219
37.215
37.206
37.194
37.176
37.154
37.126
37.093
37.054
37.01
36.959
36.901
36.837
36.77
36.7
36.628
36.557
36.486
36.416
36.348
36.282
36.217
36.154
36.092
36.031
35.971
35.912
35.851
35.789
35.726
35.662
35.597
35.531
35.464
35.398
35.332
35.268
35.205
35.143
35.083
35.024
34.967
34.912
34.858
34.807
34.758
34.711
34.667
34.625
34.585
34.547
34.511
34.478
34.447
34.419
34.394
34.371
34.35
34.331
34.312
34.293
34.275
34.257
34.239
34.222
34.206
34.19
34.173
34.155
34.136
34.116
34.096
34.076
34.057
34.039
34.023
34.008
33.994
33.981
33.969
33.957
33.945
33.933
33.921
33.907
33.892
33.875
33.857
33.836
33.813
33.788
33.762
33.735
33.706
33.677
33.648
33.62
33.592
33.564
33.537
33.511
33.485
33.459
33.432
33.405
33.376
33.347
33.316
33.286
33.255
33.226
33.198
33.172
33.147
33.123
33.099
33.077
33.055
33.033
33.013
32.993
32.974
32.955
32.935
32.916
32.895
32.875
32.855
32.835
32.817
32.801
32.787
32.773
32.76
32.747
32.733
32.717
32.7
32.682
32.662
32.643
32.623
32.603
32.584
32.565
32.546
32.528
32.51
32.492
32.475
32.459
32.442
32.425
32.408
32.392
32.376
32.36
32.345
32.332
32.32
32.31
32.302
32.297
32.294
32.293
32.295
32.302
32.313
32.332
32.362
32.406
32.467
32.55
32.661
32.804
32.985
33.205
33.466
33.768
34.109
34.485
34.888
35.313
35.751
36.195
36.635
37.063
37.472
37.853
38.202
38.512
38.782
39.009
39.192
39.332
39.432
39.495
39.524
39.524
39.499
39.455
39.395
39.326
39.25
39.17
39.088
39.008
38.93
38.856
38.787
38.723
38.663
38.607
38.553
38.502
38.45
38.398
38.345
38.291
38.234
38.177
38.118
38.059
37.998
37.938
37.878
37.819
37.761
37.705
37.651
37.6
37.551
37.505
37.461
37.418
37.376
37.333
37.288
37.243
37.194
37.143
37.09
37.034
36.977
36.917
36.857
36.798
36.74
36.685
36.633
36.587
36.548
36.515
36.491
36.475
36.469
36.471
36.482
36.501
36.528
36.561
36.598
36.64
36.684
36.728
36.772
36.814
36.852
36.884
36.911
36.931
36.943
36.948
36.946
36.937
36.92
36.896
36.866
36.829
36.788
36.743
36.695
36.646
36.596
36.546
36.495
36.446
36.397
36.348
36.3
36.252
36.203
36.153
36.101
36.047
35.992
35.933
35.873
35.811
35.748
35.684
35.621
35.558
35.497
35.437
35.379
35.324
35.272
35.222
35.175
35.131
35.087
35.045
35.005
34.967
34.93
34.896
34.862
34.829
34.796
34.763
34.73
34.698
34.665
34.633
34.603
34.574
34.546
34.52
34.497
34.477
34.46
34.444
34.431
34.418
34.407
34.395
34.383
34.371
34.357
34.343
34.329
34.314
34.301
34.288
34.276
34.265
34.255
34.244
34.233
34.222
34.209
34.196
34.183
34.17
34.157
34.143
34.13
34.116
34.102
34.089
34.076
34.064
34.051
34.038
34.024
34.01
33.994
33.977
33.958
33.937
33.916
33.894
33.871
33.847
33.825
33.803
33.782
33.763
33.745
33.73
33.718
33.707
33.697
33.686
33.676
33.664
33.651
33.638
33.623
33.607
33.59
33.572
33.553
33.533
33.513
33.492
33.472
33.451
33.429
33.408
33.388
33.368
33.347
33.325
33.302
33.277
33.25
33.221
33.191
33.16
33.129
33.098
33.068
33.039
33.011
32.985
32.96
32.938
32.918
32.901
32.887
32.875
32.869
32.869
32.877
32.895
32.928
32.979
33.052
33.151
33.28
33.443
33.641
33.875
34.144
34.446
34.777
35.13
35.502
35.885
36.273
36.658
37.033
37.391
37.727
38.036
38.315
38.561
38.775
38.956
39.105
39.224
39.314
39.378
39.417
39.435
39.435
39.423
39.401
39.372
39.337
39.298
39.253
39.203
39.15
39.092
39.03
38.964
38.895
38.823
38.749
38.672
38.596
38.519
38.442
38.368
38.297
38.23
38.168
38.11
38.057
38.008
37.962
37.919
37.877
37.837
37.798
37.76
37.721
37.682
37.642
37.602
37.559
37.515
37.468
37.418
37.365
37.309
37.25
37.191
37.131
37.072
37.016
36.963
36.916
36.874
36.84
36.813
36.793
36.782
36.779
36.784
36.795
36.812
36.835
36.861
36.89
36.922
36.954
36.987
37.018
37.047
37.072
37.092
37.107
37.117
37.121
37.121
37.116
37.107
37.093
37.075
37.052
37.025
36.995
36.962
36.927
36.889
36.849
36.808
36.765
36.721
36.676
36.629
36.582
36.535
36.486
36.435
36.382
36.329
36.274
36.217
36.158
36.098
36.035
35.972
35.907
35.842
35.775
35.706
35.637
35.568
35.499
35.43
35.362
35.296
35.23
35.166
35.104
35.044
34.987
34.932
34.879
34.829
34.782
34.737
34.696
34.659
34.626
34.597
34.571
34.549
34.529
34.51
34.492
34.473
34.452
34.431
34.409
34.386
34.361
34.336
34.31
34.284
34.259
34.235
34.213
34.194
34.176
34.159
34.144
34.128
34.113
34.098
34.082
34.066
34.05
34.034
34.018
34.002
33.986
33.97
33.956
33.942
33.929
33.916
33.903
33.891
33.879
33.867
33.854
33.84
33.824
33.806
33.787
33.767
33.746
33.724
33.702
33.678
33.655
33.632
33.609
33.586
33.562
33.539
33.517
33.494
33.471
33.446
33.421
33.394
33.367
33.339
33.311
33.282
33.255
33.227
33.201
33.175
33.15
33.126
33.103
33.082
33.061
33.04
33.021
33.003
32.987
32.972
32.958
32.946
32.935
32.924
32.913
32.901
32.887
32.872
32.856
32.838
32.817
32.795
32.771
32.746
32.72
32.693
32.665
32.638
32.611
32.585
32.562
32.54
32.521
32.506
32.493
32.484
32.478
32.474
32.472
32.473
32.476
32.483
32.494
32.51
32.534
32.568
32.616
32.682
32.771
32.887
33.035
33.218
33.439
33.699
33.996
34.327
34.688
35.073
35.475
35.884
36.294
36.697
37.086
37.454
37.795
38.105
38.381
38.62
38.823
38.99
39.123
39.224
39.295
39.339
39.36
39.36
39.343
39.312
39.271
39.221
39.166
39.108
39.047
38.984
38.92
38.856
38.792
38.728
38.665
38.604
38.546
38.488
38.432
38.376
38.322
38.269
38.216
38.164
38.112
38.06
38.009
37.957
37.906
37.855
37.805
37.756
37.707
37.658
37.61
37.56
37.511
37.46
37.41
37.358
37.305
37.25
37.195
37.14
37.085
37.031
36.978
36.927
36.878
36.831
36.788
36.75
36.716
36.687
36.664
36.648
36.638
36.634
36.635
36.641
36.651
36.664
36.677
36.692
36.709
36.726
36.743
36.76
36.777
36.793
36.806
36.817
36.825
36.829
36.83
36.827
36.82
36.809
36.794
36.776
36.753
36.726
36.696
36.661
36.622
36.58
36.535
36.488
36.438
36.387
36.334
36.28
36.224
36.169
36.113
36.057
36.002
35.947
35.893
35.838
35.783
35.729
35.675
35.622
35.569
35.516
35.464
35.412
35.36
35.308
35.255
35.203
