Trial 1:0back
32.195
32.136
32.077
32.02
31.962
31.906
31.852
31.799
31.745
31.688
31.63
31.575
31.524
31.48
31.444
31.417
31.4
31.393
31.395
31.405
31.423
31.448
31.479
31.513
31.55
31.588
31.627
31.667
31.705
31.743
31.778
31.812
31.845
31.877
31.908
31.94
31.973
32.01
32.054
32.108
32.178
32.269
32.388
32.543
32.74
32.99
33.298
33.671
34.112
34.623
35.202
35.842
36.534
37.267
38.023
38.787
39.544
40.276
40.972
41.617
42.203
42.721
43.164
43.531
43.819
44.03
44.167
44.233
44.235
44.179
44.074
43.927
43.746
43.536
43.305
43.059
42.801
42.537
42.27
42.001
41.733
41.466
41.2
40.934
40.668
40.401
40.134
39.868
39.602
39.337
39.075
38.815
38.557
38.302
38.05
37.802
37.558
37.319
37.084
36.853
36.626
36.403
36.182
35.965
35.751
35.544
35.345
35.157
34.984
34.826
34.688
34.569
34.471
34.396
34.342
34.309
34.298
34.308
34.339
34.389
34.457
34.54
34.638
34.749
34.871
35.004
35.144
35.291
35.442
35.595
35.748
35.897
36.04
36.175
36.3
36.412
36.512
36.597
36.667
36.72
36.755
36.772
36.772
36.756
36.724
36.677
36.617
36.542
36.455
36.357
36.25
36.135
36.015
35.89
35.763
35.634
35.504
35.375
35.246
35.118
34.991
34.864
34.738
34.613
34.488
34.364
34.24
34.117
33.995
33.875
33.755
33.637
33.52
33.403
33.288
33.173
33.058
32.945
32.832
32.72
32.611
32.506
32.405
32.309
32.221
32.139
32.065
32.0
31.943
31.894
31.852
31.817
31.789
31.765
31.746
31.731
31.717
31.705
31.694
31.683
31.673
31.663
31.652
31.642
31.633
31.627
31.624
31.627
31.636
31.65
31.67
31.695
31.724
31.756
31.79
31.825
31.859
31.89
31.92
31.946
31.97
31.993
32.013
32.032
32.047
32.06
32.07
32.078
32.084
32.089
32.093
32.097
32.102
32.111
32.125
32.151
32.194
32.26
32.357
32.492
32.675
32.912
33.212
33.582
34.022
34.536
35.12
35.768
36.471
37.215
37.987
38.769
39.546
40.3
41.016
41.679
42.279
42.808
43.258
43.627
43.914
44.122
44.254
44.317
44.315
44.257
44.15
44.001
43.817
43.605
43.372
43.122
42.86
42.592
42.321
42.048
41.775
41.505
41.238
40.976
40.718
40.466
40.218
39.973
39.73
39.488
39.248
39.009
38.772
38.539
38.31
38.085
37.865
37.649
37.438
37.231
37.028
36.828
36.63
36.437
36.246
36.059
35.876
35.698
35.527
35.364
35.211
35.07
34.943
34.832
34.738
34.664
34.609
34.576
34.563
34.572
34.602
34.653
34.723
34.812
34.92
35.043
35.179
35.327
35.481
35.639
35.798
35.954
36.106
36.25
36.384
36.506
36.613
36.705
36.78
36.836
36.872
36.889
36.888
36.868
36.831
36.779
36.711
36.63
36.536
36.43
36.315
36.192
36.063
35.93
35.795
35.657
35.519
35.381
35.243
35.107
34.973
34.838
34.705
34.572
34.441
34.31
34.18
34.051
33.922
33.795
33.668
33.542
33.419
33.298
33.181
33.067
32.957
32.851
32.749
32.652
32.56
32.473
32.39
32.314
32.243
32.179
32.121
32.07
32.024
31.983
31.945
31.911
31.88
31.853
31.827
31.803
31.781
31.761
31.744
31.73
31.718
31.708
31.701
31.696
31.693
31.692
31.694
31.699
31.706
31.715
31.728
31.743
31.762
31.785
31.811
31.84
31.872
31.906
31.94
31.974
32.007
32.04
32.07
32.098
32.122
32.141
32.156
32.167
32.175
32.178
32.179
32.177
32.173
32.168
32.165
32.164
32.17
32.187
32.218
32.27
32.35
32.468
32.632
32.852
33.135
33.486
33.909
34.404
34.967
35.591
36.269
36.987
37.731
38.485
39.234
39.961
40.653
41.296
41.879
42.395
42.837
43.202
43.488
43.697
43.832
43.898
43.9
43.843
43.736
43.582
43.382
43.145
42.88
42.598
42.306
42.012
41.721
41.438
41.164
40.9
40.645
40.399
40.16
39.927
39.698
39.473
39.251
39.031
38.813
38.597
38.382
38.169
37.956
37.743
37.53
37.317
37.104
36.892
36.682
36.472
36.266
36.063
35.864
35.672
35.488
35.314
35.152
35.003
34.868
34.749
34.646
34.56
34.491
34.44
34.407
34.392
34.396
34.419
34.461
34.524
34.606
34.705
34.818
34.94
35.07
35.204
35.339
35.472
35.603
35.728
35.845
35.953
36.051
36.138
36.213
36.275
36.324
36.358
36.379
36.385
36.378
36.359
36.327
36.284
36.23
36.166
36.092
36.009
35.918
35.82
35.716
35.607
35.496
35.383
35.269
35.153
35.037
34.919
34.801
34.68
34.559
34.436
34.311
34.184
34.053
33.918
33.78
33.639
33.495
33.351
33.209
33.068
32.932
32.802
32.678
32.562
32.454
32.354
32.262
32.178
32.101
32.031
31.966
31.907
31.851
31.799
31.75
31.703
31.658
31.614
31.569
31.525
31.482
31.441
31.403
31.37
31.341
31.318
31.302
31.292
31.289
31.293
31.304
31.321
31.344
31.37
31.399
31.428
31.457
31.486
31.514
31.541
31.566
31.589
31.611
31.632
31.651
31.669
31.686
31.701
31.715
31.728
31.742
31.756
31.772
31.789
31.807
31.826
31.846
31.867
31.886
31.903
31.919
31.933
31.944
31.953
31.963
31.975
31.994
32.025
32.075
32.152
32.262
32.416
32.621
32.887
33.219
33.622
34.098
34.644
35.255
35.921
36.631
37.371
38.126
38.881
39.619
40.326
40.986
41.589
42.125
42.587
42.972
43.277
43.504
43.655
43.736
43.753
43.712
43.621
43.487
43.317
43.116
42.892
42.648
42.39
42.123
41.849
41.572
41.293
41.012
40.732
40.453
40.176
39.901
39.628
39.358
39.092
38.829
38.568
38.311
38.057
37.806
37.558
37.313
37.072
36.834
36.599
36.368
36.142
35.922
35.707
35.5
35.3
35.112
34.934
34.769
34.619
34.483
34.364
34.262
34.179
34.114
34.067
34.04
34.031
34.041
34.07
34.118
34.183
34.264
34.362
34.475
34.601
34.739
34.887
35.042
35.202
35.363
35.523
35.678
35.826
35.963
36.088
36.199
36.296
36.378
36.446
36.499
36.538
36.565
36.578
36.58
36.571
36.55
36.518
36.475
36.421
36.355
36.277
36.189
36.089
35.978
35.857
35.725
35.582
35.428
35.267
35.1
34.928
34.753
34.577
34.402
34.23
34.062
33.899
33.744
33.597
33.459
33.33
33.209
33.096
32.99
32.891
32.798
32.71
32.626
32.545
32.467
32.391
32.316
32.241
32.168
32.095
32.022
31.949
31.877
31.808
31.743
31.681
31.624
31.574
31.529
31.492
31.462
31.44
31.423
31.414
31.412
31.417
31.427
31.443
31.464
31.489
31.518
31.552
31.589
31.63
31.673
31.715
31.757
31.797
31.835
31.87
31.902
31.93
31.954
31.975
31.991
32.005
32.015
32.022
32.025
32.025
32.024
32.022
32.021
32.023
32.031
32.045
32.07
32.109
32.169
32.263
32.396
32.573
32.797
33.07
33.393
33.768
34.194
34.671
35.198
35.77
36.38
37.019
37.677
38.344
39.008
39.657
40.281
40.868
41.411
41.9
42.331
42.698
42.998
43.23
43.395
43.495
43.533
43.515
43.447
43.333
43.182
42.998
42.789
42.559
42.313
42.056
41.792
41.522
41.248
40.972
40.695
40.419
40.143
39.869
39.595
39.319
39.041
38.761
38.48
38.201
37.924
37.65
37.379
37.113
36.852
36.597
36.349
36.109
35.876
35.651
35.434
35.225
35.026
34.838
34.662
34.498
34.347
34.21
34.088
33.983
33.895
33.825
33.775
33.745
33.737
33.751
33.786
33.842
33.919
34.014
34.125
34.252
34.39
34.539
34.697
34.859
35.023
35.187
35.348
35.504
35.653
35.794
35.926
36.047
36.157
36.253
36.333
36.398
36.445
36.474
36.485
36.477
36.45
36.404
36.341
36.261
36.168
36.063
35.949
35.828
35.7
35.568
35.434
35.299
35.164
35.03
34.898
34.767
34.638
34.51
34.383
34.256
34.13
34.004
33.878
33.752
33.626
33.501
33.377
33.254
33.132
33.012
32.894
32.778
32.664
32.553
32.444
32.339
32.238
32.142
32.051
31.967
31.889
31.819
31.758
31.705
31.66
31.623
31.593
31.569
31.552
31.538
31.527
31.518
31.509
31.5
31.489
31.476
31.462
31.446
31.43
31.414
31.398
31.384
31.373
31.365
31.362
31.364
31.37
31.382
31.4
31.422
31.447
31.475
31.505
31.534
31.563
31.588
31.611
31.629
31.642
31.649
31.653
31.655
31.657
31.663
31.676
31.701
31.743
31.81
31.907
32.042
32.223
32.456
32.75
33.108
33.533
34.026
34.583
35.2
35.869
36.58
37.32
38.076
38.834
39.578
40.295
40.97
41.592
42.149
42.635
43.043
43.372
43.621
43.794
43.893
43.926
43.899
43.819
43.694
43.532
43.339
43.122
42.885
42.634
42.372
42.102
41.826
41.547
41.267
40.987
40.706
40.427
40.148
39.871
39.595
39.321
39.05
38.784
38.522
38.266
38.015
37.77
37.528
37.292
37.06
36.834
36.612
36.396
36.183
35.975
35.772
35.573
35.381
35.195
35.017
34.849
34.69
34.542
34.407
34.286
34.181
34.091
34.019
33.966
33.933
33.922
33.933
33.966
34.022
34.099
34.197
34.312
34.443
34.586
34.739
34.898
35.06
35.221
35.378
35.53
35.674
35.807
35.929
36.037
36.131
36.21
36.274
36.325
36.362
36.385
36.394
36.39
36.372
36.342
36.3
36.246
36.18
36.102
36.01
35.906
35.789
35.663
35.527
35.384
35.236
35.083
34.926
34.769
34.611
34.455
34.301
34.149
34.0
33.854
33.712
33.573
33.439
33.308
33.183
33.062
32.946
32.834
32.727
32.624
32.527
32.436
32.349
32.268
32.191
32.119
32.05
31.983
31.918
31.855
31.791
31.729
31.668
31.61
31.555
31.505
31.459
31.419
31.383
31.354
31.33
31.311
31.298
31.29
31.285
31.284
31.285
31.29
31.298
31.309
31.322
31.337
31.353
31.37
31.389
31.409
31.429
31.451
31.474
31.498
31.523
31.548
31.573
31.598
31.623
31.646
31.668
31.687
31.705
31.719
31.731
31.741
31.751
31.761
31.774
31.792
31.819
31.858
31.914
31.994
32.105
32.257
32.456
32.712
33.032
33.419
33.878
34.407
35.003
35.659
36.365
37.109
37.877
38.652
39.421
40.167
40.875
41.534
42.132
42.659
43.109
43.479
43.767
43.974
44.105
44.163
44.158
44.094
43.981
43.827
43.639
43.425
43.189
42.937
42.674
42.403
42.127
41.849
41.569
41.289
41.012
40.738
40.466
40.198
39.933
39.67
39.408
39.148
38.889
38.631
38.375
38.12
37.867
37.617
37.369
37.125
36.885
36.648
36.416
36.187
35.962
35.741
35.525
35.316
35.115
34.925
34.749
34.589
34.448
34.326
34.225
34.144
34.082
34.04
34.017
34.013
34.029
34.063
34.116
34.186
34.272
34.373
34.487
34.613
34.75
34.895
35.046
35.2
35.352
35.502
35.645
35.78
35.905
36.018
36.116
36.198
36.265
36.317
36.353
36.374
36.381
36.374
36.353
36.321
36.276
36.22
36.154
36.077
35.991
35.894
35.789
35.675
35.55
35.417
35.276
35.13
34.979
34.824
34.669
34.514
34.362
34.215
34.071
33.933
33.801
33.674
33.553
33.437
33.326
33.218
33.113
33.009
32.906
32.803
32.7
32.597
32.495
32.393
32.292
32.194
32.097
32.003
31.911
31.821
31.733
31.648
31.566
31.489
31.417
31.351
31.292
31.241
31.199
31.166
31.141
31.123
31.11
31.102
31.097
31.094
31.092
31.091
31.091
31.092
31.094
31.098
31.105
31.114
31.127
31.146
31.169
31.196
31.228
31.263
31.301
31.341
31.383
31.424
31.463
31.5
31.533
31.562
31.585
31.605
31.618
31.626
31.628
31.625
31.618
31.608
31.597
31.586
31.577
31.57
31.569
31.575
31.59
31.617
31.659
31.721
31.808
31.925
32.08
32.28
32.533
32.844
33.22
33.665
34.179
34.76
35.403
36.1
36.839
37.607
38.389
39.17
39.935
40.668
41.355
41.984
42.544
43.027
43.429
43.747
43.982
44.136
44.215
44.225
44.173
44.067
43.915
43.725
43.503
43.256
42.99
42.71
42.42
42.124
41.824
41.523
41.223
40.925
40.63
40.339
40.053
39.77
39.492
39.218
38.948
38.681
38.418
38.159
37.902
37.648
37.397
37.147
36.898
36.651
36.405
36.161
35.92
35.682
35.448
35.22
34.999
34.788
34.587
34.4
34.226
34.069
33.928
33.806
33.703
33.62
33.558
33.517
33.496
33.495
33.514
33.553
33.611
33.69
33.788
33.906
34.042
34.194
34.361
34.54
34.728
34.921
35.115
35.308
35.494
35.671
35.835
35.983
36.113
36.222
36.309
36.375
36.418
36.44
36.441
36.422
36.384
36.33
36.259
36.174
36.077
35.97
35.855
35.732
35.603
35.467
35.326
35.18
35.032
34.881
34.728
34.575
34.421
34.268
34.117
33.969
33.826
33.688
33.556
33.431
33.312
33.2
33.095
32.995
32.901
32.811
32.726
32.646
32.569
32.496
32.426
32.355
32.284
32.212
32.138
32.063
31.986
31.909
31.833
31.757
31.683
31.612
31.547
31.487
31.436
31.393
31.358
31.332
31.314
31.302
31.296
31.294
31.297
31.302
31.309
31.317
31.325
31.334
31.344
31.355
31.366
31.377
31.39
31.404
31.421
31.439
31.459
31.481
31.505
31.529
31.553
31.577
31.597
31.612
31.624
31.632
31.639
31.646
31.655
31.665
31.679
31.696
31.719
31.749
31.79
31.844
31.916
32.013
32.142
32.309
32.523
32.791
33.12
33.515
33.98
34.513
35.11
35.767
36.472
37.214
37.981
38.755
39.521
40.265
40.971
41.625
42.217
42.736
43.176
43.532
43.803
43.992
44.101
44.137
44.106
44.017
43.876
43.692
43.473
43.226
42.958
42.674
42.381
42.081
41.779
41.475
41.172
40.871
40.571
40.273
39.975
39.678
39.382
39.084
38.787
38.489
38.192
37.897
37.606
37.318
37.037
36.761
36.493
36.233
35.98
35.735
35.499
35.27
35.05
34.838
34.635
34.441
34.259
34.09
33.937
33.799
33.68
33.579
33.498
33.439
33.401
33.388
33.397
33.429
33.484
33.558
33.652
33.763
33.89
34.031
34.185
34.349
34.52
34.696
34.875
35.056
35.234
35.41
35.579
35.739
35.886
36.02
36.137
36.236
36.316
36.377
36.417
36.438
36.44
36.424
36.393
36.348
36.291
36.222
36.143
36.055
35.957
35.851
35.737
35.615
35.486
35.352
35.212
35.067
34.918
34.764
34.606
34.446
34.283
34.12
33.957
33.795
33.636
33.483
33.336
33.197
33.065
32.942
32.827
32.719
32.618
32.523
32.433
32.347
32.265
32.188
32.114
32.044
31.976
31.911
31.85
31.79
31.733
31.678
31.626
31.577
31.531
31.487
31.446
31.407
31.371
31.339
31.31
31.285
31.264
31.247
31.234
31.223
31.215
31.208
31.203
31.198
31.194
31.192
31.193
31.196
31.204
31.213
31.225
31.239
31.254
31.271
31.288
31.305
31.323
31.343
31.367
31.4
31.447
31.513
31.608
31.739
31.916
32.145
32.437
32.797
33.23
33.739
34.321
34.974
35.687
36.45
37.249
38.067
38.887
39.691
40.463
41.187
41.849
42.438
42.946
43.367
43.701
43.948
44.11
44.193
44.201
44.145
44.03
43.867
43.663
43.427
43.166
42.887
42.595
42.297
41.994
41.689
41.386
41.084
40.785
40.49
40.198
39.909
39.624
39.342
39.064
38.789
38.519
38.254
37.993
37.737
37.483
37.232
36.984
36.739
36.497
36.257
36.019
35.783
35.55
35.318
35.09
34.867
34.651
34.443
34.247
34.064
33.897
33.748
33.618
33.509
33.424
33.364
33.33
33.325
33.347
33.393
33.462
33.55
33.655
33.774
33.906
34.048
34.199
34.357
34.519
34.685
34.851
35.017
35.179
35.335
35.482
35.619
35.744
35.856
35.954
36.036
36.101
36.15
36.182
36.197
36.198
36.182
36.15
36.105
36.045
35.972
35.887
35.79
35.684
35.569
35.447
35.32
35.189
35.057
34.924
34.79
34.657
34.523
34.389
34.256
34.123
33.988
33.852
33.715
33.576
33.435
33.294
33.152
33.009
32.865
32.721
32.58
32.443
32.312
32.188
32.074
31.971
31.879
31.8
31.734
31.68
31.636
31.601
31.572
31.546
31.521
31.495
31.465
31.431
31.393
31.35
31.305
31.258
31.21
31.164
31.122
31.084
31.053
31.031
31.018
31.017
31.025
31.042
31.065
31.091
31.119
31.147
31.173
31.195
31.213
31.225
31.23
31.228
31.22
31.206
31.189
31.169
31.149
31.13
31.115
31.109
31.113
31.133
31.173
31.237
31.332
31.462
31.636
31.86
32.141
32.488
32.904
33.392
33.953
34.586
35.284
36.039
36.837
37.666
38.509
39.348
40.167
40.947
41.674
42.335
42.92
43.42
43.832
44.153
44.385
44.533
44.601
44.597
44.528
44.404
44.232
44.021
43.777
43.508
43.221
42.921
42.614
42.302
41.989
41.676
41.366
41.059
40.756
40.456
40.159
39.867
39.578
39.293
39.012
38.735
38.463
38.197
37.937
37.681
37.431
37.185
36.943
36.706
36.473
36.245
36.021
35.802
35.588
35.382
35.193
35.025
34.877
34.748
34.634
34.534
34.444
34.363
34.289
34.222
34.162
34.111
34.069
34.039
34.022
34.019
34.032
34.063
34.11
34.176
34.26
34.36
34.475
34.602
34.739
34.883
35.033
35.186
35.338
35.487
35.63
35.764
35.887
35.998
36.095
36.177
36.243
36.291
36.322
36.334
36.329
36.306
36.267
36.212
36.143
36.06
35.966
35.86
35.745
35.621
35.491
35.357
35.219
35.079
34.937
34.793
34.649
34.503
34.357
34.211
34.064
33.918
33.773
33.629
33.488
33.349
33.214
33.083
32.957
32.835
32.718
32.605
32.497
32.394
32.296
32.203
32.114
32.029
31.948
31.871
31.799
31.731
31.667
31.607
31.552
31.501
31.454
31.411
31.372
31.336
31.303
31.271
31.242
31.214
31.187
31.162
31.139
31.117
31.099
31.083
31.071
31.063
31.06
31.061
31.065
31.073
31.085
31.099
31.116
31.135
31.156
31.178
31.2
31.221
31.241
31.259
31.274
31.287
31.298
31.307
31.316
31.325
31.337
31.355
31.382
31.421
31.477
31.555
31.662
31.803
31.987
32.221
32.511
32.864
33.284
33.774
34.332
34.956
35.639
36.371
37.142
37.938
38.744
39.542
40.318
41.056
41.742
42.365
42.914
43.384
43.77
44.07
44.286
44.422
44.481
44.472
44.4
44.274
44.102
43.89
43.646
43.377
43.09
42.789
42.479
42.163
41.845
41.529
41.215
40.905
40.6
40.3
40.006
39.717
39.434
39.157
38.886
38.619
38.358
38.102
37.851
37.603
37.358
37.117
36.882
36.651
36.427
36.208
35.995
35.786
35.583
35.386
35.197
35.016
34.844
34.684
34.536
34.4
34.278
34.171
34.081
34.008
33.955
33.923
33.91
33.918
33.944
33.99
34.054
34.135
34.232
34.342
34.465
34.596
34.735
34.879
35.026
35.174
35.32
35.463
35.599
35.728
35.847
35.955
36.05
36.13
36.192
36.227
36.233
36.213
36.17
36.107
36.031
35.946
35.857
35.765
35.673
35.582
35.492
35.401
35.311
35.219
35.126
35.029
34.927
34.821
34.709
34.592
34.47
34.344
34.215
34.083
33.949
33.814
33.678
33.542
33.406
33.271
33.135
33.001
32.868
32.739
32.615
32.498
32.387
32.284
32.188
32.1
32.019
31.946
31.88
31.82
31.766
31.717
31.671
31.627
31.584
31.541
31.497
31.452
31.407
31.361
31.317
31.275
31.237
31.201
31.171
31.145
31.125
31.112
31.105
31.106
31.113
31.126
31.142
31.162
31.185
31.208
31.233
31.258
31.283
31.308
31.332
31.356
31.38
31.404
31.427
31.449
31.471
31.492
31.515
31.538
31.562
31.587
31.612
31.639
31.666
31.695
31.726
31.761
31.802
31.855
31.926
32.023
32.153
32.326
32.553
32.841
33.199
33.63
34.136
34.715
35.362
36.068
36.822
37.609
38.415
39.22
40.01
40.766
41.474
42.121
42.696
43.192
43.602
43.927
44.165
44.32
44.396
44.4
44.338
44.22
44.052
43.845
43.606
43.343
43.062
42.769
42.467
42.159
41.847
41.533
41.22
40.908
40.598
40.292
39.991
39.694
39.404
39.119
38.841
38.569
38.303
38.042
37.786
37.534
37.285
37.041
36.803
36.57
36.342
36.118
35.899
35.683
35.471
35.263
35.06
34.863
34.673
34.492
34.321
34.163
34.02
33.895
33.788
33.702
33.638
33.596
33.577
33.582
33.61
33.658
33.727
33.814
33.918
34.037
34.167
34.306
34.452
34.604
34.76
34.919
35.079
35.238
35.394
35.544
35.687
35.82
35.939
36.043
36.13
36.197
36.245
36.271
36.276
36.26
36.224
36.168
36.096
36.009
35.909
35.8
35.682
35.555
35.423
35.286
35.147
35.006
34.865
34.724
34.582
34.442
34.302
34.164
34.027
33.892
33.76
33.63
33.505
33.384
33.268
33.158
33.052
32.952
32.856
32.765
32.678
32.592
32.506
32.42
32.332
32.242
32.151
32.06
31.969
31.879
31.791
31.706
31.625
31.547
31.474
31.406
31.344
31.287
31.237
31.192
31.152
31.117
31.086
31.06
31.036
31.016
31.0
30.987
30.978
30.971
30.968
30.966
30.966
30.968
30.972
30.978
30.986
30.997
31.01
31.024
31.039
31.055
31.072
31.09
31.109
31.128
31.146
31.162
31.177
31.192
31.207
31.221
31.235
31.25
31.267
31.287
31.314
31.35
31.401
31.473
