Trial 1:0back
34.978
35.597
36.251
36.924
37.601
38.269
38.916
39.531
40.103
40.623
41.086
41.486
41.822
42.094
42.302
42.45
42.54
42.579
42.572
42.525
42.445
42.338
42.209
42.064
41.906
41.741
41.573
41.404
41.238
41.075
40.919
40.768
40.625
40.488
40.357
40.232
40.112
39.998
39.889
39.785
39.686
39.591
39.499
39.407
39.314
39.216
39.113
39.004
38.888
38.766
38.638
38.506
38.37
38.23
38.088
37.945
37.801
37.659
37.521
37.389
37.266
37.154
37.055
36.971
36.901
36.845
36.802
36.771
36.751
36.743
36.745
36.758
36.78
36.809
36.843
36.88
36.916
36.948
36.974
36.993
37.006
37.01
37.008
36.998
36.98
36.955
36.922
36.881
36.833
36.779
36.719
36.655
36.586
36.515
36.441
36.366
36.289
36.21
36.129
36.046
35.961
35.875
35.788
35.7
35.612
35.525
35.44
35.358
35.277
35.196
35.115
35.033
34.951
34.869
34.788
34.71
34.634
34.562
34.492
34.426
34.361
34.297
34.236
34.177
34.12
34.066
34.014
33.965
33.919
33.876
33.836
33.797
33.759
33.721
33.683
33.647
33.614
33.583
33.556
33.532
33.511
33.495
33.482
33.474
33.468
33.466
33.465
33.465
33.468
33.472
33.478
33.487
33.497
33.507
33.515
33.52
33.521
33.518
33.51
33.498
33.481
33.461
33.436
33.407
33.375
33.339
33.301
33.261
33.218
33.173
33.126
33.077
33.027
32.975
32.923
32.872
32.821
32.773
32.726
32.682
32.641
32.602
32.566
32.534
32.506
32.486
32.476
32.478
32.498
32.538
32.605
32.702
32.837
33.016
33.244
33.524
33.86
34.25
34.691
35.178
35.701
36.25
36.816
37.386
37.949
38.495
39.014
39.499
39.941
40.336
40.68
40.969
41.204
41.387
41.521
41.61
41.657
41.666
41.643
41.591
41.516
41.423
41.315
41.197
41.072
40.944
40.816
40.691
40.57
40.455
40.345
40.242
40.144
40.051
39.964
39.881
39.803
39.728
39.656
39.586
39.517
39.447
39.374
39.297
39.214
39.125
39.026
38.918
38.8
38.67
38.53
38.38
38.225
38.071
37.922
37.779
37.643
37.515
37.393
37.277
37.166
37.061
36.962
36.871
36.789
36.718
36.657
36.606
36.565
36.531
36.507
36.49
36.482
36.483
36.49
36.503
36.52
36.537
36.553
36.567
36.577
36.582
36.583
36.579
36.57
36.553
36.529
36.497
36.458
36.413
36.361
36.305
36.244
36.179
36.11
36.039
35.966
35.889
35.81
35.727
35.643
35.556
35.469
35.381
35.293
35.206
35.12
35.034
34.947
34.862
34.779
34.699
34.622
34.548
34.477
34.405
34.329
34.245
34.155
34.062
33.967
33.875
33.788
33.707
33.634
33.568
33.509
33.457
33.412
33.373
33.342
33.318
33.299
33.287
33.278
33.271
33.264
33.257
33.248
33.237
33.225
33.212
33.199
33.187
33.175
33.163
33.152
33.141
33.132
33.124
33.118
33.113
33.108
33.104
33.1
33.097
33.093
33.087
33.08
33.07
33.057
33.042
33.023
33.003
32.979
32.953
32.925
32.894
32.863
32.831
32.8
32.769
32.739
32.708
32.676
32.643
32.608
32.573
32.536
32.497
32.456
32.414
32.371
32.328
32.288
32.25
32.215
32.184
32.158
32.139
32.13
32.133
32.152
32.193
32.26
32.361
32.504
32.694
32.938
33.239
33.599
34.017
34.49
35.01
35.57
36.159
36.766
37.378
37.982
38.565
39.118
39.63
40.094
40.503
40.856
41.151
41.388
41.571
41.703
41.789
41.834
41.844
41.823
41.775
41.705
41.617
41.515
41.402
41.283
41.161
41.039
40.921
40.808
40.702
40.605
40.516
40.433
40.357
40.286
40.219
40.155
40.094
40.033
39.973
39.913
39.853
39.793
39.732
39.668
39.601
39.527
39.445
39.355
39.255
39.144
39.024
38.895
38.758
38.614
38.466
38.315
38.163
38.012
37.862
37.718
37.579
37.45
37.331
37.224
37.13
37.049
36.982
36.93
36.89
36.861
36.844
36.835
36.833
36.836
36.844
36.854
36.866
36.878
36.89
36.901
36.907
36.909
36.904
36.892
36.872
36.844
36.808
36.762
36.708
36.647
36.578
36.504
36.431
36.363
36.299
36.238
36.179
36.118
36.055
35.987
35.913
35.833
35.746
35.654
35.555
35.45
35.342
35.233
35.126
35.022
34.922
34.827
34.735
34.647
34.561
34.479
34.399
34.322
34.246
34.171
34.098
34.025
33.954
33.886
33.82
33.757
33.696
33.638
33.582
33.527
33.473
33.42
33.368
33.317
33.268
33.221
33.175
33.13
33.087
33.047
33.011
32.978
32.948
32.922
32.9
32.881
32.866
32.854
32.846
32.845
32.849
32.859
32.87
32.881
32.89
32.894
32.891
32.88
32.862
32.835
32.803
32.767
32.73
32.692
32.655
32.617
32.58
32.543
32.508
32.475
32.445
32.416
32.387
32.358
32.328
32.298
32.266
32.234
32.201
32.167
32.131
32.093
32.054
32.013
31.971
31.929
31.888
31.849
31.811
31.776
31.742
31.709
31.676
31.646
31.618
31.595
31.581
31.577
31.589
31.619
31.673
31.758
31.882
32.052
32.274
32.554
32.893
33.292
33.749
34.257
34.81
35.399
36.012
36.636
37.257
37.863
38.441
38.982
39.479
39.926
40.318
40.654
40.931
41.152
41.318
41.432
41.498
41.52
41.505
41.458
41.384
41.289
41.179
41.059
40.932
40.803
40.674
40.546
40.421
40.299
40.183
40.072
39.968
39.87
39.778
39.692
39.613
39.539
39.472
39.409
39.348
39.287
39.224
39.156
39.083
39.003
38.914
38.817
38.71
38.594
38.469
38.337
38.197
38.052
37.902
37.75
37.595
37.44
37.288
37.142
37.005
36.878
36.763
36.662
36.575
36.502
36.443
36.399
36.368
36.351
36.344
36.348
36.36
36.378
36.401
36.426
36.451
36.474
36.494
36.509
36.52
36.526
36.527
36.522
36.512
36.494
36.469
36.436
36.395
36.345
36.288
36.224
36.156
36.084
36.008
35.928
35.845
35.758
35.67
35.58
35.489
35.399
35.309
35.219
35.129
35.041
34.954
34.87
34.787
34.706
34.625
34.544
34.464
34.386
34.309
34.233
34.16
34.089
34.021
33.954
33.888
33.825
33.764
33.706
33.651
33.598
33.546
33.497
33.45
33.406
33.366
33.329
33.294
33.262
33.232
33.203
33.176
33.152
33.13
33.111
33.096
33.085
33.076
33.071
33.068
33.067
33.067
33.069
33.072
33.075
33.078
33.08
33.081
33.081
33.079
33.076
33.069
33.06
33.049
33.036
33.021
33.004
32.986
32.967
32.947
32.928
32.91
32.893
32.877
32.86
32.842
32.822
32.799
32.774
32.745
32.712
32.676
32.636
32.592
32.546
32.498
32.448
32.398
32.348
32.299
32.252
32.206
32.162
32.122
32.086
32.053
32.024
31.999
31.978
31.963
31.956
31.961
31.983
32.029
32.107
32.224
32.389
32.61
32.89
33.232
33.637
34.101
34.618
35.178
35.769
36.378
36.993
37.601
38.189
38.748
39.268
39.743
40.167
40.535
40.845
41.097
41.291
41.429
41.515
41.553
41.548
41.508
41.438
41.344
41.233
41.109
40.976
40.837
40.691
40.537
40.377
40.215
40.054
39.897
39.749
39.61
39.484
39.373
39.279
39.2
39.135
39.083
39.037
38.995
38.95
38.9
38.843
38.775
38.695
38.603
38.498
38.379
38.247
38.104
37.952
37.792
37.628
37.463
37.299
37.141
36.989
36.845
36.713
36.594
36.491
36.404
36.334
36.281
36.244
36.221
36.213
36.217
36.231
36.254
36.284
36.319
36.357
36.396
36.433
36.465
36.491
36.509
36.518
36.517
36.505
36.483
36.452
36.413
36.368
36.316
36.258
36.196
36.129
36.058
35.983
35.904
35.822
35.738
35.651
35.563
35.473
35.383
35.292
35.201
35.109
35.017
34.926
34.836
34.749
34.664
34.579
34.496
34.412
34.329
34.246
34.164
34.084
34.005
33.929
33.854
33.78
33.708
33.637
33.569
33.504
33.442
33.383
33.327
33.273
33.221
33.171
33.123
33.077
33.033
32.99
32.949
32.911
32.876
32.843
32.813
32.785
32.759
32.73
32.698
32.661
32.621
32.581
32.542
32.506
32.475
32.45
32.432
32.421
32.416
32.418
32.424
32.435
32.449
32.466
32.486
32.507
32.527
32.547
32.563
32.574
32.58
32.582
32.58
32.575
32.567
32.556
32.542
32.524
32.503
32.478
32.449
32.417
32.382
32.346
32.309
32.272
32.236
32.2
32.163
32.124
32.083
32.041
31.999
31.958
31.917
31.877
31.837
31.797
31.758
31.72
31.682
31.647
31.613
31.58
31.551
31.524
31.499
31.478
31.462
31.453
31.454
31.471
31.508
31.575
31.679
31.829
32.032
32.296
32.626
33.025
33.492
34.024
34.613
35.249
35.917
36.602
37.29
37.965
38.614
39.226
39.792
40.304
40.757
41.147
41.472
41.733
41.932
42.074
42.163
42.205
42.207
42.173
42.112
42.028
41.926
41.811
41.688
41.558
41.426
41.293
41.163
41.036
40.915
40.801
40.694
40.594
40.499
40.409
40.324
40.242
40.164
40.089
40.016
39.944
39.873
39.8
39.724
39.644
39.558
39.464
39.361
39.249
39.128
38.999
38.862
38.718
38.568
38.415
38.259
38.102
37.947
37.795
37.648
37.509
37.377
37.256
37.145
37.047
36.962
36.891
36.833
36.787
36.752
36.727
36.71
36.7
36.697
36.699
36.705
36.713
36.724
36.734
36.742
36.744
36.74
36.729
36.711
36.687
36.656
36.618
36.573
36.52
36.459
36.391
36.316
36.236
36.152
36.065
35.976
35.888
35.801
35.715
35.63
35.547
35.464
35.38
35.297
35.213
35.13
35.049
34.969
34.89
34.811
34.731
34.648
34.563
34.476
34.387
34.299
34.21
34.119
34.028
33.936
33.844
33.754
33.666
33.582
33.502
33.428
33.359
33.295
33.237
33.183
33.134
33.089
33.047
33.01
32.976
32.945
32.916
32.889
32.863
32.838
32.812
32.789
32.767
32.748
32.732
32.717
32.702
32.685
32.666
32.644
32.621
32.597
32.573
32.549
32.527
32.507
32.488
32.47
32.454
32.438
32.424
32.411
32.399
32.39
32.381
32.372
32.363
32.352
32.341
32.328
32.315
32.301
32.286
32.27
32.252
32.233
32.213
32.193
32.173
32.154
32.135
32.115
32.093
32.07
32.045
32.018
31.991
31.963
31.933
31.9
31.865
31.826
31.786
31.745
31.702
31.66
31.617
31.574
31.532
31.49
31.448
31.406
31.365
31.326
31.29
31.261
31.244
31.242
31.255
31.282
31.326
31.389
31.476
31.594
31.75
31.949
32.199
32.506
32.873
33.301
33.79
34.335
34.928
35.56
36.218
36.889
37.558
38.212
38.837
39.423
39.96
40.44
40.859
41.213
41.501
41.723
41.884
41.987
42.038
42.044
42.012
41.951
41.865
41.759
41.639
41.506
41.366
41.219
41.07
40.919
40.769
40.621
40.478
40.341
40.211
40.089
39.975
39.869
39.772
39.683
39.6
39.523
39.449
39.377
39.302
39.22
39.129
39.027
38.916
38.796
38.67
38.538
38.401
38.261
38.117
37.973
37.828
37.686
37.547
37.413
37.284
37.158
37.037
36.921
36.811
36.707
36.61
36.521
36.441
36.371
36.31
36.26
36.22
36.191
36.171
36.161
36.159
36.162
36.169
36.177
36.186
36.194
36.202
36.208
36.21
36.205
36.193
36.171
36.14
36.098
36.049
35.992
35.929
35.86
35.787
35.708
35.625
35.539
35.451
35.363
35.274
35.187
35.101
35.014
34.926
34.836
34.744
34.65
34.554
34.458
34.362
34.268
34.176
34.085
33.996
33.907
33.819
33.733
33.649
33.569
33.492
33.417
33.345
33.273
33.201
33.13
33.058
32.989
32.921
32.855
32.793
32.734
32.68
32.628
32.579
32.533
32.49
32.448
32.41
32.375
32.344
32.318
32.295
32.276
32.259
32.243
32.229
32.216
32.203
32.191
32.179
32.166
32.152
32.139
32.126
32.114
32.107
32.103
32.102
32.103
32.104
32.106
32.107
32.106
32.103
32.098
32.092
32.086
32.078
32.068
32.057
32.041
32.023
32.001
31.977
31.951
31.923
31.893
31.861
31.828
31.794
31.761
31.729
31.698
31.67
31.644
31.619
31.595
31.571
31.548
31.524
31.5
31.476
31.453
31.429
31.406
31.382
31.359
31.335
31.31
31.284
31.256
31.227
31.196
31.163
31.128
31.093
31.059
31.028
31.003
30.985
30.98
30.991
31.026
31.092
31.197
31.35
31.558
31.828
32.166
32.573
33.049
33.59
34.188
34.833
35.512
36.213
36.919
37.616
38.29
38.926
39.514
40.044
40.509
40.907
41.234
41.492
41.683
41.812
41.881
41.898
41.869
41.799
41.697
41.57
41.424
41.267
41.102
40.934
40.767
40.6
40.436
40.274
40.116
39.961
39.809
39.662
39.52
39.384
39.255
39.133
39.016
38.906
38.799
38.695
38.593
38.492
38.39
38.285
38.175
38.06
37.938
37.811
37.68
37.548
37.416
37.284
37.153
37.022
36.892
36.762
36.635
36.511
36.395
36.286
36.187
36.099
36.022
35.959
35.909
35.873
35.85
35.839
35.84
35.851
35.871
35.897
35.929
35.963
35.999
36.033
36.064
36.092
36.115
36.132
36.143
36.148
36.147
36.139
36.124
36.1
36.067
36.025
35.973
35.912
35.843
35.767
35.686
35.599
35.507
35.411
35.31
35.204
35.094
34.98
34.863
34.745
34.626
34.507
34.39
34.276
34.167
34.064
33.967
33.877
33.794
33.718
33.649
33.586
33.529
33.475
33.422
33.37
33.318
33.266
33.213
33.159
33.104
33.048
32.992
32.934
32.876
32.818
32.761
32.706
32.652
32.601
32.551
32.504
32.459
32.419
32.382
32.349
32.319
32.293
32.27
32.251
32.234
32.221
32.211
32.203
32.198
32.197
32.2
32.206
32.215
32.224
32.232
32.239
32.245
32.249
32.25
32.247
32.241
32.232
32.22
32.206
32.191
32.174
32.157
32.14
32.123
32.105
32.087
32.068
32.048
32.027
32.006
31.986
31.965
31.944
31.921
31.896
31.866
31.832
31.795
31.755
31.713
31.673
31.633
31.596
31.561
31.527
31.496
31.468
31.441
31.417
31.396
31.38
31.372
31.376
31.396
31.441
31.518
31.634
31.799
32.022
32.31
32.668
33.098
33.596
34.16
34.778
35.44
36.133
36.841
37.551
38.246
38.913
39.54
40.116
40.633
41.084
41.465
41.773
42.009
42.174
42.274
42.313
42.3
42.24
42.142
42.015
41.864
41.699
41.524
41.345
41.166
40.989
40.816
40.649
40.487
40.331
40.183
40.041
39.906
39.778
39.656
39.54
39.43
39.325
39.225
39.131
39.039
38.949
38.858
38.763
38.664
38.559
38.448
38.33
38.206
38.075
37.936
37.79
37.638
37.481
37.32
37.158
36.997
36.84
36.689
36.547
36.416
36.298
36.194
36.107
36.038
35.986
35.95
35.928
35.92
35.924
35.938
35.96
35.988
36.021
36.056
36.092
36.126
36.158
36.186
36.209
36.225
36.235
36.237
36.23
36.214
36.189
36.154
36.111
36.059
36.0
35.932
35.859
35.78
35.697
35.612
35.525
35.437
35.347
35.257
35.165
35.071
34.975
34.878
34.78
34.68
34.581
34.48
34.38
34.278
34.177
34.077
33.978
33.881
33.786
33.694
33.604
33.517
33.433
33.355
33.282
33.214
33.15
33.09
33.031
32.975
32.92
32.866
32.814
32.763
32.713
32.665
32.618
32.573
32.53
32.489
32.45
32.413
32.377
32.343
32.312
32.283
32.258
32.236
32.217
32.199
32.181
32.165
32.15
32.138
32.127
32.117
32.107
32.095
32.083
32.072
32.062
32.054
32.048
32.044
32.042
32.041
32.041
32.041
32.039
32.036
32.032
32.026
32.02
32.012
32.002
31.992
31.979
31.962
31.943
31.92
31.895
31.871
31.855
31.851
31.857
31.87
31.887
31.903
31.914
31.917
31.911
31.894
31.866
31.826
31.777
31.721
31.659
31.592
31.524
31.454
31.385
31.319
31.256
31.197
31.143
31.096
31.055
31.022
30.996
30.975
30.96
30.951
30.948
30.956
30.977
31.019
31.089
31.198
31.356
31.571
31.853
32.207
32.636
33.141
33.718
34.361
35.059
35.801
36.569
37.349
38.123
38.875
39.589
40.251
40.849
41.376
41.826
42.196
42.486
42.698
42.836
42.908
42.92
42.883
42.803
42.689
42.548
42.388
42.216
42.035
41.852
41.668
41.487
41.31
41.136
40.967
40.802
40.643
40.491
40.346
40.208
40.078
39.957
39.845
39.739
39.638
39.541
39.447
39.354
39.262
39.168
39.073
38.973
38.869
38.759
38.642
38.517
38.383
38.241
38.09
37.932
37.768
37.602
37.435
37.271
37.112
36.962
36.824
36.699
36.588
36.49
36.405
36.333
36.275
36.23
36.199
36.18
36.173
36.176
36.187
36.205
36.226
36.247
36.267
36.284
36.297
36.308
36.313
36.314
36.308
36.295
36.273
36.243
36.204
36.159
36.107
36.049
35.986
35.918
35.845
35.766
35.681
35.592
35.501
35.407
35.313
35.219
35.123
35.026
34.928
34.828
34.728
34.626
34.524
34.421
34.319
34.218
34.118
34.019
33.921
33.823
33.725
33.627
33.531
33.436
33.345
33.257
33.174
33.095
33.02
32.948
32.879
32.813
32.752
32.694
32.642
32.593
32.548
32.506
32.465
32.426
32.387
32.349
32.31
32.27
32.229
32.188
32.147
32.107
32.068
32.032
31.999
31.969
31.943
31.921
31.902
31.886
31.872
31.858
31.844
31.83
31.816
31.802
31.788
31.776
31.764
31.752
31.741
31.73
31.719
31.71
31.701
31.695
31.69
31.686
31.684
31.683
31.683
31.682
31.678
31.671
31.66
31.644
31.624
31.6
31.573
31.542
31.509
31.474
31.444
31.423
31.411
31.407
31.407
31.409
31.409
31.404
31.392
31.372
31.343
31.308
31.265
31.216
31.162
31.104
31.044
30.986
30.931
30.883
30.843
30.817
30.809
30.826
30.873
30.958
31.088
31.27
31.513
31.822
32.203
32.659
33.187
33.783
34.44
35.145
35.884
36.642
37.403
38.151
38.871
39.549
40.173
40.735
41.225
41.64
41.978
42.239
42.425
42.541
42.592
42.586
42.531
42.434
42.302
42.142
41.96
41.76
41.548
41.329
41.109
40.891
40.678
40.472
40.274
40.085
39.904
39.732
39.568
39.412
39.265
39.126
38.996
38.873
38.756
38.643
38.532
38.421
38.31
38.197
38.082
37.963
37.837
37.704
37.564
37.418
37.269
37.117
36.967
36.819
36.676
36.539
36.41
36.289
36.179
36.081
35.996
35.925
35.868
35.825
35.795
35.776
35.767
35.768
35.776
35.79
35.809
35.832
35.857
35.885
35.913
35.942
35.966
35.985
35.997
36.001
35.997
35.987
35.97
35.949
35.922
35.891
35.853
35.809
35.758
35.7
35.635
35.565
35.491
35.414
35.335
35.254
35.172
35.087
35.0
34.911
34.819
34.726
34.631
34.536
34.443
34.35
34.257
34.165
34.073
33.98
33.888
33.795
33.703
33.613
33.524
33.436
33.351
33.268
33.188
33.111
33.037
32.967
32.9
32.838
32.781
32.73
32.683
32.64
32.601
32.564
32.528
32.493
32.46
32.43
32.403
32.379
32.359
32.341
32.325
32.311
32.297
32.283
32.271
32.259
32.247
32.234
32.222
32.21
32.198
32.186
32.176
32.167
32.16
32.154
32.148
32.143
32.139
32.135
32.131
32.128
32.126
32.123
32.12
32.116
32.111
32.102
32.091
32.075
32.057
32.035
32.011
31.984
31.956
31.926
31.895
31.862
31.829
31.796
31.763
31.729
31.696
31.664
31.633
31.606
31.585
31.573
31.573
31.592
31.633
31.703
31.808
31.956
32.154
32.409
32.726
33.109
33.557
34.07
34.642
35.265
35.929
36.62
37.324
38.025
38.708
39.357
39.96
40.506
40.985
41.393
41.726
41.986
42.175
42.297
42.358
42.362
42.317
42.229
42.105
41.952
41.777
41.586
41.382
41.171
40.956
40.742
40.529
40.322
40.122
39.93
39.746
39.573
39.41
39.258
39.115
38.98
38.85
38.722
38.595
38.466
38.336
38.203
38.068
37.93
37.791
37.647
37.499
37.344
37.184
37.018
36.848
36.679
36.511
36.347
36.192
36.046
35.912
35.789
35.679
35.582
35.5
35.432
35.381
35.345
35.324
35.319
35.327
35.347
35.379
35.421
35.469
35.52
35.574
35.627
35.679
35.728
35.773
35.814
35.847
35.87
35.884
35.886
35.876
35.856
35.824
35.783
35.732
35.675
35.61
35.539
35.462
35.379
35.293
35.204
35.113
35.021
34.928
34.834
34.739
34.644
34.549
34.453
34.356
34.258
34.158
34.059
33.959
33.86
33.763
33.669
33.576
33.486
33.398
33.311
33.227
33.145
33.067
32.992
32.922
32.855
32.791
32.73
32.671
32.614
32.56
32.508
32.457
32.409
32.361
32.315
32.269
32.224
32.179
32.135
32.092
32.052
32.017
31.988
31.965
31.948
31.935
31.926
31.921
31.919
31.921
31.927
31.936
31.949
31.964
31.98
31.998
32.015
32.031
32.045
32.057
32.066
32.071
32.074
32.074
32.071
32.066
32.059
32.05
32.041
32.031
32.021
32.012
32.0
31.985
31.967
31.943
31.916
31.886
31.854
31.819
31.782
31.743
31.702
31.659
31.615
31.571
31.528
31.487
31.45
31.418
31.393
31.377
31.372
31.38
31.405
31.452
31.527
31.636
31.786
31.985
32.24
32.559
32.945
33.4
33.924
34.513
35.159
35.851
36.578
37.323
38.07
38.804
39.51
40.172
40.779
41.319
41.785
42.173
42.481
42.711
42.866
42.953
42.978
42.95
42.876
42.765
42.625
42.465
42.288
42.101
41.908
41.713
41.519
41.328
