Trial 1:0back
32.424
32.4
32.376
32.352
32.328
32.303
32.278
32.252
32.224
32.195
32.165
32.134
32.102
32.069
32.034
31.999
31.963
31.926
31.887
31.847
31.807
31.767
31.729
31.693
31.658
31.626
31.597
31.571
31.547
31.526
31.507
31.491
31.476
31.462
31.449
31.436
31.423
31.411
31.399
31.389
31.382
31.38
31.385
31.402
31.434
31.486
31.563
31.668
31.807
31.982
32.196
32.452
32.749
33.087
33.463
33.874
34.316
34.783
35.272
35.775
36.287
36.801
37.31
37.808
38.291
38.754
39.191
39.6
39.975
40.316
40.619
40.885
41.113
41.303
41.457
41.576
41.664
41.721
41.751
41.754
41.733
41.69
41.628
41.549
41.455
41.348
41.231
41.107
40.978
40.847
40.716
40.585
40.455
40.328
40.201
40.077
39.953
39.83
39.705
39.58
39.453
39.325
39.194
39.063
38.93
38.797
38.663
38.529
38.395
38.26
38.124
37.986
37.847
37.705
37.563
37.419
37.276
37.134
36.994
36.858
36.727
36.603
36.485
36.376
36.277
36.188
36.11
36.041
35.983
35.934
35.894
35.862
35.838
35.819
35.803
35.789
35.776
35.761
35.745
35.727
35.707
35.685
35.662
35.638
35.613
35.587
35.56
35.529
35.497
35.463
35.428
35.39
35.348
35.303
35.254
35.204
35.154
35.102
35.049
34.994
34.935
34.871
34.802
34.728
34.65
34.567
34.48
34.39
34.3
34.209
34.119
34.032
33.949
33.87
33.795
33.725
33.657
33.593
33.53
33.469
33.409
33.347
33.284
33.218
33.15
33.079
33.006
32.931
32.855
32.779
32.705
32.634
32.565
32.501
32.441
32.386
32.336
32.289
32.244
32.202
32.159
32.118
32.076
32.034
31.99
31.944
31.897
31.85
31.803
31.758
31.715
31.674
31.637
31.604
31.576
31.552
31.532
31.516
31.504
31.493
31.482
31.472
31.461
31.447
31.431
31.41
31.387
31.359
31.329
31.296
31.26
31.222
31.183
31.142
31.101
31.061
31.021
30.984
30.949
30.919
30.892
30.87
30.851
30.838
30.83
30.828
30.833
30.847
30.874
30.915
30.974
31.055
31.161
31.296
31.464
31.666
31.904
32.18
32.495
32.847
33.236
33.657
34.108
34.582
35.075
35.581
36.094
36.605
37.11
37.602
38.074
38.521
38.938
39.323
39.671
39.983
40.255
40.49
40.687
40.848
40.974
41.07
41.136
41.177
41.194
41.189
41.166
41.126
41.071
41.002
40.922
40.831
40.732
40.626
40.514
40.397
40.278
40.157
40.037
39.918
39.801
39.687
39.575
39.465
39.357
39.248
39.138
39.025
38.91
38.79
38.666
38.538
38.405
38.268
38.127
37.982
37.835
37.686
37.536
37.388
37.241
37.097
36.957
36.821
36.688
36.561
36.437
36.317
36.201
36.089
35.983
35.883
35.79
35.705
35.628
35.559
35.497
35.443
35.397
35.357
35.324
35.297
35.275
35.255
35.237
35.22
35.202
35.182
35.159
35.133
35.102
35.066
35.025
34.979
34.928
34.875
34.818
34.759
34.699
34.638
34.576
34.514
34.453
34.392
34.332
34.273
34.214
34.154
34.093
34.03
33.964
33.894
33.821
33.744
33.663
33.577
33.488
33.395
33.299
33.202
33.105
33.01
32.917
32.829
32.746
32.669
32.599
32.536
32.48
32.431
32.386
32.346
32.309
32.274
32.24
32.206
32.17
32.131
32.09
32.046
32.0
31.952
31.902
31.85
31.795
31.739
31.682
31.625
31.567
31.51
31.454
31.4
31.348
31.298
31.252
31.21
31.17
31.134
31.1
31.068
31.038
31.009
30.98
30.95
30.919
30.887
30.852
30.815
30.777
30.738
30.701
30.665
30.632
30.602
30.575
30.554
30.536
30.524
30.514
30.508
30.503
30.501
30.499
30.497
30.493
30.486
30.475
30.461
30.442
30.419
30.391
30.36
30.326
30.288
30.249
30.208
30.167
30.127
30.09
30.058
30.031
30.012
30.003
30.007
30.025
30.062
30.119
30.2
30.308
30.444
30.61
30.81
31.043
31.311
31.613
31.95
32.32
32.722
33.153
33.61
34.089
34.584
35.092
35.604
36.115
36.619
37.108
37.575
38.017
38.427
38.803
39.141
39.441
39.702
39.924
40.111
40.262
40.382
40.471
40.533
40.57
40.585
40.579
40.555
40.515
40.462
40.398
40.324
40.241
40.151
40.055
39.955
39.852
39.747
39.64
39.533
39.426
39.319
39.212
39.107
39.004
38.903
38.803
38.705
38.606
38.507
38.409
38.309
38.208
38.105
37.999
37.889
37.776
37.657
37.535
37.408
37.278
37.145
37.012
36.879
36.747
36.619
36.494
36.372
36.256
36.146
36.041
35.943
35.853
35.771
35.697
35.626
35.556
35.482
35.401
35.315
35.229
35.145
35.067
34.998
34.94
34.894
34.859
34.834
34.818
34.809
34.804
34.802
34.798
34.793
34.785
34.772
34.753
34.73
34.701
34.665
34.624
34.578
34.525
34.468
34.406
34.34
34.27
34.197
34.122
34.045
33.967
33.886
33.805
33.722
33.64
33.559
33.48
33.403
33.327
33.253
33.18
33.109
33.04
32.974
32.909
32.847
32.785
32.725
32.666
32.61
32.554
32.5
32.448
32.398
32.349
32.302
32.255
32.208
32.161
32.111
32.06
32.006
31.95
31.89
31.826
31.76
31.691
31.62
31.55
31.48
31.412
31.346
31.284
31.226
31.174
31.127
31.086
31.049
31.015
30.985
30.956
30.928
30.9
30.871
30.841
30.809
30.775
30.741
30.706
30.672
30.64
30.61
30.584
30.562
30.544
30.531
30.521
30.515
30.511
30.509
30.506
30.502
30.496
30.487
30.475
30.459
30.44
30.418
30.393
30.366
30.337
30.306
30.273
30.238
30.202
30.166
30.129
30.093
30.058
30.024
29.993
29.965
29.94
29.919
29.903
29.893
29.887
29.889
29.898
29.918
29.951
29.999
30.066
30.154
30.269
30.414
30.592
30.805
31.057
31.346
31.673
32.037
32.435
32.865
33.321
33.797
34.288
34.788
35.289
35.785
36.271
36.741
37.19
37.613
38.008
38.372
38.703
39.001
39.267
39.5
39.702
39.872
40.012
40.124
40.209
40.27
40.309
40.328
40.328
40.311
40.279
40.232
40.172
40.101
40.02
39.93
39.833
39.73
39.622
39.512
39.4
39.288
39.178
39.071
38.966
38.866
38.769
38.675
38.583
38.492
38.402
38.31
38.215
38.117
38.014
37.907
37.794
37.677
37.555
37.43
37.304
37.177
37.052
36.928
36.808
36.69
36.577
36.467
36.361
36.258
36.159
36.064
35.971
35.88
35.792
35.707
35.626
35.549
35.477
35.411
35.35
35.295
35.246
35.205
35.17
35.143
35.122
35.106
35.094
35.084
35.075
35.066
35.054
35.038
35.017
34.988
34.953
34.91
34.861
34.805
34.744
34.679
34.61
34.54
34.469
34.399
34.332
34.266
34.203
34.144
34.087
34.032
33.981
33.931
33.882
33.833
33.784
33.732
33.679
33.624
33.566
33.504
33.439
33.371
33.301
33.23
33.158
33.087
33.016
32.946
32.877
32.809
32.742
32.676
32.61
32.545
32.48
32.416
32.352
32.288
32.225
32.164
32.104
32.047
31.992
31.939
31.89
31.844
31.801
31.76
31.723
31.687
31.653
31.619
31.584
31.549
31.512
31.475
31.435
31.395
31.354
31.311
31.269
31.226
31.183
31.139
31.097
31.056
31.018
30.983
30.952
30.926
30.905
30.89
30.881
30.877
30.878
30.883
30.89
30.898
30.906
30.912
30.916
30.915
30.909
30.897
30.879
30.854
30.824
30.788
30.749
30.707
30.663
30.62
30.578
30.538
30.501
30.467
30.437
30.411
30.391
30.376
30.37
30.373
30.388
30.419
30.467
30.535
30.628
30.747
30.895
31.075
31.287
31.534
31.814
32.128
32.473
32.846
33.244
33.661
34.095
34.539
34.988
35.438
35.883
36.317
36.737
37.139
37.518
37.873
38.201
38.5
38.769
39.007
39.216
39.395
39.546
39.67
39.768
39.842
39.896
39.929
39.945
39.943
39.926
39.894
39.849
39.792
39.724
39.647
39.561
39.468
39.369
39.264
39.155
39.042
38.927
38.81
38.692
38.576
38.461
38.349
38.239
38.133
38.029
37.927
37.825
37.722
37.615
37.503
37.385
37.262
37.134
37.001
36.864
36.724
36.583
36.443
36.306
36.174
36.05
35.934
35.828
35.733
35.647
35.573
35.508
35.452
35.404
35.362
35.326
35.295
35.267
35.243
35.222
35.202
35.184
35.168
35.154
35.141
35.129
35.119
35.11
35.102
35.095
35.087
35.079
35.071
35.063
35.054
35.043
35.029
35.011
34.988
34.959
34.925
34.884
34.837
34.784
34.726
34.664
34.6
34.534
34.468
34.403
34.339
34.276
34.214
34.152
34.09
34.028
33.964
33.898
33.824
33.742
33.655
33.569
33.487
33.41
33.339
33.272
33.21
33.151
33.094
33.039
32.984
32.929
32.874
32.818
32.762
32.705
32.647
32.589
32.529
32.468
32.406
32.344
32.282
32.221
32.161
32.103
32.048
31.997
31.95
31.909
31.873
31.843
31.817
31.796
31.779
31.766
31.753
31.741
31.728
31.713
31.695
31.675
31.651
31.623
31.592
31.558
31.52
31.478
31.435
31.391
31.346
31.303
31.26
31.221
31.184
31.151
31.122
31.098
31.077
31.059
31.043
31.028
31.014
31.001
30.987
30.973
30.96
30.946
30.934
30.926
30.922
30.926
30.942
30.973
31.022
31.094
31.193
31.321
31.482
31.676
31.905
32.168
32.465
32.792
33.149
33.532
33.937
34.36
34.797
35.241
35.689
36.135
36.575
37.004
37.419
37.817
38.193
38.546
38.873
39.174
39.446
39.691
39.907
40.094
40.253
40.384
40.488
40.566
40.619
40.65
40.659
40.649
40.621
40.578
40.521
40.453
40.377
40.293
40.206
40.115
40.024
39.931
39.838
39.744
39.649
39.552
39.451
39.347
39.238
39.126
39.011
38.892
38.773
38.653
38.533
38.413
38.293
38.175
38.057
37.94
37.825
37.712
37.599
37.486
37.372
37.258
37.144
37.03
36.918
36.806
36.698
36.593
36.493
36.399
36.31
36.229
36.156
36.091
36.034
35.986
35.946
35.911
35.882
35.855
35.831
35.808
35.784
35.758
35.731
35.7
35.666
35.629
35.59
35.548
35.506
35.464
35.423
35.385
35.35
35.318
35.29
35.264
35.239
35.214
35.188
35.16
35.128
35.091
35.049
35.0
34.946
34.886
34.82
34.75
34.676
34.601
34.524
34.448
34.373
34.301
34.233
34.168
34.107
34.05
33.996
33.945
33.895
33.845
33.793
33.737
33.679
33.615
33.547
33.473
33.396
33.316
33.233
33.15
33.068
32.988
32.911
32.838
32.77
32.709
32.653
32.603
32.558
32.517
32.479
32.442
32.407
32.373
32.339
32.305
32.27
32.234
32.197
32.159
32.12
32.08
32.04
31.999
31.96
31.921
31.884
31.849
31.815
31.783
31.752
31.722
31.693
31.665
31.637
31.61
31.584
31.558
31.534
31.51
31.488
31.467
31.446
31.426
31.407
31.388
31.37
31.353
31.337
31.322
31.307
31.294
31.283
31.271
31.26
31.249
31.238
31.225
31.212
31.196
31.179
31.16
31.139
31.117
31.096
31.077
31.064
31.059
31.068
31.093
31.141
31.215
31.322
31.464
31.645
31.867
32.13
32.435
32.779
33.161
33.576
34.021
34.49
34.976
35.473
35.973
36.471
36.962
37.439
37.9
38.339
38.755
39.144
39.505
39.837
40.138
40.409
40.65
40.86
41.04
41.189
41.309
41.4
41.464
41.502
41.517
41.512
41.489
41.451
41.401
41.34
41.272
41.197
41.116
41.031
40.944
40.854
40.762
40.669
40.575
40.479
40.384
40.287
40.191
40.095
40.0
39.904
39.807
39.709
39.609
39.506
39.401
39.294
39.184
39.073
38.959
38.844
38.727
38.609
38.492
38.374
38.257
38.141
38.026
37.912
37.798
37.686
37.574
37.465
37.359
37.258
37.162
37.073
36.992
36.918
36.853
36.796
36.748
36.707
36.673
36.644
36.619
36.595
36.573
36.551
36.528
36.504
36.479
36.452
36.424
36.394
36.363
36.331
36.297
36.263
36.227
36.191
36.153
36.112
36.069
36.024
35.977
35.933
35.891
35.852
35.813
35.772
35.728
35.679
35.624
35.562
35.492
35.414
35.328
35.233
35.131
35.025
34.917
34.81
34.706
34.607
34.515
34.43
34.352
34.28
34.215
34.154
34.096
34.04
33.986
33.933
33.88
33.828
33.776
33.724
33.67
33.616
33.561
33.505
33.446
33.386
33.324
33.261
33.197
33.132
33.067
33.002
32.938
32.875
32.815
32.759
32.706
32.657
32.613
32.573
32.537
32.505
32.476
32.447
32.419
32.391
32.362
32.332
32.301
32.268
32.233
32.198
32.161
32.123
32.085
32.048
32.012
31.978
31.944
31.913
31.883
31.856
31.831
31.808
31.788
31.771
31.757
31.746
31.738
31.731
31.726
31.721
31.716
31.709
31.699
31.687
31.67
31.648
31.622
31.591
31.557
31.519
31.48
31.439
31.399
31.362
31.328
31.3
31.279
31.268
31.269
31.284
31.315
31.365
31.439
31.537
31.662
31.817
32.002
32.221
32.474
32.762
33.084
33.44
33.83
34.25
34.697
35.167
35.654
36.154
36.66
37.165
37.664
38.15
38.619
39.066
39.485
39.874
40.232
40.555
40.845
41.099
41.32
41.508
41.664
41.79
41.888
41.96
42.008
42.035
42.043
42.034
42.009
41.971
41.92
41.858
41.786
41.704
41.614
41.518
41.416
41.311
41.203
41.093
40.985
40.878
40.774
40.675
40.579
40.487
40.396
40.307
40.217
40.124
40.028
39.928
39.822
39.712
39.595
39.474
39.35
39.222
39.093
38.963
38.833
38.703
38.575
38.448
38.323
38.201
38.082
37.966
37.854
37.746
37.643
37.545
37.453
37.367
37.289
37.217
37.152
37.094
37.043
36.997
36.957
36.922
36.891
36.864
36.84
36.819
36.798
36.779
36.759
36.738
36.716
36.692
36.666
36.638
36.607
36.574
36.538
36.499
36.457
36.412
36.363
36.311
36.255
36.194
36.131
36.063
35.991
35.917
35.84
35.762
35.683
35.605
35.528
35.454
35.382
35.313
35.247
35.183
35.121
35.058
34.995
34.931
34.867
34.802
34.736
34.669
34.601
34.532
34.463
34.393
34.322
34.25
34.177
34.104
34.032
33.962
33.894
33.828
33.764
33.704
33.647
33.593
33.541
33.49
33.44
33.389
33.338
33.287
33.235
33.183
33.13
33.076
33.021
32.965
32.907
32.847
32.786
32.725
32.662
32.601
32.541
32.484
32.432
32.385
32.343
32.308
32.28
32.259
32.244
32.235
32.229
32.226
32.224
32.222
32.219
32.213
32.203
32.189
32.171
32.148
32.121
32.091
32.058
32.022
31.985
31.947
31.909
31.871
31.833
31.795
31.758
31.722
31.687
31.653
31.621
31.591
31.563
31.537
31.514
31.492
31.473
31.455
31.44
31.427
31.418
31.413
31.415
31.427
31.453
31.496
31.56
31.651
31.771
31.923
32.111
32.335
32.595
32.891
33.221
33.584
33.976
34.395
34.837
35.297
35.769
36.249
36.731
37.21
37.683
38.145
38.592
39.021
39.426
39.807
40.159
40.48
40.771
41.029
41.256
41.45
41.612
41.743
41.844
41.916
41.961
41.981
41.98
41.96
41.923
41.872
41.81
41.737
41.657
41.57
41.478
41.381
41.28
41.175
41.067
40.956
40.843
40.73
40.617
40.506
40.397
40.288
40.18
40.073
39.965
39.857
39.75
39.641
39.532
39.42
39.306
39.189
39.07
38.947
38.82
38.689
38.554
38.416
38.276
38.137
38.0
37.869
37.746
37.633
37.531
37.441
37.362
37.294
37.235
37.183
37.139
37.1
37.065
37.032
37.001
36.972
36.942
36.91
36.877
36.844
36.811
36.778
36.741
36.698
36.652
36.612
36.578
36.553
36.537
36.527
36.521
36.516
36.51
36.501
36.485
36.462
36.429
36.388
36.337
36.278
36.212
36.142
36.069
35.994
35.919
35.844
35.771
35.701
35.634
35.57
35.507
35.447
35.387
35.328
35.268
35.208
35.145
35.08
35.012
34.941
34.866
34.79
34.712
34.634
34.557
34.482
34.41
34.34
34.273
34.21
34.15
34.095
34.042
33.99
33.94
33.887
33.832
33.773
33.709
33.641
33.569
33.494
33.418
33.343
33.271
33.202
33.138
33.081
33.031
32.988
32.953
32.925
32.903
32.886
32.872
32.861
32.851
32.841
32.829
32.813
32.793
32.768
32.739
32.705
32.666
32.623
32.576
32.527
32.476
32.426
32.376
32.328
32.282
32.238
32.198
32.161
32.126
32.094
32.065
32.038
32.012
31.986
31.962
31.941
31.924
31.912
31.908
31.914
31.935
31.974
32.035
32.121
32.237
32.385
32.566
32.784
33.037
33.326
33.648
34.001
34.382
34.787
35.211
35.651
36.101
36.558
37.015
37.469
37.915
38.349
38.769
39.171
39.553
39.911
40.244
40.55
40.827
41.074
41.29
41.476
41.631
41.757
41.855
41.928
41.977
42.003
42.008
41.994
41.963
41.916
41.856
41.785
41.707
41.623
41.535
41.443
41.348
41.249
41.146
41.04
40.93
40.817
40.701
40.583
40.464
40.345
40.226
40.108
39.99
39.872
39.755
39.637
39.519
39.398
39.276
39.15
39.021
38.889
38.753
38.614
38.475
38.335
38.197
38.063
37.934
37.812
37.697
37.592
37.496
37.41
37.333
37.263
37.201
37.144
37.091
37.042
36.997
36.956
36.919
36.884
36.852
36.821
36.791
36.763
36.736
36.71
36.686
36.663
36.638
36.613
36.588
36.562
36.534
36.506
36.476
36.444
36.409
36.371
36.331
36.288
36.243
36.195
36.145
36.093
36.04
35.984
35.927
35.868
35.808
35.745
35.68
35.614
35.545
35.474
35.402
35.328
35.253
35.175
35.097
35.017
34.936
34.854
34.771
34.688
34.606
34.523
34.441
34.36
34.282
34.206
34.132
34.061
33.993
33.926
33.861
33.798
33.737
33.678
33.619
33.561
33.502
33.443
33.384
33.323
33.263
33.203
33.143
33.084
33.027
32.972
32.92
32.873
32.83
32.793
32.76
32.733
32.71
32.69
32.671
32.653
32.634
32.612
32.589
32.562
32.531
32.495
32.456
32.413
32.367
32.319
32.271
32.223
32.177
32.134
32.097
32.064
32.037
32.014
31.995
31.981
31.969
31.96
31.951
31.943
31.934
31.925
31.913
31.899
31.883
31.864
31.842
31.816
31.786
31.755
31.722
31.691
31.663
31.642
31.631
31.633
31.654
31.698
31.769
31.87
32.006
32.177
32.387
32.636
32.924
33.25
33.612
34.008
34.435
34.889
35.364
35.857
36.363
36.875
37.388
37.895
38.392
38.871
39.33
39.763
40.169
40.544
40.889
41.2
41.479
41.723
41.934
42.11
42.254
42.366
42.45
42.508
42.544
42.561
42.562
42.549
42.524
42.49
42.445
42.391
42.328
42.256
42.177
42.09
41.997
41.899
41.796
41.691
41.584
41.475
41.364
41.253
41.143
41.032
40.922
40.813
40.706
40.6
40.494
40.387
40.279
40.17
40.058
39.942
39.823
39.698
39.568
39.433
39.293
39.149
39.004
38.859
38.718
38.582
38.451
38.328
38.213
38.106
38.006
37.913
37.827
37.747
37.671
37.6
37.532
37.469
37.409
37.352
37.298
37.248
37.201
37.157
37.117
37.079
37.045
37.013
36.983
36.955
36.929
36.904
36.878
36.85
36.819
36.784
36.745
36.7
36.651
36.597
36.539
36.477
36.413
36.346
36.278
36.21
36.144
36.08
36.018
35.957
35.898
35.839
35.779
35.718
35.653
35.584
35.51
35.43
35.345
35.256
35.165
35.072
34.98
34.889
34.799
34.713
34.632
34.555
34.483
34.415
34.352
34.292
34.235
34.178
34.122
34.064
34.005
33.943
33.879
33.814
33.747
33.678
33.609
33.539
33.471
33.403
33.335
33.265
33.192
33.122
33.061
33.009
32.967
32.934
32.91
32.891
32.875
32.86
32.844
32.823
32.796
32.76
32.715
32.664
32.609
32.552
32.494
32.437
32.384
32.334
32.289
32.247
32.211
32.178
32.149
32.124
32.101
32.079
32.058
32.039
32.02
32.002
31.983
31.965
31.946
31.925
31.902
31.878
31.852
31.824
31.795
31.766
31.738
31.712
31.688
31.668
31.653
31.643
31.642
31.65
31.671
31.708
31.764
31.843
31.95
32.087
32.257
32.464
32.71
32.997
33.325
33.692
34.097
34.537
35.008
35.504
36.019
36.548
37.083
37.617
38.143
38.655
39.146
39.613
40.051
40.456
40.826
41.16
41.458
41.719
41.944
42.135
42.293
42.421
42.52
42.593
42.642
42.668
42.674
42.661
42.63
42.583
42.524
42.453
42.372
42.284
42.189
42.088
41.983
41.876
41.769
41.661
41.555
41.452
41.352
41.255
41.159
41.063
40.967
40.869
40.768
40.662
40.551
40.433
40.31
40.183
40.05
39.913
39.773
39.629
39.483
39.336
39.188
39.041
38.895
38.75
38.608
38.468
38.331
38.197
38.07
37.948
37.834
37.729
37.632
37.544
37.467
37.4
37.343
37.293
37.252
37.217
37.186
37.159
37.134
37.11
37.086
37.061
37.034
37.004
36.972
36.936
36.896
36.855
36.811
36.765
36.719
36.671
36.623
36.574
36.524
36.473
36.422
36.369
36.316
36.261
36.205
36.146
36.085
36.022
35.956
35.888
35.818
35.746
35.674
35.602
35.53
35.458
35.387
35.315
35.244
35.173
35.101
35.029
34.954
34.878
34.8
34.718
34.633
34.545
34.455
34.364
34.273
34.183
34.093
34.004
33.919
33.837
33.76
33.686
33.618
33.554
33.495
33.441
33.391
33.345
33.302
33.261
33.22
33.18
33.139
33.096
33.051
33.003
32.952
32.898
32.843
32.787
32.732
32.677
32.625
32.576
32.53
32.489
32.451
32.418
