Trial 1:0back
35.64
35.623
35.61
35.602
35.596
35.595
35.597
35.602
35.611
35.622
35.635
35.649
35.665
35.681
35.698
35.717
35.736
35.757
35.777
35.797
35.815
35.831
35.845
35.857
35.866
35.874
35.88
35.883
35.885
35.884
35.88
35.874
35.866
35.856
35.846
35.835
35.823
35.81
35.796
35.78
35.764
35.747
35.73
35.713
35.696
35.679
35.661
35.642
35.622
35.602
35.581
35.559
35.537
35.513
35.487
35.458
35.426
35.394
35.36
35.327
35.296
35.266
35.238
35.212
35.189
35.167
35.148
35.13
35.115
35.101
35.087
35.075
35.062
35.049
35.035
35.022
35.008
34.994
34.98
34.965
34.95
34.935
34.92
34.906
34.893
34.881
34.87
34.859
34.849
34.838
34.828
34.817
34.806
34.795
34.784
34.774
34.764
34.756
34.749
34.743
34.738
34.733
34.728
34.722
34.717
34.712
34.709
34.707
34.706
34.706
34.707
34.708
34.708
34.709
34.709
34.709
34.71
34.711
34.713
34.716
34.722
34.733
34.748
34.771
34.803
34.843
34.892
34.951
35.019
35.096
35.182
35.277
35.379
35.486
35.598
35.71
35.823
35.934
36.043
36.147
36.247
36.34
36.426
36.503
36.571
36.629
36.676
36.715
36.746
36.769
36.786
36.796
36.801
36.8
36.793
36.782
36.766
36.746
36.724
36.7
36.674
36.644
36.613
36.578
36.541
36.502
36.463
36.423
36.384
36.346
36.308
36.27
36.231
36.193
36.153
36.112
36.071
36.028
35.984
35.939
35.894
35.847
35.801
35.755
35.71
35.668
35.628
35.592
35.56
35.533
35.509
35.49
35.476
35.465
35.458
35.455
35.454
35.457
35.462
35.47
35.48
35.492
35.507
35.523
35.541
35.56
35.58
35.6
35.621
35.643
35.664
35.684
35.703
35.719
35.734
35.747
35.758
35.767
35.774
35.779
35.782
35.783
35.783
35.781
35.779
35.776
35.77
35.762
35.751
35.736
35.718
35.697
35.675
35.651
35.627
35.602
35.577
35.551
35.524
35.497
35.472
35.447
35.424
35.403
35.382
35.363
35.343
35.323
35.304
35.285
35.267
35.248
35.229
35.208
35.186
35.163
35.138
35.112
35.086
35.06
35.035
35.009
34.983
34.958
34.934
34.91
34.888
34.868
34.849
34.831
34.815
34.8
34.786
34.774
34.763
34.754
34.747
34.74
34.734
34.727
34.72
34.713
34.705
34.698
34.691
34.684
34.677
34.67
34.663
34.657
34.651
34.647
34.643
34.639
34.635
34.63
34.625
34.62
34.616
34.611
34.608
34.607
34.607
34.611
34.62
34.635
34.657
34.688
34.729
34.779
34.84
34.91
34.991
35.08
35.178
35.282
35.392
35.506
35.624
35.743
35.863
35.983
36.101
36.215
36.323
36.424
36.516
36.598
36.669
36.731
36.782
36.823
36.855
36.878
36.893
36.9
36.9
36.892
36.879
36.861
36.839
36.813
36.786
36.755
36.722
36.687
36.649
36.61
36.57
36.53
36.491
36.452
36.414
36.376
36.339
36.303
36.267
36.232
36.197
36.162
36.127
36.09
36.05
36.009
35.965
35.92
35.875
35.83
35.785
35.743
35.701
35.662
35.626
35.594
35.566
35.543
35.526
35.513
35.505
35.501
35.5
35.502
35.506
35.512
35.521
35.532
35.545
35.56
35.576
35.593
35.61
35.628
35.646
35.664
35.68
35.696
35.71
35.724
35.737
35.75
35.763
35.773
35.783
35.79
35.796
35.801
35.804
35.806
35.806
35.804
35.799
35.79
35.779
35.764
35.748
35.729
35.709
35.688
35.665
35.641
35.615
35.589
35.562
35.536
35.511
35.486
35.461
35.435
35.41
35.385
35.36
35.336
35.312
35.288
35.264
35.239
35.213
35.188
35.163
35.14
35.117
35.096
35.076
35.056
35.036
35.015
34.995
34.974
34.954
34.935
34.917
34.9
34.884
34.87
34.857
34.845
34.834
34.824
34.814
34.803
34.792
34.779
34.765
34.751
34.738
34.725
34.712
34.7
34.687
34.675
34.664
34.654
34.647
34.641
34.638
34.636
34.635
34.635
34.635
34.637
34.639
34.644
34.651
34.661
34.675
34.694
34.718
34.749
34.787
34.835
34.892
34.959
35.034
35.118
35.21
35.31
35.418
35.532
35.652
35.775
35.899
36.022
36.141
36.254
36.361
36.461
36.554
36.639
36.717
36.786
36.846
36.896
36.937
36.967
36.988
37.001
37.006
37.005
36.999
36.988
36.973
36.954
36.931
36.905
36.877
36.848
36.818
36.786
36.753
36.719
36.683
36.645
36.606
36.567
36.526
36.485
36.443
36.4
36.356
36.312
36.267
36.221
36.174
36.127
36.08
36.033
35.988
35.944
35.901
35.86
35.821
35.784
35.749
35.717
35.688
35.663
35.643
35.628
35.616
35.609
35.604
35.603
35.604
35.609
35.616
35.627
35.64
35.656
35.674
35.694
35.717
35.742
35.769
35.797
35.826
35.854
35.881
35.906
35.929
35.95
35.967
35.981
35.99
35.996
35.997
35.994
35.987
35.977
35.965
35.951
35.935
35.918
35.899
35.879
35.858
35.836
35.814
35.793
35.773
35.754
35.736
35.72
35.703
35.687
35.671
35.653
35.633
35.612
35.589
35.565
35.54
35.514
35.487
35.46
35.434
35.408
35.383
35.36
35.337
35.314
35.292
35.269
35.247
35.224
35.202
35.18
35.157
35.133
35.107
35.08
35.052
35.025
34.997
34.971
34.945
34.919
34.895
34.872
34.85
34.829
34.811
34.794
34.779
34.765
34.751
34.738
34.725
34.712
34.7
34.688
34.676
34.665
34.653
34.641
34.63
34.621
34.614
34.608
34.604
34.6
34.596
34.592
34.586
34.581
34.576
34.572
34.568
34.564
34.561
34.557
34.553
34.55
34.547
34.546
34.547
34.55
34.556
34.564
34.576
34.591
34.612
34.637
34.669
34.707
34.752
34.804
34.865
34.935
35.015
35.105
35.204
35.313
35.428
35.55
35.674
35.801
35.928
36.054
36.177
36.295
36.406
36.51
36.603
36.687
36.76
36.822
36.873
36.914
36.946
36.969
36.985
36.993
36.994
36.989
36.978
36.96
36.938
36.91
36.877
36.841
36.802
36.76
36.717
36.672
36.627
36.581
36.537
36.493
36.45
36.408
36.368
36.328
36.289
36.25
36.209
36.169
36.127
36.085
36.042
36.0
35.957
35.916
35.876
35.838
35.801
35.765
35.732
35.701
35.673
35.648
35.627
35.608
35.592
35.579
35.569
35.563
35.561
35.563
35.569
35.58
35.593
35.607
35.623
35.638
35.653
35.668
35.683
35.698
35.713
35.727
35.742
35.756
35.77
35.785
35.799
35.813
35.825
35.836
35.844
35.849
35.85
35.847
35.841
35.832
35.821
35.807
35.79
35.771
35.751
35.729
35.708
35.687
35.666
35.646
35.625
35.604
35.582
35.559
35.536
35.513
35.491
35.468
35.445
35.422
35.397
35.372
35.346
35.32
35.294
35.268
35.243
35.217
35.19
35.164
35.138
35.113
35.089
35.065
35.042
35.02
34.997
34.976
34.955
34.934
34.915
34.897
34.88
34.863
34.846
34.829
34.81
34.792
34.775
34.758
34.743
34.729
34.716
34.703
34.691
34.68
34.67
34.661
34.654
34.649
34.644
34.64
34.637
34.634
34.632
34.629
34.627
34.623
34.619
34.613
34.607
34.601
34.596
34.591
34.588
34.587
34.585
34.584
34.583
34.582
34.582
34.584
34.589
34.599
34.614
34.634
34.66
34.694
34.735
34.784
34.843
34.91
34.986
35.071
35.163
35.263
35.368
35.477
35.589
35.702
35.814
35.923
36.027
36.126
36.218
36.303
36.381
36.452
36.515
36.571
36.619
36.658
36.688
36.711
36.725
36.732
36.732
36.726
36.714
36.697
36.676
36.65
36.621
36.591
36.558
36.526
36.492
36.459
36.425
36.391
36.356
36.32
36.284
36.248
36.212
36.176
36.139
36.1
36.06
36.018
35.973
35.927
35.88
35.832
35.784
35.735
35.686
35.638
35.59
35.544
35.5
35.459
35.422
35.389
35.36
35.337
35.319
35.308
35.302
35.301
35.305
35.311
35.322
35.335
35.351
35.369
35.389
35.41
35.432
35.455
35.477
35.5
35.523
35.547
35.57
35.594
35.617
35.638
35.656
35.671
35.683
35.692
35.698
35.701
35.702
35.701
35.696
35.688
35.678
35.666
35.653
35.639
35.624
35.609
35.593
35.575
35.555
35.534
35.512
35.488
35.463
35.437
35.41
35.38
35.349
35.318
35.287
35.256
35.227
35.199
35.171
35.144
35.118
35.092
35.068
35.045
35.025
35.007
34.989
34.972
34.955
34.937
34.92
34.904
34.888
34.873
34.858
34.842
34.826
34.808
34.79
34.771
34.751
34.732
34.713
34.693
34.673
34.654
34.634
34.616
34.6
34.585
34.573
34.561
34.551
34.543
34.535
34.528
34.523
34.52
34.519
34.519
34.52
34.523
34.528
34.535
34.545
34.56
34.58
34.606
34.639
34.68
34.729
34.788
34.856
34.933
35.018
35.112
35.211
35.317
35.428
35.543
35.662
35.782
35.904
36.026
36.144
36.259
36.368
36.47
36.563
36.648
36.722
36.787
36.842
36.886
36.919
36.942
36.956
36.96
36.958
36.95
36.937
36.92
36.899
36.874
36.843
36.809
36.772
36.732
36.69
36.647
36.602
36.557
36.51
36.463
36.415
36.368
36.322
36.277
36.234
36.193
36.153
36.113
36.073
36.032
35.989
35.944
35.897
35.848
35.799
35.75
35.701
35.654
35.609
35.566
35.526
35.489
35.455
35.425
35.4
35.379
35.364
35.354
35.349
35.348
35.35
35.357
35.366
35.38
35.396
35.416
35.437
35.459
35.482
35.504
35.526
35.546
35.565
35.583
35.599
35.613
35.624
35.633
35.64
35.646
35.65
35.654
35.658
35.661
35.663
35.663
35.663
35.66
35.656
35.649
35.641
35.63
35.617
35.6
35.581
35.559
35.536
35.512
35.489
35.467
35.445
35.423
35.401
35.378
35.355
35.331
35.309
35.286
35.263
35.241
35.216
35.191
35.164
35.137
35.111
35.085
35.06
35.036
35.013
34.991
34.97
34.95
34.932
34.916
34.902
34.888
34.874
34.861
34.847
34.833
34.819
34.806
34.794
34.782
34.77
34.757
34.742
34.726
34.71
34.693
34.677
34.662
34.647
34.633
34.62
34.606
34.594
34.582
34.572
34.564
34.558
34.553
34.551
34.55
34.552
34.555
34.562
34.572
34.584
34.6
34.621
34.647
34.679
34.719
34.768
34.826
34.895
34.974
35.063
35.162
35.272
35.389
35.515
35.646
35.78
35.917
36.053
36.188
36.318
36.442
36.559
36.668
36.766
36.855
36.933
37.0
37.056
37.101
37.137
37.163
37.18
37.189
37.189
37.182
37.168
37.149
37.125
37.098
37.067
37.033
36.998
36.96
36.921
36.881
36.841
36.8
36.759
36.718
36.675
36.631
36.587
36.542
36.497
36.452
36.408
36.364
36.319
36.273
36.226
36.178
36.129
36.079
36.031
35.984
35.938
35.894
35.852
35.811
35.772
35.737
35.706
35.679
35.657
35.639
35.626
35.617
35.613
35.613
35.617
35.627
35.639
35.655
35.672
35.689
35.708
35.726
35.745
35.765
35.784
35.802
35.82
35.836
35.851
35.864
35.875
35.884
35.892
35.899
35.904
35.908
35.91
35.909
35.906
35.9
35.891
35.881
35.868
35.854
35.837
35.819
35.799
35.778
35.755
35.731
35.706
35.682
35.658
35.633
35.609
35.585
35.56
35.536
35.512
35.489
35.466
35.444
35.422
35.399
35.377
35.355
35.333
35.312
35.29
35.268
35.243
35.218
35.19
35.161
35.132
35.103
35.074
35.047
35.022
34.999
34.978
34.959
34.943
34.928
34.915
34.903
34.892
34.881
34.87
34.858
34.844
34.828
34.811
34.793
34.775
34.759
34.744
34.731
34.72
34.709
34.7
34.691
34.683
34.677
34.671
34.666
34.661
34.657
34.651
34.646
34.64
34.636
34.632
34.63
34.629
34.631
34.635
34.643
34.655
34.673
34.698
34.732
34.773
34.823
34.88
34.947
35.022
35.108
35.204
35.31
35.426
35.548
35.676
35.807
35.939
36.071
36.201
36.328
36.449
36.564
36.67
36.767
36.854
36.929
36.995
37.05
37.097
37.133
37.161
37.18
37.19
37.192
37.186
37.174
37.156
37.133
37.107
37.076
37.042
37.005
36.966
36.924
36.881
36.837
36.794
36.751
36.708
36.667
36.626
36.585
36.543
36.5
36.457
36.414
36.369
36.324
36.278
36.231
36.183
36.135
36.088
36.042
35.999
35.958
35.92
35.884
35.85
35.818
35.787
35.759
35.734
35.712
35.694
35.68
35.671
35.666
35.665
35.668
35.676
35.687
35.701
35.718
35.736
35.754
35.773
35.792
35.81
35.829
35.847
35.863
35.879
35.893
35.905
35.915
35.924
35.931
35.935
35.936
35.934
35.929
35.922
35.913
35.903
35.892
35.879
35.865
35.851
35.835
35.819
35.802
35.785
35.768
35.75
35.731
35.711
35.689
35.665
35.64
35.614
35.587
35.558
35.528
35.496
35.463
35.429
35.395
35.362
35.328
35.296
35.264
35.234
35.204
35.176
35.149
35.123
35.099
35.076
35.055
35.034
35.013
34.992
34.971
34.95
34.929
34.91
34.89
34.871
34.851
34.83
34.809
34.788
34.767
34.746
34.727
34.71
34.693
34.678
34.664
34.653
34.644
34.636
34.63
34.623
34.616
34.609
34.602
34.596
34.589
34.583
34.575
34.567
34.557
34.547
34.536
34.525
34.515
34.505
34.497
34.489
34.483
34.479
34.477
34.478
34.482
34.49
34.502
34.519
34.54
34.567
34.6
34.641
34.691
34.751
34.822
34.903
34.994
35.093
35.201
35.315
35.435
35.56
35.688
35.818
35.946
36.07
36.189
36.3
36.404
36.497
36.581
36.654
36.716
36.768
36.81
36.842
36.865
36.879
36.885
36.884
36.874
36.858
36.836
36.808
36.777
36.742
36.705
36.666
36.626
36.586
36.545
36.505
36.467
36.429
36.391
36.353
36.314
36.273
36.23
36.184
36.137
36.089
36.04
35.992
35.943
35.894
35.844
35.796
35.748
35.702
35.659
35.619
35.582
35.548
35.517
35.489
35.462
35.438
35.418
35.401
35.39
35.383
35.38
35.382
35.389
35.399
35.413
35.43
35.45
35.472
35.494
35.515
35.536
35.556
35.574
35.591
35.607
35.622
35.636
35.648
35.659
35.669
35.678
35.685
35.69
35.694
35.696
35.695
35.691
35.684
35.674
35.661
35.646
35.63
35.612
35.594
35.574
35.553
35.531
35.51
35.488
35.465
35.442
35.418
35.393
35.367
35.339
35.31
35.279
35.247
35.215
35.182
35.149
35.116
35.085
35.055
35.026
34.998
34.973
34.949
34.928
34.909
34.891
34.875
34.86
34.844
34.828
34.812
34.794
34.777
34.759
34.741
34.724
34.706
34.69
34.673
34.658
34.644
34.631
34.62
34.609
34.6
34.591
34.582
34.571
34.56
34.548
34.536
34.522
34.507
34.492
34.477
34.463
34.45
34.439
34.429
34.423
34.418
34.416
34.414
34.413
34.412
34.412
34.413
34.415
34.419
34.425
34.433
34.444
34.459
34.479
34.505
34.539
34.582
34.633
34.694
34.763
34.84
34.926
35.019
35.119
35.223
35.331
35.441
35.549
35.657
35.761
35.862
35.958
36.048
36.131
36.206
36.272
36.328
36.375
36.413
36.443
36.465
36.479
36.485
36.484
36.476
36.461
36.442
36.418
36.392
36.364
36.334
36.302
36.267
36.23
36.191
36.15
36.108
36.067
36.026
35.986
35.945
35.904
35.862
35.819
35.775
35.731
35.686
35.64
35.594
35.547
35.499
35.45
35.402
35.354
35.309
35.266
35.225
35.188
35.154
35.124
35.099
35.08
35.067
35.059
35.058
35.061
35.067
35.077
35.09
35.104
35.121
35.14
35.16
35.182
35.203
35.225
35.245
35.265
35.285
35.303
35.321
35.338
35.354
35.369
35.382
35.393
35.401
35.407
35.409
35.409
35.407
35.403
35.397
35.389
35.379
35.369
35.357
35.344
35.331
35.317
35.304
35.291
35.277
35.264
35.249
35.235
35.219
35.203
35.185
35.167
35.147
35.126
35.104
35.08
35.055
35.029
35.002
34.975
34.948
34.92
34.893
34.867
34.84
34.814
34.789
34.765
34.742
34.719
34.697
34.675
34.652
34.629
34.606
34.584
34.563
34.545
34.529
34.516
34.504
34.493
34.483
34.473
34.464
34.456
34.448
34.44
34.432
34.424
34.415
34.407
34.399
34.393
34.387
34.382
34.378
34.374
34.37
34.367
34.364
34.362
34.359
34.355
34.349
34.342
34.332
34.322
34.31
34.298
34.287
34.276
34.265
34.256
34.249
34.244
34.241
34.241
34.242
34.244
34.247
34.25
34.254
34.26
34.267
34.276
34.289
34.307
34.33
34.361
34.4
34.45
34.51
34.581
34.662
34.754
34.855
34.964
35.081
35.202
35.326
35.45
35.573
35.692
35.806
35.915
36.016
36.109
36.194
36.269
36.334
36.389
36.435
36.471
36.499
36.52
36.534
36.541
36.541
36.535
36.521
36.502
36.477
36.45
36.42
36.389
36.358
36.327
36.296
36.263
36.231
36.198
36.167
36.135
36.105
36.076
36.046
36.015
35.982
35.948
35.913
35.876
35.84
35.803
35.766
35.73
35.693
35.656
35.621
35.586
35.552
35.519
35.487
35.456
35.426
35.396
35.369
35.344
35.322
35.305
35.292
35.284
35.279
35.279
35.283
35.29
35.299
35.312
35.327
35.344
35.363
35.381
35.399
35.416
35.432
35.448
35.465
35.481
35.499
35.516
35.532
35.547
35.562
35.575
35.586
35.595
35.601
35.604
35.603
35.598
35.59
35.578
35.564
35.546
35.526
35.505
35.482
35.459
35.437
35.415
35.394
35.374
35.354
35.335
35.315
35.295
35.275
35.253
35.231
35.207
35.182
35.155
35.126
35.097
35.067
35.038
35.011
34.984
34.959
34.935
34.912
34.89
34.87
34.852
34.835
34.818
34.801
34.785
34.768
34.752
34.738
34.724
34.711
34.699
34.687
34.674
34.661
34.647
34.633
34.619
34.605
34.59
34.575
34.56
34.544
34.529
34.514
34.502
34.491
34.483
34.475
34.469
34.464
34.46
34.457
34.455
34.453
34.452
34.451
34.449
34.446
34.443
34.439
34.434
34.429
34.424
34.418
34.411
34.404
34.397
34.39
34.383
34.377
34.371
34.366
34.363
34.361
34.363
34.369
34.38
34.396
34.418
34.446
34.48
34.521
34.569
34.626
34.691
34.766
34.85
34.941
35.038
35.141
35.247
35.356
35.466
35.576
35.684
35.789
35.89
35.983
36.069
36.147
36.215
36.275
36.325
36.366
36.4
36.424
36.44
36.448
36.449
36.443
36.432
36.416
36.398
36.377
36.353
36.329
36.302
36.276
36.25
36.225
36.201
36.176
36.151
36.125
36.096
36.065
36.032
35.998
35.963
35.927
35.89
35.853
35.814
35.775
35.736
35.697
35.66
35.624
35.59
35.558
35.526
35.495
35.465
35.434
35.405
35.376
35.349
35.325
35.303
35.285
35.27
35.26
35.255
35.255
35.258
35.266
35.277
35.291
35.308
35.327
35.348
35.37
35.391
35.412
35.43
35.447
35.462
35.476
35.489
35.502
35.516
35.529
35.541
35.552
35.562
35.57
35.575
35.578
35.577
35.573
35.565
35.553
35.538
35.52
35.501
35.479
35.457
35.434
35.41
35.385
35.361
35.337
35.314
35.292
35.271
35.251
35.231
35.211
35.191
35.171
35.151
35.131
35.111
35.09
35.069
35.048
35.026
35.004
34.981
34.959
34.936
34.914
34.892
34.87
34.848
34.825
34.802
34.78
34.758
34.737
34.717
34.697
34.678
34.661
34.645
34.631
34.62
34.61
34.601
34.593
34.586
34.579
34.571
34.564
34.557
34.55
34.544
34.538
34.533
34.526
34.519
34.51
34.5
34.49
34.481
34.473
34.465
34.458
34.452
34.446
34.441
34.436
34.433
34.43
34.426
34.422
34.416
34.409
34.401
34.393
34.386
34.38
34.374
34.368
34.361
34.354
34.348
34.341
34.335
34.328
34.322
34.314
34.307
34.3
34.293
34.287
34.283
34.28
34.277
34.275
34.273
34.272
34.27
34.268
34.267
34.267
34.266
34.266
34.268
34.271
34.277
34.287
34.304
34.329
34.363
34.406
34.459
34.523
34.598
34.684
34.779
34.884
34.995
35.111
35.231
35.351
35.47
35.586
35.698
35.804
35.902
35.991
36.071
36.141
36.2
36.25
36.29
36.321
36.344
36.359
36.367
36.367
36.361
36.35
36.334
36.315
36.292
36.267
36.239
36.211
36.181
36.15
36.12
36.09
36.06
36.032
36.004
35.976
35.949
35.922
35.894
35.865
35.835
35.805
35.774
35.742
35.71
35.677
35.644
35.611
35.577
35.543
35.509
35.474
35.439
35.403
35.369
35.338
35.309
35.284
35.263
35.244
35.229
35.217
35.208
35.204
35.204
35.209
35.218
35.23
35.245
35.261
35.279
35.298
35.318
35.338
35.358
35.378
35.396
35.413
35.428
35.441
35.452
35.462
35.471
35.479
35.484
35.488
35.489
35.489
35.486
35.482
35.477
35.47
35.462
35.453
35.441
35.428
35.413
35.397
35.379
35.361
35.342
35.321
35.3
35.278
35.255
35.232
35.209
35.186
35.163
35.14
35.116
35.093
35.069
35.044
35.02
34.996
34.974
34.952
34.931
34.912
34.895
34.878
34.864
34.85
34.836
34.823
34.808
34.793
34.777
34.76
34.743
34.725
34.706
34.687
34.668
34.65
34.632
34.616
34.601
34.587
34.575
34.566
34.558
34.552
34.546
34.54
34.534
34.528
34.52
34.512
34.503
34.495
34.488
34.481
34.474
34.468
34.463
34.457
34.452
34.447
34.442
34.438
34.434
34.431
34.426
34.42
34.413
34.405
34.397
34.388
34.38
34.372
34.363
34.355
34.347
34.338
34.33
