Trial 1:0back
43.165
43.229
43.265
43.276
43.265
43.232
43.18
43.11
43.025
42.926
42.814
42.692
42.559
42.419
42.272
42.121
41.967
41.812
41.657
41.503
41.351
41.201
41.053
40.908
40.765
40.624
40.486
40.349
40.214
40.079
39.944
39.808
39.669
39.529
39.386
39.24
39.092
38.944
38.795
38.648
38.504
38.365
38.233
38.11
37.996
37.894
37.804
37.727
37.664
37.614
37.576
37.552
37.539
37.538
37.548
37.568
37.596
37.632
37.674
37.72
37.769
37.819
37.87
37.919
37.966
38.01
38.05
38.085
38.113
38.135
38.149
38.156
38.155
38.147
38.132
38.11
38.081
38.045
38.001
37.951
37.893
37.829
37.759
37.683
37.602
37.515
37.424
37.33
37.232
37.132
37.031
36.928
36.826
36.723
36.62
36.517
36.414
36.31
36.206
36.101
35.994
35.887
35.779
35.671
35.561
35.45
35.339
35.227
35.116
35.005
34.895
34.787
34.683
34.581
34.483
34.389
34.298
34.211
34.127
34.046
33.967
33.889
33.814
33.741
33.67
33.602
33.536
33.472
33.411
33.353
33.297
33.244
33.194
33.147
33.103
33.064
33.028
32.996
32.967
32.941
32.918
32.896
32.876
32.856
32.837
32.818
32.799
32.78
32.761
32.743
32.724
32.705
32.686
32.666
32.645
32.622
32.599
32.576
32.551
32.527
32.503
32.48
32.458
32.438
32.419
32.402
32.386
32.372
32.359
32.346
32.334
32.321
32.308
32.294
32.278
32.263
32.248
32.231
32.214
32.196
32.177
32.155
32.133
32.108
32.082
32.054
32.024
31.992
31.959
31.924
31.887
31.849
31.809
31.768
31.725
31.681
31.635
31.588
31.54
31.491
31.442
31.392
31.341
31.29
31.239
31.187
31.135
31.083
31.033
30.983
30.936
30.891
30.85
30.814
30.785
30.765
30.759
30.77
30.802
30.862
30.953
31.081
31.25
31.465
31.726
32.035
32.391
32.791
33.233
33.711
34.218
34.749
35.296
35.853
36.411
36.964
37.506
38.03
38.533
39.01
39.457
39.872
40.253
40.598
40.909
41.185
41.427
41.635
41.81
41.953
42.065
42.149
42.205
42.236
42.244
42.23
42.196
42.145
42.078
41.996
41.901
41.795
41.677
41.551
41.416
41.273
41.125
40.972
40.815
40.657
40.499
40.34
40.181
40.022
39.864
39.706
39.547
39.389
39.229
39.068
38.907
38.744
38.579
38.413
38.247
38.08
37.915
37.754
37.597
37.446
37.303
37.17
37.047
36.934
36.834
36.746
36.671
36.609
36.562
36.529
36.51
36.504
36.512
36.531
36.561
36.6
36.646
36.7
36.758
36.821
36.885
36.95
37.015
37.078
37.139
37.196
37.248
37.296
37.337
37.372
37.398
37.416
37.425
37.423
37.412
37.392
37.362
37.324
37.277
37.223
37.162
37.094
37.02
36.941
36.857
36.77
36.679
36.586
36.49
36.393
36.294
36.195
36.094
35.992
35.889
35.785
35.68
35.574
35.467
35.36
35.252
35.145
35.037
34.93
34.825
34.72
34.617
34.516
34.418
34.322
34.229
34.138
34.049
33.963
33.878
33.795
33.713
33.633
33.554
33.476
33.401
33.327
33.255
33.186
33.119
33.056
32.996
32.938
32.884
32.832
32.784
32.739
32.697
32.658
32.622
32.59
32.56
32.531
32.504
32.478
32.453
32.428
32.404
32.38
32.356
32.333
32.309
32.285
32.26
32.235
32.208
32.18
32.152
32.123
32.093
32.064
32.035
32.007
31.981
31.956
31.933
31.911
31.89
31.87
31.851
31.831
31.812
31.791
31.77
31.748
31.726
31.704
31.683
31.662
31.641
31.621
31.601
31.58
31.56
31.538
31.516
31.493
31.469
31.445
31.42
31.395
31.371
31.348
31.325
31.303
31.282
31.261
31.239
31.217
31.193
31.168
31.142
31.113
31.082
31.049
31.013
30.974
30.934
30.892
30.848
30.803
30.757
30.711
30.664
30.617
30.571
30.527
30.484
30.445
30.409
30.378
30.354
30.339
30.338
30.353
30.391
30.457
30.556
30.693
30.874
31.103
31.381
31.711
32.092
32.522
32.996
33.511
34.058
34.631
35.223
35.826
36.431
37.031
37.621
38.193
38.742
39.264
39.756
40.214
40.637
41.024
41.373
41.685
41.96
42.197
42.399
42.567
42.702
42.807
42.881
42.928
42.95
42.949
42.927
42.886
42.828
42.753
42.665
42.565
42.454
42.334
42.208
42.077
41.942
41.806
41.67
41.534
41.4
41.267
41.137
41.009
40.883
40.758
40.635
40.512
40.39
40.268
40.146
40.022
39.897
39.77
39.64
39.506
39.368
39.227
39.083
38.937
38.791
38.646
38.503
38.364
38.232
38.108
37.994
37.891
37.8
37.72
37.654
37.6
37.558
37.529
37.51
37.501
37.502
37.511
37.528
37.551
37.58
37.615
37.654
37.696
37.74
37.784
37.828
37.87
37.91
37.945
37.976
38.0
38.018
38.029
38.031
38.024
38.009
37.984
37.951
37.909
37.86
37.802
37.737
37.666
37.588
37.504
37.414
37.321
37.224
37.124
37.022
36.919
36.814
36.707
36.6
36.492
36.383
36.274
36.166
36.057
35.95
35.842
35.735
35.627
35.519
35.41
35.302
35.193
35.085
34.978
34.872
34.769
34.667
34.569
34.473
34.381
34.292
34.205
34.123
34.043
33.966
33.892
33.821
33.751
33.684
33.618
33.555
33.494
33.435
33.379
33.325
33.274
33.226
33.181
33.139
33.099
33.062
33.026
32.991
32.957
32.923
32.889
32.855
32.82
32.786
32.751
32.716
32.681
32.647
32.614
32.581
32.548
32.515
32.482
32.45
32.418
32.387
32.357
32.329
32.301
32.276
32.252
32.229
32.207
32.186
32.166
32.145
32.124
32.102
32.079
32.055
32.03
32.003
31.976
31.948
31.919
31.889
31.859
31.829
31.798
31.767
31.737
31.707
31.678
31.648
31.619
31.59
31.56
31.53
31.499
31.469
31.438
31.408
31.379
31.35
31.323
31.296
31.271
31.247
31.223
31.2
31.176
31.152
31.129
31.105
31.081
31.056
31.03
31.003
30.975
30.946
30.914
30.881
30.846
30.808
30.767
30.724
30.679
30.631
30.582
30.533
30.483
30.433
30.385
30.339
30.296
30.256
30.22
30.191
30.17
30.16
30.163
30.185
30.23
30.305
30.415
30.566
30.763
31.01
31.308
31.659
32.059
32.506
32.995
33.518
34.071
34.644
35.231
35.824
36.417
37.003
37.575
38.129
38.658
39.161
39.633
40.072
40.475
40.841
41.169
41.46
41.714
41.932
42.117
42.269
42.39
42.482
42.546
42.584
42.598
42.589
42.559
42.51
42.443
42.362
42.266
42.159
42.042
41.917
41.786
41.65
41.51
41.368
41.225
41.081
40.939
40.799
40.661
40.525
40.392
40.26
40.131
40.003
39.877
39.75
39.623
39.495
39.366
39.235
39.103
38.968
38.832
38.694
38.557
38.421
38.287
38.155
38.028
37.906
37.791
37.684
37.585
37.497
37.419
37.354
37.301
37.261
37.232
37.216
37.209
37.213
37.225
37.245
37.272
37.306
37.344
37.386
37.431
37.479
37.527
37.576
37.624
37.67
37.713
37.752
37.786
37.814
37.836
37.85
37.855
37.85
37.836
37.813
37.78
37.738
37.688
37.63
37.565
37.495
37.42
37.34
37.257
37.17
37.081
36.99
36.897
36.802
36.705
36.606
36.506
36.404
36.301
36.198
36.094
35.99
35.884
35.778
35.671
35.562
35.452
35.341
35.229
35.116
35.003
34.89
34.778
34.669
34.563
34.459
34.36
34.264
34.171
34.083
33.999
33.919
33.842
33.771
33.703
33.639
33.579
33.522
33.468
33.416
33.366
33.318
33.271
33.225
33.18
33.136
33.092
33.049
33.006
32.963
32.92
32.879
32.838
32.798
32.761
32.725
32.691
32.661
32.633
32.607
32.584
32.562
32.542
32.522
32.502
32.481
32.459
32.436
32.412
32.386
32.359
32.331
32.303
32.275
32.246
32.218
32.189
32.16
32.131
32.102
32.073
32.046
32.019
31.993
31.968
31.944
31.921
31.898
31.876
31.854
31.832
31.81
31.787
31.765
31.742
31.719
31.697
31.674
31.652
31.631
31.609
31.588
31.566
31.545
31.523
31.502
31.481
31.46
31.441
31.423
31.405
31.388
31.372
31.354
31.336
31.315
31.293
31.268
31.241
31.211
31.18
31.147
31.111
31.074
31.035
30.994
30.951
30.907
30.864
30.82
30.778
30.738
30.7
30.664
30.631
30.601
30.575
30.556
30.543
30.54
30.55
30.577
30.626
30.702
30.81
30.956
31.143
31.375
31.655
31.982
32.355
32.771
33.225
33.712
34.224
34.756
35.299
35.847
36.392
36.929
37.451
37.952
38.43
38.881
39.303
39.694
40.052
40.378
40.67
40.929
41.156
41.351
41.515
41.649
41.756
41.835
41.89
41.92
41.927
41.914
41.88
41.829
41.762
41.679
41.583
41.475
41.357
41.23
41.095
40.954
40.807
40.655
40.5
40.341
40.181
40.02
39.858
39.697
39.537
39.377
39.218
39.058
38.899
38.739
38.58
38.419
38.259
38.098
37.937
37.776
37.616
37.459
37.304
37.154
37.01
36.875
36.75
36.636
36.536
36.449
36.377
36.32
36.278
36.251
36.238
36.239
36.253
36.277
36.313
36.357
36.41
36.469
36.535
36.606
36.68
36.757
36.834
36.91
36.984
37.053
37.117
37.174
37.223
37.263
37.295
37.316
37.329
37.331
37.325
37.31
37.287
37.256
37.218
37.174
37.123
37.067
37.004
36.936
36.864
36.787
36.706
36.622
36.537
36.449
36.359
36.267
36.174
36.078
35.98
35.88
35.777
35.674
35.568
35.462
35.356
35.25
35.144
35.04
34.936
34.834
34.734
34.635
34.538
34.443
34.35
34.258
34.168
34.079
33.991
33.904
33.82
33.736
33.655
33.576
33.5
33.426
33.356
33.288
33.223
33.159
33.098
33.039
32.981
32.926
32.872
32.821
32.772
32.725
32.68
32.639
32.599
32.561
32.525
32.49
32.457
32.424
32.392
32.361
32.331
32.302
32.275
32.248
32.223
32.198
32.175
32.153
32.13
32.109
32.088
32.067
32.048
32.029
32.011
31.994
31.976
31.959
31.942
31.925
31.907
31.888
31.868
31.848
31.827
31.806
31.784
31.763
31.74
31.717
31.694
31.669
31.643
31.617
31.59
31.563
31.537
31.511
31.486
31.462
31.439
31.418
31.397
31.378
31.359
31.341
31.321
31.302
31.282
31.261
31.24
31.218
31.196
31.174
31.151
31.127
31.102
31.076
31.049
31.02
30.99
30.959
30.926
30.893
30.858
30.823
30.788
30.752
30.716
30.679
30.641
30.603
30.564
30.524
30.483
30.442
30.401
30.361
30.321
30.284
30.25
30.22
30.197
30.182
30.178
30.19
30.221
30.279
30.368
30.495
30.665
30.883
31.152
31.474
31.849
32.275
32.748
33.263
33.814
34.393
34.994
35.607
36.224
36.838
37.442
38.027
38.59
39.126
39.632
40.104
40.541
40.943
41.309
41.638
41.931
42.189
42.413
42.604
42.764
42.895
42.997
43.073
43.125
43.153
43.16
43.145
43.111
43.058
42.987
42.901
42.801
42.688
42.566
42.434
42.295
42.151
42.003
41.852
41.699
41.545
41.392
41.239
41.088
40.938
40.791
40.645
40.502
40.36
40.221
40.083
39.945
39.807
39.669
39.529
39.389
39.247
39.105
38.962
38.819
38.676
38.536
38.399
38.267
38.142
38.025
37.917
37.819
37.733
37.658
37.596
37.546
37.51
37.485
37.473
37.473
37.483
37.504
37.533
37.57
37.614
37.662
37.715
37.769
37.823
37.876
37.926
37.973
38.017
38.055
38.088
38.115
38.136
38.148
38.153
38.149
38.136
38.115
38.085
38.047
38.0
37.946
37.884
37.816
37.741
37.662
37.578
37.49
37.399
37.306
37.211
37.113
37.013
36.911
36.808
36.702
36.596
36.487
36.378
36.268
36.157
36.045
35.933
35.82
35.707
35.594
35.48
35.368
35.256
35.146
35.037
34.931
34.827
34.725
34.625
34.527
34.432
34.34
34.25
34.164
34.081
34.001
33.925
33.852
33.783
33.718
33.655
33.596
33.539
33.484
33.432
33.382
33.333
33.286
33.24
33.195
33.151
33.108
33.065
33.023
32.981
32.941
32.902
32.864
32.828
32.794
32.762
32.732
32.703
32.675
32.649
32.622
32.596
32.569
32.541
32.513
32.483
32.452
32.42
32.388
32.355
32.322
32.29
32.258
32.227
32.198
32.171
32.147
32.124
32.103
32.084
32.066
32.048
32.03
32.011
31.991
31.969
31.946
31.922
31.897
31.87
31.843
31.814
31.785
31.755
31.723
31.691
31.658
31.625
31.591
31.557
31.523
31.49
31.457
31.425
31.394
31.363
31.333
31.303
31.273
31.243
31.213
31.183
31.154
31.125
31.096
31.068
31.039
31.011
30.983
30.955
30.927
30.899
30.87
30.841
30.811
30.78
30.749
30.717
30.685
30.652
30.62
30.587
30.555
30.523
30.491
30.458
30.425
30.392
30.359
30.325
30.291
30.259
30.227
30.196
30.167
30.14
30.116
30.096
30.082
30.077
30.084
30.108
30.156
30.234
30.348
30.505
30.71
30.968
31.282
31.652
32.078
32.555
33.08
33.645
34.243
34.866
35.506
36.152
36.798
37.435
38.056
38.655
39.226
39.766
40.271
40.739
41.169
41.56
41.912
42.225
42.501
42.74
42.943
43.112
43.247
43.352
43.426
43.471
43.489
43.481
43.449
43.395
43.322
43.23
43.124
43.004
42.874
42.733
42.585
42.43
42.27
42.107
41.942
41.775
41.608
41.441
41.275
41.111
40.95
40.791
40.636
40.483
40.333
40.185
40.04
39.896
39.752
39.609
39.467
39.323
39.18
39.035
38.89
38.744
38.598
38.453
38.31
38.172
38.039
37.913
37.797
37.692
37.599
37.519
37.454
37.403
37.368
37.348
37.341
37.346
37.363
37.391
37.427
37.471
37.521
37.576
37.635
37.696
37.757
37.818
37.876
37.931
37.983
38.029
38.069
38.103
38.129
38.147
38.156
38.157
38.149
38.134
38.111
38.082
38.045
38.002
37.953
37.898
37.836
37.769
37.697
37.62
37.538
37.452
37.362
37.268
37.172
37.072
36.97
36.866
36.759
36.649
36.538
36.424
36.309
36.191
36.073
35.954
35.834
35.716
35.598
35.483
35.369
35.256
35.146
35.038
34.933
34.83
34.729
34.632
34.536
34.444
34.353
34.264
34.177
34.092
34.007
33.924
33.843
33.764
33.688
33.615
33.545
33.479
33.416
33.357
33.302
33.25
33.202
33.157
33.115
33.076
33.04
33.005
32.973
32.942
32.912
32.883
32.854
32.827
32.8
32.775
32.751
32.729
32.708
32.688
32.67
32.651
32.632
32.613
32.592
32.569
32.545
32.519
32.493
32.466
32.439
32.413
32.387
32.363
32.34
32.318
32.297
32.277
32.257
32.237
32.218
32.198
32.179
32.16
32.14
32.12
32.1
32.08
32.06
32.039
32.018
31.997
31.975
31.953
31.931
31.908
31.883
31.858
31.832
31.804
31.775
31.745
31.714
31.684
31.653
31.622
31.593
31.564
31.536
31.509
31.483
31.457
31.431
31.405
31.379
31.353
31.326
31.3
31.274
31.247
31.219
31.191
31.162
31.13
31.097
31.06
31.022
30.98
30.936
30.89
30.842
30.794
30.746
30.698
30.652
30.607
30.566
30.527
30.491
30.459
30.43
30.404
30.38
30.361
30.346
30.337
30.336
30.346
30.371
30.416
30.486
30.588
30.726
30.908
31.137
31.418
31.751
32.137
32.573
33.055
33.577
34.134
34.717
35.318
35.93
36.545
37.154
37.751
38.329
38.884
39.41
39.904
40.366
40.792
41.182
41.536
41.852
42.132
42.375
42.582
42.754
42.893
42.998
43.073
43.118
43.138
43.132
43.103
43.053
42.983
42.896
42.792
42.673
42.542
42.398
42.245
42.083
41.915
41.74
41.562
41.38
41.197
41.014
40.831
40.65
40.471
40.295
40.122
39.951
39.783
39.616
39.45
39.284
39.119
38.952
38.785
38.618
38.45
38.283
38.118
37.957
37.801
37.652
37.513
37.384
37.268
37.165
37.077
37.004
36.948
36.907
36.883
36.873
36.878
36.897
36.929
36.972
37.026
37.089
37.159
37.235
37.315
37.398
37.481
37.563
37.642
37.718
37.788
37.852
37.909
37.959
38.0
38.034
38.059
38.076
38.084
38.085
38.078
38.063
38.04
38.008
37.969
37.921
37.867
37.806
37.74
37.668
37.592
37.511
37.426
37.336
37.242
37.145
37.043
36.937
36.828
36.716
36.602
36.485
36.368
36.248
36.128
36.007
35.887
35.768
35.65
35.534
35.42
35.308
35.198
35.092
34.987
34.885
34.786
34.69
34.597
34.508
34.422
34.339
34.26
34.183
34.108
34.037
33.969
33.903
33.84
33.78
33.723
33.668
33.615
33.565
33.515
33.468
33.422
33.378
33.335
33.293
33.252
33.211
33.172
33.133
33.094
33.056
33.02
32.984
32.951
32.919
32.889
32.86
32.834
32.809
32.785
32.761
32.737
32.714
32.69
32.666
32.641
32.615
32.59
32.564
32.538
32.514
32.491
32.469
32.448
32.428
32.408
32.39
32.372
32.355
32.338
32.322
32.308
32.294
32.282
32.269
32.257
32.245
32.231
32.216
32.199
32.18
32.159
32.135
32.109
32.081
32.051
32.02
31.987
31.953
31.918
31.883
31.849
31.815
31.782
31.75
31.72
31.691
31.663
31.635
31.607
31.58
31.552
31.523
31.493
31.461
31.426
31.388
31.347
31.302
31.255
31.205
31.153
31.1
31.047
30.994
30.943
30.894
30.848
30.806
30.768
30.735
30.708
30.689
30.679
30.683
30.703
30.745
30.814
30.915
31.055
31.238
31.469
31.751
32.084
32.469
32.901
33.378
33.894
34.443
35.018
35.612
36.218
36.829
37.437
38.036
38.62
39.184
39.722
40.232
40.71
41.154
41.562
41.934
42.269
42.567
42.828
43.053
43.242
43.396
43.517
43.607
43.666
43.697
43.701
43.681
43.638
43.575
43.494
43.396
43.285
43.161
43.028
42.888
42.741
42.591
42.437
42.281
42.125
41.969
41.814
41.661
41.509
41.36
41.212
41.068
40.926
40.785
40.647
40.509
40.371
40.232
40.092
39.951
39.807
39.662
39.516
39.368
39.22
39.072
38.926
38.783
38.644
38.512
38.387
38.271
38.165
38.071
37.99
37.921
37.866
37.824
37.795
37.778
37.774
37.781
37.797
37.823
37.855
37.894
37.938
37.985
38.035
38.086
38.136
38.186
38.234
38.28
38.321
38.357
38.388
38.411
38.426
38.433
38.431
38.421
38.402
38.375
38.34
38.296
38.245
38.186
38.12
38.047
37.968
37.884
37.795
37.701
37.604
37.504
37.402
37.297
37.191
37.084
36.977
36.87
36.763
36.657
36.551
36.446
36.34
36.234
36.128
36.02
35.911
35.801
35.691
35.581
35.471
35.361
35.252
35.144
35.037
34.932
34.829
34.728
34.63
34.534
34.442
34.353
34.268
34.187
34.111
34.037
33.967
33.901
33.838
33.777
33.721
33.667
33.616
33.568
33.523
33.48
33.438
33.399
33.361
33.324
33.289
33.255
33.222
33.189
33.157
33.126
33.094
33.063
33.033
33.003
32.974
32.945
32.918
32.892
32.867
32.843
32.82
32.798
32.777
32.757
32.737
32.717
32.697
32.676
32.655
32.634
32.612
32.589
32.565
32.541
32.515
32.488
32.461
32.433
32.406
32.378
32.351
32.324
32.298
32.273
32.248
32.225
32.202
32.179
32.158
32.136
32.114
32.09
32.065
32.038
32.008
31.976
31.941
31.904
31.866
31.827
31.787
31.748
31.711
31.674
31.639
31.605
31.574
31.544
31.516
31.488
31.463
31.438
31.414
31.39
31.366
31.343
31.319
31.295
31.271
31.245
31.219
31.192
31.163
31.133
31.102
31.069
31.034
30.998
30.961
30.923
30.884
30.844
30.804
30.763
30.723
30.683
30.644
30.607
30.571
30.537
30.506
30.478
30.454
30.432
30.415
30.404
30.4
30.407
30.43
30.473
30.543
30.645
30.787
30.974
31.211
31.501
31.846
32.245
32.696
33.196
33.738
34.316
34.921
35.546
36.184
36.825
37.464
38.093
38.706
39.298
39.864
40.4
40.902
41.368
41.795
42.183
42.529
42.833
43.096
43.319
43.503
43.648
43.758
43.832
43.875
43.887
43.872
43.831
43.768
43.686
43.587
43.473
43.347
43.211
43.067
42.916
42.76
42.601
42.44
42.278
42.116
41.955
41.797
41.641
41.488
41.339
41.193
41.05
40.91
40.773
40.637
40.504
40.371
40.24
40.106
39.971
39.833
39.691
39.546
39.398
39.248
39.097
38.947
38.799
38.656
38.52
38.392
38.274
38.167
38.073
37.994
37.928
37.877
37.839
37.815
37.804
37.804
37.817
37.839
37.87
37.91
37.956
38.006
38.06
38.116
38.172
38.227
38.28
38.329
38.373
38.41
38.442
38.467
38.484
38.495
38.498
38.492
38.478
38.455
38.424
38.384
38.335
38.278
38.212
38.139
38.059
37.973
37.882
37.786
37.686
37.583
37.479
37.374
37.268
37.161
37.053
36.945
36.835
36.726
36.615
36.504
36.393
36.281
36.169
36.057
35.946
35.834
35.722
35.61
35.499
35.388
35.278
35.169
35.061
34.954
34.849
34.746
34.646
34.548
34.454
34.363
34.276
34.194
34.116
34.042
33.973
33.907
33.846
33.788
33.733
33.68
33.63
33.582
33.536
33.491
33.448
33.407
33.367
33.329
33.293
33.259
33.227
33.196
33.166
33.138
33.111
33.085
33.06
33.035
33.011
32.988
32.964
32.941
32.918
32.895
32.872
32.849
32.825
32.801
32.776
32.752
32.728
32.703
32.68
32.656
32.634
32.613
32.592
32.572
32.552
32.532
32.512
32.489
32.466
32.44
32.414
32.386
32.357
32.327
32.298
32.268
32.238
32.21
32.182
32.155
32.129
