Trial 1:0back
35.433
35.438
35.444
35.45
35.455
35.459
35.462
35.464
35.464
35.461
35.456
35.446
35.433
35.415
35.394
35.37
35.341
35.308
35.271
35.228
35.182
35.132
35.08
35.025
34.969
34.913
34.857
34.802
34.749
34.698
34.649
34.603
34.558
34.515
34.473
34.432
34.391
34.351
34.31
34.27
34.231
34.191
34.148
34.097
34.04
33.976
33.909
33.839
33.77
33.703
33.64
33.582
33.53
33.486
33.45
33.421
33.399
33.381
33.366
33.354
33.343
33.333
33.322
33.309
33.295
33.276
33.255
33.229
33.2
33.168
33.133
33.095
33.054
33.013
32.973
32.935
32.9
32.87
32.845
32.827
32.816
32.816
32.829
32.858
32.905
32.972
33.06
33.169
33.3
33.452
33.621
33.805
34.0
34.206
34.419
34.637
34.859
35.081
35.302
35.514
35.713
35.896
36.063
36.214
36.351
36.474
36.585
36.686
36.778
36.863
36.941
37.013
37.079
37.138
37.191
37.236
37.272
37.299
37.315
37.321
37.317
37.304
37.285
37.26
37.23
37.196
37.16
37.123
37.085
37.047
37.007
36.965
36.919
36.87
36.818
36.763
36.705
36.646
36.586
36.524
36.46
36.395
36.329
36.263
36.196
36.13
36.064
35.999
35.937
35.878
35.822
35.771
35.727
35.689
35.657
35.631
35.612
35.599
35.592
35.591
35.593
35.599
35.607
35.616
35.624
35.63
35.633
35.633
35.629
35.62
35.608
35.592
35.575
35.556
35.535
35.512
35.488
35.463
35.438
35.411
35.384
35.356
35.326
35.296
35.263
35.23
35.197
35.163
35.128
35.092
35.054
35.014
34.974
34.932
34.889
34.845
34.8
34.753
34.705
34.655
34.604
34.552
34.5
34.446
34.392
34.337
34.281
34.225
34.168
34.11
34.052
33.993
33.934
33.876
33.819
33.764
33.712
33.661
33.614
33.57
33.53
33.493
33.46
33.428
33.398
33.366
33.335
33.303
33.271
33.237
33.202
33.168
33.134
33.101
33.07
33.039
33.01
32.982
32.954
32.927
32.9
32.877
32.858
32.848
32.847
32.861
32.892
32.943
33.016
33.111
33.229
33.369
33.531
33.714
33.915
34.133
34.366
34.612
34.868
35.13
35.397
35.666
35.936
36.206
36.475
36.746
37.018
37.293
37.567
37.838
38.104
38.358
38.597
38.813
39.003
39.161
39.284
39.371
39.421
39.432
39.408
39.352
39.267
39.16
39.036
38.899
38.755
38.607
38.459
38.313
38.172
38.036
37.906
37.783
37.666
37.555
37.452
37.356
37.265
37.18
37.099
37.023
36.949
36.877
36.806
36.734
36.661
36.586
36.51
36.433
36.357
36.284
36.215
36.151
36.094
36.043
35.999
35.961
35.928
35.898
35.872
35.849
35.829
35.812
35.798
35.788
35.78
35.776
35.773
35.771
35.769
35.766
35.762
35.755
35.746
35.734
35.719
35.702
35.683
35.663
35.64
35.614
35.585
35.554
35.522
35.491
35.461
35.433
35.404
35.374
35.342
35.307
35.267
35.224
35.176
35.125
35.071
35.013
34.953
34.892
34.831
34.769
34.707
34.645
34.583
34.523
34.464
34.405
34.346
34.288
34.232
34.176
34.122
34.07
34.019
33.969
33.919
33.869
33.818
33.768
33.718
33.668
33.617
33.567
33.518
33.472
33.43
33.39
33.352
33.317
33.284
33.253
33.225
33.198
33.173
33.149
33.124
33.098
33.071
33.044
33.016
32.989
32.963
32.939
32.92
32.909
32.909
32.924
32.956
33.009
33.083
33.178
33.295
33.432
33.59
33.768
33.965
34.179
34.41
34.657
34.918
35.194
35.484
35.788
36.107
36.442
36.789
37.147
37.51
37.872
38.224
38.559
38.87
39.148
39.389
39.589
39.744
39.853
39.916
39.936
39.915
39.855
39.763
39.642
39.501
39.345
39.181
39.014
38.85
38.694
38.546
38.409
38.282
38.166
38.06
37.962
37.87
37.783
37.698
37.616
37.535
37.451
37.355
37.245
37.124
36.996
36.866
36.737
36.615
36.501
36.398
36.307
36.228
36.163
36.112
36.073
36.047
36.031
36.023
36.023
36.026
36.03
36.034
36.036
36.036
36.033
36.027
36.019
36.009
35.999
35.988
35.978
35.967
35.955
35.942
35.927
35.91
35.891
35.87
35.849
35.827
35.804
35.78
35.756
35.732
35.706
35.677
35.645
35.61
35.572
35.53
35.484
35.437
35.388
35.337
35.286
35.235
35.184
35.133
35.082
35.031
34.98
34.928
34.877
34.826
34.774
34.721
34.666
34.609
34.55
34.49
34.428
34.367
34.306
34.246
34.186
34.126
34.067
34.01
33.954
33.899
33.845
33.792
33.741
33.692
33.645
33.601
33.56
33.523
33.488
33.454
33.42
33.387
33.354
33.321
33.288
33.254
33.221
33.187
33.153
33.118
33.083
33.048
33.014
32.982
32.953
32.929
32.914
32.908
32.915
32.937
32.977
33.037
33.12
33.227
33.356
33.508
33.682
33.877
34.091
34.323
34.572
34.838
35.119
35.414
35.72
36.041
36.378
36.729
37.093
37.463
37.834
38.197
38.544
38.868
39.162
39.42
39.636
39.808
39.933
40.011
40.042
40.03
39.979
39.893
39.779
39.641
39.487
39.322
39.152
38.981
38.814
38.655
38.507
38.369
38.242
38.126
38.02
37.922
37.83
37.742
37.658
37.575
37.493
37.412
37.331
37.25
37.17
37.091
37.011
36.93
36.85
36.769
36.687
36.606
36.526
36.447
36.373
36.304
36.242
36.187
36.14
36.102
36.08
36.073
36.078
36.094
36.116
36.142
36.167
36.188
36.203
36.211
36.21
36.2
36.181
36.153
36.117
36.074
36.026
35.974
35.918
35.862
35.807
35.754
35.704
35.658
35.616
35.577
35.539
35.502
35.466
35.429
35.391
35.352
35.311
35.27
35.228
35.186
35.143
35.099
35.053
35.006
34.956
34.904
34.85
34.793
34.736
34.677
34.619
34.561
34.505
34.451
34.397
34.344
34.29
34.235
34.181
34.126
34.072
34.019
33.966
33.915
33.863
33.811
33.758
33.705
33.653
33.602
33.551
33.502
33.456
33.412
33.37
33.332
33.296
33.263
33.231
33.2
33.17
33.141
33.113
33.084
33.056
33.029
33.002
32.975
32.95
32.925
32.901
32.879
32.862
32.851
32.848
32.856
32.877
32.914
32.967
33.04
33.134
33.251
33.39
33.549
33.729
33.927
34.143
34.375
34.621
34.88
35.149
35.427
35.714
36.007
36.307
36.613
36.923
37.235
37.543
37.842
38.126
38.39
38.629
38.837
39.012
39.151
39.262
39.349
39.412
39.45
39.462
39.446
39.403
39.332
39.236
39.118
38.983
38.834
38.675
38.513
38.35
38.19
38.035
37.888
37.749
37.62
37.502
37.395
37.299
37.212
37.135
37.065
37.002
36.944
36.888
36.833
36.778
36.722
36.665
36.605
36.544
36.483
36.422
36.362
36.304
36.251
36.202
36.157
36.117
36.081
36.049
36.023
36.0
35.982
35.969
35.96
35.956
35.954
35.953
35.953
35.952
35.951
35.946
35.939
35.927
35.903
35.865
35.814
35.752
35.685
35.616
35.55
35.49
35.436
35.389
35.351
35.32
35.296
35.278
35.264
35.253
35.243
35.233
35.221
35.205
35.184
35.158
35.125
35.084
35.037
34.983
34.925
34.864
34.802
34.739
34.675
34.61
34.545
34.48
34.415
34.351
34.29
34.231
34.174
34.12
34.07
34.021
33.975
33.928
33.881
33.833
33.785
33.735
33.685
33.636
33.588
33.54
33.493
33.448
33.404
33.362
33.321
33.279
33.238
33.198
33.161
33.127
33.096
33.07
33.048
33.03
33.014
33.0
32.987
32.974
32.96
32.944
32.923
32.901
32.878
32.857
32.84
32.83
32.829
32.84
32.867
32.912
32.978
33.066
33.176
33.309
33.463
33.637
33.83
34.039
34.262
34.495
34.736
34.981
35.228
35.476
35.722
35.965
36.205
36.44
36.671
36.897
37.118
37.334
37.544
37.744
37.933
38.107
38.264
38.401
38.517
38.61
38.679
38.723
38.741
38.736
38.708
38.66
38.595
38.518
38.43
38.335
38.235
38.135
38.037
37.942
37.852
37.767
37.688
37.613
37.542
37.474
37.406
37.34
37.275
37.209
37.144
37.078
37.012
36.946
36.88
36.814
36.747
36.681
36.615
36.551
36.489
36.43
36.376
36.326
36.283
36.246
36.215
36.191
36.174
36.162
36.154
36.149
36.146
36.144
36.143
36.142
36.143
36.143
36.145
36.146
36.144
36.139
36.13
36.116
36.097
36.072
36.043
36.012
35.979
35.945
35.912
35.878
35.845
35.813
35.779
35.743
35.702
35.656
35.605
35.551
35.495
35.438
35.383
35.331
35.281
35.234
35.189
35.145
35.1
35.053
35.004
34.954
34.901
34.848
34.793
34.738
34.684
34.629
34.575
34.52
34.464
34.407
34.349
34.29
34.231
34.174
34.119
34.067
34.017
33.969
33.922
33.876
33.83
33.785
33.74
33.696
33.654
33.613
33.573
33.534
33.495
33.457
33.42
33.383
33.346
33.31
33.274
33.239
33.205
33.172
33.14
33.109
33.077
33.045
33.012
32.977
32.941
32.907
32.875
32.847
32.828
32.819
32.823
32.843
32.881
32.939
33.019
33.121
33.246
33.392
33.559
33.744
33.946
34.162
34.39
34.628
34.874
35.124
35.376
35.628
35.88
36.13
36.379
36.627
36.874
37.119
37.36
37.594
37.821
38.036
38.237
38.423
38.589
38.733
38.85
38.939
38.998
39.028
39.029
39.004
38.955
38.886
38.799
38.698
38.588
38.473
38.355
38.237
38.12
38.008
37.9
37.798
37.703
37.613
37.527
37.446
37.367
37.29
37.214
37.139
37.065
36.993
36.92
36.845
36.767
36.687
36.608
36.531
36.456
36.386
36.322
36.264
36.212
36.167
36.128
36.095
36.068
36.048
36.033
36.023
36.017
36.015
36.016
36.017
36.017
36.017
36.014
36.008
35.998
35.986
35.972
35.956
35.94
35.921
35.903
35.883
35.863
35.842
35.818
35.792
35.763
35.731
35.695
35.657
35.616
35.574
35.531
35.487
35.441
35.395
35.347
35.298
35.247
35.194
35.139
35.083
35.028
34.976
34.93
34.887
34.847
34.807
34.765
34.72
34.671
34.619
34.563
34.505
34.444
34.382
34.319
34.255
34.191
34.127
34.062
33.998
33.935
33.872
33.81
33.751
33.695
33.642
33.591
33.541
33.493
33.445
33.396
33.349
33.303
33.259
33.218
33.178
33.139
33.102
33.066
33.029
32.993
32.956
32.917
32.879
32.842
32.807
32.774
32.746
32.723
32.708
32.702
32.708
32.729
32.768
32.826
32.904
33.004
33.125
33.267
33.433
33.629
33.853
34.102
34.368
34.645
34.926
35.203
35.473
35.73
35.972
36.198
36.408
36.605
36.793
36.972
37.144
37.31
37.47
37.624
37.77
37.907
38.033
38.146
38.242
38.32
38.376
38.409
38.42
38.409
38.377
38.324
38.253
38.167
38.069
37.961
37.848
37.732
37.615
37.5
37.387
37.278
37.172
37.073
36.978
36.889
36.804
36.723
36.645
36.57
36.496
36.423
36.351
36.278
36.205
36.131
36.057
35.982
35.91
35.84
35.774
35.712
35.654
35.602
35.557
35.519
35.488
35.465
35.449
35.438
35.431
35.427
35.423
35.419
35.415
35.411
35.406
35.402
35.398
35.394
35.388
35.38
35.369
35.355
35.338
35.319
35.298
35.275
35.252
35.228
35.202
35.176
35.148
35.12
35.089
35.055
35.017
34.976
34.932
34.885
34.837
34.788
34.739
34.691
34.643
34.594
34.545
34.494
34.442
34.389
34.335
34.28
34.227
34.176
34.126
34.077
34.029
33.981
33.932
33.882
33.831
33.779
33.725
33.669
33.611
33.551
33.491
33.431
33.372
33.314
33.259
33.208
33.161
33.12
33.083
33.051
33.023
32.997
32.974
32.952
32.93
32.908
32.884
32.859
32.832
32.804
32.776
32.748
32.72
32.692
32.668
32.648
32.637
32.637
32.652
32.684
32.736
32.809
32.905
33.023
33.162
33.32
33.497
33.689
33.894
34.109
34.333
34.561
34.792
35.022
35.251
35.477
35.699
35.913
36.12
36.317
36.505
36.682
36.85
37.008
37.156
37.295
37.424
37.54
37.641
37.727
37.798
37.853
37.893
37.918
37.928
37.926
37.912
37.886
37.85
37.804
37.75
37.689
37.621
37.547
37.468
37.386
37.302
37.217
37.13
37.042
36.954
36.866
36.779
36.694
36.611
36.53
36.45
36.37
36.292
36.216
36.144
36.075
36.01
35.949
35.89
35.835
35.783
35.735
35.691
35.651
35.614
35.58
35.55
35.523
35.501
35.485
35.473
35.465
35.46
35.459
35.462
35.469
35.478
35.488
35.498
35.506
35.511
35.512
35.509
35.501
35.488
35.471
35.449
35.423
35.395
35.364
35.332
35.297
35.258
35.217
35.174
35.128
35.081
35.035
34.989
34.944
34.899
34.853
34.808
34.762
34.715
34.667
34.616
34.564
34.511
34.459
34.407
34.356
34.307
34.26
34.212
34.163
34.112
34.06
34.007
33.953
33.898
33.845
33.793
33.742
33.694
33.647
33.601
33.556
33.511
33.465
33.42
33.375
33.331
33.288
33.247
33.206
33.164
33.122
33.08
33.037
32.993
32.95
32.909
32.871
32.842
32.822
32.814
32.818
32.835
32.865
32.909
32.967
33.041
33.132
33.241
33.368
33.515
33.68
33.862
34.059
34.27
34.491
34.723
34.963
35.213
35.472
35.743
36.026
36.323
36.634
36.956
37.286
37.618
37.944
38.257
38.549
38.813
39.043
39.234
39.382
39.486
39.548
39.569
39.555
39.509
39.437
39.344
39.235
39.115
38.986
38.853
38.718
38.584
38.453
38.326
38.204
38.089
37.981
37.882
37.792
37.709
37.633
37.562
37.495
37.429
37.363
37.295
37.226
37.155
37.082
37.007
36.933
36.859
36.785
36.712
36.641
36.572
36.504
36.439
36.377
36.318
36.263
36.213
36.167
36.125
36.088
36.054
36.025
35.999
35.976
35.956
35.939
35.923
35.908
35.895
35.882
35.871
35.861
35.852
35.842
35.832
35.822
35.81
35.796
35.779
35.76
35.738
35.712
35.683
35.651
35.614
35.573
35.529
35.481
35.43
35.377
35.323
35.27
35.216
35.161
35.106
35.051
34.996
34.943
34.89
34.838
34.786
34.733
34.68
34.623
34.565
34.506
34.446
34.385
34.324
34.263
34.203
34.144
34.088
34.032
33.977
33.922
33.867
33.813
33.76
33.708
33.659
33.612
33.567
33.524
33.481
33.438
33.395
33.352
33.308
33.264
33.22
33.176
33.132
33.089
33.048
33.01
32.978
32.951
32.934
32.928
32.936
32.96
33.003
33.066
33.151
33.258
33.386
33.535
33.703
33.889
34.093
34.313
34.55
34.804
35.073
35.36
35.663
35.982
36.319
36.671
37.034
37.404
37.773
38.133
38.478
38.799
39.088
39.339
39.548
39.714
39.836
39.917
39.958
39.963
39.936
39.883
39.805
39.709
39.599
39.48
39.356
39.231
39.108
38.99
38.878
38.776
38.684
38.601
38.527
38.461
38.401
38.345
38.29
38.234
38.176
38.115
38.048
37.975
37.897
37.816
37.733
37.648
37.564
37.48
37.397
37.314
37.232
37.15
37.07
36.993
36.92
36.85
36.785
36.725
36.67
36.622
36.579
36.543
36.512
36.485
36.462
36.441
36.421
36.401
36.382
36.363
36.344
36.333
36.329
36.333
36.342
36.351
36.358
36.357
36.349
36.329
36.298
36.254
36.199
36.135
36.062
35.983
35.899
35.813
35.727
35.642
35.559
35.48
35.402
35.328
35.256
35.187
35.122
35.059
34.999
34.94
34.882
34.824
34.768
34.714
34.661
34.611
34.561
34.512
34.462
34.412
34.362
34.31
34.257
34.203
34.146
34.087
34.025
33.961
33.897
33.832
33.766
33.701
33.638
33.576
33.517
33.459
33.404
33.35
33.298
33.247
33.198
33.151
33.106
33.062
33.02
32.982
32.946
32.914
32.885
32.86
32.84
32.828
32.827
32.839
32.867
32.913
32.981
33.071
33.184
33.32
33.481
33.667
33.879
34.118
34.386
34.687
35.024
35.399
35.814
36.263
36.74
37.234
37.735
38.229
38.703
39.145
39.545
39.897
40.193
40.432
40.612
40.735
40.804
40.824
40.8
40.737
40.642
40.522
40.382
40.229
40.069
39.905
39.745
39.591
39.447
39.314
39.193
39.085
38.989
38.904
38.828
38.76
38.697
38.637
38.575
38.502
38.412
38.302
38.178
38.042
37.903
37.766
37.636
37.518
37.413
37.322
37.245
37.181
37.128
37.083
37.045
37.012
36.982
36.954
36.926
36.899
36.871
36.842
36.811
36.779
36.743
36.704
36.663
36.618
36.571
36.523
36.474
36.427
36.383
36.341
36.303
36.268
36.235
36.204
36.174
36.143
36.111
36.079
36.045
36.008
35.969
35.927
35.885
35.842
35.799
35.757
35.714
35.669
35.623
35.574
35.523
35.469
35.414
35.357
35.298
35.237
35.173
35.107
35.039
34.969
34.896
34.822
34.748
34.675
34.601
34.528
34.457
34.389
34.322
34.258
34.197
34.139
34.085
34.032
33.982
33.933
33.885
33.838
33.792
33.745
33.698
33.649
33.598
33.543
33.485
33.426
33.365
33.303
33.239
33.174
33.109
33.045
32.984
32.925
32.869
32.815
32.764
32.716
32.674
32.637
32.607
32.586
32.573
32.572
32.584
32.613
32.66
32.727
32.815
32.925
33.057
33.215
33.399
33.615
33.867
34.165
34.514
34.917
35.376
35.885
36.437
37.022
37.626
38.236
38.837
39.415
39.958
40.454
40.891
41.264
41.568
41.8
41.96
42.052
42.081
42.053
41.976
41.859
41.71
41.537
41.348
41.148
40.945
40.743
40.548
40.363
40.19
40.032
39.887
39.757
39.638
39.531
39.433
39.34
39.251
39.163
39.075
38.985
38.892
38.795
38.694
38.591
38.484
38.375
38.265
38.155
38.045
37.936
37.828
37.722
37.617
37.514
37.415
37.321
37.232
37.15
37.076
37.01
36.95
36.895
36.845
36.799
36.754
36.711
36.667
36.622
36.574
36.525
36.474
36.425
36.378
36.334
36.295
36.259
36.226
36.195
36.164
36.134
36.104
36.074
36.044
36.016
35.989
35.962
35.934
35.905
35.873
35.837
35.795
35.748
35.695
35.637
35.574
35.507
35.437
35.366
35.293
35.22
35.145
35.071
34.997
34.923
34.848
34.772
34.696
34.621
34.548
34.478
34.41
34.344
34.28
34.217
34.155
34.094
34.034
33.975
33.918
33.86
33.803
33.746
33.69
33.635
33.581
33.528
33.475
33.424
33.382
33.356
33.344
33.344
33.353
33.365
33.375
33.38
33.375
33.358
33.329
33.285
33.229
33.161
33.085
33.002
32.916
32.83
32.745
32.666
32.593
32.53
32.479
32.441
32.419
32.414
32.428
32.464
32.521
32.602
32.708
32.84
33.0
33.195
33.435
33.727
34.083
34.508
35.003
35.564
36.185
36.854
37.559
38.284
39.012
39.728
40.413
41.054
41.639
42.158
42.604
42.974
43.266
43.482
43.626
43.702
43.717
43.678
43.593
43.472
43.322
43.15
42.963
42.768
42.569
42.369
42.172
41.98
41.794
41.617
41.447
41.282
41.123
40.967
40.815
40.666
40.521
40.377
40.234
40.092
39.95
39.805
39.658
39.508
39.356
39.201
39.043
38.885
38.726
38.569
38.416
38.266
38.121
37.981
37.849
37.723
37.604
37.493
37.387
37.288
37.195
37.108
37.026
36.951
36.883
36.824
36.772
36.728
36.69
36.658
36.628
36.6
36.574
36.548
36.521
36.493
36.463
36.432
36.398
36.362
36.325
36.284
36.241
36.195
36.146
36.094
36.037
35.977
35.917
35.857
35.8
35.744
35.688
35.631
35.573
35.513
35.449
35.383
35.313
35.242
35.169
35.095
35.021
34.947
34.875
34.804
34.733
34.663
34.593
34.523
34.453
34.382
34.312
34.245
34.179
34.117
34.057
34.0
33.944
33.888
33.831
33.773
33.715
33.657
33.6
33.544
33.49
33.437
33.387
33.339
33.291
33.243
33.197
33.152
33.107
33.064
33.023
32.985
32.949
32.915
32.883
32.852
32.82
32.788
32.757
32.727
32.697
32.668
32.64
32.612
32.585
32.561
32.538
32.516
32.497
32.48
32.468
32.465
32.474
32.5
32.545
32.614
32.71
32.839
33.009
33.231
33.518
33.878
34.319
34.841
35.441
36.113
36.847
37.629
38.444
39.275
40.104
40.913
41.688
42.414
43.08
43.677
44.202
44.649
45.019
45.311
45.527
45.672
45.751
45.769
45.734
45.653
45.534
45.385
45.212
45.021
44.818
44.607
44.391
44.174
43.957
43.741
43.528
43.317
43.108
42.9
42.694
42.49
42.287
42.086
41.884
41.681
41.477
41.27
41.063
40.854
40.645
40.438
40.234
40.034
39.839
39.648
39.464
39.286
39.115
38.95
38.79
38.637
38.489
38.347
38.211
38.08
37.956
37.839
37.73
37.628
37.536
37.455
37.383
37.321
37.267
37.219
37.175
37.134
37.094
37.054
37.014
36.974
36.932
36.889
36.843
36.795
36.744
36.691
36.635
36.576
36.513
36.448
36.379
36.306
36.23
36.153
36.075
35.997
35.919
35.842
35.765
35.687
35.607
35.526
35.443
35.358
35.272
35.186
35.099
35.013
34.927
34.842
34.759
34.676
34.593
34.51
34.427
34.347
34.269
34.194
34.122
34.054
33.988
33.924
33.86
33.796
33.73
33.665
33.598
33.532
33.465
33.399
33.333
33.268
33.203
33.139
33.075
33.013
32.951
32.891
32.831
32.773
32.717
32.662
32.61
32.561
32.513
32.466
32.421
32.376
32.332
32.291
32.252
32.215
32.18
32.149
32.121
32.098
32.079
32.068
32.067
32.078
32.103
32.145
32.208
32.293
32.404
32.542
32.713
32.921
33.175
33.482
33.849
34.277
34.766
35.312
35.907
36.538
37.194
