Trial 1:0back
37.743
37.56
37.377
37.199
37.026
36.861
36.706
36.563
36.433
36.316
36.213
36.123
36.046
35.981
35.929
35.888
35.859
35.84
35.829
35.827
35.831
35.84
35.852
35.866
35.88
35.894
35.906
35.917
35.924
35.929
35.929
35.925
35.914
35.895
35.869
35.835
35.794
35.746
35.692
35.632
35.569
35.502
35.434
35.364
35.293
35.222
35.151
35.081
35.013
34.947
34.883
34.819
34.756
34.693
34.629
34.564
34.497
34.429
34.36
34.292
34.223
34.154
34.085
34.018
33.953
33.889
33.826
33.764
33.703
33.643
33.586
33.531
33.479
33.431
33.385
33.345
33.309
33.277
33.25
33.226
33.206
33.189
33.175
33.161
33.148
33.135
33.122
33.109
33.098
33.086
33.075
33.064
33.051
33.036
33.018
32.998
32.976
32.952
32.928
32.904
32.879
32.855
32.831
32.809
32.787
32.765
32.742
32.72
32.697
32.674
32.651
32.629
32.607
32.588
32.573
32.562
32.559
32.566
32.586
32.625
32.688
32.781
32.912
33.086
33.31
33.588
33.923
34.313
34.755
35.243
35.772
36.329
36.906
37.489
38.065
38.624
39.154
39.646
40.092
40.487
40.825
41.106
41.329
41.495
41.608
41.672
41.691
41.673
41.623
41.548
41.453
41.345
41.227
41.105
40.983
40.862
40.745
40.634
40.529
40.431
40.34
40.255
40.175
40.099
40.026
39.954
39.884
39.814
39.746
39.677
39.608
39.539
39.468
39.394
39.314
39.229
39.137
39.038
38.931
38.817
38.695
38.568
38.435
38.298
38.159
38.017
37.875
37.734
37.594
37.456
37.322
37.192
37.068
36.95
36.84
36.738
36.646
36.565
36.496
36.438
36.391
36.357
36.333
36.32
36.317
36.322
36.332
36.348
36.366
36.385
36.403
36.417
36.426
36.426
36.418
36.401
36.377
36.345
36.305
36.259
36.207
36.151
36.091
36.029
35.966
35.901
35.836
35.772
35.711
35.651
35.594
35.537
35.48
35.422
35.363
35.301
35.236
35.167
35.095
35.019
34.938
34.852
34.762
34.672
34.583
34.496
34.413
34.334
34.26
34.191
34.128
34.071
34.018
33.971
33.928
33.889
33.855
33.823
33.793
33.763
33.732
33.701
33.67
33.638
33.605
33.572
33.538
33.505
33.47
33.435
33.399
33.364
33.33
33.297
33.265
33.234
33.204
33.179
33.157
33.14
33.127
33.117
33.111
33.107
33.105
33.103
33.103
33.104
33.104
33.105
33.104
33.101
33.096
33.089
33.079
33.067
33.052
33.032
33.007
32.979
32.948
32.914
32.878
32.84
32.803
32.765
32.729
32.692
32.656
32.62
32.586
32.552
32.52
32.489
32.459
32.431
32.406
32.385
32.368
32.357
32.354
32.362
32.387
32.432
32.503
32.606
32.747
32.935
33.174
33.468
33.816
34.217
34.666
35.157
35.68
36.225
36.779
37.33
37.865
38.376
38.851
39.283
39.667
39.999
40.278
40.503
40.674
40.796
40.872
40.906
40.905
40.873
40.815
40.737
40.645
40.542
40.434
40.321
40.206
40.09
39.977
39.865
39.759
39.659
39.565
39.479
39.4
39.327
39.262
39.203
39.15
39.101
39.056
39.012
38.967
38.919
38.869
38.814
38.753
38.685
38.608
38.523
38.43
38.33
38.221
38.106
37.986
37.861
37.733
37.605
37.478
37.353
37.232
37.115
37.003
36.899
36.803
36.716
36.637
36.568
36.509
36.459
36.419
36.388
36.364
36.348
36.339
36.337
36.34
36.347
36.355
36.362
36.368
36.372
36.373
36.371
36.365
36.353
36.337
36.314
36.285
36.251
36.21
36.164
36.113
36.061
36.006
35.952
35.898
35.848
35.8
35.755
35.714
35.675
35.638
35.603
35.567
35.531
35.491
35.448
35.399
35.346
35.288
35.226
35.161
35.093
35.023
34.954
34.885
34.817
34.751
34.688
34.627
34.57
34.516
34.465
34.416
34.369
34.324
34.28
34.237
34.195
34.152
34.108
34.063
34.015
33.966
33.915
33.865
33.816
33.77
33.727
33.688
33.653
33.621
33.594
33.57
33.55
33.532
33.516
33.503
33.492
33.484
33.477
33.472
33.468
33.463
33.459
33.454
33.448
33.441
33.433
33.425
33.415
33.404
33.392
33.379
33.366
33.352
33.337
33.321
33.303
33.282
33.259
33.234
33.207
33.181
33.156
33.133
33.112
33.093
33.076
33.061
33.047
33.034
33.021
33.007
32.992
32.973
32.951
32.927
32.902
32.874
32.845
32.815
32.785
32.754
32.722
32.689
32.655
32.62
32.585
32.551
32.516
32.483
32.452
32.424
32.401
32.382
32.372
32.371
32.382
32.411
32.461
32.538
32.647
32.794
32.984
33.221
33.505
33.837
34.212
34.626
35.071
35.54
36.021
36.505
36.982
37.443
37.878
38.282
38.649
38.974
39.254
39.488
39.676
39.818
39.917
39.977
40.003
39.998
39.967
39.915
39.845
39.763
39.671
39.573
39.472
39.369
39.268
39.168
39.073
38.981
38.894
38.811
38.733
38.658
38.587
38.518
38.451
38.386
38.322
38.26
38.199
38.139
38.082
38.026
37.97
37.914
37.857
37.796
37.732
37.663
37.59
37.51
37.425
37.334
37.238
37.137
37.033
36.928
36.823
36.722
36.626
36.537
36.456
36.384
36.321
36.266
36.218
36.178
36.145
36.12
36.099
36.083
36.07
36.061
36.054
36.047
36.04
36.033
36.025
36.016
36.008
36.0
35.991
35.982
35.971
35.961
35.949
35.936
35.921
35.903
35.883
35.86
35.833
35.803
35.767
35.725
35.678
35.627
35.571
35.51
35.446
35.38
35.314
35.248
35.183
35.12
35.06
35.004
34.952
34.905
34.862
34.823
34.788
34.756
34.726
34.697
34.668
34.638
34.607
34.575
34.541
34.504
34.465
34.423
34.377
34.329
34.278
34.226
34.174
34.123
34.074
34.03
33.989
33.952
33.918
33.887
33.859
33.833
33.81
33.789
33.77
33.751
33.732
33.712
33.692
33.671
33.649
33.627
33.604
33.579
33.554
33.529
33.504
33.48
33.457
33.435
33.413
33.393
33.374
33.357
33.341
33.326
33.313
33.302
33.291
33.282
33.275
33.268
33.261
33.256
33.25
33.244
33.239
33.233
33.227
33.221
33.215
33.207
33.198
33.186
33.173
33.157
33.141
33.123
33.105
33.087
33.069
33.051
33.033
33.016
32.999
32.983
32.967
32.951
32.933
32.915
32.896
32.875
32.852
32.829
32.804
32.777
32.747
32.715
32.68
32.642
32.604
32.564
32.525
32.486
32.448
32.412
32.377
32.343
32.31
32.279
32.249
32.22
32.192
32.166
32.142
32.122
32.108
32.104
32.113
32.138
32.186
32.261
32.368
32.513
32.698
32.929
33.205
33.526
33.889
34.289
34.719
35.17
35.634
36.102
36.565
37.014
37.442
37.84
38.202
38.522
38.797
39.025
39.205
39.337
39.422
39.465
39.469
39.439
39.381
39.3
39.202
39.093
38.976
38.856
38.737
38.621
38.51
38.406
38.308
38.216
38.13
38.049
37.975
37.906
37.841
37.779
37.72
37.663
37.607
37.553
37.5
37.448
37.396
37.345
37.294
37.242
37.189
37.132
37.072
37.008
36.94
36.869
36.793
36.713
36.63
36.543
36.456
36.368
36.28
36.195
36.112
36.035
35.965
35.901
35.846
35.799
35.76
35.728
35.703
35.684
35.669
35.659
35.651
35.647
35.644
35.641
35.637
35.631
35.622
35.612
35.6
35.586
35.57
35.554
35.538
35.522
35.507
35.491
35.476
35.46
35.445
35.43
35.413
35.395
35.374
35.349
35.32
35.286
35.247
35.203
35.154
35.101
35.045
34.987
34.926
34.864
34.801
34.738
34.675
34.614
34.556
34.502
34.452
34.406
34.363
34.322
34.283
34.246
34.209
34.174
34.14
34.107
34.074
34.04
34.004
33.967
33.928
33.887
33.845
33.801
33.757
33.714
33.673
33.636
33.603
33.576
33.555
33.539
33.528
33.523
33.521
33.521
33.523
33.525
33.525
33.524
33.52
33.513
33.502
33.489
33.472
33.452
33.428
33.401
33.372
33.342
33.313
33.284
33.257
33.232
33.209
33.188
33.17
33.156
33.144
33.134
33.126
33.12
33.114
33.108
33.101
33.091
33.079
33.063
33.045
33.024
32.999
32.973
32.945
32.916
32.887
32.858
32.83
32.805
32.788
32.779
32.778
32.781
32.786
32.792
32.796
32.797
32.793
32.783
32.767
32.745
32.717
32.685
32.649
32.61
32.571
32.531
32.491
32.452
32.417
32.384
32.355
32.33
32.307
32.287
32.269
32.25
32.232
32.213
32.192
32.171
32.147
32.123
32.099
32.074
32.049
32.024
31.998
31.972
31.946
31.92
31.895
31.874
31.857
31.85
31.855
31.878
31.925
32.0
32.11
32.26
32.452
32.688
32.969
33.294
33.658
34.058
34.485
34.931
35.387
35.843
36.289
36.717
37.118
37.486
37.816
38.105
38.352
38.553
38.711
38.824
38.897
38.935
38.943
38.926
38.886
38.827
38.751
38.659
38.556
38.443
38.323
38.197
38.068
37.938
37.81
37.684
37.561
37.444
37.332
37.227
37.13
37.04
36.959
36.883
36.814
36.749
36.687
36.629
36.574
36.52
36.466
36.413
36.358
36.301
36.24
36.176
36.107
36.033
35.955
35.873
35.788
35.703
35.616
35.53
35.446
35.364
35.287
35.217
35.154
35.1
35.056
35.023
35.001
34.99
34.989
34.997
35.012
35.034
35.061
35.091
35.121
35.15
35.177
35.2
35.218
35.23
35.234
35.23
35.22
35.204
35.183
35.157
35.128
35.096
35.062
35.033
35.011
34.999
34.994
34.995
35.0
35.006
35.01
35.008
34.996
34.974
34.94
34.895
34.839
34.773
34.7
34.623
34.542
34.462
34.382
34.305
34.233
34.165
34.102
34.046
33.995
33.95
33.91
33.876
33.846
33.819
33.793
33.768
33.743
33.717
33.69
33.662
33.632
33.6
33.565
33.529
33.491
33.452
33.414
33.376
33.341
33.307
33.276
33.247
33.222
33.2
33.181
33.167
33.155
33.146
33.14
33.136
33.132
33.129
33.126
33.125
33.124
33.124
33.125
33.125
33.124
33.123
33.121
33.118
33.116
33.115
33.115
33.117
33.12
33.124
33.129
33.134
33.138
33.139
33.138
33.134
33.126
33.114
33.099
33.081
33.062
33.041
33.019
32.996
32.973
32.95
32.928
32.906
32.884
32.861
32.839
32.816
32.793
32.769
32.747
32.724
32.702
32.68
32.658
32.635
32.612
32.588
32.563
32.537
32.51
32.482
32.454
32.426
32.399
32.371
32.345
32.318
32.292
32.266
32.241
32.216
32.191
32.167
32.144
32.123
32.103
32.086
32.073
32.065
32.064
32.072
32.092
32.128
32.185
32.269
32.383
32.533
32.722
32.954
33.227
33.541
33.892
34.273
34.677
35.095
35.518
35.935
36.339
36.722
37.08
37.406
37.697
37.948
38.159
38.327
38.453
38.54
38.589
38.606
38.593
38.554
38.493
38.413
38.319
38.213
38.099
37.979
37.853
37.725
37.597
37.469
37.345
37.223
37.105
36.992
36.885
36.784
36.69
36.603
36.522
36.449
36.381
36.319
36.263
36.211
36.162
36.113
36.062
36.009
35.953
35.893
35.83
35.762
35.693
35.622
35.55
35.479
35.408
35.339
35.271
35.205
35.144
35.087
35.036
34.992
34.953
34.922
34.897
34.879
34.868
34.863
34.863
34.87
34.883
34.902
34.925
34.953
34.985
35.022
35.061
35.102
35.144
35.186
35.227
35.265
35.298
35.324
35.341
35.35
35.349
35.339
35.322
35.297
35.267
35.232
35.193
35.15
35.105
35.059
35.01
34.961
34.911
34.862
34.812
34.763
34.712
34.66
34.606
34.55
34.491
34.43
34.366
34.301
34.236
34.172
34.11
34.049
33.993
33.94
33.891
33.845
33.803
33.764
33.727
33.691
33.656
33.623
33.59
33.559
33.529
33.5
33.473
33.447
33.421
33.396
33.371
33.346
33.321
33.296
33.271
33.246
33.221
33.197
33.174
33.152
33.134
33.118
33.107
33.099
33.095
33.096
33.098
33.102
33.103
33.102
33.099
33.092
33.082
33.071
33.058
33.044
33.031
33.017
33.004
32.992
32.981
32.971
32.962
32.953
32.944
32.934
32.926
32.918
32.91
32.904
32.897
32.89
32.883
32.874
32.865
32.854
32.842
32.828
32.814
32.799
32.784
32.769
32.755
32.741
32.728
32.716
32.704
32.694
32.685
32.676
32.667
32.657
32.645
32.633
32.618
32.604
32.589
32.573
32.556
32.537
32.516
32.493
32.469
32.443
32.415
32.387
32.357
32.327
32.297
32.266
32.236
32.207
32.179
32.152
32.124
32.096
32.066
32.036
32.006
31.976
31.947
31.919
31.895
31.876
31.864
31.865
31.883
31.923
31.994
32.103
32.256
32.456
32.707
33.009
33.36
33.756
34.19
34.655
35.14
35.634
36.127
36.608
37.068
37.496
37.885
38.229
38.524
38.768
38.959
39.099
39.192
39.24
39.25
39.225
39.172
39.096
39.002
38.893
38.774
38.647
38.514
38.38
38.245
38.111
37.981
37.856
37.737
37.626
37.521
37.424
37.332
37.246
37.166
37.09
37.019
36.952
36.888
36.827
36.768
36.71
36.653
36.596
36.54
36.484
36.427
36.37
36.313
36.255
36.198
36.138
36.076
36.011
35.942
35.871
35.799
35.726
35.653
35.583
35.515
35.453
35.397
35.348
35.306
35.273
35.248
35.233
35.226
35.228
35.237
35.252
35.271
35.293
35.316
35.34
35.364
35.387
35.409
35.429
35.447
35.461
35.47
35.474
35.474
35.468
35.457
35.442
35.424
35.404
35.381
35.356
35.329
35.301
35.271
35.237
35.201
35.16
35.117
35.07
35.02
34.968
34.912
34.855
34.797
34.739
34.682
34.625
34.569
34.514
34.461
34.41
34.361
34.314
34.268
34.224
34.182
34.142
34.103
34.065
34.029
33.992
33.957
33.922
33.888
33.855
33.824
33.795
33.766
33.738
33.709
33.678
33.646
33.613
33.579
33.546
33.513
33.481
33.451
33.421
33.394
33.367
33.34
33.315
33.291
33.27
33.25
33.234
33.22
33.208
33.198
33.191
33.185
33.18
33.175
33.17
33.164
33.157
33.149
33.141
33.133
33.125
33.117
33.11
33.104
33.098
33.092
33.085
33.079
33.072
33.065
33.058
33.05
33.042
33.033
33.024
33.014
33.004
32.995
32.986
32.977
32.969
32.959
32.948
32.933
32.916
32.895
32.872
32.847
32.821
32.794
32.767
32.74
32.715
32.689
32.664
32.639
32.614
32.589
32.564
32.541
32.519
32.499
32.48
32.463
32.446
32.429
32.413
32.397
32.38
32.362
32.342
32.321
32.298
32.274
32.249
32.225
32.2
32.176
32.152
32.131
32.112
32.096
32.083
32.072
32.063
32.056
32.051
32.05
32.056
32.072
32.104
32.157
32.238
32.354
32.51
32.711
32.961
33.261
33.61
34.004
34.435
34.897
35.381
35.876
36.373
36.859
37.325
37.762
38.162
38.518
38.828
39.088
39.298
39.458
39.572
39.642
39.674
39.673
39.641
39.585
39.507
39.411
39.301
39.178
39.047
38.911
38.773
38.634
38.496
38.363
38.235
38.115
38.003
37.897
37.798
37.705
37.617
37.534
37.456
37.381
37.309
37.238
37.169
37.101
37.034
36.966
36.898
36.83
36.762
36.695
36.63
36.567
36.506
36.444
36.383
36.32
36.257
36.192
36.125
36.057
35.99
35.924
35.861
35.802
35.747
35.697
35.653
35.617
35.589
35.568
35.555
35.549
35.55
35.557
35.569
35.585
35.602
35.62
35.639
35.657
35.675
35.693
35.709
35.724
35.737
35.75
35.76
35.768
35.774
35.776
35.774
35.769
35.76
35.746
35.728
35.706
35.678
35.645
35.607
35.564
35.514
35.455
35.387
35.312
35.233
35.151
35.069
34.989
34.912
34.839
34.771
34.71
34.656
34.609
34.568
34.533
34.501
34.473
34.445
34.417
34.387
34.354
34.317
34.279
34.238
34.194
34.149
34.102
34.054
34.007
33.961
33.917
33.875
33.836
33.8
33.765
33.732
33.698
33.665
33.632
33.6
33.57
33.543
33.518
33.494
33.474
33.456
33.441
33.428
33.415
33.404
33.393
33.384
33.376
33.367
33.357
33.347
33.336
33.325
33.316
33.307
33.301
33.296
33.292
33.289
33.286
33.283
33.279
33.272
33.265
33.255
33.244
33.231
33.215
33.197
33.179
33.16
33.141
33.122
33.103
33.084
33.066
33.048
33.03
33.014
32.999
32.986
32.976
32.966
32.957
32.948
32.937
32.925
32.91
32.894
32.876
32.856
32.834
32.811
32.786
32.761
32.734
32.708
32.682
32.659
32.638
32.621
32.607
32.596
32.587
32.58
32.574
32.568
32.562
32.555
32.545
32.533
32.518
32.5
32.479
32.454
32.427
32.397
32.364
32.329
32.292
32.253
32.215
32.178
32.144
32.116
32.095
32.086
32.093
32.124
32.185
32.284
32.429
32.624
32.874
33.18
33.542
33.954
34.409
34.897
35.408
35.929
36.451
36.961
37.443
37.889
38.293
38.651
38.963
39.228
39.446
39.619
39.749
39.839
39.892
39.913
39.905
39.873
39.821
39.753
39.673
39.583
39.486
39.383
39.278
39.17
39.059
38.946
38.832
38.717
38.604
38.494
38.386
38.281
38.18
38.083
37.99
37.901
37.815
37.734
37.656
37.583
37.515
37.452
37.394
37.339
37.288
37.237
37.187
37.135
37.08
37.023
36.961
36.896
36.827
36.756
36.683
36.61
36.538
36.468
36.401
36.336
36.275
36.22
36.17
36.129
36.095
36.069
36.053
36.044
36.044
36.051
36.064
36.081
36.103
36.128
36.154
36.18
36.205
36.228
36.248
36.264
36.277
36.287
36.292
36.294
36.29
36.282
36.27
36.252
36.229
36.2
36.165
36.125
36.081
36.033
35.984
35.935
35.887
35.84
35.794
35.75
35.706
35.663
35.619
35.573
35.524
35.474
35.422
35.368
35.313
35.257
35.199
35.139
35.077
35.015
34.952
34.889
34.825
34.762
34.699
34.638
34.581
34.526
34.474
34.423
34.375
34.331
34.289
34.251
34.217
34.185
34.156
34.131
34.109
34.088
34.067
34.047
34.026
34.005
33.982
33.959
33.935
33.909
33.883
33.855
33.828
33.801
33.774
33.748
33.722
33.696
33.671
33.647
33.625
33.606
33.591
33.58
33.572
33.568
33.566
33.567
33.568
33.569
33.569
33.568
33.566
33.562
33.558
33.552
33.545
33.536
33.526
33.513
33.499
33.485
33.471
33.457
33.443
33.428
33.412
33.395
33.376
33.356
33.334
33.309
33.283
33.255
33.227
33.198
33.169
33.139
33.11
33.081
33.054
33.029
33.006
32.984
32.964
32.946
32.93
32.918
32.907
32.899
32.893
32.89
32.888
32.887
32.885
32.882
32.877
32.871
32.861
32.849
32.834
32.814
32.792
32.766
32.735
32.701
32.664
32.625
32.586
32.551
32.522
32.501
32.486
32.476
32.47
32.465
32.461
32.456
32.449
32.44
32.431
32.422
32.414
32.412
32.42
32.446
32.498
32.584
32.713
32.89
33.122
33.411
33.758
34.16
34.612
35.107
35.634
36.182
36.738
37.291
37.829
38.339
38.812
39.239
39.616
39.937
40.203
40.413
40.571
40.679
40.743
40.767
40.758
40.721
40.662
40.585
40.493
40.39
40.279
40.161
40.04
39.917
39.795
39.674
39.556
39.44
39.327
39.217
39.11
39.007
38.908
38.813
38.723
38.637
38.554
38.476
38.402
38.332
38.265
38.2
38.137
38.076
38.018
37.96
37.901
37.841
37.777
37.707
37.633
37.553
37.469
37.383
37.295
37.209
37.124
37.045
36.972
36.907
36.851
36.804
36.765
36.734
36.711
36.695
36.685
36.68
36.68
36.684
36.691
36.702
36.716
36.732
36.752
36.773
36.796
36.819
36.843
36.865
36.886
36.903
36.914
36.917
36.912
36.9
36.879
36.852
36.818
36.78
36.739
36.695
36.651
36.605
36.558
36.511
36.463
36.415
36.365
36.315
36.262
36.208
36.151
36.091
36.029
35.965
35.901
35.835
35.769
35.702
35.635
35.568
35.502
35.437
35.372
35.308
35.244
35.181
35.12
35.061
35.003
34.947
34.891
34.836
34.784
34.736
34.69
34.648
34.609
34.574
34.543
34.517
34.494
34.471
34.449
34.425
34.399
34.371
34.342
34.311
34.279
34.246
34.214
34.181
34.148
34.116
34.085
34.055
34.027
34.002
33.98
33.96
33.943
33.929
33.918
33.909
33.901
33.893
33.885
33.877
33.867
33.856
33.844
33.829
33.814
33.797
33.78
33.762
33.744
33.727
33.711
33.698
33.687
33.679
33.672
33.668
33.664
33.661
33.658
33.654
33.647
33.636
33.621
33.601
33.575
33.545
33.511
33.474
33.436
33.398
33.362
33.328
33.297
33.27
33.25
33.237
33.229
33.227
33.228
33.231
33.233
33.233
33.228
33.218
33.204
33.184
33.161
33.133
33.101
33.067
33.03
32.992
32.953
32.914
32.878
32.844
32.813
32.785
32.759
32.738
32.718
32.701
32.685
32.671
32.657
32.644
32.63
32.614
32.595
32.574
32.551
32.528
32.507
32.491
32.483
32.489
32.514
32.568
32.658
32.793
32.98
33.225
33.531
33.898
34.324
34.8
35.318
35.866
36.432
37.004
37.569
38.115
38.632
39.111
39.546
39.931
40.265
40.546
40.774
40.953
41.086
41.175
41.226
41.242
41.228
41.189
41.128
41.05
40.957
40.852
40.737
40.615
40.489
40.361
40.233
40.106
39.982
39.862
39.748
39.64
39.539
39.442
39.351
39.264
39.182
39.103
39.027
38.953
38.882
38.812
38.743
38.674
38.604
38.534
38.461
38.388
38.313
38.237
38.159
38.082
38.004
37.927
37.852
37.778
37.705
37.633
37.563
37.497
37.434
37.375
37.322
37.275
37.236
37.206
37.183
37.169
37.161
37.16
37.164
