Trial 1:0back
35.811
35.791
35.773
35.757
35.744
35.733
35.724
35.716
35.708
35.7
35.692
35.684
35.674
35.663
35.65
35.635
35.619
35.6
35.58
35.557
35.532
35.506
35.478
35.45
35.42
35.388
35.355
35.32
35.284
35.247
35.209
35.17
35.13
35.09
35.05
35.01
34.969
34.926
34.884
34.84
34.796
34.752
34.708
34.664
34.621
34.58
34.54
34.502
34.467
34.433
34.403
34.374
34.348
34.323
34.299
34.275
34.252
34.229
34.205
34.181
34.155
34.129
34.1
34.07
34.038
34.002
33.965
33.927
33.887
33.847
33.808
33.771
33.736
33.704
33.673
33.645
33.618
33.592
33.567
33.542
33.516
33.49
33.463
33.436
33.409
33.384
33.36
33.339
33.321
33.307
33.299
33.296
33.301
33.314
33.338
33.372
33.419
33.479
33.553
33.643
33.75
33.875
34.017
34.177
34.352
34.541
34.743
34.954
35.172
35.395
35.621
35.846
36.07
36.289
36.503
36.709
36.904
37.086
37.254
37.406
37.54
37.656
37.754
37.833
37.894
37.938
37.967
37.98
37.979
37.967
37.945
37.915
37.878
37.837
37.792
37.745
37.696
37.648
37.6
37.554
37.51
37.468
37.429
37.392
37.356
37.321
37.285
37.247
37.207
37.162
37.113
37.06
37.002
36.94
36.876
36.811
36.745
36.679
36.613
36.548
36.484
36.423
36.363
36.306
36.252
36.203
36.159
36.12
36.087
36.059
36.036
36.018
36.005
35.996
35.992
35.992
35.996
36.003
36.012
36.023
36.035
36.045
36.054
36.061
36.066
36.067
36.065
36.06
36.052
36.04
36.025
36.007
35.987
35.964
35.938
35.91
35.88
35.848
35.814
35.778
35.74
35.7
35.658
35.616
35.573
35.53
35.488
35.447
35.408
35.369
35.333
35.299
35.268
35.24
35.215
35.192
35.171
35.151
35.131
35.11
35.088
35.064
35.038
35.009
34.979
34.946
34.911
34.876
34.839
34.801
34.762
34.721
34.68
34.638
34.595
34.553
34.511
34.469
34.429
34.39
34.352
34.316
34.281
34.246
34.212
34.177
34.142
34.107
34.071
34.035
33.999
33.964
33.929
33.897
33.867
33.839
33.815
33.795
33.779
33.769
33.766
33.773
33.79
33.82
33.865
33.927
34.007
34.106
34.224
34.361
34.516
34.688
34.875
35.074
35.284
35.501
35.723
35.947
36.17
36.389
36.601
36.805
36.999
37.182
37.352
37.51
37.654
37.784
37.899
38.0
38.085
38.157
38.215
38.259
38.289
38.306
38.31
38.304
38.287
38.262
38.228
38.188
38.142
38.091
38.037
37.982
37.927
37.871
37.814
37.756
37.695
37.631
37.563
37.49
37.412
37.33
37.243
37.153
37.062
36.97
36.878
36.787
36.697
36.61
36.526
36.444
36.364
36.288
36.214
36.144
36.077
36.014
35.954
35.899
35.848
35.802
35.76
35.723
35.692
35.665
35.643
35.626
35.614
35.607
35.605
35.607
35.614
35.625
35.638
35.654
35.672
35.69
35.709
35.728
35.746
35.762
35.775
35.783
35.787
35.784
35.774
35.758
35.736
35.707
35.674
35.637
35.598
35.556
35.513
35.468
35.423
35.377
35.329
35.28
35.23
35.179
35.128
35.076
35.025
34.975
34.927
34.881
34.838
34.797
34.759
34.723
34.688
34.655
34.622
34.591
34.56
34.531
34.503
34.476
34.451
34.426
34.401
34.377
34.352
34.327
34.301
34.275
34.247
34.219
34.19
34.158
34.125
34.091
34.054
34.017
33.979
33.94
33.902
33.863
33.824
33.786
33.748
33.71
33.673
33.637
33.602
33.569
33.537
33.506
33.478
33.452
33.43
33.414
33.405
33.405
33.415
33.439
33.477
33.53
33.601
33.689
33.796
33.922
34.066
34.227
34.404
34.596
34.801
35.017
35.242
35.472
35.705
35.94
36.172
36.401
36.625
36.843
37.052
37.252
37.44
37.617
37.782
37.933
38.068
38.188
38.292
38.379
38.45
38.506
38.546
38.574
38.589
38.594
38.589
38.575
38.554
38.526
38.491
38.451
38.404
38.354
38.3
38.243
38.183
38.121
38.056
37.99
37.922
37.853
37.783
37.713
37.642
37.57
37.499
37.429
37.361
37.293
37.227
37.161
37.096
37.031
36.968
36.906
36.846
36.788
36.734
36.683
36.635
36.591
36.548
36.506
36.465
36.425
36.386
36.348
36.311
36.277
36.244
36.215
36.188
36.164
36.144
36.129
36.118
36.112
36.112
36.117
36.126
36.138
36.152
36.166
36.178
36.187
36.192
36.192
36.185
36.172
36.154
36.131
36.102
36.069
36.033
35.993
35.951
35.906
35.859
35.81
35.762
35.714
35.667
35.621
35.577
35.534
35.494
35.455
35.419
35.383
35.348
35.312
35.275
35.238
35.2
35.162
35.124
35.086
35.049
35.011
34.973
34.935
34.898
34.86
34.824
34.787
34.752
34.718
34.685
34.653
34.623
34.593
34.563
34.533
34.501
34.467
34.431
34.392
34.35
34.306
34.259
34.211
34.161
34.112
34.063
34.014
33.967
33.92
33.875
33.83
33.789
33.751
33.717
33.69
33.669
33.658
33.656
33.667
33.691
33.73
33.786
33.86
33.952
34.063
34.192
34.338
34.502
34.681
34.876
35.084
35.305
35.535
35.773
36.015
36.258
36.499
36.736
36.967
37.189
37.401
37.599
37.784
37.952
38.103
38.234
38.347
38.44
38.515
38.573
38.615
38.644
38.66
38.667
38.666
38.657
38.641
38.619
38.591
38.556
38.516
38.47
38.418
38.36
38.298
38.23
38.156
38.078
37.994
37.907
37.815
37.721
37.625
37.53
37.437
37.346
37.26
37.177
37.099
37.026
36.958
36.895
36.837
36.783
36.733
36.686
36.642
36.598
36.555
36.51
36.465
36.419
36.372
36.325
36.28
36.237
36.196
36.159
36.124
36.094
36.066
36.042
36.022
36.006
35.993
35.983
35.974
35.967
35.959
35.95
35.939
35.924
35.907
35.885
35.86
35.831
35.799
35.764
35.727
35.687
35.645
35.601
35.556
35.509
35.46
35.41
35.359
35.308
35.257
35.206
35.157
35.109
35.062
35.017
34.973
34.928
34.883
34.837
34.789
34.741
34.691
34.641
34.593
34.547
34.504
34.466
34.431
34.4
34.372
34.347
34.325
34.302
34.279
34.254
34.227
34.196
34.162
34.124
34.082
34.036
33.988
33.936
33.882
33.826
33.769
33.711
33.653
33.597
33.543
33.491
33.441
33.394
33.35
33.309
33.271
33.234
33.201
33.17
33.141
33.115
33.093
33.073
33.056
33.043
33.035
33.032
33.035
33.047
33.068
33.101
33.148
33.209
33.288
33.384
33.499
33.632
33.784
33.953
34.139
34.339
34.552
34.776
35.007
35.243
35.481
35.717
35.949
36.174
36.389
36.591
36.778
36.948
37.099
37.231
37.344
37.437
37.511
37.567
37.606
37.629
37.637
37.632
37.615
37.588
37.554
37.514
37.47
37.423
37.373
37.322
37.269
37.216
37.162
37.107
37.051
36.993
36.934
36.874
36.811
36.744
36.673
36.599
36.519
36.434
36.346
36.253
36.158
36.061
35.964
35.869
35.776
35.686
35.601
35.522
35.448
35.381
35.319
35.264
35.214
35.168
35.126
35.088
35.053
35.02
34.989
34.96
34.934
34.91
34.89
34.872
34.859
34.85
34.847
34.848
34.855
34.865
34.879
34.894
34.909
34.922
34.933
34.939
34.94
34.935
34.923
34.905
34.879
34.848
34.812
34.772
34.73
34.685
34.641
34.596
34.553
34.511
34.47
34.431
34.394
34.358
34.323
34.289
34.254
34.219
34.183
34.145
34.107
34.068
34.029
33.99
33.952
33.916
33.881
33.849
33.821
33.797
33.777
33.761
33.75
33.742
33.737
33.733
33.73
33.726
33.719
33.709
33.695
33.678
33.655
33.629
33.597
33.56
33.519
33.474
33.425
33.374
33.322
33.27
33.22
33.173
33.13
33.092
33.059
33.032
33.011
32.994
32.981
32.973
32.968
32.968
32.975
32.991
33.017
33.056
33.11
33.181
33.27
33.378
33.505
33.65
33.812
33.99
34.18
34.379
34.584
34.791
34.997
35.2
35.395
35.582
35.757
35.918
36.063
36.191
36.3
36.389
36.459
36.51
36.544
36.564
36.571
36.57
36.56
36.543
36.52
36.492
36.459
36.42
36.376
36.326
36.269
36.205
36.135
36.06
35.979
35.893
35.804
35.712
35.617
35.522
35.427
35.333
35.241
35.154
35.072
34.994
34.922
34.856
34.793
34.735
34.681
34.628
34.577
34.528
34.478
34.429
34.38
34.33
34.279
34.226
34.172
34.116
34.06
34.003
33.948
33.894
33.843
33.796
33.752
33.712
33.675
33.641
33.609
33.578
33.548
33.52
33.493
33.468
33.444
33.422
33.401
33.382
33.366
33.354
33.346
33.345
33.349
33.36
33.375
33.394
33.414
33.435
33.455
33.471
33.482
33.485
33.48
33.466
33.444
33.414
33.378
33.336
33.289
33.24
33.189
33.138
33.087
33.037
32.988
32.94
32.895
32.852
32.814
32.779
32.749
32.723
32.702
32.685
32.67
32.658
32.647
32.636
32.625
32.613
32.6
32.584
32.566
32.546
32.523
32.498
32.469
32.438
32.404
32.368
32.33
32.291
32.249
32.207
32.163
32.12
32.076
32.033
31.991
31.952
31.917
31.889
31.87
31.862
31.867
31.888
31.926
31.984
32.062
32.161
32.282
32.422
32.58
32.753
32.939
33.134
33.336
33.541
33.746
33.948
34.144
34.332
34.508
34.672
34.821
34.955
35.072
35.171
35.253
35.317
35.365
35.396
35.413
35.417
35.409
35.39
35.362
35.327
35.286
35.24
35.189
35.136
35.082
35.029
34.978
34.933
34.895
34.863
34.84
34.823
34.814
34.811
34.812
34.817
34.824
34.83
34.836
34.839
34.838
34.834
34.825
34.813
34.797
34.777
34.756
34.733
34.711
34.691
34.674
34.661
34.654
34.652
34.654
34.661
34.669
34.677
34.685
34.689
34.69
34.685
34.675
34.659
34.639
34.614
34.587
34.559
34.53
34.503
34.477
34.455
34.437
34.423
34.413
34.406
34.402
34.399
34.396
34.393
34.387
34.378
34.365
34.346
34.32
34.287
34.248
34.205
34.158
34.109
34.061
34.016
33.974
33.936
33.904
33.878
33.857
33.841
33.829
33.818
33.807
33.795
33.78
33.76
33.735
33.703
33.666
33.622
33.573
33.52
33.463
33.403
33.343
33.283
33.224
33.168
33.115
33.065
33.02
32.98
32.943
32.91
32.881
32.854
32.829
32.807
32.785
32.764
32.743
32.722
32.702
32.682
32.664
32.648
32.635
32.626
32.619
32.617
32.62
32.627
32.639
32.656
32.68
32.709
32.746
32.792
32.847
32.915
32.995
33.088
33.196
33.318
33.454
33.603
33.763
33.933
34.11
34.291
34.475
34.658
34.837
35.012
35.179
35.336
35.484
35.62
35.744
35.856
35.957
36.047
36.125
36.193
36.249
36.296
36.332
36.36
36.38
36.393
36.401
36.404
36.402
36.396
36.386
36.371
36.351
36.326
36.297
36.264
36.228
36.19
36.149
36.108
36.064
36.019
35.971
35.922
35.871
35.817
35.76
35.702
35.642
35.581
35.521
35.461
35.403
35.346
35.292
35.239
35.188
35.14
35.093
35.048
35.005
34.964
34.924
34.887
34.852
34.818
34.787
34.758
34.731
34.705
34.681
34.658
34.637
34.618
34.602
34.59
34.581
34.575
34.572
34.572
34.575
34.579
34.584
34.589
34.592
34.593
34.59
34.585
34.577
34.567
34.554
34.54
34.525
34.51
34.493
34.476
34.458
34.439
34.42
34.4
34.379
34.358
34.336
34.312
34.287
34.258
34.226
34.188
34.145
34.097
34.042
33.981
33.916
33.847
33.776
33.704
33.634
33.566
33.503
33.447
33.397
33.355
33.32
33.292
33.271
33.256
33.247
33.244
33.244
33.248
33.255
33.263
33.272
33.28
33.287
33.291
33.29
33.285
33.274
33.256
33.232
33.202
33.168
33.129
33.088
33.045
33.003
32.962
32.924
32.89
32.859
32.833
32.81
32.793
32.779
32.768
32.762
32.759
32.76
32.767
32.779
32.798
32.827
32.868
32.923
32.994
33.081
33.186
33.308
33.447
33.602
33.77
33.948
34.135
34.325
34.518
34.709
34.896
35.076
35.247
35.408
35.558
35.694
35.816
35.925
36.018
36.099
36.166
36.223
36.268
36.304
36.331
36.348
36.357
36.356
36.347
36.331
36.306
36.275
36.238
36.194
36.146
36.093
36.036
35.978
35.918
35.86
35.803
35.75
35.702
35.659
35.622
35.59
35.564
35.543
35.525
35.511
35.498
35.486
35.474
35.462
35.448
35.431
35.41
35.383
35.352
35.315
35.273
35.227
35.176
35.123
35.068
35.014
34.96
34.91
34.864
34.822
34.788
34.761
34.742
34.73
34.725
34.727
34.735
34.748
34.764
34.783
34.803
34.823
34.843
34.861
34.878
34.892
34.902
34.909
34.911
34.908
34.899
34.885
34.867
34.845
34.819
34.79
34.759
34.725
34.69
34.654
34.617
34.582
34.549
34.519
34.492
34.468
34.448
34.43
34.416
34.405
34.397
34.391
34.388
34.385
34.383
34.382
34.381
34.379
34.377
34.374
34.369
34.363
34.354
34.343
34.327
34.308
34.283
34.254
34.22
34.181
34.138
34.091
34.042
33.991
33.94
33.888
33.838
33.79
33.744
33.701
33.661
33.622
33.585
33.549
33.513
33.478
33.442
33.405
33.367
33.328
33.289
33.249
33.211
33.174
33.14
33.11
33.084
33.064
33.05
33.042
33.041
33.049
33.068
33.097
33.14
33.196
33.266
33.351
33.451
33.566
33.695
33.837
33.992
34.158
34.333
34.516
34.703
34.895
35.087
35.278
35.465
35.645
35.818
35.978
36.125
36.257
36.372
36.47
36.549
36.611
36.656
36.686
36.703
36.706
36.699
36.683
36.661
36.634
36.605
36.575
36.545
36.515
36.486
36.458
36.43
36.401
36.371
36.34
36.306
36.27
36.231
36.188
36.141
36.091
36.038
35.983
35.928
35.873
35.821
35.772
35.727
35.686
35.648
35.613
35.579
35.546
35.513
35.479
35.445
35.41
35.375
35.341
35.308
35.276
35.247
35.221
35.199
35.181
35.17
35.165
35.166
35.174
35.187
35.205
35.226
35.249
35.273
35.295
35.316
35.335
35.351
35.362
35.368
35.368
35.363
35.351
35.333
35.31
35.284
35.256
35.228
35.2
35.173
35.148
35.125
35.103
35.084
35.066
35.049
35.034
35.02
35.006
34.993
34.979
34.963
34.946
34.927
34.906
34.883
34.859
34.833
34.805
34.776
34.745
34.713
34.681
34.65
34.62
34.593
34.568
34.545
34.524
34.506
34.489
34.474
34.459
34.444
34.428
34.411
34.391
34.367
34.338
34.305
34.268
34.225
34.179
34.129
34.076
34.021
33.964
33.908
33.854
33.804
33.762
33.728
33.705
33.694
33.696
33.713
33.744
33.79
33.851
33.927
34.017
34.121
34.238
34.365
34.502
34.647
34.797
34.95
35.105
35.259
35.411
35.56
35.703
35.841
35.971
36.094
36.207
36.312
36.406
36.491
36.566
36.631
36.687
36.731
36.766
36.792
36.808
36.816
36.817
36.812
36.802
36.788
36.769
36.747
36.722
36.693
36.662
36.628
36.591
36.553
36.512
36.469
36.423
36.375
36.323
36.268
36.212
36.154
36.097
36.041
35.986
35.935
35.886
35.84
35.797
35.756
35.717
35.679
35.642
35.606
35.571
35.536
35.502
35.469
35.436
35.403
35.371
35.338
35.306
35.274
35.244
35.215
35.187
35.161
35.137
35.114
35.093
35.075
35.059
35.045
35.033
35.022
35.011
35.002
34.994
34.986
34.979
34.974
34.97
34.968
34.968
34.969
34.971
34.974
34.979
34.984
34.99
34.996
35.001
35.004
35.006
35.004
35.0
34.992
34.979
34.962
34.941
34.914
34.882
34.846
34.805
34.76
34.713
34.663
34.614
34.566
34.522
34.482
34.447
34.418
34.393
34.374
34.358
34.346
34.335
34.325
34.313
34.298
34.28
34.258
34.232
34.201
34.165
34.125
34.081
34.034
33.985
33.936
33.889
33.843
33.801
33.764
33.731
33.703
33.681
33.663
33.65
33.641
33.635
33.634
33.636
33.644
33.657
33.677
33.706
33.747
33.8
33.869
33.954
34.056
34.176
34.313
34.466
34.632
34.809
34.994
35.185
35.377
35.569
35.756
35.937
36.108
36.269
36.418
36.554
36.677
36.788
36.887
36.975
37.052
37.121
37.182
37.233
37.276
37.31
37.334
37.348
37.353
37.348
37.335
37.314
37.286
37.252
37.213
37.17
37.123
37.074
37.024
36.973
36.923
36.875
36.829
36.786
36.746
36.708
36.671
36.635
36.597
36.559
36.519
36.477
36.431
36.382
36.33
36.274
36.216
36.155
36.091
36.027
35.962
35.898
35.836
35.779
35.727
35.68
35.64
35.605
35.577
35.555
35.539
35.529
35.522
35.52
35.519
35.52
35.523
35.527
35.532
35.538
35.544
35.552
35.56
35.568
35.576
35.584
35.592
35.599
35.604
35.608
35.609
35.607
35.601
35.591
35.575
35.553
35.527
35.495
35.459
35.419
35.376
35.33
35.283
35.236
35.189
35.144
35.1
35.058
35.019
34.981
34.946
34.912
34.879
34.846
34.814
34.782
34.749
34.715
34.681
34.648
34.615
34.583
34.553
34.525
34.499
34.476
34.455
34.435
34.415
34.396
34.376
34.355
34.333
34.309
34.284
34.257
34.229
34.201
34.171
34.14
34.109
34.076
34.042
34.007
33.971
33.933
33.895
33.856
33.818
33.779
33.742
33.707
33.674
33.644
33.618
33.596
33.58
33.571
33.569
33.575
33.592
33.619
33.66
33.716
33.787
33.875
33.978
34.099
34.235
34.387
34.552
34.729
34.915
35.107
35.304
35.502
35.699
35.89
36.074
36.249
36.413
36.566
36.706
36.834
36.949
37.052
37.141
37.219
37.286
37.34
37.383
37.415
37.436
37.448
37.45
37.444
37.431
37.411
37.385
37.353
37.317
37.276
37.231
37.184
37.136
37.087
37.039
36.992
36.946
36.903
36.862
36.822
36.784
36.746
36.709
36.67
36.63
36.587
36.541
36.494
36.444
36.392
36.339
36.286
36.233
36.181
36.131
36.084
36.039
35.999
35.963
35.931
35.904
35.88
35.86
35.843
35.827
35.812
35.797
35.783
35.77
35.758
35.747
35.737
35.728
35.72
35.713
35.707
35.703
35.7
35.698
35.698
35.697
35.697
35.695
35.691
35.684
35.673
35.658
35.639
35.617
35.592
35.565
35.535
35.503
35.471
35.439
35.406
35.374
35.342
35.31
35.279
35.248
35.217
35.185
35.154
35.124
35.094
35.065
35.038
35.011
34.985
34.959
34.933
34.906
34.879
34.852
34.827
34.803
34.781
34.76
34.74
34.72
34.7
34.679
34.657
34.634
34.609
34.581
34.55
34.517
34.481
34.443
34.404
34.364
34.325
34.287
34.251
34.216
34.182
34.151
34.121
34.094
34.069
34.046
34.026
34.008
33.991
33.976
33.962
33.948
33.933
33.915
33.895
33.871
33.844
33.814
33.781
33.746
33.709
33.674
33.64
33.611
33.59
33.579
33.58
33.595
33.627
33.676
33.744
33.831
33.936
34.058
34.193
34.342
34.5
34.665
34.834
35.005
35.177
35.346
35.512
35.673
35.829
35.979
36.121
36.254
36.379
36.494
36.599
36.694
36.778
36.85
36.911
36.959
36.995
37.018
37.029
37.029
37.018
36.998
36.97
36.935
36.894
36.85
36.803
36.755
36.708
36.661
36.616
36.574
36.534
36.498
36.465
36.433
36.403
36.372
36.34
36.307
36.271
36.232
36.191
36.146
36.099
36.049
35.998
35.946
35.893
35.84
35.788
35.737
35.688
35.641
35.596
35.555
35.517
35.482
35.451
35.423
35.399
35.378
35.36
35.345
35.332
35.322
35.313
35.306
35.301
35.298
35.295
35.294
35.294
35.294
35.296
35.297
35.299
35.301
35.304
35.308
35.312
35.317
35.321
35.325
35.326
35.325
35.32
35.312
35.298
35.279
35.254
35.223
35.188
35.148
35.105
35.06
35.014
34.968
34.922
34.877
34.833
34.792
34.752
34.715
34.682
34.652
34.626
34.603
34.584
34.567
34.554
34.541
34.53
34.519
34.507
34.495
34.482
34.468
34.454
34.439
34.424
34.407
34.389
34.369
34.348
34.325
34.3
34.273
34.245
34.216
34.187
34.158
34.129
34.103
34.079
34.058
34.039
34.022
34.007
33.993
33.981
33.968
33.955
33.94
33.925
33.91
33.894
33.879
33.865
33.852
33.841
33.833
33.831
33.835
33.848
33.872
33.91
33.962
34.031
34.118
34.223
34.347
34.488
34.644
34.812
34.991
35.175
35.364
35.553
35.74
35.924
36.102
36.272
36.434
36.586
36.728
36.859
36.98
37.091
37.191
37.282
37.361
37.431
37.49
37.537
37.573
37.596
37.608
37.608
37.596
37.573
37.54
37.497
37.446
37.39
37.328
37.264
37.198
37.131
37.064
36.998
36.933
36.869
36.807
36.745
36.684
36.623
36.563
36.503
36.444
36.385
36.326
36.267
36.208
36.151
36.095
36.042
35.991
35.944
35.9
35.859
35.823
35.789
35.757
35.728
35.699
35.671
35.645
35.619
35.596
35.574
35.556
35.542
35.532
35.527
35.526
35.53
35.538
35.551
35.566
35.584
35.604
35.623
35.642
35.66
35.674
35.684
35.69
35.691
35.686
35.676
35.661
35.641
35.617
35.59
35.559
35.525
35.488
35.45
35.411
35.371
35.331
35.29
35.249
35.208
35.169
35.131
35.095
35.062
35.033
35.007
34.985
34.966
34.951
34.937
34.923
34.91
34.896
34.879
34.86
34.837
34.811
34.783
34.752
34.719
34.687
34.656
34.627
34.599
34.573
34.549
34.525
34.501
34.476
34.45
34.422
34.392
34.358
34.321
34.281
34.24
34.196
34.152
34.108
34.063
34.02
33.978
