Trial 1:0back
33.822
33.766
33.709
33.653
33.598
33.542
33.487
33.432
33.379
33.326
33.276
33.228
33.184
33.141
33.099
33.058
33.017
32.978
32.938
32.899
32.858
32.816
32.773
32.728
32.682
32.636
32.59
32.546
32.504
32.462
32.423
32.385
32.349
32.316
32.285
32.258
32.232
32.208
32.185
32.16
32.135
32.109
32.081
32.05
32.017
31.984
31.952
31.922
31.895
31.873
31.855
31.842
31.834
31.831
31.836
31.85
31.873
31.91
31.959
32.024
32.106
32.204
32.321
32.46
32.625
32.824
33.066
33.358
33.706
34.112
34.575
35.089
35.643
36.228
36.829
37.432
38.022
38.587
39.113
39.589
40.008
40.361
40.646
40.859
41.004
41.084
41.105
41.074
40.998
40.885
40.742
40.578
40.399
40.214
40.028
39.845
39.668
39.5
39.341
39.191
39.051
38.92
38.797
38.681
38.57
38.463
38.357
38.252
38.146
38.039
37.93
37.818
37.705
37.59
37.474
37.358
37.242
37.126
37.01
36.896
36.782
36.67
36.561
36.454
36.351
36.252
36.158
36.068
35.983
35.903
35.829
35.76
35.697
35.641
35.591
35.545
35.505
35.469
35.437
35.409
35.384
35.362
35.343
35.326
35.311
35.298
35.286
35.276
35.265
35.253
35.239
35.225
35.208
35.188
35.166
35.142
35.116
35.088
35.058
35.025
34.99
34.954
34.915
34.875
34.834
34.793
34.75
34.705
34.658
34.608
34.558
34.506
34.453
34.399
34.343
34.286
34.228
34.168
34.107
34.046
33.985
33.924
33.864
33.805
33.747
33.691
33.638
33.587
33.539
33.493
33.448
33.404
33.36
33.314
33.267
33.218
33.169
33.119
33.069
33.019
32.97
32.922
32.876
32.833
32.792
32.755
32.719
32.685
32.652
32.62
32.59
32.562
32.536
32.512
32.49
32.467
32.444
32.42
32.395
32.371
32.346
32.321
32.296
32.269
32.242
32.213
32.184
32.155
32.126
32.095
32.063
32.028
31.992
31.955
31.919
31.886
31.856
31.832
31.815
31.804
31.802
31.811
31.831
31.865
31.913
31.976
32.056
32.153
32.269
32.405
32.563
32.747
32.963
33.217
33.518
33.87
34.276
34.731
35.228
35.759
36.31
36.871
37.428
37.965
38.471
38.933
39.343
39.694
39.982
40.208
40.371
40.473
40.519
40.512
40.46
40.37
40.249
40.105
39.944
39.772
39.594
39.415
39.24
39.072
38.911
38.76
38.619
38.486
38.361
38.244
38.135
38.03
37.927
37.825
37.722
37.619
37.516
37.413
37.309
37.205
37.102
37.0
36.9
36.801
36.703
36.607
36.512
36.418
36.325
36.234
36.145
36.057
35.97
35.886
35.805
35.728
35.656
35.589
35.527
35.471
35.422
35.38
35.346
35.318
35.296
35.278
35.264
35.253
35.244
35.237
35.23
35.223
35.214
35.204
35.191
35.174
35.154
35.131
35.104
35.075
35.042
35.008
34.972
34.935
34.897
34.86
34.823
34.789
34.756
34.725
34.693
34.662
34.629
34.596
34.561
34.524
34.486
34.447
34.405
34.361
34.313
34.262
34.208
34.151
34.093
34.034
33.976
33.919
33.863
33.809
33.755
33.705
33.657
33.611
33.568
33.527
33.487
33.448
33.407
33.363
33.317
33.268
33.217
33.164
33.11
33.055
33.001
32.948
32.898
32.851
32.809
32.771
32.737
32.704
32.674
32.646
32.62
32.596
32.572
32.549
32.526
32.502
32.476
32.449
32.421
32.394
32.365
32.336
32.308
32.279
32.25
32.22
32.192
32.165
32.141
32.118
32.096
32.074
32.053
32.033
32.013
31.994
31.977
31.961
31.948
31.937
31.932
31.933
31.941
31.959
31.987
32.028
32.084
32.157
32.247
32.355
32.483
32.634
32.811
33.023
33.276
33.58
33.94
34.359
34.833
35.355
35.915
36.499
37.093
37.681
38.25
38.785
39.276
39.713
40.088
40.396
40.636
40.809
40.917
40.964
40.957
40.902
40.806
40.677
40.522
40.35
40.166
39.976
39.785
39.594
39.408
39.229
39.057
38.895
38.741
38.596
38.458
38.327
38.204
38.086
37.972
37.862
37.754
37.648
37.542
37.437
37.332
37.228
37.128
37.031
36.938
36.848
36.76
36.673
36.586
36.498
36.409
36.319
36.228
36.138
36.051
35.966
35.886
35.808
35.735
35.667
35.604
35.547
35.496
35.45
35.411
35.379
35.352
35.33
35.313
35.302
35.296
35.293
35.293
35.295
35.297
35.297
35.293
35.287
35.278
35.266
35.25
35.231
35.208
35.182
35.15
35.115
35.075
35.032
34.987
34.94
34.892
34.844
34.795
34.747
34.699
34.652
34.606
34.561
34.518
34.475
34.431
34.386
34.341
34.295
34.248
34.2
34.151
34.1
34.045
33.986
33.923
33.857
33.79
33.723
33.658
33.594
33.532
33.473
33.414
33.356
33.298
33.241
33.185
33.13
33.077
33.025
32.975
32.926
32.88
32.836
32.794
32.755
32.717
32.68
32.643
32.608
32.575
32.543
32.513
32.484
32.457
32.43
32.403
32.375
32.345
32.315
32.284
32.254
32.223
32.192
32.162
32.133
32.104
32.072
32.033
31.989
31.941
31.891
31.842
31.796
31.756
31.722
31.696
31.68
31.676
31.683
31.703
31.736
31.782
31.843
31.919
32.011
32.118
32.24
32.379
32.536
32.712
32.912
33.141
33.405
33.71
34.059
34.453
34.889
35.361
35.856
36.364
36.871
37.363
37.829
38.256
38.636
38.962
39.229
39.435
39.579
39.664
39.696
39.679
39.619
39.523
39.397
39.25
39.088
38.918
38.745
38.574
38.408
38.251
38.103
37.966
37.839
37.721
37.611
37.507
37.406
37.309
37.215
37.121
37.026
36.93
36.833
36.736
36.636
36.536
36.434
36.333
36.233
36.135
36.038
35.944
35.852
35.763
35.677
35.593
35.514
35.441
35.373
35.31
35.251
35.195
35.143
35.094
35.048
35.006
34.97
34.939
34.913
34.89
34.871
34.854
34.841
34.83
34.822
34.817
34.814
34.813
34.812
34.81
34.808
34.805
34.802
34.798
34.793
34.785
34.775
34.762
34.746
34.73
34.713
34.694
34.673
34.649
34.622
34.593
34.561
34.525
34.485
34.441
34.395
34.347
34.298
34.25
34.202
34.155
34.11
34.065
34.021
33.979
33.936
33.892
33.847
33.8
33.752
33.703
33.654
33.605
33.557
33.512
33.47
33.43
33.392
33.356
33.32
33.285
33.25
33.215
33.178
33.139
33.1
33.06
33.02
32.982
32.945
32.91
32.876
32.845
32.816
32.787
32.758
32.728
32.699
32.669
32.64
32.611
32.583
32.556
32.529
32.503
32.477
32.451
32.425
32.399
32.372
32.346
32.321
32.299
32.282
32.27
32.264
32.267
32.279
32.3
32.333
32.377
32.435
32.507
32.593
32.695
32.812
32.945
33.095
33.262
33.448
33.653
33.88
34.13
34.407
34.713
35.048
35.411
35.796
36.194
36.596
36.992
37.373
37.729
38.051
38.333
38.568
38.755
38.891
38.977
39.016
39.011
38.967
38.891
38.789
38.668
38.533
38.388
38.237
38.082
37.929
37.779
37.635
37.499
37.372
37.254
37.146
37.045
36.952
36.865
36.784
36.708
36.636
36.568
36.501
36.434
36.367
36.298
36.226
36.15
36.071
35.99
35.907
35.822
35.735
35.649
35.563
35.48
35.4
35.325
35.257
35.197
35.143
35.097
35.059
35.027
35.002
34.984
34.971
34.963
34.96
34.96
34.962
34.965
34.967
34.97
34.971
34.97
34.967
34.963
34.955
34.943
34.927
34.907
34.884
34.859
34.834
34.808
34.783
34.759
34.734
34.71
34.686
34.663
34.64
34.617
34.594
34.569
34.543
34.514
34.481
34.446
34.41
34.372
34.334
34.295
34.254
34.213
34.17
34.126
34.082
34.038
33.994
33.95
33.906
33.86
33.813
33.767
33.72
33.673
33.627
33.583
33.542
33.504
33.467
33.43
33.393
33.357
33.321
33.285
33.249
33.213
33.178
33.143
33.111
33.081
33.055
33.031
33.007
32.983
32.958
32.931
32.902
32.868
32.83
32.789
32.746
32.699
32.652
32.604
32.558
32.515
32.476
32.442
32.412
32.385
32.364
32.346
32.333
32.325
32.322
32.327
32.339
32.362
32.397
32.445
32.507
32.585
32.679
32.791
32.924
33.076
33.251
33.451
33.683
33.955
34.274
34.645
35.067
35.536
36.045
36.581
37.131
37.683
38.221
38.731
39.201
39.62
39.981
40.28
40.513
40.681
40.787
40.833
40.824
40.768
40.672
40.545
40.394
40.227
40.048
39.864
39.679
39.496
39.319
39.149
38.987
38.835
38.692
38.558
38.434
38.318
38.21
38.108
38.01
37.914
37.82
37.725
37.631
37.537
37.443
37.348
37.254
37.159
37.063
36.966
36.867
36.766
36.665
36.564
36.463
36.364
36.268
36.174
36.082
35.993
35.908
35.828
35.754
35.688
35.631
35.583
35.545
35.514
35.489
35.47
35.456
35.445
35.437
35.427
35.416
35.403
35.387
35.368
35.347
35.324
35.299
35.274
35.248
35.223
35.198
35.172
35.147
35.122
35.096
35.072
35.048
35.024
34.999
34.973
34.946
34.917
34.885
34.85
34.811
34.768
34.723
34.675
34.623
34.568
34.51
34.45
34.389
34.327
34.265
34.204
34.143
34.084
34.027
33.972
33.92
33.871
33.823
33.776
33.731
33.687
33.645
33.604
33.563
33.523
33.483
33.442
33.401
33.36
33.319
33.279
33.24
33.201
33.163
33.125
33.087
33.048
33.009
32.97
32.933
32.897
32.861
32.825
32.79
32.757
32.725
32.693
32.662
32.632
32.604
32.578
32.554
32.531
32.509
32.487
32.465
32.444
32.424
32.405
32.387
32.372
32.36
32.353
32.353
32.361
32.378
32.405
32.445
32.5
32.569
32.655
32.759
32.882
33.027
33.196
33.392
33.62
33.887
34.198
34.555
34.961
35.411
35.897
36.409
36.934
37.458
37.967
38.45
38.894
39.289
39.629
39.909
40.125
40.278
40.37
40.405
40.39
40.332
40.237
40.112
39.966
39.803
39.632
39.455
39.28
39.109
38.945
38.792
38.649
38.517
38.397
38.286
38.183
38.084
37.988
37.893
37.799
37.707
37.615
37.523
37.432
37.34
37.245
37.149
37.051
36.954
36.857
36.762
36.668
36.577
36.488
36.402
36.317
36.235
36.154
36.076
36.002
35.931
35.864
35.804
35.752
35.707
35.668
35.634
35.606
35.582
35.563
35.546
35.532
35.519
35.506
35.492
35.478
35.462
35.446
35.43
35.414
35.398
35.382
35.367
35.35
35.332
35.312
35.291
35.27
35.246
35.219
35.189
35.156
35.12
35.082
35.043
35.005
34.967
34.929
34.893
34.855
34.818
34.78
34.742
34.703
34.664
34.625
34.586
34.545
34.501
34.456
34.409
34.36
34.309
34.256
34.2
34.143
34.087
34.031
33.977
33.924
33.874
33.826
33.779
33.735
33.691
33.65
33.608
33.567
33.526
33.486
33.447
33.408
33.369
33.329
33.289
33.249
33.206
33.163
33.118
33.074
33.03
32.987
32.945
32.906
32.869
32.834
32.801
32.771
32.743
32.717
32.693
32.67
32.648
32.629
32.61
32.593
32.575
32.559
32.543
32.53
32.517
32.505
32.495
32.487
32.481
32.479
32.482
32.491
32.51
32.538
32.58
32.636
32.709
32.8
32.91
33.042
33.198
33.382
33.603
33.866
34.18
34.549
34.974
35.449
35.967
36.514
37.079
37.646
38.2
38.727
39.215
39.653
40.035
40.354
40.606
40.792
40.913
40.972
40.974
40.925
40.833
40.706
40.554
40.385
40.205
40.02
39.836
39.655
39.479
39.31
39.15
39.0
38.86
38.729
38.606
38.492
38.385
38.283
38.184
38.086
37.988
37.889
37.789
37.688
37.587
37.485
37.383
37.279
37.174
37.065
36.955
36.844
36.734
36.626
36.521
36.421
36.326
36.238
36.157
36.084
36.018
35.96
35.909
35.865
35.827
35.795
35.768
35.744
35.724
35.705
35.687
35.67
35.653
35.634
35.616
35.596
35.576
35.555
35.533
35.512
35.49
35.47
35.45
35.432
35.414
35.396
35.377
35.358
35.337
35.316
35.293
35.268
35.241
35.21
35.175
35.137
35.095
35.05
35.001
34.951
34.898
34.843
34.787
34.732
34.678
34.627
34.579
34.534
34.493
34.455
34.418
34.38
34.343
34.304
34.263
34.219
34.173
34.122
34.068
34.01
33.95
33.889
33.827
33.768
33.71
33.653
33.601
33.552
33.508
33.468
33.43
33.395
33.362
33.33
33.299
33.268
33.235
33.2
33.164
33.128
33.09
33.053
33.014
32.975
32.935
32.896
32.857
32.819
32.781
32.745
32.71
32.679
32.65
32.625
32.602
32.582
32.563
32.547
32.533
32.521
32.51
32.501
32.492
32.483
32.476
32.47
32.468
32.469
32.476
32.489
32.511
32.543
32.585
32.641
32.711
32.797
32.9
33.019
33.156
33.311
33.487
33.686
33.914
34.176
34.479
34.825
35.215
35.642
36.101
36.581
37.069
37.552
38.017
38.454
38.853
39.204
39.502
39.742
39.923
40.046
40.111
40.124
40.089
40.015
39.908
39.776
39.625
39.463
39.295
39.125
38.958
38.794
38.636
38.485
38.344
38.212
38.091
37.979
37.876
37.78
37.688
37.599
37.513
37.427
37.341
37.255
37.168
37.079
36.989
36.898
36.805
36.712
36.618
36.524
36.431
36.339
36.25
36.166
36.085
36.01
35.938
35.872
35.811
35.756
35.708
35.667
35.633
35.604
35.58
35.559
35.541
35.525
35.512
35.5
35.489
35.478
35.469
35.461
35.454
35.447
35.441
35.435
35.43
35.424
35.418
35.411
35.402
35.39
35.372
35.35
35.322
35.29
35.256
35.218
35.179
35.14
35.101
35.062
35.022
34.981
34.939
34.897
34.853
34.809
34.765
34.72
34.676
34.632
34.589
34.548
34.507
34.466
34.425
34.383
34.34
34.296
34.251
34.204
34.154
34.101
34.046
33.99
33.931
33.871
33.811
33.753
33.697
33.645
33.597
33.554
33.514
33.477
33.442
33.41
33.378
33.348
33.318
33.288
33.257
33.225
33.191
33.156
33.119
33.083
33.047
33.014
32.982
32.951
32.92
32.889
32.859
32.83
32.801
32.774
32.748
32.722
32.695
32.669
32.642
32.616
32.59
32.565
32.541
32.52
32.503
32.49
32.484
32.488
32.505
32.536
32.582
32.645
32.725
32.822
32.937
33.07
33.22
33.385
33.564
33.755
33.956
34.167
34.387
34.616
34.854
35.101
35.357
35.623
35.898
36.18
36.465
36.75
37.03
37.3
37.554
37.788
37.998
38.178
38.326
38.44
38.519
38.564
38.575
38.553
38.503
38.428
38.334
38.224
38.104
37.977
37.845
37.713
37.582
37.454
37.331
37.214
37.106
37.004
36.908
36.818
36.732
36.651
36.573
36.498
36.424
36.351
36.279
36.205
36.132
36.058
35.983
35.91
35.838
35.768
35.702
35.641
35.584
35.532
35.483
35.437
35.395
35.357
35.322
35.291
35.262
35.237
35.213
35.193
35.175
35.16
35.148
35.138
35.132
35.128
35.128
35.129
35.132
35.134
35.136
35.138
35.138
35.137
35.134
35.13
35.124
35.114
35.102
35.087
35.07
35.05
35.028
35.003
34.978
34.952
34.925
34.898
34.871
34.843
34.816
34.788
34.759
34.729
34.697
34.662
34.625
34.585
34.543
34.498
34.452
34.403
34.353
34.302
34.252
34.201
34.15
34.098
34.048
34.0
33.954
33.911
33.87
33.832
33.797
33.765
33.735
33.707
33.68
33.653
33.624
33.595
33.565
33.534
33.503
33.47
33.435
33.399
33.363
33.327
33.29
33.253
33.217
33.182
33.149
33.118
33.087
33.057
33.028
33.001
32.973
32.946
32.917
32.888
32.856
32.824
32.793
32.765
32.742
32.726
32.719
32.724
32.743
32.776
32.825
32.889
32.971
33.072
33.192
33.331
33.488
33.664
33.859
34.077
34.321
34.596
34.908
35.259
35.649
36.074
36.528
37.002
37.484
37.961
38.419
38.847
39.233
39.57
39.852
40.077
40.243
40.352
40.405
40.407
40.362
40.279
40.165
40.028
39.874
39.709
39.539
39.37
39.204
39.043
38.889
38.742
38.601
38.468
38.342
38.225
38.116
38.014
37.917
37.824
37.732
37.64
37.548
37.455
37.362
37.267
37.171
37.074
36.974
36.874
36.773
36.673
36.575
36.481
36.389
36.303
36.221
36.144
36.071
36.001
35.936
35.874
35.818
35.767
35.721
35.681
35.645
35.615
35.588
35.564
35.542
35.522
35.502
35.483
35.465
35.448
35.432
35.417
35.404
35.39
35.377
35.365
35.354
35.343
35.332
35.321
35.307
35.291
35.272
35.251
35.228
35.201
35.17
35.135
35.098
35.058
35.015
34.969
34.921
34.872
34.822
34.773
34.724
34.675
34.627
34.579
34.531
34.484
34.438
34.392
34.345
34.298
34.251
34.202
34.153
34.102
34.049
33.995
33.94
33.885
33.829
33.773
33.716
33.659
33.604
33.551
33.501
33.455
33.411
33.369
33.329
33.291
33.254
33.219
33.185
33.152
33.118
33.085
33.05
33.015
32.978
32.941
32.905
32.869
32.834
32.799
32.765
32.733
32.702
32.674
32.646
32.621
32.596
32.571
32.546
32.522
32.5
32.483
32.473
32.472
32.482
32.505
32.544
32.598
32.67
32.761
32.872
33.005
33.16
33.337
33.537
33.762
34.012
34.293
34.608
34.962
35.355
35.783
36.24
36.717
37.202
37.684
38.149
38.585
38.981
39.331
39.626
39.864
40.042
40.163
40.228
40.243
40.211
40.137
40.027
39.888
39.726
39.55
39.367
39.183
39.004
38.832
38.668
38.514
38.371
38.238
38.115
38.001
37.894
37.795
37.703
37.616
37.533
37.453
37.373
37.292
37.209
37.124
37.037
36.95
36.861
36.77
36.679
36.587
36.494
36.402
36.31
36.219
36.13
36.045
35.962
35.881
35.802
35.727
35.656
35.59
35.531
35.48
35.436
35.399
35.369
35.346
35.33
35.321
35.316
35.315
35.315
35.317
35.318
35.318
35.315
35.309
35.3
35.289
35.275
35.26
35.241
35.22
35.197
35.17
35.142
35.112
35.082
35.051
35.02
34.989
34.958
34.928
34.898
34.867
34.836
34.804
34.771
34.737
34.701
34.662
34.619
34.574
34.525
34.474
34.422
34.369
34.317
34.265
34.215
34.167
34.122
34.079
34.04
34.003
33.967
33.931
33.894
33.853
33.81
33.762
33.711
33.656
33.598
33.537
33.475
33.412
33.348
33.285
33.224
33.164
33.108
33.055
33.007
32.965
32.928
32.894
32.863
32.836
32.811
32.789
32.769
32.749
32.729
32.709
32.687
32.665
32.642
32.619
32.596
32.572
32.548
32.524
32.501
32.481
32.466
32.459
32.46
32.472
32.496
32.531
32.58
32.644
32.724
32.822
32.936
33.067
33.216
33.382
33.567
33.772
33.998
34.249
34.529
34.841
35.186
35.564
35.971
36.398
36.837
37.277
37.709
38.121
38.505
38.85
39.15
39.399
39.594
39.732
39.814
39.843
39.825
39.765
39.671
39.548
39.405
39.247
39.079
38.907
38.733
38.563
38.398
38.241
38.093
37.955
37.829
37.714
37.609
37.514
37.425
37.343
37.265
37.19
37.117
37.044
36.971
36.897
36.821
36.742
36.657
36.562
36.459
36.349
36.236
36.124
36.017
35.919
35.833
35.759
35.699
35.652
35.619
35.598
35.588
35.585
35.589
35.598
35.609
35.622
35.635
35.646
35.655
35.661
35.663
35.663
35.661
35.658
35.654
35.648
35.641
35.633
35.625
35.617
35.607
35.597
35.585
35.57
35.553
35.534
35.512
35.486
35.457
35.423
35.387
35.349
35.31
35.269
35.226
35.182
35.137
35.093
35.048
35.002
34.956
34.907
34.855
34.802
34.747
34.69
34.632
34.572
34.51
34.447
34.384
34.322
34.261
34.203
34.148
34.099
34.055
34.016
33.98
33.949
33.92
33.893
33.868
33.844
33.819
33.793
33.764
33.732
33.698
33.66
33.62
33.577
33.53
33.481
33.43
33.378
33.325
33.273
33.223
33.177
33.134
33.094
33.057
33.022
32.988
32.956
32.926
32.898
32.873
32.849
32.827
32.808
32.791
32.78
32.775
32.778
32.792
32.817
32.854
32.902
32.965
33.044
33.142
33.26
33.398
33.556
33.733
33.931
34.15
34.391
34.656
34.949
35.272
35.626
36.01
36.417
36.839
37.266
37.688
38.093
38.469
38.809
39.103
39.348
39.54
39.677
39.761
39.795
39.782
39.727
39.638
39.52
39.38
39.227
39.065
38.9
38.738
38.581
38.432
38.29
38.159
38.038
37.927
37.825
37.732
37.647
37.567
37.492
37.418
37.345
37.27
37.192
37.112
37.029
36.942
36.851
36.756
36.658
36.558
36.457
36.357
36.258
36.161
36.065
35.974
35.888
35.809
35.737
35.672
35.614
35.563
35.519
35.482
35.451
35.426
35.406
35.389
35.376
35.367
35.36
35.358
35.357
35.358
35.361
35.366
35.372
35.378
35.381
35.382
35.38
35.374
35.366
35.354
35.338
35.318
35.293
35.265
35.235
35.204
35.171
35.139
35.105
35.072
35.038
35.006
34.974
34.941
34.905
34.866
34.822
34.776
34.726
34.673
34.617
34.561
34.505
34.451
34.399
34.351
34.306
34.262
34.222
34.183
34.147
34.113
34.079
34.046
34.012
33.979
33.943
33.905
33.865
33.823
33.779
33.735
33.691
33.646
33.601
33.556
33.51
33.465
33.421
33.379
33.339
33.3
33.262
33.225
33.189
33.153
33.119
33.085
33.053
33.023
32.994
32.964
32.935
32.905
32.875
32.845
32.816
32.786
32.757
32.729
32.702
32.677
32.656
32.64
32.634
32.639
32.661
32.699
32.757
32.834
32.932
33.05
33.19
33.351
33.533
33.735
33.958
34.204
34.478
34.782
35.12
35.494
35.9
36.334
36.788
37.249
