Trial 1:0back
33.044
33.227
33.445
33.698
33.985
34.302
34.647
35.015
35.4
35.799
36.207
36.617
37.026
37.429
37.823
38.203
38.566
38.911
39.234
39.535
39.812
40.064
40.292
40.495
40.674
40.83
40.962
41.071
41.159
41.225
41.272
41.3
41.31
41.304
41.283
41.248
41.2
41.142
41.074
40.998
40.915
40.828
40.736
40.642
40.546
40.45
40.353
40.256
40.159
40.062
39.966
39.868
39.771
39.673
39.573
39.473
39.372
39.271
39.169
39.066
38.963
38.858
38.754
38.649
38.544
38.44
38.338
38.239
38.144
38.054
37.971
37.895
37.828
37.771
37.725
37.689
37.665
37.651
37.649
37.656
37.673
37.697
37.729
37.766
37.808
37.853
37.901
37.949
37.998
38.045
38.091
38.134
38.175
38.212
38.245
38.274
38.298
38.319
38.334
38.344
38.349
38.347
38.34
38.325
38.303
38.275
38.239
38.198
38.151
38.099
38.044
37.985
37.924
37.861
37.797
37.733
37.667
37.6
37.533
37.464
37.395
37.326
37.256
37.185
37.114
37.042
36.968
36.894
36.818
36.741
36.663
36.584
36.505
36.427
36.348
36.27
36.193
36.116
36.041
35.966
35.892
35.819
35.746
35.675
35.604
35.536
35.469
35.404
35.341
35.279
35.219
35.161
35.105
35.052
35.001
34.953
34.907
34.863
34.821
34.781
34.742
34.704
34.666
34.63
34.593
34.558
34.522
34.488
34.454
34.42
34.386
34.353
34.319
34.286
34.253
34.221
34.188
34.157
34.125
34.095
34.065
34.037
34.01
33.984
33.959
33.935
33.913
33.891
33.871
33.851
33.833
33.815
33.797
33.78
33.764
33.749
33.735
33.721
33.709
33.696
33.683
33.669
33.654
33.637
33.619
33.598
33.577
33.555
33.532
33.509
33.486
33.462
33.437
33.413
33.389
33.364
33.34
33.316
33.293
33.27
33.247
33.224
33.201
33.178
33.155
33.132
33.109
33.087
33.064
33.04
33.016
32.992
32.966
32.939
32.911
32.882
32.852
32.821
32.789
32.758
32.726
32.694
32.663
32.631
32.6
32.568
32.538
32.507
32.475
32.443
32.41
32.376
32.341
32.306
32.272
32.238
32.207
32.176
32.148
32.122
32.097
32.075
32.055
32.04
32.031
32.03
32.04
32.067
32.114
32.187
32.291
32.43
32.608
32.826
33.087
33.389
33.73
34.107
34.517
34.952
35.408
35.876
36.351
36.826
37.295
37.751
38.191
38.61
39.005
39.373
39.713
40.023
40.302
40.551
40.77
40.96
41.122
41.258
41.37
41.459
41.527
41.574
41.603
41.615
41.609
41.589
41.554
41.506
41.445
41.372
41.288
41.194
41.09
40.98
40.862
40.739
40.612
40.48
40.346
40.21
40.072
39.934
39.796
39.659
39.524
39.39
39.258
39.128
38.999
38.871
38.744
38.616
38.488
38.359
38.23
38.1
37.971
37.843
37.719
37.601
37.489
37.387
37.296
37.217
37.151
37.099
37.061
37.037
37.025
37.026
37.038
37.06
37.093
37.134
37.183
37.239
37.301
37.367
37.436
37.506
37.577
37.648
37.717
37.784
37.847
37.906
37.959
38.006
38.045
38.076
38.099
38.112
38.117
38.114
38.102
38.083
38.059
38.028
37.993
37.953
37.91
37.863
37.812
37.757
37.699
37.637
37.572
37.505
37.435
37.364
37.291
37.218
37.143
37.068
36.992
36.914
36.834
36.753
36.67
36.586
36.502
36.417
36.332
36.249
36.168
36.089
36.012
35.937
35.864
35.793
35.724
35.657
35.592
35.528
35.466
35.405
35.345
35.287
35.229
35.173
35.117
35.063
35.01
34.958
34.908
34.859
34.812
34.764
34.717
34.67
34.622
34.573
34.525
34.476
34.429
34.382
34.338
34.295
34.253
34.214
34.176
34.14
34.106
34.073
34.04
34.009
33.979
33.949
33.921
33.893
33.866
33.839
33.813
33.788
33.765
33.742
33.722
33.702
33.683
33.665
33.647
33.628
33.61
33.592
33.576
33.56
33.546
33.533
33.521
33.51
33.499
33.489
33.479
33.469
33.459
33.449
33.438
33.427
33.415
33.403
33.39
33.376
33.361
33.345
33.327
33.309
33.29
33.269
33.247
33.222
33.196
33.168
33.137
33.105
33.072
33.038
33.004
32.969
32.934
32.898
32.862
32.825
32.787
32.749
32.71
32.67
32.629
32.587
32.547
32.507
32.469
32.434
32.402
32.376
32.355
32.344
32.343
32.356
32.387
32.44
32.52
32.632
32.779
32.966
33.193
33.462
33.771
34.116
34.495
34.902
35.333
35.78
36.237
36.7
37.16
37.613
38.053
38.478
38.882
39.264
39.621
39.951
40.252
40.525
40.768
40.983
41.17
41.33
41.463
41.571
41.656
41.718
41.76
41.783
41.787
41.775
41.746
41.703
41.645
41.574
41.491
41.396
41.29
41.175
41.05
40.918
40.779
40.635
40.488
40.338
40.188
40.038
39.888
39.741
39.596
39.453
39.313
39.176
39.04
38.905
38.771
38.636
38.501
38.365
38.228
38.091
37.953
37.817
37.684
37.554
37.431
37.314
37.207
37.111
37.027
36.957
36.902
36.86
36.833
36.82
36.819
36.831
36.853
36.885
36.926
36.975
37.031
37.093
37.16
37.23
37.302
37.374
37.445
37.514
37.58
37.64
37.695
37.743
37.784
37.817
37.842
37.86
37.869
37.871
37.865
37.852
37.831
37.804
37.769
37.729
37.684
37.633
37.578
37.52
37.457
37.39
37.32
37.246
37.17
37.091
37.009
36.927
36.843
36.761
36.678
36.597
36.516
36.436
36.357
36.278
36.198
36.118
36.037
35.955
35.873
35.791
35.709
35.626
35.544
35.462
35.379
35.297
35.215
35.134
35.053
34.973
34.894
34.816
34.74
34.665
34.591
34.52
34.451
34.384
34.319
34.257
34.198
34.142
34.089
34.038
33.989
33.943
33.899
33.857
33.817
33.778
33.741
33.705
33.671
33.638
33.606
33.575
33.545
33.516
33.487
33.459
33.432
33.406
33.38
33.355
33.331
33.306
33.283
33.259
33.236
33.214
33.193
33.173
33.154
33.136
33.119
33.103
33.086
33.069
33.052
33.034
33.017
33.0
32.984
32.969
32.954
32.941
32.929
32.918
32.908
32.898
32.889
32.879
32.869
32.858
32.847
32.835
32.823
32.811
32.798
32.785
32.771
32.758
32.745
32.731
32.717
32.703
32.687
32.67
32.65
32.628
32.604
32.578
32.55
32.521
32.491
32.458
32.424
32.388
32.35
32.312
32.273
32.235
32.197
32.16
32.125
32.093
32.062
32.034
32.009
31.988
31.972
31.962
31.96
31.971
31.998
32.046
32.119
32.222
32.361
32.54
32.76
33.025
33.334
33.685
34.077
34.504
34.962
35.445
35.945
36.456
36.972
37.485
37.99
38.482
38.956
39.409
39.837
40.237
40.609
40.95
41.26
41.538
41.786
42.004
42.193
42.353
42.484
42.589
42.667
42.72
42.749
42.757
42.743
42.711
42.661
42.595
42.514
42.419
42.313
42.197
42.073
41.941
41.803
41.66
41.513
41.364
41.213
41.062
40.913
40.764
40.618
40.473
40.331
40.191
40.053
39.917
39.783
39.649
39.515
39.381
39.247
39.112
38.978
38.843
38.71
38.58
38.454
38.333
38.219
38.113
38.018
37.933
37.859
37.797
37.748
37.711
37.686
37.673
37.673
37.684
37.705
37.737
37.777
37.824
37.876
37.933
37.993
38.055
38.116
38.177
38.235
38.289
38.338
38.383
38.421
38.453
38.477
38.494
38.503
38.505
38.499
38.486
38.466
38.44
38.407
38.368
38.323
38.273
38.218
38.159
38.097
38.032
37.964
37.893
37.821
37.746
37.67
37.592
37.512
37.429
37.344
37.257
37.166
37.073
36.978
36.881
36.783
36.684
36.586
36.488
36.391
36.296
36.202
36.111
36.02
35.932
35.844
35.758
35.672
35.587
35.502
35.418
35.334
35.252
35.171
35.093
35.017
34.943
34.872
34.804
34.739
34.675
34.614
34.554
34.497
34.441
34.388
34.337
34.288
34.242
34.198
34.158
34.121
34.085
34.052
34.019
33.988
33.957
33.927
33.899
33.871
33.844
33.818
33.794
33.77
33.746
33.724
33.701
33.68
33.658
33.638
33.618
33.598
33.58
33.562
33.546
33.531
33.516
33.501
33.487
33.472
33.457
33.441
33.425
33.408
33.39
33.372
33.353
33.333
33.313
33.293
33.273
33.252
33.23
33.207
33.184
33.16
33.135
33.111
33.086
33.061
33.037
33.012
32.987
32.962
32.937
32.911
32.884
32.857
32.83
32.803
32.775
32.748
32.721
32.693
32.666
32.638
32.61
32.582
32.553
32.524
32.495
32.464
32.434
32.403
32.371
32.34
32.308
32.277
32.245
32.213
32.179
32.144
32.108
32.07
32.031
31.992
31.953
31.915
31.877
31.84
31.804
31.77
31.738
31.708
31.681
31.66
31.644
31.638
31.644
31.666
31.709
31.777
31.877
32.014
32.193
32.418
32.691
33.013
33.382
33.795
34.249
34.736
35.25
35.784
36.329
36.88
37.428
37.967
38.491
38.996
39.476
39.928
40.35
40.741
41.098
41.421
41.71
41.966
42.19
42.382
42.543
42.676
42.78
42.857
42.909
42.936
42.94
42.923
42.886
42.831
42.758
42.67
42.568
42.452
42.324
42.186
42.039
41.885
41.727
41.565
41.4
41.236
41.072
40.91
40.751
40.595
40.441
40.29
40.143
39.998
39.856
39.716
39.576
39.437
39.298
39.158
39.017
38.877
38.737
38.598
38.463
38.332
38.208
38.091
37.984
37.887
37.802
37.73
37.671
37.626
37.594
37.576
37.571
37.577
37.594
37.621
37.654
37.694
37.739
37.788
37.84
37.893
37.948
38.003
38.057
38.111
38.164
38.214
38.261
38.304
38.343
38.376
38.402
38.421
38.431
38.432
38.423
38.404
38.376
38.338
38.293
38.24
38.181
38.117
38.049
37.979
37.907
37.833
37.758
37.683
37.606
37.528
37.449
37.367
37.284
37.198
37.109
37.018
36.923
36.826
36.727
36.627
36.527
36.427
36.328
36.23
36.134
36.04
35.948
35.858
35.77
35.683
35.598
35.514
35.431
35.35
35.269
35.191
35.113
35.037
34.963
34.889
34.817
34.747
34.679
34.615
34.554
34.496
34.441
34.389
34.339
34.291
34.245
34.199
34.153
34.108
34.063
34.019
33.976
33.934
33.893
33.855
33.818
33.784
33.752
33.722
33.693
33.666
33.64
33.614
33.59
33.566
33.543
33.52
33.499
33.478
33.459
33.44
33.423
33.406
33.389
33.372
33.355
33.339
33.322
33.304
33.287
33.268
33.248
33.228
33.207
33.187
33.167
33.148
33.13
33.114
33.099
33.085
33.072
33.06
33.048
33.036
33.022
33.006
32.99
32.972
32.953
32.934
32.914
32.893
32.871
32.849
32.826
32.802
32.778
32.753
32.726
32.698
32.668
32.638
32.606
32.573
32.539
32.504
32.467
32.43
32.391
32.351
32.31
32.267
32.224
32.181
32.137
32.093
32.049
32.005
31.963
31.921
31.879
31.838
31.798
31.758
31.719
31.681
31.645
31.612
31.582
31.556
31.537
31.524
31.521
31.532
31.561
31.611
31.689
31.8
31.947
32.136
32.369
32.648
32.973
33.342
33.752
34.198
34.675
35.175
35.692
36.218
36.747
37.27
37.782
38.277
38.752
39.201
39.624
40.016
40.379
40.709
41.007
41.273
41.506
41.708
41.878
42.018
42.129
42.211
42.267
42.298
42.304
42.289
42.253
42.197
42.124
42.034
41.93
41.813
41.686
41.548
41.402
41.25
41.092
40.93
40.765
40.598
40.431
40.264
40.098
39.933
39.767
39.602
39.437
39.271
39.105
38.937
38.768
38.598
38.427
38.256
38.086
37.919
37.755
37.597
37.446
37.304
37.172
37.052
36.946
36.855
36.778
36.718
36.674
36.647
36.635
36.638
36.656
36.686
36.729
36.783
36.845
36.916
36.993
37.075
37.159
37.245
37.33
37.412
37.492
37.566
37.635
37.698
37.753
37.801
37.842
37.874
37.898
37.913
37.919
37.916
37.904
37.882
37.852
37.814
37.769
37.718
37.662
37.601
37.536
37.468
37.398
37.327
37.254
37.178
37.101
37.021
36.939
36.854
36.765
36.674
36.581
36.485
36.388
36.29
36.191
36.092
35.995
35.898
35.803
35.711
35.621
35.535
35.451
35.37
35.29
35.212
35.134
35.055
34.976
34.896
34.815
34.735
34.654
34.575
34.497
34.422
34.348
34.277
34.207
34.14
34.074
34.01
33.948
33.888
33.83
33.775
33.721
33.67
33.621
33.574
33.53
33.488
33.448
33.409
33.371
33.335
33.299
33.265
33.231
33.199
33.169
33.14
33.112
33.086
33.061
33.039
33.018
32.999
32.982
32.967
32.953
32.94
32.929
32.918
32.909
32.9
32.892
32.883
32.875
32.867
32.858
32.848
32.839
32.829
32.819
32.809
32.798
32.785
32.771
32.755
32.738
32.719
32.698
32.677
32.655
32.633
32.611
32.589
32.567
32.547
32.526
32.507
32.488
32.469
32.449
32.43
32.409
32.388
32.365
32.341
32.316
32.29
32.263
32.235
32.205
32.173
32.139
32.102
32.063
32.02
31.976
31.93
31.883
31.834
31.786
31.737
31.688
31.641
31.594
31.548
31.504
31.463
31.426
31.392
31.364
31.343
31.333
31.335
31.355
31.395
31.462
31.559
31.693
31.867
32.086
32.352
32.667
33.028
33.433
33.879
34.361
34.87
35.402
35.949
36.503
37.059
37.611
38.153
38.68
39.187
39.672
40.131
40.562
40.963
41.331
41.666
41.968
42.235
42.469
42.668
42.835
42.969
43.072
43.145
43.188
43.204
43.194
43.159
43.101
43.022
42.924
42.809
42.679
42.537
42.384
42.223
42.055
41.882
41.706
41.528
41.351
41.176
41.004
40.836
40.674
40.516
40.364
40.218
40.076
39.939
39.805
39.673
39.542
39.41
39.277
39.141
39.003
38.863
38.721
38.58
38.44
38.303
38.172
38.047
37.931
37.825
37.731
37.649
37.581
37.528
37.488
37.463
37.45
37.451
37.462
37.485
37.517
37.557
37.603
37.653
37.706
37.761
37.817
37.872
37.926
37.977
38.026
38.07
38.111
38.146
38.176
38.2
38.218
38.228
38.23
38.225
38.211
38.19
38.162
38.126
38.084
38.035
37.982
37.923
37.858
37.789
37.714
37.634
37.549
37.459
37.366
37.27
37.172
37.072
36.971
36.871
36.77
36.67
36.571
36.472
36.373
36.275
36.177
36.079
35.981
35.884
35.786
35.689
35.591
35.493
35.395
35.297
35.2
35.105
35.012
34.921
34.832
34.746
34.662
34.581
34.502
34.426
34.352
34.281
34.213
34.147
34.085
34.024
33.967
33.911
33.858
33.807
33.757
33.71
33.664
33.619
33.576
33.535
33.495
33.456
33.419
33.384
33.35
33.317
33.286
33.255
33.226
33.197
33.169
33.141
33.114
33.087
33.061
33.035
33.01
32.986
32.963
32.941
32.92
32.9
32.882
32.865
32.849
32.834
32.821
32.808
32.797
32.786
32.774
32.763
32.75
32.737
32.722
32.706
32.688
32.668
32.648
32.627
32.605
32.582
32.559
32.535
32.51
32.484
32.457
32.43
32.401
32.373
32.344
32.315
32.287
32.258
32.228
32.199
32.168
32.138
32.106
32.075
32.044
32.012
31.98
31.949
31.917
31.886
31.856
31.827
31.798
31.77
31.743
31.717
31.69
31.662
31.635
31.606
31.576
31.546
31.514
31.481
31.447
31.41
31.372
31.332
31.29
31.247
31.202
31.158
31.113
31.069
31.027
30.986
30.947
30.911
30.879
30.851
30.827
30.81
30.799
30.799
30.811
30.84
30.892
30.971
31.084
31.236
31.433
31.68
31.978
32.329
32.732
33.182
33.677
34.209
34.771
35.355
35.954
36.559
37.162
37.757
38.335
38.893
39.425
39.927
40.395
40.827
41.222
41.579
41.896
42.175
42.416
42.62
42.789
42.924
43.027
43.1
43.145
43.163
43.158
43.13
43.081
43.012
42.927
42.825
42.708
42.58
42.439
42.289
42.131
41.966
41.797
41.623
41.448
41.272
41.098
40.926
40.758
40.594
40.435
40.282
40.133
39.988
39.846
39.707
39.568
39.429
39.29
39.15
39.01
38.869
38.729
38.589
38.452
38.317
38.187
38.063
37.946
37.838
37.74
37.653
37.578
37.515
37.465
37.428
37.404
37.392
37.391
37.4
37.419
37.446
37.48
37.521
37.567
37.617
37.67
37.725
37.78
37.834
37.886
37.936
37.982
38.023
38.06
38.09
38.115
38.132
38.143
38.146
38.141
38.128
38.108
38.079
38.043
37.999
37.947
37.887
37.821
37.749
37.671
37.588
37.503
37.414
37.323
37.23
37.135
37.039
36.942
36.844
36.744
36.643
36.542
36.44
36.337
36.234
36.131
36.027
35.923
35.819
35.716
35.613
35.512
35.412
35.313
35.217
35.122
35.03
34.939
34.851
34.765
34.68
34.598
34.517
34.438
34.36
34.285
34.212
34.14
34.071
34.004
33.94
33.877
33.817
33.759
33.704
33.651
33.6
33.551
33.505
33.46
33.417
33.376
33.335
33.295
33.256
33.219
33.183
33.149
33.117
33.086
33.055
33.026
32.998
32.97
32.942
32.915
32.889
32.863
32.838
32.812
32.788
32.764
32.74
32.716
32.693
32.671
32.65
32.629
32.609
32.59
32.572
32.555
32.538
32.523
32.509
32.495
32.482
32.468
32.453
32.437
32.42
32.401
32.381
32.361
32.34
32.319
32.298
32.276
32.255
32.233
32.211
32.188
32.165
32.141
32.117
32.093
32.068
32.042
32.015
31.987
31.958
31.927
31.896
31.865
31.834
31.804
31.774
31.744
31.716
31.688
31.66
31.632
31.603
31.575
31.546
31.516
31.486
31.455
31.423
31.389
31.355
31.32
31.283
31.244
31.204
31.162
31.118
31.073
31.027
30.982
30.937
30.894
30.853
30.814
30.779
30.747
30.718
30.693
30.672
30.656
30.648
30.649
30.664
30.698
30.755
30.841
30.964
31.129
31.339
31.599
31.911
32.274
32.686
33.144
33.643
34.177
34.738
35.318
35.909
36.503
37.092
37.668
38.226
38.76
39.265
39.739
40.178
40.582
40.948
41.278
41.57
41.824
42.043
42.226
42.374
42.49
42.574
42.629
42.656
42.658
42.636
42.593
42.531
42.452
42.359
42.252
42.134
42.006
41.87
41.726
41.576
41.421
41.26
41.096
40.928
40.757
40.586
40.413
40.241
40.07
39.9
39.732
39.566
39.402
39.24
39.08
38.921
38.764
38.609
38.455
38.302
38.151
38.003
37.857
37.715
37.578
37.448
37.325
37.211
37.108
37.016
36.937
36.871
36.819
36.782
36.76
36.754
36.763
36.786
36.824
36.874
36.936
37.008
37.087
37.172
37.261
37.351
37.441
37.529
37.612
37.69
37.761
37.825
37.88
37.926
37.963
37.991
38.008
38.016
38.013
38.001
37.98
37.95
37.912
37.866
37.814
37.756
37.693
37.626
37.556
37.482
37.404
37.324
37.24
37.153
37.064
36.973
36.881
36.787
36.692
36.595
36.496
36.396
36.294
36.19
36.084
35.976
35.865
35.754
35.643
35.531
35.421
35.311
35.203
35.097
34.992
34.89
34.791
34.694
34.599
34.508
34.42
34.336
34.256
34.181
34.11
34.043
33.98
33.921
33.865
33.812
33.762
33.714
33.669
33.626
33.586
33.546
33.507
33.469
33.431
33.395
33.359
33.324
33.289
33.256
33.223
33.192
33.16
33.13
33.102
33.075
33.05
33.026
33.005
32.985
32.967
32.949
32.932
32.914
32.896
32.878
32.859
32.84
32.821
32.802
32.783
32.763
32.744
32.724
32.703
32.683
32.662
32.643
32.624
32.607
32.592
32.577
32.563
32.55
32.537
32.523
32.509
32.494
32.478
32.461
32.443
32.423
32.402
32.38
32.357
32.334
32.311
32.288
32.267
32.246
32.225
32.205
32.184
32.162
32.138
32.112
32.085
32.056
32.025
31.992
31.956
31.919
31.88
31.84
31.798
31.756
31.713
31.67
31.627
31.583
31.54
31.497
31.455
31.413
31.372
31.333
31.296
31.261
31.229
31.199
31.174
31.156
31.147
31.15
31.169
31.211
31.28
31.381
31.521
31.703
31.932
32.209
32.535
32.909
33.328
33.788
34.282
34.805
35.348
35.904
36.464
37.022
37.569
38.1
38.609
39.093
39.547
39.968
40.356
40.709
41.026
41.309
41.556
41.769
41.948
42.096
42.212
42.299
42.358
42.39
42.397
42.381
42.342
42.283
42.205
42.109
41.996
41.869
41.728
41.575
41.414
41.244
41.069
40.889
40.708
40.525
40.344
40.164
39.986
39.81
39.637
39.466
39.296
39.127
38.96
38.792
38.625
38.459
38.293
38.128
37.964
37.802
37.642
37.485
37.332
37.185
37.045
36.914
36.792
36.682
36.585
36.501
36.431
36.376
36.336
36.31
36.299
36.303
36.32
36.351
36.394
36.448
36.513
36.586
36.667
36.754
36.844
36.936
37.028
37.118
37.204
37.285
37.359
37.425
37.481
37.527
37.563
37.587
37.601
37.604
37.596
37.579
37.553
37.519
37.478
37.43
37.377
37.318
37.255
37.188
37.117
37.044
36.967
36.889
36.808
36.725
36.64
36.551
36.46
36.367
36.27
36.172
36.072
35.97
35.867
35.763
35.658
35.552
35.447
35.342
35.237
35.132
35.029
34.927
34.825
34.725
34.627
34.529
34.434
34.34
34.248
34.16
34.074
33.991
33.913
33.838
33.766
33.698
33.633
33.571
33.511
33.452
33.395
33.338
33.284
33.231
33.18
33.13
33.082
33.035
32.989
32.945
32.902
32.86
32.819
32.779
32.74
32.702
32.665
32.628
32.593
32.558
32.525
32.493
32.463
32.436
32.41
32.387
32.364
32.343
32.323
32.305
32.286
32.269
32.254
32.24
32.228
32.216
32.207
32.198
32.191
32.186
32.183
32.18
32.179
32.177
32.176
32.174
32.17
32.165
32.157
32.147
32.135
