Trial 1:0back
34.389
34.359
34.329
34.301
34.272
34.245
34.218
34.191
34.165
34.139
34.114
34.088
34.063
34.039
34.017
33.996
33.977
33.96
33.944
33.931
33.919
33.908
33.898
33.889
33.879
33.868
33.855
33.841
33.825
33.808
33.789
33.769
33.748
33.728
33.708
33.689
33.674
33.661
33.651
33.644
33.641
33.64
33.641
33.641
33.64
33.637
33.632
33.625
33.616
33.606
33.592
33.576
33.556
33.532
33.507
33.479
33.452
33.427
33.405
33.387
33.374
33.364
33.357
33.352
33.348
33.346
33.345
33.343
33.342
33.341
33.338
33.335
33.33
33.324
33.315
33.306
33.295
33.284
33.274
33.265
33.256
33.25
33.244
33.24
33.237
33.234
33.231
33.222
33.207
33.186
33.163
33.142
33.128
33.126
33.14
33.174
33.23
33.309
33.412
33.539
33.691
33.866
34.063
34.278
34.508
34.749
34.995
35.242
35.486
35.72
35.941
36.146
36.333
36.499
36.644
36.767
36.868
36.948
37.008
37.049
37.074
37.085
37.085
37.074
37.056
37.03
36.998
36.961
36.92
36.878
36.836
36.795
36.757
36.722
36.692
36.666
36.644
36.627
36.615
36.606
36.601
36.599
36.598
36.597
36.595
36.592
36.585
36.576
36.564
36.551
36.536
36.519
36.499
36.475
36.447
36.415
36.378
36.338
36.294
36.249
36.203
36.157
36.113
36.071
36.032
35.996
35.964
35.936
35.912
35.892
35.877
35.866
35.86
35.856
35.855
35.855
35.856
35.859
35.861
35.862
35.861
35.858
35.852
35.842
35.83
35.816
35.802
35.787
35.772
35.758
35.743
35.728
35.713
35.698
35.682
35.666
35.649
35.631
35.612
35.591
35.57
35.547
35.524
35.501
35.478
35.457
35.436
35.416
35.394
35.371
35.345
35.318
35.29
35.26
35.229
35.197
35.165
35.132
35.098
35.063
35.027
34.991
34.955
34.921
34.888
34.857
34.828
34.8
34.774
34.748
34.724
34.7
34.676
34.653
34.631
34.609
34.589
34.57
34.551
34.534
34.519
34.505
34.492
34.48
34.468
34.456
34.443
34.43
34.417
34.404
34.391
34.376
34.361
34.343
34.324
34.304
34.282
34.26
34.238
34.217
34.198
34.181
34.165
34.151
34.14
34.131
34.125
34.122
34.121
34.122
34.124
34.125
34.126
34.123
34.118
34.11
34.099
34.085
34.069
34.052
34.033
34.014
33.993
33.973
33.951
33.93
33.909
33.889
33.87
33.853
33.837
33.824
33.812
33.802
33.792
33.782
33.773
33.763
33.753
33.742
33.731
33.719
33.708
33.697
33.69
33.687
33.69
33.7
33.721
33.754
33.802
33.867
33.951
34.055
34.179
34.322
34.482
34.657
34.842
35.036
35.235
35.435
35.633
35.827
36.012
36.186
36.346
36.49
36.617
36.725
36.814
36.882
36.931
36.961
36.975
36.974
36.96
36.936
36.905
36.868
36.829
36.79
36.753
36.717
36.682
36.649
36.617
36.585
36.554
36.523
36.492
36.462
36.433
36.405
36.378
36.352
36.328
36.306
36.287
36.27
36.254
36.241
36.229
36.216
36.204
36.19
36.175
36.158
36.138
36.115
36.089
36.058
36.021
35.978
35.93
35.877
35.821
35.765
35.71
35.658
35.61
35.567
35.53
35.498
35.473
35.452
35.437
35.427
35.421
35.419
35.42
35.424
35.43
35.438
35.447
35.458
35.468
35.479
35.489
35.498
35.504
35.507
35.505
35.501
35.494
35.485
35.474
35.462
35.446
35.427
35.405
35.378
35.348
35.315
35.28
35.243
35.204
35.166
35.128
35.09
35.054
35.02
34.986
34.954
34.922
34.89
34.859
34.827
34.796
34.765
34.734
34.704
34.676
34.649
34.623
34.597
34.572
34.546
34.52
34.494
34.468
34.443
34.418
34.394
34.371
34.347
34.322
34.297
34.271
34.245
34.219
34.194
34.171
34.149
34.129
34.111
34.094
34.08
34.067
34.057
34.049
34.043
34.039
34.036
34.034
34.031
34.027
34.021
34.013
34.002
33.987
33.97
33.949
33.926
33.901
33.875
33.85
33.827
33.805
33.787
33.771
33.757
33.746
33.737
33.731
33.726
33.724
33.723
33.723
33.723
33.722
33.719
33.714
33.707
33.696
33.684
33.67
33.655
33.639
33.622
33.604
33.589
33.58
33.576
33.58
33.588
33.6
33.614
33.627
33.638
33.645
33.646
33.64
33.629
33.613
33.592
33.568
33.539
33.508
33.475
33.44
33.405
33.371
33.339
33.309
33.282
33.259
33.24
33.225
33.215
33.21
33.21
33.218
33.234
33.261
33.301
33.354
33.424
33.511
33.617
33.741
33.885
34.046
34.224
34.416
34.62
34.833
35.051
35.271
35.49
35.706
35.914
36.111
36.293
36.459
36.605
36.731
36.836
36.92
36.985
37.031
37.06
37.074
37.075
37.066
37.047
37.022
36.993
36.961
36.929
36.897
36.866
36.836
36.808
36.78
36.754
36.73
36.708
36.689
36.671
36.655
36.641
36.627
36.613
36.601
36.59
36.58
36.572
36.564
36.557
36.55
36.542
36.534
36.524
36.512
36.498
36.48
36.459
36.434
36.406
36.374
36.337
36.297
36.255
36.212
36.171
36.131
36.093
36.058
36.025
35.994
35.964
35.935
35.908
35.881
35.857
35.834
35.815
35.797
35.783
35.77
35.76
35.752
35.745
35.738
35.731
35.725
35.717
35.709
35.7
35.69
35.678
35.666
35.654
35.641
35.627
35.611
35.591
35.569
35.544
35.516
35.488
35.461
35.436
35.412
35.389
35.368
35.348
35.326
35.302
35.276
35.247
35.215
35.18
35.144
35.108
35.071
35.034
34.998
34.964
34.932
34.903
34.877
34.853
34.83
34.807
34.785
34.764
34.742
34.72
34.699
34.676
34.651
34.624
34.595
34.562
34.528
34.492
34.457
34.422
34.389
34.357
34.325
34.295
34.265
34.237
34.212
34.189
34.169
34.152
34.139
34.127
34.117
34.108
34.099
34.09
34.081
34.071
34.061
34.051
34.039
34.026
34.011
33.995
33.977
33.959
33.94
33.922
33.903
33.883
33.863
33.843
33.823
33.803
33.785
33.768
33.752
33.738
33.726
33.715
33.704
33.695
33.686
33.678
33.671
33.665
33.657
33.649
33.639
33.628
33.616
33.602
33.589
33.576
33.564
33.552
33.541
33.53
33.52
33.51
33.502
33.494
33.489
33.484
33.481
33.477
33.468
33.449
33.421
33.385
33.344
33.302
33.261
33.224
33.193
33.169
33.152
33.142
33.14
33.145
33.156
33.172
33.192
33.214
33.237
33.261
33.285
33.309
33.336
33.368
33.405
33.451
33.508
33.579
33.665
33.769
33.893
34.037
34.199
34.381
34.578
34.787
35.007
35.231
35.456
35.678
35.893
36.098
36.289
36.462
36.616
36.749
36.86
36.949
37.017
37.064
37.094
37.108
37.108
37.097
37.077
37.048
37.014
36.975
36.933
36.89
36.847
36.804
36.762
36.721
36.68
36.641
36.603
36.569
36.538
36.511
36.49
36.473
36.461
36.453
36.448
36.446
36.446
36.445
36.445
36.444
36.442
36.437
36.43
36.418
36.401
36.38
36.354
36.324
36.29
36.252
36.21
36.163
36.114
36.062
36.009
35.956
35.906
35.859
35.817
35.781
35.75
35.726
35.707
35.693
35.683
35.677
35.673
35.673
35.675
35.679
35.685
35.692
35.699
35.705
35.71
35.714
35.715
35.713
35.707
35.7
35.69
35.68
35.67
35.662
35.656
35.652
35.649
35.647
35.642
35.635
35.624
35.609
35.589
35.566
35.538
35.507
35.474
35.438
35.401
35.361
35.321
35.281
35.241
35.204
35.168
35.136
35.107
35.081
35.058
35.037
35.019
35.002
34.985
34.969
34.951
34.931
34.909
34.884
34.858
34.829
34.799
34.767
34.735
34.702
34.668
34.633
34.598
34.564
34.533
34.504
34.479
34.457
34.44
34.427
34.418
34.412
34.408
34.405
34.403
34.401
34.397
34.391
34.383
34.371
34.357
34.34
34.322
34.303
34.284
34.266
34.248
34.23
34.213
34.197
34.181
34.167
34.154
34.143
34.133
34.125
34.118
34.112
34.106
34.1
34.094
34.089
34.085
34.081
34.078
34.074
34.069
34.063
34.055
34.045
34.034
34.02
34.006
33.99
33.974
33.958
33.942
33.927
33.913
33.9
33.888
33.878
33.868
33.858
33.848
33.838
33.828
33.819
33.811
33.805
33.801
33.799
33.8
33.804
33.814
33.831
33.858
33.896
33.949
34.017
34.103
34.209
34.336
34.485
34.653
34.837
35.032
35.235
35.44
35.645
35.843
36.03
36.203
36.359
36.494
36.608
36.701
36.773
36.826
36.862
36.881
36.886
36.878
36.859
36.833
36.8
36.762
36.722
36.68
36.638
36.596
36.555
36.516
36.479
36.445
36.415
36.387
36.361
36.337
36.313
36.289
36.265
36.242
36.221
36.201
36.182
36.165
36.148
36.131
36.112
36.091
36.066
36.039
36.009
35.975
35.939
35.901
35.861
35.82
35.779
35.738
35.698
35.659
35.622
35.587
35.554
35.522
35.492
35.462
35.434
35.408
35.385
35.367
35.352
35.34
35.332
35.326
35.322
35.318
35.315
35.31
35.304
35.296
35.287
35.277
35.266
35.255
35.244
35.233
35.222
35.211
35.201
35.191
35.181
35.169
35.157
35.143
35.128
35.112
35.096
35.08
35.062
35.042
35.02
34.993
34.962
34.927
34.89
34.85
34.81
34.769
34.728
34.688
34.65
34.614
34.58
34.549
34.52
34.493
34.469
34.447
34.427
34.409
34.394
34.38
34.366
34.352
34.336
34.319
34.299
34.277
34.252
34.226
34.199
34.173
34.149
34.126
34.105
34.085
34.065
34.043
34.021
33.998
33.978
33.96
33.946
33.936
33.928
33.922
33.918
33.913
33.908
33.902
33.895
33.886
33.876
33.865
33.854
33.841
33.828
33.815
33.803
33.79
33.778
33.766
33.756
33.746
33.738
33.731
33.724
33.718
33.711
33.705
33.697
33.688
33.677
33.663
33.646
33.629
33.61
33.592
33.574
33.558
33.543
33.53
33.518
33.508
33.5
33.494
33.49
33.49
33.492
33.495
33.5
33.505
33.509
33.512
33.514
33.515
33.514
33.513
33.51
33.506
33.502
33.496
33.489
33.481
33.474
33.466
33.458
33.451
33.442
33.434
33.424
33.413
33.402
33.392
33.384
33.379
33.377
33.378
33.385
33.399
33.422
33.457
33.506
33.572
33.657
33.763
33.89
34.038
34.204
34.388
34.588
34.801
35.022
35.249
35.477
35.702
35.92
36.126
36.317
36.491
36.645
36.778
36.89
36.981
37.052
37.104
37.138
37.158
37.164
37.159
37.145
37.125
37.099
37.069
37.036
37.0
36.963
36.925
36.887
36.85
36.814
36.781
36.751
36.724
36.7
36.679
36.663
36.65
36.642
36.639
36.638
36.641
36.644
36.648
36.65
36.651
36.649
36.643
36.633
36.62
36.603
36.582
36.557
36.528
36.495
36.459
36.42
36.38
36.339
36.298
36.257
36.216
36.175
36.134
36.095
36.058
36.024
35.994
35.967
35.945
35.927
35.912
35.901
35.892
35.886
35.882
35.88
35.88
35.881
35.883
35.885
35.888
35.89
35.891
35.891
35.89
35.886
35.88
35.871
35.857
35.84
35.819
35.795
35.77
35.745
35.721
35.7
35.68
35.66
35.64
35.619
35.596
35.571
35.544
35.514
35.483
35.45
35.417
35.383
35.35
35.316
35.284
35.252
35.221
35.192
35.164
35.138
35.113
35.088
35.064
35.04
35.015
34.99
34.964
34.935
34.904
34.869
34.831
34.79
34.749
34.71
34.673
34.64
34.609
34.582
34.558
34.537
34.518
34.501
34.487
34.476
34.467
34.46
34.454
34.45
34.446
34.442
34.437
34.431
34.422
34.411
34.397
34.381
34.363
34.342
34.321
34.299
34.277
34.256
34.235
34.215
34.195
34.177
34.158
34.141
34.125
34.111
34.1
34.093
34.087
34.083
34.08
34.074
34.065
34.052
34.035
34.016
33.995
33.974
33.951
33.93
33.91
33.892
33.876
33.862
33.851
33.842
33.836
33.831
33.829
33.828
33.827
33.827
33.825
33.822
33.816
33.806
33.792
33.774
33.751
33.726
33.698
33.669
33.64
33.611
33.582
33.553
33.524
33.496
33.467
33.44
33.416
33.394
33.376
33.363
33.354
33.348
33.345
33.345
33.347
33.353
33.364
33.38
33.402
33.433
33.472
33.521
33.582
33.657
33.747
33.854
33.98
34.125
34.289
34.471
34.669
34.881
35.102
35.33
35.559
35.787
36.007
36.217
36.413
36.591
36.749
36.887
37.003
37.099
37.175
37.233
37.274
37.3
37.313
37.314
37.305
37.289
37.266
37.239
37.206
37.168
37.126
37.082
37.034
36.986
36.937
36.89
36.846
36.806
36.771
36.74
36.715
36.695
36.68
36.668
36.659
36.651
36.645
36.639
36.633
36.624
36.612
36.597
36.577
36.554
36.527
36.496
36.462
36.425
36.385
36.341
36.295
36.246
36.196
36.147
36.098
36.051
36.006
35.963
35.921
35.882
35.844
35.808
35.775
35.745
35.719
35.697
35.68
35.667
35.659
35.654
35.653
35.656
35.663
35.672
35.684
35.696
35.709
35.721
35.733
35.743
35.752
35.76
35.766
35.769
35.77
35.767
35.76
35.75
35.737
35.72
35.702
35.681
35.66
35.637
35.613
35.588
35.56
35.53
35.496
35.46
35.423
35.384
35.345
35.305
35.266
35.228
35.19
35.154
35.121
35.089
35.06
35.034
35.01
34.987
34.965
34.944
34.925
34.909
34.895
34.884
34.876
34.869
34.862
34.854
34.844
34.831
34.815
34.795
34.772
34.747
34.72
34.693
34.665
34.639
34.615
34.591
34.569
34.548
34.528
34.51
34.493
34.478
34.465
34.453
34.442
34.433
34.423
34.413
34.403
34.39
34.374
34.357
34.339
34.323
34.308
34.297
34.288
34.282
34.277
34.271
34.264
34.256
34.247
34.236
34.226
34.217
34.209
34.201
34.195
34.189
34.183
34.176
34.168
34.159
34.147
34.135
34.123
34.111
34.1
34.09
34.08
34.07
34.061
34.052
34.044
34.035
34.026
34.016
34.005
33.993
33.981
33.968
33.954
33.94
33.926
33.914
33.904
33.9
33.904
33.919
33.947
33.991
34.054
34.135
34.236
34.358
34.5
34.661
34.84
35.033
35.238
35.452
35.668
35.885
36.096
36.299
36.489
36.667
36.828
36.973
37.099
37.207
37.295
37.365
37.417
37.453
37.474
37.482
37.479
37.467
37.448
37.423
37.395
37.364
37.333
37.302
37.273
37.246
37.222
37.201
37.182
37.166
37.152
37.139
37.128
37.118
37.11
37.102
37.092
37.081
37.066
37.047
37.025
37.001
36.973
36.945
36.915
36.886
36.857
36.827
36.798
36.767
36.737
36.705
36.673
36.639
36.601
36.559
36.515
36.469
36.422
36.375
36.331
36.291
36.257
36.228
36.206
36.189
36.177
36.17
36.167
36.167
36.171
36.176
36.183
36.19
36.196
36.199
36.199
36.196
36.19
36.181
36.17
36.159
36.146
36.134
36.121
36.108
36.095
36.082
36.07
36.058
36.045
36.031
36.016
35.999
35.979
35.957
35.932
35.904
35.874
35.84
35.803
35.765
35.725
35.684
35.644
35.604
35.565
35.528
35.492
35.457
35.424
35.39
35.356
35.322
35.287
35.253
35.22
35.188
35.157
35.127
35.097
35.067
35.037
35.007
34.979
34.953
34.929
34.907
34.887
34.867
34.849
34.831
34.812
34.792
34.769
34.745
34.719
34.691
34.662
34.633
34.605
34.577
34.55
34.524
34.498
34.474
34.452
34.432
34.415
34.401
34.388
34.379
34.371
34.366
34.362
34.358
34.353
34.346
34.337
34.325
34.312
34.299
34.287
34.276
34.266
34.255
34.243
34.23
34.216
34.201
34.185
34.17
34.156
34.144
34.132
34.121
34.111
34.1
34.089
34.078
34.066
34.054
34.041
34.029
34.018
34.007
33.996
33.986
33.974
33.962
33.948
33.934
33.918
33.901
33.883
33.864
33.845
33.826
33.807
33.787
33.767
33.746
33.725
33.704
33.683
33.664
33.647
33.633
33.622
33.614
33.609
33.607
33.609
33.615
33.627
33.646
33.675
33.716
33.773
33.848
33.943
34.059
34.199
34.361
34.544
34.748
34.969
35.204
35.448
35.698
35.948
36.195
36.435
36.665
36.88
37.079
37.259
37.418
37.554
37.665
37.752
37.816
37.858
37.881
37.888
37.881
37.864
37.838
37.806
37.77
37.732
37.693
37.655
37.617
37.581
37.547
37.514
37.483
37.454
37.426
37.4
37.378
37.36
37.347
37.337
37.331
37.328
37.327
37.326
37.325
37.323
37.319
37.313
37.303
37.29
37.273
37.252
37.228
37.201
37.17
37.137
37.102
37.065
37.025
36.982
36.936
36.888
36.838
36.788
36.739
36.693
36.649
36.608
36.57
36.535
36.503
36.474
36.448
36.427
36.411
36.399
36.395
36.396
36.403
36.413
36.426
36.439
36.451
36.462
36.47
36.476
36.478
36.476
36.471
36.462
36.45
36.435
36.418
36.399
36.379
36.357
36.334
36.309
36.281
36.251
36.219
36.184
36.148
36.111
36.073
36.035
35.997
35.96
35.924
35.889
35.855
35.824
35.794
35.766
35.739
35.711
35.682
35.652
35.619
35.585
35.549
35.513
35.477
35.44
35.403
35.364
35.325
35.286
35.246
35.206
35.165
35.125
35.085
35.046
35.008
34.972
34.937
34.904
34.873
34.843
34.816
34.79
34.765
34.74
34.716
34.692
34.669
34.647
34.626
34.605
34.583
34.56
34.535
34.507
34.477
34.446
34.414
34.383
34.353
34.324
34.296
34.27
34.245
34.223
34.203
34.185
34.17
34.157
34.147
34.14
34.134
34.128
34.122
34.115
34.107
34.097
34.085
34.072
34.057
34.04
34.022
34.002
33.981
33.958
33.934
33.909
33.882
33.856
33.83
33.804
33.781
33.759
33.741
33.727
33.715
33.705
33.695
33.684
33.672
33.659
33.644
33.629
33.613
33.597
33.581
33.564
33.546
33.529
33.511
33.494
33.477
33.462
33.449
33.437
33.427
33.42
33.414
33.409
33.405
33.402
33.398
33.394
33.388
33.382
33.374
33.366
33.358
33.351
33.347
33.349
33.358
33.378
33.412
33.463
33.533
33.627
33.745
33.891
34.063
34.259
34.478
34.714
34.962
35.218
35.477
35.733
35.984
36.224
36.451
36.662
36.854
37.026
37.175
37.302
37.406
37.488
37.55
37.593
37.617
37.626
37.621
37.603
37.577
37.543
37.506
37.467
37.428
37.391
37.356
37.324
37.295
37.269
37.246
37.226
37.211
37.199
37.19
37.183
37.179
37.175
37.172
37.169
37.164
37.157
37.148
37.136
37.122
37.106
37.086
37.063
37.037
37.01
36.98
36.95
36.917
36.881
36.843
36.801
36.756
36.707
36.655
36.602
36.55
36.499
36.451
36.406
36.366
36.33
36.299
36.273
36.253
36.238
36.228
36.223
36.223
36.226
36.233
36.243
36.254
36.266
36.279
36.29
36.301
36.31
36.316
36.32
36.322
36.32
36.313
36.303
36.289
36.272
36.253
36.232
36.211
36.19
36.17
36.151
36.136
36.123
36.114
36.106
36.099
36.093
36.086
36.077
36.066
36.053
36.038
36.021
36.004
35.984
35.962
35.937
35.909
35.877
35.842
35.802
35.76
35.716
35.671
35.627
35.583
35.539
35.498
35.459
35.422
35.389
35.358
35.329
35.302
35.277
35.253
35.23
35.208
35.188
35.169
35.15
35.131
35.111
35.09
35.068
35.045
35.021
34.998
34.976
34.955
34.936
34.919
34.902
34.885
34.868
34.852
34.835
34.818
34.803
34.788
34.774
34.762
34.75
34.739
34.729
34.721
34.713
34.708
34.71
34.72
34.739
34.764
34.793
34.822
34.848
34.869
34.883
34.89
34.887
34.874
34.851
34.819
34.779
34.732
34.683
34.631
34.578
34.527
34.477
34.43
34.384
34.342
34.301
34.264
34.229
34.197
34.168
34.141
34.115
34.091
34.067
34.045
34.025
34.01
33.999
33.995
33.999
34.012
34.038
34.078
34.136
34.214
34.314
34.435
34.577
34.738
34.915
35.106
35.309
35.52
35.737
35.958
36.179
36.398
36.611
36.817
37.012
37.193
37.359
37.508
37.639
37.751
37.845
37.919
37.977
38.018
38.046
38.061
38.068
38.068
38.063
38.054
38.042
38.025
38.006
37.983
37.958
37.932
37.904
37.876
37.848
37.821
37.794
37.767
37.741
37.716
37.691
37.668
37.646
37.624
37.603
37.581
37.559
37.535
37.508
37.478
37.446
37.411
37.372
37.331
37.285
37.235
37.18
37.122
37.062
37.0
36.94
36.881
36.826
36.776
36.73
36.69
36.656
36.626
36.601
36.579
36.561
36.545
36.532
36.522
36.514
36.507
36.503
36.5
36.5
36.501
36.504
36.508
36.514
36.519
36.524
36.528
36.531
36.533
36.534
36.534
36.531
36.525
36.515
36.503
36.486
36.466
36.443
36.417
36.387
36.355
36.32
36.282
36.241
36.198
36.151
36.102
36.052
36.001
35.95
35.899
35.847
35.796
35.744
35.692
35.641
35.59
35.541
35.492
35.445
35.398
35.351
35.307
35.263
35.221
35.18
35.142
35.105
35.068
35.032
34.996
34.961
34.929
34.899
34.873
34.851
34.832
34.816
34.803
34.791
34.779
34.768
34.757
34.746
34.734
34.722
34.709
34.694
34.677
34.658
34.636
34.612
34.585
34.558
34.531
34.505
34.479
34.455
34.433
34.412
34.394
34.377
34.362
34.348
34.335
34.322
34.31
34.297
34.284
34.272
34.261
34.251
34.241
34.232
34.223
34.214
34.205
34.195
34.184
34.175
34.166
34.16
34.154
34.15
34.146
34.142
34.137
34.132
34.125
34.115
34.103
34.089
34.072
34.052
34.03
34.008
33.984
33.96
33.936
33.913
33.892
33.875
33.862
33.857
33.862
33.883
33.924
