Trial 1:0back
34.88
34.87
34.862
34.856
34.85
34.844
34.838
34.831
34.824
34.815
34.805
34.794
34.782
34.769
34.756
34.742
34.73
34.719
34.711
34.705
34.702
34.702
34.705
34.709
34.714
34.717
34.719
34.719
34.714
34.706
34.693
34.678
34.66
34.641
34.621
34.601
34.582
34.564
34.55
34.537
34.527
34.519
34.513
34.507
34.502
34.497
34.492
34.485
34.477
34.468
34.46
34.452
34.446
34.442
34.44
34.439
34.439
34.44
34.441
34.442
34.442
34.441
34.438
34.433
34.425
34.416
34.404
34.392
34.379
34.366
34.353
34.342
34.331
34.323
34.316
34.312
34.31
34.309
34.308
34.306
34.302
34.297
34.291
34.284
34.277
34.268
34.259
34.25
34.24
34.231
34.222
34.214
34.207
34.201
34.197
34.194
34.192
34.191
34.19
34.187
34.183
34.176
34.168
34.157
34.144
34.13
34.115
34.1
34.085
34.071
34.059
34.05
34.044
34.042
34.043
34.047
34.053
34.06
34.068
34.075
34.082
34.088
34.092
34.094
34.095
34.097
34.101
34.106
34.113
34.12
34.126
34.131
34.135
34.136
34.134
34.13
34.122
34.112
34.099
34.085
34.069
34.054
34.042
34.031
34.024
34.019
34.018
34.019
34.022
34.028
34.034
34.04
34.045
34.049
34.05
34.047
34.041
34.031
34.018
34.002
33.984
33.966
33.948
33.931
33.918
33.911
33.91
33.917
33.935
33.965
34.009
34.07
34.152
34.254
34.379
34.525
34.691
34.874
35.072
35.281
35.497
35.717
35.936
36.152
36.361
36.559
36.743
36.911
37.062
37.194
37.307
37.401
37.476
37.532
37.57
37.592
37.599
37.592
37.573
37.545
37.507
37.463
37.414
37.361
37.305
37.249
37.194
37.142
37.093
37.048
37.007
36.972
36.942
36.917
36.898
36.882
36.87
36.861
36.855
36.85
36.848
36.847
36.849
36.852
36.856
36.861
36.865
36.867
36.866
36.862
36.855
36.845
36.832
36.815
36.796
36.775
36.752
36.726
36.699
36.672
36.644
36.616
36.588
36.56
36.533
36.505
36.478
36.452
36.429
36.409
36.392
36.379
36.369
36.362
36.357
36.352
36.348
36.343
36.338
36.331
36.323
36.313
36.302
36.29
36.278
36.266
36.254
36.242
36.23
36.219
36.209
36.2
36.19
36.179
36.166
36.152
36.135
36.116
36.094
36.071
36.047
36.022
35.995
35.967
35.938
35.908
35.879
35.851
35.823
35.795
35.767
35.739
35.712
35.686
35.66
35.635
35.612
35.591
35.572
35.557
35.545
35.537
35.531
35.529
35.527
35.527
35.526
35.524
35.521
35.516
35.509
35.5
35.489
35.478
35.464
35.45
35.435
35.419
35.403
35.387
35.371
35.354
35.338
35.323
35.308
35.295
35.283
35.273
35.267
35.264
35.266
35.273
35.284
35.301
35.321
35.345
35.373
35.407
35.448
35.497
35.551
35.608
35.664
35.718
35.767
35.811
35.847
35.877
35.899
35.915
35.925
35.929
35.928
35.923
35.916
35.905
35.892
35.877
35.86
35.839
35.816
35.791
35.764
35.733
35.7
35.663
35.622
35.578
35.531
35.481
35.429
35.373
35.316
35.257
35.196
35.135
35.074
35.014
34.955
34.898
34.844
34.793
34.749
34.713
34.686
34.668
34.659
34.657
34.664
34.677
34.697
34.722
34.752
34.785
34.822
34.86
34.901
34.942
34.984
35.025
35.065
35.102
35.136
35.167
35.194
35.217
35.237
35.251
35.261
35.267
35.269
35.269
35.265
35.257
35.247
35.234
35.219
35.203
35.186
35.167
35.147
35.125
35.103
35.079
35.055
35.03
35.005
34.98
34.956
34.931
34.909
34.888
34.869
34.853
34.838
34.826
34.814
34.803
34.792
34.781
34.769
34.756
34.742
34.726
34.708
34.688
34.668
34.648
34.629
34.611
34.595
34.581
34.57
34.561
34.555
34.552
34.551
34.552
34.554
34.555
34.554
34.552
34.547
34.539
34.526
34.511
34.493
34.476
34.459
34.445
34.434
34.426
34.421
34.419
34.419
34.42
34.421
34.421
34.421
34.42
34.417
34.413
34.408
34.402
34.396
34.39
34.384
34.38
34.376
34.374
34.375
34.376
34.379
34.382
34.385
34.388
34.391
34.392
34.392
34.39
34.386
34.38
34.372
34.363
34.352
34.34
34.328
34.316
34.305
34.296
34.289
34.284
34.281
34.279
34.278
34.277
34.275
34.271
34.266
34.258
34.248
34.237
34.224
34.209
34.193
34.176
34.159
34.144
34.13
34.117
34.106
34.098
34.091
34.087
34.084
34.083
34.084
34.085
34.087
34.088
34.09
34.09
34.091
34.09
34.088
34.086
34.083
34.079
34.076
34.073
34.069
34.066
34.062
34.058
34.055
34.052
34.05
34.048
34.047
34.045
34.042
34.04
34.037
34.035
34.032
34.029
34.027
34.025
34.023
34.022
34.021
34.019
34.016
34.012
34.007
34.001
33.993
33.985
33.978
33.97
33.963
33.957
33.952
33.946
33.941
33.936
33.93
33.924
33.916
33.907
33.898
33.889
33.88
33.873
33.867
33.864
33.864
33.87
33.884
33.907
33.943
33.993
34.062
34.151
34.264
34.401
34.563
34.747
34.95
35.169
35.4
35.639
35.88
36.119
36.353
36.576
36.787
36.981
37.158
37.314
37.451
37.567
37.663
37.74
37.797
37.836
37.857
37.863
37.855
37.835
37.804
37.764
37.717
37.664
37.606
37.546
37.483
37.421
37.36
37.302
37.246
37.192
37.14
37.092
37.048
37.01
36.977
36.951
36.93
36.914
36.904
36.898
36.897
36.899
36.904
36.912
36.92
36.928
36.935
36.939
36.939
36.935
36.928
36.918
36.904
36.885
36.862
36.834
36.803
36.768
36.731
36.691
36.649
36.607
36.566
36.526
36.488
36.454
36.422
36.395
36.372
36.353
36.338
36.327
36.321
36.318
36.318
36.321
36.324
36.327
36.33
36.332
36.332
36.331
36.329
36.326
36.323
36.318
36.313
36.306
36.299
36.291
36.282
36.272
36.261
36.247
36.23
36.212
36.192
36.17
36.148
36.126
36.103
36.081
36.059
36.038
36.017
35.997
35.977
35.957
35.936
35.915
35.892
35.867
35.841
35.814
35.787
35.762
35.738
35.717
35.699
35.683
35.671
35.662
35.656
35.651
35.648
35.645
35.642
35.638
35.631
35.622
35.611
35.598
35.584
35.568
35.552
35.535
35.519
35.505
35.491
35.479
35.469
35.459
35.451
35.444
35.437
35.43
35.423
35.415
35.405
35.394
35.38
35.366
35.35
35.335
35.322
35.31
35.3
35.291
35.285
35.279
35.275
35.271
35.265
35.258
35.25
35.24
35.228
35.214
35.198
35.182
35.165
35.148
35.131
35.113
35.095
35.077
35.061
35.047
35.034
35.023
35.013
35.004
34.995
34.985
34.974
34.961
34.947
34.932
34.915
34.897
34.88
34.864
34.85
34.837
34.827
34.818
34.811
34.805
34.8
34.796
34.793
34.789
34.784
34.778
34.771
34.763
34.754
34.743
34.732
34.72
34.706
34.692
34.679
34.666
34.654
34.644
34.635
34.627
34.62
34.615
34.609
34.604
34.599
34.593
34.586
34.577
34.567
34.556
34.545
34.534
34.523
34.512
34.502
34.493
34.483
34.474
34.465
34.457
34.449
34.441
34.432
34.424
34.415
34.406
34.396
34.386
34.375
34.365
34.356
34.35
34.346
34.344
34.345
34.347
34.351
34.356
34.36
34.364
34.366
34.365
34.362
34.355
34.345
34.333
34.32
34.305
34.291
34.279
34.271
34.269
34.274
34.288
34.314
34.353
34.408
34.478
34.566
34.669
34.788
34.92
35.064
35.218
35.377
35.54
35.703
35.864
36.021
36.172
36.315
36.449
36.572
36.684
36.785
36.874
36.951
37.015
37.065
37.103
37.13
37.146
37.152
37.151
37.141
37.126
37.105
37.08
37.051
37.019
36.984
36.947
36.908
36.868
36.828
36.789
36.753
36.72
36.691
36.667
36.648
36.635
36.627
36.622
36.622
36.624
36.628
36.633
36.638
36.643
36.646
36.647
36.645
36.64
36.63
36.616
36.597
36.574
36.546
36.515
36.481
36.445
36.406
36.366
36.326
36.285
36.246
36.21
36.176
36.147
36.122
36.101
36.082
36.066
36.052
36.04
36.03
36.022
36.016
36.013
36.013
36.015
36.02
36.027
36.036
36.044
36.052
36.059
36.066
36.071
36.074
36.075
36.074
36.071
36.066
36.059
36.05
36.04
36.029
36.017
36.003
35.987
35.969
35.949
35.929
35.908
35.887
35.868
35.85
35.834
35.819
35.804
35.791
35.779
35.768
35.758
35.748
35.736
35.723
35.71
35.697
35.684
35.672
35.661
35.651
35.644
35.637
35.632
35.627
35.622
35.616
35.609
35.6
35.588
35.573
35.556
35.537
35.517
35.495
35.473
35.451
35.43
35.41
35.392
35.376
35.362
35.351
35.343
35.335
35.328
35.321
35.314
35.311
35.313
35.319
35.328
35.338
35.347
35.355
35.36
35.363
35.362
35.36
35.356
35.353
35.353
35.356
35.365
35.381
35.404
35.436
35.475
35.522
35.576
35.636
35.701
35.769
35.84
35.912
35.985
36.056
36.125
36.19
36.25
36.304
36.351
36.391
36.423
36.447
36.464
36.472
36.474
36.469
36.46
36.446
36.428
36.404
36.373
36.336
36.295
36.253
36.211
36.171
36.134
36.101
36.072
36.047
36.026
36.009
35.993
35.979
35.966
35.951
35.933
35.913
35.89
35.865
35.839
35.811
35.781
35.751
35.721
35.692
35.665
35.638
35.612
35.587
35.565
35.546
35.53
35.519
35.511
35.507
35.506
35.51
35.516
35.525
35.535
35.547
35.559
35.574
35.59
35.609
35.629
35.65
35.671
35.692
35.71
35.726
35.738
35.746
35.75
35.751
35.747
35.741
35.731
35.721
35.709
35.696
35.682
35.669
35.656
35.643
35.63
35.615
35.599
35.582
35.563
35.542
35.519
35.495
35.47
35.445
35.421
35.398
35.374
35.35
35.326
35.303
35.281
35.259
35.239
35.22
35.202
35.185
35.17
35.156
35.144
35.132
35.121
35.111
35.101
35.091
35.081
35.072
35.063
35.055
35.047
35.039
35.032
35.025
35.019
35.014
35.01
35.007
35.005
35.003
35.0
34.996
34.992
34.987
34.981
34.974
34.967
34.96
34.954
34.947
34.942
34.936
34.931
34.924
34.915
34.904
34.891
34.877
34.863
34.847
34.831
34.814
34.797
34.781
34.766
34.753
34.743
34.735
34.73
34.727
34.726
34.725
34.726
34.727
34.728
34.728
34.726
34.722
34.717
34.71
34.703
34.695
34.686
34.676
34.666
34.656
34.645
34.633
34.621
34.608
34.595
34.584
34.574
34.566
34.562
34.559
34.56
34.561
34.563
34.565
34.566
34.567
34.567
34.565
34.562
34.558
34.552
34.546
34.539
34.532
34.526
34.519
34.513
34.506
34.499
34.492
34.485
34.476
34.467
34.456
34.443
34.43
34.416
34.402
34.389
34.377
34.367
34.359
34.353
34.347
34.343
34.339
34.334
34.328
34.32
34.31
34.297
34.282
34.267
34.253
34.24
34.23
34.223
34.219
34.217
34.218
34.221
34.226
34.234
34.243
34.254
34.265
34.276
34.286
34.295
34.303
34.308
34.31
34.309
34.304
34.298
34.29
34.281
34.271
34.261
34.25
34.24
34.229
34.219
34.21
34.202
34.196
34.192
34.189
34.188
34.189
34.19
34.192
34.194
34.196
34.197
34.196
34.194
34.191
34.189
34.186
34.184
34.182
34.181
34.18
34.18
34.18
34.179
34.178
34.177
34.174
34.169
34.161
34.152
34.14
34.125
34.108
34.089
34.068
34.048
34.028
34.01
33.995
33.983
33.974
33.969
33.968
33.973
33.984
34.002
34.032
34.074
34.131
34.205
34.3
34.415
34.552
34.711
34.889
35.083
35.292
35.511
35.737
35.964
36.188
36.405
36.61
36.801
36.975
37.131
37.265
37.379
37.472
37.546
37.601
37.638
37.659
37.665
37.658
37.639
37.609
37.569
37.521
37.465
37.405
37.341
37.276
37.211
37.149
37.089
37.036
36.989
36.949
36.916
36.89
36.869
36.854
36.843
36.835
36.829
36.825
36.823
36.822
36.822
36.824
36.825
36.826
36.827
36.827
36.825
36.822
36.816
36.806
36.793
36.777
36.757
36.734
36.708
36.681
36.652
36.621
36.588
36.555
36.522
36.49
36.458
36.427
36.399
36.372
36.347
36.325
36.307
36.292
36.281
36.274
36.269
36.265
36.262
36.259
36.257
36.256
36.254
36.251
36.247
36.242
36.235
36.228
36.221
36.215
36.21
36.206
36.203
36.2
36.198
36.195
36.191
36.187
36.182
36.173
36.162
36.148
36.13
36.11
36.086
36.06
36.032
36.002
35.971
35.939
35.907
35.876
35.844
35.814
35.786
35.759
35.734
35.711
35.689
35.669
35.651
35.634
35.619
35.605
35.593
35.582
35.572
35.561
35.551
35.54
35.529
35.519
35.51
35.503
35.497
35.492
35.488
35.484
35.48
35.475
35.47
35.465
35.461
35.456
35.452
35.447
35.442
35.436
35.431
35.425
35.419
35.413
35.409
35.405
35.404
35.405
35.409
35.417
35.43
35.447
35.469
35.496
35.525
35.558
35.592
35.626
35.658
35.689
35.718
35.744
35.768
35.79
35.81
35.828
35.843
35.856
35.867
35.876
35.883
35.886
35.886
35.883
35.875
35.863
35.847
35.827
35.803
35.775
35.742
35.705
35.665
35.622
35.577
35.53
35.482
35.432
35.379
35.324
35.267
35.209
35.15
35.09
35.031
34.973
34.918
34.868
34.825
34.789
34.761
34.743
34.734
34.734
34.744
34.762
34.788
34.819
34.854
34.892
34.931
34.97
35.007
35.044
35.078
35.111
35.141
35.168
35.193
35.216
35.235
35.251
35.264
35.273
35.28
35.283
35.282
35.278
35.27
35.26
35.247
35.232
35.214
35.194
35.172
35.149
35.127
35.106
35.087
35.069
35.053
35.039
35.026
35.014
35.002
34.989
34.975
34.959
34.943
34.925
34.906
34.887
34.868
34.851
34.835
34.821
34.809
34.798
34.789
34.78
34.771
34.762
34.753
34.743
34.732
34.72
34.707
34.695
34.683
34.672
34.662
34.652
34.643
34.633
34.623
34.612
34.602
34.592
34.583
34.575
34.567
34.559
34.551
34.543
34.535
34.528
34.521
34.513
34.506
34.498
34.492
34.487
34.484
34.483
34.484
34.487
34.491
34.497
34.504
34.51
34.516
34.522
34.525
34.528
34.528
34.526
34.522
34.516
34.508
34.497
34.485
34.473
34.46
34.447
34.436
34.424
34.41
34.392
34.372
34.35
34.328
34.306
34.286
34.269
34.254
34.242
34.232
34.226
34.222
34.219
34.218
34.217
34.217
34.217
34.219
34.221
34.223
34.225
34.227
34.229
34.231
34.232
34.232
34.231
34.229
34.226
34.223
34.219
34.214
34.208
34.203
34.199
34.195
34.194
34.194
34.196
34.2
34.204
34.208
34.211
34.211
34.209
34.205
34.197
34.186
34.173
34.158
34.142
34.126
34.11
34.095
34.082
34.071
34.06
34.05
34.042
34.036
34.032
34.03
34.03
34.032
34.036
34.042
34.049
34.058
34.066
34.075
34.083
34.091
34.098
34.103
34.109
34.113
34.116
34.119
34.119
34.118
34.116
34.111
34.106
34.1
34.094
34.088
34.083
34.078
34.073
34.068
34.062
34.055
34.048
34.04
34.031
34.02
34.008
33.996
33.983
33.972
33.964
33.962
33.969
33.987
34.022
34.076
34.152
34.251
34.375
34.523
34.693
34.882
35.087
35.303
35.526
35.753
35.978
36.197
36.408
36.606
36.79
36.956
37.103
37.229
37.333
37.416
37.476
37.517
37.538
37.542
37.532
37.508
37.475
37.433
37.384
37.33
37.273
37.214
37.154
37.093
37.033
36.973
36.915
36.859
36.807
36.759
36.716
36.677
36.642
36.613
36.588
36.569
36.554
36.543
36.536
36.531
36.527
36.522
36.516
36.508
36.497
36.484
36.468
36.451
36.431
36.409
36.385
36.36
36.334
36.307
36.279
36.251
36.224
36.199
36.175
36.153
36.134
36.119
36.107
36.099
36.095
36.093
36.094
36.097
36.103
36.11
36.117
36.123
36.129
36.133
36.136
36.138
36.139
36.138
36.136
36.134
36.131
36.128
36.125
36.121
36.118
36.114
36.108
36.102
36.094
36.083
36.071
36.056
36.038
36.017
35.994
35.969
35.944
35.919
35.893
35.868
35.842
35.816
35.79
35.763
35.735
35.706
35.677
35.648
35.618
35.588
35.559
35.532
35.507
35.484
35.465
35.449
35.437
35.429
35.424
35.421
35.42
35.419
35.417
35.415
35.411
35.406
35.398
35.389
35.377
35.365
35.356
35.355
35.361
35.375
35.392
35.412
35.429
35.443
35.45
35.448
35.437
35.419
35.393
35.362
35.327
35.29
35.252
35.215
35.182
35.151
35.124
35.102
35.083
35.069
35.058
35.05
35.043
35.037
35.031
35.024
35.016
35.007
34.996
34.984
34.972
34.96
34.949
34.94
34.933
34.928
34.925
34.922
34.919
34.916
34.912
34.906
34.898
34.889
34.877
34.862
34.845
34.826
34.805
34.784
34.762
34.742
34.723
34.706
34.691
34.679
34.669
34.663
34.661
34.661
34.662
34.665
34.669
34.672
34.674
34.675
34.673
34.669
34.663
34.656
34.647
34.638
34.628
34.618
34.61
34.602
34.594
34.587
34.58
34.574
34.568
34.563
34.558
34.552
34.544
34.535
34.525
34.514
34.502
34.492
34.483
34.476
34.472
34.469
34.468
34.47
34.473
34.476
34.478
34.48
34.48
34.478
34.474
34.469
34.462
34.454
34.445
34.436
34.426
34.415
34.403
34.392
34.38
34.368
34.355
34.343
34.33
34.316
34.303
34.289
34.275
34.264
34.255
34.249
34.248
34.252
34.264
34.286
34.321
34.371
34.439
34.524
34.626
34.744
34.876
35.02
35.172
35.329
35.488
35.646
35.801
35.949
36.087
36.216
36.333
36.439
36.534
36.616
36.687
36.746
36.793
36.83
36.857
36.873
36.88
36.877
36.866
36.847
36.823
36.795
36.764
36.729
36.693
36.657
36.62
36.584
36.548
36.513
36.479
36.448
36.417
36.389
36.364
36.342
36.324
36.311
36.303
36.299
36.297
36.298
36.3
36.303
36.306
36.308
36.307
36.303
36.295
36.283
36.267
36.248
36.226
36.201
36.176
36.149
36.122
36.094
36.066
36.04
36.014
35.99
35.967
35.944
35.922
35.901
35.883
35.867
35.855
35.846
35.841
35.839
35.84
35.843
35.847
35.851
35.854
35.856
35.856
35.855
35.851
35.846
35.84
35.833
35.825
35.818
35.81
35.804
35.799
35.794
35.79
35.787
35.784
35.78
35.775
35.768
35.759
35.747
35.733
35.717
35.698
35.678
35.658
35.638
35.618
35.599
35.58
35.563
35.547
35.532
35.517
35.502
35.485
35.468
35.448
35.427
35.403
35.379
35.355
35.332
35.31
35.29
35.273
35.259
35.247
35.238
35.23
35.223
35.218
35.212
35.205
35.198
35.189
35.179
35.169
35.159
35.149
35.138
35.128
35.118
35.11
35.102
35.094
35.084
35.073
35.06
35.045
35.029
35.013
34.996
34.98
34.964
34.95
34.938
34.928
34.921
34.916
34.914
34.912
34.911
34.909
34.906
34.903
34.898
34.892
34.884
34.876
34.867
34.858
34.849
34.84
34.831
34.823
34.816
34.81
34.804
34.801
34.798
34.797
34.795
34.793
34.79
34.786
34.78
34.772
34.763
34.753
34.742
34.731
34.72
34.71
34.7
34.691
34.684
34.676
34.669
34.661
34.653
34.643
34.633
34.621
34.607
34.591
34.573
34.553
34.534
34.515
34.498
34.483
34.47
34.458
34.449
34.441
34.432
34.424
34.416
34.408
34.4
34.392
34.386
34.382
34.379
34.379
34.38
34.384
34.388
34.395
34.401
34.408
34.415
34.42
34.423
34.423
34.421
34.416
34.41
34.402
34.394
34.384
34.374
34.364
34.352
34.339
34.325
34.309
34.292
34.275
34.258
34.239
34.22
34.201
34.18
34.16
34.14
34.121
34.104
34.089
34.075
34.064
34.056
34.052
34.052
34.056
34.067
34.084
34.109
34.143
34.188
34.244
34.312
34.391
34.482
34.583
34.694
34.814
34.944
35.08
35.222
35.367
35.51
35.65
35.783
35.907
36.022
36.125
36.216
36.293
36.357
36.408
36.446
36.474
36.492
36.5
36.5
36.492
36.478
36.458
36.433
36.404
36.373
36.341
36.306
36.271
36.236
36.199
36.164
36.129
36.097
36.068
36.043
36.022
36.006
35.994
35.987
35.983
35.982
35.982
35.984
35.985
35.986
35.986
35.983
35.979
35.972
35.963
35.951
35.936
35.92
35.901
35.882
35.861
35.839
35.816
35.792
35.767
35.74
35.712
35.682
35.652
35.621
35.592
35.564
35.54
35.52
35.505
35.495
35.492
35.494
35.5
35.509
35.519
35.529
35.539
35.548
35.554
35.558
35.559
35.558
35.555
35.549
35.542
35.533
35.523
35.513
35.501
35.489
35.476
35.463
35.451
35.439
35.428
35.417
35.406
35.395
35.384
35.374
35.364
35.355
35.346
35.336
35.326
35.315
35.302
35.289
35.275
35.259
35.243
35.226
35.209
35.191
35.174
35.157
35.142
35.128
35.116
35.105
35.095
35.086
35.076
35.066
35.054
35.041
35.027
35.012
34.996
34.98
34.964
34.95
34.938
34.927
34.918
34.91
34.903
34.898
34.896
34.895
34.896
34.897
34.898
34.898
34.897
34.894
34.891
34.886
34.88
34.874
34.867
34.859
34.852
34.846
34.843
34.841
34.842
34.845
34.85
34.857
34.865
34.874
34.883
34.89
34.897
34.901
34.902
34.9
34.895
34.887
34.877
34.865
34.852
34.839
34.826
34.814
34.802
34.791
34.779
34.767
34.754
34.739
34.722
34.702
34.68
34.656
34.631
34.606
34.581
34.558
