Trial 1:0back
36.324
36.367
36.417
36.472
36.531
36.593
36.657
36.721
36.784
36.845
36.903
36.957
37.005
37.046
37.081
37.109
37.129
37.14
37.144
37.141
37.131
37.113
37.089
37.058
37.02
36.976
36.927
36.873
36.815
36.753
36.686
36.617
36.544
36.468
36.389
36.308
36.223
36.135
36.045
35.953
35.857
35.759
35.66
35.56
35.46
35.36
35.263
35.166
35.072
34.979
34.889
34.8
34.712
34.626
34.542
34.459
34.378
34.298
34.221
34.145
34.071
33.999
33.93
33.862
33.798
33.735
33.675
33.616
33.56
33.505
33.452
33.4
33.349
33.3
33.253
33.207
33.163
33.122
33.082
33.044
33.008
32.974
32.942
32.911
32.882
32.853
32.826
32.8
32.775
32.749
32.724
32.698
32.673
32.649
32.625
32.602
32.58
32.56
32.541
32.523
32.505
32.489
32.473
32.456
32.44
32.424
32.408
32.392
32.375
32.358
32.34
32.323
32.306
32.289
32.272
32.256
32.24
32.225
32.209
32.192
32.175
32.157
32.136
32.114
32.091
32.066
32.039
32.011
31.983
31.954
31.925
31.896
31.869
31.842
31.817
31.793
31.771
31.749
31.727
31.705
31.682
31.659
31.634
31.608
31.582
31.556
31.529
31.504
31.478
31.453
31.429
31.405
31.382
31.36
31.338
31.317
31.296
31.276
31.255
31.233
31.21
31.186
31.16
31.131
31.101
31.068
31.032
30.996
30.957
30.917
30.877
30.837
30.799
30.761
30.725
30.693
30.663
30.637
30.615
30.599
30.589
30.586
30.594
30.614
30.652
30.712
30.798
30.916
31.071
31.267
31.506
31.79
32.117
32.486
32.893
33.332
33.798
34.284
34.784
35.29
35.796
36.297
36.786
37.26
37.715
38.146
38.551
38.929
39.278
39.597
39.886
40.145
40.375
40.577
40.751
40.898
41.02
41.118
41.194
41.248
41.283
41.299
41.298
41.28
41.248
41.202
41.144
41.075
40.995
40.907
40.81
40.707
40.599
40.487
40.372
40.255
40.137
40.019
39.901
39.785
39.671
39.558
39.448
39.339
39.232
39.128
39.026
38.925
38.826
38.727
38.628
38.527
38.425
38.321
38.214
38.106
37.996
37.886
37.776
37.667
37.561
37.459
37.362
37.273
37.192
37.12
37.06
37.011
36.973
36.948
36.934
36.933
36.942
36.96
36.987
37.022
37.062
37.106
37.154
37.203
37.253
37.302
37.349
37.395
37.437
37.475
37.509
37.537
37.56
37.576
37.586
37.59
37.586
37.576
37.559
37.534
37.503
37.465
37.42
37.368
37.31
37.247
37.179
37.106
37.029
36.949
36.866
36.781
36.694
36.605
36.515
36.425
36.333
36.242
36.151
36.06
35.968
35.877
35.787
35.697
35.607
35.518
35.43
35.342
35.255
35.168
35.082
34.997
34.913
34.829
34.746
34.664
34.583
34.503
34.426
34.35
34.278
34.208
34.141
34.078
34.017
33.958
33.902
33.847
33.794
33.743
33.693
33.645
33.599
33.555
33.512
33.472
33.433
33.396
33.361
33.327
33.295
33.265
33.236
33.209
33.184
33.158
33.134
33.108
33.083
33.057
33.031
33.004
32.978
32.952
32.926
32.901
32.877
32.853
32.83
32.806
32.783
32.76
32.737
32.715
32.693
32.672
32.651
32.63
32.611
32.592
32.575
32.558
32.543
32.529
32.515
32.501
32.487
32.471
32.453
32.433
32.411
32.386
32.36
32.332
32.303
32.273
32.243
32.213
32.183
32.155
32.126
32.099
32.072
32.045
32.018
31.99
31.962
31.934
31.906
31.878
31.851
31.824
31.798
31.772
31.747
31.723
31.699
31.675
31.651
31.628
31.605
31.582
31.559
31.537
31.515
31.492
31.47
31.448
31.426
31.404
31.381
31.358
31.335
31.311
31.288
31.263
31.239
31.213
31.187
31.161
31.133
31.105
31.075
31.044
31.012
30.98
30.947
30.914
30.882
30.849
30.818
30.788
30.761
30.739
30.721
30.713
30.714
30.731
30.765
30.821
30.905
31.021
31.172
31.362
31.594
31.87
32.189
32.549
32.949
33.383
33.847
34.334
34.839
35.356
35.877
36.396
36.908
37.407
37.888
38.349
38.785
39.194
39.576
39.929
40.251
40.544
40.806
41.038
41.24
41.414
41.559
41.678
41.772
41.841
41.886
41.909
41.912
41.894
41.86
41.81
41.746
41.671
41.585
41.489
41.386
41.277
41.162
41.043
40.92
40.795
40.668
40.54
40.413
40.287
40.164
40.042
39.923
39.805
39.689
39.574
39.459
39.346
39.232
39.119
39.004
38.889
38.773
38.655
38.536
38.417
38.297
38.178
38.061
37.948
37.839
37.736
37.64
37.553
37.475
37.407
37.348
37.301
37.264
37.237
37.221
37.215
37.218
37.23
37.249
37.276
37.309
37.347
37.39
37.437
37.486
37.537
37.589
37.639
37.688
37.734
37.775
37.811
37.841
37.864
37.88
37.887
37.886
37.877
37.86
37.834
37.801
37.76
37.712
37.657
37.597
37.532
37.463
37.391
37.317
37.241
37.162
37.082
37.0
36.916
36.831
36.745
36.657
36.568
36.478
36.387
36.295
36.203
36.111
36.018
35.926
35.832
35.738
35.642
35.546
35.449
35.353
35.258
35.164
35.073
34.983
34.895
34.811
34.729
34.651
34.576
34.504
34.435
34.368
34.302
34.237
34.173
34.109
34.047
33.986
33.927
33.871
33.817
33.766
33.718
33.671
33.627
33.585
33.544
33.505
33.469
33.434
33.4
33.369
33.34
33.312
33.287
33.262
33.24
33.218
33.198
33.177
33.156
33.135
33.113
33.092
33.07
33.049
33.029
33.008
32.989
32.97
32.952
32.935
32.92
32.905
32.892
32.88
32.868
32.856
32.844
32.831
32.817
32.801
32.784
32.765
32.744
32.722
32.699
32.675
32.65
32.625
32.6
32.575
32.55
32.527
32.504
32.483
32.463
32.444
32.425
32.407
32.389
32.371
32.352
32.333
32.314
32.294
32.275
32.255
32.236
32.216
32.195
32.173
32.151
32.128
32.104
32.079
32.052
32.024
31.996
31.965
31.933
31.9
31.866
31.832
31.798
31.764
31.731
31.699
31.669
31.64
31.612
31.584
31.557
31.53
31.503
31.476
31.449
31.421
31.392
31.363
31.333
31.303
31.272
31.242
31.212
31.183
31.156
31.129
31.104
31.081
31.058
31.037
31.016
30.998
30.982
30.969
30.962
30.961
30.969
30.991
31.031
31.093
31.183
31.307
31.468
31.671
31.918
32.21
32.547
32.926
33.344
33.797
34.278
34.781
35.3
35.827
36.356
36.882
37.398
37.899
38.382
38.842
39.276
39.683
40.061
40.41
40.729
41.017
41.276
41.504
41.703
41.872
42.014
42.128
42.216
42.279
42.319
42.336
42.332
42.309
42.267
42.208
42.133
42.044
41.943
41.83
41.708
41.576
41.437
41.292
41.141
40.986
40.828
40.669
40.509
40.349
40.192
40.037
39.885
39.736
39.59
39.447
39.306
39.167
39.029
38.892
38.755
38.618
38.481
38.344
38.208
38.072
37.94
37.812
37.69
37.576
37.472
37.379
37.298
37.23
37.176
37.135
37.108
37.094
37.091
37.1
37.12
37.149
37.187
37.235
37.29
37.351
37.418
37.488
37.561
37.635
37.709
37.781
37.851
37.918
37.981
38.038
38.088
38.131
38.166
38.193
38.212
38.222
38.225
38.218
38.204
38.182
38.152
38.115
38.07
38.018
37.958
37.892
37.82
37.742
37.66
37.574
37.484
37.392
37.298
37.201
37.103
37.003
36.903
36.802
36.7
36.599
36.497
36.396
36.296
36.196
36.097
35.998
35.9
35.802
35.704
35.607
35.51
35.415
35.321
35.229
35.138
35.049
34.963
34.878
34.795
34.714
34.636
34.561
34.488
34.418
34.351
34.285
34.222
34.161
34.102
34.046
33.992
33.942
33.894
33.849
33.807
33.767
33.73
33.695
33.662
33.631
33.601
33.573
33.546
33.52
33.495
33.471
33.447
33.424
33.401
33.379
33.358
33.337
33.316
33.296
33.277
33.256
33.236
33.216
33.195
33.175
33.155
33.136
33.117
33.097
33.079
33.06
33.042
33.024
33.006
32.989
32.972
32.955
32.938
32.92
32.902
32.884
32.865
32.846
32.826
32.807
32.787
32.768
32.749
32.729
32.709
32.688
32.666
32.643
32.619
32.593
32.566
32.538
32.508
32.478
32.446
32.415
32.383
32.35
32.316
32.282
32.246
32.209
32.17
32.13
32.087
32.042
31.996
31.95
31.905
31.861
31.819
31.78
31.744
31.712
31.687
31.669
31.661
31.665
31.686
31.727
31.793
31.888
32.018
32.186
32.397
32.651
32.951
33.294
33.678
34.1
34.554
35.035
35.536
36.051
36.573
37.097
37.615
38.123
38.615
39.088
39.538
39.962
40.357
40.723
41.059
41.365
41.64
41.883
42.096
42.278
42.43
42.552
42.647
42.714
42.755
42.772
42.767
42.741
42.696
42.634
42.556
42.464
42.359
42.244
42.12
41.988
41.849
41.706
41.558
41.408
41.256
41.103
40.95
40.799
40.649
40.501
40.356
40.212
40.07
39.93
39.79
39.651
39.512
39.373
39.233
39.093
38.952
38.81
38.669
38.529
38.39
38.253
38.121
37.995
37.875
37.765
37.665
37.576
37.5
37.436
37.385
37.347
37.321
37.308
37.306
37.314
37.332
37.358
37.392
37.432
37.477
37.526
37.577
37.631
37.685
37.738
37.79
37.84
37.887
37.93
37.969
38.002
38.031
38.053
38.069
38.077
38.078
38.071
38.055
38.032
38.001
37.963
37.919
37.868
37.811
37.749
37.681
37.607
37.529
37.447
37.361
37.272
37.18
37.086
36.989
36.891
36.792
36.691
36.589
36.487
36.384
36.28
36.176
36.072
35.969
35.866
35.764
35.663
35.565
35.468
35.372
35.279
35.188
35.099
35.012
34.927
34.843
34.76
34.68
34.601
34.523
34.448
34.375
34.304
34.235
34.168
34.103
34.039
33.976
33.915
33.856
33.798
33.742
33.689
33.638
33.59
33.546
33.504
33.464
33.427
33.391
33.357
33.324
33.292
33.261
33.232
33.204
33.177
33.152
33.128
33.106
33.084
33.063
33.043
33.022
33.001
32.98
32.958
32.936
32.913
32.89
32.868
32.847
32.826
32.808
32.79
32.774
32.759
32.745
32.731
32.718
32.704
32.69
32.675
32.659
32.64
32.62
32.599
32.577
32.553
32.53
32.506
32.483
32.46
32.437
32.415
32.394
32.373
32.352
32.331
32.31
32.288
32.266
32.243
32.219
32.193
32.167
32.139
32.112
32.085
32.058
32.032
32.005
31.979
31.952
31.924
31.896
31.867
31.838
31.808
31.778
31.748
31.717
31.686
31.653
31.619
31.584
31.546
31.507
31.467
31.427
31.386
31.345
31.305
31.265
31.226
31.188
31.151
31.117
31.086
31.059
31.039
31.027
31.028
31.046
31.085
31.152
31.251
31.388
31.569
31.797
32.075
32.403
32.779
33.201
33.663
34.162
34.689
35.24
35.806
36.38
36.955
37.524
38.082
38.623
39.143
39.637
40.104
40.539
40.943
41.314
41.651
41.953
42.221
42.456
42.657
42.826
42.963
43.071
43.15
43.201
43.227
43.227
43.205
43.161
43.099
43.02
42.927
42.82
42.703
42.576
42.441
42.3
42.154
42.004
41.852
41.698
41.545
41.393
41.242
41.094
40.949
40.807
40.669
40.535
40.403
40.274
40.147
40.02
39.894
39.768
39.64
39.511
39.38
39.248
39.116
38.984
38.853
38.724
38.599
38.478
38.363
38.254
38.154
38.063
37.982
37.913
37.856
37.811
37.777
37.754
37.742
37.74
37.746
37.76
37.78
37.805
37.833
37.865
37.9
37.936
37.972
38.008
38.043
38.075
38.104
38.129
38.149
38.164
38.173
38.176
38.172
38.16
38.141
38.115
38.081
38.041
37.993
37.938
37.876
37.807
37.733
37.654
37.572
37.486
37.397
37.305
37.211
37.115
37.019
36.921
36.824
36.727
36.63
36.534
36.438
36.343
36.249
36.155
36.06
35.965
35.87
35.774
35.678
35.581
35.485
35.388
35.291
35.194
35.099
35.003
34.909
34.815
34.721
34.629
34.537
34.447
34.359
34.274
34.192
34.114
34.039
33.968
33.902
33.839
33.78
33.726
33.675
33.629
33.586
33.546
33.508
33.472
33.438
33.406
33.376
33.347
33.322
33.297
33.275
33.253
33.233
33.212
33.19
33.167
33.142
33.115
33.085
33.051
33.015
32.975
32.933
32.888
32.842
32.796
32.75
32.704
32.661
32.62
32.582
32.546
32.514
32.486
32.461
32.439
32.42
32.403
32.388
32.374
32.36
32.345
32.33
32.313
32.294
32.274
32.252
32.227
32.2
32.17
32.138
32.104
32.067
32.028
31.988
31.947
31.905
31.862
31.821
31.779
31.739
31.7
31.662
31.627
31.593
31.562
31.533
31.505
31.48
31.455
31.43
31.406
31.381
31.355
31.329
31.303
31.277
31.25
31.224
31.197
31.171
31.145
31.119
31.093
31.068
31.043
31.018
30.993
30.968
30.943
30.916
30.888
30.859
30.828
30.794
30.759
30.723
30.685
30.646
30.606
30.565
30.525
30.485
30.446
30.408
30.371
30.337
30.306
30.278
30.253
30.234
30.219
30.212
30.213
30.226
30.254
30.3
30.37
30.466
30.593
30.755
30.953
31.191
31.467
31.781
32.13
32.511
32.918
33.347
33.791
34.243
34.698
35.149
35.591
36.019
36.429
36.816
37.178
37.513
37.82
38.098
38.346
38.566
38.756
38.919
39.055
39.166
39.252
39.316
39.358
39.38
39.384
39.371
39.344
39.303
39.252
39.19
39.119
39.041
38.955
38.865
38.77
38.672
38.572
38.47
38.367
38.264
38.161
38.058
37.956
37.856
37.757
37.66
37.565
37.473
37.382
37.294
37.207
37.121
37.036
36.949
36.862
36.772
36.681
36.587
36.49
36.393
36.295
36.197
36.1
36.006
35.916
35.832
35.755
35.686
35.625
35.574
35.532
35.501
35.478
35.466
35.462
35.468
35.483
35.505
35.534
35.569
35.607
35.649
35.692
35.735
35.779
35.821
35.861
35.898
35.931
35.96
35.985
36.003
36.016
36.021
36.02
36.011
35.995
35.972
35.944
35.909
35.87
35.825
35.776
35.722
35.663
35.6
35.533
35.463
35.39
35.315
35.239
35.162
35.084
35.007
34.93
34.853
34.778
34.703
34.628
34.554
34.48
34.406
34.331
34.257
34.183
34.109
34.037
33.966
33.897
33.829
33.762
33.696
33.633
33.57
33.509
33.45
33.392
33.337
33.283
33.232
33.184
33.138
33.095
33.055
33.017
32.98
32.945
32.911
32.878
32.846
32.815
32.784
32.754
32.726
32.698
32.672
32.646
32.621
32.598
32.574
32.551
32.529
32.506
32.482
32.458
32.434
32.409
32.383
32.357
32.33
32.303
32.277
32.251
32.226
32.202
32.18
32.158
32.137
32.116
32.096
32.076
32.055
32.035
32.014
31.992
31.97
31.948
31.925
31.903
31.881
31.859
31.838
31.817
31.797
31.777
31.758
31.739
31.721
31.703
31.685
31.668
31.65
31.633
31.615
31.598
31.58
31.562
31.544
31.526
31.508
31.489
31.469
31.449
31.429
31.407
31.386
31.363
31.339
31.314
31.288
31.26
31.23
31.198
31.165
31.13
31.093
31.055
31.016
30.977
30.938
30.9
30.864
30.829
30.796
30.766
30.737
30.711
30.687
30.666
30.648
30.635
30.628
30.627
30.635
30.655
30.69
30.743
30.817
30.917
31.043
31.199
31.385
31.6
31.844
32.114
32.406
32.717
33.044
33.381
33.724
34.068
34.409
34.741
35.061
35.366
35.652
35.916
36.158
36.376
36.569
36.736
36.879
36.998
37.093
37.168
37.223
37.26
37.28
37.286
37.278
37.258
37.23
37.192
37.147
37.095
37.038
36.976
36.911
36.844
36.774
36.703
36.631
36.559
36.487
36.416
36.346
36.278
36.21
36.145
36.08
36.017
35.954
35.892
35.829
35.764
35.699
35.632
35.563
35.491
35.418
35.343
35.266
35.188
35.109
35.03
34.952
34.874
34.799
34.726
34.657
34.593
34.537
34.488
34.448
34.417
34.396
34.383
34.38
34.385
34.397
34.417
34.442
34.472
34.506
34.542
34.581
34.622
34.664
34.707
34.751
34.793
34.834
34.873
34.908
34.939
34.966
34.989
35.006
35.018
35.025
35.027
35.025
35.017
35.004
34.988
34.966
34.941
34.91
34.875
34.836
34.792
34.745
34.693
34.639
34.582
34.524
34.464
34.404
34.343
34.281
34.22
34.159
34.098
34.038
33.978
33.919
33.862
33.806
33.752
33.7
33.65
33.601
33.554
33.508
33.463
33.417
33.371
33.326
33.28
33.236
33.192
33.149
33.106
33.065
33.024
32.985
32.946
32.91
32.875
32.843
32.812
32.784
32.758
32.733
32.71
32.688
32.668
32.649
32.632
32.616
32.6
32.586
32.571
32.558
32.544
32.53
32.516
32.502
32.487
32.473
32.458
32.444
32.43
32.415
32.401
32.388
32.375
32.364
32.353
32.343
32.333
32.323
32.313
32.302
32.29
32.278
32.264
32.251
32.238
32.226
32.215
32.204
32.194
32.184
32.175
32.165
32.156
32.146
32.135
32.122
32.109
32.094
32.078
32.061
32.045
32.028
32.012
31.997
31.983
31.97
31.957
31.945
31.933
31.921
31.91
31.899
31.888
31.876
31.863
31.85
31.836
31.821
31.805
31.789
31.773
31.757
31.742
31.726
31.711
31.696
31.68
31.664
31.648
31.632
31.616
31.599
31.581
31.563
31.544
31.525
31.505
31.485
31.465
31.445
31.425
31.405
31.383
31.361
31.338
31.315
31.292
31.269
31.247
31.226
31.206
31.188
31.173
31.161
31.153
31.15
31.153
31.165
31.187
31.223
31.276
31.35
31.446
31.569
31.719
31.898
32.106
32.343
32.606
32.893
33.2
33.522
33.855
34.194
34.533
34.869
35.196
35.512
35.812
36.093
36.355
36.594
36.81
37.002
37.171
37.316
37.438
37.539
37.619
37.681
37.725
37.753
37.768
37.77
37.76
37.74
37.712
37.675
37.632
37.584
37.53
37.473
37.411
37.347
37.28
37.211
37.142
37.072
37.003
36.933
36.866
36.799
36.735
36.673
36.614
36.557
36.502
36.449
36.396
36.345
36.294
36.244
36.193
36.142
36.089
36.035
35.978
35.92
35.859
35.797
35.734
35.67
35.608
35.547
35.49
35.437
35.391
35.352
35.321
35.297
35.281
35.272
35.271
35.279
35.294
35.316
35.345
35.378
35.415
35.455
35.496
35.539
35.582
35.624
35.664
35.703
35.739
35.772
35.802
35.829
35.85
35.868
35.88
35.888
35.89
35.887
35.879
35.866
35.847
35.824
35.797
35.766
35.73
35.692
35.65
35.605
35.558
35.508
35.456
35.402
35.347
35.291
35.235
35.179
35.125
35.071
35.018
34.967
34.917
34.868
34.82
34.773
34.727
34.682
34.638
34.595
34.553
34.513
34.474
34.436
34.399
34.362
34.325
34.288
34.251
34.213
34.175
34.137
34.1
34.063
34.027
33.991
33.956
33.922
33.888
33.855
33.823
33.793
33.763
33.734
33.706
33.68
33.656
33.633
33.613
33.595
33.58
33.567
33.557
33.548
33.541
33.534
33.527
33.52
33.513
33.506
33.498
33.491
33.484
33.477
33.469
33.462
33.454
33.445
33.435
33.423
33.41
33.395
33.378
33.359
33.339
33.318
33.296
33.274
33.251
33.229
33.207
33.185
33.165
33.145
33.126
33.108
33.092
33.077
33.063
33.051
33.04
33.03
33.021
33.013
33.006
32.999
32.992
32.985
32.977
32.968
32.958
32.948
32.936
32.923
32.908
32.893
32.877
32.86
32.842
32.825
32.807
32.789
32.772
32.753
32.734
32.715
32.695
32.674
32.652
32.631
32.609
32.588
32.567
32.545
32.523
32.501
32.478
32.456
32.435
32.415
32.397
32.38
32.364
32.349
32.336
32.323
32.311
32.3
32.29
32.281
32.274
32.266
32.259
32.25
32.239
32.228
32.215
32.2
32.184
32.167
32.148
32.127
32.106
32.083
32.059
32.034
32.009
31.984
31.959
31.936
31.915
31.895
31.879
31.866
31.857
31.853
31.856
31.866
31.884
31.914
31.956
32.015
32.093
32.193
32.318
32.469
32.649
32.858
33.095
33.358
33.646
33.953
34.278
34.614
34.956
35.301
35.642
35.976
36.298
36.605
36.895
37.166
37.416
37.644
37.849
38.03
38.189
38.325
38.439
38.532
38.606
38.662
38.701
38.724
38.733
38.729
38.712
38.685
38.649
38.605
38.556
38.502
38.445
38.386
38.325
38.262
38.197
38.131
38.064
37.996
37.927
37.857
37.787
37.717
37.648
37.581
37.517
37.454
37.394
37.335
37.278
37.223
37.169
37.116
37.062
37.008
36.951
36.893
36.833
36.772
36.709
36.646
36.585
36.525
36.469
36.417
36.37
36.329
36.295
36.267
36.246
36.233
36.227
36.229
36.238
36.255
36.278
36.309
36.345
36.387
36.434
36.483
36.534
36.586
36.638
36.689
36.737
36.781
36.822
36.858
36.888
36.913
36.932
36.945
36.952
36.954
36.949
36.939
36.924
36.904
36.879
36.851
36.82
36.785
36.747
36.707
36.664
36.618
36.571
36.521
36.47
36.418
36.364
36.309
36.253
36.196
36.138
36.079
36.019
35.96
35.9
35.841
35.783
35.727
35.672
35.619
35.567
35.516
35.466
35.417
35.369
35.321
35.275
35.229
35.184
35.14
35.096
35.054
35.012
34.972
34.933
34.894
34.858
34.822
34.787
34.753
34.721
34.69
34.661
34.634
34.609
34.585
34.562
34.541
34.52
34.5
34.482
34.463
34.445
34.428
34.41
34.393
34.376
34.358
34.34
34.323
34.307
34.291
34.276
34.26
34.245
34.23
34.215
34.2
34.185
34.169
34.153
34.136
34.118
34.1
34.081
34.062
34.044
34.025
34.007
33.988
33.969
33.95
33.93
33.911
33.892
33.872
33.852
33.832
33.813
