Trial 1:0back
34.876
34.868
34.861
34.855
34.85
34.846
34.841
34.837
34.831
34.825
34.818
34.81
34.8
34.789
34.777
34.764
34.751
34.737
34.724
34.71
34.696
34.682
34.668
34.653
34.638
34.623
34.609
34.594
34.58
34.566
34.552
34.538
34.523
34.508
34.492
34.476
34.46
34.444
34.428
34.412
34.396
34.381
34.365
34.35
34.333
34.317
34.3
34.283
34.266
34.249
34.232
34.215
34.199
34.183
34.168
34.154
34.141
34.129
34.118
34.107
34.097
34.087
34.078
34.068
34.058
34.047
34.035
34.022
34.009
33.994
33.979
33.964
33.95
33.938
33.929
33.924
33.925
33.934
33.954
33.987
34.037
34.104
34.192
34.302
34.432
34.583
34.753
34.942
35.146
35.362
35.586
35.815
36.043
36.266
36.481
36.683
36.87
37.04
37.191
37.321
37.429
37.517
37.584
37.631
37.66
37.671
37.667
37.649
37.62
37.581
37.535
37.484
37.429
37.372
37.314
37.256
37.199
37.144
37.091
37.042
36.995
36.952
36.912
36.875
36.84
36.808
36.776
36.745
36.714
36.682
36.65
36.618
36.585
36.551
36.515
36.478
36.439
36.398
36.356
36.312
36.268
36.224
36.182
36.142
36.106
36.074
36.047
36.027
36.012
36.004
36.003
36.008
36.02
36.039
36.064
36.095
36.131
36.172
36.216
36.262
36.309
36.356
36.401
36.445
36.486
36.524
36.556
36.584
36.605
36.621
36.629
36.631
36.626
36.613
36.594
36.568
36.536
36.498
36.457
36.413
36.368
36.321
36.274
36.227
36.18
36.134
36.09
36.046
36.003
35.962
35.922
35.884
35.848
35.813
35.779
35.745
35.712
35.68
35.648
35.616
35.584
35.552
35.52
35.486
35.452
35.417
35.383
35.349
35.316
35.284
35.252
35.223
35.194
35.167
35.14
35.115
35.091
35.069
35.048
35.029
35.012
34.996
34.981
34.967
34.953
34.94
34.927
34.915
34.903
34.892
34.882
34.872
34.862
34.852
34.842
34.831
34.819
34.807
34.795
34.783
34.771
34.76
34.749
34.739
34.729
34.721
34.713
34.707
34.701
34.695
34.69
34.684
34.678
34.671
34.663
34.654
34.644
34.631
34.617
34.601
34.583
34.564
34.543
34.52
34.497
34.473
34.449
34.425
34.402
34.379
34.358
34.337
34.317
34.297
34.279
34.26
34.242
34.224
34.206
34.188
34.17
34.151
34.131
34.111
34.089
34.066
34.042
34.018
33.995
33.972
33.951
33.932
33.915
33.9
33.889
33.881
33.877
33.88
33.89
33.909
33.94
33.985
34.045
34.122
34.218
34.331
34.463
34.612
34.776
34.954
35.142
35.34
35.542
35.748
35.952
36.152
36.345
36.527
36.696
36.849
36.985
37.103
37.2
37.278
37.336
37.375
37.396
37.4
37.389
37.364
37.328
37.281
37.227
37.166
37.101
37.032
36.963
36.894
36.825
36.759
36.695
36.634
36.576
36.522
36.471
36.423
36.377
36.333
36.292
36.253
36.215
36.179
36.144
36.11
36.075
36.04
36.003
35.965
35.925
35.883
35.841
35.798
35.756
35.715
35.676
35.641
35.61
35.584
35.564
35.551
35.544
35.543
35.55
35.564
35.585
35.612
35.644
35.681
35.721
35.764
35.808
35.851
35.894
35.935
35.973
36.008
36.039
36.066
36.089
36.107
36.12
36.129
36.132
36.131
36.125
36.115
36.101
36.083
36.061
36.036
36.007
35.975
35.941
35.903
35.862
35.819
35.774
35.727
35.678
35.628
35.577
35.526
35.475
35.424
35.373
35.324
35.275
35.228
35.184
35.141
35.101
35.063
35.029
34.996
34.966
34.937
34.911
34.886
34.862
34.84
34.818
34.798
34.778
34.758
34.737
34.717
34.695
34.673
34.652
34.63
34.609
34.588
34.569
34.551
34.534
34.518
34.504
34.491
34.48
34.47
34.462
34.455
34.45
34.447
34.445
34.444
34.444
34.443
34.441
34.438
34.434
34.43
34.424
34.417
34.408
34.397
34.385
34.372
34.357
34.341
34.323
34.304
34.284
34.264
34.244
34.225
34.206
34.189
34.174
34.159
34.146
34.134
34.121
34.109
34.096
34.082
34.069
34.054
34.039
34.022
34.005
33.987
33.967
33.948
33.929
33.91
33.892
33.875
33.859
33.845
33.831
33.819
33.807
33.795
33.783
33.77
33.758
33.744
33.73
33.716
33.702
33.688
33.675
33.662
33.65
33.64
33.631
33.626
33.626
33.632
33.649
33.677
33.72
33.78
33.859
33.957
34.077
34.217
34.376
34.553
34.745
34.949
35.161
35.379
35.597
35.812
36.02
36.217
36.402
36.57
36.719
36.849
36.958
37.045
37.111
37.156
37.181
37.189
37.179
37.155
37.119
37.073
37.019
36.959
36.895
36.831
36.766
36.702
36.641
36.582
36.527
36.475
36.428
36.385
36.346
36.312
36.281
36.253
36.228
36.204
36.18
36.156
36.131
36.105
36.077
36.048
36.016
35.983
35.946
35.908
35.867
35.824
35.78
35.735
35.691
35.648
35.607
35.568
35.532
35.501
35.475
35.456
35.444
35.44
35.443
35.455
35.474
35.5
35.532
35.568
35.607
35.649
35.693
35.739
35.784
35.829
35.872
35.912
35.948
35.978
36.003
36.022
36.033
36.038
36.037
36.03
36.017
35.999
35.975
35.945
35.911
35.873
35.831
35.785
35.738
35.69
35.641
35.591
35.542
35.493
35.444
35.396
35.348
35.302
35.257
35.213
35.171
35.132
35.094
35.057
35.021
34.986
34.953
34.92
34.889
34.859
34.83
34.803
34.778
34.754
34.732
34.711
34.691
34.673
34.656
34.641
34.626
34.611
34.597
34.584
34.571
34.559
34.548
34.538
34.527
34.517
34.506
34.495
34.483
34.47
34.457
34.443
34.428
34.414
34.399
34.385
34.369
34.354
34.338
34.323
34.309
34.295
34.282
34.271
34.261
34.254
34.248
34.244
34.241
34.238
34.235
34.23
34.224
34.216
34.205
34.192
34.176
34.158
34.138
34.117
34.095
34.073
34.051
34.028
34.007
33.987
33.969
33.954
33.941
33.93
33.921
33.913
33.905
33.898
33.89
33.882
33.872
33.861
33.848
33.834
33.817
33.799
33.78
33.76
33.74
33.72
33.701
33.683
33.664
33.647
33.63
33.613
33.598
33.584
33.57
33.559
33.548
33.539
33.532
33.527
33.524
33.526
33.533
33.547
33.569
33.603
33.649
33.709
33.784
33.876
33.985
34.111
34.255
34.414
34.586
34.769
34.961
35.157
35.355
35.551
35.743
35.925
36.097
36.256
36.4
36.526
36.634
36.724
36.794
36.848
36.884
36.906
36.913
36.907
36.89
36.864
36.829
36.788
36.741
36.69
36.637
36.583
36.528
36.473
36.42
36.368
36.318
36.271
36.226
36.184
36.145
36.11
36.077
36.048
36.021
35.998
35.976
35.956
35.937
35.917
35.896
35.873
35.849
35.823
35.795
35.764
35.731
35.697
35.662
35.626
35.592
35.56
35.53
35.504
35.483
35.467
35.456
35.45
35.45
35.455
35.466
35.482
35.502
35.528
35.556
35.588
35.622
35.657
35.693
35.727
35.761
35.792
35.821
35.847
35.87
35.888
35.902
35.911
35.914
35.912
35.905
35.894
35.877
35.856
35.832
35.803
35.771
35.735
35.697
35.656
35.613
35.569
35.524
35.478
35.432
35.386
35.341
35.296
35.253
35.211
35.17
35.132
35.095
35.061
35.028
34.997
34.968
34.94
34.913
34.888
34.864
34.841
34.819
34.798
34.778
34.76
34.741
34.723
34.706
34.689
34.672
34.655
34.639
34.622
34.605
34.587
34.568
34.549
34.529
34.509
34.49
34.471
34.453
34.436
34.419
34.403
34.389
34.377
34.366
34.357
34.349
34.342
34.336
34.33
34.325
34.32
34.314
34.307
34.299
34.289
34.278
34.265
34.251
34.236
34.221
34.206
34.191
34.177
34.163
34.151
34.139
34.128
34.118
34.109
34.101
34.094
34.086
34.078
34.07
34.061
34.052
34.041
34.03
34.018
34.005
33.992
33.978
33.963
33.948
33.932
33.915
33.898
33.88
33.863
33.846
33.83
33.816
33.802
33.79
33.779
33.768
33.758
33.747
33.736
33.725
33.713
33.701
33.688
33.673
33.658
33.641
33.623
33.604
33.584
33.563
33.543
33.523
33.503
33.485
33.468
33.454
33.444
33.438
33.437
33.443
33.457
33.481
33.517
33.567
33.633
33.716
33.818
33.938
34.077
34.232
34.403
34.587
34.782
34.984
35.19
35.396
35.6
35.797
35.985
36.161
36.323
36.468
36.595
36.703
36.793
36.864
36.917
36.953
36.972
36.975
36.966
36.944
36.912
36.871
36.824
36.772
36.717
36.66
36.602
36.544
36.488
36.433
36.381
36.331
36.284
36.24
36.199
36.161
36.127
36.095
36.066
36.039
36.012
35.987
35.962
35.938
35.915
35.891
35.867
35.842
35.817
35.792
35.765
35.737
35.708
35.679
35.651
35.624
35.599
35.576
35.558
35.544
35.535
35.53
35.529
35.533
35.542
35.554
35.571
35.591
35.615
35.641
35.669
35.699
35.73
35.76
35.79
35.818
35.846
35.871
35.894
35.914
35.931
35.944
35.953
35.959
35.96
35.958
35.952
35.941
35.926
35.908
35.886
35.861
35.833
35.802
35.769
35.733
35.695
35.655
35.613
35.569
35.523
35.477
35.43
35.383
35.336
35.29
35.245
35.202
35.16
35.119
35.081
35.045
35.011
34.979
34.95
34.923
34.897
34.874
34.851
34.83
34.81
34.79
34.772
34.754
34.737
34.72
34.703
34.687
34.671
34.655
34.638
34.622
34.606
34.59
34.575
34.559
34.544
34.529
34.515
34.501
34.488
34.476
34.465
34.454
34.444
34.434
34.425
34.416
34.406
34.397
34.388
34.378
34.368
34.358
34.347
34.336
34.325
34.313
34.302
34.29
34.278
34.266
34.254
34.241
34.228
34.214
34.199
34.183
34.167
34.15
34.132
34.114
34.095
34.076
34.057
34.038
34.02
34.002
33.985
33.968
33.953
33.939
33.927
33.916
33.907
33.899
33.891
33.882
33.872
33.86
33.846
33.83
33.811
33.791
33.769
33.746
33.722
33.698
33.676
33.655
33.636
33.619
33.604
33.592
33.58
33.57
33.561
33.553
33.545
33.536
33.528
33.52
33.513
33.507
33.504
33.504
33.51
33.522
33.544
33.576
33.623
33.686
33.766
33.865
33.984
34.122
34.279
34.451
34.638
34.836
35.041
35.25
35.46
35.668
35.869
36.061
36.239
36.402
36.546
36.67
36.772
36.853
36.913
36.953
36.974
36.98
36.97
36.948
36.914
36.872
36.823
36.769
36.711
36.652
36.594
36.536
36.481
36.429
36.38
36.334
36.291
36.251
36.213
36.177
36.143
36.112
36.082
36.053
36.027
36.001
35.975
35.95
35.925
35.899
35.872
35.844
35.815
35.785
35.753
35.72
35.686
35.651
35.616
35.582
35.549
35.519
35.493
35.471
35.454
35.443
35.438
35.44
35.449
35.465
35.488
35.516
35.548
35.585
35.624
35.665
35.708
35.751
35.794
35.836
35.877
35.916
35.952
35.984
36.012
36.034
36.05
36.06
36.064
36.062
36.054
36.04
36.022
36.0
35.973
35.943
35.908
35.871
35.83
35.787
35.742
35.696
35.649
35.603
35.557
35.511
35.467
35.423
35.381
35.34
35.301
35.264
35.228
35.195
35.164
35.135
35.107
35.082
35.057
35.033
35.011
34.989
34.967
34.947
34.926
34.906
34.886
34.866
34.847
34.827
34.807
34.787
34.767
34.746
34.726
34.705
34.685
34.664
34.645
34.626
34.608
34.592
34.576
34.562
34.548
34.535
34.523
34.512
34.501
34.491
34.482
34.473
34.465
34.458
34.451
34.444
34.438
34.432
34.426
34.421
34.416
34.411
34.405
34.398
34.39
34.381
34.369
34.357
34.344
34.331
34.318
34.305
34.293
34.282
34.271
34.26
34.25
34.24
34.23
34.22
34.209
34.198
34.187
34.176
34.164
34.151
34.138
34.124
34.108
34.091
34.073
34.053
34.032
34.01
33.987
33.965
33.943
33.922
33.902
33.884
33.866
33.849
33.834
33.82
33.808
33.798
33.79
33.787
33.79
33.799
33.817
33.845
33.886
33.941
34.011
34.098
34.202
34.322
34.457
34.607
34.769
34.941
35.121
35.306
35.493
35.678
35.86
36.033
36.197
36.348
36.484
36.605
36.709
36.797
36.869
36.925
36.966
36.991
37.003
37.002
36.988
36.964
36.931
36.889
36.841
36.788
36.732
36.673
36.613
36.552
36.491
36.43
36.371
36.314
36.259
36.207
36.158
36.112
36.068
36.026
35.986
35.947
35.909
35.872
35.836
35.799
35.763
35.727
35.691
35.655
35.618
35.582
35.546
35.512
35.479
35.449
35.424
35.403
35.388
35.38
35.379
35.385
35.398
35.419
35.446
35.48
35.52
35.564
35.613
35.664
35.716
35.767
35.817
35.863
35.906
35.944
35.977
36.005
36.027
36.043
36.053
36.057
36.054
36.045
36.03
36.011
35.988
35.963
35.937
35.909
35.879
35.849
35.819
35.787
35.754
35.721
35.688
35.655
35.622
35.588
35.555
35.52
35.486
35.45
35.415
35.379
35.343
35.307
35.271
35.235
35.199
35.163
35.127
35.091
35.055
35.02
34.986
34.954
34.924
34.896
34.87
34.846
34.824
34.802
34.781
34.761
34.741
34.721
34.701
34.682
34.663
34.646
34.629
34.613
34.598
34.586
34.576
34.567
34.56
34.554
34.548
34.543
34.538
34.532
34.526
34.519
34.511
34.503
34.494
34.485
34.477
34.47
34.463
34.457
34.451
34.445
34.44
34.434
34.429
34.424
34.419
34.414
34.408
34.402
34.396
34.388
34.379
34.369
34.357
34.345
34.331
34.316
34.301
34.286
34.269
34.253
34.235
34.217
34.199
34.18
34.161
34.142
34.123
34.104
34.085
34.067
34.048
34.03
34.011
33.992
33.974
33.957
33.94
33.924
33.909
33.894
33.881
33.869
33.86
33.854
33.853
33.86
33.875
33.902
33.942
33.999
34.072
34.164
34.276
34.406
34.555
34.721
34.901
35.094
35.297
35.505
35.717
35.929
36.136
36.337
36.528
36.705
36.867
37.011
37.136
37.242
37.327
37.393
37.44
37.468
37.48
37.477
37.461
37.435
37.4
37.358
37.311
37.26
37.208
37.155
37.101
37.049
36.998
36.948
36.901
36.856
36.814
36.774
36.737
36.702
36.671
36.643
36.617
36.594
36.572
36.55
36.529
36.507
36.483
36.457
36.429
36.397
36.363
36.326
36.288
36.249
36.209
36.17
36.133
36.098
36.067
36.039
36.017
36.001
35.99
35.986
35.989
35.998
36.014
36.036
36.063
36.096
36.133
36.173
36.215
36.259
36.304
36.348
36.39
36.429
36.466
36.498
36.526
36.548
36.564
36.574
36.578
36.576
36.568
36.554
36.536
36.513
36.485
36.454
36.419
36.381
36.34
36.296
36.251
36.203
36.155
36.105
36.054
36.004
35.955
35.908
35.862
35.818
35.776
35.736
35.697
35.66
35.625
35.591
35.559
35.528
35.499
35.471
35.444
35.418
35.393
35.369
35.344
35.321
35.297
35.274
35.252
35.23
35.208
35.185
35.163
35.14
35.116
35.092
35.067
35.042
35.018
34.994
34.971
34.949
34.928
34.908
34.889
34.871
34.855
34.84
34.826
34.814
34.802
34.793
34.784
34.776
34.769
34.762
34.756
34.751
34.745
34.74
34.735
34.729
34.723
34.717
34.71
34.702
34.694
34.683
34.672
34.66
34.647
34.633
34.618
34.602
34.586
34.569
34.552
34.535
34.519
34.502
34.485
34.469
34.453
34.437
34.42
34.404
34.387
34.369
34.351
34.332
34.312
34.29
34.267
34.243
34.218
34.193
34.168
34.143
34.12
34.097
34.076
34.056
34.039
34.023
34.01
33.999
33.99
33.985
33.983
33.986
33.995
34.012
34.037
34.074
34.124
34.188
34.268
34.366
34.481
34.613
34.763
34.928
35.108
35.299
35.5
35.706
35.914
36.12
36.321
36.513
36.693
36.858
37.007
37.138
37.25
37.342
37.415
37.468
37.502
37.52
37.522
37.51
37.487
37.454
37.414
37.367
37.317
37.263
37.208
37.153
37.098
37.045
36.995
36.949
36.905
36.866
36.829
36.796
36.766
36.738
36.712
36.688
36.666
36.645
36.624
36.603
36.581
36.557
36.53
36.501
36.468
36.432
36.393
36.351
36.307
36.262
36.216
36.171
36.127
36.086
36.049
36.016
35.988
35.966
35.951
35.943
35.943
35.95
35.963
35.984
36.009
36.04
36.074
36.111
36.149
36.187
36.225
36.262
36.295
36.326
36.352
36.373
36.39
36.4
36.405
36.404
36.398
36.387
36.372
36.351
36.325
36.294
36.258
36.216
36.171
36.122
36.071
36.017
35.962
35.908
35.853
35.8
35.748
35.698
35.65
35.605
35.563
35.524
35.488
35.455
35.425
35.396
35.37
35.344
35.319
35.294
35.269
35.244
35.219
35.193
35.166
35.139
35.111
35.082
35.053
35.025
34.997
34.97
34.943
34.916
34.891
34.866
34.842
34.82
34.799
34.779
34.761
34.744
34.727
34.712
34.696
34.681
34.667
34.652
34.639
34.625
34.612
34.599
34.585
34.571
34.555
34.54
34.523
34.506
34.488
34.471
34.454
34.437
34.421
34.405
34.39
34.376
34.363
34.349
34.337
34.325
34.313
34.302
34.291
34.28
34.268
34.257
34.245
34.233
34.221
34.208
34.194
34.179
34.164
34.148
34.132
34.115
34.099
34.083
34.066
34.05
34.033
34.017
34.0
33.983
33.966
33.949
33.932
33.916
33.9
33.884
33.867
33.85
33.831
33.811
33.79
33.769
33.747
33.725
33.704
33.684
33.665
33.646
33.629
33.613
33.598
33.585
33.575
33.568
33.566
33.57
33.583
33.606
33.642
33.693
33.762
33.849
33.954
34.078
34.219
34.375
34.545
34.726
34.915
35.11
35.307
35.503
35.693
35.874
36.042
36.196
36.332
36.449
36.547
36.626
36.685
36.726
36.748
36.755
36.746
36.723
36.689
36.644
36.592
36.534
36.473
36.409
36.346
36.282
36.22
36.16
36.102
36.047
35.996
35.948
35.904
35.863
35.827
35.793
35.763
35.734
35.708
35.682
35.657
35.631
35.605
35.578
35.549
35.519
35.487
35.453
35.419
35.384
35.349
35.314
35.281
35.249
35.22
35.193
35.17
35.15
35.135
35.124
35.119
35.118
35.123
35.133
35.148
35.167
35.19
35.215
35.242
35.271
35.301
35.331
35.36
35.387
35.412
35.434
35.451
35.464
35.473
35.476
35.474
35.467
35.456
35.441
35.421
35.397
35.37
35.339
35.307
35.272
35.236
35.198
35.161
35.123
35.085
35.047
35.01
34.974
34.938
34.903
34.87
34.837
34.805
34.773
34.743
34.713
34.684
34.656
34.627
34.598
34.57
34.541
34.512
34.483
34.455
34.426
34.398
34.371
34.346
34.322
34.3
34.28
34.261
34.244
34.228
34.214
34.199
34.185
34.171
34.158
34.144
34.131
34.117
34.103
34.088
34.072
34.057
34.041
34.026
34.011
33.997
33.984
33.973
33.961
33.951
33.941
33.931
33.922
33.913
33.905
33.897
33.889
33.881
33.874
33.866
33.859
33.852
33.844
33.837
33.829
33.82
33.81
33.799
33.788
33.776
33.763
33.749
33.736
33.722
33.709
33.696
33.684
33.673
33.664
33.655
33.647
33.64
33.634
33.627
33.62
33.613
33.605
33.597
33.59
33.582
33.574
33.565
33.555
33.545
33.534
33.522
33.511
33.499
33.487
33.474
33.461
33.449
33.436
33.424
33.412
33.4
33.388
33.377
33.365
33.353
33.34
33.327
33.313
33.3
33.286
33.273
33.26
33.249
33.238
33.228
33.219
33.212
33.208
33.208
33.213
33.224
33.243
33.272
33.314
33.369
33.439
33.526
33.629
33.75
33.886
34.036
34.199
34.372
34.551
34.733
34.914
35.092
35.262
35.423
35.57
35.702
35.818
35.916
35.996
36.056
36.099
36.124
36.133
36.127
36.108
36.078
36.038
35.99
35.936
35.877
35.815
35.752
35.69
35.628
35.567
35.508
35.451
35.396
35.343
35.293
35.245
35.201
35.16
35.121
35.086
35.054
35.023
34.994
34.966
34.939
34.913
34.887
34.861
34.835
34.809
34.783
34.756
34.729
34.703
34.677
34.652
34.629
34.609
34.591
34.578
34.569
34.565
34.566
34.573
34.585
34.604
34.627
34.654
34.686
34.72
34.757
34.795
34.835
34.875
34.914
34.953
34.99
35.024
35.055
35.082
35.104
35.121
35.133
35.139
35.141
35.138
35.13
35.117
35.099
35.077
35.051
35.02
34.986
34.949
34.91
34.869
34.827
34.784
34.741
34.698
34.656
34.615
34.575
34.537
34.5
34.466
34.434
34.404
34.377
34.352
34.33
34.31
34.293
34.278
34.264
34.251
34.239
34.227
34.217
34.207
34.197
34.187
34.176
34.166
34.156
34.146
34.136
34.125
34.114
34.102
34.089
34.074
34.059
34.042
34.026
34.011
33.997
33.986
33.977
33.97
33.965
33.962
33.96
33.96
33.96
33.96
33.96
33.96
33.959
33.959
33.957
33.955
33.952
33.948
33.943
33.937
33.93
33.922
33.913
33.904
33.895
33.886
33.877
33.868
33.858
33.848
33.839
33.829
33.82
33.813
33.806
33.802
33.798
33.796
33.794
33.792
33.79
33.787
33.782
33.776
33.769
33.761
33.751
33.741
33.73
33.718
33.705
33.692
33.68
33.668
33.656
33.645
33.636
33.627
33.619
33.613
33.608
33.603
33.599
33.594
33.589
33.583
33.576
33.569
33.561
33.553
33.544
33.534
33.524
33.513
33.503
33.492
33.482
33.472
33.463
33.455
33.448
33.442
33.437
33.433
33.43
33.429
33.432
33.44
33.455
33.479
33.513
33.559
33.62
33.695
33.786
33.893
34.016
34.154
34.306
34.47
34.642
34.82
35.001
35.181
35.356
35.524
35.681
