Trial 1:0back
33.054
33.067
33.083
33.1
33.116
33.131
33.144
33.157
33.167
33.174
33.178
33.177
33.173
33.165
33.153
33.138
33.12
33.101
33.08
33.06
33.041
33.027
33.019
33.02
33.032
33.061
33.108
33.179
33.277
33.407
33.573
33.778
34.027
34.319
34.654
35.027
35.432
35.863
36.311
36.766
37.218
37.655
38.07
38.452
38.797
39.099
39.354
39.561
39.719
39.829
39.895
39.923
39.916
39.883
39.825
39.743
39.641
39.52
39.385
39.241
39.091
38.94
38.791
38.648
38.512
38.386
38.269
38.162
38.064
37.977
37.899
37.83
37.769
37.712
37.66
37.611
37.561
37.508
37.45
37.385
37.312
37.229
37.138
37.037
36.928
36.811
36.685
36.553
36.415
36.273
36.131
35.988
35.848
35.711
35.579
35.454
35.338
35.232
35.137
35.053
34.982
34.922
34.875
34.838
34.813
34.797
34.792
34.795
34.806
34.823
34.845
34.871
34.898
34.925
34.951
34.974
34.994
35.011
35.024
35.03
35.029
35.021
35.008
34.991
34.971
34.946
34.919
34.888
34.855
34.822
34.787
34.75
34.711
34.671
34.627
34.583
34.536
34.487
34.434
34.378
34.318
34.257
34.195
34.134
34.072
34.011
33.951
33.893
33.837
33.783
33.73
33.677
33.623
33.57
33.52
33.472
33.426
33.384
33.344
33.308
33.276
33.249
33.227
33.21
33.198
33.189
33.184
33.18
33.179
33.178
33.177
33.176
33.175
33.174
33.172
33.17
33.167
33.163
33.157
33.149
33.14
33.13
33.12
33.111
33.102
33.094
33.086
33.078
33.071
33.067
33.065
33.065
33.067
33.071
33.076
33.082
33.089
33.097
33.106
33.115
33.125
33.136
33.146
33.157
33.165
33.171
33.175
33.175
33.172
33.166
33.157
33.146
33.135
33.126
33.122
33.126
33.143
33.178
33.233
33.316
33.431
33.582
33.775
34.011
34.293
34.62
34.989
35.394
35.829
36.283
36.746
37.207
37.653
38.076
38.467
38.82
39.13
39.394
39.609
39.776
39.897
39.975
40.012
40.013
39.979
39.917
39.829
39.72
39.595
39.457
39.31
39.158
39.003
38.849
38.699
38.553
38.415
38.283
38.162
38.05
37.947
37.854
37.77
37.693
37.624
37.56
37.498
37.436
37.375
37.311
37.245
37.175
37.1
37.019
36.931
36.836
36.733
36.624
36.507
36.385
36.259
36.131
36.001
35.871
35.742
35.616
35.494
35.379
35.271
35.171
35.08
34.999
34.93
34.874
34.83
34.8
34.783
34.778
34.785
34.801
34.824
34.852
34.884
34.918
34.954
34.99
35.025
35.057
35.086
35.109
35.128
35.143
35.153
35.158
35.159
35.154
35.144
35.128
35.108
35.082
35.051
35.015
34.975
34.933
34.887
34.839
34.788
34.736
34.681
34.626
34.569
34.511
34.452
34.391
34.331
34.272
34.214
34.155
34.097
34.039
33.983
33.927
33.873
33.821
33.771
33.724
33.679
33.637
33.597
33.559
33.524
33.491
33.46
33.432
33.408
33.387
33.37
33.357
33.349
33.347
33.349
33.357
33.369
33.384
33.4
33.418
33.435
33.452
33.468
33.483
33.497
33.51
33.522
33.532
33.541
33.548
33.552
33.554
33.553
33.549
33.543
33.534
33.521
33.506
33.488
33.469
33.449
33.43
33.411
33.394
33.378
33.364
33.349
33.336
33.323
33.311
33.301
33.295
33.293
33.298
33.311
33.331
33.362
33.405
33.469
33.557
33.678
33.834
34.027
34.262
34.538
34.855
35.21
35.596
36.006
36.432
36.862
37.287
37.696
38.078
38.427
38.736
39.001
39.216
39.382
39.498
39.567
39.592
39.579
39.533
39.457
39.357
39.238
39.105
38.962
38.813
38.66
38.506
38.354
38.206
38.062
37.923
37.788
37.659
37.534
37.415
37.299
37.186
37.076
36.967
36.861
36.758
36.658
36.561
36.467
36.375
36.285
36.196
36.106
36.015
35.923
35.831
35.737
35.642
35.546
35.45
35.355
35.262
35.172
35.084
35.0
34.921
34.846
34.778
34.715
34.659
34.609
34.565
34.529
34.501
34.48
34.468
34.462
34.463
34.471
34.485
34.507
34.533
34.564
34.598
34.634
34.674
34.715
34.757
34.797
34.834
34.867
34.895
34.918
34.936
34.946
34.947
34.941
34.926
34.904
34.874
34.835
34.787
34.731
34.668
34.6
34.527
34.45
34.369
34.285
34.2
34.115
34.032
33.949
33.868
33.789
33.712
33.639
33.571
33.508
33.449
33.396
33.349
33.309
33.276
33.25
33.229
33.212
33.199
33.19
33.183
33.177
33.171
33.165
33.158
33.152
33.145
33.138
33.13
33.122
33.113
33.104
33.098
33.093
33.091
33.091
33.092
33.096
33.103
33.112
33.121
33.131
33.14
33.148
33.157
33.165
33.172
33.177
33.181
33.183
33.184
33.183
33.18
33.174
33.164
33.151
33.134
33.117
33.099
33.081
33.064
33.048
33.037
33.033
33.04
33.058
33.093
33.147
33.224
33.33
33.47
33.647
33.865
34.123
34.425
34.769
35.152
35.567
36.003
36.454
36.907
37.352
37.778
38.177
38.54
38.862
39.138
39.367
39.546
39.675
39.755
39.79
39.783
39.738
39.662
39.559
39.434
39.293
39.141
38.981
38.818
38.653
38.491
38.333
38.179
38.032
37.891
37.757
37.63
37.51
37.395
37.285
37.18
37.08
36.985
36.895
36.808
36.724
36.643
36.563
36.485
36.407
36.327
36.245
36.161
36.073
35.982
35.888
35.79
35.687
35.58
35.47
35.357
35.242
35.126
35.01
34.898
34.789
34.687
34.591
34.506
34.431
34.369
34.319
34.282
34.257
34.243
34.241
34.25
34.27
34.299
34.335
34.378
34.426
34.477
34.53
34.583
34.633
34.679
34.72
34.754
34.781
34.8
34.811
34.812
34.806
34.791
34.768
34.739
34.702
34.659
34.61
34.556
34.499
34.44
34.378
34.314
34.248
34.181
34.114
34.048
33.983
33.921
33.86
33.802
33.745
33.69
33.637
33.587
33.539
33.492
33.447
33.404
33.363
33.323
33.284
33.246
33.21
33.176
33.144
33.115
33.091
33.07
33.054
33.044
33.039
33.038
33.042
33.049
33.06
33.072
33.086
33.101
33.115
33.129
33.14
33.149
33.157
33.164
33.171
33.177
33.182
33.186
33.188
33.189
33.189
33.188
33.186
33.183
33.178
33.169
33.157
33.144
33.129
33.113
33.1
33.087
33.076
33.066
33.059
33.055
33.055
33.062
33.076
33.1
33.137
33.186
33.252
33.337
33.445
33.58
33.747
33.95
34.193
34.478
34.805
35.17
35.568
35.993
36.434
36.882
37.328
37.76
38.17
38.55
38.892
39.19
39.442
39.643
39.792
39.89
39.938
39.942
39.905
39.833
39.731
39.606
39.464
39.311
39.152
38.992
38.833
38.678
38.529
38.387
38.249
38.117
37.99
37.868
37.751
37.638
37.527
37.42
37.317
37.217
37.121
37.027
36.934
36.842
36.751
36.661
36.573
36.486
36.4
36.313
36.226
36.137
36.048
35.956
35.862
35.766
35.669
35.57
35.471
35.371
35.27
35.169
35.069
34.972
34.876
34.785
34.699
34.619
34.547
34.485
34.431
34.387
34.354
34.33
34.316
34.311
34.314
34.326
34.344
34.368
34.396
34.427
34.459
34.493
34.526
34.56
34.593
34.626
34.657
34.685
34.707
34.724
34.734
34.736
34.73
34.714
34.689
34.654
34.61
34.558
34.5
34.436
34.367
34.294
34.22
34.144
34.068
33.992
33.918
33.844
33.771
33.701
33.633
33.568
33.507
33.451
33.398
33.35
33.307
33.269
33.237
33.209
33.187
33.168
33.154
33.144
33.136
33.129
33.122
33.115
33.107
33.099
33.09
33.082
33.073
33.064
33.056
33.048
33.04
33.034
33.03
33.03
33.033
33.041
33.054
33.069
33.087
33.105
33.122
33.137
33.15
33.16
33.166
33.169
33.169
33.167
33.163
33.159
33.154
33.147
33.139
33.13
33.12
33.112
33.104
33.094
33.083
33.07
33.057
33.045
33.037
33.034
33.037
33.049
33.073
33.11
33.164
33.238
33.335
33.46
33.617
33.812
34.049
34.329
34.653
35.02
35.423
35.857
36.312
36.778
37.245
37.701
38.136
38.537
38.898
39.212
39.476
39.688
39.846
39.952
40.007
40.015
39.98
39.909
39.808
39.683
39.541
39.387
39.227
39.064
38.902
38.743
38.589
38.44
38.297
38.16
38.028
37.901
37.78
37.667
37.561
37.461
37.367
37.279
37.196
37.118
37.044
36.972
36.901
36.83
36.757
36.683
36.606
36.525
36.44
36.35
36.253
36.148
36.034
35.913
35.788
35.66
35.531
35.402
35.276
35.153
35.037
34.928
34.827
34.735
34.652
34.579
34.516
34.465
34.424
34.395
34.376
34.368
34.371
34.384
34.406
34.435
34.469
34.506
34.545
34.585
34.623
34.658
34.688
34.713
34.733
34.747
34.756
34.76
34.758
34.75
34.737
34.718
34.695
34.669
34.638
34.604
34.566
34.524
34.479
34.43
34.377
34.319
34.258
34.194
34.127
34.06
33.993
33.927
33.863
33.801
33.741
33.683
33.629
33.576
33.525
33.475
33.426
33.379
33.334
33.292
33.254
33.22
33.195
33.179
33.173
33.175
33.185
33.201
33.221
33.241
33.26
33.277
33.291
33.301
33.307
33.31
33.31
33.308
33.302
33.293
33.283
33.271
33.258
33.246
33.234
33.223
33.212
33.202
33.192
33.183
33.175
33.167
33.16
33.153
33.147
33.143
33.14
33.138
33.137
33.137
33.14
33.145
33.152
33.161
33.17
33.18
33.189
33.198
33.206
33.214
33.22
33.224
33.227
33.231
33.236
33.243
33.252
33.265
33.284
33.311
33.351
33.406
33.484
33.587
33.72
33.887
34.092
34.339
34.628
34.958
35.328
35.729
36.156
36.598
37.047
37.494
37.927
38.337
38.714
39.051
39.342
39.584
39.776
39.917
40.01
40.058
40.064
40.032
39.967
39.874
39.757
39.623
39.474
39.313
39.144
38.969
38.791
38.615
38.443
38.277
38.12
37.972
37.834
37.707
37.589
37.482
37.384
37.295
37.214
37.139
37.068
37.001
36.936
36.871
36.806
36.739
36.667
36.591
36.509
36.421
36.328
36.229
36.126
36.019
35.909
35.798
35.686
35.574
35.463
35.354
35.247
35.146
35.051
34.964
34.884
34.813
34.753
34.704
34.667
34.643
34.632
34.632
34.643
34.665
34.697
34.735
34.778
34.824
34.872
34.921
34.97
35.017
35.059
35.097
35.129
35.157
35.18
35.198
35.208
35.21
35.204
35.19
35.168
35.14
35.105
35.063
35.016
34.963
34.906
34.846
34.783
34.72
34.656
34.595
34.535
34.478
34.424
34.374
34.328
34.285
34.246
34.209
34.173
34.138
34.104
34.068
34.031
33.992
33.949
33.903
33.855
33.808
33.762
33.718
33.678
33.64
33.605
33.573
33.544
33.519
33.498
33.481
33.469
33.46
33.456
33.455
33.459
33.465
33.475
33.486
33.5
33.515
33.531
33.547
33.563
33.578
33.592
33.604
33.614
33.621
33.626
33.627
33.625
33.619
33.611
33.599
33.582
33.562
33.538
33.513
33.488
33.466
33.447
33.431
33.42
33.415
33.415
33.422
33.438
33.463
33.5
33.552
33.623
33.716
33.834
33.983
34.165
34.383
34.637
34.927
35.252
35.605
35.984
36.379
36.783
37.186
37.579
37.953
38.3
38.613
38.885
39.112
39.291
39.422
39.507
39.548
39.548
39.511
39.441
39.344
39.223
39.085
38.933
38.772
38.606
38.439
38.273
38.109
37.949
37.794
37.645
37.505
37.371
37.244
37.123
37.007
36.895
36.787
36.682
36.58
36.48
36.381
36.285
36.189
36.094
35.996
35.897
35.796
35.694
35.596
35.504
35.419
35.339
35.264
35.191
35.121
35.05
34.977
34.904
34.829
34.754
34.679
34.607
34.538
34.475
34.419
34.372
34.334
34.306
34.288
34.281
34.285
34.299
34.323
34.356
34.395
34.439
34.486
34.533
34.579
34.621
34.658
34.69
34.715
34.735
34.747
34.753
34.751
34.743
34.73
34.711
34.686
34.656
34.622
34.585
34.546
34.506
34.465
34.424
34.382
34.341
34.3
34.257
34.212
34.163
34.111
34.057
34.001
33.943
33.884
33.824
33.764
33.704
33.647
33.593
33.542
33.495
33.451
33.411
33.375
33.342
33.312
33.283
33.255
33.23
33.207
33.188
33.171
33.158
33.149
33.143
33.142
33.143
33.147
33.152
33.158
33.164
33.171
33.177
33.184
33.191
33.198
33.204
33.21
33.216
33.22
33.224
33.227
33.229
33.231
33.233
33.235
33.238
33.241
33.243
33.246
33.251
33.258
33.266
33.275
33.285
33.297
33.311
33.33
33.356
33.391
33.44
33.508
33.599
33.718
33.87
34.057
34.282
34.547
34.851
35.192
35.567
35.97
36.392
36.824
37.258
37.684
38.092
38.474
38.82
39.126
39.385
39.595
39.753
39.862
39.925
39.945
39.927
39.873
39.787
39.676
39.543
39.395
39.236
39.07
38.9
38.729
38.56
38.393
38.231
38.074
37.924
37.782
37.65
37.531
37.425
37.328
37.241
37.161
37.083
37.005
36.923
36.837
36.745
36.647
36.543
36.432
36.315
36.194
36.071
35.948
35.827
35.709
35.595
35.485
35.378
35.276
35.178
35.085
34.996
34.912
34.834
34.762
34.696
34.638
34.587
34.543
34.505
34.474
34.45
34.433
34.424
34.425
34.433
34.45
34.474
34.503
34.536
34.571
34.609
34.647
34.684
34.72
34.753
34.782
34.808
34.828
34.843
34.85
34.851
34.843
34.827
34.803
34.771
34.731
34.684
34.632
34.575
34.514
34.451
34.385
34.319
34.252
34.188
34.125
34.064
34.005
33.949
33.894
33.843
33.795
33.751
33.711
33.674
33.639
33.604
33.571
33.538
33.505
33.473
33.442
33.412
33.385
33.361
33.339
33.319
33.301
33.286
33.273
33.261
33.252
33.243
33.234
33.226
33.219
33.213
33.207
33.203
33.199
33.194
33.191
33.188
33.187
33.187
33.189
33.192
33.196
33.2
33.205
33.21
33.215
33.22
33.224
33.228
33.23
33.231
33.23
33.228
33.224
33.22
33.216
33.213
33.211
33.21
33.211
33.217
33.228
33.249
33.283
33.333
33.403
33.501
33.634
33.806
34.022
34.284
34.59
34.94
35.329
35.751
36.199
36.663
37.133
37.6
38.051
38.476
38.865
39.21
39.505
39.746
39.93
40.059
40.135
40.162
40.144
40.086
39.994
39.873
39.731
39.572
39.402
39.225
39.046
38.868
38.695
38.529
38.37
38.221
38.081
37.951
37.831
37.72
37.615
37.516
37.422
37.332
37.245
37.161
37.078
36.997
36.918
36.841
36.766
36.693
36.619
36.543
36.466
36.387
36.304
36.218
36.126
36.029
35.928
35.822
35.715
35.606
35.495
35.385
35.275
35.169
35.066
34.97
34.88
34.799
34.726
34.665
34.614
34.575
34.547
34.53
34.524
34.529
34.543
34.566
34.595
34.629
34.666
34.705
34.744
34.781
34.816
34.848
34.875
34.896
34.911
34.918
34.917
34.908
34.89
34.864
34.832
34.794
34.75
34.701
34.649
34.595
34.538
34.481
34.423
34.365
34.307
34.248
34.189
34.129
34.069
34.009
33.948
33.887
33.825
33.764
33.704
33.647
33.591
33.537
33.486
33.438
33.394
33.353
33.316
33.283
33.255
33.231
33.211
33.196
33.185
33.177
33.171
33.166
33.16
33.154
33.147
33.14
33.134
33.127
33.12
33.114
33.109
33.106
33.106
33.111
33.122
33.137
33.155
33.173
33.192
33.209
33.226
33.242
33.255
33.264
33.27
33.271
33.268
33.262
33.253
33.242
33.23
33.216
33.203
33.192
33.183
33.177
33.175
33.178
33.19
33.213
33.25
33.302
33.373
33.466
33.583
33.73
33.911
34.129
34.386
34.682
35.018
35.39
35.793
36.22
36.662
37.109
37.549
37.972
38.369
38.732
39.054
39.331
39.561
39.741
39.87
39.95
39.984
39.976
39.931
39.855
39.751
39.627
39.485
39.33
39.167
39.0
38.834
38.671
38.512
38.36
38.214
38.074
37.941
37.814
37.694
37.58
37.469
37.363
37.26
37.161
37.067
36.977
36.89
36.804
36.721
36.639
36.558
36.476
36.393
36.309
36.222
36.134
36.043
35.952
35.859
35.765
35.671
35.577
35.483
35.39
35.298
35.21
35.126
35.046
34.97
34.898
34.832
34.772
34.721
34.678
34.643
34.617
34.6
34.591
34.593
34.602
34.619
34.642
34.67
34.702
34.738
34.775
34.813
34.849
34.881
34.91
34.935
34.955
34.971
34.981
34.985
34.983
34.975
34.962
34.943
34.917
34.884
34.844
34.799
34.75
34.697
34.64
34.581
34.518
34.452
34.384
34.315
34.245
34.174
34.102
34.031
33.963
33.898
33.837
33.78
33.727
33.679
33.637
33.602
33.575
33.554
33.54
33.53
33.525
33.524
33.527
33.532
33.537
33.543
33.548
33.555
33.562
33.569
33.575
33.579
33.58
33.58
33.579
33.575
33.57
33.564
33.556
33.547
33.538
33.531
33.524
33.518
33.514
33.512
33.512
33.515
33.52
33.526
33.532
33.537
33.543
33.549
33.555
33.559
33.563
33.565
33.567
33.568
33.569
33.57
33.572
33.577
33.587
33.604
33.633
33.675
33.735
33.816
33.923
34.06
34.231
34.439
34.687
34.975
35.302
35.664
36.055
36.469
36.896
37.325
37.746
38.148
38.522
38.859
39.154
39.403
39.604
39.756
39.86
39.919
39.937
39.918
39.867
39.787
39.682
39.558
39.418
39.266
39.106
38.941
38.774
38.606
38.441
38.278
38.118
37.961
37.808
37.659
37.517
37.381
37.252
37.132
37.021
36.921
36.83
36.748
36.675
36.608
36.546
36.487
36.43
36.371
36.309
36.243
36.173
36.096
36.01
35.912
35.804
35.685
35.56
35.431
35.302
35.177
35.058
34.948
34.85
34.764
34.691
34.632
34.585
34.55
34.529
34.521
34.525
34.541
34.568
34.604
34.649
34.7
34.756
34.815
34.876
34.936
34.993
35.047
35.095
35.136
35.17
35.196
35.214
35.223
35.222
35.212
35.193
35.166
35.132
35.09
35.042
34.987
34.928
34.863
34.796
34.727
34.654
34.58
34.507
34.434
34.363
34.294
34.227
34.162
34.1
34.042
33.989
33.941
33.898
33.859
33.824
33.792
33.764
33.738
33.715
33.694
33.676
33.659
33.646
33.634
33.625
33.618
33.611
33.604
33.597
33.588
33.576
33.562
33.545
33.526
33.505
33.483
33.462
33.44
33.42
33.401
33.385
33.372
33.361
33.352
33.345
33.341
33.339
33.341
33.346
33.353
33.361
33.368
33.375
33.38
33.384
33.387
33.39
33.394
33.401
33.412
33.429
33.454
33.49
33.54
33.608
33.699
33.818
33.97
34.157
34.382
34.645
34.946
35.282
35.649
36.039
36.444
36.855
37.263
37.659
38.032
38.376
38.682
38.946
39.164
39.332
39.451
39.523
39.552
39.54
39.491
39.411
39.306
39.18
39.039
38.886
38.725
38.56
38.394
38.228
38.064
37.903
37.746
37.596
37.453
37.319
37.192
37.074
36.962
36.858
36.762
36.672
36.587
36.507
36.43
36.357
36.287
36.217
36.147
36.075
35.999
35.919
35.834
35.744
35.65
35.551
35.449
35.344
35.239
35.135
35.033
34.934
34.84
34.751
34.669
34.594
34.528
34.472
34.428
34.393
34.37
34.356
34.353
34.359
34.375
34.399
34.431
34.469
34.513
34.559
34.608
34.659
34.708
34.754
34.794
34.827
34.854
34.874
34.886
34.89
34.886
34.874
34.854
34.829
34.799
34.764
34.725
34.681
34.634
34.585
34.534
34.48
34.425
34.367
34.309
34.251
34.193
34.137
34.081
34.026
33.972
33.92
33.871
33.826
33.785
33.748
33.715
33.683
33.655
33.627
33.599
33.571
33.543
33.513
33.484
33.456
33.428
33.4
33.371
33.34
33.31
33.282
33.256
33.234
33.215
33.201
33.192
33.188
33.189
33.194
33.202
33.211
33.221
33.232
33.245
33.259
33.274
33.289
33.302
33.314
33.319
33.314
33.3
33.276
33.247
33.215
33.185
33.159
33.139
33.125
33.118
33.116
33.121
33.132
33.147
33.168
33.196
33.234
33.285
33.354
33.445
33.563
33.712
33.897
34.122
34.388
34.698
35.048
35.435
35.852
36.291
36.743
37.199
37.649
38.081
38.488
38.859
39.186
39.464
39.688
39.857
39.971
40.031
40.043
40.01
39.938
39.832
39.699
39.545
39.376
39.199
39.018
38.837
38.658
38.484
38.319
38.163
38.019
37.885
37.761
37.646
37.539
37.439
37.344
37.253
37.166
37.082
37.0
36.92
36.841
36.763
36.686
36.609
36.532
36.453
36.37
36.283
36.191
36.095
35.995
35.89
35.782
35.67
35.555
35.441
35.328
35.217
35.109
35.006
34.909
34.82
34.739
34.669
34.609
34.561
34.523
34.496
34.48
34.475
34.48
34.494
34.518
34.55
34.589
34.633
34.68
34.727
34.772
34.815
34.854
34.888
34.917
34.938
34.953
34.961
34.961
34.954
34.939
34.915
34.883
34.843
34.797
34.746
34.691
34.632
34.57
34.506
34.44
34.371
34.3
34.23
34.161
34.095
34.034
33.98
33.932
33.89
33.854
33.823
33.795
33.771
33.749
33.73
33.71
33.69
33.669
33.646
33.621
33.595
33.567
33.537
33.506
33.474
33.442
33.41
33.379
33.349
33.322
33.298
33.28
33.266
33.258
33.254
33.255
33.26
33.268
33.278
33.289
33.301
33.312
33.322
33.331
33.337
33.342
33.345
33.347
33.347
33.347
33.346
33.343
33.336
33.328
33.316
33.304
33.291
33.278
33.267
33.257
33.252
33.25
33.252
33.257
33.266
33.28
33.3
33.329
33.369
33.423
33.495
33.588
33.707
33.855
34.036
34.253
34.509
