Trial 1:0back
34.987
34.979
34.968
34.956
34.942
34.926
34.909
34.891
34.872
34.852
34.832
34.812
34.792
34.771
34.751
34.73
34.709
34.688
34.667
34.645
34.622
34.599
34.576
34.552
34.528
34.504
34.479
34.456
34.432
34.408
34.385
34.361
34.337
34.313
34.288
34.264
34.239
34.213
34.187
34.161
34.134
34.108
34.082
34.056
34.03
34.005
33.979
33.952
33.926
33.899
33.874
33.849
33.827
33.807
33.792
33.783
33.782
33.79
33.81
33.844
33.892
33.956
34.037
34.134
34.247
34.376
34.519
34.675
34.842
35.017
35.197
35.381
35.564
35.746
35.922
36.093
36.254
36.404
36.541
36.665
36.774
36.868
36.947
37.011
37.062
37.099
37.125
37.14
37.145
37.141
37.129
37.11
37.085
37.054
37.019
36.98
36.938
36.894
36.848
36.8
36.751
36.7
36.648
36.595
36.54
36.484
36.426
36.366
36.305
36.243
36.18
36.117
36.054
35.991
35.929
35.867
35.805
35.744
35.684
35.624
35.567
35.51
35.456
35.405
35.356
35.31
35.267
35.228
35.191
35.158
35.129
35.103
35.08
35.06
35.042
35.027
35.013
35.001
34.99
34.98
34.97
34.96
34.951
34.942
34.933
34.925
34.917
34.91
34.902
34.893
34.883
34.871
34.859
34.845
34.83
34.814
34.797
34.778
34.758
34.737
34.715
34.693
34.669
34.645
34.621
34.596
34.57
34.544
34.517
34.49
34.463
34.435
34.407
34.379
34.35
34.321
34.292
34.263
34.234
34.205
34.176
34.148
34.121
34.094
34.068
34.043
34.02
33.997
33.974
33.951
33.928
33.905
33.883
33.86
33.837
33.814
33.79
33.767
33.743
33.72
33.698
33.679
33.664
33.656
33.656
33.666
33.689
33.724
33.774
33.84
33.923
34.023
34.14
34.272
34.42
34.581
34.753
34.936
35.126
35.32
35.516
35.711
35.903
36.088
36.265
36.431
36.585
36.726
36.852
36.962
37.057
37.137
37.202
37.252
37.289
37.313
37.325
37.327
37.319
37.303
37.279
37.248
37.213
37.173
37.131
37.086
37.04
36.992
36.943
36.894
36.844
36.792
36.74
36.687
36.632
36.576
36.52
36.462
36.403
36.343
36.282
36.22
36.157
36.093
36.029
35.964
35.9
35.837
35.774
35.713
35.655
35.598
35.544
35.494
35.446
35.402
35.361
35.324
35.29
35.26
35.233
35.209
35.188
35.17
35.154
35.142
35.131
35.123
35.116
35.11
35.105
35.101
35.097
35.093
35.089
35.084
35.079
35.073
35.065
35.056
35.045
35.032
35.018
35.002
34.984
34.965
34.946
34.926
34.905
34.883
34.86
34.835
34.809
34.782
34.754
34.725
34.695
34.665
34.635
34.604
34.573
34.542
34.51
34.479
34.447
34.414
34.38
34.346
34.312
34.277
34.242
34.208
34.174
34.14
34.106
34.073
34.04
34.006
33.973
33.94
33.907
33.875
33.844
33.814
33.784
33.757
33.731
33.706
33.684
33.663
33.645
33.63
33.619
33.613
33.615
33.625
33.646
33.68
33.727
33.789
33.866
33.96
34.069
34.195
34.336
34.492
34.661
34.843
35.034
35.232
35.435
35.639
35.842
36.041
36.233
36.416
36.586
36.743
36.885
37.011
37.12
37.213
37.29
37.351
37.397
37.43
37.45
37.458
37.457
37.447
37.428
37.403
37.372
37.336
37.296
37.252
37.205
37.154
37.102
37.047
36.991
36.932
36.873
36.812
36.75
36.686
36.621
36.554
36.485
36.415
36.344
36.272
36.2
36.128
36.057
35.986
35.917
35.85
35.785
35.722
35.662
35.606
35.552
35.502
35.456
35.413
35.373
35.336
35.302
35.271
35.242
35.215
35.191
35.169
35.149
35.132
35.117
35.104
35.092
35.08
35.07
35.06
35.051
35.042
35.033
35.024
35.014
35.003
34.992
34.98
34.967
34.954
34.94
34.926
34.911
34.894
34.876
34.857
34.837
34.815
34.793
34.771
34.748
34.726
34.704
34.681
34.658
34.634
34.61
34.584
34.558
34.531
34.504
34.477
34.45
34.422
34.394
34.365
34.336
34.306
34.276
34.247
34.218
34.19
34.162
34.135
34.107
34.08
34.053
34.025
33.996
33.968
33.938
33.909
33.88
33.85
33.821
33.792
33.764
33.737
33.71
33.684
33.659
33.635
33.615
33.598
33.585
33.579
33.58
33.59
33.612
33.646
33.694
33.758
33.837
33.932
34.042
34.167
34.306
34.457
34.619
34.788
34.964
35.144
35.325
35.506
35.684
35.856
36.021
36.176
36.321
36.454
36.573
36.679
36.771
36.849
36.912
36.963
37.0
37.025
37.038
37.041
37.035
37.019
36.997
36.967
36.932
36.893
36.85
36.804
36.756
36.705
36.653
36.599
36.543
36.486
36.428
36.37
36.311
36.252
36.192
36.132
36.071
36.01
35.949
35.887
35.825
35.763
35.701
35.639
35.577
35.516
35.456
35.398
35.342
35.288
35.236
35.187
35.141
35.098
35.058
35.021
34.988
34.959
34.933
34.911
34.893
34.877
34.863
34.852
34.841
34.832
34.824
34.816
34.809
34.801
34.794
34.786
34.778
34.77
34.76
34.75
34.738
34.724
34.709
34.692
34.674
34.655
34.636
34.616
34.596
34.576
34.555
34.534
34.511
34.489
34.466
34.444
34.421
34.399
34.377
34.355
34.332
34.31
34.286
34.262
34.237
34.211
34.184
34.156
34.127
34.097
34.067
34.037
34.008
33.98
33.952
33.926
33.901
33.877
33.854
33.831
33.809
33.787
33.765
33.744
33.723
33.703
33.682
33.662
33.642
33.621
33.601
33.58
33.561
33.543
33.528
33.518
33.514
33.518
33.531
33.556
33.593
33.645
33.712
33.795
33.894
34.007
34.135
34.276
34.428
34.588
34.755
34.926
35.097
35.267
35.432
35.591
35.74
35.878
36.004
36.116
36.214
36.297
36.367
36.422
36.464
36.494
36.512
36.519
36.516
36.506
36.488
36.463
36.433
36.398
36.359
36.317
36.273
36.227
36.179
36.13
36.08
36.03
35.978
35.926
35.872
35.818
35.764
35.708
35.652
35.596
35.538
35.48
35.422
35.363
35.303
35.244
35.184
35.125
35.066
35.008
34.951
34.897
34.845
34.797
34.752
34.712
34.676
34.645
34.617
34.593
34.572
34.554
34.539
34.526
34.515
34.506
34.499
34.494
34.491
34.489
34.488
34.489
34.489
34.491
34.493
34.495
34.496
34.498
34.498
34.496
34.494
34.489
34.483
34.476
34.467
34.457
34.446
34.433
34.421
34.407
34.393
34.378
34.363
34.346
34.329
34.311
34.293
34.274
34.255
34.235
34.214
34.194
34.172
34.151
34.129
34.107
34.085
34.063
34.041
34.019
33.998
33.977
33.955
33.934
33.913
33.891
33.87
33.848
33.826
33.803
33.779
33.754
33.728
33.701
33.673
33.645
33.616
33.588
33.561
33.537
33.515
33.499
33.489
33.488
33.497
33.517
33.551
33.598
33.661
33.739
33.832
33.941
34.064
34.199
34.346
34.502
34.665
34.833
35.003
35.173
35.341
35.506
35.664
35.814
35.955
36.085
36.202
36.307
36.398
36.474
36.537
36.587
36.623
36.647
36.66
36.662
36.654
36.637
36.613
36.582
36.547
36.507
36.463
36.416
36.368
36.317
36.265
36.211
36.157
36.102
36.047
35.991
35.935
35.878
35.82
35.763
35.705
35.646
35.587
35.529
35.471
35.413
35.355
35.298
35.242
35.187
35.134
35.082
35.033
34.986
34.942
34.901
34.863
34.827
34.795
34.766
34.739
34.717
34.697
34.681
34.668
34.658
34.651
34.647
34.645
34.646
34.649
34.652
34.656
34.66
34.662
34.664
34.664
34.662
34.657
34.651
34.644
34.635
34.625
34.614
34.602
34.591
34.578
34.566
34.554
34.542
34.53
34.518
34.506
34.493
34.478
34.462
34.445
34.425
34.404
34.381
34.356
34.329
34.302
34.274
34.245
34.216
34.187
34.159
34.131
34.105
34.079
34.055
34.032
34.009
33.987
33.965
33.944
33.923
33.902
33.88
33.859
33.838
33.817
33.796
33.776
33.756
33.736
33.717
33.698
33.681
33.665
33.652
33.642
33.636
33.637
33.646
33.666
33.697
33.742
33.801
33.876
33.967
34.074
34.196
34.332
34.482
34.644
34.816
34.995
35.18
35.367
35.555
35.74
35.921
36.093
36.257
36.409
36.548
36.673
36.783
36.878
36.958
37.024
37.076
37.115
37.141
37.157
37.162
37.159
37.147
37.129
37.106
37.078
37.045
37.01
36.971
36.93
36.887
36.842
36.797
36.752
36.706
36.66
36.613
36.567
36.52
36.473
36.425
36.377
36.328
36.278
36.227
36.174
36.12
36.065
36.01
35.954
35.899
35.845
35.792
35.742
35.693
35.647
35.604
35.564
35.526
35.492
35.461
35.433
35.408
35.387
35.368
35.353
35.341
35.331
35.323
35.317
35.312
35.31
35.308
35.308
35.308
35.309
35.309
35.308
35.307
35.304
35.3
35.293
35.284
35.273
35.259
35.243
35.225
35.206
35.184
35.162
35.138
35.113
35.087
35.061
35.034
35.008
34.982
34.957
34.933
34.909
34.885
34.863
34.841
34.819
34.798
34.777
34.757
34.737
34.718
34.699
34.68
34.662
34.644
34.627
34.609
34.592
34.574
34.556
34.536
34.515
34.494
34.472
34.45
34.427
34.405
34.383
34.36
34.338
34.315
34.293
34.271
34.251
34.234
34.221
34.214
34.214
34.223
34.242
34.273
34.319
34.379
34.454
34.545
34.652
34.774
34.911
35.06
35.22
35.387
35.561
35.738
35.915
36.089
36.259
36.421
36.574
36.717
36.846
36.963
37.065
37.153
37.227
37.288
37.337
37.374
37.4
37.416
37.423
37.422
37.414
37.399
37.378
37.353
37.323
37.29
37.255
37.216
37.176
37.134
37.09
37.046
37.001
36.957
36.912
36.867
36.823
36.778
36.732
36.686
36.639
36.591
36.543
36.492
36.44
36.387
36.332
36.276
36.219
36.163
36.108
36.055
36.003
35.954
35.907
35.862
35.82
35.781
35.745
35.711
35.681
35.653
35.629
35.608
35.591
35.578
35.569
35.564
35.562
35.563
35.566
35.57
35.574
35.579
35.583
35.585
35.586
35.585
35.58
35.573
35.563
35.551
35.536
35.519
35.499
35.478
35.455
35.431
35.406
35.381
35.355
35.329
35.302
35.277
35.251
35.226
35.201
35.177
35.155
35.132
35.111
35.09
35.07
35.05
35.031
35.013
34.994
34.975
34.957
34.937
34.917
34.896
34.875
34.852
34.829
34.805
34.781
34.757
34.732
34.707
34.683
34.658
34.634
34.61
34.587
34.564
34.541
34.519
34.497
34.477
34.459
34.443
34.431
34.423
34.422
34.428
34.443
34.468
34.506
34.557
34.621
34.699
34.791
34.897
35.015
35.145
35.285
35.432
35.586
35.744
35.904
36.063
36.219
36.37
36.514
36.649
36.772
36.884
36.984
37.07
37.143
37.202
37.249
37.282
37.304
37.315
37.316
37.308
37.291
37.267
37.237
37.202
37.162
37.12
37.075
37.029
36.983
36.936
36.89
36.845
36.8
36.756
36.714
36.672
36.63
36.588
36.547
36.505
36.463
36.419
36.375
36.329
36.282
36.233
36.184
36.134
36.083
36.032
35.982
35.932
35.883
35.836
35.79
35.747
35.706
35.668
35.634
35.603
35.574
35.55
35.528
35.51
35.494
35.482
35.471
35.464
35.458
35.454
35.451
35.45
35.449
35.449
35.448
35.448
35.446
35.444
35.439
35.433
35.425
35.415
35.403
35.389
35.372
35.355
35.336
35.315
35.293
35.27
35.245
35.218
35.191
35.162
35.133
35.104
35.074
35.044
35.014
34.984
34.955
34.925
34.896
34.867
34.837
34.808
34.78
34.752
34.724
34.697
34.671
34.646
34.622
34.598
34.575
34.553
34.532
34.511
34.491
34.471
34.451
34.431
34.411
34.391
34.371
34.351
34.33
34.308
34.286
34.263
34.24
34.217
34.195
34.175
34.159
34.148
34.144
34.148
34.162
34.188
34.227
34.28
34.347
34.43
34.527
34.637
34.76
34.893
35.034
35.182
35.333
35.485
35.636
35.783
35.923
36.055
36.176
36.285
36.381
36.463
36.531
36.585
36.626
36.655
36.672
36.679
36.677
36.668
36.651
36.629
36.602
36.571
36.538
36.503
36.466
36.429
36.391
36.353
36.316
36.278
36.241
36.204
36.168
36.131
36.094
36.056
36.017
35.976
35.933
35.889
35.844
35.798
35.751
35.705
35.658
35.611
35.565
35.52
35.476
35.433
35.392
35.354
35.317
35.284
35.253
35.225
35.2
35.179
35.161
35.146
35.134
35.125
35.119
35.115
35.113
35.112
35.113
35.114
35.117
35.12
35.123
35.126
35.128
35.129
35.129
35.127
35.124
35.119
35.111
35.102
35.089
35.075
35.058
35.04
35.02
34.999
34.978
34.955
34.931
34.906
34.88
34.852
34.824
34.796
34.767
34.738
34.709
34.681
34.654
34.628
34.602
34.577
34.553
34.528
34.505
34.481
34.458
34.435
34.412
34.39
34.367
34.345
34.323
34.301
34.279
34.257
34.236
34.215
34.194
34.174
34.153
34.132
34.11
34.088
34.067
34.045
34.023
34.003
33.983
33.964
33.948
33.936
33.928
33.925
33.931
33.945
33.97
34.007
34.056
34.119
34.196
34.286
34.388
34.502
34.626
34.757
34.895
35.035
35.177
35.316
35.451
35.579
35.7
35.811
35.911
35.999
36.076
36.141
36.194
36.235
36.266
36.285
36.295
36.295
36.287
36.271
36.249
36.223
36.192
36.159
36.124
36.089
36.053
36.017
35.982
35.946
35.911
35.875
35.839
35.803
35.766
35.729
35.691
35.653
35.615
35.576
35.536
35.496
35.455
35.413
35.371
35.327
35.284
35.241
35.198
35.155
35.114
35.075
35.037
35.002
34.969
34.939
34.911
34.887
34.865
34.847
34.833
34.821
34.813
34.807
34.804
34.803
34.804
34.807
34.81
34.814
34.819
34.824
34.828
34.832
34.835
34.836
34.836
34.834
34.83
34.823
34.815
34.804
34.792
34.777
34.762
34.745
34.728
34.71
34.692
34.674
34.655
34.636
34.617
34.597
34.577
34.557
34.536
34.516
34.494
34.473
34.451
34.43
34.409
34.388
34.367
34.346
34.326
34.306
34.286
34.267
34.248
34.23
34.211
34.194
34.176
34.159
34.142
34.125
34.109
34.093
34.078
34.063
34.047
34.031
34.014
33.996
33.977
33.958
33.939
33.919
33.9
33.883
33.867
33.856
33.849
33.85
33.859
33.878
33.907
33.948
34.001
34.068
34.148
34.242
34.348
34.466
34.594
34.729
34.87
35.015
35.161
35.306
35.448
35.584
35.714
35.834
35.944
36.043
36.131
36.206
36.269
36.32
36.361
36.391
36.412
36.425
36.429
36.427
36.418
36.403
36.385
36.362
36.336
36.308
36.277
36.246
36.214
36.182
36.151
36.12
36.09
36.061
36.033
36.007
35.98
35.954
35.929
35.903
35.877
35.851
35.823
35.795
35.764
35.732
35.699
35.664
35.627
35.588
35.548
35.508
35.468
35.429
35.392
35.357
35.325
35.296
35.27
35.247
35.227
35.211
35.197
35.186
35.178
35.173
35.17
35.169
35.17
35.172
35.176
35.181
35.186
35.191
35.196
35.2
35.204
35.206
35.207
35.206
35.204
35.2
35.196
35.189
35.182
35.172
35.161
35.149
35.134
35.118
35.1
35.081
35.06
35.038
35.015
34.991
34.966
34.94
34.915
34.889
34.863
34.838
34.812
34.787
34.763
34.739
34.715
34.692
34.669
34.647
34.625
34.604
34.583
34.562
34.542
34.523
34.506
34.489
34.474
34.459
34.444
34.43
34.416
34.403
34.39
34.377
34.365
34.354
34.343
34.332
34.322
34.313
34.304
34.296
34.289
34.284
34.282
34.284
34.291
34.304
34.326
34.356
34.396
34.448
34.511
34.587
34.676
34.777
34.889
35.011
35.142
35.279
35.42
35.564
35.707
35.848
35.985
36.115
36.238
36.351
36.452
36.542
36.619
36.683
36.734
36.773
36.8
36.816
36.822
36.819
36.809
36.791
36.769
36.743
36.714
36.683
36.65
36.617
36.582
36.547
36.512
36.477
36.442
36.407
36.374
36.341
36.31
36.28
36.251
36.224
36.196
36.169
36.141
36.112
36.083
36.052
36.021
35.988
35.953
35.917
35.88
35.843
35.804
35.766
35.729
35.693
35.658
35.625
35.594
35.566
35.54
35.517
35.497
35.48
35.465
35.453
35.443
35.435
35.429
35.426
35.424
35.424
35.425
35.427
35.428
35.429
35.429
35.429
35.426
35.423
35.417
35.411
35.404
35.396
35.388
35.379
35.369
35.359
35.348
35.336
35.323
35.308
35.293
35.276
35.258
35.239
35.219
35.199
35.179
35.158
35.138
35.117
35.097
35.078
35.058
35.039
35.02
35.001
34.983
34.965
34.947
34.93
34.913
34.896
34.88
34.863
34.847
34.831
34.815
34.8
34.786
34.772
34.759
34.746
34.734
34.723
34.711
34.699
34.688
34.675
34.663
34.65
34.636
34.622
34.607
34.593
34.578
34.563
34.548
34.534
34.521
34.508
34.497
34.488
34.483
34.482
34.487
34.5
34.522
34.555
34.599
34.656
34.725
34.807
34.901
35.007
35.122
35.246
35.376
35.51
35.647
35.784
35.919
36.05
36.175
36.292
36.398
36.494
36.577
36.648
36.706
36.752
36.786
36.81
36.824
36.83
36.828
36.819
36.806
36.788
36.767
36.743
36.718
36.692
36.665
36.637
36.608
36.578
36.548
36.518
36.486
36.454
36.421
36.388
36.354
36.321
36.287
36.253
36.219
36.186
36.152
36.118
36.084
36.049
36.013
35.977
35.94
35.904
35.867
35.83
35.795
35.76
35.726
35.694
35.664
35.635
35.607
35.581
35.556
35.531
35.508
35.485
35.462
35.441
35.422
35.404
35.389
35.375
35.364
35.355
35.348
35.343
35.34
35.337
35.336
35.336
35.337
35.338
35.339
35.34
35.339
35.336
35.331
35.323
35.312
35.297
35.279
35.258
35.233
35.206
35.175
35.144
35.111
35.077
35.044
35.012
34.98
34.948
34.919
34.89
34.863
34.838
34.815
34.793
34.773
34.754
34.735
34.718
34.701
34.683
34.666
34.649
34.63
34.611
34.591
34.569
34.546
34.521
34.494
34.466
34.437
34.407
34.377
34.346
34.317
34.289
34.263
34.239
34.217
34.198
34.18
34.164
34.149
34.136
34.125
34.115
34.106
34.099
34.094
34.094
34.099
34.11
34.13
34.159
34.198
34.249
34.312
34.387
34.474
34.573
34.683
34.802
34.928
35.061
35.197
35.336
35.474
35.61
35.743
35.871
35.991
36.104
36.207
36.299
36.38
36.449
36.506
36.552
36.587
36.611
36.625
36.631
36.629
36.619
36.603
36.581
36.554
36.522
36.487
36.451
36.413
36.376
36.34
36.305
36.271
36.239
36.208
36.178
36.148
36.119
36.091
36.062
36.032
36.001
35.968
35.933
35.895
35.855
35.812
35.766
35.718
35.669
35.618
35.568
35.519
35.471
35.425
35.383
35.345
35.311
35.281
35.255
35.234
35.217
35.205
35.196
35.192
35.19
35.19
35.192
35.195
35.199
35.203
35.208
35.211
35.214
35.216
35.217
35.215
35.211
35.205
35.198
35.188
35.178
35.167
35.155
35.142
35.128
35.113
35.097
35.08
35.06
35.039
35.017
34.993
34.968
34.943
34.916
34.888
34.86
34.832
34.803
34.774
34.745
34.716
34.687
34.658
34.629
34.599
34.569
34.54
34.511
34.482
34.453
34.425
34.398
34.371
34.346
34.322
34.3
34.278
34.257
34.236
34.215
34.195
34.174
34.152
34.13
34.107
34.083
34.059
34.034
34.009
33.984
33.959
33.935
33.912
33.891
33.872
33.856
33.843
33.833
33.828
33.829
33.838
33.855
33.882
33.922
33.974
34.041
34.122
34.218
34.329
34.453
34.589
34.737
34.892
35.054
35.22
35.386
35.551
35.712
35.867
36.013
36.15
36.276
36.389
36.491
36.579
36.654
36.717
36.766
36.804
36.831
36.848
36.856
36.856
36.849
36.835
36.816
36.793
36.765
36.734
36.7
36.664
36.626
36.587
36.546
36.505
36.463
36.422
36.38
36.339
36.298
36.258
36.217
36.176
36.135
36.092
36.049
36.006
35.962
35.917
35.873
35.829
35.785
35.742
35.699
35.658
35.619
35.58
35.544
35.509
35.475
35.443
35.411
35.38
35.352
35.325
35.3
35.278
35.259
35.244
35.231
35.221
35.214
35.209
35.206
35.205
35.204
35.205
35.205
35.206
35.206
35.206
35.204
35.202
35.197
35.19
35.181
35.169
35.155
35.139
35.12
35.099
35.077
35.053
35.027
35.001
34.974
34.946
34.918
34.889
34.86
34.832
34.803
34.775
34.747
34.718
34.69
34.662
34.634
34.607
34.58
34.553
34.526
34.499
34.473
34.447
34.421
34.396
34.37
34.344
34.318
34.292
34.265
34.239
34.212
34.186
34.16
34.134
34.108
34.082
34.056
34.031
34.007
33.985
33.963
33.943
33.924
33.906
33.889
33.872
33.856
33.84
33.824
33.809
33.794
33.781
33.771
33.765
33.766
33.775
33.795
33.826
33.872
33.933
34.01
34.103
34.213
34.339
34.48
34.635
34.8
34.975
35.157
35.342
35.528
35.713
35.892
36.065
36.227
36.379
36.517
36.642
36.751
36.846
36.925
36.99
37.041
37.079
37.105
37.121
37.127
37.124
37.113
37.094
37.07
37.041
37.007
36.97
36.931
36.89
36.848
36.806
36.764
36.723
36.682
36.642
36.604
36.566
36.53
36.494
36.457
36.421
36.384
36.347
36.308
36.269
36.228
36.186
36.142
36.096
36.049
36.001
35.953
35.905
35.856
35.807
35.759
35.713
35.668
35.625
35.583
35.544
35.507
35.474
35.444
35.418
35.395
35.375
35.359
35.347
35.337
35.329
35.323
35.317
35.313
35.31
35.307
35.305
35.302
35.3
35.296
