Trial 1:0back
38.996
38.871
38.752
38.638
38.526
38.415
38.303
38.188
38.068
37.943
37.811
37.671
37.525
37.373
37.216
37.055
36.893
36.731
36.57
36.413
36.261
36.116
35.98
35.854
35.739
35.638
35.551
35.479
35.422
35.38
35.351
35.336
35.333
35.34
35.357
35.382
35.411
35.445
35.48
35.514
35.547
35.576
35.601
35.619
35.63
35.634
35.629
35.615
35.594
35.565
35.529
35.487
35.438
35.384
35.326
35.265
35.201
35.134
35.066
34.995
34.922
34.847
34.77
34.693
34.614
34.535
34.454
34.373
34.29
34.207
34.122
34.037
33.95
33.863
33.776
33.69
33.604
33.52
33.438
33.358
33.281
33.207
33.136
33.07
33.008
32.951
32.898
32.85
32.806
32.764
32.726
32.689
32.654
32.62
32.588
32.557
32.527
32.499
32.474
32.45
32.429
32.412
32.398
32.387
32.38
32.375
32.374
32.375
32.379
32.384
32.391
32.398
32.405
32.411
32.416
32.42
32.421
32.42
32.417
32.412
32.405
32.397
32.386
32.375
32.363
32.352
32.342
32.333
32.326
32.318
32.311
32.303
32.293
32.283
32.272
32.259
32.246
32.232
32.216
32.199
32.181
32.163
32.144
32.127
32.112
32.101
32.097
32.103
32.12
32.153
32.205
32.282
32.388
32.529
32.71
32.939
33.218
33.551
33.941
34.385
34.882
35.427
36.012
36.629
37.267
37.914
38.559
39.187
39.788
40.35
40.862
41.319
41.712
42.038
42.296
42.486
42.611
42.675
42.683
42.641
42.556
42.435
42.284
42.111
41.921
41.722
41.518
41.313
41.112
40.917
40.731
40.556
40.396
40.251
40.12
40.004
39.901
39.81
39.728
39.654
39.585
39.517
39.449
39.376
39.298
39.212
39.116
39.011
38.894
38.766
38.626
38.475
38.314
38.142
37.964
37.78
37.593
37.406
37.222
37.044
36.874
36.716
36.57
36.436
36.316
36.208
36.114
36.033
35.963
35.906
35.86
35.824
35.8
35.786
35.783
35.789
35.803
35.823
35.847
35.872
35.895
35.914
35.927
35.932
35.929
35.915
35.893
35.862
35.824
35.779
35.728
35.672
35.611
35.545
35.475
35.401
35.324
35.245
35.163
35.079
34.994
34.908
34.822
34.734
34.647
34.559
34.473
34.388
34.305
34.224
34.145
34.068
33.992
33.916
33.841
33.766
33.691
33.616
33.542
33.469
33.398
33.329
33.262
33.197
33.133
33.07
33.008
32.948
32.891
32.837
32.785
32.738
32.694
32.655
32.621
32.591
32.562
32.529
32.493
32.456
32.419
32.386
32.357
32.336
32.323
32.316
32.316
32.322
32.332
32.347
32.365
32.385
32.407
32.429
32.45
32.469
32.485
32.498
32.507
32.51
32.508
32.501
32.491
32.477
32.461
32.442
32.42
32.397
32.371
32.345
32.318
32.292
32.267
32.244
32.221
32.2
32.179
32.158
32.136
32.115
32.093
32.07
32.047
32.024
32.0
31.977
31.954
31.933
31.914
31.901
31.894
31.9
31.92
31.961
32.028
32.126
32.262
32.442
32.671
32.953
33.292
33.689
34.143
34.651
35.206
35.802
36.427
37.073
37.727
38.376
39.008
39.609
40.169
40.679
41.13
41.517
41.837
42.088
42.272
42.392
42.453
42.459
42.416
42.333
42.215
42.071
41.905
41.725
41.535
41.339
41.143
40.948
40.759
40.577
40.405
40.244
40.095
39.959
39.836
39.726
39.626
39.537
39.455
39.379
39.305
39.23
39.152
39.066
38.973
38.869
38.755
38.631
38.497
38.353
38.201
38.044
37.882
37.716
37.55
37.383
37.217
37.053
36.891
36.735
36.585
36.443
36.31
36.187
36.077
35.981
35.899
35.833
35.781
35.743
35.718
35.704
35.7
35.704
35.714
35.729
35.745
35.761
35.774
35.782
35.785
35.783
35.774
35.76
35.739
35.713
35.682
35.647
35.607
35.561
35.51
35.453
35.388
35.317
35.24
35.157
35.071
34.981
34.889
34.797
34.706
34.617
34.53
34.446
34.365
34.285
34.206
34.127
34.048
33.968
33.887
33.805
33.722
33.637
33.552
33.466
33.38
33.296
33.215
33.137
33.062
32.991
32.924
32.861
32.8
32.743
32.689
32.637
32.589
32.545
32.505
32.468
32.435
32.404
32.375
32.345
32.315
32.284
32.252
32.22
32.189
32.161
32.136
32.113
32.094
32.076
32.061
32.047
32.035
32.025
32.017
32.01
32.006
32.002
31.999
31.998
31.997
31.997
31.999
32.002
32.005
32.007
32.009
32.009
32.008
32.005
32.002
31.997
31.991
31.985
31.977
31.968
31.956
31.941
31.924
31.904
31.881
31.856
31.829
31.801
31.774
31.748
31.722
31.698
31.675
31.653
31.632
31.612
31.593
31.575
31.559
31.545
31.533
31.522
31.514
31.509
31.508
31.514
31.529
31.557
31.604
31.672
31.767
31.896
32.063
32.275
32.538
32.854
33.227
33.657
34.14
34.674
35.251
35.863
36.498
37.146
37.794
38.431
39.044
39.623
40.158
40.641
41.065
41.426
41.722
41.953
42.119
42.223
42.27
42.264
42.213
42.123
42.0
41.852
41.684
41.502
41.312
41.116
40.919
40.723
40.532
40.347
40.169
39.998
39.836
39.684
39.54
39.406
39.282
39.166
39.059
38.96
38.866
38.775
38.684
38.59
38.493
38.389
38.276
38.155
38.024
37.884
37.735
37.579
37.418
37.253
37.088
36.924
36.764
36.609
36.462
36.325
36.199
36.087
35.989
35.908
35.843
35.793
35.757
35.733
35.721
35.718
35.723
35.735
35.752
35.772
35.792
35.811
35.829
35.843
35.853
35.858
35.856
35.848
35.833
35.811
35.782
35.747
35.706
35.66
35.609
35.554
35.493
35.428
35.357
35.281
35.199
35.114
35.027
34.939
34.852
34.768
34.687
34.609
34.534
34.462
34.39
34.32
34.248
34.176
34.103
34.03
33.958
33.887
33.819
33.754
33.691
33.632
33.574
33.518
33.464
33.411
33.359
33.308
33.258
33.208
33.158
33.11
33.063
33.018
32.976
32.937
32.901
32.867
32.835
32.805
32.778
32.752
32.728
32.706
32.685
32.667
32.652
32.64
32.631
32.626
32.624
32.625
32.627
32.629
32.631
32.631
32.631
32.631
32.63
32.631
32.632
32.635
32.638
32.641
32.643
32.639
32.627
32.606
32.578
32.544
32.506
32.468
32.432
32.398
32.369
32.344
32.324
32.306
32.292
32.279
32.267
32.256
32.244
32.231
32.215
32.198
32.18
32.162
32.147
32.136
32.131
32.134
32.147
32.173
32.218
32.286
32.385
32.518
32.693
32.915
33.188
33.514
33.894
34.327
34.808
35.33
35.887
36.467
37.06
37.654
38.238
38.8
39.329
39.818
40.258
40.645
40.974
41.243
41.452
41.602
41.695
41.737
41.73
41.682
41.596
41.48
41.339
41.177
40.999
40.809
40.613
40.413
40.215
40.02
39.831
39.649
39.475
39.308
39.149
38.998
38.855
38.72
38.591
38.468
38.347
38.228
38.111
37.993
37.874
37.751
37.625
37.493
37.355
37.212
37.062
36.908
36.75
36.592
36.434
36.279
36.128
35.983
35.846
35.719
35.602
35.497
35.405
35.326
35.26
35.208
35.168
35.141
35.126
35.122
35.129
35.146
35.171
35.203
35.238
35.276
35.313
35.348
35.379
35.403
35.42
35.43
35.433
35.428
35.417
35.398
35.372
35.339
35.298
35.251
35.198
35.139
35.076
35.009
34.939
34.866
34.791
34.714
34.637
34.558
34.478
34.396
34.312
34.227
34.141
34.054
33.968
33.883
33.799
33.715
33.632
33.55
33.468
33.388
33.309
33.231
33.156
33.083
33.012
32.944
32.878
32.816
32.757
32.701
32.648
32.598
32.551
32.507
32.468
32.432
32.399
32.37
32.343
32.319
32.297
32.277
32.26
32.246
32.233
32.222
32.213
32.205
32.198
32.193
32.188
32.185
32.182
32.18
32.179
32.178
32.179
32.182
32.186
32.192
32.199
32.205
32.212
32.217
32.221
32.222
32.221
32.218
32.214
32.208
32.202
32.197
32.193
32.19
32.188
32.187
32.185
32.182
32.177
32.169
32.158
32.144
32.128
32.112
32.094
32.075
32.054
32.033
32.009
31.984
31.958
31.931
31.904
31.879
31.855
31.832
31.811
31.791
31.773
31.758
31.744
31.733
31.726
31.726
31.737
31.76
31.802
31.867
31.961
32.092
32.265
32.487
32.763
33.098
33.494
33.95
34.462
35.026
35.633
36.276
36.943
37.62
38.294
38.95
39.571
40.147
40.668
41.128
41.525
41.857
42.125
42.33
42.475
42.565
42.605
42.601
42.557
42.48
42.375
42.248
42.102
41.943
41.773
41.597
41.417
41.236
41.056
40.88
40.709
40.544
40.386
40.234
40.09
39.954
39.824
39.701
39.584
39.471
39.362
39.254
39.147
39.04
38.933
38.824
38.711
38.595
38.475
38.349
38.217
38.081
37.939
37.791
37.639
37.481
37.321
37.159
36.997
36.837
36.684
36.539
36.406
36.286
36.18
36.088
36.011
35.948
35.899
35.861
35.833
35.815
35.805
35.802
35.804
35.811
35.82
35.829
35.837
35.841
35.84
35.831
35.816
35.793
35.762
35.726
35.685
35.64
35.591
35.539
35.484
35.424
35.36
35.292
35.22
35.145
35.068
34.989
34.909
34.828
34.746
34.664
34.58
34.495
34.407
34.318
34.228
34.138
34.048
33.96
33.873
33.787
33.704
33.624
33.545
33.469
33.394
33.321
33.249
33.18
33.113
33.049
32.99
32.935
32.883
32.833
32.787
32.743
32.703
32.666
32.633
32.603
32.575
32.55
32.526
32.503
32.479
32.456
32.431
32.407
32.382
32.359
32.339
32.32
32.304
32.29
32.278
32.266
32.256
32.246
32.237
32.23
32.224
32.219
32.215
32.211
32.207
32.205
32.203
32.203
32.204
32.206
32.208
32.211
32.213
32.216
32.218
32.221
32.223
32.224
32.225
32.225
32.226
32.229
32.232
32.234
32.235
32.234
32.229
32.221
32.209
32.195
32.178
32.158
32.134
32.108
32.079
32.048
32.014
31.979
31.943
31.907
31.872
31.839
31.807
31.779
31.752
31.727
31.704
31.682
31.661
31.64
31.619
31.599
31.58
31.565
31.557
31.56
31.577
31.613
31.674
31.764
31.891
32.06
32.278
32.55
32.88
33.27
33.72
34.227
34.788
35.394
36.038
36.708
37.394
38.081
38.759
39.413
40.032
40.605
41.122
41.577
41.965
42.283
42.529
42.705
42.813
42.859
42.846
42.781
42.672
42.525
42.348
42.148
41.93
41.701
41.466
41.229
40.993
40.763
40.541
40.328
40.128
39.94
39.765
39.603
39.454
39.318
39.192
39.076
38.967
38.866
38.773
38.685
38.598
38.508
38.412
38.309
38.197
38.074
37.939
37.792
37.634
37.466
37.291
37.112
36.93
36.75
36.576
36.41
36.255
36.113
35.987
35.876
35.78
35.698
35.629
35.572
35.525
35.487
35.458
35.438
35.425
35.419
35.421
35.427
35.438
35.451
35.465
35.477
35.485
35.487
35.484
35.473
35.456
35.432
35.401
35.365
35.324
35.278
35.229
35.176
35.119
35.06
34.997
34.933
34.866
34.799
34.73
34.66
34.589
34.516
34.44
34.361
34.281
34.199
34.115
34.031
33.945
33.858
33.772
33.684
33.598
33.512
33.428
33.344
33.262
33.18
33.1
33.024
32.953
32.885
32.821
32.761
32.704
32.649
32.598
32.552
32.51
32.471
32.437
32.406
32.379
32.354
32.332
32.311
32.29
32.269
32.247
32.224
32.2
32.177
32.154
32.133
32.114
32.098
32.084
32.073
32.064
32.058
32.053
32.051
32.049
32.047
32.045
32.041
32.037
32.032
32.027
32.022
32.017
32.012
32.008
32.004
32.001
31.998
31.994
31.991
31.987
31.983
31.98
31.978
31.977
31.978
31.981
31.985
31.989
31.994
31.998
32.002
32.006
32.009
32.011
32.013
32.016
32.017
32.017
32.017
32.016
32.014
32.012
32.008
32.004
31.998
31.992
31.982
31.971
31.957
31.94
31.92
31.898
31.875
31.849
31.822
31.793
31.763
31.733
31.705
31.678
31.651
31.627
31.603
31.582
31.564
31.549
31.539
31.533
31.534
31.545
31.569
31.611
31.678
31.775
31.91
32.09
32.32
32.604
32.947
33.35
33.812
34.328
34.895
35.504
36.147
36.812
37.488
38.163
38.825
39.461
40.061
40.615
41.115
41.553
41.925
42.228
42.459
42.62
42.713
42.742
42.711
42.628
42.499
42.332
42.136
41.918
41.685
41.444
41.2
40.958
40.72
40.49
40.27
40.059
39.859
39.668
39.488
39.317
39.155
39.001
38.855
38.715
38.58
38.448
38.318
38.188
38.058
37.925
37.79
37.652
37.51
37.366
37.218
37.069
36.921
36.775
36.633
36.496
36.365
36.242
36.127
36.021
35.924
35.837
35.758
35.686
35.62
35.561
35.512
35.473
35.448
35.436
35.437
35.452
35.478
35.513
35.555
35.6
35.644
35.687
35.725
35.757
35.782
35.797
35.803
35.799
35.785
35.762
35.731
35.692
35.647
35.596
35.54
35.481
35.417
35.351
35.281
35.208
35.132
35.053
34.971
34.887
34.802
34.716
34.629
34.543
34.457
34.372
34.287
34.203
34.118
34.033
33.949
33.865
33.782
33.701
33.622
33.546
33.473
33.404
33.338
33.276
33.217
33.159
33.104
33.05
32.998
32.948
32.899
32.852
32.807
32.764
32.723
32.683
32.646
32.611
32.578
32.547
32.519
32.493
32.468
32.445
32.423
32.402
32.381
32.359
32.336
32.314
32.294
32.276
32.261
32.251
32.244
32.241
32.243
32.249
32.259
32.272
32.287
32.303
32.321
32.337
32.353
32.366
32.376
32.383
32.386
32.387
32.385
32.382
32.377
32.371
32.362
32.351
32.337
32.322
32.304
32.286
32.266
32.246
32.225
32.204
32.182
32.159
32.136
32.112
32.089
32.065
32.041
32.018
31.998
31.982
31.973
31.975
31.99
32.024
32.081
32.168
32.289
32.45
32.658
32.915
33.225
33.587
34.001
34.465
34.974
35.524
36.104
36.706
37.319
37.933
38.538
39.125
39.683
40.205
40.684
41.112
41.486
41.801
42.055
42.247
42.379
42.453
42.472
42.44
42.365
42.254
42.118
41.962
41.791
41.608
41.415
41.215
41.008
40.798
40.586
40.375
40.165
39.959
39.759
39.565
39.379
39.201
39.03
38.867
38.712
38.563
38.419
38.28
38.146
38.015
37.886
37.759
37.632
37.505
37.377
37.247
37.114
36.978
36.839
36.698
36.556
36.415
36.274
36.137
36.005
35.88
35.764
35.657
35.561
35.478
35.408
35.352
35.31
35.282
35.267
35.264
35.272
35.288
35.311
35.339
35.367
35.394
35.417
35.435
35.447
35.452
35.451
35.444
35.433
35.418
35.4
35.378
35.353
35.324
35.291
35.252
35.208
35.157
35.101
35.039
34.971
34.899
34.823
34.744
34.662
34.579
34.494
34.409
34.323
34.24
34.157
34.075
33.994
33.912
33.83
33.747
33.663
33.579
33.493
33.409
33.326
33.247
33.173
33.104
33.04
32.982
32.927
32.876
32.827
32.779
32.733
32.688
32.645
32.603
32.566
32.532
32.501
32.475
32.45
32.427
32.404
32.382
32.361
32.339
32.318
32.297
32.277
32.257
32.237
32.219
32.201
32.183
32.167
32.153
32.141
32.131
32.124
32.118
32.115
32.115
32.117
32.121
32.129
32.14
32.153
32.17
32.188
32.206
32.222
32.236
32.248
32.257
32.263
32.268
32.271
32.272
32.272
32.271
32.268
32.264
32.258
32.25
32.24
32.228
32.214
32.199
32.183
32.167
32.149
32.13
32.11
32.086
32.06
32.032
32.005
31.98
31.959
31.94
31.925
31.913
31.904
31.898
31.896
31.9
31.912
31.936
31.974
32.031
32.115
32.231
32.386
32.585
32.834
33.136
33.493
33.906
34.374
34.893
35.458
36.062
36.696
37.349
38.01
38.666
39.305
39.916
40.488
41.011
41.477
41.88
42.216
42.483
42.68
42.81
42.877
42.885
42.842
42.754
42.628
42.471
42.29
42.091
41.88
41.661
41.438
41.216
40.996
40.78
40.57
40.366
40.171
39.984
39.806
39.639
39.482
39.335
39.196
39.065
38.94
38.819
38.701
38.584
38.468
38.349
38.229
38.105
37.977
37.847
37.713
37.576
37.437
37.297
37.157
37.018
36.879
36.744
36.615
36.49
36.373
36.262
36.159
36.065
35.98
35.905
35.84
35.786
35.742
35.709
35.685
35.671
35.663
35.663
35.669
35.678
35.69
35.704
35.718
35.731
35.742
35.75
35.752
35.749
35.739
35.721
35.694
35.659
35.614
35.562
35.503
35.439
35.371
35.301
35.23
35.158
35.086
35.012
34.938
34.863
34.787
34.711
34.634
34.556
34.478
34.399
34.32
34.241
34.163
34.086
34.009
33.935
33.862
33.79
33.719
33.648
33.579
33.509
33.439
33.369
33.299
33.231
33.166
33.104
33.046
32.994
32.945
32.902
32.862
32.826
32.792
32.76
32.729
32.7
32.672
32.647
32.624
32.603
32.586
32.571
32.558
32.545
32.531
32.516
32.497
32.477
32.456
32.436
32.417
32.401
32.388
32.378
32.371
32.368
32.367
32.37
32.375
32.383
32.392
32.402
32.412
32.421
32.429
32.437
32.443
32.449
32.454
32.458
32.462
32.466
32.467
32.467
32.463
32.457
32.447
32.434
32.419
32.402
32.386
32.371
32.356
32.342
32.328
32.313
32.299
32.285
32.27
32.255
32.237
32.219
32.199
32.177
32.153
32.128
32.102
32.076
32.051
32.027
32.005
31.986
31.969
31.954
31.942
31.932
31.927
31.925
31.93
31.942
31.967
32.007
32.068
32.154
32.271
32.424
32.62
32.863
33.157
33.506
33.911
34.37
34.881
35.436
36.029
36.652
37.294
37.944
38.59
39.22
39.824
40.392
40.913
41.38
41.788
42.132
42.409
42.62
42.766
42.849
42.873
42.845
42.769
42.653
42.502
42.324
42.126
41.913
41.692
41.465
41.236
41.01
40.789
40.575
40.369
40.172
39.985
39.807
39.639
39.481
39.332
39.19
39.055
38.924
38.797
38.672
38.547
38.422
38.295
38.165
38.033
37.898
37.76
37.622
37.483
37.344
37.207
37.071
36.938
36.808
36.68
36.556
36.436
36.322
36.215
36.115
36.024
35.942
35.871
35.81
35.76
35.72
35.69
35.67
35.659
35.654
35.655
35.66
35.669
35.68
35.693
35.707
35.72
35.732
35.742
35.747
35.747
35.741
35.728
35.705
35.672
35.629
35.577
35.518
35.454
35.386
35.317
35.248
35.18
35.113
35.047
34.981
34.915
34.848
34.781
34.713
34.644
34.573
34.5
34.425
34.347
34.268
34.186
34.103
34.02
33.937
33.855
33.776
33.699
33.624
33.552
33.481
33.411
33.344
33.279
33.218
33.16
33.106
33.058
33.013
32.973
32.937
32.903
32.872
32.842
32.811
32.78
32.749
32.718
32.689
32.661
32.634
32.61
32.588
32.567
32.549
32.531
32.516
32.501
32.486
32.472
32.459
32.447
32.437
32.43
32.426
32.426
32.428
32.434
32.442
32.453
32.465
32.48
32.495
32.511
32.526
32.539
32.551
32.559
32.568
32.578
32.591
32.608
32.627
32.646
32.664
32.679
32.689
32.695
32.696
32.692
32.683
32.671
32.656
32.639
32.621
32.602
32.583
32.564
32.546
32.529
32.513
32.497
32.482
32.465
32.448
32.43
32.41
32.389
32.367
32.344
32.322
32.301
32.281
32.261
32.243
32.225
32.209
32.196
32.189
32.19
32.203
32.231
32.281
32.356
32.463
32.605
32.788
33.017
33.294
33.621
33.998
34.425
34.899
35.413
35.963
36.539
37.133
37.735
38.333
38.917
39.475
39.998
40.479
40.909
41.285
41.603
41.862
42.06
42.2
42.283
42.312
42.292
42.226
42.122
41.984
41.819
41.633
41.433
41.222
41.004
40.784
40.564
40.348
40.139
39.938
39.745
39.562
39.389
39.224
39.069
38.922
38.782
38.65
38.525
38.405
38.289
38.175
38.062
37.947
37.83
37.709
37.582
37.45
37.314
37.174
37.033
36.892
36.754
36.62
36.493
36.374
36.264
36.166
36.081
36.007
35.947
35.899
35.864
35.841
35.829
35.827
35.835
35.85
35.873
35.9
35.932
35.964
35.996
36.025
36.05
36.07
36.084
36.092
36.093
36.088
36.075
36.057
36.032
36.001
35.965
35.923
35.875
35.821
35.761
35.696
35.627
35.555
35.48
35.404
35.326
35.248
35.169
35.09
35.01
34.931
34.851
34.772
34.692
34.612
34.533
34.455
34.378
34.3
34.224
34.148
34.073
34.0
33.929
33.861
33.796
33.735
33.678
33.623
33.57
33.518
33.467
33.416
33.365
33.314
33.264
33.217
33.172
33.131
33.095
33.063
33.035
33.008
32.984
32.961
32.939
32.919
32.901
32.885
32.872
32.861
32.854
32.85
32.848
32.849
32.85
32.852
32.854
32.854
32.854
32.851
32.847
32.84
32.831
32.821
32.809
32.795
32.781
32.767
32.753
32.738
32.723
32.705
32.685
32.664
32.641
32.618
32.595
32.574
32.557
32.542
32.532
32.525
32.52
32.517
32.515
32.514
32.515
32.519
32.528
32.546
32.576
32.624
32.693
32.788
32.914
33.074
33.272
33.513
33.799
34.13
34.505
34.923
35.379
35.869
36.387
36.925
37.474
38.022
38.562
39.083
39.576
40.034
40.45
40.818
41.135
41.4
41.613
41.774
41.885
41.95
41.971
41.952
41.898
41.812
41.697
41.559
41.402
41.229
41.044
40.852
40.655
40.456
40.26
40.067
39.882
39.705
39.538
39.383
39.239
39.106
38.982
38.868
38.759
38.656
38.555
38.455
38.355
38.251
38.143
38.03
37.91
37.784
37.652
37.513
37.37
37.222
37.072
36.92
36.77
36.622
36.479
36.343
36.216
36.098
35.993
35.9
35.82
35.752
35.697
35.653
35.62
