Trial 1:0back
40.034
39.95
39.871
39.796
39.725
39.655
39.587
39.519
39.449
39.376
39.301
39.222
39.139
39.052
38.963
38.872
38.78
38.689
38.6
38.513
38.43
38.354
38.285
38.224
38.171
38.128
38.093
38.067
38.048
38.036
38.029
38.027
38.028
38.032
38.038
38.046
38.056
38.066
38.076
38.086
38.096
38.106
38.114
38.121
38.125
38.126
38.124
38.117
38.106
38.09
38.069
38.042
38.01
37.972
37.928
37.878
37.821
37.759
37.691
37.617
37.539
37.456
37.368
37.277
37.182
37.083
36.983
36.88
36.775
36.67
36.565
36.461
36.356
36.253
36.152
36.053
35.956
35.86
35.765
35.67
35.577
35.484
35.393
35.303
35.218
35.135
35.057
34.982
34.91
34.843
34.779
34.718
34.66
34.605
34.552
34.499
34.449
34.399
34.352
34.305
34.26
34.217
34.176
34.137
34.099
34.063
34.029
33.998
33.97
33.945
33.923
33.903
33.886
33.871
33.858
33.848
33.839
33.831
33.824
33.817
33.809
33.8
33.791
33.782
33.772
33.761
33.75
33.738
33.725
33.709
33.693
33.677
33.66
33.643
33.626
33.608
33.59
33.572
33.552
33.532
33.51
33.488
33.464
33.437
33.409
33.38
33.349
33.318
33.288
33.257
33.228
33.199
33.17
33.141
33.111
33.08
33.048
33.016
32.982
32.948
32.915
32.881
32.848
32.816
32.786
32.758
32.731
32.706
32.681
32.656
32.63
32.602
32.572
32.539
32.503
32.465
32.425
32.385
32.346
32.308
32.272
32.237
32.204
32.172
32.143
32.117
32.093
32.072
32.053
32.039
32.031
32.029
32.038
32.06
32.099
32.16
32.248
32.369
32.528
32.73
32.98
33.281
33.635
34.039
34.49
34.984
35.512
36.066
36.637
37.213
37.785
38.343
38.877
39.379
39.842
40.263
40.637
40.963
41.242
41.476
41.666
41.817
41.932
42.015
42.069
42.099
42.106
42.095
42.069
42.029
41.978
41.917
41.848
41.772
41.69
41.602
41.509
41.41
41.307
41.2
41.089
40.976
40.862
40.746
40.631
40.517
40.405
40.296
40.19
40.086
39.983
39.88
39.778
39.677
39.575
39.474
39.371
39.268
39.163
39.056
38.949
38.84
38.731
38.621
38.512
38.405
38.3
38.2
38.104
38.014
37.931
37.856
37.79
37.733
37.685
37.649
37.623
37.609
37.605
37.61
37.625
37.648
37.681
37.723
37.773
37.827
37.884
37.94
37.992
38.04
38.081
38.114
38.14
38.157
38.166
38.167
38.158
38.139
38.111
38.075
38.03
37.978
37.92
37.857
37.789
37.719
37.645
37.568
37.488
37.406
37.322
37.235
37.146
37.054
36.959
36.861
36.759
36.654
36.547
36.437
36.326
36.214
36.102
35.992
35.883
35.776
35.673
35.573
35.475
35.381
35.289
35.201
35.115
35.031
34.951
34.872
34.796
34.722
34.649
34.578
34.509
34.442
34.378
34.316
34.255
34.196
34.14
34.087
34.038
33.993
33.952
33.913
33.879
33.847
33.818
33.791
33.767
33.745
33.726
33.709
33.694
33.679
33.667
33.655
33.645
33.635
33.625
33.614
33.6
33.585
33.566
33.546
33.525
33.502
33.478
33.454
33.431
33.407
33.384
33.362
33.339
33.317
33.295
33.273
33.251
33.227
33.201
33.173
33.144
33.113
33.083
33.052
33.021
32.99
32.959
32.928
32.897
32.866
32.835
32.804
32.772
32.74
32.707
32.674
32.641
32.614
32.592
32.575
32.561
32.549
32.537
32.521
32.503
32.479
32.451
32.418
32.38
32.338
32.293
32.247
32.2
32.153
32.108
32.065
32.025
31.99
31.959
31.932
31.908
31.888
31.871
31.855
31.84
31.825
31.81
31.794
31.777
31.759
31.741
31.721
31.699
31.675
31.649
31.623
31.595
31.566
31.535
31.503
31.471
31.438
31.406
31.374
31.343
31.314
31.288
31.266
31.248
31.235
31.226
31.224
31.228
31.241
31.268
31.313
31.381
31.48
31.616
31.796
32.027
32.313
32.657
33.057
33.513
34.02
34.572
35.16
35.774
36.402
37.032
37.652
38.25
38.818
39.348
39.832
40.266
40.649
40.978
41.254
41.48
41.657
41.791
41.885
41.945
41.975
41.98
41.964
41.932
41.887
41.832
41.77
41.702
41.63
41.554
41.476
41.395
41.313
41.229
41.142
41.054
40.964
40.873
40.781
40.69
40.601
40.515
40.432
40.354
40.281
40.212
40.147
40.088
40.032
39.979
39.928
39.878
39.827
39.775
39.719
39.66
39.596
39.528
39.455
39.377
39.294
39.207
39.115
39.02
38.922
38.823
38.723
38.625
38.53
38.44
38.356
38.279
38.21
38.15
38.098
38.053
38.015
37.986
37.963
37.947
37.935
37.928
37.924
37.923
37.924
37.927
37.931
37.936
37.94
37.943
37.945
37.943
37.939
37.932
37.921
37.906
37.886
37.863
37.835
37.804
37.768
37.726
37.68
37.628
37.571
37.508
37.439
37.365
37.285
37.201
37.112
37.019
36.922
36.823
36.723
36.622
36.522
36.424
36.328
36.234
36.143
36.055
35.97
35.888
35.808
35.732
35.658
35.587
35.516
35.447
35.379
35.31
35.24
35.169
35.098
35.026
34.955
34.886
34.819
34.755
34.694
34.636
34.58
34.525
34.471
34.419
34.368
34.32
34.274
34.23
34.188
34.149
34.112
34.078
34.046
34.017
33.991
33.967
33.945
33.925
33.906
33.89
33.876
33.863
33.851
33.839
33.827
33.814
33.799
33.783
33.765
33.747
33.728
33.709
33.689
33.669
33.649
33.629
33.609
33.59
33.571
33.551
33.532
33.513
33.493
33.474
33.455
33.437
33.42
33.402
33.384
33.364
33.342
33.318
33.293
33.265
33.235
33.204
33.171
33.138
33.102
33.065
33.026
32.987
32.947
32.907
32.869
32.833
32.8
32.769
32.741
32.715
32.692
32.67
32.65
32.63
32.61
32.587
32.563
32.536
32.507
32.476
32.442
32.408
32.373
32.338
32.302
32.267
32.232
32.198
32.164
32.132
32.101
32.071
32.042
32.014
31.986
31.958
31.932
31.907
31.885
31.867
31.853
31.845
31.845
31.853
31.874
31.91
31.964
32.043
32.151
32.294
32.477
32.704
32.978
33.302
33.673
34.09
34.549
35.043
35.566
36.106
36.656
37.205
37.745
38.267
38.764
39.229
39.659
40.05
40.399
40.706
40.97
41.193
41.374
41.518
41.628
41.705
41.753
41.776
41.775
41.754
41.715
41.66
41.592
41.512
41.424
41.329
41.228
41.124
41.018
40.911
40.804
40.697
40.591
40.486
40.384
40.286
40.191
40.1
40.014
39.933
39.858
39.789
39.724
39.661
39.599
39.537
39.472
39.405
39.333
39.257
39.176
39.09
38.999
38.904
38.804
38.7
38.593
38.484
38.376
38.269
38.167
38.069
37.976
37.892
37.815
37.749
37.694
37.65
37.618
37.596
37.585
37.584
37.593
37.608
37.631
37.659
37.69
37.725
37.76
37.795
37.829
37.86
37.888
37.912
37.93
37.941
37.946
37.943
37.933
37.916
37.89
37.857
37.816
37.767
37.712
37.652
37.586
37.517
37.444
37.37
37.294
37.216
37.134
37.051
36.966
36.881
36.797
36.713
36.628
36.542
36.455
36.365
36.274
36.178
36.078
35.974
35.868
35.76
35.651
35.543
35.437
35.333
35.234
35.138
35.045
34.957
34.873
34.793
34.718
34.647
34.58
34.517
34.459
34.403
34.352
34.302
34.256
34.212
34.17
34.131
34.093
34.056
34.021
33.987
33.954
33.921
33.89
33.861
33.834
33.809
33.785
33.762
33.741
33.721
33.701
33.681
33.66
33.639
33.617
33.595
33.574
33.554
33.534
33.515
33.495
33.474
33.453
33.429
33.404
33.376
33.348
33.317
33.286
33.253
33.22
33.187
33.156
33.125
33.096
33.068
33.041
33.015
32.988
32.962
32.936
32.908
32.879
32.848
32.816
32.783
32.748
32.713
32.676
32.64
32.604
32.569
32.534
32.5
32.466
32.433
32.4
32.367
32.334
32.301
32.269
32.239
32.211
32.184
32.159
32.136
32.114
32.095
32.076
32.059
32.042
32.026
32.009
31.993
31.975
31.955
31.931
31.903
31.872
31.838
31.802
31.764
31.726
31.688
31.65
31.612
31.574
31.537
31.501
31.467
31.436
31.408
31.384
31.365
31.349
31.337
31.33
31.331
31.339
31.356
31.385
31.429
31.493
31.582
31.702
31.858
32.057
32.303
32.6
32.951
33.354
33.807
34.306
34.844
35.412
36.002
36.601
37.198
37.784
38.347
38.88
39.376
39.829
40.236
40.594
40.901
41.16
41.371
41.537
41.66
41.744
41.793
41.81
41.802
41.771
41.723
41.66
41.585
41.502
41.409
41.306
41.193
41.074
40.951
40.827
40.707
40.592
40.484
40.385
40.293
40.21
40.135
40.068
40.009
39.957
39.91
39.867
39.828
39.791
39.756
39.724
39.692
39.659
39.623
39.585
39.542
39.493
39.438
39.375
39.305
39.226
39.14
39.046
38.947
38.844
38.737
38.628
38.518
38.41
38.304
38.202
38.107
38.018
37.936
37.863
37.797
37.741
37.693
37.655
37.626
37.606
37.594
37.59
37.593
37.6
37.611
37.624
37.638
37.65
37.66
37.667
37.672
37.673
37.671
37.665
37.655
37.642
37.624
37.601
37.572
37.539
37.5
37.457
37.408
37.355
37.297
37.234
37.167
37.095
37.018
36.938
36.855
36.768
36.677
36.584
36.488
36.391
36.294
36.196
36.097
35.998
35.9
35.803
35.708
35.615
35.524
35.435
35.348
35.263
35.181
35.102
35.024
34.948
34.873
34.8
34.727
34.657
34.589
34.523
34.46
34.4
34.341
34.284
34.23
34.177
34.125
34.076
34.028
33.985
33.945
33.908
33.874
33.841
33.809
33.778
33.748
33.718
33.687
33.656
33.624
33.593
33.563
33.535
33.508
33.484
33.461
33.439
33.418
33.397
33.376
33.355
33.334
33.311
33.288
33.264
33.24
33.215
33.191
33.166
33.141
33.116
33.091
33.065
33.038
33.011
32.982
32.954
32.924
32.894
32.864
32.832
32.799
32.766
32.732
32.698
32.664
32.63
32.597
32.563
32.529
32.494
32.458
32.421
32.383
32.345
32.307
32.27
32.234
32.199
32.165
32.133
32.103
32.075
32.047
32.021
31.996
31.972
31.948
31.924
31.901
31.878
31.857
31.836
31.814
31.792
31.769
31.745
31.721
31.696
31.67
31.642
31.612
31.579
31.545
31.508
31.47
31.431
31.393
31.355
31.32
31.289
31.262
31.24
31.223
31.21
31.202
31.197
31.196
31.2
31.209
31.228
31.258
31.304
31.369
31.46
31.582
31.741
31.942
32.189
32.487
32.835
33.234
33.679
34.166
34.688
35.237
35.804
36.381
36.957
37.522
38.067
38.583
39.062
39.5
39.891
40.233
40.526
40.771
40.97
41.125
41.239
41.316
41.36
41.375
41.366
41.338
41.293
41.236
41.17
41.097
41.019
40.937
40.852
40.763
40.672
40.577
40.481
40.383
40.285
40.189
40.094
40.001
39.91
39.822
39.737
39.654
39.574
39.496
39.42
39.344
39.267
39.189
39.11
39.028
38.944
38.856
38.765
38.671
38.574
38.475
38.375
38.274
38.173
38.074
37.978
37.886
37.796
37.707
37.616
37.526
37.438
37.355
37.281
37.219
37.169
37.134
37.114
37.109
37.119
37.143
37.178
37.222
37.273
37.328
37.386
37.444
37.5
37.553
37.601
37.644
37.68
37.708
37.729
37.742
37.748
37.745
37.734
37.714
37.685
37.648
37.602
37.549
37.487
37.418
37.342
37.261
37.176
37.089
36.999
36.907
36.814
36.72
36.626
36.532
36.438
36.343
36.248
36.152
36.057
35.961
35.865
35.769
35.673
35.578
35.481
35.385
35.288
35.193
35.098
35.003
34.91
34.819
34.729
34.641
34.556
34.475
34.398
34.325
34.256
34.191
34.129
34.069
34.011
33.955
33.901
33.849
33.799
33.753
33.709
33.668
33.631
33.597
33.566
33.539
33.516
33.497
33.481
33.468
33.458
33.448
33.44
33.431
33.42
33.409
33.398
33.386
33.374
33.362
33.351
33.34
33.328
33.315
33.302
33.287
33.271
33.253
33.234
33.212
33.19
33.167
33.143
33.118
33.092
33.067
33.044
33.021
32.999
32.977
32.954
32.93
32.904
32.877
32.846
32.814
32.78
32.744
32.708
32.672
32.637
32.603
32.569
32.538
32.508
32.478
32.448
32.42
32.392
32.365
32.339
32.314
32.291
32.268
32.246
32.224
32.201
32.176
32.15
32.122
32.093
32.061
32.028
31.992
31.954
31.914
31.873
31.831
31.787
31.742
31.698
31.655
31.612
31.57
31.53
31.492
31.458
31.426
31.398
31.373
31.353
31.337
31.328
31.328
31.339
31.365
31.41
31.48
31.581
31.72
31.902
32.132
32.414
32.749
33.139
33.581
34.071
34.602
35.166
35.754
36.354
36.956
37.551
38.127
38.677
39.192
39.667
40.098
40.482
40.818
41.104
41.343
41.535
41.683
41.791
41.861
41.9
41.911
41.899
41.866
41.817
41.755
41.683
41.602
41.516
41.425
41.332
41.236
41.139
41.04
40.94
40.84
40.738
40.637
40.536
40.437
40.341
40.248
40.159
40.075
39.998
39.928
39.865
39.807
39.754
39.704
39.657
39.612
39.565
39.516
39.462
39.403
39.338
39.266
39.188
39.103
39.012
38.916
38.816
38.714
38.61
38.506
38.403
38.302
38.206
38.114
38.03
37.952
37.883
37.822
37.77
37.727
37.694
37.669
37.653
37.645
37.646
37.653
37.665
37.681
37.699
37.718
37.736
37.752
37.764
37.771
37.773
37.769
37.759
37.744
37.723
37.697
37.666
37.63
37.59
37.545
37.495
37.44
37.38
37.315
37.244
37.167
37.086
37.0
36.91
36.817
36.722
36.625
36.528
36.429
36.329
36.229
36.128
36.027
35.925
35.823
35.72
35.617
35.514
35.409
35.304
35.198
35.092
34.985
34.877
34.769
34.663
34.558
34.456
34.358
34.263
34.174
34.089
34.01
33.936
33.866
33.799
33.735
33.673
33.613
33.556
33.5
33.447
33.396
33.35
33.306
33.265
33.226
33.189
33.153
33.118
33.083
33.05
33.017
32.986
32.956
32.927
32.9
32.874
32.85
32.828
32.807
32.786
32.765
32.743
32.72
32.695
32.669
32.639
32.608
32.575
32.541
32.507
32.473
32.441
32.411
32.382
32.356
32.332
32.308
32.284
32.26
32.235
32.21
32.183
32.156
32.129
32.103
32.077
32.052
32.028
32.005
31.983
31.962
31.94
31.919
31.897
31.873
31.847
31.819
31.789
31.757
31.723
31.688
31.652
31.616
31.579
31.543
31.507
31.471
31.436
31.403
31.373
31.344
31.317
31.291
31.268
31.246
31.227
31.209
31.193
31.179
31.166
31.154
31.142
31.13
31.118
31.104
31.089
31.072
31.053
31.029
31.001
30.97
30.936
30.901
30.867
30.833
30.802
30.773
30.747
30.723
30.702
30.683
30.666
30.651
30.639
30.629
30.621
30.616
30.614
30.615
30.619
30.629
30.645
30.671
30.709
30.765
30.844
30.954
31.102
31.294
31.536
31.833
32.186
32.595
33.058
33.569
34.123
34.709
35.319
35.939
36.56
37.17
37.76
38.319
38.841
39.319
39.748
40.125
40.448
40.718
40.936
41.103
41.225
41.304
41.346
41.356
41.338
41.297
41.238
41.166
41.083
40.994
40.9
40.804
40.707
40.61
40.514
40.418
40.323
40.229
40.135
40.041
39.945
39.848
39.75
39.652
39.555
39.46
39.369
39.283
39.203
39.128
39.058
38.992
38.93
38.87
38.81
38.749
38.685
38.618
38.546
38.469
38.387
38.3
38.208
38.113
38.017
37.92
37.824
37.731
37.642
37.558
37.481
37.412
37.35
37.298
37.254
37.22
37.194
37.179
37.172
37.174
37.183
37.199
37.221
37.247
37.275
37.303
37.33
37.355
37.378
37.399
37.416
37.431
37.443
37.452
37.457
37.459
37.458
37.453
37.444
37.432
37.415
37.395
37.368
37.336
37.296
37.249
37.193
37.131
37.062
36.986
36.903
36.814
36.72
36.621
36.52
36.416
36.31
36.203
36.095
35.989
35.884
35.781
35.68
35.582
35.486
35.394
35.304
35.218
35.135
35.055
34.977
34.902
34.828
34.756
34.684
34.613
34.543
34.474
34.407
34.342
34.279
34.218
34.158
34.099
34.043
33.988
33.935
33.884
33.834
33.786
33.741
33.697
33.655
33.616
33.579
33.544
33.513
33.483
33.455
33.43
33.406
33.386
33.367
33.351
33.336
33.322
33.309
33.296
33.283
33.271
33.259
33.248
33.238
33.227
33.216
33.205
33.193
33.18
33.166
33.151
33.135
33.118
33.1
33.08
33.059
33.036
33.012
32.987
32.96
32.933
32.906
32.879
32.853
32.828
32.804
32.781
32.759
32.738
32.716
32.693
32.668
32.64
32.61
32.578
32.546
32.513
32.48
32.447
32.414
32.382
32.351
32.321
32.292
32.263
32.235
32.206
32.177
32.147
32.116
32.082
32.047
32.01
31.971
31.93
31.888
31.845
31.803
31.761
31.719
31.679
31.639
31.599
31.56
31.523
31.486
31.451
31.418
31.388
31.361
31.338
31.32
31.306
31.299
31.299
31.31
31.332
31.371
31.431
31.519
31.64
31.8
32.006
32.263
32.572
32.938
33.358
33.83
34.35
34.908
35.495
36.1
36.713
37.321
37.913
38.481
39.014
39.505
39.951
40.346
40.688
40.977
41.212
41.395
41.53
41.621
41.672
41.689
41.675
41.636
41.576
41.499
41.407
41.304
41.193
41.076
40.956
40.833
40.71
40.59
40.473
40.359
40.249
40.143
40.039
39.939
39.842
39.747
39.655
39.566
39.481
39.399
39.322
39.248
39.178
39.112
39.048
38.987
38.928
38.87
38.812
38.752
38.689
38.623
38.551
38.474
38.392
38.305
38.214
38.119
38.021
37.921
37.822
37.725
37.632
37.543
37.461
37.387
37.321
37.264
37.218
37.183
37.159
37.147
37.144
37.15
37.163
37.182
37.206
37.233
37.262
37.294
37.326
37.356
37.384
37.408
37.427
37.44
37.447
37.448
37.443
37.43
37.411
37.386
37.354
37.316
37.271
37.221
37.165
37.105
37.042
36.976
36.906
36.834
36.758
36.68
36.599
36.515
36.427
36.336
36.24
36.14
36.036
35.928
35.818
35.705
35.591
35.476
35.362
35.248
35.137
35.029
34.924
34.825
34.73
34.639
34.553
34.47
34.391
34.315
34.242
34.171
34.1
34.031
33.963
33.897
33.834
33.774
33.719
33.668
33.621
33.578
33.54
33.507
33.477
33.452
33.43
33.411
33.394
33.379
33.365
33.351
33.337
33.321
33.305
33.287
33.268
33.248
33.227
33.206
33.185
33.163
33.141
33.12
33.099
33.078
33.057
33.036
33.014
32.992
32.97
32.947
32.924
32.9
32.876
32.85
32.823
32.796
32.77
32.745
32.721
32.698
32.677
32.657
32.637
32.616
32.594
32.571
32.546
32.519
32.49
32.46
32.428
32.394
32.357
32.318
32.277
32.236
32.195
32.155
32.117
32.079
32.042
32.005
31.969
31.932
31.896
31.86
31.826
31.791
31.757
31.723
31.69
31.658
31.627
31.596
31.567
31.538
31.509
31.482
31.455
31.429
31.404
31.381
31.359
31.339
31.32
31.301
31.282
31.262
31.242
31.221
31.2
31.177
31.152
31.127
31.101
31.074
31.046
31.019
30.991
30.965
30.941
30.918
30.896
30.875
30.854
30.834
30.813
30.792
30.772
30.751
30.731
30.712
30.695
30.679
30.664
30.647
30.631
30.617
30.61
30.614
30.633
30.674
30.742
30.846
30.994
31.193
31.45
31.769
32.153
32.601
33.108
33.669
34.272
34.909
35.567
36.233
36.893
37.534
38.146
38.716
39.237
39.703
40.111
40.457
40.742
40.966
41.133
41.248
41.316
41.342
41.334
41.297
41.237
41.158
41.065
40.962
40.852
40.738
40.621
40.501
40.38
40.258
40.135
40.013
39.89
39.768
39.648
39.53
39.414
39.301
39.193
39.089
38.992
38.901
38.817
38.739
38.668
38.604
38.546
38.493
38.446
38.402
38.36
38.319
38.277
38.233
38.188
38.14
38.089
38.033
37.971
37.903
37.829
37.751
37.667
37.581
37.493
37.405
37.319
37.237
37.161
37.093
37.034
36.985
36.945
36.916
36.896
36.886
36.884
36.89
36.902
36.92
36.942
36.967
36.994
37.021
37.048
37.071
37.091
37.107
37.119
37.125
37.127
37.123
37.115
37.101
37.083
37.059
37.032
37.0
36.965
36.925
36.88
36.832
36.778
36.72
36.656
36.588
36.515
36.437
36.354
36.266
36.174
36.079
35.981
35.883
35.785
35.687
35.59
35.494
35.4
35.308
35.219
35.133
35.048
34.966
34.885
34.806
34.73
34.655
34.583
34.513
34.445
34.379
34.314
34.25
34.187
34.125
34.064
34.005
33.947
33.891
33.837
33.787
33.74
33.696
33.654
33.614
33.577
33.541
33.507
33.474
33.442
33.411
33.381
33.353
33.326
33.301
33.278
33.256
33.236
33.218
33.201
33.186
33.171
33.159
33.147
33.136
33.125
33.114
33.105
33.095
33.086
33.078
33.07
33.06
33.048
33.033
33.016
32.998
32.977
32.955
32.93
32.904
32.877
32.849
32.82
32.791
32.762
32.735
32.709
32.683
32.659
32.635
32.612
32.59
32.568
32.545
32.522
32.498
32.474
32.449
32.423
32.395
32.367
32.339
32.31
32.281
32.252
32.222
32.194
32.167
32.141
32.117
32.096
32.075
32.055
32.034
32.012
31.99
31.966
31.941
31.913
31.885
31.854
31.823
31.79
31.756
31.719
31.676
31.628
31.574
31.518
31.461
31.406
31.354
31.307
31.268
31.238
31.216
31.203
31.199
31.204
31.217
31.237
31.264
31.3
31.345
31.402
31.476
31.572
31.696
31.854
32.054
32.301
32.599
32.95
33.356
