Trial 1:0back
33.431
33.372
33.314
33.255
33.197
33.139
33.081
33.024
32.968
32.913
32.86
32.809
32.759
32.711
32.665
32.62
32.576
32.534
32.492
32.451
32.413
32.378
32.349
32.327
32.315
32.318
32.339
32.383
32.454
32.555
32.69
32.862
33.07
33.315
33.596
33.91
34.254
34.625
35.016
35.425
35.845
36.271
36.698
37.121
37.537
37.94
38.326
38.694
39.04
39.363
39.66
39.931
40.176
40.393
40.584
40.748
40.887
41.001
41.092
41.16
41.207
41.234
41.243
41.235
41.211
41.174
41.123
41.06
40.986
40.903
40.812
40.715
40.612
40.506
40.396
40.285
40.171
40.056
39.94
39.822
39.704
39.585
39.467
39.349
39.232
39.115
38.998
38.882
38.766
38.649
38.532
38.416
38.299
38.183
38.067
37.953
37.841
37.731
37.625
37.522
37.424
37.331
37.244
37.164
37.09
37.023
36.963
36.911
36.866
36.829
36.8
36.777
36.761
36.75
36.743
36.74
36.74
36.742
36.745
36.749
36.752
36.754
36.754
36.751
36.747
36.741
36.733
36.723
36.711
36.696
36.679
36.659
36.636
36.611
36.582
36.549
36.513
36.472
36.428
36.379
36.326
36.27
36.211
36.149
36.083
36.015
35.945
35.873
35.8
35.725
35.65
35.574
35.497
35.419
35.34
35.26
35.18
35.1
35.019
34.937
34.855
34.773
34.691
34.609
34.528
34.449
34.371
34.295
34.221
34.148
34.077
34.008
33.94
33.872
33.806
33.74
33.676
33.612
33.548
33.484
33.421
33.357
33.293
33.23
33.167
33.106
33.045
32.985
32.927
32.871
32.815
32.761
32.707
32.654
32.601
32.548
32.495
32.444
32.393
32.343
32.296
32.252
32.214
32.185
32.166
32.162
32.177
32.214
32.278
32.371
32.496
32.657
32.853
33.086
33.354
33.657
33.991
34.353
34.738
35.142
35.559
35.985
36.412
36.837
37.254
37.66
38.051
38.423
38.774
39.102
39.405
39.681
39.931
40.152
40.346
40.511
40.648
40.759
40.845
40.907
40.945
40.962
40.96
40.938
40.901
40.848
40.782
40.704
40.617
40.521
40.418
40.309
40.195
40.077
39.957
39.834
39.71
39.585
39.46
39.335
39.21
39.086
38.963
38.841
38.719
38.599
38.478
38.358
38.238
38.117
37.996
37.876
37.755
37.635
37.516
37.398
37.283
37.171
37.063
36.96
36.862
36.771
36.686
36.609
36.54
36.479
36.427
36.382
36.345
36.316
36.294
36.279
36.27
36.267
36.268
36.273
36.28
36.289
36.299
36.308
36.317
36.325
36.33
36.334
36.335
36.333
36.326
36.317
36.303
36.286
36.266
36.242
36.215
36.185
36.152
36.116
36.077
36.035
35.99
35.943
35.893
35.84
35.784
35.725
35.662
35.597
35.529
35.459
35.387
35.313
35.238
35.162
35.085
35.007
34.929
34.851
34.773
34.696
34.62
34.544
34.469
34.395
34.321
34.249
34.177
34.106
34.035
33.964
33.894
33.823
33.753
33.684
33.616
33.548
33.482
33.416
33.352
33.288
33.225
33.162
33.1
33.039
32.98
32.922
32.865
32.809
32.754
32.702
32.651
32.603
32.555
32.509
32.464
32.419
32.375
32.33
32.285
32.241
32.198
32.159
32.126
32.102
32.09
32.095
32.12
32.17
32.248
32.357
32.5
32.678
32.891
33.139
33.42
33.732
34.071
34.433
34.814
35.209
35.613
36.021
36.427
36.828
37.219
37.596
37.955
38.293
38.609
38.9
39.165
39.403
39.613
39.796
39.952
40.081
40.185
40.263
40.317
40.348
40.359
40.351
40.325
40.284
40.229
40.161
40.082
39.994
39.898
39.794
39.684
39.569
39.449
39.326
39.2
39.072
38.942
38.812
38.682
38.551
38.421
38.291
38.161
38.03
37.899
37.767
37.634
37.502
37.37
37.239
37.109
36.98
36.855
36.733
36.615
36.502
36.394
36.293
36.198
36.111
36.032
35.962
35.9
35.847
35.803
35.767
35.738
35.716
35.701
35.692
35.688
35.689
35.693
35.701
35.712
35.725
35.738
35.753
35.767
35.78
35.791
35.799
35.803
35.804
35.8
35.793
35.781
35.766
35.746
35.723
35.695
35.664
35.628
35.59
35.547
35.502
35.454
35.403
35.349
35.292
35.232
35.17
35.105
35.039
34.97
34.899
34.826
34.752
34.678
34.604
34.53
34.457
34.385
34.313
34.243
34.173
34.104
34.035
33.967
33.899
33.831
33.763
33.696
33.628
33.561
33.495
33.428
33.361
33.295
33.228
33.162
33.096
33.031
32.967
32.904
32.843
32.783
32.724
32.666
32.61
32.555
32.503
32.452
32.402
32.354
32.306
32.259
32.212
32.165
32.118
32.071
32.022
31.974
31.924
31.874
31.824
31.774
31.726
31.68
31.636
31.597
31.563
31.536
31.519
31.514
31.524
31.553
31.604
31.683
31.793
31.937
32.117
32.337
32.594
32.888
33.216
33.575
33.961
34.368
34.791
35.225
35.665
36.104
36.538
36.963
37.374
37.767
38.141
38.491
38.817
39.118
39.391
39.636
39.853
40.041
40.202
40.335
40.443
40.526
40.586
40.625
40.643
40.642
40.624
40.588
40.538
40.475
40.4
40.314
40.221
40.12
40.015
39.905
39.792
39.678
39.562
39.446
39.33
39.216
39.102
38.99
38.879
38.769
38.66
38.551
38.442
38.333
38.223
38.111
37.999
37.885
37.769
37.653
37.536
37.419
37.304
37.19
37.079
36.972
36.87
36.773
36.683
36.6
36.524
36.455
36.394
36.341
36.295
36.256
36.224
36.199
36.179
36.164
36.154
36.149
36.147
36.148
36.151
36.156
36.161
36.166
36.17
36.173
36.175
36.174
36.17
36.164
36.154
36.14
36.123
36.104
36.082
36.056
36.029
35.998
35.965
35.93
35.891
35.849
35.804
35.756
35.704
35.649
35.591
35.529
35.463
35.394
35.321
35.246
35.168
35.089
35.008
34.926
34.845
34.765
34.685
34.607
34.531
34.455
34.382
34.309
34.238
34.168
34.1
34.032
33.966
33.9
33.836
33.771
33.708
33.644
33.581
33.518
33.455
33.393
33.33
33.267
33.205
33.143
33.081
33.021
32.963
32.906
32.85
32.796
32.742
32.69
32.637
32.585
32.534
32.482
32.431
32.381
32.33
32.279
32.229
32.178
32.127
32.077
32.026
31.977
31.929
31.883
31.842
31.806
31.777
31.759
31.754
31.765
31.796
31.852
31.934
32.048
32.195
32.377
32.595
32.848
33.136
33.456
33.805
34.179
34.574
34.985
35.407
35.836
36.265
36.691
37.108
37.511
37.898
38.265
38.608
38.927
39.219
39.483
39.719
39.926
40.105
40.256
40.379
40.477
40.55
40.6
40.628
40.636
40.627
40.601
40.559
40.504
40.437
40.358
40.271
40.175
40.072
39.963
39.85
39.733
39.614
39.494
39.374
39.253
39.133
39.013
38.895
38.777
38.66
38.542
38.424
38.306
38.187
38.067
37.947
37.827
37.707
37.587
37.469
37.351
37.236
37.124
37.016
36.912
36.813
36.721
36.635
36.555
36.482
36.416
36.357
36.306
36.261
36.224
36.193
36.168
36.149
36.136
36.128
36.124
36.123
36.125
36.129
36.136
36.143
36.15
36.158
36.164
36.168
36.17
36.169
36.164
36.154
36.14
36.122
36.098
36.07
36.037
36.0
35.96
35.916
35.87
35.821
35.769
35.716
35.66
35.602
35.542
35.481
35.418
35.355
35.29
35.225
35.158
35.089
35.019
34.948
34.876
34.803
34.729
34.655
34.58
34.505
34.43
34.355
34.279
34.204
34.129
34.054
33.98
33.906
33.833
33.76
33.688
33.618
33.548
33.479
33.411
33.344
33.278
33.213
33.148
33.084
33.02
32.957
32.894
32.833
32.774
32.716
32.66
32.606
32.553
32.502
32.453
32.405
32.358
32.313
32.268
32.222
32.176
32.128
32.079
32.028
31.977
31.925
31.873
31.822
31.771
31.722
31.675
31.631
31.59
31.554
31.526
31.507
31.5
31.508
31.535
31.583
31.658
31.763
31.9
32.072
32.281
32.525
32.805
33.12
33.465
33.836
34.231
34.642
35.066
35.496
35.928
36.357
36.777
37.184
37.574
37.943
38.287
38.606
38.898
39.162
39.398
39.607
39.787
39.941
40.067
40.168
40.243
40.296
40.327
40.338
40.33
40.305
40.264
40.209
40.141
40.062
39.972
39.875
39.771
39.662
39.549
39.433
39.314
39.193
39.071
38.948
38.824
38.699
38.575
38.451
38.327
38.203
38.08
37.957
37.834
37.712
37.591
37.47
37.349
37.229
37.11
36.992
36.877
36.763
36.654
36.549
36.45
36.357
36.27
36.191
36.119
36.056
36.001
35.954
35.916
35.887
35.867
35.854
35.849
35.85
35.858
35.872
35.891
35.914
35.94
35.969
35.999
36.028
36.057
36.084
36.108
36.129
36.147
36.161
36.172
36.179
36.181
36.18
36.174
36.163
36.148
36.128
36.103
36.073
36.038
35.998
35.953
35.904
35.852
35.796
35.737
35.675
35.611
35.544
35.474
35.403
35.331
35.257
35.182
35.106
35.028
34.948
34.868
34.786
34.705
34.623
34.542
34.461
34.381
34.302
34.225
34.149
34.075
34.003
33.932
33.863
33.796
33.731
33.666
33.603
33.54
33.479
33.418
33.359
33.3
33.242
33.185
33.128
33.072
33.017
32.962
32.907
32.852
32.797
32.742
32.687
32.632
32.577
32.52
32.464
32.407
32.35
32.293
32.236
32.181
32.129
32.081
32.038
32.002
31.976
31.964
31.968
31.993
32.042
32.119
32.228
32.37
32.549
32.765
33.016
33.302
33.62
33.967
34.338
34.729
35.134
35.549
35.968
36.386
36.798
37.199
37.585
37.952
38.298
38.62
38.917
39.188
39.432
39.649
39.839
40.002
40.138
40.249
40.334
40.396
40.436
40.454
40.454
40.436
40.401
40.352
40.289
40.214
40.13
40.037
39.936
39.828
39.715
39.598
39.476
39.352
39.224
39.095
38.964
38.831
38.698
38.564
38.43
38.297
38.163
38.03
37.898
37.766
37.636
37.507
37.379
37.253
37.129
37.007
36.889
36.774
36.664
36.558
36.457
36.362
36.272
36.19
36.115
36.048
35.99
35.94
35.9
35.867
35.843
35.826
35.816
35.812
35.814
35.82
35.831
35.844
35.861
35.878
35.897
35.914
35.931
35.945
35.957
35.965
35.969
35.969
35.964
35.955
35.942
35.924
35.902
35.876
35.846
35.813
35.776
35.735
35.691
35.644
35.595
35.542
35.487
35.43
35.37
35.308
35.243
35.176
35.108
35.038
34.967
34.895
34.822
34.749
34.675
34.601
34.526
34.452
34.378
34.305
34.233
34.161
34.09
34.019
33.948
33.877
33.805
33.734
33.664
33.595
33.527
33.46
33.396
33.333
33.272
33.212
33.154
33.097
33.041
32.987
32.933
32.88
32.826
32.772
32.717
32.661
32.604
32.547
32.489
32.43
32.373
32.315
32.259
32.204
32.149
32.096
32.044
31.993
31.944
31.896
31.851
31.808
31.767
31.73
31.698
31.671
31.653
31.647
31.655
31.681
31.73
31.806
31.912
32.052
32.228
32.442
32.695
32.985
33.311
33.671
34.06
34.473
34.905
35.35
35.803
36.259
36.713
37.161
37.596
38.015
38.414
38.789
39.139
39.46
39.753
40.015
40.247
40.448
40.621
40.765
40.882
40.974
41.042
41.087
41.112
41.117
41.105
41.077
41.034
40.979
40.911
40.833
40.746
40.65
40.548
40.44
40.328
40.214
40.097
39.979
39.861
39.741
39.622
39.502
39.383
39.264
39.145
39.026
38.908
38.791
38.674
38.557
38.441
38.326
38.212
38.098
37.984
37.872
37.761
37.652
37.546
37.442
37.342
37.246
37.154
37.068
36.988
36.914
36.847
36.787
36.732
36.685
36.643
36.607
36.576
36.55
36.53
36.515
36.504
36.499
36.496
36.497
36.499
36.503
36.507
36.511
36.513
36.514
36.512
36.508
36.5
36.488
36.472
36.452
36.426
36.396
36.361
36.323
36.281
36.237
36.19
36.141
36.089
36.036
35.981
35.923
35.864
35.801
35.736
35.668
35.598
35.525
35.451
35.375
35.298
35.221
35.144
35.067
34.991
34.915
34.839
34.764
34.689
34.614
34.539
34.465
34.391
34.317
34.244
34.172
34.101
34.03
33.96
33.89
33.82
33.75
33.68
33.61
33.541
33.473
33.406
33.341
33.277
33.216
33.156
33.098
33.041
32.986
32.932
32.878
32.825
32.772
32.718
32.665
32.612
32.559
32.507
32.456
32.405
32.355
32.307
32.26
32.217
32.178
32.144
32.116
32.098
32.091
32.101
32.129
32.183
32.264
32.377
32.526
32.712
32.935
33.197
33.497
33.832
34.199
34.593
35.01
35.444
35.89
36.341
36.792
37.238
37.672
38.092
38.492
38.869
39.221
39.546
39.841
40.107
40.343
40.549
40.726
40.875
40.997
41.093
41.164
41.212
41.239
41.245
41.232
41.201
41.155
41.095
41.022
40.939
40.847
40.748
40.644
40.534
40.42
40.304
40.184
40.063
39.94
39.816
39.691
39.566
39.441
39.316
39.191
39.067
38.944
38.821
38.699
38.578
38.457
38.337
38.218
38.099
37.98
37.863
37.746
37.631
37.517
37.406
37.297
37.193
37.092
36.997
36.907
36.822
36.745
36.674
36.612
36.557
36.509
36.468
36.434
36.406
36.384
36.366
36.353
36.344
36.338
36.335
36.334
36.335
36.336
36.338
36.34
36.34
36.339
36.334
36.326
36.315
36.3
36.281
36.258
36.231
36.2
36.165
36.126
36.083
36.037
35.988
35.937
35.883
35.828
35.771
35.712
35.651
35.589
35.524
35.458
35.39
35.321
35.251
35.179
35.105
35.031
34.955
34.878
34.801
34.722
34.643
34.563
34.482
34.4
34.319
34.237
34.156
34.075
33.995
33.916
33.837
33.759
33.682
33.605
33.529
33.454
33.38
33.308
33.237
33.167
33.1
33.035
32.973
32.913
32.856
32.802
32.749
32.699
32.65
32.603
32.556
32.51
32.463
32.417
32.37
32.322
32.273
32.223
32.171
32.119
32.067
32.014
31.962
31.91
31.859
31.809
31.762
31.72
31.684
31.657
31.642
31.643
31.661
31.703
31.772
31.872
32.006
32.177
32.386
32.634
32.92
33.243
33.6
33.985
34.395
34.825
35.268
35.719
36.171
36.618
37.057
37.482
37.89
38.277
38.642
38.982
39.296
39.584
39.843
40.075
40.279
40.454
40.603
40.725
40.821
40.893
40.941
40.968
40.975
40.963
40.933
40.888
40.828
40.754
40.668
40.572
40.466
40.353
40.233
40.109
39.98
39.85
39.717
39.583
39.447
39.311
39.175
39.038
38.902
38.767
38.632
38.497
38.364
38.231
38.098
37.967
37.836
37.706
37.576
37.448
37.32
37.194
37.071
36.951
36.836
36.727
36.625
36.531
36.445
36.368
36.299
36.24
36.189
36.148
36.115
36.091
36.075
36.067
36.065
36.07
36.079
36.093
36.109
36.128
36.149
36.169
36.189
36.208
36.224
36.239
36.25
36.258
36.262
36.263
36.259
36.252
36.24
36.224
36.203
36.178
36.148
36.113
36.074
36.03
35.982
35.93
35.874
35.814
35.75
35.683
35.614
35.543
35.471
35.397
35.322
35.248
35.173
35.099
35.025
34.951
34.877
34.802
34.727
34.65
34.574
34.496
34.419
34.341
34.264
34.187
34.111
34.035
33.961
33.888
33.817
33.747
33.679
33.613
33.547
33.483
33.419
33.357
33.296
33.236
33.177
33.119
33.063
33.007
32.952
32.897
32.842
32.788
32.733
32.679
32.624
32.57
32.516
32.461
32.407
32.353
32.3
32.249
32.201
32.157
32.121
32.093
32.079
32.081
32.105
32.153
32.231
32.341
32.488
32.672
32.895
33.156
33.455
33.789
34.154
34.545
34.956
35.383
35.819
36.258
36.696
37.126
37.543
37.944
38.326
38.684
39.017
39.323
39.601
39.85
40.069
40.259
40.419
40.552
40.658
40.738
40.793
40.826
40.837
40.828
40.801
40.757
40.698
40.624
40.538
40.441
40.334
40.22
40.099
39.973
39.844
39.711
39.576
39.439
39.3
39.161
39.022
38.883
38.743
38.604
38.465
38.325
38.186
38.046
37.906
37.766
37.625
37.484
37.344
37.204
37.066
36.93
36.798
36.671
36.549
36.435
36.328
36.229
36.14
36.06
35.991
35.932
35.883
35.844
35.816
35.797
35.787
35.785
35.791
35.802
35.818
35.836
35.857
35.879
35.901
35.922
35.942
35.959
35.974
35.986
35.994
35.998
35.998
35.994
35.985
35.972
35.955
35.933
35.907
35.877
35.842
35.803
35.761
35.714
35.665
35.611
35.554
35.494
35.431
35.365
35.295
35.223
35.148
35.071
34.993
34.913
34.833
34.753
34.673
34.594
34.514
34.435
34.357
34.278
34.2
34.123
34.045
33.969
33.894
33.82
33.747
33.675
33.604
33.534
33.464
33.396
33.328
33.262
33.197
33.133
33.071
33.01
32.95
32.892
32.835
32.779
32.724
32.67
32.616
32.563
32.51
32.458
32.406
32.354
32.302
32.25
32.196
32.141
32.086
32.031
31.976
31.923
31.873
31.828
31.788
31.756
31.735
31.728
31.738
31.772
31.831
31.921
32.045
32.206
32.405
32.644
32.922
33.238
33.59
33.972
34.383
34.815
35.264
35.725
36.191
36.657
37.118
37.569
38.006
38.425
38.822
39.195
39.541
39.858
40.145
40.401
40.626
40.82
40.984
41.119
41.226
41.306
41.361
41.393
41.403
41.394
41.366
41.322
41.264
41.193
41.112
41.021
40.922
40.816
40.705
40.588
40.467
40.343
40.217
40.089
39.96
39.831
39.701
39.572
39.443
39.315
39.188
39.062
38.937
38.813
38.689
38.566
38.443
38.32
38.198
38.076
37.955
37.835
37.717
37.601
37.489
37.38
37.276
37.176
37.083
36.996
36.916
36.843
36.777
36.718
36.665
36.619
36.579
36.545
36.516
36.492
36.473
36.458
36.447
36.44
36.435
36.433
36.433
36.433
36.434
36.434
36.431
36.426
36.417
36.405
36.388
36.368
36.344
36.316
36.284
36.248
36.209
36.165
36.117
36.066
36.011
35.953
35.892
35.828
35.762
35.692
35.621
35.547
35.471
35.393
35.313
35.233
35.152
35.069
34.987
34.904
34.822
34.739
34.657
34.576
34.495
34.414
34.334
34.255
34.177
34.1
34.024
33.949
33.875
33.803
33.731
33.661
33.591
33.523
33.456
33.39
33.324
33.259
33.193
33.129
33.064
33.0
32.937
32.875
32.814
32.755
32.698
32.643
32.589
32.537
32.487
32.437
32.389
32.341
32.294
32.247
32.199
32.151
32.102
32.052
32.002
31.953
31.904
31.859
31.818
31.784
31.761
31.752
31.761
31.791
31.848
31.935
32.056
32.213
32.408
32.643
32.916
33.227
33.574
33.952
34.358
34.786
35.231
35.686
36.145
36.604
37.057
37.498
37.924
38.33
38.714
39.071
39.401
39.701
39.97
40.209
40.417
40.594
40.741
40.86
40.952
41.018
41.06
41.081
41.081
41.063
41.027
40.977
40.912
40.836
40.749
40.652
40.548
40.437
40.321
40.2
40.077
39.95
39.823
39.694
39.566
39.438
39.312
39.188
39.064
38.942
38.821
38.701
38.581
38.46
38.339
38.218
38.095
37.97
37.845
37.718
37.592
37.465
37.341
37.218
37.099
36.983
36.872
36.767
36.667
36.575
36.489
36.41
36.338
36.272
36.213
36.16
36.113
36.073
36.038
36.01
35.987
35.968
35.953
35.941
35.93
35.921
35.914
35.906
35.899
35.892
35.884
35.875
35.864
35.851
35.836
35.817
35.795
35.769
35.739
35.705
35.668
35.627
35.581
35.532
35.479
35.422
35.362
35.297
35.23
35.159
35.086
35.011
34.935
34.858
34.78
34.701
34.622
34.541
34.46
34.379
34.298
34.217
34.136
34.057
33.977
33.899
33.82
33.743
33.666
33.589
33.512
33.435
33.359
33.282
33.204
33.126
33.049
32.972
32.896
32.822
32.749
32.678
32.609
32.54
32.474
32.409
32.346
32.285
32.226
32.168
32.112
32.057
32.003
31.949
31.897
31.845
31.793
31.742
31.691
31.64
31.589
31.539
31.49
31.441
31.393
31.346
31.3
31.256
31.213
31.171
31.133
31.098
31.07
31.049
31.04
31.045
31.07
31.117
31.191
31.297
31.436
31.612
31.826
32.077
32.364
32.685
33.036
33.412
33.81
34.222
34.642
35.066
35.487
35.9
36.3
36.684
37.048
37.388
37.703
37.991
38.25
38.48
38.681
38.853
38.996
39.112
39.203
39.269
39.312
39.335
39.338
39.323
39.292
39.246
39.186
39.113
39.03
38.936
38.835
38.726
38.611
38.492
38.368
38.241
38.113
37.984
37.855
37.725
37.597
37.47
37.344
37.219
37.096
36.974
36.853
36.733
36.615
36.496
36.378
36.26
36.143
36.025
35.909
35.794
35.682
35.573
35.468
35.367
35.271
35.181
35.096
35.018
34.947
34.884
34.828
34.781
34.741
34.709
34.685
34.667
34.655
34.648
34.647
34.649
34.655
34.663
34.672
34.683
34.693
34.704
34.713
34.721
34.727
34.729
34.728
34.723
34.714
34.7
34.682
34.661
34.634
34.603
34.567
34.527
34.484
34.437
34.386
34.334
34.279
34.222
34.163
34.102
34.04
33.976
33.911
33.844
33.777
33.708
33.638
33.568
33.498
33.428
33.358
33.288
33.218
33.148
33.078
33.009
32.94
32.871
32.802
32.734
32.666
32.599
32.532
32.467
32.402
32.34
32.279
32.22
32.162
32.107
32.052
31.999
31.946
31.895
31.844
31.793
31.744
31.694
31.644
31.595
31.546
31.497
31.449
31.4
31.351
31.303
31.254
31.204
31.155
31.106
31.057
31.01
30.965
30.921
30.88
30.842
30.81
30.784
30.769
30.768
30.783
30.819
30.879
30.967
31.085
31.235
31.417
31.633
31.88
32.155
32.457
32.78
33.121
33.473
33.832
34.194
34.553
