Trial 1:0back
40.978
40.876
40.776
40.677
40.579
40.48
40.38
40.279
40.176
40.07
39.962
39.851
39.738
39.624
39.51
39.396
39.282
39.17
39.062
38.958
38.859
38.768
38.686
38.615
38.554
38.506
38.468
38.442
38.424
38.415
38.41
38.41
38.411
38.413
38.413
38.41
38.402
38.388
38.368
38.341
38.308
38.267
38.22
38.167
38.107
38.042
37.971
37.896
37.816
37.734
37.649
37.562
37.474
37.384
37.292
37.197
37.099
36.998
36.894
36.788
36.68
36.571
36.462
36.352
36.243
36.136
36.029
35.924
35.819
35.715
35.611
35.508
35.405
35.303
35.203
35.105
35.009
34.915
34.824
34.736
34.65
34.567
34.485
34.406
34.329
34.255
34.183
34.114
34.046
33.98
33.914
33.85
33.787
33.726
33.668
33.613
33.56
33.507
33.455
33.404
33.352
33.3
33.248
33.196
33.144
33.092
33.039
32.987
32.934
32.883
32.834
32.787
32.743
32.703
32.665
32.63
32.599
32.571
32.546
32.523
32.502
32.483
32.463
32.444
32.423
32.401
32.378
32.355
32.33
32.305
32.279
32.253
32.226
32.199
32.17
32.141
32.111
32.081
32.049
32.019
31.989
31.961
31.934
31.909
31.885
31.86
31.835
31.81
31.783
31.757
31.732
31.707
31.684
31.662
31.642
31.624
31.606
31.588
31.571
31.553
31.534
31.515
31.495
31.476
31.456
31.437
31.417
31.396
31.375
31.353
31.331
31.308
31.286
31.265
31.247
31.233
31.228
31.234
31.256
31.299
31.369
31.474
31.62
31.818
32.076
32.404
32.806
33.285
33.841
34.47
35.163
35.909
36.694
37.504
38.321
39.13
39.916
40.665
41.366
42.009
42.587
43.096
43.532
43.896
44.188
44.413
44.574
44.677
44.727
44.729
44.69
44.616
44.511
44.383
44.236
44.075
43.903
43.723
43.539
43.352
43.167
42.983
42.804
42.629
42.46
42.297
42.14
41.989
41.845
41.706
41.573
41.445
41.322
41.205
41.091
40.981
40.872
40.765
40.659
40.552
40.443
40.333
40.219
40.101
39.978
39.85
39.718
39.582
39.443
39.302
39.162
39.025
38.893
38.768
38.652
38.545
38.448
38.363
38.29
38.226
38.172
38.126
38.088
38.055
38.028
38.006
37.99
37.98
37.974
37.972
37.972
37.974
37.976
37.976
37.973
37.966
37.952
37.929
37.897
37.855
37.803
37.743
37.675
37.6
37.521
37.438
37.352
37.263
37.171
37.078
36.983
36.886
36.787
36.685
36.579
36.469
36.355
36.238
36.12
36.002
35.884
35.768
35.652
35.538
35.426
35.315
35.205
35.096
34.987
34.88
34.774
34.669
34.565
34.462
34.361
34.263
34.167
34.074
33.985
33.9
33.818
33.739
33.663
33.589
33.518
33.449
33.381
33.316
33.254
33.194
33.138
33.084
33.031
32.98
32.929
32.877
32.825
32.771
32.717
32.665
32.614
32.565
32.521
32.48
32.442
32.406
32.372
32.338
32.305
32.272
32.24
32.21
32.18
32.152
32.124
32.096
32.067
32.036
32.004
31.971
31.937
31.903
31.868
31.834
31.8
31.767
31.734
31.703
31.674
31.646
31.619
31.595
31.571
31.549
31.527
31.507
31.487
31.469
31.451
31.435
31.419
31.404
31.388
31.371
31.353
31.333
31.312
31.29
31.269
31.249
31.231
31.214
31.198
31.183
31.166
31.147
31.126
31.103
31.079
31.055
31.03
31.005
30.98
30.954
30.927
30.899
30.871
30.841
30.811
30.779
30.749
30.72
30.695
30.675
30.663
30.662
30.675
30.708
30.767
30.86
30.994
31.179
31.424
31.737
32.124
32.591
33.136
33.757
34.445
35.192
35.983
36.802
37.633
38.46
39.265
40.035
40.757
41.419
42.013
42.535
42.981
43.351
43.646
43.869
44.025
44.121
44.161
44.153
44.103
44.018
43.904
43.767
43.611
43.442
43.263
43.078
42.889
42.697
42.505
42.313
42.121
41.93
41.74
41.552
41.365
41.182
41.0
40.821
40.646
40.474
40.306
40.144
39.986
39.834
39.689
39.549
39.415
39.287
39.164
39.045
38.928
38.813
38.698
38.583
38.468
38.353
38.239
38.125
38.011
37.9
37.791
37.688
37.592
37.505
37.428
37.363
37.31
37.269
37.241
37.223
37.216
37.219
37.23
37.249
37.274
37.303
37.334
37.366
37.396
37.422
37.444
37.459
37.467
37.467
37.458
37.44
37.414
37.38
37.338
37.288
37.229
37.162
37.089
37.009
36.924
36.834
36.738
36.638
36.533
36.426
36.316
36.204
36.092
35.977
35.863
35.746
35.629
35.512
35.394
35.276
35.158
35.042
34.927
34.814
34.705
34.598
34.497
34.399
34.304
34.212
34.122
34.031
33.941
33.851
33.762
33.674
33.589
33.505
33.425
33.346
33.268
33.191
33.114
33.038
32.963
32.891
32.822
32.756
32.694
32.636
32.58
32.528
32.479
32.433
32.389
32.349
32.31
32.273
32.237
32.202
32.169
32.138
32.108
32.08
32.055
32.031
32.008
31.986
31.964
31.94
31.917
31.893
31.87
31.848
31.827
31.807
31.786
31.763
31.739
31.714
31.687
31.661
31.634
31.61
31.588
31.569
31.552
31.536
31.52
31.506
31.492
31.481
31.471
31.465
31.461
31.459
31.457
31.453
31.446
31.436
31.423
31.406
31.385
31.362
31.338
31.313
31.289
31.266
31.244
31.224
31.203
31.182
31.161
31.139
31.116
31.093
31.071
31.051
31.038
31.034
31.043
31.071
31.123
31.204
31.323
31.487
31.706
31.988
32.341
32.77
33.276
33.857
34.507
35.217
35.974
36.765
37.575
38.387
39.184
39.951
40.676
41.347
41.957
42.498
42.966
43.359
43.679
43.926
44.104
44.22
44.278
44.286
44.25
44.177
44.075
43.949
43.804
43.647
43.48
43.307
43.13
42.95
42.77
42.588
42.407
42.225
42.043
41.861
41.681
41.502
41.325
41.15
40.98
40.815
40.655
40.501
40.353
40.213
40.081
39.955
39.837
39.724
39.614
39.507
39.4
39.293
39.183
39.07
38.954
38.835
38.711
38.585
38.458
38.33
38.203
38.079
37.96
37.846
37.74
37.643
37.556
37.481
37.418
37.368
37.331
37.308
37.296
37.296
37.303
37.316
37.331
37.346
37.359
37.368
37.371
37.369
37.359
37.343
37.321
37.293
37.259
37.22
37.175
37.124
37.067
37.002
36.931
36.853
36.769
36.68
36.586
36.488
36.385
36.279
36.17
36.06
35.948
35.835
35.722
35.608
35.494
35.379
35.264
35.148
35.032
34.916
34.802
34.689
34.577
34.467
34.358
34.251
34.145
34.039
33.934
33.828
33.724
33.622
33.521
33.423
33.329
33.237
33.148
33.062
32.979
32.897
32.819
32.743
32.67
32.599
32.532
32.466
32.403
32.342
32.284
32.228
32.174
32.123
32.074
32.027
31.981
31.936
31.892
31.849
31.809
31.771
31.737
31.706
31.678
31.651
31.627
31.604
31.581
31.559
31.537
31.515
31.494
31.474
31.453
31.432
31.411
31.389
31.366
31.342
31.317
31.291
31.264
31.237
31.21
31.184
31.158
31.133
31.109
31.086
31.064
31.043
31.021
30.998
30.973
30.947
30.922
30.897
30.874
30.853
30.834
30.817
30.802
30.789
30.778
30.767
30.758
30.749
30.74
30.731
30.722
30.712
30.701
30.689
30.674
30.658
30.639
30.618
30.597
30.576
30.555
30.534
30.513
30.494
30.477
30.464
30.458
30.464
30.486
30.529
30.599
30.701
30.844
31.035
31.283
31.597
31.986
32.453
33.001
33.627
34.324
35.081
35.887
36.726
37.582
38.439
39.279
40.087
40.85
41.556
42.197
42.767
43.261
43.678
44.019
44.287
44.485
44.619
44.695
44.72
44.699
44.641
44.551
44.436
44.3
44.148
43.985
43.814
43.637
43.457
43.275
43.093
42.911
42.733
42.559
42.391
42.229
42.073
41.925
41.783
41.649
41.522
41.401
41.286
41.178
41.074
40.975
40.879
40.785
40.692
40.598
40.501
40.401
40.297
40.187
40.07
39.947
39.817
39.681
39.541
39.396
39.248
39.096
38.944
38.792
38.645
38.504
38.372
38.252
38.145
38.053
37.973
37.907
37.853
37.81
37.775
37.747
37.724
37.703
37.684
37.665
37.646
37.627
37.607
37.585
37.561
37.535
37.506
37.473
37.438
37.398
37.355
37.306
37.252
37.191
37.124
37.051
36.972
36.886
36.793
36.694
36.589
36.479
36.364
36.248
36.13
36.012
35.895
35.779
35.664
35.549
35.434
35.32
35.206
35.092
34.977
34.863
34.748
34.635
34.523
34.413
34.306
34.203
34.102
34.004
33.907
33.812
33.718
33.625
33.534
33.446
33.361
33.279
33.2
33.125
33.052
32.982
32.915
32.849
32.785
32.723
32.662
32.605
32.55
32.497
32.448
32.4
32.355
32.311
32.269
32.228
32.189
32.151
32.114
32.078
32.043
32.007
31.973
31.939
31.906
31.873
31.843
31.812
31.782
31.751
31.72
31.688
31.657
31.625
31.594
31.563
31.533
31.504
31.476
31.448
31.42
31.391
31.363
31.335
31.307
31.281
31.256
31.232
31.21
31.189
31.168
31.147
31.127
31.107
31.089
31.072
31.058
31.045
31.034
31.023
31.012
30.999
30.985
30.969
30.951
30.933
30.915
30.897
30.88
30.862
30.843
30.824
30.804
30.783
30.761
30.74
30.721
30.703
30.687
30.672
30.658
30.645
30.631
30.617
30.601
30.585
30.568
30.551
30.537
30.527
30.525
30.533
30.554
30.594
30.657
30.748
30.875
31.044
31.265
31.547
31.899
32.327
32.834
33.421
34.083
34.813
35.598
36.424
37.277
38.139
38.993
39.821
40.61
41.347
42.019
42.62
43.142
43.583
43.943
44.224
44.43
44.568
44.644
44.666
44.641
44.577
44.482
44.362
44.223
44.071
43.911
43.747
43.579
43.41
43.241
43.073
42.907
42.743
42.581
42.421
42.265
42.112
41.963
41.818
41.678
41.542
41.41
41.282
41.159
41.04
40.925
40.812
40.7
40.588
40.475
40.359
40.241
40.121
39.998
39.871
39.741
39.607
39.469
39.328
39.185
39.04
38.896
38.753
38.613
38.478
38.349
38.228
38.116
38.014
37.921
37.838
37.765
37.703
37.652
37.611
37.579
37.556
37.54
37.529
37.522
37.517
37.513
37.508
37.5
37.489
37.472
37.449
37.419
37.382
37.336
37.281
37.217
37.144
37.064
36.979
36.889
36.796
36.701
36.603
36.503
36.403
36.301
36.199
36.096
35.993
35.887
35.78
35.67
35.557
35.443
35.328
35.212
35.096
34.98
34.863
34.747
34.63
34.514
34.399
34.286
34.176
34.069
33.966
33.867
33.77
33.676
33.584
33.495
33.409
33.326
33.245
33.164
33.084
33.004
32.924
32.844
32.764
32.686
32.609
32.535
32.465
32.399
32.336
32.277
32.222
32.172
32.126
32.084
32.045
32.009
31.976
31.946
31.916
31.888
31.861
31.835
31.809
31.782
31.752
31.72
31.685
31.648
31.61
31.572
31.534
31.497
31.461
31.426
31.392
31.358
31.325
31.293
31.263
31.237
31.212
31.191
31.171
31.153
31.136
31.119
31.102
31.085
31.068
31.051
31.035
31.019
31.003
30.987
30.971
30.955
30.939
30.923
30.907
30.89
30.873
30.857
30.839
30.822
30.804
30.787
30.769
30.751
30.733
30.715
30.697
30.68
30.663
30.646
30.63
30.613
30.595
30.578
30.56
30.543
30.525
30.508
30.492
30.476
30.46
30.446
30.432
30.42
30.408
30.399
30.391
30.386
30.386
30.393
30.412
30.445
30.495
30.569
30.67
30.807
30.987
31.22
31.516
31.884
32.328
32.853
33.457
34.134
34.874
35.667
36.497
37.346
38.199
39.036
39.843
40.603
41.306
41.94
42.499
42.977
43.375
43.691
43.93
44.097
44.197
44.236
44.223
44.165
44.068
43.94
43.788
43.616
43.428
43.23
43.025
42.815
42.604
42.393
42.183
41.975
41.771
41.571
41.377
41.189
41.008
40.835
40.672
40.517
40.372
40.235
40.106
39.984
39.866
39.753
39.643
39.534
39.425
39.313
39.197
39.076
38.95
38.82
38.685
38.548
38.407
38.266
38.127
37.992
37.862
37.74
37.628
37.525
37.433
37.351
37.281
37.222
37.175
37.14
37.115
37.1
37.093
37.092
37.096
37.103
37.112
37.122
37.131
37.14
37.146
37.149
37.15
37.145
37.136
37.121
37.099
37.07
37.034
36.989
36.936
36.874
36.804
36.726
36.641
36.55
36.454
36.353
36.248
36.14
36.029
35.916
35.801
35.686
35.571
35.454
35.337
35.221
35.104
34.988
34.874
34.762
34.653
34.548
34.447
34.35
34.257
34.167
34.08
33.995
33.909
33.824
33.738
33.651
33.564
33.477
33.391
33.307
33.224
33.144
33.067
32.992
32.919
32.846
32.776
32.706
32.639
32.575
32.514
32.457
32.404
32.355
32.309
32.266
32.224
32.183
32.142
32.102
32.062
32.021
31.98
31.94
31.901
31.862
31.824
31.787
31.75
31.714
31.678
31.643
31.609
31.577
31.546
31.519
31.495
31.473
31.455
31.439
31.424
31.41
31.398
31.386
31.376
31.367
31.359
31.352
31.345
31.337
31.329
31.319
31.308
31.295
31.281
31.265
31.248
31.229
31.21
31.19
31.169
31.146
31.123
31.098
31.073
31.048
31.023
30.999
30.974
30.949
30.922
30.895
30.868
30.841
30.814
30.788
30.762
30.739
30.718
30.701
30.688
30.681
30.682
30.692
30.714
30.752
30.81
30.891
31.002
31.147
31.334
31.572
31.869
32.234
32.672
33.186
33.774
34.432
35.151
35.919
36.721
37.541
38.363
39.171
39.948
40.681
41.359
41.971
42.512
42.977
43.364
43.676
43.914
44.083
44.187
44.233
44.228
44.178
44.091
43.974
43.833
43.672
43.498
43.313
43.122
42.927
42.731
42.533
42.336
42.14
41.946
41.756
41.571
41.392
41.219
41.053
40.895
40.746
40.605
40.471
40.345
40.225
40.109
39.997
39.886
39.777
39.666
39.553
39.435
39.313
39.184
39.05
38.911
38.767
38.621
38.474
38.327
38.182
38.041
37.904
37.774
37.651
37.535
37.428
37.33
37.241
37.161
37.091
37.03
36.978
36.936
36.903
36.879
36.862
36.851
36.846
36.844
36.847
36.852
36.86
36.869
36.877
36.882
36.883
36.879
36.868
36.848
36.82
36.781
36.733
36.675
36.608
36.532
36.45
36.361
36.267
36.168
36.067
35.963
35.856
35.748
35.637
35.523
35.407
35.289
35.17
35.051
34.932
34.814
34.698
34.583
34.471
34.36
34.25
34.142
34.036
33.931
33.828
33.726
33.626
33.527
33.43
33.332
33.235
33.14
33.046
32.954
32.865
32.78
32.699
32.621
32.546
32.474
32.403
32.336
32.271
32.21
32.152
32.099
32.049
32.004
31.961
31.92
31.881
31.842
31.804
31.766
31.728
31.69
31.653
31.616
31.581
31.547
31.513
31.479
31.445
31.409
31.371
31.331
31.291
31.252
31.215
31.18
31.147
31.117
31.09
31.066
31.044
31.023
31.005
30.989
30.975
30.963
30.953
30.945
30.938
30.932
30.924
30.917
30.909
30.902
30.893
30.883
30.872
30.86
30.848
30.836
30.825
30.814
30.803
30.792
30.78
30.767
30.752
30.735
30.717
30.699
30.682
30.666
30.651
30.636
30.621
30.604
30.585
30.565
30.543
30.521
30.501
30.481
30.464
30.449
30.436
30.425
30.417
30.413
30.417
30.431
30.461
30.511
30.586
30.693
30.836
31.022
31.26
31.559
31.926
32.367
32.888
33.487
34.16
34.899
35.694
36.53
37.39
38.259
39.117
39.948
40.737
41.471
42.139
42.733
43.249
43.684
44.04
44.318
44.524
44.662
44.739
44.763
44.741
44.682
44.592
44.477
44.344
44.195
44.036
43.87
43.699
43.525
43.35
43.171
42.992
42.81
42.629
42.447
42.266
42.085
41.905
41.728
41.556
41.389
41.23
41.078
40.936
40.802
40.678
40.562
40.452
40.345
40.239
40.131
40.018
39.901
39.778
39.649
39.515
39.376
39.233
39.088
38.943
38.799
38.657
38.519
38.386
38.26
38.14
38.028
37.924
37.828
37.742
37.666
37.598
37.539
37.489
37.447
37.412
37.383
37.357
37.334
37.312
37.29
37.267
37.244
37.221
37.198
37.173
37.148
37.12
37.09
37.056
37.018
36.974
36.923
36.863
36.794
36.716
36.629
36.534
36.433
36.327
36.217
36.105
35.992
35.879
35.766
35.653
35.541
35.429
35.317
35.205
35.092
34.979
34.866
34.752
34.638
34.524
34.409
34.294
34.181
34.069
33.959
33.853
33.751
33.652
33.557
33.464
33.372
33.281
33.191
33.102
33.013
32.927
32.844
32.764
32.688
32.615
32.545
32.477
32.41
32.343
32.278
32.216
32.156
32.099
32.047
31.999
31.955
31.914
31.873
31.829
31.78
31.727
31.671
31.614
31.56
31.508
31.462
31.42
31.383
31.35
31.32
31.294
31.271
31.251
31.234
31.219
31.206
31.194
31.182
31.17
31.157
31.143
31.127
31.11
31.092
31.073
31.054
31.035
31.016
30.997
30.977
30.959
30.94
30.921
30.902
30.883
30.863
30.842
30.82
30.799
30.779
30.76
30.741
30.724
30.706
30.689
30.67
30.652
30.634
30.616
30.599
30.583
30.569
30.555
30.541
30.527
30.513
30.498
30.482
30.467
30.452
30.439
30.427
30.417
30.407
30.397
30.387
30.377
30.366
30.354
30.344
30.335
30.328
30.327
30.332
30.346
30.373
30.417
30.482
30.575
30.701
30.867
31.082
31.354
31.693
32.106
32.598
33.171
33.821
34.541
35.322
36.151
37.011
37.886
38.758
39.609
40.424
41.187
41.888
42.517
43.07
43.542
43.932
44.242
44.474
44.635
44.73
44.766
44.749
44.685
44.584
44.45
44.291
44.112
43.919
43.715
43.506
43.294
43.081
42.87
42.663
42.46
42.263
42.072
41.886
41.707
41.534
41.367
41.205
41.047
40.894
40.743
40.593
40.445
40.298
40.153
40.008
39.865
39.723
39.583
39.444
39.307
39.172
39.039
38.908
38.777
38.646
38.516
38.385
38.255
38.128
38.003
37.884
37.769
37.662
37.561
37.47
37.389
37.318
37.259
37.211
37.174
37.146
37.127
37.115
37.11
37.11
37.115
37.121
37.129
37.136
37.14
37.141
37.137
37.126
37.108
37.082
37.048
37.007
36.96
36.907
36.85
36.789
36.724
36.655
36.583
36.506
36.424
36.336
36.243
36.143
36.039
35.932
35.821
35.709
35.596
35.485
35.374
35.265
35.156
35.048
34.94
34.834
34.73
34.628
34.528
34.429
34.331
34.233
34.134
34.035
33.937
33.838
33.741
33.646
33.552
33.461
33.373
33.286
33.202
33.121
33.042
32.968
32.897
32.829
32.766
32.705
32.647
32.589
32.531
32.472
32.412
32.352
32.291
32.232
32.174
32.118
32.064
32.013
31.965
31.919
31.874
31.832
31.792
31.754
31.718
31.687
31.659
31.636
31.617
31.602
31.589
31.578
31.566
31.553
31.538
31.522
31.505
31.487
31.469
31.45
31.432
31.415
31.397
31.38
31.362
31.344
31.326
31.309
31.292
31.276
31.261
31.247
31.233
31.219
31.205
31.189
31.172
31.153
31.133
31.112
31.091
31.07
31.05
31.032
31.015
30.999
30.983
30.966
30.948
30.929
30.908
30.887
30.866
30.846
30.829
30.817
30.808
30.803
30.8
30.8
30.804
30.815
30.836
30.872
30.927
31.009
31.124
31.281
31.488
31.754
32.086
32.493
32.977
33.539
34.175
34.879
35.639
36.441
37.269
38.107
38.938
39.745
40.515
41.232
41.888
42.473
42.982
43.412
43.763
44.037
44.238
44.37
44.44
44.454
44.42
44.345
44.234
44.096
43.934
43.756
43.565
43.364
43.156
42.943
42.726
42.507
42.287
42.068
41.85
41.635
41.423
41.216
41.015
40.821
40.633
40.454
40.284
40.123
39.971
39.828
39.691
39.56
39.433
39.308
39.183
39.057
38.929
38.797
38.661
38.52
38.376
38.229
38.08
37.931
37.785
37.643
37.506
37.375
37.253
37.14
37.038
36.947
36.868
36.801
36.745
36.7
36.665
36.64
36.623
36.612
36.608
36.607
36.61
36.614
36.619
36.625
36.63
36.634
36.636
36.634
36.63
36.622
36.61
36.592
36.565
36.529
36.483
36.427
36.361
36.286
36.204
36.114
36.017
35.915
35.81
35.701
35.59
35.477
35.362
35.246
35.129
35.01
34.891
34.771
34.651
34.531
34.412
34.295
34.181
34.071
33.964
33.86
33.759
33.661
33.564
33.469
33.375
33.282
33.19
33.1
33.012
32.925
32.841
32.759
32.681
32.606
32.533
32.462
32.393
32.324
32.256
32.188
32.122
32.057
31.994
31.933
31.875
31.818
31.762
31.707
31.654
31.602
31.554
31.51
31.471
31.436
31.406
31.379
31.354
31.33
31.307
31.285
31.263
31.241
31.221
31.202
31.184
31.166
31.148
31.13
31.11
31.089
31.067
31.045
31.023
31.002
30.981
30.961
30.943
30.925
30.909
30.894
30.88
30.868
30.855
30.843
30.83
30.817
30.803
30.79
30.777
30.766
30.756
30.748
30.741
30.735
30.728
30.721
30.713
30.704
30.693
30.682
30.67
30.66
30.649
30.638
30.626
30.612
30.598
30.582
30.566
30.551
30.536
30.521
30.508
30.496
30.485
30.478
30.475
30.48
30.496
30.527
30.577
30.651
30.755
30.895
31.079
31.317
31.617
31.989
32.439
32.971
33.584
34.274
35.032
35.846
36.703
37.583
38.471
39.349
40.2
41.009
41.762
42.449
43.062
43.593
44.042
44.407
44.69
44.896
45.03
45.099
45.11
45.072
44.993
44.879
44.738
44.576
44.401
44.216
44.025
43.833
43.639
43.447
43.256
43.068
42.883
42.701
42.524
42.349
42.177
42.009
41.844
41.684
41.527
