Trial 1:0back
36.292
36.475
36.655
36.829
36.995
37.15
37.293
37.422
37.537
37.637
37.721
37.79
37.844
37.883
37.907
37.919
37.918
37.907
37.886
37.856
37.818
37.774
37.723
37.668
37.609
37.547
37.484
37.419
37.354
37.289
37.223
37.159
37.095
37.032
36.969
36.908
36.847
36.786
36.726
36.667
36.609
36.553
36.498
36.444
36.393
36.343
36.294
36.247
36.202
36.158
36.116
36.075
36.036
35.999
35.965
35.932
35.902
35.874
35.85
35.829
35.813
35.8
35.793
35.79
35.791
35.797
35.807
35.819
35.834
35.851
35.869
35.888
35.906
35.923
35.938
35.951
35.962
35.97
35.976
35.979
35.98
35.979
35.976
35.971
35.964
35.955
35.945
35.933
35.919
35.903
35.886
35.867
35.846
35.825
35.802
35.777
35.752
35.725
35.697
35.667
35.636
35.604
35.57
35.536
35.501
35.466
35.431
35.395
35.361
35.326
35.293
35.26
35.228
35.196
35.164
35.133
35.101
35.069
35.038
35.007
34.975
34.945
34.914
34.885
34.857
34.831
34.805
34.781
34.757
34.734
34.712
34.69
34.668
34.646
34.623
34.6
34.578
34.555
34.534
34.514
34.496
34.482
34.473
34.471
34.478
34.496
34.528
34.576
34.642
34.726
34.829
34.951
35.09
35.245
35.413
35.592
35.778
35.969
36.162
36.354
36.542
36.724
36.898
37.062
37.214
37.352
37.477
37.586
37.679
37.756
37.817
37.863
37.893
37.909
37.912
37.903
37.883
37.855
37.819
37.777
37.729
37.677
37.621
37.562
37.502
37.44
37.377
37.314
37.252
37.191
37.131
37.072
37.015
36.959
36.904
36.848
36.793
36.736
36.68
36.622
36.564
36.506
36.449
36.392
36.337
36.284
36.233
36.185
36.139
36.096
36.055
36.015
35.977
35.942
35.909
35.879
35.852
35.829
35.811
35.797
35.787
35.782
35.782
35.786
35.795
35.808
35.823
35.841
35.86
35.88
35.901
35.922
35.943
35.962
35.98
35.996
36.009
36.02
36.028
36.033
36.035
36.034
36.03
36.024
36.016
36.006
35.994
35.98
35.965
35.948
35.93
35.909
35.886
35.861
35.833
35.804
35.774
35.744
35.713
35.683
35.653
35.624
35.596
35.567
35.538
35.509
35.479
35.449
35.418
35.385
35.352
35.318
35.283
35.248
35.213
35.179
35.145
35.111
35.078
35.045
35.012
34.98
34.948
34.917
34.886
34.856
34.826
34.798
34.771
34.744
34.719
34.694
34.669
34.644
34.619
34.593
34.567
34.539
34.512
34.485
34.459
34.435
34.414
34.398
34.39
34.392
34.405
34.433
34.476
34.538
34.619
34.719
34.839
34.978
35.134
35.306
35.491
35.686
35.889
36.097
36.305
36.511
36.712
36.903
37.084
37.251
37.403
37.54
37.659
37.762
37.848
37.917
37.971
38.01
38.034
38.047
38.048
38.039
38.021
37.996
37.964
37.927
37.885
37.839
37.789
37.737
37.682
37.626
37.568
37.509
37.449
37.389
37.328
37.266
37.204
37.141
37.079
37.016
36.954
36.893
36.832
36.773
36.714
36.657
36.601
36.547
36.495
36.445
36.397
36.35
36.305
36.262
36.222
36.184
36.149
36.117
36.089
36.065
36.045
36.029
36.018
36.01
36.007
36.008
36.013
36.022
36.035
36.05
36.067
36.086
36.106
36.127
36.148
36.168
36.187
36.205
36.22
36.233
36.244
36.252
36.258
36.261
36.261
36.259
36.254
36.247
36.237
36.224
36.209
36.192
36.173
36.151
36.128
36.103
36.075
36.046
36.014
35.981
35.947
35.913
35.877
35.841
35.805
35.768
35.73
35.693
35.655
35.616
35.578
35.539
35.501
35.463
35.425
35.388
35.352
35.317
35.283
35.25
35.217
35.186
35.153
35.121
35.089
35.056
35.024
34.993
34.963
34.934
34.905
34.878
34.85
34.823
34.796
34.769
34.743
34.717
34.69
34.664
34.639
34.613
34.587
34.561
34.535
34.509
34.482
34.457
34.432
34.408
34.387
34.371
34.36
34.358
34.368
34.392
34.432
34.492
34.571
34.672
34.794
34.937
35.099
35.278
35.473
35.68
35.897
36.121
36.349
36.577
36.803
37.023
37.235
37.438
37.628
37.804
37.966
38.113
38.243
38.358
38.456
38.54
38.607
38.66
38.698
38.722
38.734
38.733
38.722
38.701
38.672
38.636
38.594
38.546
38.495
38.44
38.382
38.322
38.26
38.196
38.132
38.067
38.002
37.937
37.872
37.808
37.746
37.687
37.63
37.576
37.524
37.475
37.427
37.381
37.336
37.29
37.245
37.199
37.152
37.105
37.057
37.009
36.962
36.915
36.871
36.828
36.79
36.755
36.725
36.699
36.678
36.661
36.648
36.64
36.637
36.638
36.643
36.652
36.663
36.677
36.693
36.71
36.727
36.745
36.762
36.778
36.792
36.804
36.814
36.821
36.825
36.827
36.827
36.823
36.818
36.81
36.799
36.785
36.768
36.747
36.724
36.697
36.668
36.636
36.602
36.565
36.527
36.487
36.447
36.406
36.365
36.323
36.282
36.242
36.201
36.161
36.12
36.08
36.039
35.998
35.956
35.914
35.871
35.828
35.784
35.741
35.697
35.655
35.613
35.573
35.534
35.496
35.459
35.422
35.387
35.351
35.316
35.28
35.244
35.207
35.17
35.133
35.097
35.06
35.025
34.989
34.954
34.92
34.886
34.853
34.822
34.792
34.764
34.737
34.712
34.687
34.663
34.638
34.614
34.589
34.565
34.543
34.523
34.509
34.501
34.503
34.517
34.545
34.59
34.654
34.739
34.844
34.972
35.122
35.292
35.481
35.687
35.908
36.141
36.382
36.63
36.879
37.128
37.373
37.61
37.838
38.054
38.256
38.443
38.613
38.765
38.899
39.013
39.109
39.186
39.245
39.288
39.316
39.329
39.33
39.32
39.301
39.274
39.239
39.199
39.153
39.103
39.049
38.993
38.935
38.875
38.815
38.754
38.693
38.633
38.573
38.513
38.453
38.395
38.338
38.282
38.227
38.174
38.121
38.069
38.017
37.965
37.913
37.861
37.81
37.76
37.709
37.66
37.61
37.561
37.513
37.466
37.421
37.378
37.337
37.3
37.266
37.235
37.209
37.186
37.168
37.154
37.144
37.139
37.137
37.138
37.141
37.147
37.156
37.165
37.176
37.187
37.198
37.209
37.219
37.228
37.235
37.24
37.242
37.241
37.236
37.228
37.217
37.202
37.184
37.163
37.139
37.113
37.084
37.053
37.02
36.984
36.947
36.907
36.866
36.823
36.779
36.734
36.688
36.64
36.593
36.545
36.496
36.448
36.4
36.353
36.306
36.259
36.213
36.167
36.122
36.076
36.031
35.986
35.942
35.898
35.854
35.811
35.769
35.726
35.683
35.639
35.596
35.553
35.51
35.467
35.426
35.385
35.345
35.306
35.267
35.229
35.192
35.155
35.12
35.085
35.05
35.015
34.98
34.944
34.907
34.869
34.83
34.79
34.751
34.712
34.675
34.641
34.612
34.589
34.575
34.572
34.583
34.61
34.656
34.722
34.81
34.922
35.057
35.216
35.397
35.597
35.816
36.049
36.294
36.548
36.807
37.068
37.328
37.583
37.829
38.064
38.286
38.493
38.683
38.855
39.009
39.144
39.261
39.359
39.44
39.503
39.549
39.579
39.594
39.596
39.584
39.561
39.528
39.486
39.437
39.382
39.322
39.258
39.191
39.122
39.053
38.983
38.913
38.843
38.774
38.706
38.638
38.571
38.503
38.436
38.37
38.304
38.238
38.173
38.108
38.044
37.981
37.919
37.858
37.798
37.74
37.683
37.627
37.572
37.519
37.467
37.418
37.37
37.324
37.281
37.241
37.205
37.172
37.143
37.118
37.097
37.08
37.067
37.057
37.052
37.05
37.052
37.057
37.064
37.073
37.083
37.094
37.105
37.115
37.123
37.131
37.137
37.141
37.143
37.143
37.141
37.135
37.127
37.115
37.099
37.08
37.056
37.029
36.998
36.963
36.925
36.884
36.84
36.794
36.746
36.697
36.647
36.597
36.547
36.498
36.449
36.4
36.351
36.302
36.251
36.2
36.15
36.099
36.049
35.999
35.949
35.901
35.853
35.806
35.759
35.711
35.664
35.616
35.567
35.518
35.468
35.417
35.366
35.315
35.264
35.215
35.166
35.119
35.073
35.028
34.984
34.941
34.899
34.859
34.819
34.78
34.742
34.705
34.669
34.632
34.596
34.559
34.523
34.485
34.447
34.409
34.372
34.337
34.305
34.277
34.255
34.242
34.24
34.25
34.276
34.319
34.382
34.466
34.574
34.706
34.862
35.04
35.24
35.46
35.697
35.948
36.21
36.479
36.752
37.026
37.296
37.558
37.81
38.049
38.272
38.477
38.663
38.827
38.971
39.093
39.195
39.276
39.338
39.382
39.409
39.419
39.415
39.398
39.369
39.33
39.282
39.225
39.162
39.094
39.021
38.945
38.867
38.788
38.709
38.63
38.552
38.476
38.402
38.329
38.257
38.187
38.118
38.049
37.98
37.912
37.844
37.775
37.706
37.636
37.567
37.497
37.428
37.359
37.291
37.224
37.159
37.095
37.034
36.975
36.918
36.865
36.816
36.772
36.731
36.696
36.666
36.64
36.62
36.605
36.595
36.589
36.586
36.588
36.592
36.599
36.608
36.619
36.63
36.642
36.654
36.666
36.677
36.688
36.697
36.705
36.709
36.711
36.709
36.703
36.692
36.677
36.657
36.632
36.603
36.571
36.535
36.497
36.456
36.414
36.37
36.326
36.28
36.234
36.187
36.139
36.09
36.041
35.991
35.94
35.888
35.835
35.781
35.727
35.673
35.618
35.564
35.51
35.457
35.405
35.353
35.301
35.251
35.201
35.152
35.104
35.057
35.01
34.964
34.918
34.873
34.828
34.783
34.739
34.695
34.651
34.607
34.562
34.519
34.475
34.433
34.391
34.35
34.31
34.27
34.231
34.192
34.154
34.116
34.079
34.042
34.005
33.968
33.931
33.896
33.862
33.831
33.803
33.781
33.767
33.762
33.77
33.794
33.835
33.898
33.983
34.092
34.225
34.383
34.564
34.768
34.993
35.237
35.495
35.765
36.043
36.325
36.608
36.887
37.159
37.421
37.67
37.903
38.118
38.312
38.486
38.638
38.768
38.877
38.964
39.032
39.08
39.111
39.124
39.123
39.108
39.081
39.043
38.996
38.94
38.878
38.811
38.74
38.665
38.587
38.508
38.426
38.343
38.259
38.173
38.088
38.003
37.919
37.836
37.754
37.674
37.595
37.518
37.442
37.367
37.293
37.219
37.146
37.073
37.001
36.929
36.857
36.787
36.718
36.651
36.586
36.524
36.467
36.414
36.367
36.325
36.291
36.263
36.242
36.228
36.221
36.22
36.224
36.232
36.244
36.258
36.273
36.29
36.307
36.324
36.34
36.355
36.37
36.383
36.395
36.404
36.411
36.414
36.413
36.408
36.399
36.386
36.37
36.351
36.329
36.306
36.28
36.252
36.222
36.191
36.157
36.121
36.082
36.041
35.996
35.949
35.899
35.847
35.792
35.737
35.68
35.623
35.566
35.51
35.454
35.399
35.343
35.287
35.23
35.174
35.118
35.063
35.009
34.955
34.903
34.851
34.801
34.751
34.702
34.654
34.607
34.56
34.514
34.469
34.424
34.379
34.334
34.288
34.243
34.198
34.153
34.109
34.065
34.022
33.982
33.942
33.903
33.865
33.828
33.792
33.755
33.719
33.682
33.644
33.607
33.57
33.534
33.498
33.465
33.434
33.407
33.385
33.371
33.367
33.376
33.399
33.439
33.499
33.581
33.686
33.816
33.971
34.151
34.354
34.579
34.824
35.085
35.359
35.643
35.933
36.225
36.514
36.798
37.074
37.337
37.587
37.819
38.034
38.228
38.402
38.554
38.685
38.795
38.884
38.952
39.002
39.033
39.047
39.047
39.034
39.009
38.974
38.93
38.879
38.821
38.759
38.691
38.62
38.546
38.469
38.389
38.308
38.225
38.143
38.06
37.978
37.896
37.815
37.735
37.656
37.579
37.504
37.43
37.358
37.286
37.215
37.144
37.074
37.004
36.934
36.865
36.795
36.727
36.66
36.594
36.53
36.469
36.411
36.357
36.307
36.263
36.224
36.192
36.165
36.146
36.132
36.124
36.122
36.125
36.132
36.142
36.155
36.168
36.182
36.196
36.208
36.22
36.229
36.236
36.241
36.242
36.241
36.237
36.23
36.221
36.21
36.196
36.18
36.161
36.138
36.113
36.084
36.052
36.016
35.978
35.936
35.892
35.846
35.797
35.747
35.695
35.642
35.588
35.532
35.476
35.42
35.363
35.307
35.251
35.195
35.14
35.086
35.032
34.978
34.924
34.871
34.818
34.765
34.712
34.659
34.607
34.555
34.504
34.453
34.403
34.353
34.304
34.256
34.209
34.162
34.116
34.07
34.024
33.979
33.934
33.89
33.846
33.803
33.761
33.72
33.68
33.642
33.605
33.568
33.534
33.499
33.466
33.433
33.4
33.367
33.334
33.301
33.267
33.232
33.198
33.164
33.13
33.098
33.069
33.044
33.024
33.012
33.009
33.019
33.043
33.085
33.146
33.229
33.336
33.467
33.623
33.803
34.007
34.231
34.475
34.736
35.009
35.292
35.58
35.87
36.158
36.44
36.712
36.971
37.215
37.442
37.648
37.833
37.996
38.137
38.255
38.352
38.427
38.483
38.521
38.541
38.547
38.54
38.52
38.49
38.45
38.401
38.345
38.282
38.215
38.143
38.067
37.989
37.909
37.827
37.744
37.66
37.575
37.49
37.407
37.325
37.245
37.167
37.093
37.021
36.952
36.885
36.82
36.755
36.69
36.625
36.56
36.493
36.426
36.359
36.291
36.225
36.16
36.097
36.036
35.978
35.922
35.87
35.822
35.778
35.738
35.703
35.673
35.649
35.631
35.618
35.611
35.609
35.611
35.616
35.623
35.633
35.643
35.654
35.665
35.674
35.683
35.69
35.695
35.698
35.699
35.697
35.693
35.686
35.676
35.663
35.647
35.627
35.605
35.581
35.553
35.523
35.49
35.454
35.415
35.373
35.328
35.282
35.233
35.183
35.132
35.081
35.029
34.978
34.926
34.875
34.825
34.775
34.725
34.675
34.626
34.576
34.526
34.475
34.424
34.371
34.318
34.264
34.209
34.154
34.1
34.045
33.992
33.939
33.886
33.833
33.781
33.73
33.68
33.633
33.586
33.542
33.498
33.457
33.418
33.381
33.346
33.314
33.282
33.251
33.221
33.19
33.159
33.127
33.095
33.062
33.029
32.995
32.961
32.927
32.893
32.86
32.827
32.795
32.764
32.735
32.706
32.679
32.652
32.626
32.602
32.58
32.562
32.548
32.543
32.547
32.563
32.595
32.645
32.716
32.808
32.925
33.066
33.231
33.42
33.63
33.86
34.105
34.364
34.632
34.905
35.179
35.451
35.717
35.975
36.221
36.452
36.668
36.864
37.041
37.197
37.333
37.447
37.542
37.616
37.671
37.708
37.729
37.735
37.729
37.71
37.681
37.642
37.596
37.543
37.485
37.421
37.354
37.283
37.209
37.133
37.054
36.974
36.893
36.812
36.73
36.651
36.572
36.496
36.423
36.352
36.283
36.217
36.152
36.089
36.026
35.963
35.901
35.838
35.775
35.711
35.648
35.585
35.522
35.462
35.403
35.346
35.294
35.244
35.199
35.158
35.122
35.092
35.066
35.045
35.029
35.018
35.011
35.008
35.009
35.013
35.02
35.028
35.037
35.048
35.058
35.067
35.077
35.086
35.094
35.102
35.109
35.116
35.121
35.125
35.127
35.126
35.122
35.114
35.103
35.089
35.072
35.052
35.028
35.002
34.973
34.942
34.907
34.869
34.829
34.787
34.743
34.699
34.654
34.608
34.562
34.515
34.467
34.418
34.368
34.317
34.265
34.214
34.162
34.11
34.058
34.006
33.955
33.905
33.857
33.809
33.762
33.717
33.673
33.63
33.59
33.551
33.514
33.478
33.443
33.408
33.372
33.337
33.301
33.265
33.229
33.193
33.157
33.121
33.085
33.049
33.014
32.979
32.945
32.912
32.879
32.848
32.818
32.788
32.76
32.731
32.704
32.676
32.65
32.624
32.598
32.573
32.549
32.525
32.503
32.48
32.459
32.439
32.421
32.405
32.394
32.389
32.392
32.408
32.438
32.486
32.553
32.643
32.756
32.892
33.053
33.237
33.443
33.668
33.91
34.165
34.43
34.7
34.972
35.241
35.504
35.757
35.998
36.225
36.436
36.63
36.805
36.96
37.096
37.213
37.31
37.389
37.449
37.492
37.517
37.527
37.522
37.505
37.475
37.435
37.386
37.331
37.27
37.204
37.136
37.065
36.993
36.921
36.848
36.775
36.701
36.628
36.555
36.483
36.411
36.34
36.268
36.198
36.127
36.057
35.988
35.918
35.849
35.78
35.712
35.644
35.577
35.511
35.447
35.384
35.323
35.266
35.211
35.159
35.111
35.066
35.026
34.991
34.962
34.938
34.92
34.909
34.903
34.903
34.909
34.919
34.933
34.951
34.971
34.992
35.015
35.038
35.062
35.085
35.108
35.129
35.149
35.166
35.18
35.192
35.2
35.206
35.207
35.206
35.201
35.192
35.18
35.165
35.147
35.127
35.105
35.08
35.053
35.024
34.992
34.958
34.921
34.882
34.84
34.797
34.752
34.705
34.658
34.61
34.562
34.514
34.467
34.419
34.373
34.326
34.281
34.236
34.192
34.149
34.106
34.064
34.022
33.982
33.942
33.903
33.863
33.824
33.783
33.742
33.701
33.659
33.618
33.577
33.537
33.497
33.459
33.422
33.386
33.353
33.321
33.291
33.262
33.234
33.207
33.181
33.155
33.13
33.105
33.079
33.053
33.026
32.999
32.971
32.943
32.915
32.886
32.857
32.829
32.802
32.775
32.751
32.73
32.712
32.7
32.695
32.701
32.718
32.751
32.802
32.873
32.965
33.08
33.218
33.379
33.562
33.765
33.986
34.221
34.467
34.72
34.978
35.235
35.49
35.739
35.979
36.208
36.424
36.624
36.808
36.975
37.122
37.249
37.357
37.445
37.514
37.565
37.599
37.618
37.624
37.617
37.599
37.571
37.534
37.489
37.438
37.38
37.317
37.251
37.18
37.107
37.033
36.957
36.88
36.803
36.726
36.649
36.573
36.497
36.422
36.348
36.274
36.202
36.13
36.06
35.991
35.923
35.856
35.791
35.727
35.664
35.601
35.538
35.476
35.416
35.357
35.301
35.248
35.2
35.155
35.116
35.083
35.056
35.035
35.019
35.009
35.005
35.006
35.012
35.022
35.036
35.054
35.074
35.095
35.117
35.139
35.161
35.181
35.199
35.215
35.228
35.238
35.244
35.247
35.245
35.239
35.229
35.217
35.202
35.184
35.165
35.144
35.122
35.099
35.074
35.049
35.023
34.996
34.968
34.938
34.907
34.874
34.839
34.802
34.763
34.723
34.68
34.636
34.591
34.545
34.499
34.453
34.407
34.362
34.317
34.273
34.229
34.185
34.142
34.099
34.056
34.013
33.97
33.927
33.885
33.844
33.805
33.766
33.73
33.694
33.661
33.628
33.596
33.563
33.531
33.498
33.464
33.431
33.397
33.363
33.329
33.295
33.262
33.23
33.198
33.167
33.137
33.107
33.078
33.049
33.021
32.994
32.967
32.942
32.918
32.896
32.874
32.853
32.833
32.814
32.794
32.775
32.755
32.736
32.718
32.702
32.689
32.681
32.68
32.689
32.709
32.745
32.799
32.873
32.969
33.09
33.235
33.405
33.599
33.815
34.052
34.306
34.574
34.852
35.136
35.423
35.709
35.99
36.262
36.523
36.77
36.999
37.21
37.401
37.571
37.719
37.845
37.95
38.035
38.101
38.148
38.179
38.194
38.196
38.187
38.167
38.139
38.103
38.06
38.011
37.958
37.901
37.84
37.776
37.71
37.642
37.572
37.501
37.429
37.358
37.288
37.219
37.151
37.084
37.019
36.955
36.894
36.834
36.776
36.718
36.662
36.607
36.551
36.497
36.442
36.387
36.332
36.277
36.223
36.168
36.114
36.062
36.011
35.962
35.916
35.874
35.835
35.8
35.769
35.744
35.725
35.711
35.702
35.698
35.7
35.706
35.717
35.731
35.749
35.768
35.789
35.81
35.83
35.848
35.865
35.879
35.89
35.899
35.905
35.907
35.906
35.901
35.892
35.881
35.866
35.85
35.831
35.81
35.788
35.764
35.737
35.708
35.676
35.642
35.605
35.567
35.527
35.485
35.441
35.396
35.349
35.301
35.252
35.203
35.154
35.105
35.057
35.01
34.963
34.916
34.871
34.825
34.779
34.733
34.687
34.641
34.594
34.549
34.504
34.46
34.416
34.374
34.332
34.291
34.249
34.207
34.166
34.125
34.085
34.046
34.007
33.97
33.934
33.899
33.863
33.828
33.792
33.756
33.72
33.683
33.647
33.611
33.576
33.543
33.511
33.48
33.451
33.423
33.396
33.37
33.345
33.32
33.296
33.274
33.253
33.235
33.221
33.214
33.214
33.224
33.248
33.288
33.347
33.427
33.529
33.656
33.807
33.983
34.182
34.402
34.642
34.898
35.167
35.446
35.73
36.017
36.302
36.581
36.851
37.109
37.352
37.579
37.787
37.976
38.145
38.294
38.422
38.53
38.619
38.689
38.741
38.777
38.798
38.804
38.798
38.779
38.751
38.714
38.669
38.619
38.563
38.503
38.439
38.373
38.306
38.236
38.166
38.096
38.025
37.954
37.883
37.812
37.742
37.673
37.605
37.537
37.469
37.402
37.336
37.271
37.205
37.14
37.075
37.009
36.943
36.878
36.812
36.746
36.681
36.617
36.555
36.495
36.438
36.384
36.335
36.292
36.256
36.228
36.206
36.19
36.18
36.176
36.175
36.179
36.185
36.194
36.205
36.218
36.231
36.244
36.258
36.271
36.284
36.296
36.306
36.314
36.32
36.323
36.323
36.319
36.312
36.301
36.286
36.266
36.243
36.215
36.185
36.151
36.115
36.076
36.036
35.996
35.955
35.913
35.872
35.829
35.787
35.744
35.7
35.656
35.611
35.565
35.518
35.47
35.42
35.37
35.319
35.267
35.215
35.162
35.109
35.055
35.002
34.949
34.896
34.843
34.792
34.741
34.69
34.64
34.589
34.54
34.491
