Trial 1:0back
38.041
38.044
38.053
38.067
38.086
38.108
38.132
38.156
38.181
38.205
38.228
38.249
38.267
38.282
38.294
38.301
38.303
38.299
38.29
38.275
38.254
38.228
38.197
38.162
38.123
38.081
38.036
37.987
37.937
37.886
37.833
37.778
37.722
37.665
37.606
37.547
37.486
37.424
37.361
37.298
37.233
37.169
37.104
37.041
36.979
36.918
36.859
36.802
36.746
36.691
36.636
36.581
36.526
36.471
36.417
36.362
36.308
36.255
36.203
36.153
36.104
36.057
36.012
35.968
35.926
35.885
35.846
35.807
35.769
35.731
35.693
35.656
35.62
35.585
35.55
35.516
35.483
35.45
35.419
35.388
35.357
35.327
35.297
35.266
35.234
35.202
35.168
35.134
35.101
35.067
35.034
35.001
34.969
34.937
34.906
34.876
34.847
34.818
34.791
34.764
34.738
34.713
34.689
34.664
34.64
34.617
34.593
34.569
34.545
34.519
34.493
34.466
34.436
34.404
34.37
34.332
34.292
34.25
34.205
34.158
34.11
34.061
34.013
33.965
33.919
33.876
33.836
33.8
33.768
33.742
33.723
33.712
33.71
33.719
33.74
33.776
33.829
33.9
33.993
34.109
34.25
34.416
34.606
34.819
35.053
35.305
35.572
35.849
36.135
36.423
36.711
36.994
37.268
37.53
37.778
38.007
38.216
38.404
38.568
38.709
38.825
38.919
38.99
39.041
39.074
39.092
39.096
39.088
39.071
39.046
39.015
38.98
38.942
38.904
38.866
38.829
38.795
38.762
38.732
38.705
38.681
38.66
38.641
38.624
38.608
38.594
38.58
38.566
38.551
38.536
38.519
38.502
38.483
38.461
38.437
38.41
38.381
38.349
38.314
38.278
38.24
38.2
38.159
38.119
38.081
38.045
38.011
37.981
37.955
37.933
37.916
37.904
37.897
37.894
37.895
37.899
37.905
37.912
37.919
37.925
37.929
37.931
37.929
37.923
37.914
37.899
37.88
37.855
37.827
37.794
37.759
37.721
37.68
37.637
37.592
37.544
37.495
37.443
37.389
37.334
37.278
37.22
37.162
37.103
37.044
36.984
36.925
36.865
36.805
36.745
36.686
36.626
36.566
36.506
36.446
36.385
36.323
36.262
36.2
36.139
36.078
36.018
35.959
35.9
35.842
35.785
35.73
35.676
35.623
35.573
35.524
35.478
35.433
35.391
35.35
35.31
35.272
35.235
35.198
35.163
35.128
35.093
35.057
35.021
34.984
34.946
34.908
34.87
34.832
34.794
34.756
34.718
34.68
34.641
34.602
34.564
34.526
34.489
34.453
34.418
34.383
34.35
34.318
34.287
34.256
34.227
34.197
34.168
34.14
34.111
34.084
34.058
34.033
34.008
33.984
33.961
33.937
33.914
33.892
33.87
33.849
33.828
33.808
33.787
33.767
33.748
33.728
33.709
33.689
33.669
33.648
33.626
33.603
33.577
33.549
33.519
33.487
33.452
33.415
33.376
33.336
33.295
33.254
33.213
33.173
33.136
33.101
33.069
33.043
33.023
33.012
33.012
33.026
33.055
33.102
33.167
33.253
33.361
33.49
33.642
33.814
34.007
34.219
34.445
34.685
34.934
35.189
35.447
35.704
35.957
36.202
36.435
36.656
36.86
37.047
37.213
37.359
37.484
37.587
37.67
37.733
37.777
37.805
37.82
37.822
37.815
37.798
37.774
37.743
37.707
37.666
37.622
37.575
37.526
37.475
37.424
37.372
37.321
37.272
37.224
37.179
37.137
37.097
37.062
37.03
37.001
36.975
36.952
36.93
36.91
36.891
36.871
36.852
36.831
36.809
36.784
36.758
36.73
36.701
36.671
36.64
36.61
36.58
36.55
36.523
36.497
36.476
36.457
36.442
36.43
36.423
36.418
36.418
36.42
36.425
36.431
36.439
36.447
36.455
36.461
36.466
36.468
36.468
36.464
36.456
36.445
36.431
36.413
36.392
36.368
36.34
36.31
36.277
36.243
36.206
36.167
36.126
36.083
36.038
35.992
35.945
35.897
35.848
35.799
35.748
35.698
35.647
35.595
35.543
35.491
35.438
35.384
35.33
35.275
35.221
35.167
35.114
35.063
35.013
34.966
34.921
34.877
34.836
34.797
34.758
34.721
34.683
34.646
34.609
34.573
34.536
34.499
34.461
34.424
34.387
34.351
34.316
34.282
34.25
34.219
34.19
34.162
34.135
34.11
34.086
34.062
34.039
34.015
33.991
33.966
33.939
33.912
33.885
33.856
33.827
33.797
33.767
33.737
33.708
33.679
33.651
33.623
33.595
33.567
33.538
33.508
33.477
33.446
33.414
33.381
33.348
33.314
33.28
33.246
33.212
33.179
33.146
33.113
33.081
33.048
33.016
32.984
32.953
32.923
32.894
32.867
32.84
32.813
32.787
32.761
32.736
32.711
32.686
32.66
32.634
32.607
32.579
32.55
32.521
32.492
32.464
32.436
32.408
32.379
32.35
32.321
32.292
32.262
32.233
32.204
32.176
32.15
32.124
32.1
32.079
32.061
32.047
32.04
32.042
32.054
32.079
32.117
32.172
32.246
32.34
32.456
32.594
32.756
32.938
33.141
33.362
33.599
33.849
34.109
34.374
34.642
34.909
35.171
35.424
35.666
35.895
36.107
36.3
36.474
36.626
36.756
36.864
36.951
37.017
37.063
37.092
37.106
37.108
37.099
37.081
37.056
37.025
36.99
36.952
36.913
36.874
36.836
36.799
36.764
36.732
36.701
36.674
36.65
36.629
36.612
36.598
36.586
36.576
36.566
36.558
36.548
36.537
36.524
36.508
36.49
36.468
36.444
36.417
36.388
36.357
36.325
36.292
36.26
36.23
36.201
36.175
36.153
36.135
36.123
36.116
36.116
36.121
36.131
36.146
36.165
36.185
36.208
36.23
36.252
36.273
36.292
36.307
36.319
36.327
36.332
36.332
36.328
36.319
36.306
36.289
36.268
36.244
36.216
36.186
36.154
36.12
36.084
36.047
36.008
35.969
35.929
35.889
35.847
35.803
35.759
35.713
35.668
35.622
35.576
35.53
35.485
35.439
35.394
35.35
35.306
35.263
35.219
35.176
35.133
35.089
35.045
35.001
34.956
34.911
34.866
34.821
34.777
34.733
34.692
34.651
34.613
34.577
34.543
34.511
34.48
34.451
34.423
34.397
34.373
34.349
34.327
34.305
34.283
34.262
34.242
34.221
34.201
34.181
34.161
34.14
34.12
34.098
34.077
34.054
34.031
34.007
33.983
33.958
33.933
33.908
33.883
33.858
33.834
33.811
33.789
33.767
33.747
33.727
33.709
33.692
33.675
33.658
33.641
33.623
33.604
33.583
33.562
33.539
33.516
33.491
33.465
33.438
33.411
33.383
33.356
33.329
33.302
33.275
33.249
33.222
33.194
33.165
33.135
33.105
33.073
33.039
33.005
32.97
32.935
32.899
32.865
32.831
32.8
32.77
32.743
32.718
32.696
32.677
32.662
32.654
32.652
32.661
32.68
32.714
32.762
32.828
32.911
33.015
33.138
33.28
33.442
33.622
33.818
34.028
34.248
34.476
34.709
34.944
35.178
35.408
35.63
35.843
36.044
36.23
36.4
36.553
36.688
36.805
36.904
36.986
37.051
37.1
37.133
37.151
37.156
37.149
37.132
37.107
37.076
37.038
36.997
36.954
36.909
36.865
36.822
36.78
36.741
36.703
36.669
36.636
36.605
36.577
36.55
36.526
36.502
36.48
36.457
36.436
36.413
36.391
36.367
36.342
36.315
36.287
36.258
36.229
36.199
36.171
36.143
36.119
36.098
36.081
36.068
36.061
36.058
36.059
36.064
36.074
36.087
36.103
36.122
36.144
36.168
36.193
36.22
36.246
36.272
36.297
36.321
36.341
36.359
36.374
36.385
36.392
36.394
36.391
36.383
36.368
36.348
36.324
36.295
36.262
36.227
36.188
36.147
36.103
36.058
36.012
35.964
35.916
35.866
35.815
35.765
35.715
35.665
35.616
35.568
35.52
35.473
35.428
35.384
35.341
35.3
35.26
35.219
35.179
35.138
35.097
35.055
35.014
34.974
34.935
34.897
34.859
34.823
34.788
34.754
34.721
34.69
34.659
34.63
34.601
34.573
34.547
34.522
34.498
34.475
34.454
34.434
34.415
34.397
34.379
34.362
34.344
34.327
34.308
34.288
34.267
34.246
34.225
34.204
34.182
34.161
34.141
34.121
34.102
34.083
34.065
34.047
34.028
34.008
33.989
33.969
33.95
33.93
33.911
33.891
33.871
33.85
33.829
33.807
33.787
33.766
33.746
33.725
33.705
33.684
33.663
33.642
33.62
33.599
33.579
33.558
33.537
33.514
33.491
33.467
33.441
33.413
33.384
33.355
33.324
33.294
33.264
33.234
33.206
33.179
33.154
33.133
33.116
33.105
33.102
33.109
33.129
33.163
33.214
33.284
33.372
33.481
33.611
33.761
33.932
34.121
34.328
34.55
34.786
35.033
35.288
35.547
35.808
36.064
36.314
36.554
36.78
36.991
37.184
37.359
37.514
37.648
37.762
37.855
37.93
37.986
38.025
38.048
38.057
38.054
38.041
38.019
37.991
37.959
37.923
37.886
37.847
37.81
37.773
37.739
37.708
37.678
37.652
37.628
37.607
37.589
37.574
37.56
37.548
37.537
37.526
37.516
37.504
37.492
37.478
37.461
37.442
37.421
37.399
37.375
37.349
37.323
37.295
37.266
37.237
37.208
37.182
37.158
37.138
37.122
37.111
37.104
37.103
37.106
37.113
37.123
37.137
37.152
37.169
37.186
37.203
37.219
37.234
37.247
37.257
37.265
37.271
37.274
37.274
37.272
37.267
37.258
37.245
37.23
37.211
37.188
37.163
37.136
37.105
37.073
37.038
37.001
36.962
36.922
36.88
36.838
36.794
36.75
36.705
36.659
36.612
36.566
36.519
36.473
36.427
36.381
36.335
36.289
36.243
36.197
36.152
36.108
36.064
36.021
35.979
35.938
35.898
35.857
35.817
35.776
35.735
35.693
35.65
35.607
35.563
35.517
35.47
35.422
35.372
35.321
35.269
35.217
35.164
35.11
35.057
35.004
34.951
34.9
34.85
34.803
34.758
34.716
34.676
34.64
34.606
34.575
34.547
34.523
34.502
34.484
34.468
34.453
34.44
34.426
34.413
34.399
34.385
34.368
34.35
34.33
34.306
34.28
34.251
34.22
34.187
34.153
34.116
34.078
34.038
33.997
33.955
33.913
33.87
33.828
33.786
33.745
33.705
33.666
33.63
33.597
33.566
33.539
33.513
33.489
33.466
33.444
33.424
33.405
33.386
33.368
33.35
33.332
33.313
33.293
33.271
33.248
33.223
33.197
33.169
33.139
33.107
33.074
33.04
33.005
32.969
32.934
32.9
32.866
32.834
32.803
32.774
32.749
32.728
32.715
32.711
32.719
32.741
32.78
32.838
32.916
33.018
33.144
33.294
33.467
33.664
33.882
34.119
34.373
34.639
34.915
35.196
35.479
35.759
36.034
36.298
36.55
36.786
37.003
37.201
37.376
37.529
37.659
37.766
37.851
37.915
37.959
37.987
38.001
38.002
37.993
37.976
37.952
37.924
37.892
37.859
37.826
37.793
37.762
37.732
37.705
37.68
37.658
37.639
37.622
37.607
37.594
37.583
37.574
37.565
37.557
37.549
37.541
37.532
37.523
37.512
37.499
37.484
37.467
37.447
37.423
37.397
37.369
37.338
37.305
37.271
37.236
37.201
37.166
37.133
37.101
37.072
37.046
37.025
37.008
36.997
36.99
36.987
36.988
36.992
36.998
37.005
37.011
37.017
37.022
37.025
37.024
37.02
37.012
36.999
36.983
36.963
36.939
36.913
36.883
36.849
36.813
36.773
36.732
36.688
36.643
36.597
36.549
36.5
36.45
36.398
36.346
36.294
36.24
36.186
36.131
36.076
36.022
35.968
35.914
35.86
35.807
35.755
35.703
35.651
35.601
35.551
35.502
35.453
35.405
35.357
35.311
35.266
35.221
35.177
35.133
35.09
35.047
35.003
34.961
34.918
34.877
34.837
34.799
34.763
34.729
34.697
34.668
34.641
34.616
34.592
34.569
34.547
34.525
34.503
34.48
34.457
34.431
34.404
34.376
34.345
34.314
34.282
34.249
34.217
34.185
34.154
34.123
34.093
34.064
34.036
34.009
33.982
33.956
33.929
33.902
33.874
33.846
33.818
33.791
33.764
33.737
33.712
33.688
33.664
33.641
33.617
33.593
33.567
33.541
33.514
33.486
33.457
33.426
33.395
33.364
33.332
33.301
33.269
33.238
33.207
33.178
33.148
33.12
33.091
33.063
33.034
33.005
32.975
32.944
32.912
32.88
32.847
32.815
32.782
32.749
32.716
32.683
32.649
32.614
32.579
32.544
32.509
32.473
32.438
32.402
32.368
32.335
32.304
32.276
32.252
32.233
32.219
32.212
32.213
32.225
32.25
32.29
32.347
32.422
32.517
32.631
32.766
32.921
33.096
33.29
33.5
33.723
33.956
34.196
34.439
34.683
34.922
35.154
35.375
35.582
35.773
35.945
36.098
36.232
36.344
36.437
36.509
36.561
36.596
36.615
36.619
36.612
36.594
36.568
36.537
36.5
36.461
36.419
36.376
36.334
36.292
36.253
36.215
36.18
36.149
36.121
36.095
36.073
36.054
36.038
36.025
36.015
36.007
36.0
35.994
35.988
35.981
35.973
35.963
35.951
35.937
35.92
35.9
35.878
35.853
35.826
35.798
35.768
35.738
35.71
35.682
35.657
35.635
35.617
35.602
35.591
35.584
35.58
35.579
35.582
35.588
35.596
35.606
35.617
35.627
35.637
35.647
35.654
35.66
35.664
35.664
35.662
35.656
35.647
35.634
35.618
35.598
35.574
35.547
35.517
35.484
35.447
35.409
35.369
35.327
35.284
35.241
35.197
35.154
35.11
35.068
35.025
34.984
34.942
34.901
34.861
34.822
34.783
34.745
34.707
34.67
34.634
34.598
34.563
34.528
34.494
34.46
34.426
34.392
34.358
34.324
34.291
34.258
34.227
34.196
34.167
34.139
34.111
34.083
34.055
34.028
34.001
33.974
33.948
33.921
33.896
33.871
33.847
33.824
33.802
33.781
33.76
33.739
33.719
33.698
33.677
33.657
33.636
33.616
33.594
33.573
33.55
33.528
33.505
33.482
33.458
33.434
33.408
33.382
33.356
33.329
33.302
33.275
33.248
33.222
33.197
33.174
33.151
33.131
33.112
33.095
33.078
33.06
33.041
33.021
33.0
32.978
32.956
32.933
32.909
32.886
32.861
32.836
32.81
32.784
32.758
32.731
32.705
32.678
32.652
32.626
32.6
32.575
32.55
32.525
32.5
32.475
32.45
32.424
32.399
32.373
32.347
32.322
32.297
32.272
32.248
32.225
32.202
32.18
32.16
32.141
32.124
32.109
32.097
32.09
32.089
32.095
32.111
32.139
32.18
32.237
32.311
32.403
32.512
32.638
32.781
32.939
33.11
33.291
33.479
33.671
33.866
34.059
34.249
34.432
34.608
34.773
34.926
35.065
35.19
35.3
35.395
35.475
35.542
35.596
35.635
35.662
35.677
35.681
35.676
35.663
35.642
35.617
35.587
35.555
35.521
35.486
35.452
35.419
35.388
35.359
35.333
35.308
35.286
35.265
35.246
35.228
35.212
35.198
35.185
35.173
35.162
35.151
35.139
35.125
35.108
35.089
35.068
35.044
35.019
34.993
34.967
34.941
34.916
34.894
34.875
34.859
34.848
34.841
34.838
34.84
34.846
34.856
34.869
34.884
34.901
34.918
34.935
34.951
34.966
34.978
34.988
34.995
34.998
34.998
34.995
34.988
34.979
34.967
34.953
34.936
34.918
34.898
34.878
34.856
34.834
34.811
34.787
34.763
34.738
34.712
34.686
34.66
34.634
34.608
34.582
34.554
34.526
34.498
34.468
34.437
34.405
34.371
34.338
34.304
34.27
34.237
34.204
34.172
34.14
34.11
34.081
34.053
34.027
34.002
33.979
33.957
33.937
33.917
33.899
33.88
33.861
33.842
33.823
33.802
33.782
33.763
33.744
33.725
33.707
33.69
33.673
33.658
33.644
33.63
33.618
33.607
33.596
33.584
33.573
33.562
33.55
33.538
33.526
33.513
33.499
33.484
33.47
33.454
33.439
33.423
33.408
33.394
33.38
33.367
33.356
33.345
33.335
33.325
33.316
33.307
33.298
33.289
33.28
33.27
33.26
33.25
33.238
33.226
33.214
33.202
33.19
33.179
33.169
33.159
33.15
33.14
33.13
33.119
33.107
33.095
33.082
33.067
33.052
33.037
33.022
33.008
32.995
32.986
32.98
32.979
32.984
32.995
33.013
33.041
33.079
33.129
33.192
33.269
33.359
33.462
33.577
33.703
33.84
33.985
34.136
34.289
34.443
34.596
34.745
34.889
35.024
35.15
35.263
35.364
35.45
35.521
35.578
35.62
35.647
35.661
35.661
35.651
35.631
35.604
35.571
35.536
35.499
35.464
35.432
35.403
35.378
35.359
35.346
35.337
35.333
35.333
35.335
35.339
35.343
35.347
35.351
35.353
35.353
35.352
35.348
35.342
35.332
35.321
35.306
35.289
35.269
35.245
35.218
35.189
35.157
35.123
35.088
35.052
35.017
34.984
34.955
34.931
34.912
34.899
34.89
34.887
34.889
34.895
34.905
34.919
34.936
34.956
34.977
34.999
35.022
35.044
35.065
35.084
35.101
35.116
35.127
35.135
35.141
35.142
35.141
35.135
35.127
35.114
35.1
35.082
35.063
35.042
35.02
34.998
34.975
34.953
34.932
34.91
34.89
34.869
34.848
34.827
34.805
34.784
34.763
34.741
34.719
34.698
34.677
34.656
34.634
34.613
34.591
34.57
34.548
34.526
34.505
34.485
34.465
34.447
34.43
34.415
34.4
34.386
34.372
34.357
34.342
34.326
34.309
34.291
34.274
34.256
34.239
34.223
34.206
34.19
34.174
34.158
34.141
34.125
34.108
34.092
34.076
34.061
34.046
34.032
34.017
34.002
33.988
33.974
33.96
33.946
33.933
33.919
33.907
33.894
33.882
33.869
33.856
33.842
33.827
33.811
33.794
33.777
33.759
33.74
33.72
33.699
33.677
33.654
33.63
33.605
33.58
33.556
33.531
33.508
33.485
33.463
33.443
33.425
33.408
33.392
33.376
33.36
33.342
33.324
33.304
33.284
33.262
33.239
33.214
33.188
33.16
33.133
33.105
33.078
33.052
33.026
33.001
32.976
32.953
32.93
32.908
32.887
32.867
32.85
32.834
32.822
32.814
32.811
32.815
32.829
32.852
32.889
32.939
33.004
33.085
33.182
33.295
33.425
33.57
33.73
33.902
34.085
34.274
34.469
34.665
34.86
35.052
35.236
35.412
35.576
35.727
35.864
35.987
36.096
36.19
36.269
36.335
36.387
36.428
36.457
36.477
36.489
36.494
36.493
36.488
36.481
36.47
36.459
36.446
36.433
36.42
36.408
36.397
36.388
36.379
36.372
36.367
36.365
36.364
36.367
36.371
36.378
36.386
36.394
36.403
36.41
36.417
36.422
36.425
36.426
36.424
36.419
36.413
36.403
36.393
36.38
36.366
36.351
36.335
36.32
36.304
36.289
36.276
36.264
36.254
36.247
36.243
36.242
36.243
36.248
36.254
36.262
36.271
36.281
36.292
36.301
36.31
36.316
36.319
36.32
36.319
36.314
36.307
36.298
36.284
36.267
36.247
36.224
36.198
36.17
36.14
36.108
36.075
36.041
36.006
35.971
35.937
35.902
35.867
35.833
35.799
35.765
35.731
35.698
35.665
35.632
35.599
35.566
35.532
35.499
35.464
35.43
35.396
35.361
35.326
35.29
35.255
35.221
35.187
35.153
35.119
35.086
35.053
35.02
34.989
34.959
34.93
34.902
34.874
34.848
34.822
34.797
34.773
34.75
34.728
34.707
34.686
34.666
34.646
34.627
34.608
34.59
34.572
34.555
34.537
34.52
34.502
34.484
34.466
34.447
34.428
34.408
34.388
34.367
34.347
34.327
34.307
34.287
34.266
34.246
34.226
34.206
34.187
34.169
34.151
34.133
34.116
34.098
34.079
34.061
34.043
34.025
34.006
33.986
33.966
33.945
33.923
33.9
33.876
33.85
33.823
33.795
33.766
33.736
33.706
33.676
33.647
33.618
33.59
33.564
33.538
33.515
33.493
33.473
33.455
33.441
33.431
33.428
33.432
33.447
33.474
33.514
33.57
33.641
33.729
33.832
33.95
34.082
34.228
34.386
34.554
34.728
34.907
35.087
35.265
35.438
35.604
35.76
35.904
36.035
36.152
36.253
36.34
36.411
36.467
36.509
36.539
36.558
36.567
36.568
36.563
36.552
36.536
36.518
36.498
36.476
36.453
36.43
36.407
36.386
36.367
36.351
36.337
36.326
36.318
36.312
36.309
36.307
36.307
36.309
36.311
36.313
36.315
36.317
36.318
36.318
36.316
36.313
36.307
36.298
36.287
36.273
36.258
36.241
36.222
36.203
36.183
36.164
36.147
36.132
36.12
36.111
36.105
36.102
36.101
36.103
36.106
36.11
36.115
36.122
36.128
36.135
36.143
36.15
36.155
36.159
36.161
36.16
36.157
36.15
36.141
36.129
36.115
36.098
36.079
36.057
36.034
36.009
35.982
35.954
35.924
35.894
35.862
35.83
35.798
35.766
35.734
35.703
35.671
35.638
35.605
35.571
35.536
35.501
35.465
35.429
35.393
35.357
35.321
35.286
35.25
35.215
35.18
35.144
35.108
35.071
35.035
34.999
34.964
34.928
34.893
34.86
34.827
34.797
34.768
34.741
34.716
34.693
34.67
34.648
34.625
34.603
34.582
34.561
34.541
34.522
34.503
34.486
34.469
34.454
34.439
34.424
34.409
34.394
34.379
34.363
34.346
34.328
34.308
34.287
34.266
34.244
34.222
34.2
34.179
34.157
34.136
34.116
34.096
34.076
34.057
34.038
34.019
34.0
33.982
33.963
33.945
33.927
33.909
33.891
33.874
33.856
33.838
33.819
33.801
33.782
33.764
33.745
33.725
33.704
33.682
33.659
33.634
33.608
33.581
33.554
33.525
33.496
33.467
33.437
33.408
33.38
33.353
33.329
33.309
33.293
33.282
33.276
33.278
33.289
33.31
33.343
33.387
33.444
33.515
33.6
33.699
33.811
33.936
34.073
34.22
34.376
34.539
34.706
34.877
