Trial 1:0back
31.919
31.894
31.869
31.843
31.815
31.786
31.758
31.731
31.711
31.699
31.7
31.716
31.749
31.801
31.872
31.962
32.078
32.224
32.406
32.63
32.898
33.21
33.568
33.971
34.416
34.897
35.408
35.942
36.492
37.049
37.606
38.155
38.689
39.201
39.686
40.138
40.555
40.934
41.274
41.574
41.834
42.054
42.234
42.378
42.487
42.564
42.609
42.626
42.615
42.579
42.522
42.445
42.353
42.247
42.13
42.005
41.873
41.737
41.598
41.459
41.321
41.187
41.057
40.934
40.818
40.709
40.607
40.51
40.416
40.325
40.234
40.142
40.047
39.946
39.839
39.725
39.603
39.476
39.344
39.209
39.074
38.938
38.804
38.675
38.553
38.438
38.332
38.236
38.149
38.07
38.0
37.937
37.881
37.831
37.784
37.74
37.697
37.654
37.61
37.565
37.519
37.473
37.425
37.379
37.332
37.287
37.242
37.199
37.159
37.122
37.087
37.055
37.023
36.991
36.958
36.921
36.879
36.831
36.776
36.713
36.642
36.564
36.48
36.39
36.295
36.198
36.098
35.999
35.901
35.805
35.712
35.623
35.538
35.456
35.378
35.302
35.227
35.152
35.076
35.0
34.923
34.846
34.768
34.69
34.612
34.536
34.46
34.385
34.311
34.238
34.167
34.097
34.03
33.965
33.901
33.841
33.782
33.725
33.671
33.619
33.569
33.521
33.474
33.427
33.379
33.329
33.276
33.219
33.159
33.096
33.032
32.967
32.903
32.842
32.786
32.735
32.689
32.649
32.615
32.585
32.56
32.539
32.52
32.503
32.487
32.472
32.457
32.442
32.424
32.405
32.383
32.358
32.329
32.297
32.261
32.224
32.186
32.146
32.107
32.07
32.035
32.003
31.975
31.951
31.932
31.918
31.908
31.902
31.898
31.896
31.895
31.892
31.888
31.882
31.872
31.858
31.838
31.814
31.784
31.75
31.711
31.669
31.624
31.579
31.535
31.492
31.451
31.414
31.38
31.349
31.32
31.295
31.272
31.253
31.237
31.224
31.214
31.208
31.208
31.216
31.235
31.267
31.319
31.392
31.492
31.621
31.784
31.984
32.225
32.509
32.836
33.208
33.62
34.07
34.553
35.064
35.596
36.142
36.694
37.247
37.79
38.319
38.825
39.303
39.748
40.157
40.526
40.852
41.135
41.376
41.574
41.733
41.856
41.944
42.002
42.033
42.042
42.03
42.0
41.955
41.895
41.822
41.738
41.643
41.538
41.426
41.307
41.182
41.054
40.922
40.79
40.658
40.529
40.402
40.28
40.161
40.046
39.932
39.82
39.708
39.595
39.478
39.357
39.231
39.101
38.965
38.825
38.682
38.536
38.388
38.241
38.097
37.958
37.827
37.705
37.594
37.494
37.406
37.331
37.267
37.215
37.174
37.141
37.114
37.094
37.076
37.061
37.047
37.031
37.012
36.988
36.961
36.929
36.892
36.852
36.808
36.763
36.718
36.672
36.627
36.582
36.539
36.497
36.455
36.414
36.372
36.329
36.284
36.236
36.184
36.128
36.067
36.001
35.929
35.851
35.767
35.677
35.582
35.483
35.382
35.279
35.176
35.075
34.976
34.88
34.788
34.701
34.618
34.54
34.465
34.393
34.322
34.25
34.179
34.106
34.032
33.955
33.877
33.797
33.716
33.637
33.559
33.485
33.416
33.351
33.291
33.236
33.186
33.14
33.1
33.063
33.029
32.998
32.967
32.936
32.903
32.866
32.825
32.779
32.728
32.674
32.618
32.56
32.502
32.445
32.39
32.336
32.286
32.239
32.197
32.159
32.126
32.097
32.074
32.056
32.041
32.03
32.02
32.011
32.001
31.99
31.977
31.962
31.944
31.923
31.9
31.874
31.847
31.818
31.789
31.76
31.732
31.705
31.68
31.656
31.634
31.615
31.598
31.583
31.569
31.556
31.543
31.53
31.516
31.5
31.482
31.461
31.437
31.409
31.377
31.34
31.299
31.255
31.209
31.162
31.117
31.073
31.031
30.994
30.962
30.937
30.921
30.915
30.924
30.95
30.996
31.068
31.168
31.3
31.467
31.671
31.913
32.194
32.512
32.867
33.255
33.673
34.115
34.577
35.054
35.54
36.029
36.516
36.994
37.46
37.909
38.337
38.742
39.121
39.47
39.788
40.073
40.322
40.535
40.71
40.849
40.951
41.018
41.052
41.054
41.029
40.98
40.909
40.82
40.718
40.604
40.483
40.358
40.23
40.101
39.973
39.845
39.717
39.589
39.461
39.332
39.201
39.068
38.934
38.796
38.655
38.511
38.364
38.216
38.067
37.918
37.771
37.628
37.489
37.354
37.226
37.103
36.988
36.88
36.779
36.687
36.602
36.525
36.454
36.39
36.332
36.281
36.235
36.195
36.162
36.133
36.111
36.093
36.078
36.068
36.061
36.056
36.054
36.054
36.056
36.06
36.064
36.067
36.069
36.069
36.067
36.062
36.053
36.04
36.023
36.0
35.972
35.938
35.898
35.852
35.801
35.744
35.682
35.615
35.545
35.473
35.398
35.322
35.245
35.168
35.09
35.012
34.933
34.855
34.776
34.697
34.617
34.538
34.457
34.377
34.296
34.216
34.136
34.057
33.979
33.903
33.83
33.761
33.695
33.632
33.573
33.517
33.465
33.416
33.368
33.321
33.274
33.226
33.176
33.124
33.07
33.016
32.96
32.904
32.847
32.789
32.73
32.673
32.617
32.563
32.511
32.463
32.418
32.376
32.339
32.307
32.28
32.257
32.239
32.224
32.212
32.201
32.191
32.182
32.172
32.16
32.146
32.13
32.112
32.092
32.07
32.046
32.022
31.996
31.97
31.944
31.917
31.89
31.863
31.837
31.811
31.785
31.76
31.736
31.712
31.69
31.668
31.648
31.631
31.618
31.612
31.617
31.635
31.671
31.731
31.818
31.938
32.095
32.291
32.529
32.809
33.129
33.489
33.884
34.309
34.761
35.232
35.715
36.203
36.69
37.167
37.63
38.072
38.489
38.878
39.235
39.556
39.84
40.085
40.292
40.463
40.599
40.703
40.777
40.824
40.847
40.847
40.827
40.79
40.737
40.669
40.588
40.494
40.389
40.273
40.148
40.014
39.874
39.728
39.579
39.427
39.276
39.125
38.977
38.833
38.692
38.555
38.422
38.29
38.161
38.032
37.902
37.771
37.638
37.503
37.364
37.223
37.08
36.934
36.788
36.643
36.502
36.368
36.242
36.128
36.027
35.94
35.868
35.812
35.771
35.745
35.731
35.728
35.734
35.746
35.761
35.779
35.796
35.812
35.825
35.834
35.838
35.836
35.828
35.815
35.797
35.773
35.745
35.714
35.682
35.649
35.615
35.581
35.548
35.515
35.482
35.449
35.414
35.378
35.34
35.298
35.253
35.205
35.152
35.094
35.033
34.967
34.896
34.823
34.747
34.67
34.591
34.511
34.431
34.352
34.272
34.193
34.113
34.032
33.95
33.867
33.785
33.702
33.62
33.54
33.462
33.385
33.312
33.241
33.175
33.113
33.055
33.003
32.955
32.912
32.873
32.838
32.808
32.78
32.75
32.717
32.678
32.637
32.595
32.554
32.514
32.476
32.439
32.405
32.371
32.337
32.301
32.265
32.229
32.193
32.16
32.129
32.101
32.076
32.054
32.034
32.016
31.999
31.985
31.971
31.958
31.944
31.928
31.91
31.89
31.868
31.843
31.816
31.789
31.761
31.734
31.71
31.691
31.681
31.684
31.705
31.749
31.821
31.927
32.07
32.256
32.486
32.762
33.084
33.448
33.853
34.294
34.765
35.26
35.771
36.29
36.811
37.324
37.824
38.305
38.76
39.187
39.581
39.94
40.263
40.548
40.797
41.011
41.192
41.342
41.464
41.559
41.63
41.678
41.705
41.712
41.701
41.672
41.626
41.563
41.484
41.391
41.286
41.169
41.044
40.912
40.774
40.633
40.491
40.35
40.21
40.072
39.939
39.808
39.68
39.554
39.427
39.3
39.17
39.037
38.899
38.758
38.613
38.466
38.317
38.17
38.026
37.887
37.755
37.631
37.515
37.409
37.313
37.228
37.153
37.089
37.034
36.987
36.946
36.91
36.878
36.848
36.818
36.788
36.757
36.724
36.69
36.655
36.62
36.586
36.552
36.521
36.492
36.466
36.444
36.425
36.408
36.391
36.373
36.353
36.329
36.302
36.27
36.232
36.19
36.143
36.091
36.033
35.97
35.902
35.83
35.754
35.676
35.594
35.511
35.426
35.341
35.256
35.171
35.086
35.003
34.92
34.838
34.756
34.675
34.594
34.514
34.434
34.354
34.276
34.198
34.122
34.047
33.973
33.903
33.836
33.774
33.714
33.658
33.603
33.549
33.497
33.445
33.393
33.343
33.294
33.248
33.203
33.16
33.118
33.078
33.038
32.998
32.957
32.914
32.869
32.822
32.771
32.717
32.662
32.604
32.546
32.488
32.432
32.377
32.325
32.276
32.231
32.189
32.151
32.115
32.082
32.051
32.02
31.991
31.962
31.934
31.907
31.881
31.857
31.835
31.817
31.805
31.803
31.814
31.844
31.897
31.978
32.091
32.242
32.434
32.669
32.947
33.269
33.632
34.033
34.466
34.928
35.409
35.904
36.404
36.901
37.389
37.862
38.315
38.743
39.142
39.51
39.845
40.146
40.415
40.65
40.853
41.024
41.165
41.276
41.358
41.412
41.441
41.446
41.429
41.392
41.338
41.268
41.185
41.091
40.988
40.879
40.766
40.65
40.531
40.412
40.293
40.174
40.056
39.94
39.828
39.717
39.609
39.501
39.395
39.288
39.18
39.069
38.955
38.838
38.718
38.594
38.467
38.337
38.206
38.074
37.943
37.813
37.686
37.562
37.442
37.326
37.214
37.107
37.006
36.909
36.817
36.73
36.648
36.571
36.5
36.434
36.372
36.316
36.265
36.22
36.181
36.147
36.119
36.095
36.076
36.059
36.044
36.029
36.013
35.995
35.973
35.946
35.913
35.873
35.825
35.77
35.708
35.639
35.563
35.48
35.393
35.301
35.206
35.109
35.011
34.913
34.817
34.722
34.63
34.539
34.451
34.366
34.282
34.201
34.121
34.042
33.965
33.888
33.81
33.73
33.649
33.567
33.483
33.397
33.31
33.222
33.134
33.047
32.962
32.879
32.798
32.72
32.647
32.577
32.511
32.449
32.389
32.332
32.277
32.223
32.171
32.12
32.07
32.02
31.97
31.92
31.87
31.819
31.767
31.714
31.661
31.608
31.554
31.501
31.448
31.397
31.346
31.297
31.248
31.199
31.152
31.106
31.061
31.017
30.974
30.931
30.888
30.847
30.806
30.766
30.726
30.686
30.647
30.609
30.571
30.536
30.504
30.479
30.464
30.461
30.475
30.508
30.565
30.649
30.761
30.905
31.08
31.287
31.526
31.794
32.091
32.413
32.758
33.122
33.501
33.889
34.283
34.678
35.068
35.449
35.817
36.166
36.495
36.801
37.081
37.335
37.563
37.763
37.937
38.086
38.209
38.308
38.386
38.444
38.484
38.507
38.515
38.51
38.491
38.462
38.421
38.371
38.312
38.245
38.171
38.091
38.007
37.92
37.83
37.739
37.649
37.558
37.467
37.377
37.286
37.196
37.107
37.018
36.929
36.84
36.75
36.658
36.564
36.468
36.369
36.268
36.166
36.063
35.958
35.853
35.749
35.646
35.544
35.446
35.351
35.261
35.176
35.097
35.023
34.954
34.89
34.831
34.775
34.724
34.675
34.629
34.585
34.543
34.502
34.462
34.423
34.386
34.35
34.317
34.286
34.258
34.232
34.207
34.183
34.158
34.13
34.099
34.063
34.023
33.978
33.926
33.869
33.806
33.739
33.668
33.593
33.516
33.437
33.357
33.277
33.198
33.118
33.039
32.96
32.882
32.803
32.725
32.646
32.566
32.487
32.407
32.328
32.251
32.176
32.102
32.03
31.959
31.89
31.824
31.758
31.695
31.633
31.574
31.517
31.462
31.409
31.358
31.31
31.264
31.221
31.18
31.139
31.099
31.06
31.022
30.985
30.949
30.913
30.877
30.84
30.802
30.762
30.72
30.676
30.629
30.58
30.53
30.478
30.425
30.373
30.323
30.275
30.229
30.186
30.147
30.112
30.081
30.052
30.026
30.0
29.976
29.953
29.931
29.911
29.894
29.881
29.875
29.878
29.891
29.92
29.965
30.03
30.116
30.227
30.362
30.524
30.712
30.926
31.164
31.425
31.706
32.005
32.315
32.634
32.954
33.272
33.581
33.878
34.158
34.42
34.66
34.878
35.075
35.249
35.403
35.537
35.651
35.748
35.83
35.899
35.957
36.005
36.045
36.077
36.103
36.122
36.135
36.142
36.141
36.132
36.114
36.088
36.052
36.007
35.954
35.893
35.826
35.753
35.676
35.596
35.515
35.434
35.353
35.273
35.194
35.117
35.043
34.971
34.901
34.832
34.765
34.7
34.636
34.572
34.509
34.446
34.383
34.319
34.255
34.19
34.125
34.06
33.995
33.931
33.87
33.811
33.754
33.7
33.649
33.601
33.556
33.513
33.472
33.434
33.397
33.361
33.326
33.294
33.263
33.235
33.208
33.183
33.159
33.135
33.112
33.087
33.06
33.03
32.999
32.965
32.929
32.892
32.853
32.812
32.771
32.73
32.69
32.65
32.611
32.572
32.535
32.497
32.46
32.421
32.381
32.338
32.292
32.243
32.191
32.137
32.08
32.019
31.957
31.893
31.83
31.767
31.705
31.645
31.589
31.536
31.486
31.439
31.396
31.355
31.317
31.282
31.249
31.218
31.189
31.161
31.133
31.103
31.073
31.042
31.009
30.974
30.937
30.9
30.862
30.825
30.789
30.753
30.72
30.688
30.659
30.632
30.607
30.584
30.563
30.543
30.524
30.504
30.483
30.46
30.437
30.413
30.388
30.361
30.335
30.309
30.284
30.261
30.243
30.23
30.226
30.235
30.257
30.296
30.354
30.433
30.534
30.66
30.809
30.982
31.177
31.391
31.623
31.869
32.126
32.389
32.655
32.922
33.185
33.442
33.69
33.927
34.151
34.36
34.553
34.729
34.888
35.03
35.154
35.26
35.35
35.424
35.482
35.526
35.557
35.576
35.582
35.579
35.569
35.551
35.528
35.5
35.469
35.435
35.398
35.359
35.321
35.283
35.246
35.209
35.172
35.134
35.096
35.056
35.016
34.973
34.929
34.882
34.833
34.782
34.727
34.669
34.605
34.537
34.464
34.387
34.309
34.228
34.147
34.065
33.987
33.913
33.845
33.785
33.733
33.691
33.658
33.634
33.62
33.615
33.616
33.624
33.634
33.647
33.66
33.672
33.683
33.69
33.693
33.692
33.687
33.678
33.665
33.648
33.625
33.59
33.55
33.507
33.464
33.416
33.368
33.33
33.306
33.299
33.308
33.329
33.356
33.384
33.406
33.417
33.414
33.393
33.355
33.301
33.232
33.15
33.059
32.964
32.868
32.776
32.69
32.612
32.546
32.491
32.448
32.416
32.393
32.378
32.368
32.36
32.351
32.34
32.327
32.309
32.287
32.259
32.226
32.188
32.147
32.103
32.057
32.011
31.964
31.919
31.876
31.836
31.8
31.769
31.742
31.718
31.696
31.676
31.657
31.64
31.621
31.601
31.58
31.557
31.534
31.509
31.483
31.456
31.427
31.397
31.367
31.335
31.302
31.27
31.237
31.204
31.172
31.14
31.111
31.086
31.069
31.06
31.062
31.074
31.099
31.137
31.19
31.258
31.342
31.443
31.562
31.698
31.851
32.02
32.203
32.4
32.608
32.826
33.051
33.282
33.515
33.748
33.978
34.202
34.419
34.626
34.821
35.002
35.167
35.314
35.443
35.553
35.642
35.711
35.761
35.793
35.81
35.813
35.805
35.786
35.759
35.727
35.691
35.654
35.616
35.58
35.547
35.518
35.492
35.469
35.45
35.432
35.416
35.399
35.381
35.36
35.333
35.301
35.262
35.217
35.165
35.106
35.041
34.971
34.897
34.82
34.742
34.664
34.589
34.517
34.451
34.392
34.34
34.296
34.261
34.234
34.215
34.202
34.195
34.192
34.192
34.192
34.193
34.193
34.192
34.189
34.183
34.175
34.165
34.152
34.137
34.121
34.104
34.087
34.069
34.052
34.036
34.022
34.009
33.997
33.985
33.973
33.96
33.945
33.926
33.904
33.879
33.85
33.817
33.781
33.742
33.699
33.653
33.605
33.557
33.509
33.463
33.42
33.381
33.345
33.311
33.279
33.249
33.217
33.184
33.149
33.114
33.078
33.043
33.009
32.974
32.938
32.9
32.861
32.82
32.778
32.735
32.691
32.646
32.601
32.557
32.516
32.479
32.445
32.416
32.392
32.372
32.354
32.336
32.319
32.3
32.279
32.256
32.229
32.199
32.165
32.129
32.093
32.057
32.023
31.991
31.962
31.936
31.913
31.893
31.876
31.861
31.848
31.836
31.825
31.813
31.8
31.786
31.769
31.75
31.73
31.707
31.682
31.656
31.63
31.605
31.581
31.558
31.538
31.522
31.512
31.511
31.52
31.543
31.582
31.639
31.716
31.812
31.93
32.067
32.224
32.399
32.592
32.8
33.019
33.247
33.481
33.718
33.955
34.189
34.417
34.637
34.847
35.046
35.233
35.407
35.569
35.718
35.854
35.977
36.088
36.186
36.271
36.343
36.402
36.447
36.477
36.493
36.494
36.483
36.461
36.429
36.389
36.344
36.296
36.248
36.2
36.152
36.107
36.065
36.026
35.99
35.958
35.928
35.899
35.872
35.846
35.82
35.793
35.765
35.736
35.704
35.671
35.635
35.597
35.558
35.516
35.472
35.428
35.383
35.338
35.294
35.253
35.216
35.181
35.15
35.122
35.097
35.073
35.051
35.03
35.009
34.987
34.964
34.941
34.915
34.888
34.859
34.829
34.799
34.769
34.741
34.715
34.691
34.672
34.656
34.645
34.639
34.636
34.638
34.643
34.649
34.655
34.66
34.662
34.658
34.646
34.627
34.598
34.56
34.514
34.46
34.401
34.338
34.274
34.21
34.147
34.087
34.03
33.978
33.929
33.884
33.845
33.81
33.779
33.752
33.727
33.703
33.68
33.657
33.632
33.605
33.576
33.544
33.511
33.476
33.44
33.403
33.364
33.325
33.285
33.245
33.204
33.164
33.125
33.085
33.047
33.01
32.972
32.935
32.898
32.859
32.82
32.779
32.738
32.696
32.655
32.615
32.578
32.545
32.515
32.489
32.466
32.446
32.428
32.413
32.4
32.389
32.379
32.368
32.356
32.343
32.327
32.309
32.289
32.268
32.245
32.222
32.199
32.175
32.152
32.13
32.106
32.083
32.059
32.037
32.015
31.993
31.973
31.952
31.932
31.913
31.894
31.876
31.86
31.846
31.835
31.827
31.825
31.829
31.842
31.866
31.903
31.955
32.023
32.109
32.215
32.34
32.487
32.654
32.841
33.047
33.268
33.503
33.75
34.004
34.262
34.521
34.776
35.024
35.262
35.487
35.696
35.886
36.055
36.201
36.324
36.424
36.502
36.558
36.596
36.617
36.626
36.624
36.616
36.603
36.588
36.574
36.561
36.551
36.544
36.54
36.538
36.536
36.536
36.537
36.536
36.533
36.527
36.516
36.502
36.482
36.458
36.43
36.399
36.366
36.33
36.292
36.254
36.215
36.176
36.137
36.098
36.061
36.026
35.993
35.963
35.936
35.911
35.888
35.866
35.845
35.824
35.802
35.778
35.752
35.725
35.696
35.667
35.638
35.609
35.583
35.559
35.538
35.52
35.504
35.493
35.483
35.477
35.472
35.469
35.466
35.462
35.457
35.451
35.443
35.435
35.425
35.413
35.4
35.386
35.37
35.351
35.329
35.305
35.278
35.248
35.215
35.179
35.141
35.101
35.06
35.018
34.974
34.929
34.883
34.836
34.787
34.739
34.69
34.642
34.596
34.551
34.508
34.468
34.431
34.397
34.366
34.338
34.313
34.29
34.269
34.248
34.226
34.202
34.176
34.147
34.115
34.079
34.04
33.997
33.951
33.902
33.852
33.802
33.753
33.706
33.662
33.622
33.586
33.555
33.527
33.503
33.481
33.462
33.444
33.427
33.409
33.39
33.37
33.348
33.324
33.297
33.269
33.24
33.21
33.18
33.151
33.124
33.098
33.074
33.051
33.03
33.009
32.988
32.968
32.947
32.927
32.907
32.886
32.865
32.844
32.822
32.8
32.777
32.753
32.728
32.702
32.675
32.647
32.619
32.592
32.567
32.544
32.525
32.509
32.497
32.488
32.481
32.477
32.474
32.471
32.467
32.462
32.454
32.443
32.429
32.411
32.39
32.366
32.34
32.314
32.287
32.262
32.24
32.222
32.21
32.206
32.212
32.23
32.262
32.311
32.379
32.467
32.577
32.709
32.862
33.037
33.232
33.446
33.676
33.918
34.17
34.426
34.685
34.942
35.195
35.442
35.681
35.911
36.13
36.338
36.533
36.715
36.884
37.038
37.177
37.301
37.409
37.501
37.578
37.642
37.694
37.733
37.762
37.782
37.795
37.801
37.802
37.799
37.793
37.785
37.777
37.768
37.76
37.752
37.745
37.738
37.731
37.723
37.715
37.704
37.691
37.674
37.653
37.627
37.597
37.564
37.527
37.486
37.442
37.395
37.347
37.298
37.251
37.207
37.165
37.127
37.094
37.064
37.038
37.015
36.994
36.974
36.955
36.937
36.918
36.9
36.88
36.859
36.838
36.817
36.798
36.781
36.766
36.755
36.748
36.746
36.747
36.752
36.759
36.768
36.776
36.783
36.788
36.79
36.789
36.783
36.771
36.753
36.729
36.698
36.662
36.621
36.577
36.532
36.487
36.445
36.405
36.368
36.336
36.307
36.282
36.261
36.241
36.223
36.204
36.182
36.156
36.126
36.09
36.049
36.003
35.952
35.897
35.839
35.777
35.715
35.652
35.59
35.529
35.472
35.417
35.367
35.321
35.28
35.243
35.211
35.182
35.156
35.131
35.107
35.082
35.056
35.027
34.995
34.961
34.923
34.882
34.84
34.797
34.755
34.713
34.674
34.636
34.602
34.571
34.544
34.519
34.498
34.478
34.46
34.442
34.424
34.404
34.381
34.355
34.325
34.291
34.255
34.216
34.175
34.133
34.09
34.048
34.009
33.971
33.937
33.906
33.88
33.859
33.842
33.83
33.82
33.813
33.807
33.801
33.794
33.785
33.773
33.758
33.739
33.716
33.687
33.654
33.617
33.577
33.534
33.489
33.444
