Trial 1:0back
38.555
38.391
38.236
38.091
37.954
37.824
37.701
37.586
37.477
37.375
37.278
37.186
37.097
37.01
36.922
36.834
36.744
36.652
36.56
36.466
36.371
36.277
36.186
36.098
36.013
35.931
35.852
35.777
35.706
35.64
35.579
35.525
35.478
35.439
35.407
35.38
35.358
35.342
35.33
35.321
35.314
35.31
35.307
35.305
35.304
35.302
35.301
35.299
35.296
35.292
35.288
35.282
35.275
35.266
35.254
35.24
35.223
35.204
35.181
35.155
35.126
35.094
35.06
35.023
34.984
34.945
34.904
34.861
34.817
34.772
34.727
34.683
34.64
34.598
34.557
34.517
34.478
34.438
34.397
34.355
34.312
34.267
34.22
34.171
34.121
34.072
34.023
33.975
33.926
33.878
33.831
33.784
33.739
33.696
33.654
33.615
33.579
33.545
33.515
33.487
33.46
33.435
33.411
33.386
33.361
33.336
33.311
33.284
33.252
33.208
33.15
33.081
33.005
32.928
32.854
32.788
32.735
32.698
32.677
32.675
32.694
32.731
32.788
32.864
32.96
33.075
33.208
33.359
33.526
33.709
33.905
34.112
34.327
34.55
34.777
35.01
35.247
35.491
35.741
36.0
36.268
36.545
36.83
37.119
37.411
37.699
37.977
38.239
38.479
38.692
38.873
39.021
39.133
39.21
39.253
39.265
39.247
39.202
39.134
39.047
38.944
38.827
38.702
38.571
38.439
38.309
38.184
38.066
37.956
37.856
37.765
37.681
37.604
37.531
37.462
37.395
37.327
37.261
37.194
37.126
37.059
36.991
36.922
36.853
36.782
36.711
36.639
36.565
36.492
36.419
36.348
36.278
36.211
36.148
36.091
36.039
35.992
35.951
35.915
35.884
35.858
35.835
35.816
35.802
35.792
35.786
35.786
35.79
35.796
35.804
35.81
35.815
35.816
35.815
35.812
35.805
35.796
35.783
35.768
35.75
35.729
35.703
35.674
35.642
35.607
35.569
35.528
35.484
35.438
35.389
35.339
35.288
35.238
35.189
35.14
35.09
35.038
34.986
34.935
34.885
34.836
34.789
34.744
34.7
34.658
34.617
34.578
34.539
34.502
34.463
34.423
34.382
34.339
34.296
34.251
34.205
34.157
34.108
34.058
34.009
33.961
33.914
33.869
33.826
33.784
33.743
33.704
33.666
33.63
33.593
33.555
33.515
33.475
33.434
33.394
33.353
33.313
33.275
33.238
33.204
33.172
33.143
33.119
33.099
33.086
33.081
33.087
33.107
33.141
33.191
33.259
33.346
33.454
33.581
33.728
33.894
34.077
34.275
34.484
34.701
34.923
35.149
35.376
35.602
35.825
36.044
36.259
36.469
36.673
36.871
37.063
37.25
37.431
37.606
37.775
37.936
38.087
38.226
38.349
38.455
38.542
38.609
38.653
38.676
38.677
38.658
38.622
38.569
38.502
38.424
38.338
38.247
38.152
38.056
37.959
37.863
37.768
37.674
37.582
37.49
37.401
37.314
37.231
37.151
37.073
36.999
36.927
36.857
36.789
36.723
36.659
36.596
36.535
36.476
36.42
36.368
36.321
36.278
36.24
36.206
36.175
36.146
36.12
36.095
36.071
36.049
36.028
36.008
35.991
35.975
35.961
35.949
35.936
35.925
35.913
35.902
35.891
35.881
35.87
35.858
35.846
35.832
35.815
35.793
35.768
35.738
35.705
35.669
35.63
35.59
35.55
35.51
35.468
35.426
35.381
35.334
35.285
35.232
35.176
35.119
35.062
35.007
34.953
34.9
34.85
34.801
34.752
34.703
34.654
34.605
34.556
34.507
34.458
34.409
34.362
34.316
34.271
34.226
34.18
34.133
34.084
34.035
33.982
33.921
33.851
33.773
33.691
33.609
33.529
33.455
33.388
33.33
33.281
33.243
33.214
33.194
33.18
33.171
33.167
33.166
33.166
33.166
33.166
33.163
33.155
33.142
33.125
33.104
33.082
33.061
33.042
33.027
33.02
33.023
33.04
33.075
33.129
33.204
33.301
33.42
33.561
33.722
33.903
34.1
34.311
34.533
34.761
34.995
35.23
35.464
35.694
35.918
36.136
36.347
36.55
36.746
36.934
37.114
37.287
37.452
37.61
37.76
37.902
38.035
38.156
38.264
38.353
38.423
38.472
38.502
38.513
38.506
38.483
38.444
38.389
38.321
38.242
38.155
38.063
37.966
37.867
37.768
37.668
37.568
37.47
37.374
37.28
37.189
37.1
37.012
36.925
36.838
36.752
36.669
36.589
36.512
36.441
36.375
36.314
36.258
36.205
36.156
36.109
36.064
36.022
35.982
35.946
35.914
35.886
35.862
35.84
35.821
35.806
35.792
35.78
35.77
35.76
35.752
35.745
35.739
35.734
35.73
35.725
35.719
35.711
35.7
35.687
35.671
35.654
35.635
35.615
35.601
35.601
35.613
35.636
35.664
35.69
35.71
35.717
35.707
35.68
35.634
35.572
35.493
35.401
35.3
35.191
35.079
34.966
34.857
34.753
34.657
34.571
34.494
34.424
34.36
34.302
34.249
34.199
34.151
34.107
34.066
34.027
33.991
33.957
33.924
33.89
33.856
33.82
33.782
33.744
33.705
33.665
33.625
33.586
33.548
33.511
33.476
33.441
33.407
33.374
33.341
33.308
33.276
33.244
33.211
33.177
33.142
33.107
33.07
33.034
32.997
32.958
32.917
32.873
32.829
32.787
32.748
32.715
32.69
32.677
32.677
32.694
32.729
32.783
32.858
32.953
33.07
33.208
33.367
33.544
33.737
33.941
34.153
34.369
34.588
34.804
35.017
35.224
35.424
35.615
35.797
35.969
36.13
36.28
36.418
36.543
36.656
36.758
36.85
36.93
37.0
37.06
37.11
37.151
37.184
37.21
37.228
37.239
37.243
37.238
37.226
37.208
37.186
37.16
37.132
37.101
37.067
37.029
36.989
36.947
36.902
36.856
36.807
36.756
36.702
36.645
36.585
36.522
36.459
36.395
36.329
36.263
36.196
36.129
36.062
35.996
35.93
35.867
35.807
35.75
35.698
35.65
35.609
35.575
35.548
35.529
35.518
35.512
35.512
35.514
35.518
35.524
35.53
35.538
35.545
35.553
35.559
35.563
35.563
35.56
35.552
35.54
35.525
35.508
35.488
35.466
35.443
35.42
35.397
35.372
35.346
35.318
35.287
35.254
35.219
35.182
35.143
35.105
35.066
35.025
34.983
34.938
34.891
34.842
34.791
34.74
34.689
34.64
34.591
34.542
34.493
34.444
34.395
34.347
34.299
34.252
34.207
34.163
34.12
34.078
34.037
33.996
33.955
33.912
33.868
33.822
33.776
33.731
33.685
33.64
33.595
33.552
33.508
33.465
33.423
33.383
33.345
33.309
33.276
33.246
33.218
33.191
33.165
33.139
33.113
33.088
33.063
33.041
33.02
33.001
32.985
32.971
32.961
32.954
32.952
32.959
32.975
33.003
33.044
33.1
33.173
33.263
33.372
33.499
33.645
33.81
33.989
34.181
34.381
34.589
34.8
35.011
35.219
35.421
35.614
35.798
35.97
36.129
36.276
36.411
36.532
36.64
36.733
36.811
36.875
36.925
36.962
36.987
37.001
37.005
37.002
36.992
36.978
36.96
36.94
36.919
36.898
36.877
36.856
36.836
36.815
36.794
36.769
36.742
36.711
36.675
36.636
36.593
36.546
36.495
36.441
36.384
36.324
36.263
36.201
36.138
36.075
36.013
35.952
35.892
35.834
35.779
35.728
35.68
35.637
35.598
35.563
35.534
35.509
35.491
35.482
35.484
35.497
35.519
35.547
35.575
35.599
35.617
35.628
35.63
35.625
35.613
35.596
35.574
35.548
35.52
35.49
35.459
35.427
35.395
35.363
35.332
35.302
35.275
35.25
35.225
35.201
35.177
35.152
35.126
35.097
35.064
35.029
34.991
34.95
34.907
34.862
34.816
34.77
34.723
34.674
34.625
34.575
34.526
34.478
34.432
34.387
34.344
34.302
34.26
34.217
34.172
34.128
34.084
34.04
33.997
33.955
33.914
33.875
33.837
33.798
33.76
33.72
33.679
33.632
33.579
33.523
33.466
33.41
33.355
33.303
33.255
33.21
33.17
33.134
33.103
33.078
33.056
33.037
33.019
33.001
32.982
32.961
32.939
32.916
32.891
32.866
32.842
32.821
32.802
32.79
32.786
32.794
32.816
32.856
32.916
32.999
33.106
33.235
33.386
33.557
33.746
33.95
34.164
34.387
34.615
34.848
35.082
35.317
35.55
35.78
36.004
36.222
36.432
36.632
36.824
37.007
37.182
37.347
37.503
37.65
37.788
37.918
38.038
38.147
38.245
38.33
38.399
38.453
38.489
38.508
38.51
38.495
38.461
38.41
38.343
38.264
38.173
38.075
37.972
37.864
37.753
37.642
37.529
37.417
37.306
37.197
37.09
36.987
36.887
36.791
36.7
36.612
36.529
36.449
36.372
36.299
36.231
36.166
36.105
36.048
35.995
35.946
35.901
35.861
35.827
35.801
35.78
35.764
35.754
35.748
35.746
35.747
35.751
35.755
35.758
35.76
35.759
35.755
35.748
35.739
35.728
35.713
35.695
35.674
35.652
35.63
35.61
35.59
35.57
35.55
35.528
35.503
35.474
35.443
35.409
35.372
35.333
35.29
35.245
35.197
35.146
35.091
35.034
34.975
34.915
34.857
34.799
34.744
34.691
34.64
34.591
34.543
34.496
34.448
34.401
34.355
34.31
34.267
34.226
34.187
34.147
34.107
34.066
34.024
33.981
33.937
33.893
33.848
33.804
33.76
33.715
33.671
33.628
33.586
33.545
33.506
33.469
33.433
33.399
33.366
33.332
33.298
33.261
33.223
33.184
33.145
33.106
33.068
33.033
32.998
32.965
32.933
32.901
32.872
32.846
32.823
32.807
32.798
32.8
32.814
32.842
32.887
32.951
33.034
33.137
33.262
33.408
33.576
33.764
33.97
34.192
34.427
34.672
34.925
35.183
35.445
35.711
35.979
36.251
36.526
36.802
37.08
37.356
37.628
37.892
38.143
38.376
38.587
38.771
38.924
39.043
39.129
39.18
39.199
39.187
39.146
39.081
38.995
38.892
38.773
38.644
38.509
38.37
38.231
38.093
37.96
37.832
37.71
37.595
37.487
37.384
37.286
37.194
37.104
37.017
36.932
36.848
36.764
36.682
36.6
36.52
36.44
36.361
36.283
36.207
36.133
36.064
35.999
35.939
35.883
35.831
35.784
35.743
35.708
35.679
35.655
35.637
35.622
35.61
35.6
35.593
35.586
35.581
35.575
35.567
35.559
35.55
35.539
35.527
35.513
35.499
35.483
35.467
35.451
35.433
35.415
35.396
35.375
35.354
35.332
35.309
35.286
35.261
35.233
35.201
35.167
35.131
35.093
35.053
35.011
34.969
34.929
34.892
34.857
34.824
34.792
34.758
34.722
34.681
34.635
34.584
34.529
34.47
34.407
34.341
34.273
34.204
34.134
34.065
33.999
33.935
33.874
33.817
33.762
33.711
33.662
33.616
33.573
33.532
33.495
33.46
33.428
33.396
33.364
33.332
33.298
33.264
33.228
33.192
33.155
33.119
33.082
33.045
33.008
32.971
32.934
32.896
32.858
32.821
32.786
32.752
32.719
32.688
32.657
32.629
32.604
32.584
32.572
32.571
32.585
32.614
32.661
32.727
32.814
32.925
33.057
33.211
33.382
33.571
33.776
33.993
34.222
34.458
34.699
34.944
35.19
35.435
35.68
35.923
36.166
36.408
36.65
36.893
37.134
37.372
37.603
37.824
38.031
38.22
38.387
38.528
38.639
38.721
38.772
38.794
38.788
38.757
38.702
38.628
38.538
38.434
38.321
38.2
38.074
37.947
37.819
37.693
37.572
37.455
37.345
37.242
37.145
37.054
36.968
36.887
36.809
36.733
36.658
36.583
36.508
36.432
36.355
36.277
36.198
36.119
36.039
35.961
35.885
35.813
35.746
35.686
35.633
35.588
35.551
35.519
35.493
35.473
35.459
35.45
35.446
35.445
35.446
35.449
35.455
35.462
35.471
35.48
35.489
35.496
35.5
35.5
35.494
35.483
35.467
35.446
35.419
35.388
35.354
35.317
35.278
35.237
35.195
35.153
35.111
35.071
35.032
34.993
34.956
34.919
34.882
34.844
34.808
34.771
34.735
34.697
34.659
34.619
34.577
34.534
34.49
34.444
34.397
34.347
34.297
34.244
34.191
34.137
34.084
34.031
33.98
33.929
33.879
33.832
33.786
33.74
33.696
33.652
33.609
33.568
33.527
33.486
33.446
33.406
33.364
33.32
33.277
33.233
33.191
33.15
33.11
33.071
33.035
32.999
32.964
32.93
32.897
32.865
32.833
32.803
32.774
32.746
32.72
32.693
32.667
32.64
32.616
32.593
32.575
32.563
32.559
32.566
32.585
32.618
32.666
32.731
32.814
32.918
33.041
33.184
33.347
33.529
33.726
33.937
34.157
34.385
34.619
34.854
35.088
35.319
35.546
35.767
35.98
36.184
36.378
36.562
36.735
36.895
37.043
37.18
37.305
37.421
37.528
37.628
37.72
37.803
37.877
37.94
37.99
38.027
38.049
38.055
38.044
38.017
37.973
37.915
37.845
37.766
37.68
37.589
37.495
37.399
37.302
37.204
37.106
37.011
36.917
36.826
36.737
36.65
36.566
36.484
36.404
36.326
36.249
36.173
36.098
36.023
35.95
35.878
35.81
35.746
35.685
35.628
35.577
35.533
35.495
35.462
35.435
35.411
35.391
35.374
35.361
35.351
35.345
35.341
35.339
35.338
35.338
35.339
35.342
35.343
35.343
35.34
35.335
35.327
35.317
35.304
35.288
35.269
35.247
35.222
35.195
35.166
35.137
35.106
35.073
35.036
34.998
34.956
34.913
34.869
34.823
34.776
34.728
34.68
34.632
34.584
34.537
34.49
34.444
34.397
34.351
34.304
34.258
34.213
34.168
34.124
34.082
34.041
34.001
33.962
33.924
33.886
33.849
33.813
33.78
33.748
33.72
33.695
33.673
33.653
33.635
33.617
33.597
33.575
33.549
33.519
33.485
33.449
33.41
33.371
33.332
33.293
33.255
33.218
33.183
33.15
33.121
33.094
33.07
33.047
33.026
33.005
32.985
32.964
32.943
32.923
32.907
32.895
32.89
32.892
32.904
32.927
32.962
33.012
33.078
33.164
33.269
33.396
33.542
33.707
33.889
34.084
34.289
34.501
34.715
34.929
35.139
35.343
35.539
35.725
35.901
36.066
36.219
36.358
36.483
36.592
36.687
36.767
36.832
36.885
36.929
36.963
36.988
37.004
37.012
37.012
37.006
36.993
36.973
36.947
36.915
36.878
36.836
36.79
36.742
36.693
36.642
36.591
36.539
36.487
36.434
36.379
36.321
36.26
36.197
36.132
36.067
36.002
35.938
35.873
35.809
35.744
35.68
35.615
35.552
35.491
35.433
35.376
35.324
35.275
35.232
35.194
35.162
35.135
35.115
35.099
35.089
35.084
35.085
35.092
35.104
35.119
35.138
35.157
35.178
35.198
35.212
35.216
35.21
35.196
35.176
35.152
35.127
35.1
35.075
35.051
35.03
35.012
34.999
34.99
34.984
34.979
34.973
34.968
34.961
34.952
34.94
34.925
34.905
34.88
34.851
34.819
34.784
34.746
34.708
34.668
34.627
34.585
34.545
34.505
34.467
34.428
34.388
34.346
34.304
34.26
34.214
34.168
34.121
34.073
34.024
33.976
33.928
33.882
33.838
33.794
33.751
33.71
33.669
33.629
33.589
33.55
33.512
33.474
33.439
33.405
33.372
33.336
33.287
33.227
33.155
33.078
32.999
32.924
32.856
32.798
32.753
32.721
32.701
32.693
32.695
32.704
32.72
32.742
32.769
32.8
32.837
32.879
32.93
32.99
33.062
33.147
33.247
33.363
33.494
33.642
33.806
33.986
34.181
34.387
34.601
34.822
35.045
35.265
35.481
35.69
35.891
36.083
36.264
36.435
36.594
36.74
36.873
36.991
37.094
37.182
37.253
37.309
37.35
37.378
37.393
37.399
37.396
37.386
37.371
37.351
37.327
37.299
37.269
37.235
37.198
37.159
37.119
37.078
37.037
36.997
36.957
36.918
36.879
36.838
36.795
36.75
36.701
36.649
36.593
36.534
36.473
36.411
36.348
36.286
36.225
36.166
36.109
36.053
36.001
35.952
35.907
35.869
35.837
35.81
35.789
35.772
35.759
35.749
35.742
35.739
35.74
35.745
35.753
35.764
35.778
35.793
35.809
35.824
35.839
35.851
35.859
35.864
35.865
35.863
35.859
35.853
35.844
35.832
35.815
35.796
35.772
35.745
35.714
35.68
35.643
35.605
35.565
35.523
35.48
35.434
35.387
35.338
35.287
35.236
35.185
35.134
35.084
35.034
34.985
34.937
34.89
34.845
34.8
34.755
34.71
34.664
34.616
34.568
34.519
34.47
34.421
34.371
34.322
34.274
34.228
34.183
34.138
34.094
34.048
34.002
33.956
33.909
33.863
33.816
33.769
33.722
33.675
33.628
33.583
33.539
33.495
33.452
33.41
33.369
33.331
33.295
33.261
33.227
33.194
33.162
33.131
33.102
33.075
33.051
33.029
33.012
33.0
32.997
33.005
33.029
33.068
33.126
33.206
33.307
33.431
33.577
33.743
33.927
34.127
34.34
34.564
34.795
35.031
35.27
35.509
35.744
35.974
36.197
36.409
36.61
36.798
36.974
37.137
37.289
37.431
37.564
37.69
37.808
37.92
38.025
38.121
38.208
38.287
38.355
38.411
38.455
38.486
38.503
38.507
38.498
38.477
38.445
38.404
38.353
38.294
38.226
38.149
38.064
37.973
37.875
37.772
37.666
37.56
37.455
37.353
37.254
37.158
37.065
36.975
36.887
36.799
36.714
36.63
36.548
36.469
36.394
36.325
36.261
36.203
36.15
36.103
36.061
36.023
35.989
35.958
35.93
35.906
35.885
35.868
35.855
35.844
35.836
35.83
35.825
35.821
35.818
35.815
35.813
35.811
35.809
35.807
35.804
35.8
35.796
35.788
35.778
35.762
35.742
35.718
35.689
35.656
35.619
35.581
35.539
35.496
35.45
35.403
35.355
35.305
35.254
35.201
35.147
35.093
35.038
34.985
34.944
34.917
34.903
34.899
34.9
34.901
34.898
34.885
34.859
34.819
34.765
34.697
34.618
34.53
34.435
34.337
34.238
34.141
34.049
33.962
33.883
33.812
33.748
33.692
33.643
33.6
33.564
33.532
33.503
33.476
33.451
33.427
33.403
33.379
33.354
33.328
33.301
33.272
33.242
33.211
33.18
33.147
33.113
33.08
33.048
33.019
32.993
32.971
32.955
32.945
32.943
32.952
32.973
33.008
33.06
33.129
33.218
33.326
33.456
33.607
33.777
33.964
34.165
34.377
34.598
34.824
35.053
35.282
35.509
35.732
35.949
36.16
36.363
36.557
36.743
36.919
37.087
37.246
37.398
37.543
37.68
37.81
37.931
38.043
38.147
38.24
38.322
38.391
38.447
38.488
38.513
38.521
38.51
38.482
38.436
38.374
38.298
38.211
38.114
38.012
37.907
37.802
37.697
37.595
37.495
37.398
37.304
37.212
37.121
37.032
36.945
36.859
36.775
36.693
36.614
36.538
36.464
36.39
36.319
36.249
36.18
36.114
36.051
35.993
35.94
35.893
35.852
35.816
35.786
35.762
35.742
35.727
35.715
35.707
35.702
35.7
35.701
35.704
35.71
35.717
35.724
35.729
35.732
35.731
35.725
35.714
35.698
35.678
35.655
35.63
35.601
35.57
35.537
35.501
35.462
35.422
35.379
35.334
35.29
35.246
35.203
35.16
35.119
35.078
35.038
34.995
34.951
34.904
34.856
34.805
34.754
34.702
34.649
34.597
34.545
34.492
34.44
34.387
34.335
34.284
34.234
34.18
34.122
34.058
33.99
33.92
33.851
33.785
33.724
33.668
33.617
33.572
33.533
33.5
33.473
33.449
33.429
33.41
33.392
33.373
33.354
33.335
33.314
33.291
33.266
33.239
33.212
33.184
33.156
33.128
33.1
33.072
33.043
33.015
32.988
32.961
32.936
32.914
32.894
32.881
32.877
32.884
32.905
32.941
32.993
33.064
33.155
33.267
33.401
33.553
33.724
33.911
34.112
34.324
34.547
34.776
35.008
35.241
35.47
35.695
35.918
36.143
36.368
36.59
36.806
37.014
37.214
37.401
37.574
37.732
37.873
37.997
38.103
38.19
38.259
38.311
38.347
38.368
38.376
38.371
38.355
38.329
38.294
38.252
38.203
38.146
38.082
38.011
37.932
37.847
37.757
37.664
37.567
37.469
37.371
37.272
37.175
37.079
36.984
36.89
36.798
36.707
36.618
36.53
36.444
36.361
36.282
36.207
36.137
36.073
36.013
35.958
35.908
35.862
35.822
35.787
35.759
35.737
35.72
35.708
35.7
35.702
35.722
35.757
35.804
35.858
35.913
35.964
36.005
36.034
36.05
36.052
36.038
36.01
35.969
35.917
35.857
35.79
35.719
35.647
35.576
35.51
35.449
35.394
35.345
35.301
35.261
35.224
35.19
35.157
35.126
35.096
35.065
35.035
35.004
34.972
34.938
34.9
34.858
34.812
34.76
34.705
34.647
34.587
34.526
34.466
34.405
34.345
34.285
34.227
34.171
34.115
34.059
34.004
33.948
33.892
33.838
33.786
33.735
33.686
33.638
33.592
33.546
33.502
33.46
33.419
33.379
33.339
33.301
33.263
33.225
33.188
33.151
33.115
33.081
33.047
33.015
32.984
32.956
32.929
32.904
32.879
32.854
32.83
32.806
32.781
32.756
32.732
32.708
32.687
32.667
32.651
32.639
32.633
32.634
32.646
32.67
32.71
32.767
32.844
32.942
33.062
33.203
33.365
33.545
33.74
33.947
34.163
34.388
34.617
34.849
35.08
35.309
35.532
35.748
35.953
36.147
36.329
36.498
36.652
36.789
36.91
37.015
37.106
37.185
37.252
37.31
37.36
37.402
37.439
37.47
37.496
37.519
37.537
37.551
37.561
37.565
37.564
37.557
37.542
37.519
37.489
37.452
37.408
37.359
37.305
37.245
37.18
37.11
37.034
36.954
36.871
36.784
36.695
36.605
36.512
36.42
36.329
36.241
36.158
36.078
36.005
35.938
35.876
35.82
35.769
35.722
35.681
35.645
35.613
35.587
35.565
35.546
35.53
35.515
35.503
