Trial 1:0back
41.088
40.928
40.775
40.629
40.489
40.353
40.219
40.086
39.952
39.817
39.68
39.542
39.401
39.257
39.111
38.963
38.812
38.658
38.502
38.346
38.188
38.032
37.878
37.726
37.58
37.438
37.303
37.173
37.049
36.931
36.82
36.715
36.618
36.529
36.451
36.382
36.323
36.273
36.231
36.194
36.162
36.135
36.111
36.091
36.074
36.059
36.047
36.037
36.027
36.016
36.003
35.987
35.966
35.939
35.908
35.872
35.83
35.784
35.733
35.678
35.617
35.553
35.484
35.411
35.335
35.256
35.175
35.092
35.006
34.919
34.829
34.738
34.646
34.553
34.461
34.369
34.28
34.193
34.108
34.025
33.943
33.861
33.777
33.691
33.602
33.512
33.421
33.331
33.241
33.154
33.068
32.984
32.903
32.824
32.75
32.679
32.613
32.551
32.493
32.438
32.385
32.334
32.284
32.235
32.187
32.14
32.094
32.05
32.007
31.965
31.925
31.887
31.852
31.819
31.789
31.76
31.733
31.708
31.684
31.66
31.636
31.613
31.592
31.571
31.552
31.535
31.519
31.504
31.49
31.478
31.466
31.457
31.45
31.445
31.443
31.441
31.441
31.44
31.438
31.434
31.429
31.422
31.413
31.402
31.388
31.372
31.354
31.335
31.314
31.294
31.273
31.254
31.236
31.219
31.205
31.193
31.187
31.191
31.209
31.245
31.301
31.379
31.479
31.603
31.755
31.937
32.152
32.406
32.704
33.05
33.451
33.91
34.429
35.005
35.633
36.305
37.011
37.736
38.467
39.19
39.891
40.555
41.17
41.728
42.219
42.639
42.985
43.258
43.458
43.591
43.661
43.675
43.64
43.563
43.45
43.308
43.144
42.963
42.768
42.562
42.35
42.133
41.914
41.696
41.479
41.264
41.054
40.848
40.649
40.455
40.27
40.093
39.925
39.763
39.608
39.457
39.309
39.163
39.018
38.874
38.731
38.588
38.446
38.304
38.161
38.019
37.876
37.733
37.589
37.445
37.301
37.158
37.018
36.883
36.754
36.633
36.522
36.421
36.331
36.251
36.181
36.121
36.07
36.028
35.994
35.969
35.951
35.94
35.935
35.934
35.938
35.944
35.952
35.961
35.969
35.975
35.976
35.972
35.961
35.944
35.92
35.89
35.854
35.813
35.767
35.715
35.657
35.593
35.525
35.451
35.374
35.294
35.211
35.127
35.04
34.95
34.857
34.762
34.664
34.566
34.466
34.368
34.271
34.175
34.082
33.991
33.902
33.814
33.727
33.642
33.559
33.478
33.399
33.321
33.246
33.171
33.096
33.021
32.945
32.869
32.793
32.718
32.644
32.573
32.505
32.439
32.375
32.314
32.255
32.198
32.144
32.093
32.046
32.002
31.961
31.921
31.884
31.848
31.814
31.782
31.752
31.724
31.699
31.676
31.653
31.63
31.606
31.582
31.558
31.533
31.508
31.482
31.454
31.428
31.402
31.378
31.357
31.34
31.326
31.317
31.31
31.306
31.303
31.301
31.3
31.298
31.296
31.294
31.292
31.288
31.282
31.273
31.261
31.245
31.227
31.207
31.185
31.162
31.138
31.113
31.09
31.069
31.054
31.047
31.05
31.067
31.101
31.156
31.236
31.343
31.483
31.66
31.879
32.146
32.467
32.846
33.286
33.787
34.345
34.955
35.608
36.292
36.996
37.705
38.407
39.087
39.734
40.337
40.887
41.376
41.801
42.158
42.447
42.669
42.827
42.924
42.967
42.961
42.913
42.827
42.71
42.569
42.407
42.232
42.048
41.858
41.665
41.472
41.28
41.09
40.903
40.717
40.535
40.357
40.182
40.01
39.843
39.679
39.521
39.368
39.221
39.079
38.941
38.808
38.677
38.548
38.42
38.291
38.161
38.03
37.898
37.764
37.63
37.494
37.358
37.222
37.088
36.955
36.825
36.698
36.575
36.458
36.347
36.244
36.15
36.066
35.992
35.93
35.878
35.836
35.803
35.779
35.762
35.751
35.748
35.749
35.755
35.764
35.773
35.781
35.786
35.789
35.787
35.782
35.773
35.76
35.743
35.721
35.693
35.659
35.618
35.57
35.516
35.456
35.391
35.321
35.248
35.171
35.092
35.011
34.927
34.843
34.757
34.671
34.584
34.496
34.407
34.317
34.225
34.133
34.041
33.949
33.857
33.766
33.676
33.587
33.498
33.411
33.324
33.238
33.151
33.065
32.98
32.896
32.814
32.733
32.654
32.578
32.505
32.434
32.366
32.301
32.238
32.177
32.117
32.06
32.006
31.955
31.905
31.858
31.812
31.767
31.724
31.683
31.644
31.608
31.576
31.547
31.52
31.494
31.469
31.444
31.419
31.394
31.369
31.345
31.322
31.299
31.277
31.255
31.234
31.213
31.195
31.178
31.163
31.151
31.142
31.136
31.132
31.131
31.13
31.13
31.13
31.129
31.126
31.121
31.117
31.112
31.107
31.103
31.099
31.097
31.094
31.092
31.09
31.088
31.084
31.08
31.075
31.07
31.065
31.059
31.051
31.043
31.032
31.019
31.003
30.983
30.961
30.936
30.91
30.885
30.863
30.846
30.835
30.836
30.85
30.881
30.934
31.014
31.125
31.273
31.464
31.704
31.999
32.356
32.78
33.271
33.829
34.448
35.117
35.827
36.563
37.313
38.062
38.797
39.502
40.167
40.781
41.335
41.823
42.243
42.592
42.871
43.083
43.232
43.322
43.36
43.353
43.307
43.228
43.124
42.999
42.857
42.704
42.542
42.373
42.201
42.027
41.852
41.678
41.507
41.338
41.174
41.015
40.863
40.717
40.577
40.444
40.317
40.196
40.079
39.966
39.855
39.747
39.639
39.532
39.423
39.313
39.199
39.082
38.961
38.836
38.709
38.578
38.445
38.31
38.173
38.034
37.895
37.758
37.623
37.493
37.368
37.25
37.14
37.038
36.945
36.863
36.789
36.725
36.67
36.625
36.587
36.558
36.537
36.522
36.511
36.504
36.497
36.49
36.481
36.471
36.458
36.443
36.425
36.404
36.38
36.352
36.321
36.286
36.249
36.208
36.163
36.115
36.062
36.004
35.941
35.872
35.799
35.721
35.639
35.552
35.462
35.368
35.273
35.175
35.075
34.974
34.871
34.769
34.667
34.565
34.465
34.366
34.268
34.17
34.073
33.977
33.882
33.789
33.698
33.61
33.526
33.444
33.365
33.288
33.213
33.14
33.067
32.995
32.924
32.853
32.784
32.717
32.652
32.59
32.531
32.475
32.423
32.374
32.327
32.284
32.243
32.204
32.167
32.13
32.093
32.056
32.017
31.976
31.934
31.891
31.847
31.804
31.761
31.721
31.682
31.646
31.612
31.582
31.554
31.529
31.508
31.489
31.474
31.461
31.451
31.442
31.433
31.424
31.414
31.402
31.389
31.374
31.36
31.347
31.333
31.32
31.306
31.293
31.28
31.266
31.252
31.237
31.221
31.206
31.192
31.178
31.164
31.15
31.137
31.124
31.11
31.097
31.083
31.068
31.053
31.037
31.021
31.005
30.988
30.973
30.959
30.946
30.934
30.925
30.92
30.922
30.934
30.959
31.003
31.07
31.165
31.293
31.459
31.67
31.933
32.256
32.644
33.101
33.626
34.216
34.861
35.553
36.278
37.021
37.768
38.503
39.212
39.882
40.502
41.065
41.564
41.996
42.36
42.657
42.888
43.058
43.17
43.23
43.244
43.218
43.157
43.066
42.95
42.815
42.663
42.5
42.328
42.15
41.97
41.788
41.607
41.43
41.256
41.087
40.923
40.765
40.613
40.468
40.329
40.195
40.066
39.94
39.815
39.692
39.571
39.451
39.331
39.211
39.092
38.971
38.849
38.726
38.599
38.469
38.336
38.198
38.057
37.913
37.77
37.629
37.492
37.359
37.231
37.109
36.994
36.886
36.787
36.699
36.622
36.556
36.501
36.456
36.42
36.394
36.376
36.366
36.361
36.363
36.367
36.374
36.382
36.388
36.393
36.394
36.391
36.384
36.372
36.354
36.332
36.303
36.269
36.229
36.183
36.132
36.075
36.013
35.946
35.874
35.797
35.716
35.631
35.542
35.449
35.352
35.252
35.15
35.047
34.944
34.841
34.739
34.638
34.539
34.441
34.345
34.249
34.156
34.064
33.974
33.887
33.802
33.719
33.638
33.559
33.479
33.401
33.324
33.248
33.176
33.107
33.043
32.983
32.925
32.87
32.816
32.762
32.708
32.653
32.596
32.537
32.477
32.414
32.351
32.287
32.223
32.161
32.102
32.046
31.996
31.95
31.908
31.871
31.837
31.807
31.779
31.753
31.73
31.708
31.689
31.671
31.654
31.639
31.625
31.613
31.602
31.591
31.581
31.568
31.554
31.538
31.521
31.504
31.487
31.472
31.46
31.45
31.442
31.434
31.426
31.418
31.409
31.401
31.394
31.387
31.382
31.377
31.373
31.369
31.363
31.357
31.35
31.342
31.333
31.322
31.31
31.295
31.279
31.26
31.24
31.219
31.197
31.176
31.157
31.141
31.13
31.127
31.133
31.154
31.192
31.252
31.339
31.457
31.612
31.811
32.059
32.365
32.732
33.165
33.662
34.222
34.843
35.516
36.231
36.971
37.721
38.464
39.182
39.862
40.491
41.061
41.563
41.994
42.353
42.639
42.855
43.004
43.093
43.128
43.114
43.06
42.97
42.85
42.705
42.54
42.361
42.171
41.974
41.774
41.571
41.369
41.169
40.971
40.777
40.589
40.406
40.228
40.056
39.889
39.728
39.571
39.419
39.271
39.127
38.985
38.846
38.709
38.573
38.439
38.305
38.171
38.037
37.903
37.768
37.632
37.497
37.361
37.227
37.094
36.963
36.835
36.711
36.593
36.48
36.375
36.278
36.19
36.113
36.047
35.991
35.946
35.911
35.887
35.873
35.867
35.868
35.875
35.887
35.9
35.915
35.93
35.943
35.956
35.965
35.972
35.976
35.977
35.973
35.964
35.951
35.933
35.91
35.88
35.842
35.798
35.747
35.689
35.625
35.555
35.48
35.401
35.316
35.227
35.133
35.037
34.94
34.843
34.746
34.651
34.557
34.464
34.371
34.279
34.187
34.095
34.004
33.914
33.825
33.737
33.649
33.561
33.473
33.384
33.296
33.209
33.123
33.039
32.958
32.88
32.804
32.73
32.66
32.594
32.531
32.473
32.419
32.368
32.32
32.273
32.228
32.184
32.14
32.098
32.057
32.017
31.978
31.941
31.906
31.872
31.84
31.809
31.78
31.751
31.724
31.697
31.67
31.643
31.617
31.591
31.565
31.541
31.519
31.499
31.481
31.464
31.448
31.433
31.42
31.409
31.402
31.398
31.398
31.401
31.405
31.411
31.417
31.422
31.425
31.426
31.423
31.416
31.405
31.39
31.372
31.353
31.334
31.316
31.301
31.289
31.279
31.271
31.263
31.255
31.246
31.236
31.225
31.215
31.205
31.2
31.199
31.208
31.229
31.267
31.327
31.412
31.528
31.68
31.872
32.112
32.403
32.752
33.164
33.639
34.177
34.774
35.423
36.114
36.836
37.575
38.315
39.041
39.74
40.399
41.007
41.556
42.038
42.451
42.792
43.062
43.264
43.403
43.484
43.514
43.499
43.444
43.357
43.244
43.109
42.958
42.794
42.62
42.438
42.251
42.06
41.868
41.676
41.485
41.297
41.113
40.932
40.756
40.584
40.418
40.257
40.099
39.944
39.792
39.643
39.497
39.355
39.215
39.079
38.945
38.812
38.679
38.545
38.41
38.275
38.138
37.999
37.86
37.719
37.578
37.438
37.299
37.164
37.033
36.908
36.79
36.68
36.58
36.489
36.408
36.337
36.276
36.225
36.182
36.148
36.123
36.104
36.092
36.086
36.085
36.088
36.095
36.103
36.113
36.122
36.13
36.135
36.136
36.133
36.124
36.11
36.09
36.062
36.027
35.983
35.932
35.875
35.812
35.746
35.676
35.603
35.529
35.452
35.372
35.289
35.203
35.115
35.024
34.931
34.836
34.74
34.643
34.545
34.446
34.345
34.244
34.142
34.042
33.943
33.847
33.754
33.663
33.576
33.491
33.408
33.327
33.247
33.17
33.094
33.02
32.947
32.875
32.804
32.733
32.664
32.597
32.532
32.471
32.414
32.359
32.307
32.259
32.213
32.17
32.128
32.088
32.049
32.01
31.972
31.933
31.894
31.855
31.816
31.778
31.742
31.708
31.677
31.649
31.623
31.6
31.578
31.559
31.542
31.528
31.516
31.506
31.497
31.489
31.482
31.474
31.467
31.459
31.452
31.445
31.438
31.432
31.425
31.417
31.408
31.397
31.385
31.373
31.361
31.348
31.336
31.325
31.314
31.305
31.298
31.293
31.289
31.287
31.283
31.279
31.273
31.266
31.257
31.248
31.239
31.229
31.22
31.21
31.198
31.185
31.169
31.152
31.134
31.116
31.1
31.087
31.08
31.08
31.092
31.119
31.165
31.237
31.339
31.477
31.655
31.878
32.151
32.479
32.868
33.323
33.844
34.431
35.08
35.783
36.528
37.302
38.09
38.877
39.648
40.388
41.082
41.719
42.289
42.786
43.208
43.552
43.821
44.017
44.145
44.212
44.224
44.189
44.114
44.007
43.873
43.719
43.549
43.368
43.179
42.985
42.788
42.588
42.388
42.189
41.991
41.796
41.604
41.417
41.234
41.055
40.882
40.715
40.554
40.399
40.249
40.104
39.963
39.823
39.684
39.544
39.405
39.266
39.127
38.988
38.847
38.706
38.562
38.418
38.272
38.125
37.977
37.83
37.684
37.542
37.403
37.27
37.143
37.025
36.915
36.816
36.726
36.646
36.576
36.517
36.469
36.431
36.403
36.385
36.374
36.369
36.369
36.372
36.377
36.381
36.386
36.389
36.39
36.388
36.381
36.37
36.352
36.328
36.299
36.264
36.224
36.18
36.131
36.077
36.018
35.953
35.884
35.81
35.732
35.652
35.57
35.485
35.399
35.31
35.219
35.126
35.033
34.938
34.844
34.749
34.655
34.561
34.468
34.373
34.278
34.182
34.086
33.99
33.894
33.799
33.706
33.612
33.519
33.427
33.336
33.247
33.158
33.072
32.989
32.908
32.832
32.759
32.69
32.626
32.567
32.511
32.46
32.413
32.37
32.331
32.294
32.259
32.226
32.193
32.16
32.126
32.092
32.057
32.021
31.985
31.948
31.912
31.876
31.841
31.806
31.773
31.741
31.71
31.681
31.654
31.63
31.608
31.588
31.57
31.554
31.538
31.524
31.51
31.496
31.482
31.469
31.456
31.445
31.436
31.427
31.42
31.412
31.404
31.394
31.382
31.37
31.356
31.342
31.328
31.315
31.304
31.295
31.287
31.281
31.277
31.274
31.274
31.275
31.276
31.278
31.278
31.278
31.276
31.272
31.267
31.259
31.25
31.239
31.225
31.208
31.189
31.17
31.149
31.129
31.11
31.093
31.079
31.069
31.067
31.074
31.093
31.129
31.187
31.271
31.387
31.538
31.729
31.965
32.25
32.59
32.99
33.456
33.988
34.585
35.243
35.952
36.703
37.48
38.268
39.05
39.812
40.537
41.212
41.827
42.375
42.848
43.246
43.568
43.815
43.99
44.1
44.149
44.146
44.097
44.01
43.892
43.747
43.583
43.402
43.209
43.005
42.792
42.573
42.349
42.122
41.894
41.667
41.444
41.226
41.014
40.808
40.608
40.414
40.227
40.045
39.87
39.7
39.535
39.374
39.217
39.063
38.912
38.763
38.616
38.47
38.325
38.18
38.034
37.889
37.744
37.6
37.459
37.32
37.185
37.056
36.932
36.815
36.706
36.606
36.515
36.433
36.361
36.299
36.247
36.205
36.173
36.151
36.139
36.136
36.141
36.154
36.17
36.19
36.211
36.233
36.255
36.276
36.295
36.311
36.323
36.329
36.327
36.317
36.3
36.275
36.244
36.207
36.165
36.118
36.065
36.006
35.942
35.872
35.798
35.72
35.638
35.555
35.468
35.38
35.288
35.194
35.098
35.0
34.9
34.799
34.697
34.595
34.492
34.389
34.286
34.184
34.082
33.983
33.886
33.793
33.701
33.612
33.525
33.441
33.36
33.282
33.209
33.139
33.074
33.012
32.955
32.901
32.849
32.798
32.749
32.7
32.651
32.604
32.558
32.512
32.468
32.425
32.381
32.338
32.294
32.249
32.205
32.161
32.117
32.076
32.036
31.998
31.964
31.933
31.905
31.88
31.859
31.841
31.825
31.811
31.798
31.787
31.776
31.766
31.757
31.749
31.74
31.73
31.72
31.708
31.696
31.684
31.672
31.662
31.652
31.644
31.638
31.631
31.626
31.62
31.616
31.612
31.608
31.604
31.6
31.595
31.588
31.579
31.568
31.556
31.544
31.531
31.518
31.503
31.485
31.466
31.443
31.419
31.394
31.368
31.343
31.32
31.3
31.285
31.275
31.274
31.285
31.31
31.355
31.422
31.515
31.639
31.797
31.993
32.23
32.515
32.852
33.247
33.703
34.223
34.804
35.443
36.131
36.856
37.604
38.361
39.112
39.841
40.536
41.183
41.773
42.298
42.752
43.132
43.439
43.673
43.839
43.94
43.982
43.971
43.913
43.814
43.68
43.516
43.327
43.12
42.898
42.665
42.426
42.184
41.94
41.698
41.46
41.226
40.999
40.778
40.566
40.36
40.161
39.969
39.781
39.597
39.416
39.238
39.063
38.891
38.722
38.557
38.394
38.232
38.072
37.913
37.755
37.599
37.445
37.294
37.148
37.007
36.87
36.74
36.616
36.499
36.391
36.292
36.203
36.125
36.058
36.0
35.952
35.913
35.883
35.86
35.844
35.834
35.829
35.829
35.833
35.842
35.854
35.868
35.884
35.901
35.918
35.934
35.948
35.959
35.966
35.968
35.965
35.956
35.94
35.919
35.891
35.856
35.815
35.766
35.71
35.647
35.576
35.499
35.417
35.331
35.241
35.148
35.052
34.954
34.854
34.753
34.653
34.553
34.456
34.361
34.268
34.178
34.091
34.004
33.92
33.837
33.755
33.674
33.596
33.519
33.442
33.365
33.288
33.21
33.13
33.05
32.971
32.893
32.818
32.746
32.678
32.612
32.548
32.486
32.425
32.366
32.309
32.254
32.203
32.155
32.11
32.069
32.03
31.993
31.958
31.925
31.893
31.863
31.834
31.807
31.781
31.757
31.734
31.713
31.693
31.675
31.657
31.64
31.624
31.61
31.595
31.582
31.569
31.557
31.546
31.536
31.525
31.515
31.507
31.499
31.494
31.489
31.486
31.484
31.482
31.481
31.478
31.474
31.468
31.462
31.455
31.449
31.442
31.436
31.43
31.423
31.416
31.408
31.398
31.386
31.373
31.36
31.345
31.331
31.317
31.303
31.289
31.275
31.259
31.242
31.224
31.205
31.188
31.176
31.169
31.173
31.189
31.221
31.272
31.345
31.446
31.577
31.744
31.95
32.2
32.497
32.849
33.259
33.733
34.278
34.893
35.573
36.306
37.082
37.883
38.695
39.499
40.279
41.021
41.711
42.337
42.892
43.37
43.768
44.087
44.329
44.495
44.593
44.627
44.604
44.533
44.419
44.27
44.094
43.897
43.685
43.463
43.236
43.007
42.779
42.554
42.333
42.116
41.904
41.695
41.489
41.286
41.086
40.889
40.695
40.505
40.32
40.142
39.97
39.804
39.644
39.488
39.337
39.188
39.04
38.894
38.75
38.606
38.463
38.322
38.182
38.044
37.908
37.773
37.641
37.513
37.388
37.268
37.153
37.044
36.942
36.846
36.758
36.678
36.605
36.54
36.483
36.433
36.39
36.353
36.324
36.3
36.282
36.269
36.261
36.257
36.255
36.256
36.258
36.262
36.265
36.267
36.267
36.265
36.259
36.249
36.233
36.212
36.183
36.147
36.103
36.05
35.99
35.923
35.849
35.771
35.69
35.607
35.522
35.435
35.346
35.253
35.158
35.058
34.956
34.852
34.748
34.644
34.541
34.441
34.343
34.245
34.148
34.052
33.956
33.86
33.766
33.675
33.587
33.501
33.418
33.338
33.259
33.183
33.109
33.038
32.97
32.905
32.844
32.786
32.731
32.677
32.625
32.574
32.524
32.475
32.426
32.379
32.333
32.289
32.245
32.202
32.159
32.116
32.073
32.031
31.989
31.948
31.908
31.869
31.831
31.794
31.759
31.725
31.692
31.662
31.635
31.611
31.589
31.569
31.551
31.536
31.523
31.514
31.506
31.499
31.493
31.487
31.481
31.475
31.47
31.467
31.465
31.463
31.461
31.458
31.453
31.447
31.439
31.43
31.422
31.415
31.408
31.403
31.399
31.395
31.392
31.389
31.384
31.378
31.369
31.359
31.346
31.332
31.317
31.3
31.282
31.264
31.246
31.228
31.213
31.201
31.195
31.196
31.209
31.236
31.281
31.348
31.442
31.567
31.727
31.927
32.172
32.465
32.812
33.217
33.685
34.218
34.814
35.469
36.175
36.921
37.696
38.484
39.271
40.04
40.778
41.471
42.107
42.678
43.176
43.597
43.939
44.203
44.39
44.506
44.555
44.546
44.485
44.379
44.237
44.066
43.873
43.662
43.439
43.208
42.973
42.735
42.497
42.261
42.026
41.795
41.568
41.346
41.129
40.917
40.711
40.512
40.319
40.132
39.951
39.776
39.606
39.441
39.28
39.123
38.97
38.818
38.669
38.52
38.373
38.227
38.082
37.939
37.797
37.657
37.517
37.378
37.24
37.104
36.971
36.842
36.72
36.605
36.498
36.401
36.315
36.238
36.171
36.114
36.065
36.024
35.993
35.969
35.953
35.945
35.944
35.949
35.958
35.97
35.984
35.998
36.011
36.022
36.032
36.038
36.04
36.038
36.031
36.016
35.995
35.967
35.93
35.887
35.837
35.783
35.724
35.66
35.592
35.52
35.442
35.36
35.274
35.184
35.091
34.995
34.898
34.8
34.703
34.605
34.508
34.411
34.314
34.218
34.122
34.029
33.938
33.849
33.763
33.677
33.593
33.509
33.426
33.344
33.263
33.183
33.107
33.033
32.961
32.891
32.822
32.755
32.689
32.625
32.564
32.506
32.451
32.398
32.349
32.301
32.255
32.209
32.165
32.123
32.083
32.045
32.008
31.972
31.936
31.9
31.864
31.828
31.794
31.763
31.736
31.712
31.692
31.675
31.659
31.645
31.632
31.619
31.607
31.595
31.583
31.571
31.558
31.546
31.534
31.523
31.513
31.505
31.497
31.491
31.486
31.481
31.476
31.472
31.469
31.466
31.463
