Trial 1:0back
36.474
36.329
36.185
36.043
35.901
35.76
35.619
35.48
35.345
35.214
35.088
34.97
34.859
34.756
34.661
34.576
34.501
34.435
34.379
34.334
34.297
34.27
34.251
34.239
34.235
34.236
34.242
34.253
34.268
34.287
34.31
34.334
34.36
34.385
34.41
34.434
34.456
34.476
34.492
34.504
34.513
34.516
34.513
34.503
34.488
34.467
34.442
34.413
34.379
34.342
34.301
34.257
34.21
34.16
34.107
34.052
33.995
33.937
33.88
33.824
33.769
33.715
33.664
33.614
33.564
33.516
33.467
33.42
33.373
33.326
33.279
33.233
33.186
33.141
33.096
33.053
33.011
32.969
32.93
32.892
32.855
32.821
32.788
32.759
32.733
32.709
32.688
32.668
32.65
32.633
32.619
32.605
32.592
32.578
32.565
32.553
32.542
32.533
32.525
32.517
32.511
32.507
32.503
32.501
32.502
32.503
32.506
32.509
32.513
32.516
32.518
32.519
32.519
32.517
32.516
32.517
32.52
32.526
32.538
32.558
32.588
32.632
32.691
32.769
32.869
32.996
33.152
33.342
33.569
33.834
34.137
34.479
34.855
35.259
35.685
36.128
36.58
37.037
37.489
37.931
38.356
38.759
39.134
39.475
39.78
40.046
40.268
40.447
40.582
40.673
40.722
40.73
40.701
40.637
40.542
40.419
40.273
40.107
39.926
39.733
39.532
39.325
39.116
38.905
38.695
38.487
38.28
38.076
37.874
37.676
37.481
37.291
37.105
36.924
36.747
36.576
36.408
36.246
36.088
35.935
35.787
35.642
35.502
35.366
35.235
35.108
34.988
34.873
34.766
34.666
34.574
34.491
34.416
34.351
34.294
34.248
34.21
34.181
34.162
34.152
34.153
34.165
34.188
34.22
34.26
34.305
34.355
34.407
34.459
34.509
34.555
34.596
34.633
34.664
34.69
34.709
34.724
34.734
34.739
34.74
34.736
34.728
34.717
34.703
34.687
34.667
34.643
34.615
34.585
34.55
34.511
34.469
34.423
34.375
34.324
34.271
34.216
34.16
34.104
34.048
33.993
33.937
33.881
33.826
33.772
33.719
33.668
33.618
33.571
33.527
33.485
33.446
33.408
33.374
33.341
33.312
33.284
33.257
33.231
33.204
33.178
33.153
33.127
33.101
33.076
33.051
33.028
33.005
32.985
32.966
32.948
32.931
32.916
32.901
32.886
32.871
32.857
32.843
32.831
32.821
32.812
32.805
32.799
32.796
32.795
32.799
32.808
32.822
32.844
32.878
32.926
32.991
33.076
33.185
33.321
33.488
33.688
33.924
34.195
34.503
34.844
35.215
35.613
36.032
36.465
36.907
37.35
37.788
38.214
38.621
39.004
39.356
39.674
39.954
40.193
40.389
40.541
40.651
40.718
40.744
40.731
40.684
40.605
40.499
40.369
40.219
40.051
39.87
39.679
39.481
39.277
39.071
38.865
38.658
38.455
38.255
38.058
37.866
37.677
37.493
37.313
37.136
36.963
36.794
36.628
36.464
36.303
36.143
35.986
35.833
35.684
35.541
35.405
35.275
35.152
35.035
34.925
34.821
34.723
34.631
34.545
34.466
34.394
34.329
34.27
34.219
34.176
34.141
34.116
34.1
34.093
34.094
34.104
34.121
34.144
34.173
34.206
34.242
34.278
34.315
34.351
34.386
34.419
34.449
34.476
34.499
34.518
34.533
34.543
34.549
34.549
34.543
34.53
34.512
34.488
34.46
34.428
34.392
34.354
34.314
34.273
34.23
34.185
34.14
34.093
34.047
33.999
33.951
33.902
33.852
33.802
33.752
33.702
33.652
33.602
33.551
33.5
33.448
33.397
33.346
33.297
33.25
33.207
33.167
33.13
33.097
33.068
33.043
33.021
33.002
32.986
32.971
32.958
32.946
32.935
32.925
32.915
32.906
32.896
32.885
32.873
32.86
32.846
32.832
32.817
32.803
32.789
32.775
32.763
32.752
32.743
32.734
32.727
32.721
32.717
32.717
32.72
32.726
32.738
32.756
32.785
32.826
32.884
32.96
33.06
33.188
33.348
33.545
33.78
34.055
34.37
34.725
35.116
35.537
35.982
36.446
36.921
37.398
37.87
38.331
38.774
39.192
39.579
39.931
40.243
40.513
40.739
40.916
41.043
41.118
41.145
41.129
41.075
40.99
40.879
40.749
40.603
40.446
40.282
40.111
39.937
39.761
39.584
39.407
39.23
39.053
38.878
38.703
38.53
38.357
38.185
38.013
37.842
37.674
37.507
37.342
37.179
37.019
36.861
36.707
36.556
36.408
36.264
36.124
35.988
35.855
35.726
35.601
35.48
35.364
35.252
35.144
35.042
34.947
34.86
34.78
34.71
34.648
34.595
34.551
34.517
34.492
34.475
34.466
34.464
34.467
34.477
34.491
34.51
34.532
34.557
34.583
34.611
34.639
34.666
34.69
34.713
34.732
34.747
34.758
34.763
34.762
34.756
34.746
34.733
34.717
34.7
34.679
34.657
34.632
34.604
34.574
34.54
34.502
34.461
34.416
34.369
34.318
34.265
34.21
34.154
34.097
34.038
33.98
33.921
33.863
33.807
33.753
33.702
33.654
33.608
33.565
33.524
33.483
33.444
33.406
33.369
33.334
33.3
33.269
33.239
33.21
33.184
33.159
33.135
33.112
33.089
33.066
33.044
33.023
33.002
32.983
32.965
32.949
32.934
32.921
32.909
32.897
32.887
32.876
32.867
32.857
32.848
32.839
32.832
32.826
32.823
32.822
32.825
32.834
32.848
32.873
32.912
32.968
33.046
33.15
33.282
33.444
33.64
33.871
34.137
34.438
34.773
35.138
35.529
35.943
36.373
36.812
37.255
37.694
38.122
38.534
38.923
39.285
39.615
39.909
40.166
40.383
40.559
40.696
40.792
40.848
40.868
40.852
40.804
40.727
40.624
40.498
40.353
40.192
40.017
39.832
39.641
39.445
39.247
39.048
38.85
38.654
38.462
38.273
38.089
37.909
37.734
37.564
37.399
37.239
37.083
36.931
36.783
36.638
36.496
36.356
36.219
36.083
35.949
35.817
35.688
35.562
35.44
35.322
35.209
35.101
35.001
34.914
34.843
34.788
34.747
34.719
34.698
34.684
34.671
34.659
34.645
34.63
34.613
34.595
34.577
34.558
34.542
34.527
34.517
34.511
34.508
34.509
34.514
34.521
34.531
34.541
34.552
34.563
34.573
34.581
34.586
34.588
34.586
34.579
34.567
34.55
34.528
34.501
34.47
34.435
34.396
34.355
34.312
34.268
34.221
34.174
34.126
34.078
34.031
33.983
33.935
33.888
33.841
33.795
33.747
33.7
33.652
33.605
33.558
33.512
33.466
33.422
33.38
33.339
33.301
33.265
33.231
33.2
33.172
33.145
33.121
33.097
33.075
33.054
33.033
33.011
32.988
32.961
32.934
32.905
32.878
32.852
32.83
32.81
32.794
32.781
32.773
32.767
32.764
32.762
32.76
32.759
32.76
32.761
32.765
32.77
32.777
32.788
32.802
32.824
32.855
32.898
32.957
33.034
33.133
33.258
33.413
33.6
33.821
34.079
34.372
34.698
35.055
35.439
35.844
36.265
36.693
37.124
37.549
37.961
38.355
38.725
39.066
39.375
39.646
39.878
40.068
40.217
40.324
40.39
40.418
40.409
40.367
40.294
40.194
40.07
39.925
39.765
39.591
39.407
39.216
39.02
38.822
38.624
38.427
38.229
38.033
37.837
37.644
37.454
37.267
37.086
36.911
36.743
36.582
36.428
36.282
36.142
36.007
35.879
35.755
35.634
35.518
35.406
35.298
35.194
35.094
35.0
34.912
34.829
34.751
34.68
34.615
34.557
34.507
34.463
34.428
34.4
34.38
34.368
34.365
34.368
34.378
34.395
34.419
34.447
34.479
34.513
34.549
34.587
34.624
34.661
34.696
34.728
34.757
34.781
34.802
34.818
34.83
34.836
34.838
34.835
34.826
34.813
34.794
34.771
34.744
34.713
34.679
34.642
34.602
34.561
34.518
34.474
34.429
34.384
34.338
34.293
34.249
34.206
34.164
34.123
34.083
34.043
34.002
33.96
33.916
33.871
33.825
33.778
33.731
33.684
33.638
33.594
33.551
33.509
33.469
33.43
33.393
33.359
33.328
33.3
33.275
33.253
33.233
33.215
33.2
33.186
33.173
33.161
33.149
33.136
33.123
33.111
33.098
33.086
33.074
33.063
33.055
33.05
33.049
33.054
33.067
33.09
33.124
33.174
33.241
33.331
33.445
33.587
33.761
33.968
34.21
34.487
34.799
35.143
35.515
35.911
36.324
36.747
37.175
37.599
38.012
38.408
38.782
39.127
39.439
39.715
39.953
40.15
40.308
40.427
40.51
40.556
40.568
40.546
40.492
40.41
40.3
40.168
40.015
39.846
39.664
39.471
39.272
39.069
38.864
38.659
38.454
38.252
38.053
37.858
37.668
37.484
37.304
37.128
36.958
36.792
36.63
36.471
36.317
36.166
36.019
35.875
35.736
35.602
35.471
35.346
35.226
35.112
35.004
34.903
34.809
34.722
34.643
34.571
34.508
34.453
34.406
34.369
34.341
34.323
34.314
34.314
34.321
34.336
34.356
34.381
34.41
34.441
34.474
34.507
34.54
34.572
34.602
34.629
34.651
34.668
34.685
34.705
34.729
34.758
34.789
34.819
34.845
34.864
34.874
34.871
34.855
34.826
34.784
34.733
34.673
34.608
34.539
34.467
34.394
34.323
34.253
34.187
34.123
34.063
34.006
33.952
33.902
33.856
33.812
33.771
33.732
33.695
33.66
33.628
33.597
33.568
33.538
33.508
33.478
33.448
33.418
33.388
33.358
33.327
33.297
33.27
33.243
33.218
33.193
33.169
33.147
33.127
33.108
33.09
33.073
33.058
33.044
33.031
33.02
33.009
32.998
32.988
32.98
32.974
32.97
32.971
32.976
32.988
33.009
33.041
33.086
33.149
33.232
33.337
33.469
33.63
33.825
34.055
34.324
34.632
34.977
35.354
35.761
36.192
36.64
37.097
37.556
38.008
38.445
38.861
39.248
39.601
39.917
40.191
40.422
40.608
40.751
40.849
40.907
40.926
40.91
40.863
40.786
40.684
40.561
40.419
40.264
40.099
39.926
39.748
39.567
39.384
39.201
39.02
38.841
38.665
38.494
38.328
38.166
38.008
37.855
37.705
37.559
37.415
37.274
37.135
36.998
36.862
36.726
36.592
36.458
36.326
36.194
36.065
35.939
35.816
35.697
35.582
35.473
35.369
35.271
35.178
35.09
35.009
34.935
34.868
34.81
34.76
34.718
34.682
34.653
34.631
34.616
34.607
34.605
34.609
34.619
34.633
34.652
34.676
34.702
34.73
34.758
34.786
34.813
34.837
34.859
34.878
34.892
34.902
34.906
34.905
34.898
34.885
34.865
34.839
34.809
34.773
34.734
34.691
34.645
34.598
34.548
34.496
34.443
34.387
34.331
34.274
34.217
34.16
34.104
34.049
33.996
33.945
33.896
33.848
33.803
33.759
33.716
33.675
33.635
33.596
33.559
33.522
33.485
33.449
33.414
33.379
33.346
33.315
33.285
33.258
33.233
33.209
33.189
33.176
33.168
33.166
33.169
33.173
33.179
33.183
33.184
33.181
33.174
33.161
33.143
33.121
33.095
33.068
33.041
33.016
32.995
32.981
32.975
32.982
33.005
33.047
33.109
33.196
33.312
33.46
33.643
33.864
34.123
34.421
34.755
35.123
35.52
35.941
36.377
36.824
37.273
37.716
38.147
38.56
38.947
39.305
39.628
39.912
40.155
40.355
40.512
40.626
40.699
40.734
40.734
40.702
40.64
40.553
40.444
40.318
40.175
40.019
39.854
39.682
39.505
39.327
39.148
38.971
38.797
38.626
38.459
38.296
38.137
37.981
37.829
37.681
37.541
37.412
37.292
37.179
37.069
36.959
36.848
36.733
36.613
36.486
36.353
36.213
36.069
35.921
35.772
35.625
35.482
35.345
35.216
35.096
34.989
34.895
34.814
34.746
34.691
34.647
34.613
34.589
34.574
34.567
34.567
34.573
34.583
34.596
34.611
34.628
34.645
34.661
34.677
34.691
34.705
34.716
34.725
34.731
34.736
34.737
34.735
34.729
34.72
34.707
34.69
34.669
34.645
34.618
34.587
34.554
34.518
34.48
34.44
34.397
34.353
34.306
34.258
34.208
34.158
34.107
34.056
34.005
33.954
33.902
33.85
33.798
33.745
33.693
33.64
33.588
33.536
33.486
33.437
33.391
33.347
33.306
33.269
33.236
33.206
33.18
33.156
33.134
33.113
33.092
33.071
33.049
33.027
33.005
32.984
32.963
32.943
32.924
32.907
32.891
32.876
32.864
32.854
32.844
32.834
32.826
32.819
32.813
32.809
32.805
32.803
32.8
32.797
32.794
32.791
32.788
32.786
32.787
32.793
32.806
32.828
32.862
32.911
32.977
33.061
33.167
33.298
33.458
33.649
33.873
34.131
34.423
34.748
35.102
35.482
35.881
36.294
36.712
37.129
37.538
37.932
38.304
38.65
38.965
39.247
39.493
39.701
39.87
40.001
40.093
40.148
40.168
40.156
40.115
40.048
39.956
39.843
39.712
39.566
39.407
39.238
39.063
38.883
38.7
38.515
38.331
38.149
37.969
37.792
37.618
37.448
37.282
37.121
36.965
36.813
36.666
36.523
36.384
36.249
36.116
35.986
35.86
35.736
35.615
35.498
35.385
35.275
35.17
35.07
34.975
34.885
34.803
34.728
34.661
34.602
34.551
34.508
34.474
34.448
34.43
34.419
34.415
34.419
34.43
34.447
34.469
34.495
34.524
34.555
34.589
34.623
34.657
34.689
34.72
34.747
34.769
34.786
34.797
34.803
34.805
34.801
34.793
34.78
34.763
34.742
34.718
34.692
34.663
34.632
34.599
34.564
34.528
34.491
34.451
34.41
34.368
34.323
34.278
34.232
34.187
34.141
34.096
34.054
34.013
33.973
33.933
33.895
33.856
33.819
33.781
33.745
33.709
33.675
33.641
33.609
33.579
33.551
33.524
33.499
33.475
33.452
33.431
33.412
33.394
33.376
33.359
33.343
33.326
33.309
33.291
33.272
33.252
33.233
33.213
33.194
33.174
33.155
33.136
33.119
33.104
33.091
33.081
33.074
33.07
33.071
33.078
33.094
33.12
33.157
33.205
33.268
33.349
33.45
33.574
33.725
33.905
34.117
34.362
34.64
34.949
35.286
35.647
36.027
36.419
36.817
37.212
37.6
37.973
38.326
38.655
38.954
39.221
39.453
39.648
39.805
39.924
40.006
40.051
40.062
40.041
39.991
39.915
39.817
39.7
39.565
39.418
39.259
39.092
38.917
38.738
38.555
38.372
38.189
38.008
37.829
37.653
37.481
37.312
37.147
36.986
36.829
36.676
36.526
36.378
36.233
36.091
35.953
35.818
35.686
35.559
35.436
35.319
35.207
35.1
34.998
34.901
34.811
34.727
34.652
34.585
34.526
34.476
34.434
34.402
34.378
34.363
34.355
34.354
34.36
34.372
34.388
34.409
34.434
34.463
34.494
34.526
34.559
34.592
34.623
34.653
34.68
34.703
34.722
34.736
34.744
34.746
34.742
34.732
34.717
34.698
34.675
34.648
34.617
34.585
34.551
34.515
34.477
34.438
34.399
34.359
34.32
34.28
34.238
34.196
34.154
34.112
34.07
34.027
33.984
33.943
33.903
33.864
33.826
33.789
33.753
33.718
33.685
33.653
33.622
33.591
33.561
33.532
33.504
33.475
33.448
33.421
33.397
33.374
33.352
33.331
33.31
33.29
33.27
33.25
33.23
33.209
33.189
33.17
33.152
33.135
33.118
33.102
33.086
33.072
33.059
33.048
33.039
33.033
33.032
33.038
33.054
33.082
33.124
33.183
33.263
33.366
33.494
33.651
33.839
34.06
34.315
34.603
34.922
35.269
35.64
36.029
36.431
36.839
37.246
37.646
38.032
38.399
38.741
39.052
39.331
39.574
39.779
39.946
40.073
40.163
40.217
40.237
40.227
40.188
40.123
40.037
39.932
39.811
39.677
39.534
39.382
39.225
39.064
38.901
38.736
38.572
38.408
38.246
38.084
37.924
37.766
37.611
37.46
37.312
37.169
37.03
36.894
36.762
36.632
36.505
36.38
36.257
36.136
36.018
35.902
35.79
35.68
35.574
35.471
35.373
35.281
35.193
35.111
35.036
34.966
34.904
34.848
34.799
34.756
34.721
34.691
34.668
34.651
34.639
34.633
34.633
34.637
34.647
34.661
34.678
34.698
34.719
34.742
34.765
34.788
34.808
34.827
34.843
34.854
34.861
34.864
34.861
34.854
34.841
34.823
34.8
34.773
34.741
34.706
34.667
34.626
34.583
34.539
34.496
34.454
34.412
34.371
34.332
34.293
34.254
34.215
34.174
34.133
34.09
34.046
34.001
33.954
33.906
33.858
33.811
33.764
33.718
33.673
33.629
33.588
33.548
33.51
33.473
33.437
33.403
33.372
33.342
33.314
33.289
33.265
33.243
33.223
33.204
33.187
33.17
33.155
33.141
33.128
33.117
33.106
33.096
33.086
33.076
33.066
33.056
33.046
33.037
33.029
33.024
33.02
33.021
33.028
33.043
33.069
33.108
33.163
33.237
33.335
33.458
33.61
33.793
34.01
34.261
34.547
34.865
35.213
35.587
35.981
36.39
36.807
37.224
37.635
38.034
38.413
38.767
39.09
39.378
39.629
39.839
40.008
40.137
40.226
40.278
40.294
40.278
40.232
40.16
40.067
39.955
39.827
39.688
39.54
39.385
39.226
39.064
38.9
38.737
38.574
38.412
38.251
38.093
37.938
37.785
37.636
37.49
37.346
37.205
37.067
36.93
36.796
36.663
36.532
36.403
36.276
36.15
36.027
35.906
35.787
35.672
35.559
35.451
35.347
35.247
35.152
35.062
34.979
34.902
34.833
34.772
34.72
34.676
34.642
34.616
34.6
34.592
34.592
34.598
34.609
34.625
34.644
34.666
34.687
34.709
34.73
34.749
34.765
34.778
34.787
34.792
34.794
34.792
34.787
34.78
34.77
34.758
34.744
34.728
34.711
34.691
34.67
34.647
34.621
34.594
34.564
34.532
34.499
34.463
34.426
34.386
34.344
34.3
34.254
34.208
34.159
34.109
34.059
34.008
33.958
33.908
33.86
33.813
33.767
33.724
33.683
33.644
33.607
33.572
33.539
33.507
33.476
33.446
33.418
33.391
33.365
33.339
33.312
33.286
33.261
33.237
33.214
33.191
33.169
33.148
33.127
33.107
33.087
33.065
33.042
33.017
32.993
32.968
32.945
32.923
32.904
32.889
32.879
32.872
32.87
32.872
32.88
32.894
32.915
32.945
32.986
33.038
33.105
33.189
33.292
33.418
33.569
33.747
33.955
34.193
34.461
34.759
35.085
35.433
35.8
36.181
36.569
36.958
37.342
37.712
38.064
38.392
38.691
38.956
39.187
39.381
39.539
39.659
39.744
39.793
39.81
39.797
39.755
39.688
39.598
39.489
39.365
39.228
39.082
38.928
38.769
38.607
38.444
38.279
38.114
37.95
37.788
37.628
37.472
37.319
37.171
37.026
36.886
36.749
36.615
36.484
36.357
36.233
36.111
35.992
35.873
35.756
35.639
35.524
35.41
35.299
35.193
35.092
34.997
34.91
34.831
34.761
34.699
34.646
34.599
34.56
34.528
34.502
34.482
34.467
34.457
34.451
34.451
34.453
34.459
34.468
34.479
34.492
34.508
34.524
34.542
34.56
34.579
34.597
34.615
34.63
34.641
34.65
34.655
34.657
34.655
34.649
34.639
34.627
34.612
34.594
34.572
34.546
34.517
34.485
34.45
34.415
34.378
34.34
34.301
34.262
34.223
34.184
34.146
34.107
34.069
34.032
33.995
33.959
33.923
33.883
33.836
33.782
33.722
33.659
33.595
33.534
33.477
33.428
33.386
33.353
33.328
33.31
33.3
33.296
33.296
33.3
33.305
33.309
33.313
33.314
33.313
33.31
33.304
33.296
33.286
33.274
33.262
33.248
33.234
33.219
33.204
33.188
33.172
33.157
33.144
33.132
33.122
33.116
33.115
33.121
33.137
33.166
33.209
33.27
33.351
33.455
33.585
33.742
33.928
34.145
34.39
34.665
34.967
35.291
35.636
35.994
36.362
36.733
37.101
37.46
37.803
38.126
38.422
38.689
38.922
39.119
39.28
39.402
39.487
39.535
39.548
39.529
39.482
39.41
39.316
39.206
39.08
38.943
38.796
38.643
38.486
38.326
38.166
38.006
37.846
37.687
37.529
37.373
37.219
37.067
36.915
36.765
36.618
36.475
36.334
36.194
36.057
35.922
35.79
35.662
35.536
35.414
35.298
35.186
35.081
34.981
34.888
34.8
34.72
34.648
34.584
34.526
34.477
34.436
34.403
34.377
34.359
34.349
34.346
34.349
34.359
34.375
34.396
34.421
34.449
34.479
34.51
34.541
34.573
34.604
34.633
34.661
34.685
34.706
34.723
34.739
34.75
34.757
34.76
34.759
34.753
34.743
34.729
34.711
34.688
34.663
34.635
34.606
34.576
34.545
34.512
34.479
34.445
34.409
34.372
34.334
34.294
34.252
34.208
34.162
34.116
34.068
34.022
33.977
33.934
33.892
33.853
33.817
33.782
33.749
33.718
33.688
33.658
33.629
33.599
33.571
33.542
33.515
33.488
33.463
33.439
33.416
33.393
33.371
33.35
33.329
33.307
33.287
33.266
33.247
33.228
33.212
33.196
33.182
33.169
33.158
33.149
33.145
33.144
33.15
33.163
33.186
33.221
33.271
33.338
33.427
33.538
33.673
33.834
34.022
34.24
34.487
34.765
35.072
35.405
35.761
36.132
36.514
36.9
37.281
37.651
38.003
38.332
38.633
38.901
39.133
39.328
39.484
39.603
39.685
39.734
39.75
39.736
39.695
39.632
39.547
39.445
39.329
39.201
39.063
38.918
38.767
38.613
38.456
38.298
38.141
37.984
37.829
37.677
37.527
37.382
37.24
37.101
36.965
36.833
36.703
36.576
36.451
36.329
36.21
36.093
35.979
35.867
35.758
35.65
35.545
35.444
35.345
35.251
35.16
35.074
34.993
34.918
34.849
34.787
34.733
34.687
34.649
34.62
34.599
34.585
34.579
34.578
34.583
34.591
34.603
34.618
34.635
34.654
34.673
34.693
34.713
34.732
34.751
34.767
34.78
34.791
34.799
