Trial 1:0back
33.958
33.903
33.851
33.802
33.755
33.711
33.67
33.63
33.594
33.56
33.53
33.503
33.479
33.457
33.437
33.418
33.4
33.383
33.366
33.348
33.331
33.316
33.304
33.293
33.285
33.28
33.279
33.281
33.288
33.297
33.307
33.318
33.329
33.338
33.346
33.352
33.356
33.358
33.357
33.353
33.346
33.335
33.321
33.305
33.285
33.261
33.233
33.204
33.175
33.148
33.124
33.104
33.088
33.077
33.072
33.073
33.082
33.101
33.132
33.175
33.233
33.308
33.4
33.514
33.653
33.821
34.021
34.258
34.534
34.849
35.203
35.592
36.01
36.449
36.901
37.356
37.805
38.238
38.644
39.018
39.352
39.641
39.881
40.072
40.213
40.307
40.356
40.363
40.334
40.273
40.186
40.077
39.951
39.813
39.667
39.517
39.367
39.221
39.08
38.946
38.82
38.701
38.591
38.489
38.393
38.304
38.22
38.142
38.069
37.999
37.933
37.869
37.806
37.743
37.682
37.62
37.556
37.49
37.42
37.345
37.264
37.178
37.084
36.981
36.87
36.751
36.625
36.494
36.36
36.225
36.09
35.958
35.831
35.711
35.599
35.496
35.404
35.323
35.253
35.196
35.152
35.119
35.097
35.086
35.084
35.092
35.107
35.126
35.149
35.174
35.2
35.228
35.255
35.28
35.302
35.321
35.336
35.347
35.352
35.35
35.342
35.324
35.298
35.263
35.22
35.17
35.113
35.051
34.984
34.914
34.841
34.767
34.692
34.619
34.546
34.476
34.409
34.345
34.284
34.226
34.17
34.115
34.06
34.006
33.953
33.901
33.85
33.8
33.751
33.703
33.657
33.612
33.571
33.534
33.502
33.473
33.448
33.426
33.407
33.39
33.376
33.363
33.351
33.34
33.331
33.324
33.32
33.317
33.316
33.314
33.312
33.309
33.305
33.3
33.293
33.286
33.277
33.268
33.257
33.247
33.238
33.229
33.221
33.214
33.21
33.21
33.216
33.226
33.239
33.252
33.263
33.272
33.277
33.277
33.272
33.261
33.246
33.228
33.209
33.192
33.18
33.175
33.18
33.197
33.231
33.286
33.368
33.48
33.625
33.809
34.032
34.296
34.602
34.945
35.321
35.726
36.151
36.59
37.035
37.475
37.902
38.308
38.684
39.024
39.322
39.575
39.78
39.936
40.045
40.109
40.132
40.119
40.075
40.004
39.91
39.799
39.675
39.543
39.406
39.267
39.132
39.0
38.874
38.754
38.641
38.534
38.436
38.345
38.26
38.183
38.11
38.043
37.981
37.922
37.865
37.811
37.757
37.704
37.648
37.59
37.527
37.457
37.379
37.294
37.2
37.098
36.988
36.87
36.744
36.613
36.478
36.342
36.207
36.076
35.951
35.832
35.724
35.626
35.54
35.465
35.4
35.346
35.302
35.268
35.244
35.228
35.22
35.217
35.22
35.225
35.233
35.243
35.253
35.262
35.271
35.278
35.283
35.285
35.285
35.28
35.269
35.253
35.232
35.207
35.178
35.145
35.109
35.069
35.026
34.982
34.934
34.885
34.832
34.778
34.721
34.662
34.602
34.54
34.476
34.409
34.339
34.267
34.194
34.12
34.046
33.97
33.896
33.823
33.752
33.686
33.625
33.569
33.519
33.475
33.436
33.403
33.374
33.35
33.329
33.311
33.296
33.283
33.274
33.266
33.259
33.253
33.246
33.236
33.226
33.215
33.202
33.189
33.175
33.159
33.143
33.128
33.113
33.1
33.088
33.08
33.074
33.07
33.068
33.068
33.07
33.074
33.079
33.086
33.092
33.098
33.104
33.109
33.111
33.111
33.117
33.132
33.156
33.185
33.216
33.243
33.26
33.267
33.26
33.237
33.201
33.152
33.095
33.034
32.972
32.913
32.859
32.816
32.786
32.772
32.776
32.801
32.849
32.922
33.023
33.154
33.317
33.514
33.746
34.016
34.323
34.666
35.04
35.442
35.864
36.301
36.745
37.188
37.622
38.037
38.424
38.779
39.094
39.368
39.598
39.781
39.919
40.012
40.063
40.075
40.053
40.0
39.921
39.821
39.704
39.575
39.437
39.293
39.146
38.998
38.852
38.708
38.569
38.435
38.307
38.186
38.073
37.967
37.868
37.776
37.69
37.61
37.535
37.466
37.403
37.344
37.29
37.239
37.189
37.139
37.088
37.032
36.972
36.905
36.831
36.749
36.658
36.559
36.453
36.342
36.228
36.113
35.998
35.884
35.774
35.668
35.567
35.474
35.388
35.312
35.245
35.187
35.14
35.104
35.079
35.064
35.058
35.059
35.068
35.083
35.103
35.127
35.154
35.182
35.21
35.238
35.264
35.286
35.302
35.312
35.313
35.307
35.292
35.268
35.236
35.195
35.146
35.092
35.032
34.967
34.9
34.83
34.758
34.685
34.612
34.541
34.472
34.404
34.337
34.27
34.205
34.141
34.079
34.019
33.96
33.901
33.843
33.784
33.724
33.664
33.604
33.545
33.486
33.428
33.372
33.318
33.268
33.222
33.181
33.145
33.114
33.087
33.064
33.045
33.031
33.022
33.015
33.011
33.014
33.024
33.041
33.065
33.091
33.118
33.142
33.161
33.174
33.178
33.175
33.165
33.148
33.127
33.102
33.074
33.047
33.022
32.999
32.977
32.957
32.939
32.921
32.905
32.89
32.878
32.867
32.857
32.847
32.837
32.827
32.817
32.805
32.793
32.779
32.763
32.745
32.727
32.711
32.696
32.686
32.682
32.687
32.704
32.737
32.789
32.862
32.962
33.092
33.256
33.458
33.7
33.984
34.308
34.669
35.066
35.491
35.938
36.4
36.864
37.322
37.764
38.18
38.562
38.903
39.197
39.439
39.629
39.768
39.855
39.894
39.889
39.845
39.767
39.661
39.532
39.384
39.223
39.054
38.881
38.708
38.538
38.373
38.216
38.068
37.93
37.803
37.686
37.578
37.478
37.386
37.3
37.22
37.144
37.071
37.0
36.929
36.857
36.783
36.707
36.627
36.543
36.453
36.358
36.259
36.155
36.046
35.935
35.822
35.71
35.6
35.492
35.388
35.289
35.196
35.11
35.033
34.967
34.91
34.863
34.825
34.795
34.775
34.764
34.762
34.767
34.778
34.795
34.816
34.841
34.869
34.899
34.93
34.958
34.984
35.007
35.025
35.039
35.047
35.05
35.048
35.042
35.032
35.017
34.999
34.977
34.95
34.92
34.885
34.847
34.804
34.756
34.702
34.644
34.582
34.515
34.444
34.37
34.292
34.213
34.131
34.05
33.97
33.892
33.817
33.742
33.665
33.587
33.508
33.431
33.358
33.291
33.23
33.176
33.13
33.094
33.067
33.05
33.042
33.041
33.046
33.055
33.066
33.079
33.093
33.105
33.115
33.122
33.127
33.128
33.127
33.124
33.119
33.112
33.105
33.096
33.088
33.08
33.073
33.068
33.065
33.064
33.063
33.062
33.06
33.058
33.054
33.048
33.04
33.03
33.018
33.004
32.988
32.972
32.956
32.943
32.933
32.928
32.93
32.941
32.965
33.004
33.063
33.146
33.256
33.397
33.575
33.79
34.045
34.338
34.67
35.038
35.438
35.864
36.308
36.762
37.217
37.662
38.089
38.488
38.851
39.171
39.444
39.666
39.838
39.958
40.03
40.056
40.042
39.992
39.911
39.806
39.679
39.537
39.383
39.222
39.059
38.896
38.737
38.582
38.435
38.295
38.164
38.042
37.927
37.82
37.718
37.621
37.529
37.441
37.355
37.27
37.186
37.102
37.019
36.936
36.851
36.765
36.675
36.584
36.49
36.394
36.295
36.192
36.085
35.976
35.864
35.751
35.639
35.529
35.421
35.318
35.221
35.132
35.051
34.978
34.914
34.858
34.811
34.773
34.743
34.719
34.701
34.689
34.684
34.686
34.695
34.71
34.731
34.756
34.786
34.819
34.853
34.887
34.92
34.95
34.976
34.995
35.007
35.012
35.009
34.997
34.977
34.949
34.915
34.874
34.827
34.776
34.721
34.662
34.601
34.537
34.471
34.402
34.331
34.256
34.178
34.099
34.019
33.941
33.865
33.793
33.728
33.668
33.614
33.567
33.525
33.487
33.455
33.425
33.399
33.375
33.358
33.355
33.365
33.386
33.415
33.447
33.478
33.503
33.521
33.529
33.525
33.509
33.483
33.447
33.406
33.362
33.317
33.272
33.228
33.188
33.153
33.123
33.099
33.081
33.069
33.061
33.057
33.056
33.056
33.056
33.056
33.053
33.047
33.036
33.023
33.007
32.99
32.973
32.956
32.941
32.932
32.932
32.942
32.966
33.007
33.069
33.155
33.268
33.413
33.591
33.805
34.06
34.354
34.688
35.059
35.462
35.891
36.338
36.796
37.256
37.709
38.144
38.553
38.927
39.261
39.549
39.789
39.978
40.116
40.204
40.245
40.244
40.208
40.139
40.045
39.93
39.798
39.655
39.506
39.353
39.201
39.05
38.903
38.761
38.626
38.498
38.376
38.26
38.149
38.045
37.948
37.856
37.768
37.684
37.603
37.525
37.449
37.375
37.302
37.228
37.152
37.072
36.989
36.901
36.81
36.714
36.615
36.511
36.404
36.295
36.182
36.067
35.951
35.836
35.723
35.613
35.509
35.41
35.317
35.232
35.155
35.087
35.029
34.979
34.937
34.903
34.876
34.857
34.845
34.84
34.841
34.848
34.859
34.873
34.891
34.91
34.931
34.953
34.974
34.994
35.01
35.023
35.03
35.032
35.027
35.016
34.996
34.969
34.934
34.893
34.844
34.788
34.726
34.66
34.592
34.523
34.453
34.382
34.31
34.239
34.168
34.098
34.03
33.963
33.9
33.838
33.779
33.72
33.661
33.601
33.541
33.481
33.421
33.364
33.31
33.261
33.218
33.181
33.148
33.121
33.097
33.076
33.059
33.045
33.034
33.025
33.019
33.016
33.015
33.017
33.023
33.031
33.042
33.054
33.066
33.078
33.089
33.099
33.108
33.115
33.117
33.115
33.11
33.101
33.09
33.077
33.062
33.046
33.028
33.008
32.987
32.967
32.948
32.93
32.913
32.897
32.883
32.873
32.868
32.868
32.875
32.89
32.913
32.948
32.997
33.062
33.148
33.257
33.392
33.558
33.757
33.992
34.265
34.576
34.923
35.302
35.709
36.138
36.581
37.029
37.474
37.907
38.319
38.703
39.051
39.357
39.616
39.824
39.983
40.093
40.158
40.179
40.162
40.109
40.028
39.922
39.797
39.657
39.506
39.349
39.189
39.03
38.871
38.717
38.566
38.422
38.284
38.153
38.03
37.913
37.803
37.698
37.6
37.508
37.422
37.342
37.268
37.198
37.13
37.065
37.001
36.935
36.867
36.797
36.724
36.647
36.566
36.481
36.39
36.293
36.192
36.087
35.979
35.869
35.758
35.647
35.538
35.432
35.332
35.24
35.157
35.083
35.021
34.971
34.933
34.906
34.891
34.885
34.888
34.898
34.915
34.937
34.963
34.99
35.019
35.046
35.07
35.089
35.104
35.113
35.114
35.109
35.095
35.074
35.046
35.014
34.976
34.933
34.885
34.834
34.78
34.724
34.666
34.607
34.548
34.488
34.429
34.369
34.31
34.251
34.193
34.137
34.083
34.031
33.981
33.933
33.884
33.835
33.785
33.733
33.678
33.62
33.562
33.503
33.445
33.388
33.332
33.279
33.231
33.187
33.149
33.117
33.089
33.066
33.047
33.031
33.018
33.009
33.0
32.994
32.99
32.987
32.986
32.984
32.983
32.98
32.976
32.97
32.962
32.952
32.941
32.93
32.917
32.904
32.891
32.878
32.867
32.858
32.852
32.847
32.843
32.84
32.838
32.836
32.834
32.831
32.826
32.818
32.809
32.797
32.783
32.767
32.75
32.731
32.712
32.693
32.676
32.665
32.661
32.668
32.687
32.721
32.774
32.849
32.952
33.085
33.251
33.452
33.692
33.972
34.292
34.651
35.043
35.464
35.907
36.363
36.825
37.281
37.723
38.142
38.528
38.875
39.176
39.428
39.627
39.773
39.865
39.908
39.905
39.862
39.785
39.678
39.547
39.4
39.242
39.078
38.913
38.749
38.589
38.436
38.29
38.15
38.019
37.894
37.777
37.667
37.564
37.467
37.375
37.286
37.199
37.116
37.034
36.955
36.877
36.799
36.718
36.634
36.547
36.457
36.364
36.269
36.171
36.07
35.967
35.863
35.759
35.654
35.55
35.447
35.348
35.253
35.165
35.084
35.008
34.939
34.877
34.823
34.776
34.737
34.706
34.682
34.664
34.654
34.651
34.654
34.663
34.676
34.695
34.717
34.741
34.768
34.794
34.82
34.845
34.867
34.885
34.9
34.911
34.917
34.918
34.915
34.906
34.892
34.873
34.849
34.827
34.811
34.803
34.801
34.803
34.803
34.795
34.775
34.738
34.683
34.608
34.515
34.407
34.288
34.161
34.031
33.901
33.777
33.663
33.561
33.473
33.399
33.341
33.297
33.266
33.246
33.237
33.236
33.239
33.245
33.251
33.257
33.26
33.262
33.26
33.254
33.244
33.229
33.211
33.192
33.171
33.15
33.129
33.109
33.091
33.077
33.065
33.056
33.05
33.044
33.039
33.033
33.025
33.017
33.009
32.999
32.988
32.975
32.959
32.943
32.928
32.914
32.902
32.891
32.881
32.874
32.871
32.873
32.882
32.904
32.941
32.996
33.073
33.175
33.307
33.471
33.672
33.911
34.188
34.503
34.855
35.239
35.652
36.087
36.536
36.988
37.436
37.868
38.277
38.654
38.992
39.288
39.535
39.732
39.877
39.972
40.018
40.02
39.981
39.905
39.798
39.665
39.511
39.342
39.164
38.98
38.795
38.613
38.438
38.273
38.119
37.977
37.846
37.726
37.617
37.518
37.428
37.346
37.27
37.198
37.13
37.063
36.996
36.928
36.858
36.785
36.709
36.629
36.544
36.454
36.36
36.261
36.158
36.052
35.943
35.834
35.725
35.619
35.515
35.415
35.321
35.234
35.155
35.083
35.019
34.962
34.914
34.873
34.84
34.815
34.797
34.785
34.777
34.773
34.773
34.777
34.785
34.796
34.81
34.826
34.843
34.861
34.874
34.88
34.878
34.869
34.853
34.833
34.811
34.789
34.768
34.747
34.727
34.706
34.685
34.663
34.636
34.606
34.569
34.526
34.477
34.423
34.363
34.3
34.234
34.165
34.095
34.025
33.957
33.891
33.829
33.77
33.716
33.667
33.624
33.585
33.551
33.522
33.497
33.475
33.456
33.44
33.425
33.412
33.4
33.387
33.374
33.36
33.345
33.329
33.313
33.297
33.282
33.267
33.255
33.246
33.24
33.236
33.233
33.231
33.229
33.227
33.226
33.224
33.223
33.22
33.216
33.209
33.2
33.189
33.176
33.161
33.145
33.126
33.105
33.082
33.057
33.031
33.007
32.984
32.964
32.949
32.941
32.942
32.957
32.987
33.037
33.108
33.206
33.334
33.495
33.692
33.928
34.203
34.517
34.869
35.253
35.666
36.101
36.549
37.001
37.448
37.881
38.291
38.672
39.017
39.318
39.574
39.781
39.94
40.052
40.117
40.14
40.126
40.078
40.002
39.903
39.784
39.651
39.509
39.362
39.214
39.066
38.92
38.78
38.647
38.522
38.404
38.295
38.194
38.1
38.013
37.931
37.853
37.778
37.704
37.632
37.561
37.489
37.418
37.346
37.271
37.193
37.113
37.031
36.946
36.859
36.767
36.671
36.571
36.469
36.364
36.256
36.146
36.037
35.929
35.824
35.724
35.629
35.539
35.455
35.377
35.307
35.247
35.199
35.162
35.137
35.121
35.114
35.112
35.115
35.121
35.13
35.14
35.152
35.165
35.18
35.193
35.206
35.216
35.223
35.228
35.229
35.227
35.22
35.209
35.193
35.172
35.145
35.113
35.073
35.027
34.972
34.91
34.84
34.766
34.688
34.607
34.524
34.439
34.354
34.271
34.191
34.114
34.04
33.971
33.905
33.845
33.79
33.74
33.695
33.654
33.617
33.584
33.555
33.529
33.505
33.483
33.462
33.441
33.421
33.4
33.379
33.358
33.337
33.315
33.293
33.272
33.253
33.235
33.22
33.208
33.198
33.19
33.184
33.18
33.177
33.174
33.171
33.167
33.163
33.156
33.148
33.139
33.129
33.118
33.107
33.097
33.087
33.079
33.076
33.079
33.09
33.113
33.149
33.204
33.282
33.387
33.523
33.693
33.9
34.144
34.428
34.75
35.107
35.495
35.908
36.338
36.78
37.224
37.659
38.077
38.469
38.827
39.147
39.422
39.65
39.829
39.958
40.04
40.077
40.073
40.033
39.961
39.863
39.743
39.608
39.464
39.313
39.16
39.008
38.858
38.713
38.573
38.44
38.314
38.195
38.083
37.978
37.881
37.79
37.704
37.623
37.545
37.469
37.395
37.32
37.244
37.167
37.087
37.004
36.917
36.827
36.732
36.632
36.526
36.415
36.3
36.182
36.064
35.946
35.831
35.719
35.612
35.513
35.421
35.338
35.264
35.201
35.148
35.106
35.074
35.051
35.036
35.029
35.027
35.032
35.043
35.06
35.082
35.106
35.131
35.153
35.173
35.191
35.205
35.215
35.221
35.222
35.219
35.212
35.2
35.186
35.169
35.149
35.125
35.097
35.064
35.025
34.98
34.931
34.877
34.819
34.758
34.694
34.627
34.557
34.486
34.414
34.343
34.273
34.205
34.14
34.079
34.022
33.968
33.92
33.877
33.838
33.804
33.772
33.745
33.721
33.7
33.681
33.664
33.648
33.633
33.619
33.604
33.589
33.573
33.556
33.538
33.518
33.496
33.472
33.448
33.423
33.397
33.371
33.344
33.316
33.29
33.267
33.247
33.232
33.224
33.224
33.237
33.264
33.307
33.369
33.453
33.561
33.695
33.858
34.055
34.286
34.554
34.858
35.195
35.561
35.95
36.356
36.771
37.188
37.597
37.99
38.358
38.696
38.996
39.257
39.474
39.648
39.778
39.867
39.916
39.928
39.908
39.861
39.791
39.702
39.597
39.48
39.353
39.221
39.086
38.951
38.816
38.683
38.552
38.424
38.299
38.179
38.062
37.95
37.84
37.734
37.631
37.531
37.433
37.338
37.243
37.149
37.054
36.958
36.862
36.763
36.661
36.557
36.45
36.341
36.231
36.119
36.008
35.897
35.787
35.678
35.572
35.47
35.374
35.285
35.203
35.129
35.064
35.008
34.962
34.924
34.896
34.876
34.865
34.862
34.867
34.879
34.896
34.915
34.938
34.962
34.986
35.011
35.036
35.059
35.08
35.099
35.114
35.127
35.135
35.136
35.13
35.115
35.092
35.06
35.021
34.975
34.921
34.86
34.794
34.722
34.647
34.57
34.491
34.413
34.336
34.261
34.19
34.122
34.057
33.997
33.939
33.886
33.835
33.789
33.746
33.706
33.668
33.631
33.595
33.559
33.524
33.49
33.457
33.425
33.393
33.362
33.333
33.307
33.284
33.265
33.249
33.237
33.227
33.22
33.215
33.213
33.211
33.211
33.211
33.211
33.21
33.207
33.203
33.199
33.193
33.185
33.174
33.162
33.148
33.136
33.126
33.121
33.123
33.133
33.155
33.192
33.247
33.324
33.428
33.561
33.729
33.934
34.179
34.466
34.794
35.162
35.565
35.996
36.448
36.909
37.369
37.816
38.242
38.637
38.994
39.309
39.577
39.795
39.964
40.083
40.156
40.183
40.17
40.119
40.037
39.93
39.803
39.661
39.509
39.352
39.191
39.032
38.876
38.724
38.578
38.439
38.306
38.18
38.061
37.948
37.839
37.734
37.633
37.535
37.441
37.349
37.257
37.165
37.072
36.978
36.881
36.783
36.682
36.578
36.471
36.361
36.251
36.141
36.03
35.919
35.809
35.7
35.595
35.495
35.401
35.315
35.24
35.179
35.135
35.107
35.093
35.091
35.099
35.113
35.132
35.154
35.179
35.205
35.232
35.257
35.28
35.301
35.319
35.335
35.348
35.359
35.368
35.375
35.38
35.382
35.381
35.376
35.366
35.35
35.33
35.306
35.278
35.244
35.206
35.162
35.113
35.058
34.999
34.936
34.869
34.797
34.721
34.643
34.562
34.479
34.397
34.317
34.237
34.16
34.085
34.014
33.947
33.885
33.828
33.776
33.728
33.685
33.647
33.613
33.583
33.557
33.532
33.509
33.487
33.467
33.449
33.432
33.415
33.399
33.382
33.364
33.346
33.326
33.307
33.288
33.269
33.251
33.233
33.217
33.202
33.19
33.179
33.171
33.164
33.158
33.154
33.15
33.146
33.143
33.139
33.136
33.131
33.127
33.122
33.119
33.119
33.123
33.132
33.149
33.181
33.232
33.309
33.418
33.565
33.754
33.988
34.269
34.597
34.967
35.373
35.808
36.262
36.728
37.194
37.649
38.081
38.481
38.841
39.155
39.421
39.635
39.797
39.908
39.969
39.983
39.955
39.891
39.794
39.671
39.526
39.365
39.193
39.014
38.832
38.651
38.473
38.302
38.139
37.983
37.836
37.696
37.564
37.438
37.318
37.205
37.099
36.997
36.898
36.802
36.707
36.613
36.518
36.422
36.323
36.221
36.116
36.009
35.898
35.785
35.669
35.552
35.436
35.323
35.212
35.106
35.004
34.91
34.825
34.751
34.689
34.639
34.601
34.577
34.566
34.567
34.579
34.6
34.631
34.67
34.716
34.77
34.828
34.888
34.948
35.007
35.063
35.114
35.159
35.196
35.223
35.241
35.249
35.246
35.234
35.212
35.184
35.149
35.108
35.063
35.015
34.965
34.913
34.859
34.803
34.745
34.684
34.622
34.561
34.499
34.436
34.372
34.306
34.236
34.164
34.089
34.013
33.934
33.855
33.776
33.698
33.624
33.554
33.49
33.433
33.384
33.341
33.307
33.28
33.261
33.249
33.242
33.24
33.241
33.243
33.246
33.249
33.252
33.252
33.248
33.24
33.227
33.209
33.188
33.163
33.137
33.11
33.083
33.056
33.028
33.0
32.973
32.947
32.925
32.906
32.89
32.879
32.872
32.871
32.875
32.882
32.893
32.905
32.92
32.938
32.961
32.991
33.03
33.081
33.147
33.232
33.342
33.483
33.66
33.879
34.141
34.449
34.803
35.198
35.63
36.092
36.572
37.06
37.545
38.015
38.458
38.866
39.231
39.546
39.807
40.013
40.163
40.26
40.306
40.307
40.267
40.193
40.09
39.965
39.822
39.666
39.501
39.33
39.157
38.984
38.813
38.646
