Trial 1:0back
33.133
33.144
33.156
33.166
33.178
33.191
33.207
33.229
33.257
33.294
33.341
33.401
33.476
33.565
33.669
33.788
33.918
34.059
34.208
34.366
34.531
34.704
34.885
35.071
35.26
35.452
35.643
35.832
36.017
36.194
36.362
36.52
36.665
36.799
36.92
37.03
37.128
37.214
37.287
37.348
37.396
37.429
37.45
37.458
37.455
37.442
37.42
37.392
37.357
37.318
37.275
37.23
37.182
37.133
37.083
37.03
36.975
36.918
36.862
36.808
36.758
36.711
36.667
36.624
36.582
36.539
36.494
36.448
36.399
36.348
36.295
36.24
36.182
36.122
36.06
35.997
35.934
35.873
35.812
35.753
35.696
35.641
35.59
35.542
35.498
35.458
35.422
35.39
35.361
35.335
35.313
35.295
35.281
35.272
35.266
35.261
35.256
35.251
35.246
35.24
35.233
35.224
35.215
35.205
35.195
35.185
35.173
35.16
35.145
35.127
35.106
35.084
35.059
35.034
35.009
34.984
34.959
34.934
34.909
34.884
34.857
34.829
34.798
34.766
34.731
34.694
34.657
34.62
34.585
34.551
34.518
34.485
34.447
34.403
34.353
34.298
34.239
34.178
34.119
34.063
34.011
33.965
33.925
33.893
33.867
33.848
33.834
33.824
33.813
33.801
33.786
33.766
33.744
33.718
33.69
33.662
33.634
33.608
33.585
33.566
33.55
33.537
33.525
33.514
33.502
33.488
33.472
33.457
33.442
33.429
33.416
33.405
33.394
33.385
33.378
33.371
33.364
33.355
33.345
33.333
33.319
33.302
33.285
33.269
33.256
33.244
33.236
33.23
33.228
33.229
33.233
33.24
33.249
33.261
33.276
33.296
33.32
33.352
33.393
33.447
33.513
33.594
33.69
33.801
33.927
34.068
34.223
34.389
34.564
34.746
34.93
35.115
35.303
35.492
35.685
35.881
36.08
36.281
36.481
36.677
36.866
37.046
37.214
37.368
37.505
37.626
37.729
37.816
37.887
37.943
37.986
38.015
38.031
38.037
38.034
38.025
38.012
37.995
37.976
37.955
37.932
37.906
37.877
37.843
37.806
37.767
37.726
37.682
37.637
37.588
37.537
37.483
37.426
37.368
37.307
37.244
37.178
37.111
37.042
36.971
36.899
36.826
36.75
36.672
36.592
36.509
36.425
36.34
36.256
36.171
36.086
36.003
35.92
35.84
35.762
35.687
35.616
35.551
35.492
35.441
35.396
35.36
35.33
35.307
35.29
35.277
35.266
35.257
35.247
35.236
35.225
35.214
35.206
35.199
35.194
35.189
35.181
35.168
35.151
35.131
35.109
35.084
35.058
35.032
35.005
34.979
34.955
34.933
34.912
34.894
34.875
34.855
34.834
34.811
34.786
34.76
34.732
34.703
34.673
34.644
34.614
34.584
34.553
34.518
34.48
34.438
34.393
34.345
34.296
34.247
34.201
34.157
34.116
34.079
34.046
34.017
33.991
33.967
33.943
33.919
33.893
33.865
33.834
33.802
33.769
33.735
33.702
33.669
33.638
33.607
33.579
33.551
33.525
33.5
33.477
33.453
33.43
33.408
33.386
33.365
33.346
33.328
33.311
33.295
33.28
33.266
33.254
33.243
33.235
33.227
33.219
33.21
33.199
33.188
33.178
33.171
33.166
33.162
33.161
33.161
33.163
33.165
33.168
33.175
33.185
33.199
33.217
33.24
33.27
33.308
33.357
33.417
33.488
33.571
33.668
33.777
33.9
34.038
34.19
34.356
34.535
34.724
34.92
35.121
35.323
35.526
35.727
35.926
36.121
36.311
36.494
36.67
36.835
36.989
37.128
37.252
37.36
37.451
37.526
37.585
37.632
37.665
37.688
37.702
37.706
37.702
37.688
37.666
37.638
37.603
37.563
37.518
37.472
37.425
37.379
37.335
37.293
37.253
37.214
37.174
37.132
37.087
37.039
36.988
36.935
36.882
36.83
36.778
36.726
36.671
36.612
36.548
36.481
36.41
36.338
36.265
36.193
36.123
36.057
35.995
35.938
35.884
35.835
35.788
35.742
35.699
35.657
35.618
35.583
35.55
35.522
35.498
35.479
35.463
35.451
35.441
35.432
35.423
35.413
35.401
35.387
35.373
35.359
35.346
35.334
35.323
35.314
35.307
35.301
35.295
35.289
35.283
35.276
35.267
35.256
35.242
35.225
35.204
35.18
35.153
35.123
35.09
35.054
35.015
34.973
34.93
34.886
34.843
34.801
34.76
34.719
34.678
34.638
34.598
34.559
34.521
34.483
34.445
34.406
34.367
34.328
34.291
34.257
34.224
34.193
34.161
34.13
34.098
34.066
34.034
34.002
33.97
33.94
33.91
33.881
33.853
33.828
33.806
33.786
33.768
33.751
33.735
33.716
33.695
33.674
33.653
33.636
33.622
33.611
33.604
33.599
33.597
33.597
33.599
33.6
33.601
33.599
33.594
33.585
33.572
33.556
33.537
33.518
33.497
33.476
33.456
33.437
33.42
33.405
33.392
33.382
33.376
33.373
33.373
33.377
33.386
33.402
33.426
33.461
33.508
33.568
33.643
33.732
33.835
33.953
34.083
34.225
34.377
34.539
34.71
34.89
35.077
35.271
35.471
35.674
35.878
36.08
36.278
36.47
36.652
36.823
36.98
37.123
37.251
37.365
37.465
37.551
37.624
37.683
37.728
37.759
37.775
37.777
37.767
37.748
37.721
37.69
37.654
37.617
37.583
37.557
37.538
37.524
37.513
37.503
37.491
37.474
37.451
37.419
37.379
37.329
37.271
37.203
37.125
37.039
36.946
36.849
36.75
36.65
36.551
36.454
36.36
36.27
36.184
36.103
36.026
35.954
35.886
35.822
35.762
35.705
35.653
35.607
35.566
35.532
35.503
35.48
35.46
35.444
35.43
35.418
35.409
35.403
35.401
35.403
35.408
35.415
35.423
35.434
35.445
35.456
35.466
35.473
35.477
35.478
35.476
35.472
35.466
35.457
35.447
35.435
35.42
35.402
35.381
35.355
35.327
35.294
35.257
35.217
35.175
35.133
35.09
35.049
35.008
34.967
34.928
34.89
34.853
34.817
34.783
34.75
34.717
34.682
34.645
34.605
34.562
34.517
34.472
34.427
34.383
34.339
34.297
34.257
34.219
34.185
34.154
34.127
34.102
34.079
34.057
34.035
34.013
33.992
33.97
33.947
33.922
33.896
33.869
33.841
33.815
33.79
33.766
33.743
33.721
33.699
33.677
33.655
33.635
33.617
33.601
33.588
33.576
33.565
33.555
33.545
33.534
33.521
33.507
33.492
33.475
33.457
33.441
33.428
33.42
33.418
33.424
33.439
33.463
33.498
33.543
33.599
33.666
33.744
33.834
33.936
34.053
34.185
34.331
34.492
34.666
34.852
35.047
35.25
35.458
35.666
35.874
36.079
36.279
36.474
36.661
36.839
37.006
37.161
37.302
37.429
37.539
37.632
37.706
37.763
37.804
37.831
37.846
37.851
37.847
37.835
37.815
37.787
37.754
37.714
37.672
37.628
37.583
37.537
37.49
37.442
37.393
37.341
37.287
37.23
37.171
37.11
37.046
36.979
36.911
36.842
36.771
36.698
36.623
36.545
36.466
36.386
36.307
36.231
36.157
36.084
36.014
35.946
35.881
35.818
35.759
35.704
35.653
35.607
35.566
35.529
35.495
35.465
35.438
35.414
35.394
35.377
35.363
35.352
35.343
35.336
35.331
35.329
35.329
35.33
35.332
35.333
35.331
35.327
35.321
35.314
35.307
35.299
35.289
35.278
35.265
35.25
35.232
35.212
35.189
35.163
35.135
35.104
35.073
35.041
35.008
34.975
34.94
34.902
34.861
34.818
34.772
34.723
34.673
34.623
34.571
34.521
34.473
34.427
34.385
34.347
34.311
34.279
34.25
34.222
34.194
34.165
34.135
34.104
34.072
34.038
34.002
33.967
33.931
33.896
33.861
33.827
33.793
33.759
33.724
33.689
33.653
33.617
33.58
33.546
33.512
33.481
33.452
33.426
33.404
33.385
33.371
33.36
33.352
33.344
33.337
33.328
33.318
33.306
33.293
33.278
33.26
33.24
33.218
33.195
33.174
33.154
33.136
33.121
33.108
33.097
33.089
33.083
33.08
33.082
33.089
33.101
33.121
33.148
33.186
33.234
33.297
33.374
33.466
33.572
33.694
33.829
33.978
34.14
34.312
34.494
34.685
34.881
35.084
35.29
35.498
35.707
35.913
36.115
36.31
36.496
36.67
36.832
36.98
37.115
37.236
37.343
37.435
37.513
37.578
37.63
37.669
37.697
37.714
37.72
37.715
37.7
37.677
37.647
37.611
37.571
37.528
37.483
37.438
37.393
37.347
37.303
37.259
37.216
37.174
37.134
37.097
37.063
37.031
37.001
36.972
36.943
36.911
36.877
36.836
36.789
36.735
36.674
36.608
36.54
36.47
36.399
36.328
36.258
36.19
36.124
36.06
35.998
35.94
35.885
35.835
35.791
35.753
35.722
35.698
35.681
35.667
35.657
35.647
35.637
35.627
35.617
35.607
35.595
35.584
35.572
35.56
35.548
35.534
35.518
35.5
35.477
35.449
35.416
35.379
35.338
35.295
35.25
35.207
35.164
35.122
35.082
35.042
35.003
34.963
34.922
34.882
34.84
34.796
34.75
34.702
34.652
34.601
34.55
34.498
34.446
34.394
34.342
34.29
34.239
34.189
34.141
34.096
34.054
34.013
33.973
33.934
33.896
33.859
33.822
33.787
33.751
33.714
33.677
33.641
33.604
33.569
33.534
33.5
33.466
33.432
33.399
33.366
33.336
33.308
33.283
33.26
33.241
33.225
33.213
33.203
33.196
33.19
33.185
33.181
33.177
33.172
33.167
33.161
33.154
33.148
33.141
33.135
33.128
33.122
33.114
33.105
33.092
33.077
33.059
33.04
33.019
32.998
32.979
32.963
32.952
32.946
32.946
32.953
32.966
32.987
33.015
33.053
33.1
33.158
33.228
33.311
33.406
33.513
33.634
33.768
33.913
34.069
34.233
34.404
34.581
34.762
34.945
35.128
35.308
35.485
35.655
35.819
35.977
36.127
36.268
36.398
36.517
36.622
36.713
36.79
36.852
36.9
36.937
36.963
36.98
36.988
36.989
36.981
36.967
36.948
36.925
36.899
36.871
36.841
36.81
36.78
36.749
36.718
36.688
36.657
36.625
36.592
36.558
36.522
36.484
36.445
36.403
36.358
36.309
36.256
36.199
36.14
36.078
36.014
35.949
35.883
35.817
35.753
35.69
35.631
35.575
35.522
35.473
35.426
35.382
35.34
35.302
35.267
35.236
35.21
35.187
35.166
35.146
35.125
35.103
35.079
35.054
35.03
35.007
34.986
34.969
34.956
34.946
34.941
34.94
34.942
34.945
34.947
34.947
34.944
34.939
34.932
34.922
34.911
34.9
34.887
34.873
34.859
34.842
34.822
34.798
34.769
34.736
34.7
34.663
34.626
34.59
34.558
34.529
34.503
34.48
34.46
34.441
34.421
34.401
34.379
34.354
34.327
34.297
34.266
34.233
34.2
34.168
34.135
34.103
34.07
34.037
34.002
33.966
33.93
33.894
33.858
33.823
33.788
33.754
33.723
33.695
33.671
33.65
33.633
33.617
33.6
33.581
33.559
33.537
33.514
33.491
33.468
33.446
33.426
33.406
33.388
33.371
33.354
33.336
33.318
33.298
33.278
33.257
33.238
33.221
33.206
33.193
33.181
33.17
33.16
33.152
33.146
33.141
33.138
33.135
33.133
33.131
33.129
33.128
33.128
33.132
33.139
33.151
33.169
33.195
33.229
33.272
33.326
33.39
33.467
33.554
33.654
33.764
33.884
34.013
34.151
34.296
34.449
34.606
34.769
34.933
35.099
35.264
35.426
35.584
35.734
35.876
36.008
36.128
36.235
36.331
36.414
36.486
36.546
36.595
36.635
36.667
36.692
36.71
36.721
36.724
36.721
36.711
36.697
36.678
36.658
36.636
36.613
36.591
36.567
36.542
36.515
36.486
36.456
36.425
36.394
36.363
36.331
36.3
36.269
36.237
36.203
36.167
36.13
36.089
36.046
36.001
35.955
35.908
35.862
35.818
35.774
35.73
35.686
35.642
35.597
35.552
35.508
35.466
35.425
35.386
35.351
35.32
35.293
35.27
35.252
35.235
35.219
35.203
35.188
35.172
35.159
35.148
35.141
35.138
35.139
35.141
35.145
35.15
35.154
35.155
35.155
35.151
35.144
35.134
35.121
35.107
35.093
35.078
35.064
35.048
35.03
35.009
34.983
34.954
34.922
34.888
34.852
34.818
34.785
34.755
34.728
34.705
34.684
34.666
34.648
34.63
34.612
34.591
34.569
34.546
34.522
34.498
34.474
34.45
34.427
34.404
34.383
34.36
34.336
34.31
34.282
34.252
34.22
34.188
34.156
34.124
34.094
34.065
34.039
34.013
33.989
33.966
33.943
33.92
33.897
33.873
33.85
33.828
33.808
33.79
33.776
33.765
33.757
33.752
33.746
33.739
33.73
33.72
33.708
33.695
33.681
33.668
33.655
33.642
33.631
33.621
33.613
33.607
33.601
33.596
33.59
33.585
33.58
33.577
33.577
33.58
33.586
33.596
33.611
33.634
33.664
33.704
33.754
33.814
33.886
33.967
34.06
34.163
34.277
34.4
34.532
34.671
34.816
34.965
35.116
35.268
35.419
35.567
35.71
35.847
35.977
36.099
36.212
36.316
36.409
36.492
36.564
36.625
36.676
36.717
36.749
36.774
36.792
36.803
36.808
36.808
36.802
36.791
36.777
36.76
36.74
36.718
36.695
36.67
36.644
36.617
36.588
36.557
36.524
36.487
36.446
36.401
36.353
36.303
36.251
36.199
36.148
36.097
36.046
35.995
35.942
35.887
35.83
35.772
35.714
35.659
35.607
35.559
35.515
35.476
35.441
35.41
35.382
35.358
35.336
35.317
35.301
35.288
35.277
35.27
35.265
35.263
35.262
35.262
35.263
35.264
35.263
35.262
35.258
35.254
35.248
35.243
35.238
35.235
35.234
35.234
35.236
35.238
35.239
35.238
35.235
35.229
35.221
35.21
35.196
35.181
35.164
35.144
35.124
35.103
35.08
35.054
35.025
34.993
34.958
34.919
34.879
34.838
34.798
34.761
34.726
34.693
34.664
34.636
34.611
34.589
34.567
34.546
34.523
34.5
34.474
34.448
34.42
34.392
34.362
34.333
34.305
34.277
34.251
34.227
34.204
34.181
34.159
34.135
34.111
34.087
34.064
34.042
34.021
34.001
33.98
33.961
33.944
33.928
33.914
33.901
33.889
33.877
33.864
33.851
33.836
33.82
33.802
33.782
33.761
33.74
33.719
33.7
33.683
33.67
33.66
33.655
33.654
33.657
33.666
33.679
33.699
33.725
33.759
33.803
33.855
33.917
33.986
34.065
34.152
34.248
34.354
34.469
34.593
34.725
34.864
35.01
35.159
35.312
35.467
35.622
35.777
35.928
36.074
36.213
36.346
36.471
36.588
36.696
36.793
36.881
36.958
37.026
37.085
37.135
37.175
37.207
37.231
37.248
37.257
37.259
37.255
37.246
37.232
37.215
37.194
37.17
37.144
37.115
37.085
37.054
37.024
36.992
36.96
36.927
36.894
36.861
36.829
36.796
36.762
36.726
36.689
36.648
36.605
36.559
36.51
36.46
36.411
36.362
36.315
36.271
36.23
36.193
36.16
36.129
36.099
36.071
36.044
36.018
35.995
35.975
35.958
35.944
35.932
35.922
35.912
35.902
35.892
35.882
35.873
35.866
35.861
35.857
35.855
35.854
35.856
35.861
35.868
35.875
35.883
35.889
35.892
35.894
35.893
35.891
35.887
35.882
35.876
35.869
35.859
35.846
35.83
35.809
35.783
35.752
35.717
35.677
35.635
35.59
35.543
35.497
35.45
35.405
35.359
35.313
35.266
35.218
35.167
35.115
35.062
35.008
34.956
34.905
34.857
34.813
34.772
34.733
34.695
34.656
34.616
34.575
34.533
34.49
34.448
34.405
34.362
34.321
34.282
34.245
34.212
34.183
34.158
34.135
34.114
34.094
34.073
34.053
34.034
34.014
33.996
33.979
33.963
33.949
33.938
33.929
33.922
33.917
33.913
33.907
33.899
33.889
33.876
33.862
33.847
33.833
33.819
33.807
33.798
33.787
33.77
33.743
33.711
33.675
33.639
33.609
33.586
33.576
33.58
33.603
33.645
33.709
33.792
33.894
34.012
34.143
34.287
34.441
34.603
34.771
34.943
35.117
35.292
35.466
35.637
35.805
35.968
36.125
36.275
36.421
36.56
36.693
36.819
36.938
37.049
37.151
37.244
37.325
37.395
37.453
37.501
37.538
37.566
37.584
37.592
37.591
37.582
37.566
37.544
37.519
37.491
37.462
37.432
37.402
37.372
37.343
37.313
37.284
37.257
37.23
37.203
37.177
37.15
37.123
37.095
37.067
37.037
37.004
36.968
36.927
36.881
36.832
36.78
36.726
36.671
36.617
36.564
36.513
36.465
36.42
36.376
36.334
36.294
36.254
36.217
36.18
36.146
36.114
36.085
36.059
36.036
36.014
35.994
35.975
35.958
35.944
35.933
35.924
35.918
35.913
35.909
35.905
35.901
35.894
35.886
35.877
35.865
35.851
35.835
35.816
35.797
35.778
35.76
35.742
35.723
35.704
35.684
35.663
35.639
35.614
35.587
35.559
35.531
35.504
35.478
35.454
35.433
35.413
35.395
35.378
35.359
35.338
35.313
35.285
35.253
35.217
35.18
35.14
35.099
35.056
35.012
34.967
34.921
34.875
34.829
34.782
34.735
34.688
34.642
34.598
34.559
34.523
34.493
34.466
34.442
34.42
34.4
34.379
34.359
34.338
34.317
34.298
34.279
34.261
34.245
34.232
34.221
34.211
34.202
34.192
34.179
34.164
34.145
34.123
34.097
34.071
34.043
34.018
33.996
33.977
33.962
33.95
33.941
33.933
33.925
33.916
33.905
33.894
33.882
33.87
33.86
33.856
33.858
33.869
33.891
33.923
33.966
34.021
34.087
34.164
34.251
34.349
34.458
34.578
34.71
34.853
35.007
35.17
35.341
35.516
35.695
35.876
36.056
36.233
36.404
36.57
36.727
36.877
37.018
37.151
37.274
37.387
37.488
37.577
37.651
37.712
37.76
37.796
37.821
37.838
37.846
37.846
37.839
37.825
37.805
37.779
37.75
37.719
37.685
37.651
37.618
37.586
37.557
37.529
37.503
37.478
37.452
37.424
37.394
37.361
37.326
37.289
37.249
37.207
37.161
37.111
37.058
37.0
36.94
36.879
36.818
36.756
36.695
36.635
36.576
36.519
36.466
36.416
36.37
36.327
36.287
36.25
36.215
36.183
36.153
36.125
36.098
36.074
36.051
36.03
36.011
35.994
35.977
35.962
35.949
35.936
35.925
35.916
35.908
35.9
35.893
35.887
35.882
35.877
35.872
35.869
35.866
35.865
35.863
35.861
35.856
35.848
35.834
35.817
35.795
35.77
35.742
35.712
35.678
35.642
35.603
35.563
35.522
35.482
35.442
35.401
35.36
35.319
35.278
35.236
35.195
35.154
35.115
35.079
35.044
35.011
34.978
34.946
34.915
34.883
34.853
34.822
34.793
34.765
34.737
34.711
34.687
34.663
34.64
34.618
34.596
34.573
34.549
34.524
34.499
34.474
34.447
34.421
34.395
34.369
34.345
34.322
34.3
34.278
34.257
34.235
34.213
34.192
34.17
34.15
34.132
34.114
34.098
34.081
34.066
34.052
34.038
34.025
34.013
33.999
33.986
33.974
33.963
33.953
33.945
33.939
33.937
33.936
33.938
33.942
33.951
33.964
33.983
34.01
34.044
34.088
34.142
34.205
34.279
34.364
34.462
34.573
34.698
34.836
34.985
35.144
35.311
35.485
35.664
35.846
36.029
36.211
36.39
36.563
36.73
36.889
37.037
37.173
37.297
37.407
37.505
37.591
37.665
37.729
37.782
37.825
37.858
37.882
37.896
37.902
37.901
37.896
37.887
37.876
37.861
37.843
37.822
37.796
37.768
37.736
37.701
37.663
37.621
37.577
37.532
37.485
37.438
37.39
37.341
37.291
37.24
37.187
37.131
37.072
37.01
36.947
36.883
36.821
36.76
36.702
36.647
36.594
36.544
36.496
36.448
36.402
36.357
36.315
36.276
36.242
36.214
36.191
36.174
36.161
36.15
36.141
36.131
36.122
36.113
36.105
36.098
36.093
36.091
36.092
36.095
36.1
36.106
36.111
36.115
36.116
36.115
36.109
36.1
36.089
36.076
36.061
36.043
36.022
35.997
35.97
35.938
35.904
35.868
35.831
35.794
35.757
35.723
35.691
35.662
35.635
35.611
35.586
35.56
35.531
35.498
35.462
35.422
35.38
35.337
35.292
35.248
35.203
35.161
35.12
35.082
35.046
35.011
34.976
34.942
34.907
34.872
34.837
34.804
34.774
34.746
34.722
34.699
34.677
34.655
34.633
34.61
34.585
34.558
34.527
34.492
34.454
34.415
34.376
34.338
34.303
34.271
34.242
34.216
34.192
34.171
34.151
34.133
34.117
34.102
34.087
34.074
34.062
34.054
34.049
34.05
34.056
34.069
34.089
34.118
34.154
34.2
34.256
34.323
34.401
34.492
34.596
34.713
34.843
34.985
35.136
35.296
35.463
35.635
35.81
35.989
36.168
36.346
36.523
36.697
36.865
37.025
37.176
37.316
37.444
37.56
37.663
37.753
37.828
37.891
37.94
37.978
38.004
38.019
38.025
38.023
38.014
37.998
37.976
37.949
37.916
37.88
37.84
37.798
37.753
37.707
37.658
37.608
37.558
37.506
37.454
37.4
37.347
37.293
37.239
37.184
37.131
37.077
37.022
36.966
36.907
36.847
36.785
36.722
36.66
36.599
36.537
36.476
36.414
36.351
36.29
36.23
36.173
36.123
36.078
36.04
36.009
35.984
35.965
35.951
35.942
35.937
35.935
35.937
35.94
35.944
35.948
35.951
35.955
35.956
35.956
35.954
35.948
35.941
35.933
35.924
35.915
35.907
35.902
35.901
35.902
35.907
35.912
35.919
35.925
35.93
35.932
35.93
35.924
35.914
35.899
35.881
35.86
35.834
35.804
35.769
35.73
35.688
35.644
35.599
35.554
35.51
35.468
35.428
35.389
35.351
35.316
35.283
35.25
35.217
35.182
35.144
35.103
35.06
35.015
34.971
34.929
34.889
34.853
34.819
