Trial 1:0back
34.446
34.413
34.38
34.347
34.315
34.284
34.254
34.226
34.199
34.174
34.15
34.127
34.105
34.083
34.062
34.041
34.021
34.0
33.98
33.96
33.939
33.919
33.899
33.878
33.859
33.839
33.82
33.801
33.783
33.765
33.747
33.729
33.712
33.694
33.675
33.656
33.636
33.616
33.596
33.576
33.558
33.543
33.532
33.526
33.528
33.54
33.564
33.603
33.659
33.733
33.827
33.942
34.077
34.233
34.407
34.598
34.804
35.022
35.249
35.482
35.719
35.955
36.188
36.415
36.633
36.84
37.032
37.209
37.369
37.509
37.631
37.732
37.814
37.878
37.924
37.954
37.968
37.968
37.955
37.93
37.894
37.848
37.794
37.734
37.667
37.596
37.521
37.443
37.363
37.282
37.201
37.12
37.04
36.961
36.884
36.81
36.738
36.668
36.601
36.535
36.471
36.408
36.347
36.286
36.226
36.167
36.108
36.05
35.992
35.935
35.878
35.821
35.765
35.712
35.66
35.612
35.567
35.528
35.493
35.465
35.442
35.426
35.416
35.412
35.413
35.42
35.431
35.446
35.464
35.485
35.509
35.534
35.561
35.589
35.618
35.647
35.676
35.705
35.732
35.757
35.779
35.8
35.817
35.831
35.842
35.849
35.853
35.853
35.849
35.841
35.83
35.814
35.794
35.772
35.746
35.718
35.688
35.656
35.623
35.589
35.554
35.518
35.482
35.446
35.41
35.375
35.339
35.303
35.267
35.229
35.192
35.154
35.117
35.079
35.042
35.005
34.967
34.93
34.892
34.854
34.817
34.78
34.743
34.706
34.669
34.632
34.596
34.56
34.526
34.494
34.463
34.434
34.406
34.381
34.357
34.335
34.313
34.293
34.274
34.255
34.236
34.217
34.198
34.177
34.155
34.132
34.106
34.078
34.049
34.018
33.987
33.956
33.925
33.896
33.868
33.842
33.819
33.8
33.787
33.781
33.786
33.804
33.837
33.887
33.957
34.048
34.161
34.296
34.452
34.629
34.825
35.037
35.263
35.499
35.744
35.992
36.24
36.484
36.722
36.951
37.167
37.37
37.557
37.727
37.88
38.015
38.132
38.231
38.313
38.377
38.424
38.455
38.471
38.473
38.462
38.438
38.402
38.355
38.3
38.236
38.166
38.092
38.013
37.933
37.851
37.77
37.689
37.61
37.533
37.457
37.383
37.309
37.237
37.165
37.093
37.021
36.951
36.881
36.813
36.746
36.68
36.616
36.552
36.491
36.431
36.372
36.316
36.263
36.212
36.163
36.118
36.077
36.039
36.004
35.975
35.951
35.931
35.918
35.91
35.906
35.908
35.914
35.923
35.935
35.949
35.965
35.982
36.0
36.018
36.036
36.054
36.072
36.089
36.105
36.119
36.132
36.142
36.149
36.154
36.156
36.155
36.152
36.145
36.136
36.124
36.109
36.092
36.071
36.048
36.023
35.995
35.964
35.932
35.898
35.863
35.827
35.79
35.751
35.712
35.672
35.631
35.591
35.551
35.51
35.47
35.428
35.387
35.345
35.303
35.261
35.219
35.177
35.134
35.092
35.049
35.005
34.962
34.92
34.878
34.837
34.797
34.759
34.722
34.685
34.65
34.615
34.582
34.55
34.52
34.49
34.462
34.434
34.407
34.38
34.354
34.328
34.303
34.278
34.253
34.229
34.205
34.179
34.153
34.125
34.096
34.067
34.036
34.006
33.975
33.945
33.917
33.889
33.863
33.838
33.815
33.793
33.772
33.755
33.742
33.735
33.736
33.749
33.777
33.822
33.887
33.974
34.085
34.22
34.378
34.559
34.762
34.985
35.226
35.481
35.746
36.018
36.294
36.569
36.841
37.108
37.365
37.611
37.844
38.061
38.26
38.441
38.603
38.744
38.865
38.966
39.047
39.108
39.151
39.177
39.187
39.181
39.162
39.13
39.087
39.034
38.974
38.907
38.837
38.763
38.688
38.612
38.535
38.46
38.386
38.313
38.243
38.175
38.11
38.048
37.988
37.93
37.874
37.82
37.768
37.717
37.667
37.616
37.566
37.514
37.462
37.409
37.354
37.298
37.241
37.184
37.128
37.072
37.017
36.965
36.914
36.866
36.822
36.782
36.745
36.714
36.687
36.664
36.647
36.634
36.626
36.622
36.621
36.625
36.632
36.642
36.654
36.669
36.686
36.703
36.721
36.739
36.755
36.769
36.781
36.791
36.797
36.799
36.798
36.793
36.783
36.769
36.751
36.73
36.705
36.677
36.646
36.614
36.579
36.544
36.507
36.469
36.43
36.389
36.347
36.304
36.26
36.216
36.171
36.126
36.08
36.035
35.989
35.943
35.897
35.85
35.802
35.754
35.705
35.655
35.606
35.558
35.511
35.464
35.419
35.375
35.332
35.29
35.249
35.21
35.171
35.132
35.094
35.056
35.018
34.98
34.943
34.905
34.866
34.828
34.789
34.75
34.711
34.672
34.632
34.591
34.55
34.509
34.47
34.432
34.395
34.359
34.325
34.292
34.26
34.229
34.2
34.172
34.147
34.124
34.106
34.095
34.092
34.099
34.121
34.158
34.215
34.294
34.396
34.523
34.674
34.85
35.048
35.267
35.503
35.754
36.017
36.289
36.565
36.841
37.114
37.381
37.639
37.885
38.116
38.331
38.527
38.705
38.862
38.999
39.115
39.211
39.289
39.349
39.391
39.418
39.43
39.428
39.414
39.389
39.354
39.311
39.261
39.205
39.144
39.078
39.008
38.936
38.862
38.786
38.71
38.634
38.56
38.487
38.415
38.345
38.277
38.21
38.144
38.08
38.016
37.952
37.888
37.823
37.758
37.691
37.624
37.556
37.488
37.42
37.353
37.286
37.22
37.155
37.092
37.032
36.975
36.921
36.871
36.826
36.785
36.749
36.719
36.694
36.674
36.659
36.649
36.643
36.64
36.642
36.646
36.653
36.662
36.673
36.685
36.698
36.712
36.725
36.737
36.748
36.756
36.761
36.762
36.758
36.751
36.738
36.72
36.698
36.672
36.641
36.608
36.571
36.532
36.491
36.447
36.402
36.355
36.308
36.259
36.21
36.162
36.114
36.065
36.017
35.967
35.917
35.865
35.812
35.758
35.702
35.645
35.587
35.529
35.47
35.413
35.356
35.301
35.247
35.195
35.145
35.096
35.049
35.004
34.96
34.916
34.873
34.829
34.785
34.74
34.696
34.652
34.61
34.569
34.529
34.49
34.452
34.415
34.378
34.342
34.307
34.272
34.238
34.203
34.168
34.132
34.096
34.06
34.025
33.989
33.955
33.92
33.887
33.856
33.827
33.802
33.782
33.771
33.77
33.783
33.813
33.861
33.932
34.025
34.142
34.283
34.448
34.635
34.843
35.069
35.31
35.562
35.822
36.088
36.355
36.62
36.88
37.132
37.372
37.599
37.811
38.006
38.182
38.34
38.477
38.595
38.694
38.773
38.833
38.874
38.898
38.906
38.898
38.877
38.844
38.8
38.747
38.685
38.616
38.541
38.46
38.375
38.288
38.197
38.106
38.014
37.922
37.83
37.739
37.649
37.56
37.472
37.385
37.299
37.215
37.132
37.051
36.971
36.891
36.812
36.734
36.657
36.58
36.504
36.43
36.358
36.289
36.224
36.162
36.105
36.054
36.009
35.969
35.936
35.908
35.886
35.868
35.856
35.849
35.845
35.846
35.851
35.859
35.869
35.881
35.895
35.911
35.927
35.945
35.964
35.982
36.0
36.017
36.032
36.044
36.052
36.055
36.054
36.047
36.036
36.02
36.0
35.976
35.948
35.917
35.883
35.846
35.808
35.767
35.725
35.681
35.636
35.59
35.544
35.498
35.451
35.405
35.358
35.311
35.264
35.217
35.169
35.121
35.073
35.024
34.976
34.928
34.881
34.834
34.788
34.742
34.697
34.65
34.604
34.558
34.511
34.465
34.419
34.374
34.329
34.286
34.243
34.201
34.161
34.121
34.082
34.044
34.008
33.971
33.935
33.899
33.864
33.828
33.792
33.755
33.719
33.681
33.644
33.607
33.57
33.535
33.503
33.477
33.458
33.45
33.457
33.481
33.525
33.59
33.68
33.794
33.933
34.096
34.282
34.49
34.717
34.96
35.216
35.481
35.752
36.025
36.296
36.562
36.818
37.062
37.291
37.502
37.696
37.869
38.022
38.153
38.264
38.354
38.424
38.475
38.507
38.521
38.52
38.505
38.476
38.436
38.386
38.327
38.262
38.191
38.115
38.035
37.953
37.869
37.784
37.699
37.613
37.528
37.441
37.355
37.27
37.184
37.1
37.015
36.932
36.849
36.766
36.684
36.603
36.522
36.441
36.361
36.282
36.203
36.125
36.049
35.975
35.904
35.835
35.77
35.708
35.651
35.6
35.554
35.514
35.481
35.454
35.433
35.418
35.408
35.403
35.402
35.405
35.411
35.419
35.43
35.443
35.456
35.471
35.485
35.498
35.51
35.52
35.527
35.533
35.536
35.537
35.534
35.53
35.523
35.512
35.499
35.483
35.463
35.439
35.412
35.382
35.349
35.313
35.275
35.234
35.191
35.147
35.101
35.054
35.006
34.958
34.908
34.857
34.805
34.752
34.699
34.645
34.592
34.541
34.49
34.441
34.392
34.345
34.298
34.253
34.207
34.162
34.118
34.074
34.03
33.987
33.943
33.9
33.857
33.816
33.775
33.734
33.694
33.655
33.616
33.577
33.538
33.499
33.459
33.419
33.378
33.337
33.296
33.255
33.215
33.176
33.137
33.1
33.064
33.029
32.996
32.966
32.938
32.915
32.897
32.884
32.879
32.884
32.901
32.932
32.981
33.05
33.141
33.256
33.396
33.562
33.752
33.965
34.199
34.452
34.721
35.001
35.289
35.581
35.873
36.161
36.44
36.709
36.965
37.204
37.427
37.63
37.813
37.976
38.117
38.235
38.331
38.406
38.459
38.492
38.507
38.505
38.488
38.458
38.417
38.365
38.306
38.24
38.168
38.093
38.015
37.934
37.853
37.771
37.689
37.608
37.526
37.446
37.367
37.289
37.213
37.138
37.066
36.996
36.928
36.862
36.798
36.735
36.672
36.61
36.548
36.486
36.423
36.36
36.297
36.234
36.172
36.112
36.054
35.998
35.945
35.894
35.847
35.803
35.762
35.725
35.692
35.662
35.636
35.614
35.596
35.582
35.572
35.565
35.561
35.56
35.561
35.564
35.567
35.572
35.576
35.58
35.585
35.588
35.59
35.591
35.589
35.586
35.579
35.57
35.557
35.541
35.522
35.5
35.476
35.448
35.417
35.383
35.346
35.305
35.262
35.217
35.171
35.123
35.073
35.023
34.972
34.921
34.87
34.818
34.766
34.715
34.663
34.612
34.56
34.509
34.457
34.404
34.352
34.3
34.249
34.198
34.149
34.1
34.053
34.008
33.964
33.922
33.88
33.841
33.803
33.766
33.731
33.696
33.662
33.629
33.596
33.564
33.532
33.499
33.466
33.431
33.395
33.357
33.318
33.279
33.238
33.198
33.157
33.116
33.076
33.037
32.999
32.962
32.927
32.894
32.865
32.84
32.819
32.806
32.803
32.811
32.835
32.876
32.939
33.024
33.134
33.27
33.431
33.616
33.825
34.055
34.302
34.564
34.835
35.113
35.394
35.674
35.949
36.217
36.474
36.717
36.944
37.152
37.34
37.507
37.652
37.775
37.876
37.955
38.015
38.055
38.078
38.083
38.074
38.051
38.016
37.969
37.914
37.85
37.779
37.704
37.625
37.544
37.462
37.38
37.298
37.217
37.137
37.059
36.981
36.905
36.83
36.755
36.682
36.609
36.537
36.466
36.397
36.328
36.262
36.196
36.131
36.066
36.001
35.936
35.872
35.809
35.747
35.687
35.628
35.572
35.519
35.468
35.419
35.374
35.331
35.292
35.255
35.22
35.189
35.162
35.138
35.118
35.102
35.089
35.08
35.074
35.07
35.069
35.071
35.074
35.078
35.083
35.087
35.091
35.094
35.096
35.095
35.093
35.088
35.081
35.07
35.057
35.041
35.021
34.999
34.975
34.948
34.918
34.886
34.852
34.815
34.775
34.734
34.691
34.647
34.602
34.558
34.513
34.468
34.423
34.377
34.331
34.284
34.236
34.187
34.137
34.087
34.037
33.987
33.938
33.889
33.84
33.793
33.746
33.701
33.657
33.615
33.573
33.532
33.492
33.452
33.413
33.375
33.338
33.302
33.268
33.234
33.201
33.169
33.136
33.104
33.072
33.04
33.007
32.973
32.938
32.903
32.867
32.83
32.793
32.757
32.721
32.687
32.655
32.624
32.594
32.566
32.539
32.514
32.491
32.47
32.455
32.446
32.446
32.457
32.482
32.525
32.586
32.67
32.777
32.91
33.067
33.25
33.454
33.68
33.922
34.178
34.444
34.715
34.987
35.256
35.519
35.771
36.01
36.232
36.437
36.62
36.782
36.922
37.04
37.136
37.212
37.267
37.303
37.322
37.323
37.31
37.282
37.243
37.193
37.135
37.069
36.997
36.92
36.839
36.755
36.668
36.58
36.491
36.402
36.314
36.227
36.142
36.059
35.978
35.899
35.822
35.748
35.676
35.606
35.537
35.47
35.405
35.341
35.278
35.215
35.153
35.091
35.029
34.967
34.906
34.846
34.787
34.73
34.675
34.623
34.574
34.528
34.488
34.452
34.421
34.397
34.378
34.365
34.358
34.356
34.359
34.365
34.376
34.39
34.407
34.426
34.446
34.466
34.486
34.506
34.524
34.54
34.554
34.566
34.574
34.58
34.582
34.581
34.577
34.57
34.559
34.545
34.528
34.507
34.483
34.455
34.424
34.39
34.353
34.314
34.274
34.233
34.192
34.15
34.109
34.069
34.029
33.99
33.952
33.914
33.878
33.842
33.807
33.772
33.737
33.702
33.666
33.63
33.592
33.554
33.515
33.476
33.437
33.397
33.356
33.316
33.275
33.236
33.198
33.161
33.127
33.094
33.063
33.034
33.005
32.977
32.95
32.922
32.896
32.869
32.842
32.816
32.789
32.763
32.737
32.712
32.687
32.663
32.639
32.614
32.591
32.567
32.544
32.521
32.5
32.481
32.464
32.452
32.446
32.449
32.463
32.492
32.538
32.605
32.693
32.805
32.94
33.099
33.279
33.479
33.697
33.928
34.17
34.418
34.669
34.918
35.162
35.398
35.622
35.831
36.025
36.2
36.357
36.495
36.614
36.713
36.793
36.854
36.897
36.923
36.932
36.926
36.906
36.873
36.829
36.774
36.711
36.64
36.563
36.481
36.395
36.306
36.216
36.125
36.034
35.945
35.857
35.771
35.687
35.604
35.522
35.443
35.365
35.29
35.218
35.147
35.08
35.014
34.949
34.885
34.822
34.759
34.696
34.634
34.573
34.514
34.456
34.4
34.347
34.299
34.254
34.214
34.18
34.151
34.126
34.107
34.093
34.083
34.078
34.077
34.079
34.085
34.094
34.107
34.123
34.141
34.16
34.181
34.203
34.225
34.246
34.266
34.285
34.301
34.314
34.325
34.333
34.338
34.339
34.338
34.334
34.326
34.316
34.302
34.284
34.263
34.238
34.211
34.182
34.15
34.118
34.085
34.051
34.017
33.982
33.948
33.912
33.876
33.84
33.804
33.767
33.73
33.693
33.655
33.618
33.581
33.544
33.508
33.472
33.437
33.402
33.368
33.334
33.3
33.267
33.234
33.202
33.17
33.138
33.106
33.076
33.046
33.017
32.989
32.962
32.936
32.911
32.887
32.864
32.841
32.82
32.798
32.777
32.756
32.736
32.716
32.697
32.677
32.658
32.638
32.618
32.598
32.578
32.558
32.539
32.519
32.499
32.48
32.461
32.443
32.428
32.415
32.406
32.404
32.409
32.424
32.453
32.497
32.561
32.644
32.75
32.879
33.031
33.205
33.399
33.61
33.837
34.077
34.325
34.578
34.833
35.086
35.333
35.57
35.795
36.005
36.196
36.369
36.52
36.65
36.758
36.845
36.912
36.96
36.989
37.002
36.999
36.982
36.952
36.911
36.859
36.799
36.732
36.659
36.581
36.499
36.416
36.331
36.245
36.16
36.076
35.994
35.913
35.835
35.76
35.687
35.617
35.55
35.485
35.423
35.364
35.307
35.253
35.2
35.15
35.1
35.05
35.001
34.952
34.903
34.854
34.805
34.756
34.708
34.661
34.616
34.572
34.531
34.492
34.457
34.425
34.397
34.373
34.352
34.335
34.323
34.314
34.308
34.307
34.309
34.315
34.323
34.333
34.345
34.358
34.371
34.385
34.399
34.412
34.424
34.436
34.446
34.455
34.461
34.465
34.466
34.465
34.461
34.454
34.444
34.43
34.414
34.396
34.375
34.352
34.328
34.303
34.276
34.249
34.22
34.19
34.159
34.126
34.093
34.058
34.024
33.988
33.953
33.917
33.88
33.844
33.808
33.772
33.737
33.702
33.668
33.636
33.603
33.571
33.539
33.507
33.475
33.444
33.414
33.384
33.356
33.329
33.303
33.277
33.252
33.227
33.202
33.178
33.154
33.131
33.108
33.086
33.065
33.045
33.025
33.007
32.989
32.972
32.956
32.941
32.926
32.911
32.897
32.883
32.867
32.851
32.835
32.817
32.798
32.777
32.756
32.733
32.711
32.688
32.667
32.647
32.63
32.616
32.607
32.604
32.61
32.626
32.655
32.7
32.763
32.846
32.949
33.074
33.22
33.387
33.572
33.774
33.991
34.22
34.457
34.698
34.939
35.176
35.405
35.624
35.828
36.016
36.184
36.333
36.461
36.569
36.656
36.723
36.77
36.799
36.812
36.808
36.791
36.761
36.72
36.669
36.611
36.546
36.476
36.401
36.323
36.242
36.159
36.076
35.993
35.911
35.831
35.753
35.678
35.606
35.536
35.469
35.405
35.344
35.285
35.228
35.174
35.121
35.07
35.021
34.972
34.925
34.878
34.831
34.785
34.739
34.693
34.647
34.602
34.558
34.516
34.476
34.439
34.406
34.375
34.348
34.325
34.306
34.29
34.278
34.269
34.263
34.261
34.261
34.264
34.27
34.278
34.288
34.301
34.315
34.33
34.346
34.362
34.378
34.392
34.406
34.417
34.426
34.433
34.438
34.44
34.441
34.44
34.437
34.432
34.424
34.414
34.402
34.387
34.369
34.35
34.328
34.305
34.279
34.252
34.223
34.194
34.164
34.134
34.104
34.075
34.046
34.017
33.987
33.958
33.928
33.898
33.868
33.838
33.808
33.779
33.75
33.721
33.693
33.664
33.636
33.608
33.58
33.553
33.525
33.497
33.469
33.441
33.413
33.385
33.358
33.332
33.307
33.283
33.26
33.239
33.22
33.201
33.183
33.165
33.148
33.131
33.114
33.098
33.083
33.068
33.054
33.041
33.028
33.015
33.001
32.987
32.971
32.955
32.937
32.919
32.9
32.881
32.862
32.844
32.826
32.811
32.8
32.794
32.796
32.808
32.833
32.874
32.932
33.01
33.11
33.23
33.372
33.534
33.714
33.911
34.121
34.34
34.566
34.794
35.022
35.245
35.461
35.665
35.856
36.032
36.19
36.331
36.453
36.558
36.644
36.713
36.764
36.799
36.817
36.821
36.811
36.788
36.754
36.708
36.654
36.591
36.522
36.447
36.368
36.285
36.199
36.113
36.025
35.937
35.85
35.764
35.68
35.597
35.517
35.439
35.364
35.291
35.222
35.156
35.093
35.034
34.978
34.925
34.875
34.826
34.78
34.735
34.692
34.65
34.609
34.57
34.533
34.498
34.465
34.434
34.405
34.38
34.358
34.34
34.325
34.315
34.309
34.308
34.31
34.316
34.325
34.338
34.353
34.371
34.39
34.412
34.434
34.456
34.478
34.498
34.517
34.535
34.551
34.564
34.575
34.585
34.592
34.596
34.599
34.599
34.598
34.595
34.59
34.583
34.574
34.564
34.551
34.537
34.52
34.501
34.481
34.458
34.434
34.409
34.381
34.353
34.323
34.292
34.261
34.229
34.197
34.164
34.131
34.097
34.064
34.031
33.998
33.966
33.935
33.905
33.877
33.85
33.825
33.8
33.776
33.751
33.727
33.702
33.678
33.654
33.63
33.606
33.584
33.561
33.54
33.519
33.498
33.478
33.459
33.441
33.424
33.407
33.392
33.377
33.362
33.347
33.332
33.316
33.301
33.284
33.268
33.25
33.233
33.214
33.196
33.178
33.16
33.145
33.133
33.124
33.121
33.126
33.14
33.167
33.208
33.267
33.345
33.443
33.562
33.703
33.864
34.044
34.241
34.452
34.673
34.901
35.132
35.362
35.588
35.805
36.012
36.205
36.383
36.543
36.685
36.808
36.911
36.995
37.058
37.103
37.129
37.139
37.133
37.113
37.081
37.038
36.986
36.925
36.858
36.786
36.71
36.63
36.55
36.468
36.386
36.304
36.224
36.144
36.066
35.989
35.915
35.844
35.775
35.708
35.643
35.58
35.518
35.457
35.396
35.337
35.277
35.219
35.16
35.103
35.046
34.989
34.934
34.881
34.83
34.782
34.738
34.698
34.662
34.632
34.606
34.585
34.569
34.557
34.55
34.548
34.551
34.557
34.568
34.582
34.599
34.618
34.64
34.663
34.687
34.713
34.739
34.765
34.79
34.815
34.837
34.858
34.876
34.892
34.905
34.914
34.921
34.924
34.923
34.918
34.909
34.897
34.881
34.862
34.84
34.817
34.793
34.769
34.744
34.719
34.693
34.667
34.642
34.615
34.589
34.562
34.535
34.507
34.479
34.45
34.419
34.388
34.356
34.324
34.291
34.259
34.228
34.196
34.166
34.137
34.108
34.081
34.054
34.029
34.005
33.983
33.962
33.942
33.923
33.904
33.886
33.868
33.85
33.832
33.813
33.794
33.774
33.753
33.732
33.71
33.687
33.665
33.643
33.62
33.598
33.576
33.555
33.534
33.515
33.497
33.48
33.465
33.451
33.438
33.426
33.414
33.402
33.39
33.38
33.373
33.369
33.371
33.381
33.402
33.436
33.487
33.555
33.644
33.754
33.887
34.041
34.216
34.41
34.621
34.846
35.081
35.323
35.568
35.813
36.054
36.288
36.512
36.723
36.919
37.1
37.262
37.406
37.531
37.637
37.724
37.792
37.842
37.875
37.892
37.894
37.883
37.86
37.826
37.782
37.73
37.67
37.603
37.533
37.459
37.382
37.306
37.229
37.153
37.079
37.005
36.934
36.863
36.795
36.729
36.664
36.602
36.542
36.485
36.429
36.375
36.323
36.272
36.222
36.173
36.125
36.077
36.03
35.984
35.94
35.896
35.854
35.814
35.775
