Trial 1:0back
35.79
35.745
35.705
35.668
35.635
35.605
35.579
35.557
35.538
35.52
35.503
35.487
35.47
35.453
35.436
35.418
35.399
35.378
35.357
35.335
35.312
35.29
35.267
35.246
35.225
35.207
35.191
35.178
35.167
35.159
35.152
35.149
35.147
35.149
35.153
35.161
35.172
35.185
35.201
35.219
35.238
35.258
35.279
35.3
35.318
35.335
35.349
35.359
35.367
35.371
35.371
35.368
35.361
35.349
35.333
35.313
35.289
35.261
35.23
35.197
35.162
35.126
35.091
35.056
35.023
34.991
34.961
34.934
34.908
34.884
34.861
34.84
34.82
34.8
34.783
34.767
34.751
34.736
34.719
34.702
34.685
34.667
34.648
34.629
34.609
34.588
34.565
34.542
34.52
34.496
34.473
34.449
34.426
34.403
34.381
34.362
34.344
34.328
34.313
34.3
34.289
34.28
34.273
34.269
34.267
34.266
34.268
34.27
34.272
34.276
34.28
34.284
34.288
34.291
34.293
34.293
34.292
34.289
34.284
34.277
34.268
34.257
34.245
34.232
34.219
34.206
34.194
34.183
34.176
34.175
34.181
34.195
34.219
34.253
34.3
34.359
34.433
34.52
34.622
34.736
34.861
34.995
35.136
35.282
35.431
35.579
35.724
35.864
35.996
36.119
36.23
36.329
36.413
36.482
36.535
36.573
36.596
36.605
36.601
36.584
36.557
36.521
36.478
36.429
36.376
36.32
36.262
36.203
36.144
36.088
36.034
35.983
35.937
35.895
35.857
35.823
35.794
35.769
35.749
35.733
35.719
35.708
35.697
35.688
35.677
35.665
35.651
35.635
35.617
35.596
35.573
35.549
35.524
35.499
35.473
35.449
35.426
35.405
35.387
35.37
35.356
35.344
35.336
35.331
35.331
35.334
35.342
35.353
35.366
35.383
35.402
35.423
35.444
35.466
35.486
35.503
35.518
35.529
35.536
35.538
35.535
35.528
35.516
35.499
35.477
35.451
35.421
35.388
35.35
35.31
35.269
35.228
35.185
35.141
35.098
35.056
35.015
34.976
34.939
34.904
34.871
34.841
34.812
34.786
34.762
34.74
34.719
34.699
34.679
34.659
34.64
34.621
34.602
34.581
34.56
34.538
34.514
34.49
34.465
34.44
34.414
34.388
34.362
34.335
34.307
34.279
34.252
34.225
34.198
34.173
34.15
34.129
34.111
34.097
34.086
34.078
34.073
34.07
34.071
34.074
34.08
34.088
34.096
34.105
34.113
34.119
34.124
34.127
34.127
34.123
34.117
34.108
34.096
34.082
34.065
34.045
34.023
34.0
33.975
33.95
33.925
33.9
33.876
33.853
33.83
33.809
33.788
33.771
33.757
33.748
33.745
33.749
33.761
33.784
33.819
33.868
33.93
34.006
34.096
34.198
34.312
34.437
34.571
34.712
34.857
35.004
35.15
35.295
35.435
35.568
35.694
35.809
35.915
36.01
36.094
36.166
36.226
36.272
36.305
36.327
36.337
36.337
36.328
36.31
36.285
36.254
36.219
36.18
36.14
36.098
36.055
36.011
35.967
35.921
35.876
35.829
35.782
35.734
35.686
35.637
35.588
35.54
35.491
35.444
35.396
35.349
35.304
35.26
35.217
35.177
35.139
35.105
35.074
35.05
35.031
35.019
35.013
35.013
35.018
35.028
35.043
35.061
35.083
35.107
35.131
35.155
35.179
35.201
35.222
35.241
35.259
35.274
35.288
35.299
35.309
35.316
35.322
35.326
35.327
35.325
35.32
35.312
35.301
35.287
35.27
35.25
35.228
35.204
35.18
35.155
35.131
35.107
35.082
35.057
35.033
35.009
34.986
34.963
34.941
34.918
34.894
34.869
34.843
34.815
34.785
34.753
34.719
34.683
34.646
34.607
34.568
34.529
34.489
34.45
34.411
34.375
34.34
34.308
34.279
34.252
34.228
34.209
34.193
34.181
34.174
34.171
34.172
34.175
34.18
34.188
34.198
34.208
34.219
34.229
34.238
34.244
34.249
34.252
34.252
34.249
34.244
34.235
34.224
34.211
34.197
34.181
34.165
34.148
34.131
34.115
34.1
34.086
34.072
34.059
34.048
34.038
34.03
34.025
34.024
34.027
34.033
34.045
34.062
34.086
34.117
34.156
34.203
34.26
34.326
34.402
34.489
34.584
34.69
34.802
34.922
35.046
35.173
35.302
35.429
35.554
35.674
35.788
35.893
35.989
36.075
36.151
36.216
36.27
36.311
36.342
36.361
36.371
36.371
36.363
36.347
36.325
36.296
36.262
36.225
36.185
36.142
36.098
36.052
36.004
35.956
35.907
35.857
35.805
35.753
35.699
35.644
35.589
35.534
35.478
35.423
35.368
35.313
35.261
35.212
35.165
35.123
35.083
35.049
35.019
34.996
34.979
34.969
34.967
34.971
34.981
34.998
35.021
35.05
35.083
35.121
35.16
35.2
35.239
35.277
35.313
35.345
35.374
35.398
35.418
35.434
35.446
35.454
35.459
35.46
35.457
35.451
35.441
35.428
35.412
35.393
35.372
35.35
35.325
35.3
35.276
35.251
35.228
35.204
35.181
35.157
35.133
35.109
35.085
35.061
35.038
35.014
34.99
34.967
34.944
34.921
34.897
34.872
34.847
34.82
34.792
34.764
34.735
34.704
34.673
34.641
34.61
34.58
34.55
34.521
34.493
34.467
34.443
34.422
34.404
34.39
34.379
34.371
34.367
34.366
34.368
34.372
34.38
34.39
34.401
34.413
34.425
34.437
34.446
34.452
34.455
34.453
34.447
34.439
34.426
34.412
34.395
34.377
34.357
34.336
34.315
34.294
34.273
34.254
34.236
34.221
34.209
34.2
34.197
34.2
34.211
34.231
34.26
34.301
34.354
34.421
34.502
34.597
34.705
34.826
34.958
35.099
35.248
35.402
35.558
35.715
35.868
36.017
36.16
36.294
36.419
36.532
36.633
36.719
36.791
36.848
36.892
36.921
36.937
36.94
36.932
36.914
36.89
36.859
36.824
36.784
36.741
36.695
36.648
36.6
36.552
36.503
36.454
36.405
36.356
36.308
36.261
36.213
36.166
36.118
36.069
36.021
35.973
35.926
35.879
35.832
35.787
35.745
35.705
35.669
35.636
35.606
35.58
35.558
35.542
35.531
35.526
35.526
35.531
35.542
35.557
35.578
35.603
35.633
35.666
35.701
35.738
35.776
35.812
35.848
35.88
35.908
35.931
35.95
35.965
35.974
35.979
35.979
35.974
35.965
35.953
35.938
35.922
35.903
35.883
35.862
35.84
35.818
35.796
35.774
35.752
35.731
35.709
35.688
35.666
35.646
35.626
35.606
35.587
35.566
35.544
35.521
35.495
35.467
35.437
35.404
35.368
35.33
35.289
35.247
35.204
35.159
35.114
35.069
35.024
34.981
34.941
34.903
34.868
34.835
34.805
34.778
34.754
34.734
34.718
34.705
34.696
34.689
34.685
34.685
34.686
34.69
34.695
34.7
34.704
34.708
34.711
34.714
34.714
34.713
34.709
34.702
34.694
34.685
34.675
34.665
34.655
34.645
34.634
34.624
34.615
34.605
34.597
34.589
34.584
34.581
34.583
34.591
34.607
34.633
34.67
34.718
34.781
34.857
34.95
35.058
35.182
35.32
35.47
35.631
35.801
35.976
36.154
36.332
36.506
36.674
36.831
36.978
37.111
37.228
37.329
37.413
37.48
37.531
37.565
37.585
37.59
37.581
37.562
37.532
37.493
37.448
37.397
37.342
37.283
37.222
37.159
37.096
37.034
36.971
36.909
36.848
36.788
36.729
36.672
36.616
36.562
36.51
36.46
36.411
36.363
36.316
36.27
36.225
36.18
36.136
36.093
36.051
36.009
35.968
35.93
35.895
35.865
35.84
35.821
35.809
35.804
35.805
35.811
35.824
35.843
35.867
35.896
35.927
35.959
35.992
36.025
36.057
36.085
36.11
36.129
36.144
36.153
36.157
36.156
36.149
36.137
36.121
36.1
36.078
36.053
36.026
35.998
35.969
35.94
35.911
35.882
35.854
35.826
35.798
35.77
35.741
35.712
35.682
35.651
35.619
35.586
35.553
35.518
35.483
35.446
35.409
35.371
35.331
35.291
35.251
35.211
35.17
35.13
35.089
35.048
35.007
34.966
34.926
34.888
34.852
34.818
34.785
34.756
34.729
34.706
34.688
34.674
34.664
34.658
34.655
34.654
34.656
34.66
34.666
34.672
34.678
34.682
34.683
34.683
34.68
34.673
34.663
34.649
34.632
34.613
34.591
34.567
34.542
34.517
34.491
34.465
34.44
34.418
34.4
34.386
34.379
34.379
34.389
34.411
34.446
34.496
34.564
34.648
34.749
34.868
35.002
35.153
35.317
35.493
35.678
35.867
36.058
36.246
36.428
36.6
36.761
36.906
37.035
37.146
37.238
37.311
37.365
37.401
37.419
37.421
37.408
37.383
37.345
37.297
37.241
37.18
37.114
37.046
36.978
36.909
36.842
36.778
36.717
36.661
36.608
36.56
36.514
36.471
36.429
36.389
36.35
36.31
36.27
36.229
36.185
36.138
36.09
36.039
35.988
35.935
35.882
35.829
35.779
35.731
35.687
35.647
35.611
35.581
35.557
35.539
35.528
35.524
35.528
35.537
35.552
35.571
35.593
35.618
35.644
35.672
35.699
35.725
35.749
35.772
35.793
35.81
35.823
35.832
35.837
35.837
35.833
35.824
35.811
35.793
35.772
35.747
35.719
35.689
35.658
35.624
35.588
35.551
35.512
35.472
35.431
35.391
35.35
35.31
35.269
35.228
35.187
35.147
35.106
35.064
35.022
34.98
34.937
34.893
34.85
34.807
34.764
34.721
34.678
34.635
34.591
34.548
34.506
34.465
34.424
34.384
34.345
34.308
34.272
34.239
34.208
34.18
34.153
34.129
34.107
34.088
34.071
34.057
34.044
34.032
34.02
34.01
34.001
33.994
33.987
33.981
33.976
33.972
33.967
33.962
33.955
33.948
33.938
33.927
33.915
33.902
33.89
33.878
33.868
33.863
33.862
33.868
33.883
33.909
33.949
34.004
34.074
34.161
34.264
34.384
34.52
34.67
34.832
35.004
35.182
35.364
35.547
35.73
35.908
36.078
36.24
36.389
36.524
36.644
36.747
36.833
36.9
36.949
36.981
36.995
36.994
36.977
36.946
36.903
36.849
36.786
36.717
36.643
36.565
36.485
36.403
36.321
36.241
36.164
36.09
36.021
35.956
35.897
35.842
35.793
35.75
35.71
35.673
35.636
35.6
35.563
35.526
35.489
35.451
35.413
35.375
35.338
35.302
35.269
35.239
35.212
35.189
35.169
35.155
35.145
35.141
35.141
35.146
35.157
35.172
35.191
35.215
35.244
35.276
35.312
35.349
35.388
35.427
35.464
35.501
35.535
35.565
35.592
35.615
35.632
35.645
35.654
35.656
35.654
35.646
35.632
35.613
35.59
35.562
35.529
35.492
35.452
35.41
35.366
35.321
35.276
35.231
35.187
35.143
35.101
35.06
35.022
34.985
34.951
34.917
34.886
34.857
34.829
34.805
34.782
34.761
34.741
34.723
34.705
34.688
34.672
34.655
34.638
34.62
34.601
34.581
34.561
34.54
34.519
34.496
34.472
34.449
34.426
34.404
34.381
34.359
34.337
34.317
34.297
34.28
34.266
34.255
34.247
34.242
34.241
34.244
34.251
34.264
34.283
34.308
34.341
34.382
34.432
34.493
34.564
34.647
34.741
34.845
34.96
35.085
35.218
35.358
35.503
35.651
35.8
35.948
36.093
36.233
36.366
36.49
36.604
36.708
36.799
36.879
36.947
37.002
37.044
37.073
37.089
37.093
37.086
37.069
37.042
37.006
36.962
36.911
36.853
36.789
36.719
36.645
36.567
36.486
36.401
36.315
36.227
36.14
36.053
35.966
35.881
35.798
35.717
35.639
35.564
35.493
35.427
35.367
35.312
35.264
35.223
35.19
35.164
35.146
35.136
35.134
35.138
35.149
35.164
35.184
35.207
35.233
35.261
35.289
35.319
35.348
35.377
35.405
35.432
35.458
35.482
35.504
35.524
35.542
35.557
35.57
35.579
35.585
35.588
35.588
35.585
35.581
35.574
35.566
35.556
35.544
35.53
35.513
35.496
35.476
35.455
35.431
35.406
35.379
35.349
35.318
35.284
35.248
35.209
35.168
35.124
35.08
35.035
34.988
34.941
34.893
34.845
34.797
34.75
34.704
34.659
34.616
34.574
34.536
34.5
34.468
34.439
34.413
34.391
34.371
34.353
34.337
34.324
34.311
34.3
34.29
34.28
34.269
34.258
34.246
34.233
34.22
34.205
34.191
34.177
34.166
34.159
34.157
34.164
34.179
34.206
34.246
34.301
34.372
34.459
34.563
34.682
34.817
34.964
35.124
35.292
35.468
35.647
35.827
36.006
36.179
36.347
36.506
36.654
36.789
36.908
37.011
37.097
37.165
37.214
37.245
37.257
37.254
37.235
37.203
37.159
37.104
37.039
36.967
36.89
36.809
36.725
36.641
36.557
36.475
36.396
36.322
36.253
36.188
36.128
36.073
36.021
35.972
35.925
35.882
35.84
35.799
35.759
35.721
35.684
35.649
35.616
35.584
35.554
35.526
35.499
35.475
35.454
35.436
35.42
35.408
35.399
35.395
35.396
35.401
35.411
35.424
35.442
35.464
35.488
35.515
35.544
35.575
35.605
35.635
35.663
35.69
35.715
35.737
35.757
35.773
35.785
35.792
35.794
35.79
35.781
35.766
35.746
35.72
35.69
35.655
35.618
35.577
35.534
35.489
35.441
35.393
35.344
35.294
35.243
35.193
35.143
35.095
35.049
35.006
34.966
34.929
34.895
34.863
34.833
34.804
34.779
34.755
34.734
34.713
34.692
34.671
34.65
34.627
34.604
34.579
34.552
34.524
34.495
34.465
34.434
34.403
34.372
34.342
34.314
34.288
34.265
34.247
34.233
34.224
34.223
34.23
34.248
34.28
34.326
34.389
34.469
34.567
34.684
34.818
34.969
35.135
35.315
35.504
35.701
35.901
36.102
36.299
36.489
36.668
36.835
36.986
37.119
37.235
37.33
37.406
37.462
37.499
37.518
37.52
37.507
37.48
37.442
37.395
37.34
37.281
37.22
37.156
37.093
37.03
36.969
36.91
36.854
36.801
36.751
36.704
36.66
36.617
36.575
36.535
36.493
36.451
36.408
36.364
36.317
36.269
36.22
36.17
36.12
36.07
36.021
35.975
35.932
35.892
35.856
35.824
35.797
35.775
35.758
35.747
35.741
35.74
35.743
35.751
35.763
35.778
35.798
35.819
35.843
35.868
35.893
35.917
35.939
35.959
35.975
35.987
35.995
35.998
35.997
35.992
35.982
35.968
35.949
35.925
35.897
35.865
35.829
35.789
35.747
35.703
35.657
35.612
35.568
35.525
35.483
35.444
35.406
35.371
35.339
35.309
35.282
35.257
35.232
35.208
35.184
35.159
35.133
35.105
35.075
35.042
35.007
34.97
34.932
34.893
34.852
34.811
34.77
34.728
34.688
34.65
34.613
34.577
34.544
34.512
34.483
34.456
34.433
34.412
34.395
34.38
34.368
34.36
34.355
34.355
34.361
34.373
34.392
34.421
34.459
34.509
34.572
34.648
34.737
34.842
34.96
35.091
35.235
35.391
35.557
35.73
35.907
36.086
36.265
36.44
36.608
36.768
36.917
37.054
37.177
37.285
37.378
37.455
37.516
37.563
37.596
37.615
37.622
37.617
37.6
37.574
37.54
37.499
37.453
37.401
37.345
37.287
37.227
37.165
37.104
37.043
36.982
36.922
36.863
36.807
36.753
36.702
36.653
36.607
36.563
36.523
36.486
36.451
36.419
36.388
36.358
36.33
36.302
36.276
36.25
36.226
36.202
36.179
36.158
36.138
36.12
36.103
36.088
36.074
36.063
36.053
36.045
36.038
36.032
36.025
36.019
36.012
36.006
35.999
35.993
35.988
35.982
35.977
35.973
35.969
35.966
35.963
35.958
35.953
35.945
35.935
35.924
35.91
35.894
35.876
35.855
35.831
35.804
35.775
35.742
35.707
35.67
35.63
35.588
35.544
35.498
35.45
35.402
35.353
35.303
35.253
35.203
35.154
35.107
35.06
35.016
34.974
34.934
34.898
34.866
34.837
34.811
34.788
34.768
34.751
34.738
34.728
34.72
34.714
34.708
34.703
34.697
34.689
34.68
34.668
34.654
34.637
34.618
34.595
34.571
34.544
34.515
34.485
34.454
34.422
34.39
34.361
34.333
34.308
34.287
34.272
34.262
34.261
34.27
34.29
34.324
34.374
34.44
34.523
34.625
34.745
34.882
35.034
35.197
35.37
35.55
35.732
35.915
36.094
36.265
36.427
36.576
36.712
36.834
36.94
37.028
37.1
37.155
37.193
37.215
37.223
37.217
37.201
37.176
37.144
37.108
37.069
37.03
36.99
36.95
36.912
36.876
36.843
36.814
36.788
36.765
36.745
36.728
36.712
36.697
36.682
36.665
36.646
36.624
36.599
36.57
36.539
36.503
36.464
36.421
36.375
36.327
36.276
36.224
36.173
36.122
36.073
36.027
35.985
35.948
35.916
35.89
35.868
35.853
35.842
35.836
35.836
35.84
35.847
35.857
35.868
35.88
35.891
35.902
35.91
35.915
35.916
35.914
35.908
35.899
35.886
35.868
35.846
35.819
35.79
35.758
35.723
35.687
35.649
35.611
35.574
35.538
35.504
35.472
35.442
35.415
35.389
35.366
35.345
35.326
35.308
35.289
35.27
35.249
35.228
35.204
35.177
35.148
35.115
35.079
35.041
35.002
34.96
34.918
34.875
34.832
34.789
34.748
34.707
34.669
34.633
34.6
34.568
34.539
34.512
34.489
34.468
34.45
34.435
34.423
34.412
34.403
34.395
34.39
34.386
34.382
34.379
34.376
34.371
34.366
34.359
34.35
34.34
34.328
34.314
34.3
34.285
34.269
34.251
34.233
34.214
34.194
34.173
34.151
34.13
34.109
34.087
34.066
34.045
34.025
34.007
33.991
33.977
33.966
33.957
33.949
33.943
33.938
33.934
33.931
33.928
33.924
33.917
33.908
33.896
33.881
33.863
33.842
33.819
33.794
33.769
33.743
33.717
33.694
33.674
33.659
33.651
33.653
33.667
33.696
33.74
33.802
33.881
33.977
34.092
34.223
34.369
34.528
34.698
34.876
35.058
35.242
35.424
35.602
35.772
35.932
36.078
36.21
36.325
36.423
36.503
36.565
36.609
36.636
36.645
36.641
36.622
36.593
36.554
36.507
36.454
36.397
36.337
36.277
36.218
36.161
36.108
36.061
36.019
35.984
35.955
35.93
35.911
35.895
35.882
35.871
35.861
35.852
35.842
35.832
35.819
35.805
35.787
35.766
35.742
35.713
35.682
35.647
35.61
35.571
35.531
35.491
35.452
35.414
35.378
35.346
35.317
35.291
35.269
35.25
35.235
35.224
35.217
35.213
35.213
35.214
35.217
35.221
35.226
35.23
35.234
35.236
35.236
35.233
35.229
35.222
35.212
35.199
35.183
35.163
35.14
35.114
35.086
35.055
35.022
34.987
34.95
34.911
34.871
34.83
34.789
34.746
34.702
34.658
34.615
34.574
34.534
34.497
34.462
34.431
34.402
34.374
34.349
34.327
34.307
34.289
34.274
34.26
34.247
34.234
34.222
34.209
34.195
34.18
34.164
34.147
34.128
34.109
34.09
34.069
34.048
34.026
34.003
33.98
33.956
33.933
33.91
33.888
33.866
33.846
33.827
33.812
33.799
33.789
33.781
33.776
33.773
33.771
33.77
33.772
33.775
33.78
33.784
33.789
33.794
33.797
33.8
33.801
33.801
33.798
33.793
33.786
33.776
33.764
33.751
33.735
33.718
33.698
33.678
33.657
33.635
33.613
33.591
33.568
33.545
33.523
33.503
33.485
33.468
33.453
33.44
33.427
33.415
33.404
33.393
33.383
33.374
33.366
33.36
33.355
33.352
33.353
33.357
33.366
33.382
33.404
33.435
33.476
33.528
33.593
33.669
33.758
33.859
33.971
34.092
34.221
34.357
34.495
34.634
34.771
34.904
35.031
35.152
35.263
35.365
35.455
35.533
35.598
35.651
35.692
35.722
35.741
35.75
35.75
35.741
35.724
35.701
35.671
35.635
35.595
35.552
35.508
35.462
35.417
35.373
35.331
35.29
35.251
35.213
35.178
35.145
35.113
35.084
35.056
35.029
35.004
34.981
34.961
34.943
34.928
34.914
34.903
34.893
34.887
34.882
34.88
34.879
34.879
34.88
34.882
34.883
34.885
34.885
34.885
34.883
34.881
34.879
34.877
34.875
34.874
34.874
34.873
34.873
34.874
34.876
34.879
34.884
34.889
34.895
34.902
34.91
34.918
34.926
34.934
34.939
34.942
34.944
34.944
34.942
34.939
34.935
34.928
34.92
34.91
34.897
34.881
34.863
34.842
34.818
34.791
34.763
34.733
34.702
34.67
34.636
34.6
34.564
34.526
34.488
34.451
34.413
34.376
34.341
34.309
34.28
34.255
34.236
34.22
34.209
34.201
34.197
34.195
34.195
34.198
34.202
34.205
34.208
34.211
34.211
34.211
34.209
34.204
34.197
34.187
34.175
34.162
34.147
34.131
34.115
34.099
34.082
34.067
34.053
34.039
34.027
34.014
34.002
33.99
33.979
33.968
33.959
33.951
33.944
33.939
33.933
33.928
33.922
33.917
33.912
33.908
33.905
33.902
33.9
33.897
33.896
33.896
33.897
33.9
33.906
33.915
33.928
33.948
33.974
34.009
34.052
34.104
34.166
34.237
34.317
34.405
34.501
34.604
34.712
34.824
34.939
35.054
35.169
35.281
35.389
35.49
35.582
35.665
35.738
35.801
35.853
35.893
35.921
35.938
35.944
35.94
35.925
35.902
35.869
35.83
35.785
35.736
35.685
35.633
35.581
35.529
35.48
35.433
35.389
35.349
35.311
35.277
35.246
35.219
35.195
35.175
35.158
35.142
35.128
35.114
35.101
35.089
35.078
35.069
35.061
35.053
35.046
35.04
35.035
35.031
35.027
35.025
35.023
35.022
35.022
35.023
35.026
35.029
35.032
35.036
35.04
35.043
35.047
35.05
35.052
35.054
35.055
35.057
35.059
35.062
35.065
35.069
35.073
35.077
35.08
35.082
35.082
35.082
35.08
35.075
35.068
35.058
35.045
35.029
35.011
34.99
34.967
34.94
34.91
34.878
