Trial 1:0back
40.404
40.343
40.282
40.221
40.161
40.101
40.04
39.978
39.915
39.851
39.785
39.717
39.647
39.576
39.502
39.426
39.349
39.271
39.193
39.116
39.041
38.968
38.898
38.831
38.766
38.705
38.647
38.594
38.545
38.501
38.46
38.424
38.39
38.36
38.333
38.309
38.288
38.268
38.251
38.234
38.22
38.206
38.194
38.183
38.172
38.161
38.15
38.139
38.126
38.111
38.094
38.075
38.054
38.03
38.003
37.974
37.943
37.909
37.873
37.834
37.791
37.745
37.695
37.64
37.581
37.517
37.448
37.374
37.297
37.215
37.129
37.04
36.949
36.854
36.757
36.658
36.558
36.457
36.356
36.256
36.158
36.062
35.969
35.879
35.792
35.707
35.624
35.543
35.463
35.384
35.306
35.229
35.153
35.076
35.0
34.924
34.848
34.773
34.698
34.624
34.552
34.483
34.418
34.36
34.31
34.272
34.249
34.243
34.258
34.297
34.36
34.451
34.571
34.72
34.899
35.105
35.337
35.592
35.869
36.164
36.472
36.79
37.114
37.439
37.762
38.08
38.388
38.684
38.965
39.227
39.469
39.69
39.887
40.06
40.209
40.333
40.433
40.512
40.571
40.611
40.637
40.649
40.652
40.646
40.636
40.62
40.601
40.579
40.555
40.528
40.498
40.464
40.427
40.384
40.334
40.276
40.209
40.133
40.047
39.952
39.848
39.737
39.619
39.496
39.37
39.242
39.116
38.992
38.872
38.757
38.649
38.55
38.458
38.376
38.304
38.241
38.187
38.142
38.106
38.078
38.057
38.042
38.033
38.028
38.027
38.03
38.036
38.045
38.055
38.066
38.077
38.087
38.096
38.104
38.11
38.115
38.118
38.119
38.118
38.114
38.107
38.097
38.083
38.065
38.042
38.016
37.986
37.953
37.916
37.877
37.834
37.79
37.743
37.695
37.645
37.593
37.539
37.483
37.425
37.363
37.299
37.231
37.16
37.086
37.011
36.933
36.854
36.774
36.694
36.613
36.533
36.454
36.374
36.295
36.217
36.137
36.058
35.978
35.897
35.816
35.735
35.653
35.571
35.488
35.406
35.324
35.244
35.165
35.089
35.015
34.943
34.875
34.809
34.748
34.693
34.646
34.608
34.584
34.575
34.584
34.614
34.668
34.746
34.852
34.987
35.149
35.34
35.558
35.801
36.068
36.354
36.657
36.972
37.295
37.621
37.947
38.268
38.579
38.878
39.16
39.424
39.665
39.884
40.078
40.247
40.39
40.507
40.6
40.667
40.711
40.734
40.737
40.721
40.69
40.644
40.587
40.519
40.444
40.365
40.281
40.197
40.113
40.029
39.947
39.867
39.788
39.711
39.634
39.557
39.48
39.401
39.32
39.236
39.149
39.058
38.964
38.867
38.767
38.665
38.563
38.463
38.365
38.272
38.184
38.103
38.03
37.966
37.911
37.866
37.833
37.809
37.797
37.794
37.8
37.814
37.833
37.858
37.885
37.914
37.943
37.97
37.996
38.019
38.039
38.054
38.064
38.069
38.068
38.062
38.05
38.033
38.011
37.984
37.953
37.918
37.88
37.838
37.793
37.744
37.691
37.634
37.574
37.509
37.441
37.369
37.295
37.218
37.139
37.058
36.977
36.894
36.812
36.73
36.647
36.564
36.481
36.397
36.313
36.228
36.142
36.055
35.967
35.878
35.788
35.698
35.608
35.518
35.428
35.337
35.247
35.156
35.066
34.976
34.887
34.799
34.711
34.624
34.538
34.453
34.37
34.289
34.21
34.135
34.064
34.0
33.945
33.903
33.876
33.867
33.881
33.919
33.984
34.078
34.204
34.361
34.549
34.767
35.014
35.286
35.579
35.89
36.216
36.55
36.891
37.231
37.568
37.897
38.214
38.515
38.796
39.055
39.29
39.499
39.682
39.839
39.971
40.08
40.166
40.232
40.278
40.307
40.32
40.317
40.301
40.274
40.236
40.188
40.132
40.068
39.997
39.921
39.84
39.756
39.667
39.576
39.482
39.385
39.285
39.182
39.077
38.97
38.861
38.751
38.639
38.525
38.411
38.297
38.183
38.071
37.962
37.856
37.753
37.655
37.561
37.472
37.389
37.312
37.242
37.178
37.121
37.071
37.027
36.988
36.955
36.927
36.903
36.883
36.866
36.853
36.842
36.833
36.825
36.818
36.813
36.808
36.803
36.797
36.789
36.779
36.765
36.749
36.729
36.706
36.679
36.649
36.616
36.58
36.542
36.502
36.46
36.416
36.371
36.325
36.278
36.231
36.182
36.134
36.086
36.038
35.992
35.947
35.903
35.86
35.818
35.777
35.736
35.695
35.652
35.607
35.558
35.506
35.448
35.385
35.316
35.241
35.161
35.074
34.981
34.883
34.779
34.67
34.559
34.446
34.332
34.22
34.111
34.007
33.909
33.821
33.743
33.68
33.633
33.605
33.599
33.617
33.662
33.735
33.837
33.97
34.132
34.324
34.544
34.789
35.057
35.345
35.65
35.967
36.294
36.626
36.958
37.288
37.611
37.925
38.226
38.512
38.78
39.03
39.259
39.468
39.656
39.824
39.971
40.098
40.205
40.293
40.362
40.414
40.45
40.469
40.474
40.466
40.445
40.414
40.374
40.324
40.268
40.206
40.139
40.068
39.994
39.917
39.837
39.754
39.667
39.577
39.482
39.383
39.28
39.172
39.059
38.943
38.822
38.698
38.571
38.443
38.314
38.186
38.06
37.937
37.819
37.705
37.598
37.499
37.407
37.323
37.248
37.182
37.125
37.076
37.034
37.0
36.973
36.952
36.935
36.923
36.914
36.907
36.903
36.9
36.897
36.894
36.89
36.884
36.877
36.867
36.855
36.839
36.821
36.799
36.774
36.746
36.715
36.681
36.644
36.605
36.562
36.517
36.468
36.416
36.361
36.302
36.24
36.174
36.105
36.032
35.956
35.879
35.8
35.72
35.64
35.56
35.479
35.4
35.321
35.244
35.169
35.094
35.021
34.949
34.879
34.81
34.743
34.677
34.613
34.549
34.487
34.426
34.367
34.309
34.251
34.196
34.142
34.092
34.045
34.002
33.965
33.935
33.913
33.9
33.9
33.915
33.946
33.997
34.07
34.166
34.288
34.436
34.611
34.813
35.043
35.298
35.576
35.875
36.191
36.521
36.86
37.205
37.549
37.889
38.22
38.537
38.838
39.117
39.374
39.607
39.816
39.999
40.158
40.293
40.405
40.494
40.563
40.612
40.645
40.662
40.666
40.657
40.638
40.611
40.577
40.539
40.497
40.452
40.405
40.356
40.307
40.256
40.205
40.154
40.102
40.05
39.997
39.943
39.888
39.83
39.769
39.705
39.636
39.562
39.483
39.398
39.309
39.215
39.117
39.016
38.912
38.808
38.703
38.598
38.495
38.395
38.298
38.205
38.118
38.036
37.961
37.891
37.827
37.768
37.715
37.667
37.623
37.583
37.545
37.51
37.474
37.439
37.403
37.367
37.329
37.291
37.251
37.21
37.167
37.121
37.073
37.022
36.968
36.91
36.848
36.782
36.712
36.639
36.562
36.481
36.398
36.311
36.222
36.131
36.039
35.946
35.853
35.762
35.672
35.585
35.5
35.417
35.336
35.256
35.178
35.099
35.022
34.944
34.866
34.788
34.709
34.628
34.547
34.465
34.382
34.299
34.216
34.132
34.048
33.965
33.882
33.8
33.719
33.638
33.558
33.478
33.398
33.318
33.238
33.159
33.079
33.001
32.923
32.847
32.772
32.699
32.628
32.56
32.496
32.436
32.382
32.336
32.3
32.276
32.267
32.275
32.303
32.353
32.428
32.53
32.659
32.818
33.005
33.223
33.468
33.74
34.037
34.355
34.69
35.039
35.397
35.759
36.12
36.476
36.821
37.151
37.463
37.753
38.02
38.261
38.474
38.661
38.82
38.952
39.059
39.143
39.207
39.252
39.281
39.297
39.302
39.297
39.284
39.266
39.243
39.217
39.19
39.161
39.133
39.104
39.076
39.047
39.018
38.989
38.958
38.925
38.891
38.855
38.815
38.772
38.725
38.674
38.618
38.558
38.492
38.421
38.346
38.266
38.181
38.094
38.005
37.915
37.824
37.733
37.643
37.554
37.468
37.384
37.304
37.229
37.159
37.093
37.034
36.979
36.931
36.887
36.848
36.813
36.781
36.753
36.727
36.702
36.679
36.656
36.634
36.613
36.591
36.568
36.545
36.52
36.493
36.462
36.429
36.391
36.349
36.302
36.25
36.192
36.13
36.062
35.99
35.914
35.833
35.75
35.663
35.574
35.484
35.392
35.301
35.209
35.116
35.024
34.933
34.842
34.751
34.661
34.572
34.482
34.393
34.305
34.216
34.128
34.04
33.952
33.865
33.78
33.696
33.613
33.533
33.455
33.379
33.304
33.232
33.16
33.089
33.018
32.948
32.879
32.81
32.743
32.677
32.614
32.552
32.491
32.432
32.375
32.319
32.266
32.214
32.164
32.115
32.069
32.025
31.983
31.943
31.904
31.866
31.829
31.794
31.759
31.727
31.696
31.666
31.638
31.61
31.583
31.557
31.531
31.505
31.479
31.454
31.429
31.404
31.379
31.354
31.328
31.301
31.274
31.245
31.215
31.185
31.154
31.123
31.091
31.058
31.024
30.99
30.955
30.921
30.887
30.857
30.83
30.81
30.797
30.794
30.803
30.828
30.871
30.935
31.023
31.137
31.279
31.449
31.648
31.876
32.131
32.413
32.718
33.045
33.388
33.744
34.108
34.475
34.84
35.197
35.543
35.874
36.186
36.476
36.742
36.983
37.199
37.388
37.551
37.689
37.803
37.895
37.965
38.017
38.051
38.071
38.077
38.074
38.062
38.045
38.025
38.002
37.979
37.956
37.934
37.913
37.894
37.876
37.859
37.842
37.826
37.808
37.789
37.768
37.744
37.717
37.685
37.648
37.604
37.555
37.499
37.437
37.369
37.296
37.22
37.142
37.063
36.984
36.907
36.831
36.757
36.687
36.619
36.555
36.495
36.439
36.389
36.344
36.303
36.267
36.234
36.206
36.181
36.159
36.138
36.119
36.1
36.08
36.06
36.039
36.017
35.995
35.971
35.946
35.919
35.89
35.859
35.827
35.793
35.757
35.72
35.681
35.64
35.598
35.553
35.506
35.455
35.4
35.342
35.281
35.215
35.147
35.077
35.003
34.928
34.851
34.773
34.694
34.616
34.538
34.462
34.387
34.314
34.243
34.174
34.107
34.042
33.979
33.917
33.857
33.798
33.741
33.684
33.628
33.572
33.518
33.464
33.411
33.36
33.31
33.262
33.216
33.172
33.129
33.088
33.047
33.008
32.97
32.934
32.899
32.865
32.832
32.799
32.767
32.735
32.703
32.671
32.638
32.605
32.572
32.538
32.506
32.473
32.441
32.41
32.38
32.351
32.323
32.296
32.271
32.248
32.226
32.206
32.187
32.17
32.153
32.137
32.12
32.103
32.084
32.065
32.045
32.023
32.001
31.978
31.954
31.929
31.904
31.878
31.852
31.826
31.8
31.774
31.747
31.718
31.689
31.658
31.627
31.595
31.561
31.527
31.491
31.454
31.417
31.38
31.343
31.306
31.27
31.235
31.201
31.168
31.137
31.107
31.081
31.059
31.042
31.035
31.037
31.053
31.084
31.134
31.205
31.298
31.416
31.558
31.726
31.917
32.133
32.369
32.625
32.898
33.183
33.478
33.778
34.08
34.381
34.675
34.96
35.233
35.491
35.732
35.953
36.154
36.333
36.489
36.624
36.737
36.829
36.9
36.954
36.991
37.013
37.023
37.022
37.012
36.995
36.973
36.947
36.919
36.889
36.86
36.833
36.807
36.784
36.763
36.744
36.726
36.709
36.692
36.674
36.655
36.634
36.609
36.582
36.551
36.516
36.478
36.436
36.391
36.343
36.292
36.24
36.187
36.132
36.078
36.025
35.973
35.923
35.875
35.83
35.79
35.754
35.722
35.695
35.674
35.658
35.647
35.641
35.639
35.642
35.648
35.656
35.667
35.68
35.692
35.704
35.715
35.724
35.73
35.733
35.733
35.729
35.721
35.71
35.695
35.676
35.654
35.628
35.599
35.567
35.534
35.499
35.462
35.425
35.385
35.345
35.303
35.261
35.218
35.174
35.131
35.087
35.043
34.999
34.954
34.909
34.864
34.817
34.769
34.72
34.669
34.617
34.564
34.509
34.454
34.398
34.341
34.285
34.229
34.174
34.119
34.065
34.011
33.958
33.905
33.853
33.8
33.747
33.695
33.643
33.593
33.543
33.494
33.445
33.397
33.35
33.302
33.256
33.21
33.165
33.121
33.078
33.037
32.997
32.958
32.921
32.886
32.853
32.822
32.794
32.769
32.745
32.723
32.703
32.684
32.666
32.649
32.632
32.615
32.597
32.579
32.56
32.54
32.518
32.495
32.47
32.444
32.417
32.388
32.358
32.328
32.297
32.266
32.233
32.201
32.168
32.134
32.101
32.068
32.036
32.006
31.98
31.957
31.94
31.929
31.928
31.937
31.96
31.998
32.055
32.131
32.229
32.349
32.492
32.656
32.841
33.045
33.264
33.496
33.738
33.987
34.239
34.49
34.739
34.98
35.212
35.433
35.64
35.831
36.005
36.162
36.3
36.42
36.521
36.604
36.671
36.722
36.759
36.784
36.798
36.803
36.801
36.792
36.777
36.759
36.739
36.717
36.695
36.673
36.653
36.634
36.616
36.598
36.581
36.564
36.546
36.527
36.506
36.482
36.456
36.428
36.397
36.363
36.325
36.285
36.241
36.194
36.144
36.092
36.038
35.984
35.93
35.878
35.827
35.778
35.733
35.691
35.653
35.62
35.592
35.568
35.549
35.535
35.524
35.516
35.512
35.51
35.511
35.515
35.52
35.527
35.535
35.543
35.552
35.56
35.568
35.573
35.577
35.579
35.577
35.573
35.565
35.553
35.538
35.518
35.495
35.468
35.438
35.404
35.367
35.327
35.283
35.238
35.19
35.14
35.089
35.037
34.985
34.933
34.881
34.829
34.778
34.727
34.677
34.627
34.577
34.528
34.479
34.431
34.383
34.335
34.288
34.241
34.194
34.147
34.099
34.052
34.005
33.958
33.913
33.867
33.823
33.78
33.738
33.696
33.655
33.615
33.576
33.537
33.499
33.461
33.424
33.388
33.351
33.315
33.279
33.243
33.209
33.175
33.142
33.109
33.077
33.044
33.012
32.981
32.95
32.92
32.891
32.863
32.836
32.811
32.786
32.763
32.741
32.719
32.697
32.675
32.653
32.632
32.61
32.588
32.565
32.542
32.519
32.495
32.472
32.447
32.423
32.397
32.372
32.347
32.322
32.298
32.276
32.254
32.234
32.215
32.196
32.178
32.159
32.139
32.119
32.098
32.076
32.053
32.029
32.005
31.981
31.956
31.931
31.906
31.881
31.856
31.832
31.809
31.788
31.771
31.758
31.751
31.752
31.763
31.786
31.824
31.88
31.954
32.049
32.166
32.305
32.465
32.644
32.842
33.055
33.282
33.519
33.763
34.012
34.262
34.51
34.753
34.988
35.213
35.426
35.624
35.806
35.972
36.119
36.247
36.356
36.447
36.52
36.577
36.62
36.649
36.668
36.677
36.679
36.675
36.666
36.654
36.64
36.626
36.611
36.598
36.585
36.574
36.565
36.557
36.549
36.543
36.536
36.53
36.522
36.513
36.503
36.492
36.479
36.465
36.45
36.434
36.417
36.399
36.379
36.358
36.336
36.312
36.285
36.257
36.226
36.193
36.159
36.124
36.088
36.052
36.018
35.985
35.954
35.927
35.904
35.885
35.871
35.862
35.857
35.856
35.857
35.861
35.866
35.871
35.876
35.881
35.886
35.89
35.894
35.897
35.9
35.901
35.902
35.901
35.898
35.893
35.885
35.875
35.861
35.845
35.824
35.8
35.772
35.74
35.706
35.668
35.629
35.587
35.543
35.498
35.453
35.407
35.363
35.319
35.276
35.234
35.192
35.15
35.11
35.07
35.031
34.992
34.954
34.917
34.88
34.843
34.806
34.768
34.73
34.691
34.652
34.614
34.576
34.538
34.5
34.463
34.427
34.391
34.356
34.321
34.287
34.253
34.22
34.187
34.155
34.124
34.094
34.065
34.037
34.011
33.985
33.96
33.935
33.909
33.883
33.856
33.827
33.799
33.77
33.742
33.713
33.685
33.658
33.63
33.603
33.576
33.549
33.523
33.497
33.472
33.448
33.425
33.403
33.381
33.359
33.336
33.314
33.291
33.267
33.243
33.217
33.191
33.163
33.134
33.104
33.073
33.042
33.011
32.98
32.949
32.92
32.892
32.865
32.839
32.814
32.791
32.769
32.748
32.728
32.709
32.689
32.669
32.648
32.627
32.605
32.583
32.562
32.54
32.519
32.498
32.479
32.461
32.444
32.428
32.412
32.396
32.378
32.359
32.338
32.316
32.293
32.267
32.24
32.212
32.183
32.154
32.125
32.098
32.072
32.049
32.03
32.016
32.009
32.01
32.021
32.044
32.083
32.138
32.211
32.305
32.419
32.555
32.711
32.888
33.084
33.297
33.526
33.768
34.02
34.279
34.541
34.803
35.06
35.31
35.549
35.774
35.983
36.174
36.346
36.496
36.626
36.734
36.822
36.89
36.941
36.975
36.996
37.004
37.003
36.994
36.978
36.958
36.935
36.911
36.886
36.862
36.839
36.817
36.798
36.781
36.768
36.757
36.748
36.741
36.736
36.731
36.727
36.722
36.718
36.713
36.709
36.705
36.702
36.699
36.697
36.693
36.689
36.684
36.677
36.668
36.657
36.645
36.633
36.619
36.605
36.59
36.575
36.56
36.546
36.534
36.524
36.516
36.51
36.506
36.504
36.503
36.503
36.504
36.504
36.505
36.506
36.508
36.51
36.512
36.514
36.516
36.518
36.519
36.519
36.518
36.516
36.51
36.502
36.49
36.475
36.456
36.434
36.408
36.379
36.348
36.315
36.28
36.244
36.207
36.168
36.128
36.087
36.045
36.001
35.958
35.914
35.87
35.826
35.783
35.74
35.697
35.656
35.616
35.576
35.538
35.501
35.465
35.428
35.392
35.357
35.322
35.289
35.257
35.226
35.197
35.167
35.138
35.108
35.077
35.045
35.011
34.977
34.941
34.905
34.867
34.829
34.792
34.754
34.718
34.683
34.65
34.618
34.589
34.561
34.534
34.509
34.484
34.461
34.438
34.414
34.391
34.367
34.342
34.317
34.291
34.266
34.24
34.215
34.19
34.165
34.141
34.116
34.091
34.066
34.041
34.016
33.992
33.969
33.946
33.922
33.899
33.875
33.85
33.826
33.802
33.777
33.752
33.728
33.704
33.68
33.657
33.634
33.61
33.587
33.564
33.542
33.519
33.496
33.474
33.45
33.427
33.403
33.379
33.354
33.33
33.307
33.285
33.262
33.24
33.218
33.197
33.175
33.154
33.134
33.114
33.095
33.078
33.062
33.047
33.035
33.024
33.014
33.005
32.996
32.986
32.976
32.965
32.952
32.938
32.924
32.908
32.891
32.874
32.856
32.838
32.82
32.803
32.785
32.768
32.75
32.733
32.714
32.695
32.674
32.651
32.627
32.601
32.574
32.546
32.517
32.488
32.459
32.431
32.403
32.376
32.35
32.325
32.303
32.282
32.265
32.251
32.242
32.239
32.243
32.256
32.28
32.317
32.369
32.438
32.525
32.633
32.763
32.914
33.087
33.28
33.491
33.719
33.959
34.208
34.462
34.717
34.97
35.215
35.45
35.671
35.875
36.061
36.227
36.372
36.496
36.599
36.681
36.743
36.787
36.815
36.826
36.825
36.813
36.792
36.764
36.731
36.695
36.659
36.622
36.587
36.554
36.523
36.494
36.467
36.442
36.42
36.4
36.382
36.366
36.352
36.339
36.327
36.316
36.305
36.294
36.282
36.27
36.258
36.245
36.23
36.214
36.196
36.176
36.154
36.13
36.105
36.079
36.052
36.027
36.002
35.979
35.957
35.937
35.92
35.905
35.892
35.883
35.876
35.873
35.873
35.877
35.884
35.894
35.907
35.922
35.939
35.957
35.975
35.993
36.01
36.025
36.039
36.05
36.059
36.065
36.067
36.066
36.061
36.053
36.043
36.029
36.013
35.995
35.973
35.949
35.922
35.893
35.862
35.828
35.793
35.756
35.718
35.678
35.638
35.597
35.556
35.514
35.473
35.431
35.389
35.348
35.307
35.267
35.228
35.19
35.153
35.117
35.082
35.049
35.017
34.986
34.956
34.927
34.9
34.872
34.845
34.818
34.791
34.764
34.736
34.708
34.68
34.651
34.621
34.592
34.562
34.533
34.504
34.475
34.446
34.418
34.391
34.364
34.338
34.313
34.289
34.266
34.245
34.225
34.206
34.189
34.172
34.157
34.142
34.126
34.111
34.095
34.078
34.059
34.04
34.02
34.0
33.98
33.959
33.938
33.918
33.897
33.875
33.853
33.83
33.807
33.784
33.762
33.74
33.719
33.7
33.682
33.664
33.648
33.633
33.617
33.602
33.587
33.572
33.557
33.54
33.522
33.503
33.483
33.462
33.44
33.419
33.397
33.376
33.356
33.336
33.316
33.297
33.277
33.258
33.239
33.22
33.201
33.182
33.163
33.144
33.124
33.104
33.082
33.061
33.038
33.015
32.992
32.969
32.948
32.927
32.907
32.888
32.871
32.855
32.841
32.828
32.818
32.811
32.808
32.811
32.822
32.842
32.873
32.918
32.977
33.053
33.147
33.259
33.39
33.539
33.704
33.884
34.077
34.279
34.488
34.7
34.914
35.124
35.33
35.527
35.714
35.889
36.048
36.192
36.318
36.427
36.519
36.593
36.651
36.693
36.722
36.739
36.744
36.741
36.73
36.714
36.694
36.67
36.645
36.619
36.591
36.564
36.537
36.511
36.485
36.46
36.436
36.412
36.391
36.37
36.352
36.334
36.317
36.3
36.284
36.267
36.249
36.23
36.21
36.188
36.164
36.138
36.111
36.083
36.054
36.024
35.995
35.967
35.941
35.916
35.894
35.874
35.858
35.844
35.833
35.825
35.82
35.819
35.822
35.829
35.84
35.855
35.874
35.896
35.92
35.945
35.971
35.996
36.019
36.039
36.055
36.068
36.077
36.081
36.082
36.079
36.071
36.06
36.045
36.027
36.006
35.983
35.958
35.931
35.904
35.876
35.848
35.82
35.792
35.764
35.736
35.708
35.678
35.647
35.614
35.58
35.546
35.511
35.476
35.441
35.408
35.377
35.346
35.316
35.287
35.258
35.229
35.2
35.171
35.141
35.11
