Trial 1:0back
31.661
31.642
31.627
31.616
31.607
31.602
31.6
31.6
31.604
31.609
31.616
31.625
31.636
31.648
31.66
31.673
31.687
31.702
31.717
31.732
31.748
31.764
31.78
31.798
31.819
31.846
31.884
31.938
32.014
32.123
32.272
32.471
32.73
33.056
33.454
33.928
34.475
35.092
35.771
36.5
37.265
38.053
38.847
39.631
40.389
41.107
41.771
42.371
42.899
43.349
43.719
44.008
44.218
44.352
44.414
44.41
44.349
44.237
44.084
43.897
43.684
43.452
43.204
42.946
42.679
42.406
42.129
41.849
41.569
41.291
41.013
40.738
40.465
40.194
39.925
39.656
39.389
39.123
38.858
38.594
38.332
38.073
37.818
37.566
37.319
37.076
36.839
36.607
36.383
36.164
35.953
35.748
35.552
35.363
35.184
35.017
34.863
34.724
34.601
34.496
34.41
34.344
34.298
34.271
34.264
34.275
34.304
34.35
34.414
34.495
34.59
34.7
34.82
34.95
35.087
35.228
35.37
35.511
35.649
35.781
35.906
36.024
36.131
36.228
36.312
36.383
36.44
36.482
36.509
36.519
36.513
36.49
36.452
36.399
36.333
36.257
36.171
36.078
35.979
35.874
35.766
35.654
35.54
35.424
35.307
35.19
35.073
34.958
34.844
34.73
34.617
34.503
34.389
34.274
34.157
34.039
33.919
33.798
33.676
33.556
33.438
33.323
33.212
33.106
33.006
32.911
32.821
32.736
32.655
32.576
32.498
32.422
32.347
32.275
32.206
32.14
32.079
32.023
31.973
31.929
31.889
31.855
31.825
31.8
31.779
31.762
31.747
31.733
31.72
31.708
31.697
31.686
31.677
31.672
31.673
31.678
31.689
31.705
31.725
31.749
31.777
31.806
31.838
31.872
31.905
31.936
31.964
31.988
32.008
32.025
32.039
32.05
32.059
32.064
32.066
32.064
32.061
32.057
32.054
32.056
32.064
32.085
32.123
32.187
32.285
32.426
32.62
32.876
33.2
33.598
34.071
34.617
35.23
35.901
36.62
37.373
38.146
38.925
39.695
40.439
41.145
41.8
42.392
42.914
43.359
43.723
44.007
44.211
44.339
44.396
44.389
44.324
44.209
44.051
43.86
43.641
43.402
43.147
42.882
42.611
42.335
42.057
41.778
41.5
41.222
40.947
40.675
40.406
40.14
39.876
39.613
39.351
39.088
38.827
38.566
38.308
38.052
37.802
37.557
37.318
37.085
36.857
36.635
36.418
36.206
36.0
35.799
35.604
35.415
35.234
35.063
34.902
34.755
34.623
34.508
34.411
34.332
34.273
34.234
34.216
34.218
34.24
34.28
34.338
34.411
34.498
34.599
34.71
34.829
34.953
35.08
35.209
35.336
35.462
35.585
35.704
35.819
35.927
36.028
36.118
36.198
36.265
36.32
36.36
36.384
36.394
36.39
36.375
36.349
36.313
36.267
36.211
36.144
36.068
35.981
35.884
35.779
35.665
35.546
35.423
35.299
35.174
35.051
34.927
34.805
34.684
34.563
34.443
34.322
34.201
34.079
33.956
33.831
33.707
33.584
33.465
33.349
33.238
33.132
33.03
32.933
32.839
32.749
32.661
32.577
32.495
32.417
32.343
32.272
32.205
32.142
32.083
32.027
31.974
31.924
31.878
31.837
31.8
31.768
31.74
31.716
31.694
31.675
31.659
31.645
31.635
31.629
31.629
31.634
31.646
31.662
31.683
31.706
31.731
31.757
31.782
31.807
31.832
31.856
31.878
31.898
31.916
31.93
31.941
31.949
31.957
31.963
31.97
31.979
31.99
32.004
32.019
32.036
32.054
32.072
32.089
32.103
32.111
32.115
32.113
32.106
32.097
32.088
32.082
32.084
32.099
32.133
32.194
32.29
32.43
32.621
32.87
33.182
33.561
34.008
34.524
35.105
35.744
36.431
37.155
37.903
38.657
39.402
40.124
40.807
41.44
42.013
42.52
42.954
43.312
43.592
43.794
43.921
43.977
43.97
43.906
43.793
43.638
43.448
43.228
42.987
42.731
42.464
42.191
41.915
41.639
41.364
41.092
40.824
40.559
40.297
40.037
39.78
39.523
39.268
39.014
38.76
38.506
38.253
38.001
37.749
37.499
37.251
37.004
36.761
36.52
36.282
36.049
35.821
35.6
35.388
35.186
34.996
34.82
34.659
34.515
34.389
34.282
34.196
34.131
34.087
34.065
34.063
34.082
34.119
34.175
34.247
34.336
34.439
34.557
34.697
34.861
35.045
35.241
35.443
35.643
35.834
36.01
36.167
36.303
36.414
36.5
36.562
36.599
36.615
36.612
36.594
36.562
36.52
36.469
36.413
36.353
36.288
36.22
36.149
36.075
36.0
35.922
35.844
35.762
35.677
35.588
35.494
35.395
35.291
35.182
35.068
34.951
34.831
34.708
34.585
34.46
34.336
34.212
34.089
33.967
33.846
33.726
33.606
33.487
33.369
33.254
33.142
33.034
32.931
32.834
32.744
32.662
32.586
32.511
32.436
32.359
32.281
32.203
32.126
32.054
31.988
31.929
31.879
31.838
31.807
31.786
31.774
31.771
31.774
31.784
31.799
31.816
31.836
31.857
31.878
31.898
31.916
31.932
31.946
31.957
31.967
31.974
31.982
31.989
31.998
32.008
32.019
32.033
32.048
32.065
32.082
32.099
32.116
32.132
32.146
32.159
32.17
32.182
32.193
32.206
32.224
32.249
32.286
32.341
32.422
32.534
32.685
32.885
33.14
33.457
33.838
34.287
34.801
35.375
36.004
36.679
37.385
38.106
38.828
39.534
40.209
40.841
41.419
41.935
42.382
42.757
43.059
43.286
43.439
43.523
43.54
43.498
43.404
43.266
43.091
42.888
42.662
42.418
42.163
41.898
41.628
41.356
41.084
40.814
40.545
40.279
40.015
39.753
39.491
39.231
38.97
38.71
38.45
38.192
37.934
37.678
37.423
37.169
36.918
36.668
36.42
36.177
35.937
35.704
35.477
35.258
35.049
34.849
34.66
34.483
34.318
34.166
34.029
33.908
33.806
33.723
33.66
33.618
33.598
33.599
33.624
33.67
33.739
33.827
33.934
34.056
34.193
34.341
34.499
34.664
34.832
35.001
35.169
35.332
35.488
35.636
35.773
35.897
36.007
36.102
36.183
36.247
36.295
36.327
36.344
36.348
36.338
36.316
36.284
36.24
36.187
36.126
36.058
35.983
35.903
35.818
35.727
35.63
35.528
35.419
35.303
35.18
35.05
34.915
34.777
34.637
34.498
34.361
34.228
34.098
33.973
33.852
33.734
33.621
33.509
33.398
33.288
33.178
33.068
32.957
32.847
32.739
32.635
32.537
32.445
32.36
32.282
32.211
32.148
32.092
32.044
32.003
31.967
31.936
31.908
31.884
31.862
31.841
31.821
31.803
31.787
31.774
31.763
31.755
31.75
31.748
31.748
31.75
31.752
31.754
31.755
31.755
31.754
31.752
31.75
31.748
31.747
31.749
31.756
31.77
31.792
31.825
31.87
31.932
32.014
32.121
32.261
32.439
32.662
32.936
33.268
33.661
34.117
34.636
35.213
35.841
36.511
37.21
37.923
38.637
39.337
40.01
40.643
41.225
41.748
42.205
42.591
42.902
43.139
43.303
43.397
43.428
43.402
43.325
43.204
43.043
42.85
42.63
42.389
42.132
41.865
41.59
41.311
41.029
40.746
40.463
40.18
39.897
39.615
39.335
39.059
38.786
38.519
38.257
38.0
37.748
37.501
37.259
37.022
36.789
36.559
36.332
36.107
35.884
35.664
35.445
35.228
35.015
34.807
34.606
34.414
34.235
34.069
33.921
33.791
33.682
33.594
33.528
33.484
33.461
33.458
33.473
33.508
33.559
33.628
33.712
33.811
33.923
34.045
34.178
34.317
34.461
34.61
34.76
34.91
35.057
35.201
35.34
35.471
35.595
35.709
35.812
35.903
35.981
36.043
36.09
36.12
36.134
36.133
36.117
36.087
36.043
35.988
35.922
35.845
35.759
35.665
35.566
35.46
35.351
35.238
35.122
35.003
34.882
34.758
34.631
34.504
34.376
34.249
34.121
33.995
33.87
33.747
33.626
33.507
33.39
33.276
33.164
33.055
32.949
32.844
32.743
32.645
32.553
32.467
32.389
32.317
32.251
32.189
32.13
32.074
32.019
31.965
31.911
31.858
31.805
31.754
31.707
31.663
31.624
31.591
31.563
31.541
31.526
31.517
31.514
31.516
31.522
31.531
31.543
31.554
31.566
31.576
31.585
31.592
31.597
31.603
31.61
31.617
31.627
31.64
31.655
31.673
31.695
31.72
31.746
31.774
31.804
31.836
31.875
31.925
31.992
32.082
32.204
32.369
32.585
32.861
33.201
33.609
34.087
34.629
35.23
35.884
36.579
37.303
38.044
38.786
39.516
40.218
40.879
41.487
42.033
42.509
42.91
43.233
43.479
43.65
43.75
43.783
43.755
43.672
43.542
43.372
43.168
42.938
42.687
42.42
42.141
41.856
41.567
41.277
40.988
40.702
40.42
40.144
39.873
39.608
39.348
39.093
38.843
38.597
38.355
38.117
37.882
37.65
37.421
37.194
36.969
36.745
36.522
36.299
36.078
35.859
35.644
35.434
35.231
35.036
34.85
34.675
34.513
34.364
34.231
34.115
34.016
33.934
33.871
33.826
33.802
33.798
33.815
33.851
33.904
33.973
34.055
34.151
34.259
34.377
34.504
34.639
34.782
34.928
35.077
35.225
35.368
35.504
35.632
35.75
35.856
35.949
36.029
36.097
36.151
36.193
36.221
36.235
36.236
36.224
36.2
36.162
36.113
36.052
35.982
35.902
35.813
35.718
35.616
35.508
35.396
35.28
35.159
35.033
34.903
34.771
34.638
34.505
34.373
34.243
34.116
33.992
33.871
33.752
33.635
33.517
33.401
33.284
33.166
33.049
32.933
32.818
32.705
32.596
32.49
32.39
32.298
32.215
32.142
32.079
32.023
31.975
31.932
31.891
31.853
31.816
31.779
31.743
31.707
31.671
31.637
31.604
31.575
31.551
31.532
31.518
31.51
31.506
31.507
31.513
31.522
31.534
31.548
31.563
31.578
31.595
31.613
31.633
31.655
31.68
31.707
31.737
31.77
31.805
31.841
31.877
31.909
31.937
31.96
31.978
31.991
32.002
32.013
32.027
32.05
32.085
32.14
32.223
32.343
32.508
32.725
33.002
33.344
33.754
34.234
34.781
35.388
36.048
36.747
37.473
38.21
38.942
39.654
40.33
40.957
41.525
42.027
42.457
42.811
43.088
43.289
43.418
43.479
43.479
43.425
43.324
43.184
43.011
42.811
42.59
42.353
42.104
41.846
41.582
41.314
41.043
40.771
40.498
40.227
39.957
39.689
39.424
39.162
38.903
38.647
38.395
38.146
37.9
37.659
37.421
37.187
36.957
36.731
36.508
36.289
36.074
35.863
35.656
35.454
35.257
35.066
34.882
34.705
34.538
34.38
34.234
34.102
33.985
33.885
33.804
33.743
33.701
33.68
33.679
33.698
33.737
33.793
33.866
33.955
34.058
34.174
34.302
34.439
34.582
34.729
34.879
35.028
35.173
35.314
35.447
35.57
35.682
35.784
35.873
35.949
36.011
36.059
36.093
36.112
36.119
36.113
36.096
36.066
36.026
35.974
35.911
35.839
35.759
35.671
35.576
35.474
35.367
35.255
35.139
35.02
34.899
34.778
34.657
34.538
34.42
34.303
34.189
34.076
33.964
33.852
33.738
33.623
33.506
33.387
33.267
33.145
33.026
32.908
32.793
32.678
32.563
32.449
32.339
32.234
32.135
32.044
31.962
31.891
31.831
31.781
31.742
31.712
31.689
31.674
31.665
31.661
31.662
31.666
31.671
31.678
31.685
31.692
31.697
31.701
31.702
31.703
31.704
31.706
31.709
31.714
31.721
31.73
31.743
31.759
31.778
31.801
31.825
31.851
31.875
31.898
31.918
31.935
31.95
31.963
31.977
31.992
32.014
32.046
32.093
32.161
32.257
32.389
32.565
32.793
33.078
33.428
33.843
34.326
34.874
35.481
36.14
36.838
37.561
38.292
39.017
39.722
40.392
41.016
41.585
42.089
42.524
42.886
43.173
43.384
43.523
43.593
43.6
43.55
43.451
43.308
43.129
42.92
42.687
42.434
42.165
41.883
41.593
41.298
41.002
40.705
40.41
40.116
39.824
39.534
39.246
38.959
38.674
38.394
38.117
37.846
37.58
37.32
37.065
36.816
36.572
36.335
36.103
35.876
35.653
35.435
35.221
35.012
34.808
34.611
34.421
34.241
34.072
33.915
33.774
33.649
33.544
33.461
33.399
33.361
33.348
33.359
33.395
33.453
33.531
33.628
33.742
33.874
34.021
34.182
34.354
34.534
34.718
34.903
35.086
35.266
35.438
35.601
35.753
35.891
36.016
36.126
36.22
36.299
36.361
36.406
36.435
36.448
36.444
36.424
36.389
36.338
36.273
36.194
36.103
36.003
35.894
35.778
35.658
35.534
35.408
35.28
35.152
35.025
34.898
34.772
34.647
34.523
34.398
34.273
34.148
34.022
33.896
33.771
33.648
33.526
33.408
33.294
33.184
33.079
32.98
32.888
32.802
32.724
32.652
32.586
32.525
32.468
32.414
32.361
32.308
32.255
32.201
32.146
32.091
32.038
31.986
31.936
31.891
31.851
31.817
31.789
31.767
31.751
31.739
31.728
31.717
31.707
31.696
31.684
31.672
31.66
31.65
31.642
31.64
31.642
31.652
31.669
31.695
31.732
31.781
31.845
31.931
32.044
32.193
32.386
32.63
32.935
33.306
33.747
34.258
34.835
35.469
36.15
36.866
37.602
38.343
39.074
39.781
40.45
41.07
41.629
42.12
42.535
42.872
43.131
43.314
43.423
43.465
43.444
43.371
43.25
43.091
42.9
42.683
42.445
42.191
41.923
41.643
41.355
41.061
40.763
40.464
40.165
39.867
39.572
39.28
38.991
38.706
38.423
38.143
37.864
37.588
37.315
37.045
36.777
36.514
36.253
35.997
35.745
35.498
35.256
35.021
34.793
34.574
34.364
34.166
33.982
33.812
33.658
33.521
33.402
33.302
33.222
33.164
33.127
33.111
33.117
33.144
33.192
33.26
33.346
33.45
33.569
33.701
33.845
34.0
34.161
34.328
34.498
34.669
34.838
35.003
35.163
35.314
35.456
35.587
35.706
35.811
35.902
35.977
36.036
36.079
36.106
36.117
36.113
36.095
36.062
36.018
35.961
35.893
35.815
35.727
35.632
35.531
35.425
35.314
35.201
35.085
34.967
34.846
34.723
34.598
34.471
34.342
34.212
34.081
33.949
33.818
33.688
33.56
33.435
33.314
33.198
33.085
32.977
32.874
32.774
32.679
32.588
32.501
32.418
32.338
32.263
32.191
32.124
32.061
32.004
31.951
31.901
31.853
31.806
31.759
31.713
31.668
31.625
31.586
31.55
31.519
31.493
31.472
31.456
31.447
31.444
31.445
31.449
31.457
31.466
31.475
31.483
31.49
31.496
31.502
31.507
31.514
31.522
31.534
31.55
31.572
31.601
31.643
31.701
31.784
31.898
32.053
32.256
32.517
32.843
33.241
33.714
34.26
34.877
35.556
36.286
37.053
37.843
38.64
39.427
40.188
40.909
41.577
42.181
42.71
43.158
43.521
43.797
43.989
44.099
44.134
44.101
44.008
43.864
43.675
43.449
43.196
42.921
42.631
42.334
42.04
41.756
41.483
41.22
40.962
40.708
40.453
40.193
39.928
39.656
39.375
39.086
38.79
38.488
38.182
37.874
37.567
37.262
36.962
36.668
36.382
36.106
35.84
35.585
35.34
35.104
34.879
34.665
34.461
34.27
34.09
33.924
33.774
33.639
33.524
33.429
33.355
33.303
33.273
33.266
33.282
33.32
33.38
33.46
33.56
33.676
33.807
33.949
34.102
34.262
34.427
34.595
34.764
34.932
35.097
35.257
35.41
35.554
35.688
35.809
35.917
36.011
36.09
36.154
36.202
36.235
36.252
36.254
36.241
36.213
36.171
36.118
36.053
35.978
35.892
35.797
35.693
35.581
35.463
35.34
35.213
35.082
34.947
34.808
34.666
34.52
34.372
34.223
34.074
33.926
33.781
33.638
33.498
33.363
33.232
33.108
32.99
32.879
32.775
32.678
32.587
32.501
32.42
32.343
32.268
32.195
32.124
32.056
31.988
31.922
31.856
31.791
31.727
31.665
31.607
31.554
31.505
31.459
31.419
31.383
31.352
31.328
31.309
31.295
31.288
31.287
31.293
31.304
31.321
31.341
31.365
31.392
31.419
31.446
31.47
31.491
31.509
31.521
31.53
31.535
31.537
31.538
31.541
31.548
31.561
31.583
31.617
31.669
31.742
31.844
31.982
32.164
32.4
32.697
33.062
33.499
34.01
34.593
35.243
35.95
36.702
37.487
38.288
39.089
39.876
40.632
41.341
41.991
42.57
43.069
43.484
43.813
44.058
44.221
44.307
44.322
44.273
44.168
44.013
43.818
43.59
43.337
43.065
42.78
42.485
42.185
41.882
41.578
41.275
40.973
40.673
40.377
40.083
39.795
39.51
39.23
38.955
38.684
38.418
38.156
37.898
37.641
37.387
37.134
36.883
36.634
36.388
36.144
35.904
35.667
35.435
35.211
34.994
34.788
34.592
34.408
34.239
34.086
33.952
33.838
33.744
33.671
33.62
33.589
33.58
33.593
33.626
33.679
33.752
33.842
33.949
34.071
34.206
34.351
34.504
34.662
34.822
34.979
35.134
35.283
35.425
35.559
35.683
35.796
35.896
35.984
36.057
36.114
36.156
36.182
36.192
36.187
36.167
36.131
36.083
36.022
35.95
35.868
35.778
35.681
35.58
35.476
35.371
35.264
35.155
35.043
34.929
34.813
34.692
34.568
34.442
34.313
34.184
34.054
33.924
33.796
33.669
33.543
33.421
33.3
33.182
33.066
32.953
32.841
32.732
32.625
32.52
32.42
32.324
32.234
32.151
32.073
32.002
31.936
31.875
31.817
31.763
31.712
31.664
31.619
31.579
31.542
31.509
31.48
31.455
31.435
31.419
31.409
31.402
31.398
31.396
31.395
31.395
31.395
31.397
31.399
31.403
31.408
31.417
31.428
31.443
31.461
31.481
31.505
31.53
31.558
31.585
31.611
31.633
31.652
31.666
31.676
31.683
31.69
31.7
31.715
31.741
31.782
31.844
31.936
32.064
32.237
32.463
32.752
33.109
33.541
34.047
34.629
35.279
35.988
36.745
37.536
38.343
39.151
39.944
40.705
41.421
42.079
42.669
43.181
43.611
43.955
44.213
44.389
44.488
44.514
44.474
44.376
44.228
44.038
43.814
43.566
43.298
43.017
42.728
42.434
42.137
41.837
41.537
41.235
40.932
40.628
40.325
40.023
39.722
39.423
39.125
38.83
38.539
38.252
37.969
37.691
37.419
37.153
36.894
36.64
36.393
36.15
35.911
35.675
35.444
35.217
34.995
34.782
34.578
34.388
34.212
34.055
33.917
33.801
33.706
33.633
33.582
33.552
33.542
33.552
33.581
33.629
33.694
33.776
33.876
33.993
34.125
34.27
34.427
34.593
34.766
34.944
35.122
35.297
35.466
35.625
35.772
35.905
36.021
36.12
36.202
36.266
36.314
36.345
36.36
36.36
36.345
36.315
36.27
36.213
36.143
36.061
35.969
35.867
35.755
35.636
35.511
35.381
35.258
35.147
35.05
34.962
34.881
34.801
34.717
34.624
34.52
34.403
34.274
34.133
33.981
33.821
33.656
33.487
33.317
33.149
32.985
32.828
32.678
32.536
32.404
32.282
32.171
32.069
31.978
31.894
31.819
31.751
31.691
31.637
31.589
31.547
31.508
31.472
31.437
31.403
31.368
31.334
31.302
31.272
31.245
31.22
31.199
31.182
31.168
31.158
31.151
31.149
31.149
31.153
31.16
31.169
31.181
31.195
31.213
31.233
31.256
31.282
31.31
31.342
31.381
31.425
31.473
31.522
31.569
31.614
31.654
31.688
31.716
31.74
31.761
31.784
31.815
31.86
31.928
32.027
32.168
32.36
32.612
32.934
33.331
33.806
34.36
34.989
35.685
36.436
37.228
38.043
38.863
39.67
40.448
41.184
41.863
42.474
43.009
43.459
43.822
44.097
44.287
44.396
44.431
44.399
44.307
44.163
43.976
43.752
43.5
43.227
42.939
42.64
42.334
42.023
41.708
41.389
41.07
40.75
40.43
40.112
39.796
39.483
39.171
38.861
38.553
38.249
37.948
37.652
37.361
37.077
36.801
36.532
36.271
36.016
35.766
35.521
35.28
35.043
34.812
34.588
34.372
34.169
33.979
33.806
33.651
33.516
33.403
33.313
33.247
33.206
33.189
33.196
33.227
33.279
33.353
33.446
33.558
33.687
33.83
33.987
34.154
34.33
34.512
34.698
34.885
35.072
35.257
35.436
35.606
35.764
35.91
36.04
36.152
36.243
36.312
36.358
36.381
36.382
36.363
36.325
36.271
36.203
36.125
36.038
35.942
35.84
35.731
35.618
35.5
35.379
35.255
35.128
34.999
34.868
34.735
34.6
34.464
34.326
34.186
34.044
33.902
33.761
33.621
33.485
33.352
33.223
33.096
32.974
32.855
32.74
32.629
32.522
32.418
32.318
32.223
32.132
32.046
31.965
31.889
31.819
31.753
31.691
31.634
31.58
31.529
31.48
31.435
31.392
31.354
31.319
31.289
31.264
31.243
31.228
31.218
31.214
31.213
31.217
31.224
31.233
31.243
31.253
31.262
31.27
31.276
31.281
31.287
31.293
31.301
31.31
31.32
31.332
31.345
31.36
31.375
31.391
31.41
31.43
31.455
31.485
31.525
31.58
31.656
31.76
31.9
32.085
32.322
32.617
32.978
33.409
33.911
34.485
35.126
35.827
36.578
37.366
38.176
38.991
39.791
40.563
41.289
41.958
42.558
43.08
43.52
43.873
44.138
44.318
44.417
44.442
44.4
44.3
44.148
43.954
43.724
43.466
43.186
42.89
42.582
42.266
41.945
41.62
41.293
40.964
40.634
40.303
39.972
39.642
39.314
38.988
38.666
38.349
38.036
37.729
37.426
37.127
36.832
36.541
36.255
35.975
35.701
35.436
35.181
34.935
34.699
34.473
34.259
34.057
33.868
33.693
33.534
33.391
33.267
33.163
33.079
33.016
32.975
32.958
32.966
32.997
33.053
33.133
33.235
33.359
33.502
33.664
