Trial 1:0back
34.537
35.044
35.582
36.139
36.705
37.267
37.814
38.337
38.826
39.274
39.673
40.019
40.309
40.543
40.721
40.847
40.924
40.956
40.949
40.907
40.835
40.739
40.624
40.496
40.359
40.219
40.078
39.941
39.81
39.686
39.572
39.468
39.376
39.295
39.223
39.158
39.098
39.042
38.989
38.938
38.888
38.836
38.782
38.722
38.657
38.583
38.501
38.409
38.305
38.191
38.067
37.933
37.792
37.646
37.496
37.346
37.196
37.049
36.909
36.776
36.655
36.547
36.454
36.375
36.31
36.259
36.219
36.192
36.175
36.17
36.175
36.188
36.208
36.23
36.253
36.274
36.294
36.317
36.348
36.386
36.428
36.47
36.508
36.537
36.554
36.556
36.543
36.514
36.471
36.416
36.35
36.274
36.19
36.098
36.001
35.901
35.798
35.694
35.593
35.495
35.401
35.312
35.226
35.142
35.06
34.978
34.898
34.821
34.747
34.678
34.613
34.551
34.491
34.433
34.377
34.323
34.271
34.222
34.174
34.127
34.08
34.034
33.99
33.947
33.906
33.868
33.833
33.799
33.768
33.738
33.708
33.678
33.647
33.615
33.583
33.55
33.517
33.483
33.45
33.418
33.388
33.362
33.341
33.324
33.313
33.306
33.303
33.303
33.305
33.31
33.316
33.324
33.333
33.341
33.348
33.353
33.355
33.353
33.348
33.34
33.327
33.309
33.285
33.255
33.219
33.179
33.136
33.091
33.046
33.001
32.958
32.917
32.879
32.841
32.805
32.771
32.739
32.709
32.681
32.655
32.629
32.601
32.572
32.542
32.511
32.479
32.448
32.42
32.396
32.383
32.385
32.41
32.463
32.553
32.685
32.864
33.094
33.376
33.71
34.093
34.519
34.981
35.47
35.975
36.487
36.994
37.487
37.956
38.394
38.792
39.146
39.452
39.709
39.917
40.077
40.193
40.267
40.306
40.311
40.289
40.244
40.178
40.095
40.001
39.899
39.792
39.684
39.576
39.47
39.369
39.274
39.184
39.099
39.02
38.946
38.877
38.813
38.755
38.702
38.651
38.603
38.555
38.507
38.457
38.403
38.343
38.275
38.197
38.11
38.013
37.907
37.794
37.672
37.544
37.411
37.274
37.135
36.997
36.861
36.73
36.607
36.492
36.389
36.296
36.215
36.145
36.086
36.04
36.006
35.984
35.971
35.967
35.97
35.979
35.991
36.005
36.021
36.038
36.052
36.065
36.073
36.077
36.077
36.072
36.062
36.049
36.03
36.008
35.98
35.949
35.912
35.871
35.825
35.775
35.72
35.662
35.6
35.538
35.473
35.407
35.338
35.267
35.192
35.116
35.04
34.965
34.893
34.823
34.755
34.691
34.627
34.565
34.504
34.443
34.382
34.323
34.265
34.208
34.151
34.094
34.035
33.976
33.918
33.86
33.804
33.75
33.699
33.652
33.609
33.568
33.529
33.492
33.457
33.426
33.397
33.371
33.347
33.328
33.318
33.318
33.326
33.337
33.348
33.355
33.356
33.349
33.334
33.311
33.282
33.249
33.211
33.171
33.128
33.084
33.04
32.997
32.957
32.921
32.891
32.866
32.849
32.837
32.832
32.831
32.833
32.836
32.837
32.838
32.836
32.831
32.824
32.814
32.8
32.782
32.761
32.737
32.71
32.681
32.65
32.617
32.584
32.55
32.515
32.48
32.444
32.407
32.367
32.326
32.284
32.243
32.202
32.163
32.127
32.093
32.063
32.036
32.014
31.997
31.986
31.983
31.991
32.014
32.057
32.126
32.228
32.368
32.553
32.786
33.071
33.408
33.797
34.233
34.71
35.218
35.746
36.282
36.816
37.336
37.832
38.295
38.718
39.095
39.423
39.7
39.925
40.102
40.231
40.318
40.366
40.38
40.366
40.328
40.271
40.198
40.113
40.02
39.92
39.816
39.711
39.606
39.504
39.405
39.311
39.221
39.136
39.054
38.975
38.9
38.827
38.758
38.691
38.627
38.564
38.503
38.444
38.385
38.326
38.266
38.202
38.134
38.06
37.979
37.891
37.795
37.692
37.584
37.471
37.355
37.236
37.117
36.999
36.885
36.777
36.676
36.583
36.498
36.423
36.356
36.299
36.251
36.213
36.183
36.16
36.144
36.134
36.128
36.126
36.126
36.129
36.131
36.133
36.132
36.128
36.122
36.114
36.104
36.093
36.08
36.064
36.043
36.016
35.984
35.945
35.902
35.856
35.807
35.757
35.706
35.654
35.6
35.544
35.487
35.427
35.367
35.305
35.243
35.18
35.117
35.053
34.989
34.924
34.859
34.792
34.722
34.652
34.58
34.507
34.435
34.362
34.291
34.22
34.152
34.088
34.028
33.971
33.917
33.864
33.811
33.76
33.71
33.662
33.618
33.576
33.535
33.497
33.46
33.424
33.389
33.356
33.323
33.292
33.262
33.232
33.204
33.178
33.154
33.131
33.11
33.09
33.069
33.048
33.027
33.004
32.982
32.96
32.939
32.918
32.898
32.88
32.863
32.847
32.832
32.818
32.807
32.799
32.793
32.789
32.787
32.785
32.782
32.777
32.77
32.761
32.751
32.741
32.731
32.722
32.713
32.702
32.689
32.672
32.651
32.626
32.596
32.563
32.525
32.485
32.445
32.405
32.367
32.33
32.295
32.261
32.229
32.196
32.164
32.131
32.098
32.065
32.032
31.999
31.966
31.933
31.9
31.866
31.833
31.803
31.777
31.757
31.746
31.748
31.768
31.811
31.884
31.996
32.152
32.359
32.621
32.938
33.311
33.734
34.202
34.707
35.24
35.789
36.345
36.894
37.428
37.934
38.405
38.833
39.212
39.538
39.81
40.028
40.195
40.314
40.387
40.418
40.412
40.373
40.309
40.224
40.123
40.012
39.894
39.773
39.652
39.533
39.417
39.304
39.197
39.097
39.003
38.917
38.837
38.764
38.695
38.631
38.57
38.513
38.459
38.406
38.356
38.305
38.253
38.198
38.139
38.074
38.002
37.923
37.837
37.745
37.648
37.544
37.435
37.321
37.201
37.078
36.955
36.835
36.722
36.616
36.52
36.435
36.36
36.294
36.237
36.19
36.15
36.12
36.097
36.081
36.071
36.066
36.064
36.065
36.068
36.072
36.075
36.077
36.076
36.073
36.068
36.06
36.05
36.037
36.019
35.996
35.968
35.935
35.897
35.856
35.81
35.761
35.709
35.655
35.596
35.535
35.47
35.403
35.333
35.261
35.185
35.107
35.027
34.947
34.867
34.787
34.708
34.629
34.551
34.474
34.398
34.323
34.249
34.177
34.108
34.043
33.981
33.922
33.865
33.808
33.751
33.693
33.634
33.573
33.512
33.45
33.391
33.334
33.282
33.233
33.187
33.145
33.108
33.075
33.046
33.02
32.997
32.975
32.953
32.93
32.907
32.883
32.86
32.836
32.811
32.785
32.758
32.73
32.704
32.679
32.655
32.635
32.617
32.6
32.585
32.571
32.559
32.549
32.541
32.533
32.527
32.52
32.513
32.502
32.49
32.475
32.458
32.44
32.423
32.406
32.391
32.376
32.362
32.347
32.332
32.315
32.297
32.278
32.256
32.233
32.21
32.187
32.167
32.149
32.133
32.118
32.105
32.093
32.08
32.065
32.049
32.032
32.014
31.995
31.975
31.953
31.927
31.898
31.867
31.832
31.797
31.761
31.726
31.693
31.66
31.629
31.597
31.565
31.533
31.502
31.471
31.442
31.414
31.389
31.369
31.355
31.352
31.362
31.39
31.443
31.527
31.649
31.819
32.045
32.332
32.682
33.095
33.568
34.092
34.657
35.251
35.862
36.475
37.077
37.656
38.201
38.702
39.151
39.543
39.876
40.148
40.361
40.516
40.617
40.667
40.671
40.634
40.563
40.464
40.345
40.212
40.07
39.925
39.778
39.634
39.491
39.352
39.217
39.089
38.968
38.856
38.751
38.655
38.566
38.483
38.405
38.33
38.256
38.184
38.112
38.039
37.967
37.893
37.817
37.738
37.654
37.565
37.471
37.372
37.268
37.16
37.049
36.937
36.827
36.719
36.616
36.517
36.423
36.335
36.253
36.179
36.114
36.059
36.016
35.985
35.966
35.959
35.962
35.973
35.993
36.021
36.054
36.093
36.135
36.178
36.218
36.254
36.285
36.308
36.324
36.331
36.328
36.317
36.298
36.272
36.239
36.2
36.155
36.106
36.053
35.997
35.938
35.876
35.812
35.746
35.679
35.612
35.543
35.471
35.398
35.322
35.243
35.163
35.082
34.999
34.917
34.834
34.752
34.672
34.594
34.518
34.445
34.374
34.304
34.237
34.169
34.102
34.034
33.968
33.903
33.839
33.777
33.715
33.653
33.591
33.528
33.467
33.406
33.347
33.291
33.239
33.193
33.151
33.116
33.086
33.061
33.04
33.021
33.003
32.985
32.967
32.947
32.927
32.906
32.886
32.867
32.85
32.835
32.821
32.807
32.795
32.783
32.773
32.765
32.76
32.756
32.754
32.753
32.75
32.747
32.743
32.738
32.733
32.727
32.72
32.713
32.704
32.694
32.682
32.669
32.654
32.638
32.619
32.598
32.576
32.552
32.525
32.496
32.463
32.426
32.384
32.338
32.288
32.236
32.182
32.129
32.077
32.027
31.982
31.94
31.903
31.869
31.837
31.805
31.776
31.749
31.73
31.721
31.724
31.744
31.784
31.851
31.95
32.086
32.269
32.502
32.79
33.137
33.541
34.001
34.511
35.062
35.642
36.238
36.839
37.43
38.0
38.537
39.034
39.481
39.875
40.212
40.491
40.712
40.875
40.985
41.044
41.058
41.032
40.974
40.889
40.786
40.668
40.542
40.411
40.279
40.146
40.015
39.886
39.761
39.64
39.524
39.413
39.307
39.206
39.109
39.018
38.93
38.845
38.762
38.681
38.599
38.517
38.433
38.349
38.262
38.173
38.081
37.985
37.885
37.78
37.669
37.554
37.433
37.31
37.184
37.057
36.932
36.809
36.69
36.575
36.467
36.366
36.274
36.195
36.128
36.077
36.04
36.016
36.004
36.002
36.009
36.023
36.043
36.067
36.095
36.125
36.155
36.184
36.211
36.234
36.253
36.266
36.272
36.272
36.265
36.25
36.228
36.199
36.163
36.123
36.076
36.024
35.967
35.904
35.838
35.769
35.698
35.626
35.554
35.479
35.401
35.32
35.236
35.148
35.059
34.968
34.875
34.782
34.689
34.596
34.505
34.415
34.328
34.245
34.164
34.087
34.012
33.939
33.866
33.795
33.724
33.653
33.582
33.512
33.442
33.374
33.307
33.241
33.175
33.109
33.044
32.982
32.923
32.869
32.82
32.777
32.74
32.709
32.682
32.66
32.641
32.625
32.611
32.598
32.583
32.566
32.546
32.524
32.5
32.475
32.451
32.428
32.406
32.386
32.368
32.353
32.339
32.327
32.316
32.304
32.292
32.28
32.269
32.259
32.251
32.245
32.242
32.239
32.238
32.237
32.234
32.229
32.221
32.213
32.205
32.198
32.19
32.18
32.169
32.154
32.135
32.113
32.088
32.06
32.029
31.997
31.965
31.933
31.901
31.871
31.842
31.815
31.787
31.759
31.729
31.696
31.661
31.625
31.587
31.548
31.51
31.472
31.437
31.404
31.374
31.348
31.325
31.308
31.299
31.302
31.321
31.361
31.428
31.53
31.676
31.874
32.135
32.464
32.866
33.341
33.883
34.484
35.131
35.812
36.511
37.214
37.906
38.575
39.205
39.786
40.308
40.765
41.153
41.472
41.723
41.908
42.033
42.102
42.12
42.095
42.034
41.942
41.826
41.693
41.547
41.395
41.241
41.087
40.936
40.791
40.65
40.514
40.382
40.254
40.132
40.014
39.901
39.795
39.695
39.601
39.514
39.429
39.347
39.265
39.183
39.1
39.015
38.927
38.836
38.742
38.642
38.537
38.426
38.307
38.181
38.048
37.909
37.767
37.623
37.48
37.34
37.205
37.078
36.96
36.853
36.759
36.676
36.607
36.552
36.509
36.478
36.458
36.447
36.444
36.447
36.453
36.462
36.473
36.485
36.498
36.51
36.522
36.53
36.534
36.531
36.52
36.502
36.476
36.444
36.406
36.362
36.312
36.257
36.199
36.137
36.071
36.003
35.931
35.855
35.778
35.698
35.616
35.533
35.448
35.361
35.27
35.176
35.079
34.98
34.881
34.782
34.685
34.589
34.495
34.404
34.315
34.229
34.146
34.065
33.987
33.91
33.833
33.756
33.679
33.602
33.525
33.45
33.376
33.304
33.238
33.176
33.119
33.066
33.018
32.973
32.93
32.889
32.85
32.812
32.776
32.741
32.707
32.673
32.639
32.605
32.572
32.54
32.51
32.483
32.459
32.439
32.422
32.408
32.399
32.392
32.386
32.38
32.372
32.363
32.354
32.343
32.332
32.32
32.31
32.3
32.293
32.286
32.279
32.27
32.258
32.245
32.229
32.212
32.195
32.177
32.158
32.139
32.119
32.1
32.081
32.063
32.047
32.033
32.02
32.007
31.995
31.983
31.971
31.957
31.94
31.92
31.896
31.867
31.835
31.802
31.768
31.734
31.701
31.67
31.639
31.609
31.577
31.544
31.508
31.469
31.427
31.383
31.339
31.297
31.256
31.22
31.188
31.163
31.144
31.133
31.129
31.136
31.158
31.201
31.275
31.386
31.546
31.762
32.043
32.394
32.818
33.315
33.883
34.516
35.202
35.931
36.686
37.45
38.206
38.936
39.625
40.258
40.827
41.321
41.738
42.076
42.335
42.52
42.634
42.685
42.68
42.626
42.532
42.406
42.256
42.088
41.906
41.716
41.52
41.321
41.121
40.924
40.732
40.546
40.369
40.2
40.041
39.892
39.75
39.615
39.487
39.365
39.248
39.137
39.03
38.926
38.824
38.721
38.618
38.511
38.401
38.285
38.164
38.037
37.906
37.77
37.631
37.489
37.345
37.2
37.056
36.914
36.776
36.642
36.516
36.397
36.287
36.188
36.099
36.022
35.955
35.898
35.849
35.809
35.777
35.752
35.735
35.725
35.723
35.728
35.739
35.755
35.774
35.796
35.819
35.843
35.867
35.888
35.905
35.916
35.918
35.911
35.895
35.871
35.837
35.794
35.742
35.681
35.613
35.539
35.46
35.376
35.289
35.198
35.106
35.011
34.915
34.817
34.719
34.62
34.521
34.422
34.323
34.223
34.124
34.026
33.929
33.832
33.735
33.638
33.541
33.447
33.355
33.269
33.186
33.109
33.038
32.971
32.909
32.852
32.797
32.746
32.696
32.647
32.598
32.548
32.497
32.446
32.395
32.345
32.296
32.251
32.208
32.17
32.136
32.106
32.081
32.059
32.039
32.022
32.007
31.994
31.982
31.97
31.96
31.95
31.941
31.934
31.928
31.923
31.917
31.912
31.905
31.898
31.892
31.885
31.879
31.874
31.87
31.868
31.866
31.866
31.867
31.869
31.872
31.873
31.874
31.874
31.872
31.869
31.865
31.859
31.852
31.844
31.835
31.824
31.81
31.795
31.778
31.76
31.742
31.726
31.713
31.702
31.694
31.685
31.674
31.661
31.645
31.627
31.606
31.582
31.556
31.527
31.496
31.464
31.432
31.4
31.372
31.346
31.325
31.31
31.304
31.309
31.33
31.372
31.441
31.544
31.687
31.879
32.127
32.438
32.817
33.267
33.787
34.372
35.015
35.705
36.429
37.172
37.92
38.655
39.361
40.024
40.631
41.17
41.637
42.025
42.334
42.566
42.723
42.811
42.838
42.809
42.731
42.614
42.462
42.285
42.087
41.874
41.651
41.424
41.195
40.967
40.744
40.528
40.321
40.122
39.931
39.747
39.57
39.398
39.232
39.072
38.917
38.766
38.62
38.479
38.342
38.206
38.071
37.935
37.799
37.661
37.521
37.379
37.234
37.088
36.94
36.793
36.646
36.501
36.36
36.222
36.091
35.969
35.859
35.763
35.683
35.621
35.577
35.551
35.543
35.549
35.571
35.605
35.65
35.704
35.765
35.83
35.897
35.961
36.022
36.077
36.127
36.168
36.202
36.226
36.241
36.247
36.243
36.229
36.206
36.174
36.132
36.083
36.025
35.961
35.891
35.815
35.733
35.646
35.553
35.455
35.348
35.231
35.103
34.968
34.829
34.69
34.553
34.421
34.296
34.181
34.076
33.982
33.899
33.825
33.761
33.703
33.652
33.604
33.558
33.514
33.468
33.42
33.368
33.311
33.247
33.177
33.102
33.025
32.947
32.87
32.796
32.725
32.66
32.601
32.547
32.497
32.452
32.41
32.374
32.344
32.319
32.299
32.283
32.27
32.259
32.248
32.239
32.231
32.226
32.223
32.223
32.226
32.23
32.235
32.24
32.244
32.248
32.251
32.251
32.249
32.244
32.238
32.229
32.219
32.208
32.195
32.181
32.166
32.151
32.136
32.121
32.106
32.09
32.073
32.055
32.037
32.018
31.997
31.973
31.947
31.92
31.893
31.869
31.847
31.831
31.821
31.818
31.824
31.844
31.88
31.941
32.033
32.165
32.344
32.579
32.875
33.238
33.67
34.173
34.741
35.367
36.041
36.749
37.476
38.204
38.917
39.6
40.239
40.822
41.342
41.793
42.17
42.473
42.7
42.856
42.945
42.973
42.947
42.876
42.766
42.625
42.461
42.28
42.088
41.888
41.685
41.481
41.281
41.087
40.9
40.722
40.554
40.395
40.244
40.102
39.968
39.842
39.722
39.608
39.497
39.388
39.281
39.174
39.067
38.956
38.842
38.721
38.595
38.463
38.324
38.178
38.025
37.867
37.703
37.538
37.372
37.208
37.048
36.894
36.748
36.612
36.485
36.369
36.266
36.178
36.104
36.047
36.006
35.98
35.968
35.968
35.978
35.998
36.024
36.056
36.092
36.13
36.167
36.202
36.233
36.258
36.277
36.288
36.291
36.287
36.274
36.252
36.221
36.182
36.135
36.082
36.024
35.959
35.889
35.815
35.736
35.655
35.572
35.488
35.403
35.316
35.227
35.136
35.043
34.947
34.849
34.748
34.646
34.543
34.441
34.34
34.241
34.145
34.053
33.965
33.881
33.8
33.721
33.644
33.569
33.497
33.428
33.362
33.298
33.235
33.171
33.107
33.042
32.976
32.912
32.85
32.791
32.735
32.683
32.637
32.595
32.559
32.527
32.499
32.475
32.454
32.437
32.422
32.41
32.4
32.391
32.381
32.371
32.36
32.351
32.345
32.342
32.342
32.344
32.348
32.351
32.355
32.359
32.362
32.364
32.364
32.361
32.356
32.349
32.34
32.33
32.318
32.304
32.289
32.273
32.254
32.233
32.212
32.192
32.173
32.155
32.139
32.124
32.109
32.093
32.075
32.055
32.033
32.01
31.987
31.965
31.948
31.936
31.932
31.94
31.964
32.013
32.092
32.212
32.38
32.603
32.887
33.238
33.657
34.145
34.698
35.309
35.968
36.664
37.382
38.106
38.82
39.509
40.158
40.755
41.291
41.757
42.151
42.47
42.716
42.892
43.002
43.053
43.05
43.001
42.913
42.793
42.65
42.491
42.321
42.146
41.968
41.79
41.615
41.444
41.279
41.122
40.972
40.831
40.697
40.569
40.448
40.331
40.218
40.11
40.005
39.905
39.81
39.719
39.629
39.541
39.451
39.357
39.258
39.153
39.04
38.919
38.787
38.646
38.496
38.338
38.174
38.006
37.836
37.669
37.507
37.354
37.21
37.078
36.958
36.85
36.754
36.672
36.603
36.548
36.506
36.478
36.462
36.457
36.46
36.47
36.483
36.499
36.515
36.531
36.546
36.559
36.568
36.572
36.569
36.558
36.54
36.513
36.48
36.439
36.393
36.342
36.284
36.221
36.152
36.077
35.996
35.91
35.819
35.724
35.627
35.528
35.429
35.333
35.237
35.143
35.05
34.957
34.865
34.775
34.688
34.603
34.521
34.441
34.362
34.283
34.205
34.126
34.049
33.973
33.898
33.824
33.751
33.679
33.607
33.536
33.468
33.404
33.345
33.292
33.244
33.202
33.163
33.127
33.093
33.061
33.029
32.998
32.97
32.945
32.922
32.902
32.884
32.869
32.855
32.842
32.83
32.818
32.809
32.803
32.8
32.802
32.807
32.817
32.828
32.841
32.854
32.866
32.874
32.879
32.879
32.875
32.869
32.859
32.847
32.831
32.811
32.791
32.77
32.75
32.729
32.707
32.684
32.659
32.631
32.601
32.569
32.533
32.493
32.451
32.407
32.362
32.319
32.279
32.24
32.203
32.167
32.134
32.105
32.082
32.07
32.073
32.097
32.148
32.231
32.353
32.522
32.743
33.025
33.37
33.78
34.254
34.787
35.372
35.999
36.657
37.331
38.008
38.673
39.314
39.918
40.475
40.976
41.415
41.786
42.089
42.326
42.498
42.611
42.67
42.679
42.647
42.578
42.48
42.358
42.218
42.066
41.906
41.742
41.578
41.414
41.254
41.099
40.95
40.807
40.671
40.543
40.423
40.309
40.203
40.104
40.012
39.926
39.847
39.771
39.697
39.623
39.547
39.466
39.38
39.285
39.181
39.066
38.939
38.802
38.654
38.498
38.335
38.168
37.998
37.829
37.662
37.5
37.347
37.205
37.076
36.964
36.867
36.788
36.725
36.675
36.64
36.616
36.604
36.603
36.61
36.625
36.644
36.666
36.688
36.709
36.728
36.742
36.752
36.757
36.756
36.749
36.735
36.712
36.682
36.644
36.599
36.545
36.484
36.417
36.343
36.264
36.181
36.095
36.005
35.913
35.817
35.719
35.619
35.519
35.418
35.319
35.221
35.127
35.034
34.943
34.854
34.765
34.678
34.593
34.511
34.433
34.358
34.285
34.213
34.142
34.071
33.999
33.929
33.86
33.794
33.731
33.672
33.617
33.567
33.521
33.477
33.437
33.398
33.362
33.329
33.297
33.268
33.24
33.212
33.183
33.155
33.126
33.097
33.068
33.041
33.015
32.989
32.965
32.943
32.924
32.908
32.895
32.885
32.877
32.87
32.865
32.862
32.861
32.861
32.861
32.858
32.853
32.847
32.838
32.829
32.82
32.811
32.803
32.797
32.794
32.791
32.787
32.78
32.77
32.756
32.74
32.723
32.705
32.687
32.668
32.648
32.626
32.601
32.575
32.548
32.52
32.492
32.464
32.436
32.409
32.382
32.356
32.331
32.306
32.282
32.256
32.229
32.2
32.17
32.139
32.11
32.082
32.059
32.043
32.037
32.046
32.075
32.132
32.223
32.357
32.542
32.784
33.09
33.463
33.904
34.411
