Trial 1:0back
39.299
39.155
39.01
38.864
38.715
38.565
38.413
38.258
38.101
37.944
37.788
37.635
37.484
37.339
37.199
37.067
36.944
36.831
36.729
36.64
36.564
36.503
36.458
36.428
36.413
36.412
36.425
36.449
36.482
36.522
36.565
36.61
36.654
36.696
36.736
36.771
36.804
36.832
36.858
36.88
36.9
36.916
36.929
36.936
36.938
36.933
36.921
36.9
36.871
36.834
36.788
36.736
36.679
36.617
36.55
36.478
36.4
36.318
36.23
36.137
36.038
35.936
35.83
35.722
35.613
35.504
35.396
35.288
35.183
35.079
34.976
34.874
34.773
34.674
34.577
34.482
34.39
34.299
34.212
34.127
34.045
33.966
33.891
33.82
33.753
33.691
33.633
33.58
33.532
33.489
33.451
33.417
33.387
33.361
33.337
33.315
33.294
33.273
33.251
33.23
33.209
33.188
33.17
33.154
33.141
33.132
33.125
33.121
33.118
33.116
33.113
33.109
33.104
33.097
33.087
33.076
33.064
33.05
33.037
33.024
33.013
33.003
32.994
32.985
32.977
32.967
32.955
32.939
32.921
32.899
32.876
32.852
32.829
32.806
32.784
32.764
32.743
32.722
32.7
32.675
32.647
32.614
32.577
32.533
32.484
32.43
32.371
32.307
32.24
32.171
32.099
32.026
31.954
31.884
31.816
31.754
31.699
31.654
31.621
31.605
31.609
31.639
31.699
31.792
31.923
32.096
32.313
32.576
32.886
33.243
33.644
34.084
34.559
35.062
35.585
36.12
36.657
37.187
37.702
38.193
38.652
39.074
39.453
39.789
40.08
40.327
40.532
40.698
40.827
40.923
40.988
41.026
41.039
41.029
40.998
40.951
40.89
40.818
40.737
40.649
40.554
40.453
40.344
40.227
40.103
39.97
39.831
39.687
39.537
39.384
39.227
39.066
38.903
38.738
38.572
38.407
38.243
38.079
37.913
37.746
37.577
37.406
37.233
37.06
36.89
36.724
36.565
36.417
36.28
36.158
36.052
35.964
35.894
35.841
35.807
35.789
35.787
35.799
35.824
35.861
35.908
35.964
36.028
36.097
36.171
36.247
36.324
36.401
36.475
36.546
36.613
36.674
36.729
36.776
36.816
36.848
36.87
36.884
36.889
36.885
36.873
36.851
36.819
36.778
36.728
36.669
36.601
36.525
36.441
36.35
36.252
36.15
36.043
35.933
35.82
35.705
35.589
35.473
35.358
35.245
35.135
35.027
34.922
34.819
34.718
34.619
34.522
34.427
34.334
34.243
34.155
34.069
33.986
33.906
33.829
33.756
33.687
33.623
33.563
33.509
33.459
33.414
33.375
33.339
33.309
33.284
33.263
33.246
33.232
33.22
33.208
33.195
33.181
33.166
33.149
33.131
33.114
33.097
33.083
33.073
33.066
33.063
33.064
33.069
33.077
33.086
33.097
33.108
33.118
33.126
33.132
33.134
33.132
33.126
33.117
33.105
33.09
33.072
33.05
33.025
32.997
32.965
32.931
32.893
32.854
32.814
32.772
32.728
32.684
32.637
32.59
32.544
32.498
32.453
32.409
32.365
32.323
32.285
32.254
32.228
32.21
32.205
32.219
32.258
32.331
32.442
32.598
32.801
33.056
33.362
33.719
34.122
34.565
35.043
35.544
36.061
36.583
37.1
37.604
38.085
38.537
38.954
39.331
39.666
39.957
40.205
40.412
40.58
40.711
40.808
40.874
40.913
40.926
40.916
40.886
40.84
40.779
40.708
40.627
40.541
40.45
40.354
40.255
40.151
40.042
39.926
39.802
39.67
39.529
39.381
39.227
39.067
38.903
38.737
38.568
38.399
38.229
38.058
37.888
37.717
37.545
37.374
37.204
37.037
36.873
36.715
36.564
36.421
36.287
36.164
36.053
35.954
35.867
35.794
35.735
35.692
35.665
35.653
35.658
35.677
35.711
35.757
35.815
35.883
35.957
36.036
36.116
36.196
36.271
36.34
36.403
36.456
36.502
36.539
36.568
36.591
36.606
36.614
36.615
36.607
36.59
36.565
36.531
36.488
36.438
36.382
36.321
36.255
36.185
36.11
36.03
35.945
35.853
35.756
35.654
35.548
35.439
35.328
35.217
35.105
34.994
34.883
34.772
34.663
34.557
34.453
34.354
34.258
34.167
34.08
33.998
33.92
33.846
33.776
33.711
33.65
33.593
33.54
33.49
33.444
33.399
33.357
33.316
33.276
33.239
33.203
33.171
33.143
33.118
33.096
33.076
33.059
33.044
33.03
33.018
33.006
32.994
32.983
32.972
32.961
32.952
32.944
32.939
32.937
32.937
32.94
32.943
32.947
32.948
32.947
32.944
32.939
32.936
32.933
32.932
32.931
32.931
32.929
32.924
32.916
32.904
32.887
32.865
32.837
32.805
32.766
32.724
32.677
32.627
32.576
32.525
32.474
32.423
32.372
32.322
32.271
32.221
32.173
32.127
32.086
32.051
32.022
32.003
31.998
32.01
32.044
32.106
32.201
32.334
32.51
32.733
33.005
33.325
33.693
34.105
34.556
35.038
35.545
36.068
36.599
37.128
37.645
38.144
38.618
39.061
39.472
39.846
40.182
40.48
40.737
40.954
41.132
41.27
41.372
41.439
41.474
41.48
41.461
41.419
41.357
41.28
41.189
41.089
40.981
40.868
40.75
40.629
40.506
40.38
40.253
40.126
39.998
39.872
39.747
39.624
39.501
39.379
39.256
39.13
39.001
38.869
38.732
38.592
38.449
38.303
38.156
38.007
37.858
37.709
37.561
37.417
37.276
37.14
37.012
36.892
36.784
36.687
36.604
36.535
36.481
36.441
36.415
36.404
36.404
36.416
36.436
36.464
36.497
36.532
36.57
36.608
36.645
36.681
36.715
36.746
36.773
36.795
36.812
36.823
36.829
36.828
36.82
36.805
36.782
36.752
36.716
36.674
36.628
36.578
36.525
36.467
36.404
36.336
36.262
36.182
36.096
36.006
35.913
35.817
35.721
35.623
35.526
35.427
35.328
35.229
35.13
35.029
34.929
34.829
34.73
34.633
34.538
34.446
34.357
34.269
34.185
34.102
34.021
33.942
33.866
33.79
33.716
33.644
33.575
33.509
33.448
33.393
33.344
33.302
33.264
33.232
33.204
33.178
33.154
33.129
33.105
33.079
33.054
33.029
33.002
32.976
32.95
32.925
32.902
32.881
32.862
32.846
32.832
32.82
32.811
32.806
32.804
32.805
32.81
32.817
32.825
32.834
32.841
32.845
32.845
32.842
32.835
32.825
32.811
32.795
32.775
32.754
32.729
32.703
32.673
32.639
32.6
32.557
32.508
32.456
32.399
32.34
32.279
32.218
32.158
32.099
32.043
31.99
31.94
31.896
31.856
31.825
31.803
31.797
31.81
31.848
31.918
32.024
32.172
32.366
32.609
32.903
33.247
33.637
34.07
34.538
35.034
35.549
36.073
36.597
37.113
37.611
38.087
38.532
38.944
39.32
39.656
39.952
40.207
40.422
40.598
40.738
40.845
40.923
40.973
40.999
41.004
40.99
40.959
40.913
40.855
40.785
40.704
40.613
40.513
40.406
40.291
40.171
40.046
39.917
39.784
39.647
39.509
39.367
39.224
39.078
38.931
38.783
38.633
38.484
38.334
38.186
38.038
37.891
37.746
37.601
37.458
37.316
37.175
37.037
36.903
36.773
36.651
36.538
36.435
36.344
36.266
36.202
36.151
36.114
36.09
36.078
36.077
36.086
36.105
36.131
36.165
36.203
36.245
36.29
36.335
36.378
36.419
36.456
36.487
36.513
36.533
36.548
36.556
36.558
36.554
36.545
36.531
36.511
36.486
36.454
36.415
36.369
36.316
36.256
36.189
36.117
36.04
35.959
35.874
35.787
35.698
35.607
35.514
35.418
35.318
35.214
35.106
34.995
34.882
34.768
34.654
34.542
34.432
34.325
34.222
34.121
34.023
33.928
33.834
33.741
33.649
33.56
33.474
33.393
33.317
33.248
33.184
33.125
33.072
33.024
32.98
32.939
32.902
32.869
32.838
32.809
32.784
32.762
32.746
32.736
32.73
32.728
32.728
32.728
32.726
32.721
32.712
32.7
32.684
32.666
32.646
32.626
32.606
32.588
32.572
32.559
32.547
32.538
32.531
32.525
32.52
32.515
32.51
32.505
32.5
32.496
32.493
32.49
32.486
32.481
32.473
32.46
32.444
32.424
32.399
32.37
32.338
32.301
32.262
32.222
32.181
32.142
32.104
32.067
32.033
31.999
31.965
31.93
31.894
31.856
31.815
31.771
31.723
31.673
31.619
31.564
31.507
31.451
31.396
31.341
31.287
31.236
31.19
31.151
31.125
31.116
31.129
31.172
31.251
31.37
31.536
31.752
32.021
32.343
32.717
33.139
33.605
34.108
34.64
35.192
35.755
36.321
36.879
37.421
37.937
38.422
38.869
39.275
39.636
39.951
40.22
40.442
40.621
40.758
40.858
40.924
40.96
40.969
40.956
40.922
40.87
40.803
40.722
40.63
40.528
40.418
40.301
40.18
40.054
39.926
39.795
39.661
39.525
39.386
39.244
39.1
38.954
38.805
38.655
38.503
38.349
38.191
38.03
37.864
37.694
37.52
37.343
37.166
36.995
36.836
36.694
36.569
36.46
36.366
36.285
36.215
36.153
36.097
36.047
36.003
35.965
35.934
35.91
35.895
35.889
35.894
35.91
35.936
35.972
36.016
36.068
36.125
36.185
36.247
36.308
36.367
36.423
36.473
36.518
36.556
36.588
36.612
36.628
36.637
36.636
36.626
36.606
36.577
36.539
36.492
36.436
36.372
36.301
36.223
36.139
36.049
35.954
35.853
35.748
35.639
35.527
35.414
35.299
35.186
35.073
34.963
34.856
34.752
34.651
34.553
34.457
34.363
34.272
34.181
34.092
34.004
33.917
33.832
33.749
33.67
33.594
33.522
33.454
33.39
33.331
33.277
33.227
33.182
33.14
33.102
33.067
33.034
33.006
32.98
32.959
32.941
32.927
32.917
32.909
32.903
32.899
32.896
32.894
32.893
32.893
32.894
32.896
32.899
32.902
32.905
32.908
32.909
32.908
32.904
32.896
32.886
32.872
32.856
32.838
32.821
32.805
32.792
32.78
32.769
32.758
32.746
32.732
32.714
32.692
32.665
32.635
32.601
32.564
32.525
32.484
32.442
32.397
32.351
32.302
32.251
32.199
32.146
32.094
32.044
31.997
31.958
31.927
31.91
31.91
31.932
31.982
32.064
32.181
32.339
32.54
32.785
33.077
33.413
33.793
34.212
34.665
35.146
35.646
36.159
36.673
37.181
37.675
38.146
38.588
38.996
39.366
39.695
39.983
40.228
40.434
40.603
40.737
40.84
40.913
40.959
40.979
40.975
40.951
40.908
40.849
40.776
40.692
40.599
40.498
40.391
40.279
40.163
40.041
39.915
39.783
39.645
39.504
39.359
39.211
39.063
38.914
38.764
38.615
38.465
38.315
38.164
38.012
37.857
37.701
37.543
37.384
37.227
37.072
36.922
36.777
36.639
36.509
36.389
36.278
36.177
36.087
36.009
35.944
35.893
35.857
35.836
35.83
35.838
35.857
35.887
35.924
35.967
36.013
36.061
36.109
36.158
36.205
36.251
36.295
36.337
36.375
36.408
36.437
36.458
36.474
36.482
36.484
36.479
36.465
36.444
36.415
36.378
36.334
36.282
36.223
36.157
36.084
36.005
35.921
35.832
35.738
35.64
35.54
35.439
35.337
35.235
35.133
35.032
34.931
34.83
34.729
34.627
34.525
34.426
34.33
34.238
34.15
34.067
33.988
33.916
33.848
33.783
33.721
33.659
33.597
33.533
33.467
33.4
33.332
33.264
33.197
33.133
33.073
33.018
32.967
32.923
32.883
32.848
32.818
32.793
32.77
32.749
32.73
32.711
32.692
32.674
32.656
32.641
32.627
32.615
32.606
32.599
32.593
32.587
32.582
32.577
32.573
32.57
32.567
32.566
32.566
32.565
32.564
32.561
32.556
32.548
32.536
32.52
32.501
32.479
32.454
32.429
32.402
32.374
32.347
32.318
32.289
32.259
32.228
32.195
32.158
32.119
32.075
32.029
31.98
31.931
31.88
31.831
31.782
31.735
31.69
31.646
31.604
31.566
31.533
31.506
31.489
31.486
31.502
31.543
31.615
31.724
31.878
32.081
32.336
32.646
33.011
33.426
33.886
34.383
34.908
35.449
35.996
36.538
37.071
37.589
38.087
38.559
39.0
39.406
39.772
40.097
40.377
40.614
40.808
40.964
41.084
41.171
41.229
41.261
41.27
41.257
41.227
41.18
41.118
41.044
40.959
40.864
40.761
40.651
40.536
40.415
40.29
40.162
40.032
39.9
39.766
39.632
39.498
39.363
39.228
39.094
38.959
38.824
38.688
38.552
38.414
38.275
38.136
37.998
37.86
37.723
37.587
37.453
37.321
37.191
37.065
36.944
36.828
36.72
36.619
36.529
36.449
36.381
36.324
36.279
36.246
36.226
36.217
36.22
36.233
36.255
36.285
36.32
36.357
36.395
36.429
36.46
36.485
36.503
36.516
36.523
36.526
36.525
36.519
36.509
36.494
36.473
36.448
36.416
36.38
36.338
36.29
36.237
36.181
36.12
36.055
35.986
35.912
35.833
35.748
35.657
35.559
35.456
35.35
35.24
35.13
35.021
34.913
34.809
34.707
34.608
34.51
34.413
34.317
34.223
34.13
34.039
33.949
33.863
33.779
33.697
33.619
33.543
33.469
33.398
33.329
33.262
33.197
33.135
33.075
33.018
32.965
32.916
32.871
32.83
32.795
32.764
32.737
32.715
32.696
32.681
32.668
32.657
32.649
32.643
32.638
32.634
32.629
32.624
32.618
32.611
32.604
32.597
32.591
32.585
32.579
32.574
32.569
32.564
32.56
32.557
32.555
32.555
32.554
32.554
32.554
32.552
32.548
32.541
32.53
32.516
32.499
32.481
32.463
32.444
32.425
32.405
32.383
32.359
32.332
32.301
32.266
32.228
32.186
32.139
32.088
32.032
31.972
31.908
31.843
31.778
31.712
31.648
31.587
31.528
31.473
31.423
31.379
31.347
31.33
31.332
31.357
31.409
31.494
31.616
31.781
31.995
32.259
32.575
32.941
33.354
33.81
34.302
34.822
35.361
35.91
36.461
37.002
37.526
38.025
38.492
38.923
39.315
39.665
39.974
40.24
40.465
40.651
40.799
40.914
40.997
41.053
41.082
41.088
41.072
41.037
40.985
40.919
40.842
40.754
40.659
40.558
40.452
40.342
40.229
40.114
39.997
39.876
39.751
39.622
39.488
39.351
39.212
39.071
38.93
38.787
38.644
38.499
38.353
38.204
38.053
37.9
37.745
37.591
37.438
37.287
37.141
37.001
36.868
36.743
36.628
36.524
36.431
36.349
36.28
36.224
36.182
36.153
36.138
36.136
36.144
36.162
36.188
36.22
36.255
36.294
36.333
36.374
36.414
36.453
36.491
36.529
36.564
36.597
36.626
36.649
36.667
36.678
36.681
36.677
36.665
36.647
36.622
36.59
36.553
36.509
36.46
36.404
36.343
36.274
36.199
36.116
36.025
35.928
35.826
35.719
35.611
35.502
35.394
35.287
35.183
35.082
34.983
34.887
34.794
34.703
34.614
34.525
34.436
34.347
34.258
34.17
34.085
34.002
33.924
33.849
33.778
33.711
33.647
33.586
33.527
33.471
33.419
33.373
33.334
33.3
33.271
33.246
33.223
33.202
33.183
33.165
33.148
33.131
33.114
33.097
33.081
33.065
33.05
33.035
33.022
33.01
33.0
32.991
32.986
32.983
32.982
32.982
32.984
32.986
32.987
32.989
32.991
32.992
32.992
32.99
32.986
32.98
32.97
32.956
32.938
32.917
32.893
32.866
32.838
32.808
32.777
32.744
32.709
32.67
32.628
32.583
32.534
32.482
32.427
32.37
32.313
32.256
32.198
32.142
32.085
32.029
31.972
31.917
31.864
31.815
31.772
31.738
31.716
31.712
31.73
31.777
31.857
31.975
32.135
32.341
32.594
32.895
33.241
33.63
34.058
34.518
35.004
35.509
36.024
36.543
37.055
37.554
38.032
38.483
38.901
39.282
39.62
39.914
40.163
40.367
40.529
40.653
40.742
40.8
40.833
40.842
40.832
40.807
40.767
40.715
40.654
40.583
40.506
40.423
40.334
40.241
40.144
40.044
39.94
39.832
39.72
39.605
39.485
39.362
39.235
39.104
38.972
38.837
38.701
38.563
38.424
38.283
38.141
37.997
37.851
37.703
37.552
37.401
37.25
37.102
36.957
36.818
36.686
36.565
36.455
36.357
36.271
36.198
36.137
36.09
36.055
36.032
36.021
36.021
36.029
36.047
36.071
36.102
36.137
36.175
36.215
36.253
36.29
36.326
36.358
36.389
36.417
36.442
36.464
36.481
36.491
36.496
36.492
36.481
36.462
36.435
36.402
36.362
36.317
36.268
36.214
36.155
36.09
36.02
35.942
35.858
35.766
35.667
35.564
35.456
35.345
35.234
35.124
35.016
34.91
34.806
34.704
34.604
34.505
34.408
34.312
34.217
34.125
34.035
33.948
33.864
33.784
33.706
33.632
33.561
33.493
33.426
33.361
33.297
33.236
33.177
33.121
33.069
33.021
32.977
32.938
32.903
32.872
32.845
32.821
32.799
32.779
32.762
32.748
32.738
32.73
32.725
32.721
32.718
32.715
32.711
32.705
32.699
32.692
32.686
32.681
32.677
32.674
32.67
32.665
32.66
32.654
32.647
32.64
32.631
32.62
32.608
32.593
32.577
32.559
32.54
32.519
32.498
32.476
32.455
32.434
32.415
32.397
32.382
32.367
32.351
32.332
32.306
32.273
32.234
32.188
32.138
32.084
32.027
31.968
31.907
31.844
31.782
31.723
31.675
31.64
31.618
31.606
31.603
31.604
31.61
31.62
31.636
31.661
31.7
31.758
31.842
31.958
32.113
32.31
32.556
32.853
33.201
33.597
34.038
34.517
35.026
35.556
36.1
36.647
37.187
37.71
38.209
38.676
39.108
39.499
39.849
40.156
40.42
40.641
40.823
40.966
41.074
41.15
41.196
41.216
41.214
41.191
41.153
41.101
41.038
40.966
40.886
40.799
40.703
40.6
40.49
40.372
40.248
40.118
39.985
39.852
39.721
39.594
39.471
39.352
39.236
39.122
39.008
38.894
38.778
38.658
38.536
38.41
38.281
38.148
38.014
37.88
37.747
37.617
37.491
37.366
37.244
37.124
37.006
36.893
36.786
36.687
36.597
36.519
36.453
36.4
36.361
36.333
36.318
36.314
36.319
36.332
36.353
36.379
36.41
36.443
36.478
36.512
36.545
36.573
36.597
36.614
36.624
36.626
36.621
36.607
36.587
36.562
36.531
36.496
36.456
36.411
36.359
36.302
36.237
36.167
36.091
36.012
35.929
35.843
35.756
35.669
35.581
35.492
35.403
35.312
35.22
35.126
35.029
34.93
34.83
34.728
34.627
34.526
34.427
34.329
34.233
34.139
34.046
33.955
33.866
33.779
33.694
33.613
33.536
33.463
33.396
33.334
33.278
33.227
33.181
33.139
33.1
33.064
33.03
32.997
32.965
32.934
32.905
32.877
32.85
32.826
32.802
32.779
32.756
32.733
32.71
32.686
32.663
32.641
32.619
32.6
32.584
32.571
32.561
32.553
32.547
32.542
32.537
32.53
32.523
32.513
32.502
32.489
32.474
32.458
32.441
32.424
32.407
32.39
32.374
32.358
32.341
32.324
32.306
32.288
32.269
32.247
32.225
32.2
32.173
32.145
32.116
32.085
32.051
32.015
31.976
31.933
31.887
31.838
31.786
31.731
31.675
31.618
31.561
31.504
31.448
31.393
31.34
31.289
31.243
31.203
31.173
31.155
31.155
31.177
31.23
31.318
31.449
31.627
31.857
32.141
32.478
32.868
33.305
33.785
34.298
34.838
35.393
35.956
36.516
37.065
37.594
38.097
38.566
38.998
39.388
39.734
40.034
40.288
40.497
40.663
40.79
40.882
40.943
40.976
40.986
40.976
40.949
40.908
40.854
40.789
40.715
40.633
40.543
40.448
40.348
40.243
40.134
40.021
39.903
39.78
39.652
39.521
39.385
39.246
39.105
38.963
38.821
38.679
38.537
38.394
38.251
38.107
37.959
37.809
37.654
37.497
37.337
37.178
37.021
36.868
36.721
36.581
36.451
36.332
36.225
36.13
36.048
35.979
35.923
35.881
35.852
35.836
35.832
35.839
35.855
35.88
35.909
35.943
35.981
36.022
36.064
36.107
36.147
36.185
36.219
36.248
36.272
36.289
36.3
36.303
36.3
36.289
36.273
36.249
36.218
36.18
36.135
36.085
36.029
35.968
35.9
35.825
35.744
35.656
35.56
35.46
35.361
35.265
35.171
35.082
34.996
34.912
34.829
34.747
34.664
34.579
34.492
34.402
34.31
34.215
34.119
34.021
33.921
33.821
33.722
33.625
33.531
33.441
33.356
33.275
33.199
33.126
33.056
32.989
32.924
32.863
32.805
32.753
32.705
32.663
32.625
32.59
32.557
32.525
32.493
32.461
32.431
32.403
32.378
32.355
32.336
32.32
32.306
32.296
32.289
32.283
32.279
32.277
32.276
32.275
32.273
32.271
32.269
32.264
32.259
32.252
32.245
32.238
32.232
32.226
32.22
32.214
32.207
32.198
32.187
32.174
32.161
32.146
32.132
32.118
32.103
32.088
32.072
32.054
32.034
32.012
31.987
31.959
31.929
31.898
31.865
31.831
31.796
31.759
31.719
31.678
31.635
31.589
31.541
31.491
31.437
31.379
31.318
31.253
31.186
31.118
31.051
30.984
30.92
30.858
30.799
30.744
30.692
30.647
30.609
30.583
30.572
30.582
30.618
30.687
30.796
30.951
31.158
31.42
31.739
32.113
32.54
33.013
33.527
34.071
34.638
35.218
35.801
36.378
36.94
37.479
37.987
38.457
38.886
39.271
39.609
39.9
40.146
40.349
40.511
40.635
40.725
40.783
40.812
40.815
40.794
40.751
40.689
40.61
40.519
40.417
40.307
40.192
40.073
39.952
39.828
39.701
39.57
39.436
39.297
39.153
39.003
38.847
38.686
38.521
38.354
38.187
38.02
37.853
37.685
37.515
37.344
37.17
36.996
36.821
36.648
36.478
36.311
36.151
36.0
35.858
35.726
35.608
35.504
35.414
35.339
35.28
35.237
35.21
35.199
35.203
35.223
35.257
35.304
