Trial 1:0back
35.04
35.032
35.025
35.019
35.013
35.007
35.001
34.994
34.988
34.981
34.974
34.968
34.962
34.956
34.951
34.944
34.937
34.928
34.918
34.906
34.893
34.878
34.864
34.849
34.835
34.821
34.806
34.791
34.775
34.761
34.746
34.732
34.718
34.706
34.694
34.682
34.672
34.661
34.651
34.642
34.635
34.628
34.621
34.616
34.612
34.609
34.606
34.604
34.602
34.599
34.596
34.59
34.582
34.571
34.558
34.543
34.526
34.508
34.489
34.47
34.452
34.434
34.418
34.404
34.391
34.38
34.371
34.363
34.357
34.352
34.349
34.347
34.347
34.347
34.346
34.346
34.345
34.344
34.342
34.34
34.337
34.333
34.329
34.325
34.322
34.319
34.318
34.316
34.315
34.314
34.312
34.31
34.307
34.304
34.299
34.293
34.286
34.278
34.268
34.259
34.248
34.237
34.225
34.213
34.201
34.189
34.178
34.168
34.159
34.153
34.151
34.154
34.164
34.184
34.215
34.261
34.323
34.403
34.502
34.621
34.759
34.913
35.082
35.262
35.45
35.641
35.832
36.017
36.194
36.359
36.511
36.646
36.765
36.865
36.946
37.008
37.053
37.082
37.095
37.094
37.081
37.058
37.025
36.985
36.939
36.888
36.834
36.778
36.723
36.667
36.611
36.556
36.503
36.452
36.403
36.357
36.313
36.272
36.235
36.201
36.171
36.145
36.123
36.105
36.091
36.081
36.072
36.065
36.06
36.055
36.051
36.046
36.039
36.03
36.019
36.006
35.99
35.971
35.955
35.944
35.939
35.94
35.943
35.947
35.949
35.949
35.945
35.938
35.927
35.914
35.898
35.882
35.866
35.85
35.837
35.826
35.817
35.811
35.807
35.804
35.802
35.801
35.8
35.798
35.796
35.794
35.79
35.786
35.78
35.773
35.765
35.755
35.744
35.731
35.718
35.704
35.69
35.676
35.663
35.65
35.639
35.628
35.616
35.603
35.589
35.574
35.557
35.538
35.517
35.494
35.47
35.444
35.417
35.39
35.363
35.336
35.309
35.283
35.258
35.234
35.212
35.192
35.173
35.155
35.139
35.124
35.11
35.096
35.084
35.073
35.062
35.053
35.046
35.041
35.038
35.037
35.037
35.037
35.037
35.036
35.032
35.026
35.018
35.008
34.998
34.988
34.978
34.969
34.962
34.955
34.948
34.942
34.936
34.929
34.922
34.913
34.903
34.891
34.878
34.865
34.851
34.838
34.825
34.814
34.805
34.798
34.793
34.79
34.788
34.787
34.786
34.784
34.782
34.779
34.775
34.77
34.764
34.755
34.745
34.732
34.716
34.699
34.68
34.662
34.643
34.626
34.611
34.597
34.584
34.573
34.563
34.555
34.547
34.54
34.533
34.528
34.522
34.517
34.513
34.508
34.504
34.5
34.497
34.494
34.492
34.49
34.489
34.487
34.486
34.484
34.482
34.48
34.477
34.474
34.471
34.466
34.461
34.455
34.446
34.437
34.428
34.418
34.409
34.401
34.392
34.383
34.373
34.362
34.35
34.338
34.326
34.312
34.299
34.284
34.27
34.256
34.244
34.232
34.222
34.214
34.207
34.201
34.197
34.193
34.189
34.186
34.182
34.179
34.175
34.173
34.171
34.171
34.172
34.176
34.185
34.201
34.228
34.267
34.32
34.389
34.476
34.58
34.702
34.839
34.99
35.152
35.322
35.495
35.67
35.843
36.009
36.167
36.313
36.444
36.56
36.657
36.737
36.8
36.845
36.873
36.886
36.884
36.87
36.846
36.813
36.773
36.727
36.677
36.626
36.574
36.523
36.475
36.43
36.39
36.354
36.323
36.296
36.273
36.252
36.234
36.217
36.199
36.181
36.164
36.146
36.129
36.112
36.096
36.079
36.063
36.047
36.032
36.017
36.001
35.986
35.97
35.954
35.938
35.923
35.907
35.892
35.877
35.862
35.847
35.832
35.816
35.798
35.78
35.76
35.74
35.719
35.7
35.682
35.667
35.656
35.649
35.646
35.647
35.651
35.658
35.667
35.678
35.69
35.702
35.715
35.727
35.739
35.751
35.761
35.769
35.775
35.779
35.781
35.778
35.773
35.764
35.754
35.741
35.725
35.706
35.684
35.66
35.635
35.607
35.578
35.547
35.516
35.486
35.456
35.428
35.401
35.376
35.353
35.333
35.314
35.297
35.283
35.271
35.26
35.25
35.24
35.231
35.222
35.212
35.203
35.192
35.181
35.168
35.156
35.143
35.13
35.118
35.106
35.095
35.084
35.072
35.061
35.049
35.036
35.024
35.011
34.998
34.984
34.972
34.96
34.948
34.937
34.926
34.915
34.905
34.895
34.886
34.877
34.868
34.859
34.851
34.842
34.835
34.829
34.823
34.818
34.814
34.811
34.809
34.807
34.807
34.807
34.807
34.807
34.808
34.808
34.806
34.803
34.797
34.79
34.78
34.769
34.756
34.741
34.724
34.706
34.688
34.669
34.65
34.632
34.615
34.599
34.584
34.569
34.556
34.542
34.528
34.514
34.5
34.486
34.473
34.46
34.449
34.44
34.434
34.43
34.43
34.432
34.436
34.441
34.448
34.454
34.458
34.462
34.463
34.462
34.459
34.452
34.443
34.432
34.419
34.405
34.389
34.373
34.356
34.34
34.324
34.307
34.292
34.277
34.264
34.252
34.242
34.232
34.222
34.207
34.185
34.156
34.121
34.083
34.046
34.012
33.985
33.964
33.953
33.95
33.958
33.976
34.002
34.035
34.074
34.115
34.157
34.196
34.231
34.26
34.282
34.296
34.3
34.296
34.284
34.266
34.242
34.215
34.185
34.154
34.122
34.092
34.064
34.038
34.016
33.999
33.988
33.985
33.99
34.005
34.033
34.077
34.138
34.217
34.317
34.438
34.578
34.736
34.909
35.095
35.29
35.49
35.691
35.89
36.082
36.264
36.432
36.585
36.72
36.836
36.934
37.013
37.074
37.119
37.146
37.159
37.158
37.145
37.122
37.09
37.051
37.007
36.96
36.91
36.859
36.808
36.757
36.706
36.658
36.616
36.581
36.554
36.533
36.516
36.502
36.489
36.476
36.46
36.442
36.421
36.398
36.372
36.345
36.317
36.29
36.263
36.238
36.215
36.195
36.178
36.164
36.151
36.14
36.129
36.119
36.108
36.095
36.081
36.064
36.045
36.024
36.001
35.977
35.952
35.927
35.903
35.88
35.86
35.843
35.828
35.817
35.809
35.804
35.801
35.801
35.803
35.809
35.816
35.823
35.831
35.839
35.846
35.851
35.855
35.856
35.855
35.851
35.846
35.837
35.827
35.815
35.802
35.788
35.774
35.759
35.744
35.729
35.716
35.704
35.694
35.685
35.677
35.669
35.66
35.651
35.64
35.626
35.61
35.591
35.57
35.546
35.52
35.492
35.463
35.433
35.403
35.375
35.348
35.323
35.3
35.28
35.262
35.246
35.232
35.22
35.208
35.197
35.185
35.171
35.157
35.141
35.124
35.106
35.089
35.071
35.054
35.038
35.022
35.008
34.995
34.985
34.976
34.969
34.962
34.957
34.952
34.948
34.944
34.939
34.934
34.929
34.924
34.918
34.913
34.907
34.901
34.895
34.89
34.886
34.883
34.88
34.877
34.874
34.87
34.865
34.859
34.852
34.841
34.828
34.811
34.793
34.772
34.75
34.728
34.706
34.685
34.666
34.648
34.632
34.618
34.606
34.597
34.59
34.585
34.582
34.581
34.58
34.579
34.578
34.575
34.572
34.567
34.562
34.557
34.551
34.544
34.539
34.533
34.527
34.522
34.517
34.512
34.507
34.501
34.494
34.486
34.477
34.467
34.457
34.447
34.437
34.428
34.42
34.411
34.403
34.394
34.386
34.377
34.367
34.356
34.345
34.333
34.321
34.311
34.301
34.293
34.286
34.281
34.278
34.276
34.277
34.279
34.283
34.288
34.295
34.301
34.307
34.311
34.312
34.311
34.307
34.3
34.291
34.279
34.265
34.25
34.232
34.214
34.193
34.172
34.15
34.128
34.107
34.087
34.069
34.052
34.036
34.021
34.008
33.999
33.993
33.994
34.0
34.016
34.042
34.084
34.143
34.222
34.322
34.443
34.584
34.743
34.917
35.104
35.3
35.501
35.702
35.901
36.093
36.276
36.446
36.6
36.739
36.859
36.961
37.043
37.108
37.154
37.185
37.198
37.196
37.18
37.15
37.11
37.059
37.001
36.939
36.876
36.814
36.756
36.701
36.65
36.602
36.558
36.517
36.48
36.446
36.415
36.387
36.362
36.339
36.318
36.297
36.277
36.258
36.238
36.219
36.199
36.178
36.157
36.135
36.113
36.089
36.065
36.039
36.013
35.987
35.961
35.934
35.908
35.882
35.858
35.835
35.814
35.796
35.781
35.769
35.761
35.756
35.754
35.755
35.758
35.764
35.771
35.779
35.79
35.801
35.814
35.828
35.843
35.859
35.876
35.893
35.91
35.927
35.942
35.954
35.964
35.971
35.975
35.976
35.973
35.968
35.959
35.947
35.933
35.915
35.896
35.876
35.854
35.832
35.808
35.785
35.762
35.737
35.712
35.684
35.652
35.615
35.575
35.532
35.488
35.444
35.4
35.357
35.315
35.276
35.241
35.21
35.184
35.162
35.145
35.132
35.123
35.119
35.118
35.119
35.123
35.129
35.135
35.142
35.149
35.153
35.157
35.157
35.156
35.151
35.145
35.136
35.124
35.11
35.093
35.076
35.059
35.043
35.028
35.014
35.002
34.991
34.981
34.973
34.967
34.961
34.956
34.951
34.947
34.942
34.938
34.932
34.926
34.919
34.913
34.906
34.899
34.893
34.887
34.882
34.877
34.872
34.867
34.861
34.854
34.846
34.837
34.827
34.816
34.805
34.793
34.782
34.771
34.76
34.748
34.736
34.724
34.711
34.698
34.685
34.672
34.66
34.647
34.635
34.623
34.614
34.605
34.597
34.589
34.58
34.572
34.564
34.557
34.551
34.545
34.54
34.535
34.529
34.523
34.516
34.509
34.5
34.491
34.482
34.472
34.462
34.451
34.441
34.431
34.421
34.411
34.402
34.391
34.377
34.36
34.342
34.324
34.307
34.291
34.277
34.265
34.255
34.247
34.24
34.234
34.231
34.229
34.229
34.23
34.233
34.236
34.239
34.243
34.246
34.248
34.248
34.245
34.239
34.233
34.227
34.221
34.219
34.221
34.232
34.253
34.289
34.343
34.417
34.512
34.629
34.768
34.926
35.1
35.287
35.482
35.682
35.881
36.075
36.26
36.434
36.595
36.741
36.87
36.982
37.076
37.153
37.212
37.256
37.284
37.298
37.3
37.292
37.276
37.252
37.221
37.186
37.146
37.105
37.062
37.018
36.975
36.931
36.889
36.847
36.808
36.769
36.733
36.699
36.668
36.64
36.615
36.593
36.574
36.558
36.543
36.53
36.519
36.508
36.498
36.488
36.477
36.466
36.453
36.437
36.418
36.396
36.37
36.34
36.306
36.27
36.232
36.194
36.156
36.119
36.085
36.053
36.023
35.996
35.972
35.952
35.937
35.927
35.922
35.923
35.928
35.938
35.952
35.969
35.988
36.008
36.027
36.043
36.055
36.065
36.072
36.077
36.079
36.08
36.079
36.077
36.074
36.069
36.063
36.055
36.044
36.031
36.016
35.999
35.981
35.96
35.939
35.916
35.891
35.866
35.839
35.812
35.785
35.758
35.731
35.704
35.677
35.651
35.625
35.601
35.58
35.562
35.548
35.537
35.528
35.519
35.509
35.498
35.485
35.47
35.455
35.437
35.419
35.399
35.38
35.36
35.341
35.322
35.304
35.288
35.272
35.258
35.245
35.233
35.222
35.213
35.204
35.195
35.187
35.178
35.169
35.16
35.15
35.139
35.128
35.117
35.105
35.092
35.077
35.06
35.043
35.025
35.008
34.992
34.979
34.97
34.964
34.962
34.964
34.968
34.974
34.98
34.986
34.991
34.995
34.996
34.996
34.993
34.988
34.982
34.974
34.964
34.952
34.939
34.923
34.907
34.888
34.87
34.852
34.833
34.815
34.798
34.782
34.768
34.757
34.748
34.739
34.728
34.714
34.697
34.679
34.66
34.64
34.622
34.605
34.591
34.579
34.569
34.563
34.56
34.56
34.561
34.563
34.565
34.567
34.569
34.569
34.568
34.567
34.564
34.562
34.56
34.558
34.555
34.553
34.552
34.551
34.55
34.549
34.548
34.546
34.541
34.534
34.522
34.508
34.491
34.473
34.454
34.435
34.417
34.401
34.387
34.375
34.365
34.356
34.349
34.341
34.334
34.327
34.319
34.311
34.304
34.298
34.292
34.289
34.288
34.29
34.295
34.303
34.316
34.335
34.361
34.397
34.444
34.504
34.58
34.674
34.785
34.913
35.057
35.214
35.385
35.564
35.75
35.939
36.125
36.306
36.477
36.636
36.781
36.911
37.023
37.118
37.194
37.252
37.293
37.319
37.332
37.335
37.328
37.313
37.292
37.265
37.234
37.2
37.163
37.124
37.083
37.041
36.999
36.957
36.915
36.875
36.837
36.8
36.765
36.732
36.702
36.675
36.649
36.627
36.606
36.589
36.575
36.564
36.555
36.547
36.539
36.529
36.517
36.502
36.486
36.468
36.447
36.426
36.404
36.381
36.358
36.334
36.311
36.287
36.264
36.242
36.219
36.197
36.177
36.157
36.138
36.12
36.104
36.089
36.076
36.065
36.057
36.051
36.051
36.056
36.065
36.079
36.097
36.116
36.138
36.161
36.184
36.204
36.222
36.235
36.244
36.247
36.243
36.234
36.22
36.201
36.178
36.153
36.124
36.094
36.063
36.032
36.002
35.972
35.943
35.916
35.891
35.867
35.844
35.822
35.8
35.779
35.758
35.737
35.715
35.692
35.668
35.644
35.62
35.595
35.572
35.549
35.528
35.508
35.489
35.473
35.458
35.445
35.433
35.422
35.412
35.401
35.39
35.379
35.368
35.358
35.347
35.337
35.327
35.318
35.309
35.3
35.291
35.282
35.273
35.264
35.256
35.249
35.242
35.237
35.233
35.229
35.225
35.22
35.215
35.209
35.201
35.191
35.18
35.167
35.154
35.142
35.131
35.122
35.114
35.107
35.102
35.098
35.095
35.093
35.09
35.088
35.084
35.08
35.074
35.068
35.06
35.051
35.043
35.033
35.024
35.015
35.005
34.996
34.986
34.976
34.964
34.951
34.937
34.922
34.904
34.887
34.87
34.854
34.84
34.827
34.816
34.807
34.799
34.793
34.788
34.784
34.782
34.78
34.779
34.778
34.777
34.776
34.774
34.771
34.767
34.761
34.753
34.743
34.731
34.719
34.704
34.688
34.672
34.655
34.637
34.619
34.6
34.581
34.562
34.543
34.525
34.506
34.488
34.471
34.455
34.439
34.425
34.412
34.4
34.39
34.38
34.371
34.362
34.353
34.344
34.337
34.331
34.328
34.328
34.332
34.341
34.358
34.383
34.418
34.466
34.528
34.603
34.694
34.8
34.92
35.053
35.197
35.35
35.508
35.669
35.83
35.99
36.145
36.293
36.434
36.569
36.702
36.831
36.954
37.068
37.169
37.254
37.32
37.366
37.391
37.397
37.383
37.352
37.306
37.246
37.177
37.101
37.02
36.937
36.855
36.776
36.701
36.631
36.566
36.508
36.455
36.41
36.372
36.339
36.312
36.291
36.275
36.263
36.255
36.249
36.244
36.239
36.231
36.222
36.211
36.199
36.185
36.171
36.155
36.138
36.121
36.103
36.084
36.064
36.043
36.021
35.998
35.975
35.952
35.929
35.907
35.887
35.87
35.856
35.845
35.839
35.837
35.839
35.844
35.853
35.863
35.875
35.888
35.903
35.918
35.934
35.949
35.964
35.978
35.991
36.001
36.008
36.012
36.013
36.011
36.007
36.0
35.992
35.982
35.97
35.957
35.942
35.925
35.906
35.885
35.862
35.838
35.811
35.783
35.754
35.724
35.694
35.664
35.635
35.606
35.58
35.554
35.53
35.507
35.486
35.467
35.451
35.436
35.423
35.412
35.401
35.39
35.378
35.367
35.357
35.347
35.339
35.331
35.323
35.315
35.308
35.3
35.292
35.283
35.274
35.265
35.255
35.244
35.232
35.22
35.207
35.195
35.183
35.171
35.161
35.151
35.143
35.136
35.131
35.127
35.124
35.121
35.118
35.116
35.113
35.111
35.109
35.107
35.104
35.1
35.096
35.09
35.084
35.076
35.067
35.057
35.045
35.034
35.022
35.009
34.997
34.984
34.971
34.958
34.945
34.932
34.92
34.909
34.899
34.89
34.883
34.877
34.872
34.869
34.865
34.861
34.857
34.853
34.847
34.842
34.836
34.83
34.824
34.82
34.817
34.813
34.81
34.808
34.806
34.805
34.806
34.806
34.807
34.807
34.806
34.803
34.797
34.789
34.778
34.765
34.749
34.731
34.712
34.691
34.669
34.645
34.62
34.594
34.568
34.541
34.514
34.489
34.466
34.444
34.424
34.407
34.392
34.379
34.369
34.362
34.358
34.358
34.362
34.372
34.39
34.415
34.452
34.499
34.56
34.634
34.722
34.824
34.939
35.066
35.203
35.348
35.498
35.652
35.807
35.959
36.106
36.247
36.378
36.498
36.606
36.701
36.781
36.848
36.901
36.94
36.965
36.977
36.977
36.966
36.947
36.92
36.887
36.85
36.81
36.77
36.73
36.69
36.65
36.611
36.574
36.539
36.506
36.474
36.444
36.414
36.385
36.357
36.329
36.303
36.278
36.255
36.233
36.213
36.192
36.171
36.15
36.131
36.111
36.092
36.073
36.054
36.035
36.017
35.998
35.978
35.959
35.939
35.918
35.898
35.877
35.858
35.84
35.824
35.811
35.799
35.789
35.783
35.778
35.777
35.778
35.781
35.786
35.793
35.802
35.812
35.823
35.833
35.843
35.853
35.863
35.873
35.882
35.891
35.899
35.905
35.909
35.911
35.911
35.909
35.905
35.897
35.886
35.871
35.853
35.831
35.806
35.779
35.751
35.721
35.689
35.657
35.626
35.595
35.564
35.535
35.508
35.483
35.459
35.437
35.417
35.398
35.381
35.366
35.353
35.342
35.333
35.325
35.319
35.313
35.308
35.303
35.298
35.293
35.288
35.283
35.276
35.269
35.261
35.254
35.247
35.24
35.233
35.225
35.216
35.205
35.194
35.181
35.166
35.151
35.136
35.12
35.104
35.089
35.075
35.062
35.051
35.04
35.031
35.024
35.019
35.014
35.01
35.006
35.002
34.998
34.993
34.986
34.978
34.969
34.96
34.95
34.939
34.928
34.915
34.903
34.89
34.878
34.865
34.853
34.843
34.835
34.83
34.827
34.825
34.823
34.822
34.821
34.819
34.817
34.814
34.81
34.804
34.797
34.788
34.777
34.764
34.75
34.734
34.716
34.698
34.679
34.66
34.64
34.621
34.603
34.586
34.57
34.558
34.549
34.543
34.539
34.54
34.543
34.548
34.555
34.562
34.569
34.574
34.577
34.576
34.571
34.563
34.552
34.538
34.523
34.507
34.491
34.474
34.458
34.442
34.426
34.41
34.395
34.381
34.369
34.357
34.345
34.334
34.323
34.313
34.305
34.298
34.293
34.288
34.285
34.282
34.28
34.278
34.276
34.275
34.274
34.275
34.277
34.282
34.291
34.307
34.329
34.361
34.402
34.455
34.521
34.601
34.694
34.8
34.918
35.046
35.183
35.325
35.471
35.619
35.768
35.916
36.061
36.201
36.335
36.462
36.579
36.686
36.781
36.864
36.933
36.99
37.034
37.065
37.083
37.09
37.085
37.071
37.048
37.017
36.978
36.935
36.887
36.837
36.785
36.733
36.682
36.632
36.583
36.538
36.495
36.457
36.422
36.391
36.365
36.343
36.326
36.312
36.303
36.296
36.291
36.288
36.285
36.281
36.276
36.268
36.257
36.242
36.223
36.202
36.179
36.154
36.127
36.1
36.072
36.045
36.019
35.995
35.974
35.955
35.938
35.924
35.913
35.903
35.896
35.892
35.889
35.887
35.886
35.885
35.885
35.885
35.884
35.882
35.879
35.876
35.873
35.869
35.866
35.863
35.86
35.857
35.853
35.85
35.846
35.841
35.836
35.83
35.823
35.814
35.804
35.793
35.781
35.768
35.755
35.741
35.727
35.712
35.696
35.679
35.66
35.642
35.622
35.603
35.583
35.563
35.543
35.522
35.499
35.475
35.45
35.426
35.402
35.378
35.355
35.332
35.309
35.287
35.266
35.246
35.227
35.208
35.191
35.175
35.159
35.145
35.133
35.124
35.117
35.115
35.119
35.128
35.141
35.157
35.173
35.188
35.199
35.206
35.209
35.207
35.2
35.189
35.173
35.154
35.132
35.108
35.082
35.056
35.031
35.006
34.983
34.962
34.943
34.926
34.911
34.899
34.889
34.881
34.875
34.872
34.871
34.87
34.871
34.872
34.873
34.875
34.883
34.901
34.929
34.963
35.001
35.037
35.068
35.092
35.105
35.108
35.1
35.081
35.054
35.02
34.98
34.937
34.892
34.846
34.802
34.76
34.721
34.685
34.653
34.626
34.603
34.584
34.57
34.56
34.553
34.547
34.544
34.541
34.539
34.537
34.533
34.529
34.523
34.517
34.512
34.505
34.499
34.492
34.485
34.479
34.473
34.467
34.461
34.454
34.446
34.438
34.43
34.421
34.412
34.403
34.395
34.386
34.378
34.37
34.362
34.356
34.349
34.343
34.336
34.33
34.322
34.313
34.302
34.289
34.276
34.261
34.245
34.23
34.218
34.208
34.202
34.199
34.199
34.201
34.206
34.213
34.224
34.239
34.261
34.29
34.33
34.382
34.447
34.526
34.619
34.725
34.843
34.973
35.112
35.258
35.409
35.562
35.715
35.864
36.008
36.145
36.272
36.388
36.491
36.58
36.653
36.71
36.752
36.779
36.794
36.797
36.789
36.772
36.748
36.718
36.684
36.645
36.604
36.561
36.516
36.471
36.427
36.383
36.341
36.302
36.265
36.231
36.199
36.168
36.14
36.114
36.089
36.065
36.042
36.02
35.999
35.979
35.96
35.943
35.927
35.913
35.901
35.892
35.886
35.882
35.88
35.878
35.875
35.871
35.864
35.854
35.841
35.824
35.805
35.782
35.757
35.729
35.701
35.674
35.647
35.623
35.604
35.59
35.583
35.583
35.59
35.602
35.619
35.64
35.662
35.684
35.705
35.724
35.74
35.751
35.759
35.762
35.761
35.758
35.753
35.748
35.742
35.736
35.73
35.723
