Trial 1:0back
42.534
42.48
42.413
42.337
42.252
42.159
42.06
41.955
41.846
41.734
41.619
41.502
41.383
41.263
41.143
41.023
40.903
40.784
40.666
40.549
40.432
40.315
40.197
40.078
39.957
39.834
39.708
39.58
39.449
39.316
39.182
39.047
38.911
38.775
38.639
38.503
38.37
38.239
38.112
37.989
37.873
37.763
37.659
37.563
37.473
37.391
37.314
37.243
37.177
37.115
37.059
37.007
36.961
36.921
36.888
36.861
36.84
36.824
36.81
36.796
36.782
36.767
36.749
36.729
36.706
36.68
36.651
36.619
36.584
36.546
36.505
36.461
36.414
36.366
36.315
36.261
36.205
36.146
36.083
36.018
35.95
35.879
35.806
35.731
35.653
35.573
35.49
35.405
35.317
35.229
35.139
35.048
34.958
34.87
34.784
34.702
34.624
34.551
34.481
34.416
34.353
34.291
34.229
34.167
34.103
34.038
33.971
33.903
33.835
33.767
33.701
33.638
33.577
33.519
33.465
33.416
33.37
33.327
33.285
33.244
33.204
33.162
33.118
33.072
33.022
32.969
32.913
32.854
32.792
32.731
32.67
32.61
32.554
32.501
32.451
32.405
32.364
32.326
32.291
32.26
32.232
32.205
32.18
32.155
32.13
32.105
32.08
32.054
32.029
32.005
31.982
31.962
31.943
31.927
31.913
31.901
31.891
31.882
31.874
31.866
31.857
31.845
31.829
31.81
31.786
31.757
31.725
31.69
31.652
31.614
31.577
31.541
31.508
31.479
31.452
31.429
31.41
31.392
31.377
31.363
31.351
31.338
31.326
31.315
31.307
31.302
31.306
31.322
31.353
31.405
31.483
31.593
31.74
31.926
32.157
32.432
32.754
33.121
33.531
33.983
34.471
34.989
35.532
36.092
36.661
37.233
37.8
38.355
38.893
39.407
39.893
40.349
40.772
41.16
41.514
41.832
42.116
42.363
42.576
42.752
42.894
43.003
43.081
43.13
43.151
43.148
43.122
43.076
43.013
42.934
42.843
42.743
42.636
42.523
42.408
42.291
42.174
42.058
41.942
41.828
41.716
41.604
41.494
41.384
41.273
41.162
41.049
40.935
40.821
40.705
40.589
40.471
40.349
40.224
40.095
39.961
39.824
39.682
39.536
39.389
39.24
39.092
38.944
38.799
38.657
38.519
38.387
38.262
38.145
38.035
37.935
37.843
37.76
37.686
37.618
37.558
37.503
37.453
37.408
37.365
37.326
37.289
37.255
37.225
37.198
37.174
37.153
37.134
37.117
37.101
37.084
37.066
37.045
37.022
36.998
36.974
36.948
36.92
36.888
36.852
36.81
36.762
36.707
36.645
36.577
36.502
36.421
36.337
36.25
36.162
36.075
35.988
35.903
35.82
35.738
35.656
35.575
35.493
35.412
35.329
35.246
35.162
35.079
34.996
34.914
34.834
34.756
34.68
34.608
34.538
34.472
34.407
34.343
34.279
34.214
34.148
34.081
34.012
33.942
33.871
33.8
33.729
33.66
33.593
33.529
33.469
33.412
33.358
33.308
33.262
33.217
33.174
33.131
33.089
33.047
33.004
32.959
32.913
32.864
32.815
32.766
32.717
32.669
32.623
32.578
32.535
32.494
32.455
32.417
32.381
32.346
32.31
32.276
32.241
32.208
32.174
32.142
32.109
32.077
32.046
32.017
31.989
31.963
31.941
31.921
31.905
31.891
31.879
31.87
31.862
31.855
31.848
31.84
31.831
31.82
31.807
31.791
31.773
31.752
31.728
31.703
31.676
31.647
31.618
31.589
31.561
31.535
31.511
31.489
31.47
31.453
31.439
31.425
31.414
31.404
31.395
31.387
31.381
31.379
31.383
31.397
31.423
31.467
31.533
31.626
31.752
31.914
32.117
32.363
32.654
32.991
33.374
33.801
34.267
34.768
35.298
35.849
36.417
36.992
37.569
38.139
38.696
39.234
39.747
40.231
40.681
41.094
41.47
41.807
42.105
42.364
42.586
42.77
42.92
43.035
43.117
43.169
43.191
43.188
43.161
43.114
43.049
42.968
42.875
42.771
42.661
42.544
42.423
42.301
42.178
42.055
41.933
41.811
41.69
41.569
41.449
41.33
41.21
41.092
40.975
40.86
40.746
40.633
40.519
40.404
40.288
40.169
40.048
39.924
39.796
39.666
39.533
39.398
39.259
39.118
38.974
38.83
38.685
38.542
38.402
38.269
38.144
38.029
37.923
37.829
37.746
37.673
37.609
37.551
37.501
37.455
37.414
37.376
37.34
37.305
37.272
37.24
37.209
37.18
37.153
37.127
37.102
37.078
37.053
37.028
37.002
36.974
36.945
36.915
36.882
36.846
36.807
36.762
36.713
36.658
36.599
36.535
36.468
36.398
36.326
36.253
36.18
36.106
36.033
35.96
35.888
35.814
35.741
35.666
35.591
35.513
35.434
35.352
35.268
35.183
35.097
35.01
34.925
34.841
34.759
34.68
34.606
34.537
34.471
34.409
34.35
34.293
34.238
34.183
34.127
34.07
34.012
33.953
33.892
33.83
33.769
33.71
33.653
33.599
33.548
33.5
33.456
33.415
33.377
33.341
33.306
33.271
33.236
33.201
33.165
33.128
33.09
33.051
33.011
32.97
32.93
32.891
32.854
32.819
32.785
32.753
32.722
32.694
32.666
32.64
32.614
32.59
32.565
32.54
32.515
32.491
32.467
32.442
32.418
32.394
32.37
32.347
32.324
32.302
32.28
32.258
32.237
32.216
32.195
32.174
32.153
32.13
32.105
32.079
32.051
32.021
31.989
31.957
31.923
31.887
31.851
31.814
31.777
31.741
31.708
31.678
31.655
31.639
31.636
31.648
31.679
31.734
31.816
31.93
32.079
32.266
32.495
32.765
33.078
33.432
33.824
34.253
34.713
35.201
35.711
36.236
36.771
37.311
37.848
38.377
38.892
39.386
39.855
40.293
40.697
41.064
41.392
41.679
41.926
42.133
42.301
42.433
42.531
42.596
42.632
42.643
42.631
42.599
42.549
42.484
42.405
42.314
42.213
42.103
41.984
41.858
41.727
41.593
41.459
41.325
41.194
41.066
40.941
40.82
40.701
40.585
40.472
40.359
40.245
40.13
40.011
39.887
39.756
39.615
39.464
39.301
39.13
38.951
38.769
38.587
38.408
38.235
38.07
37.917
37.775
37.647
37.532
37.428
37.336
37.253
37.177
37.109
37.048
36.993
36.944
36.9
36.862
36.829
36.8
36.775
36.754
36.734
36.717
36.701
36.684
36.668
36.651
36.633
36.613
36.592
36.569
36.546
36.52
36.491
36.459
36.425
36.387
36.347
36.305
36.262
36.217
36.17
36.122
36.071
36.018
35.963
35.905
35.845
35.781
35.713
35.642
35.567
35.488
35.405
35.319
35.231
35.142
35.052
34.963
34.876
34.792
34.711
34.634
34.56
34.489
34.42
34.351
34.283
34.214
34.144
34.072
34.0
33.928
33.854
33.781
33.708
33.637
33.568
33.501
33.438
33.379
33.322
33.269
33.217
33.167
33.118
33.069
33.02
32.969
32.917
32.863
32.807
32.75
32.693
32.636
32.581
32.528
32.479
32.433
32.392
32.354
32.32
32.29
32.263
32.24
32.219
32.198
32.179
32.159
32.138
32.117
32.094
32.071
32.047
32.023
31.998
31.973
31.949
31.926
31.905
31.886
31.869
31.855
31.843
31.832
31.823
31.813
31.802
31.787
31.769
31.747
31.719
31.687
31.65
31.609
31.566
31.52
31.476
31.433
31.394
31.362
31.339
31.325
31.325
31.34
31.373
31.428
31.509
31.618
31.759
31.935
32.149
32.403
32.697
33.033
33.409
33.823
34.273
34.754
35.263
35.794
36.34
36.896
37.454
38.008
38.551
39.077
39.582
40.059
40.506
40.918
41.293
41.629
41.925
42.181
42.397
42.575
42.714
42.818
42.887
42.926
42.936
42.921
42.884
42.826
42.752
42.663
42.564
42.456
42.34
42.218
42.093
41.964
41.836
41.709
41.586
41.467
41.353
41.244
41.139
41.038
40.939
40.841
40.741
40.641
40.538
40.431
40.321
40.205
40.083
39.953
39.817
39.674
39.525
39.371
39.213
39.054
38.895
38.737
38.582
38.432
38.285
38.145
38.01
37.882
37.761
37.646
37.537
37.435
37.34
37.253
37.175
37.104
37.042
36.987
36.939
36.897
36.86
36.826
36.796
36.767
36.741
36.715
36.689
36.662
36.635
36.607
36.579
36.55
36.519
36.487
36.453
36.418
36.38
36.34
36.298
36.253
36.206
36.156
36.103
36.047
35.987
35.925
35.859
35.789
35.716
35.639
35.559
35.476
35.39
35.302
35.214
35.125
35.038
34.952
34.868
34.787
34.709
34.635
34.563
34.494
34.426
34.358
34.29
34.222
34.153
34.083
34.012
33.94
33.869
33.798
33.728
33.659
33.593
33.528
33.464
33.4
33.336
33.271
33.205
33.139
33.072
33.005
32.939
32.872
32.806
32.743
32.681
32.623
32.568
32.518
32.473
32.434
32.399
32.369
32.342
32.317
32.293
32.27
32.245
32.219
32.191
32.161
32.131
32.098
32.065
32.032
31.998
31.965
31.932
31.9
31.87
31.841
31.816
31.795
31.777
31.764
31.754
31.747
31.742
31.739
31.735
31.73
31.723
31.713
31.699
31.682
31.661
31.638
31.612
31.584
31.556
31.527
31.498
31.471
31.445
31.421
31.397
31.374
31.352
31.33
31.308
31.283
31.256
31.227
31.197
31.167
31.138
31.112
31.089
31.072
31.063
31.065
31.082
31.116
31.171
31.251
31.36
31.504
31.687
31.913
32.185
32.504
32.87
33.283
33.739
34.234
34.76
35.312
35.883
36.467
37.055
37.639
38.212
38.767
39.298
39.804
40.281
40.727
41.14
41.518
41.861
42.167
42.436
42.668
42.863
43.021
43.144
43.234
43.293
43.323
43.327
43.307
43.264
43.201
43.12
43.025
42.918
42.803
42.681
42.555
42.427
42.296
42.166
42.035
41.906
41.778
41.651
41.527
41.407
41.29
41.178
41.07
40.965
40.863
40.761
40.659
40.556
40.449
40.337
40.22
40.097
39.966
39.828
39.682
39.528
39.367
39.202
39.034
38.864
38.697
38.533
38.374
38.222
38.078
37.943
37.816
37.699
37.589
37.488
37.395
37.31
37.232
37.161
37.096
37.038
36.986
36.94
36.899
36.862
36.829
36.799
36.771
36.745
36.718
36.69
36.66
36.628
36.594
36.556
36.515
36.471
36.422
36.369
36.312
36.25
36.184
36.116
36.048
35.98
35.913
35.847
35.782
35.717
35.653
35.587
35.519
35.449
35.376
35.3
35.22
35.136
35.049
34.957
34.864
34.769
34.675
34.583
34.493
34.408
34.327
34.25
34.178
34.11
34.044
33.98
33.917
33.853
33.788
33.721
33.652
33.581
33.507
33.432
33.356
33.279
33.202
33.127
33.055
32.985
32.919
32.857
32.799
32.744
32.692
32.643
32.595
32.548
32.502
32.457
32.412
32.368
32.324
32.281
32.238
32.196
32.155
32.114
32.075
32.036
32.0
31.965
31.932
31.902
31.873
31.845
31.818
31.792
31.766
31.741
31.716
31.692
31.667
31.644
31.621
31.6
31.582
31.565
31.55
31.536
31.523
31.51
31.497
31.484
31.469
31.454
31.436
31.416
31.395
31.372
31.349
31.324
31.298
31.272
31.246
31.22
31.195
31.171
31.148
31.126
31.105
31.084
31.062
31.041
31.018
30.995
30.971
30.946
30.92
30.893
30.865
30.836
30.807
30.778
30.75
30.723
30.698
30.678
30.664
30.659
30.665
30.686
30.725
30.787
30.875
30.995
31.15
31.343
31.578
31.857
32.181
32.548
32.959
33.41
33.898
34.42
34.97
35.541
36.127
36.72
37.314
37.901
38.476
39.031
39.563
40.065
40.535
40.968
41.362
41.715
42.024
42.29
42.511
42.689
42.826
42.924
42.988
43.02
43.023
43.001
42.956
42.892
42.812
42.718
42.613
42.501
42.383
42.26
42.135
42.006
41.876
41.743
41.609
41.475
41.341
41.21
41.082
40.958
40.839
40.724
40.613
40.503
40.395
40.286
40.176
40.063
39.947
39.827
39.702
39.572
39.435
39.293
39.146
38.995
38.841
38.686
38.531
38.379
38.231
38.089
37.954
37.829
37.712
37.606
37.509
37.421
37.34
37.266
37.197
37.132
37.072
37.016
36.966
36.921
36.881
36.847
36.817
36.792
36.77
36.751
36.733
36.715
36.696
36.676
36.653
36.626
36.595
36.559
36.519
36.474
36.427
36.378
36.327
36.276
36.223
36.17
36.117
36.062
36.007
35.949
35.889
35.827
35.762
35.694
35.623
35.549
35.473
35.395
35.314
35.232
35.147
35.06
34.972
34.882
34.791
34.699
34.608
34.518
34.431
34.347
34.267
34.19
34.116
34.046
33.978
33.913
33.85
33.788
33.725
33.662
33.597
33.53
33.464
33.397
33.331
33.266
33.202
33.142
33.084
33.03
32.979
32.931
32.884
32.839
32.795
32.751
32.706
32.661
32.615
32.568
32.521
32.472
32.423
32.372
32.321
32.271
32.224
32.186
32.154
32.124
32.093
32.061
32.028
31.993
31.958
31.923
31.889
31.857
31.827
31.798
31.772
31.746
31.723
31.701
31.68
31.662
31.645
31.63
31.617
31.606
31.596
31.586
31.576
31.566
31.553
31.538
31.52
31.498
31.472
31.442
31.408
31.37
31.328
31.283
31.236
31.189
31.143
31.1
31.061
31.028
31.002
30.985
30.979
30.989
31.017
31.067
31.142
31.246
31.385
31.56
31.776
32.034
32.335
32.679
33.065
33.491
33.955
34.453
34.979
35.528
36.093
36.667
37.243
37.812
38.368
38.903
39.412
39.889
40.331
40.733
41.095
41.415
41.693
41.929
42.124
42.28
42.398
42.482
42.536
42.563
42.566
42.547
42.509
42.455
42.387
42.304
42.209
42.104
41.989
41.868
41.741
41.608
41.472
41.333
41.192
41.051
40.909
40.768
40.629
40.492
40.359
40.229
40.103
39.98
39.86
39.74
39.62
39.497
39.372
39.242
39.11
38.973
38.834
38.693
38.551
38.408
38.264
38.12
37.977
37.836
37.697
37.56
37.428
37.301
37.181
37.067
36.96
36.861
36.771
36.689
36.617
36.554
36.5
36.454
36.415
36.381
36.352
36.326
36.303
36.282
36.261
36.241
36.222
36.203
36.184
36.164
36.143
36.119
36.092
36.061
36.027
35.988
35.946
35.899
35.849
35.796
35.74
35.683
35.624
35.562
35.5
35.435
35.368
35.297
35.224
35.146
35.066
34.982
34.896
34.808
34.719
34.631
34.545
34.461
34.379
34.3
34.224
34.15
34.076
34.004
33.931
33.857
33.781
33.705
33.626
33.545
33.463
33.379
33.296
33.212
33.131
33.052
32.978
32.907
32.841
32.78
32.724
32.673
32.626
32.58
32.536
32.491
32.446
32.399
32.35
32.298
32.244
32.187
32.128
32.067
32.005
31.943
31.883
31.824
31.769
31.718
31.672
31.632
31.598
31.571
31.549
31.532
31.518
31.506
31.494
31.481
31.466
31.447
31.424
31.398
31.369
31.338
31.307
31.277
31.248
31.222
31.2
31.181
31.165
31.153
31.144
31.136
31.131
31.126
31.12
31.113
31.103
31.089
31.072
31.049
31.023
30.992
30.959
30.923
30.885
30.848
30.811
30.775
30.741
30.71
30.682
30.656
30.633
30.613
30.597
30.584
30.577
30.579
30.591
30.616
30.66
30.726
30.82
30.944
31.104
31.304
31.548
31.838
32.177
32.565
33.0
33.481
34.002
34.558
35.143
35.748
36.366
36.988
37.605
38.21
38.794
39.352
39.877
40.366
40.817
41.226
41.593
41.916
42.198
42.437
42.638
42.8
42.927
43.021
43.084
43.117
43.125
43.108
43.068
43.008
42.931
42.838
42.733
42.618
42.496
42.369
42.237
42.104
41.969
41.835
41.703
41.572
41.444
41.319
41.197
41.078
40.961
40.845
40.73
40.614
40.496
40.376
40.256
40.133
40.01
39.884
39.756
39.626
39.492
39.355
39.213
39.066
38.914
38.758
38.598
38.434
38.269
38.103
37.94
37.783
37.634
37.494
37.366
37.25
37.146
37.051
36.964
36.883
36.813
36.753
36.704
36.664
36.632
36.606
36.584
36.564
36.546
36.526
36.504
36.479
36.45
36.418
36.383
36.345
36.305
36.262
36.216
36.169
36.119
36.068
36.016
35.962
35.907
35.848
35.787
35.721
35.652
35.578
35.501
35.421
35.338
35.254
35.168
35.082
34.995
34.909
34.824
34.74
34.657
34.576
34.496
34.417
34.34
34.264
34.187
34.11
34.032
33.953
33.876
33.801
33.727
33.657
33.59
33.527
33.466
33.407
33.349
33.292
33.233
33.172
33.109
33.043
32.973
32.901
32.827
32.751
32.675
32.6
32.528
32.461
32.398
32.34
32.288
32.24
32.196
32.156
32.118
32.082
32.045
32.007
31.967
31.924
31.878
31.83
31.779
31.724
31.667
31.608
31.548
31.49
31.434
31.381
31.334
31.292
31.257
31.229
31.208
31.193
31.183
31.178
31.175
31.172
31.168
31.162
31.153
31.139
31.12
31.097
31.068
31.036
31.0
30.963
30.926
30.89
30.857
30.826
30.8
30.778
30.76
30.748
30.741
30.739
30.74
30.744
30.748
30.752
30.755
30.756
30.753
30.746
30.734
30.718
30.697
30.673
30.645
30.614
30.582
30.55
30.517
30.486
30.456
30.429
30.403
30.379
30.358
30.337
30.318
30.299
30.28
30.26
30.239
30.216
30.193
30.169
30.148
30.131
30.121
30.124
30.146
30.191
30.266
30.378
30.531
30.73
30.978
31.276
31.626
32.027
32.476
32.968
33.5
34.064
34.653
35.26
35.877
36.497
37.114
37.721
38.314
38.886
39.434
39.953
40.438
40.886
41.295
41.662
41.988
42.272
42.515
42.719
42.884
43.012
43.106
43.167
43.198
43.201
43.18
43.136
43.075
42.998
42.908
42.808
42.7
42.584
42.463
42.337
42.208
42.076
41.943
41.809
41.676
41.545
41.415
41.288
41.164
41.043
40.926
40.813
40.702
40.594
40.486
40.376
40.263
40.145
40.02
39.889
39.75
39.604
39.451
39.294
39.132
38.968
38.802
38.638
38.476
38.317
38.163
38.015
37.872
37.736
37.608
37.487
37.373
37.267
37.169
37.078
36.995
36.919
36.85
36.788
36.732
36.681
36.634
36.592
36.554
36.52
36.489
36.461
36.434
36.407
36.379
36.349
36.314
36.276
36.234
36.189
36.141
36.092
36.041
35.989
35.937
35.883
35.83
35.778
35.725
35.672
35.617
35.559
35.497
35.43
35.359
35.282
35.199
35.112
35.019
34.923
34.822
34.719
34.615
34.511
34.409
34.309
34.213
34.122
34.035
33.953
33.875
33.8
33.728
33.658
33.589
33.52
33.451
33.383
33.315
33.248
33.18
33.113
33.046
32.978
32.911
32.842
32.773
32.704
32.634
32.564
32.495
32.427
32.361
32.297
32.235
32.175
32.118
32.062
32.009
31.958
31.911
31.867
31.825
31.785
31.746
31.707
31.667
31.626
31.584
31.54
31.496
31.452
31.408
31.365
31.324
31.284
31.245
31.208
31.172
31.138
31.107
31.077
31.051
31.027
31.005
30.984
30.963
30.943
30.922
30.9
30.876
30.85
30.823
30.793
30.759
30.718
30.667
30.605
30.536
30.463
30.39
30.322
30.262
30.212
30.173
30.146
30.131
30.127
30.133
30.148
30.17
30.195
30.223
30.252
30.278
30.302
30.321
30.336
30.345
30.347
30.342
30.328
30.307
30.28
30.247
30.209
30.169
30.126
30.083
30.041
30.001
29.964
29.931
29.903
29.879
29.86
29.845
29.833
29.823
29.816
29.813
29.815
29.821
29.836
29.861
29.902
29.964
30.051
30.168
30.321
30.512
30.746
31.025
31.35
31.721
32.136
32.594
33.09
33.619
34.174
34.748
35.333
35.921
36.505
37.076
37.628
38.155
38.653
39.117
39.545
39.934
40.284
40.594
40.864
41.095
41.289
41.446
41.57
41.663
41.727
41.765
41.779
41.769
41.739
41.691
41.625
41.545
41.452
41.348
41.236
41.117
40.993
40.865
40.736
40.604
40.473
40.342
40.213
40.086
39.961
39.838
39.717
39.598
39.48
39.363
39.245
39.128
39.01
38.891
38.771
38.651
38.53
38.408
38.286
38.162
38.037
37.909
37.778
37.645
37.509
37.373
37.236
37.101
36.97
36.843
36.724
36.613
36.513
36.424
36.346
36.28
36.224
36.178
36.14
36.11
36.084
36.063
36.044
36.027
36.011
35.995
35.98
35.964
35.947
35.929
35.91
35.89
35.869
35.846
35.821
35.794
35.764
35.732
35.698
35.66
35.62
35.577
35.531
35.483
35.431
35.376
35.317
35.253
35.184
35.11
35.031
34.95
34.866
34.783
34.699
34.617
34.537
34.46
34.386
34.316
34.249
34.185
34.123
34.062
34.001
33.939
33.876
33.811
33.743
33.672
33.598
33.522
33.445
33.368
33.293
33.22
33.15
33.084
33.021
32.962
32.905
32.85
32.796
32.743
32.689
32.634
32.577
32.518
32.457
32.395
32.331
32.268
32.205
32.145
32.087
32.033
31.983
31.937
31.896
31.858
31.824
31.793
31.763
31.734
31.705
31.675
31.645
31.613
31.58
31.546
31.512
31.478
31.444
31.412
31.383
31.356
31.333
31.314
31.299
31.287
31.279
31.274
31.271
31.27
31.267
31.264
31.257
31.248
31.235
31.218
31.197
31.173
31.145
31.114
31.081
31.047
31.013
30.978
30.943
30.911
30.88
30.852
30.827
30.805
30.785
30.767
30.75
30.734
30.718
30.701
30.685
30.668
30.655
30.645
30.643
30.652
30.678
30.726
30.801
30.907
31.048
31.229
31.451
31.716
32.025
32.377
32.768
33.196
33.656
34.141
34.645
35.162
35.685
36.21
36.729
37.238
37.732
38.207
38.66
39.089
39.489
39.858
40.194
40.495
40.76
40.99
41.183
41.342
41.468
41.561
41.626
41.662
41.673
41.661
41.627
41.576
41.508
41.428
41.338
41.241
41.138
41.032
40.922
40.809
40.693
40.574
40.451
40.326
40.2
40.074
39.948
39.825
39.704
39.585
