Trial 1:0back
35.152
35.101
35.051
35.001
34.951
34.901
34.851
34.801
34.751
34.702
34.655
34.608
34.561
34.517
34.474
34.436
34.402
34.373
34.349
34.331
34.317
34.306
34.298
34.291
34.285
34.279
34.274
34.267
34.26
34.252
34.242
34.231
34.219
34.208
34.198
34.189
34.181
34.173
34.166
34.159
34.151
34.143
34.133
34.122
34.11
34.098
34.085
34.071
34.057
34.043
34.029
34.016
34.003
33.99
33.977
33.964
33.952
33.941
33.931
33.922
33.914
33.906
33.897
33.888
33.878
33.867
33.856
33.845
33.834
33.823
33.812
33.801
33.791
33.781
33.773
33.765
33.757
33.749
33.74
33.728
33.715
33.7
33.68
33.658
33.633
33.606
33.579
33.55
33.521
33.493
33.464
33.435
33.407
33.378
33.35
33.322
33.296
33.269
33.243
33.217
33.192
33.167
33.144
33.121
33.099
33.078
33.058
33.04
33.025
33.012
33.002
32.995
32.993
32.997
33.008
33.03
33.066
33.122
33.199
33.302
33.435
33.6
33.798
34.031
34.296
34.592
34.915
35.259
35.62
35.99
36.362
36.73
37.088
37.429
37.748
38.04
38.303
38.534
38.733
38.898
39.031
39.133
39.206
39.254
39.279
39.282
39.268
39.237
39.195
39.144
39.086
39.025
38.962
38.898
38.835
38.774
38.715
38.658
38.604
38.551
38.499
38.448
38.398
38.345
38.29
38.233
38.173
38.112
38.049
37.983
37.914
37.843
37.771
37.697
37.621
37.544
37.466
37.388
37.311
37.235
37.161
37.087
37.013
36.941
36.87
36.8
36.733
36.669
36.609
36.554
36.504
36.462
36.427
36.401
36.384
36.377
36.38
36.391
36.412
36.44
36.474
36.515
36.562
36.613
36.669
36.727
36.786
36.844
36.901
36.954
37.003
37.047
37.084
37.114
37.136
37.152
37.159
37.159
37.15
37.135
37.112
37.082
37.045
37.003
36.957
36.907
36.854
36.8
36.744
36.687
36.629
36.571
36.512
36.453
36.396
36.339
36.283
36.226
36.169
36.111
36.052
35.992
35.932
35.871
35.81
35.749
35.687
35.626
35.566
35.507
35.449
35.394
35.34
35.289
35.24
35.194
35.15
35.108
35.067
35.027
34.987
34.947
34.908
34.868
34.827
34.788
34.749
34.712
34.677
34.645
34.616
34.591
34.57
34.553
34.538
34.527
34.519
34.513
34.508
34.505
34.503
34.5
34.495
34.49
34.482
34.471
34.459
34.445
34.431
34.417
34.403
34.388
34.372
34.356
34.34
34.323
34.307
34.289
34.272
34.255
34.237
34.219
34.201
34.183
34.166
34.15
34.135
34.121
34.108
34.095
34.083
34.071
34.059
34.048
34.036
34.024
34.011
33.998
33.984
33.97
33.955
33.941
33.927
33.914
33.901
33.888
33.873
33.856
33.837
33.816
33.792
33.766
33.737
33.706
33.673
33.638
33.6
33.558
33.512
33.465
33.418
33.371
33.327
33.286
33.249
33.217
33.189
33.165
33.147
33.135
33.127
33.125
33.127
33.136
33.152
33.175
33.208
33.255
33.318
33.402
33.512
33.651
33.822
34.029
34.271
34.549
34.86
35.201
35.567
35.954
36.354
36.76
37.164
37.559
37.939
38.298
38.631
38.935
39.206
39.444
39.649
39.82
39.959
40.068
40.149
40.204
40.237
40.249
40.244
40.226
40.196
40.157
40.111
40.059
40.002
39.942
39.878
39.812
39.745
39.676
39.607
39.539
39.472
39.407
39.345
39.286
39.23
39.176
39.126
39.079
39.036
38.996
38.961
38.928
38.898
38.87
38.842
38.815
38.786
38.755
38.721
38.684
38.644
38.6
38.552
38.501
38.445
38.386
38.324
38.259
38.193
38.126
38.059
37.994
37.932
37.874
37.821
37.773
37.731
37.696
37.668
37.648
37.635
37.629
37.628
37.632
37.64
37.652
37.667
37.685
37.704
37.724
37.744
37.762
37.778
37.791
37.799
37.802
37.799
37.791
37.777
37.758
37.733
37.704
37.67
37.633
37.592
37.548
37.501
37.453
37.403
37.352
37.299
37.247
37.193
37.14
37.086
37.032
36.978
36.923
36.866
36.809
36.75
36.691
36.632
36.572
36.511
36.449
36.386
36.323
36.258
36.193
36.128
36.063
35.999
35.935
35.871
35.808
35.747
35.687
35.63
35.575
35.521
35.469
35.418
35.369
35.322
35.276
35.233
35.191
35.151
35.112
35.073
35.035
34.997
34.96
34.923
34.886
34.852
34.82
34.79
34.763
34.739
34.716
34.694
34.675
34.657
34.642
34.627
34.615
34.602
34.589
34.575
34.559
34.54
34.52
34.497
34.472
34.446
34.419
34.391
34.364
34.336
34.309
34.283
34.258
34.234
34.209
34.185
34.161
34.137
34.113
34.087
34.06
34.031
34.001
33.971
33.941
33.91
33.88
33.85
33.82
33.791
33.764
33.737
33.712
33.687
33.662
33.638
33.613
33.588
33.563
33.536
33.508
33.478
33.446
33.414
33.382
33.351
33.321
33.293
33.266
33.239
33.214
33.188
33.162
33.136
33.109
33.081
33.053
33.023
32.992
32.954
32.908
32.854
32.794
32.731
32.667
32.605
32.548
32.498
32.456
32.421
32.395
32.377
32.367
32.363
32.366
32.375
32.39
32.408
32.431
32.458
32.49
32.529
32.578
32.641
32.723
32.827
32.958
33.12
33.316
33.547
33.814
34.116
34.449
34.81
35.193
35.593
36.002
36.415
36.823
37.221
37.602
37.963
38.298
38.605
38.879
39.121
39.33
39.507
39.651
39.765
39.85
39.908
39.94
39.949
39.938
39.911
39.869
39.816
39.754
39.685
39.613
39.538
39.464
39.392
39.323
39.257
39.193
39.133
39.076
39.022
38.971
38.921
38.875
38.83
38.787
38.746
38.707
38.67
38.635
38.602
38.571
38.54
38.509
38.477
38.445
38.412
38.377
38.34
38.3
38.256
38.209
38.157
38.101
38.041
37.978
37.913
37.847
37.781
37.717
37.654
37.595
37.539
37.488
37.441
37.399
37.362
37.332
37.309
37.293
37.284
37.283
37.289
37.3
37.317
37.336
37.357
37.378
37.398
37.415
37.428
37.437
37.44
37.439
37.432
37.421
37.405
37.384
37.359
37.331
37.299
37.264
37.227
37.189
37.149
37.11
37.072
37.035
36.996
36.955
36.912
36.867
36.818
36.764
36.707
36.645
36.58
36.512
36.441
36.367
36.293
36.218
36.144
36.07
35.998
35.928
35.861
35.797
35.737
35.679
35.624
35.571
35.52
35.47
35.422
35.374
35.327
35.28
35.233
35.187
35.141
35.094
35.048
35.002
34.958
34.914
34.872
34.831
34.791
34.752
34.715
34.68
34.648
34.619
34.591
34.564
34.537
34.511
34.485
34.46
34.437
34.415
34.396
34.378
34.36
34.344
34.327
34.311
34.296
34.281
34.265
34.249
34.233
34.216
34.198
34.179
34.159
34.139
34.119
34.098
34.078
34.056
34.034
34.011
33.987
33.962
33.937
33.911
33.885
33.86
33.835
33.812
33.79
33.77
33.751
33.733
33.717
33.702
33.687
33.67
33.653
33.633
33.611
33.586
33.56
33.532
33.505
33.477
33.449
33.423
33.397
33.372
33.347
33.323
33.298
33.274
33.249
33.223
33.197
33.169
33.139
33.107
33.074
33.039
33.004
32.97
32.937
32.907
32.88
32.857
32.838
32.822
32.811
32.805
32.803
32.807
32.818
32.835
32.862
32.9
32.951
33.018
33.106
33.218
33.358
33.529
33.733
33.97
34.24
34.542
34.871
35.222
35.591
35.972
36.357
36.74
37.114
37.474
37.815
38.133
38.424
38.687
38.919
39.119
39.288
39.428
39.538
39.62
39.675
39.706
39.715
39.706
39.681
39.643
39.596
39.541
39.48
39.417
39.352
39.286
39.221
39.155
39.091
39.028
38.965
38.904
38.842
38.782
38.723
38.665
38.608
38.553
38.498
38.444
38.389
38.335
38.28
38.224
38.168
38.112
38.059
38.008
37.961
37.915
37.871
37.827
37.781
37.733
37.681
37.626
37.569
37.509
37.45
37.391
37.334
37.281
37.233
37.19
37.154
37.125
37.102
37.086
37.078
37.078
37.084
37.097
37.116
37.14
37.167
37.197
37.227
37.256
37.285
37.313
37.338
37.361
37.38
37.395
37.406
37.412
37.413
37.409
37.4
37.385
37.364
37.337
37.304
37.266
37.222
37.175
37.126
37.076
37.023
36.97
36.914
36.858
36.801
36.744
36.686
36.629
36.571
36.512
36.451
36.389
36.324
36.258
36.19
36.121
36.051
35.981
35.911
35.84
35.768
35.697
35.626
35.555
35.486
35.417
35.351
35.287
35.226
35.17
35.119
35.072
35.031
34.993
34.958
34.925
34.895
34.868
34.842
34.817
34.794
34.771
34.75
34.728
34.705
34.682
34.659
34.635
34.611
34.587
34.565
34.544
34.526
34.509
34.494
34.481
34.47
34.46
34.451
34.444
34.437
34.428
34.419
34.409
34.398
34.385
34.371
34.355
34.337
34.317
34.296
34.274
34.251
34.227
34.202
34.175
34.146
34.115
34.082
34.047
34.011
33.975
33.938
33.903
33.869
33.836
33.805
33.775
33.747
33.721
33.697
33.676
33.658
33.643
33.628
33.615
33.603
33.591
33.579
33.568
33.556
33.544
33.531
33.519
33.505
33.491
33.475
33.456
33.436
33.414
33.389
33.363
33.334
33.303
33.267
33.229
33.187
33.141
33.094
33.044
32.995
32.945
32.897
32.851
32.807
32.766
32.729
32.695
32.666
32.641
32.621
32.607
32.598
32.595
32.602
32.62
32.653
32.705
32.781
32.887
33.025
33.2
33.414
33.668
33.961
34.291
34.654
35.045
35.458
35.885
36.32
36.755
37.181
37.593
37.983
38.347
38.68
38.98
39.243
39.469
39.658
39.812
39.932
40.02
40.08
40.115
40.127
40.121
40.098
40.063
40.018
39.964
39.903
39.837
39.768
39.697
39.625
39.554
39.485
39.418
39.353
39.292
39.233
39.177
39.124
39.074
39.026
38.982
38.94
38.9
38.862
38.826
38.793
38.761
38.73
38.7
38.671
38.643
38.614
38.584
38.551
38.514
38.475
38.432
38.386
38.336
38.282
38.227
38.169
38.109
38.048
37.987
37.927
37.869
37.813
37.762
37.715
37.673
37.635
37.603
37.575
37.551
37.53
37.513
37.499
37.488
37.479
37.474
37.47
37.468
37.467
37.465
37.462
37.457
37.45
37.44
37.427
37.412
37.394
37.373
37.349
37.322
37.291
37.258
37.222
37.183
37.14
37.094
37.043
36.989
36.932
36.872
36.81
36.746
36.681
36.615
36.547
36.478
36.409
36.339
36.269
36.198
36.127
36.057
35.988
35.92
35.853
35.786
35.719
35.652
35.584
35.515
35.444
35.374
35.304
35.234
35.167
35.102
35.039
34.98
34.923
34.869
34.819
34.772
34.727
34.685
34.645
34.607
34.569
34.531
34.493
34.457
34.421
34.386
34.351
34.316
34.28
34.245
34.211
34.178
34.146
34.116
34.088
34.061
34.034
34.007
33.98
33.953
33.927
33.902
33.877
33.853
33.829
33.806
33.785
33.765
33.745
33.727
33.71
33.693
33.676
33.658
33.64
33.621
33.601
33.58
33.558
33.535
33.511
33.485
33.457
33.428
33.398
33.366
33.334
33.301
33.268
33.236
33.204
33.172
33.141
33.108
33.074
33.038
33.002
32.966
32.932
32.9
32.871
32.846
32.823
32.802
32.785
32.769
32.755
32.743
32.731
32.72
32.708
32.697
32.684
32.67
32.655
32.638
32.618
32.597
32.575
32.553
32.531
32.508
32.486
32.462
32.439
32.415
32.39
32.366
32.341
32.317
32.292
32.267
32.242
32.216
32.191
32.165
32.141
32.117
32.096
32.077
32.06
32.044
32.029
32.016
32.005
31.997
31.993
31.995
32.005
32.026
32.059
32.11
32.183
32.283
32.413
32.58
32.785
33.031
33.317
33.64
33.997
34.381
34.787
35.207
35.634
36.059
36.476
36.878
37.258
37.612
37.937
38.231
38.489
38.713
38.901
39.055
39.176
39.266
39.328
39.365
39.38
39.375
39.354
39.32
39.274
39.22
39.157
39.089
39.016
38.939
38.861
38.78
38.699
38.619
38.539
38.461
38.385
38.312
38.241
38.174
38.109
38.048
37.99
37.935
37.882
37.833
37.787
37.744
37.703
37.664
37.626
37.588
37.551
37.511
37.469
37.424
37.376
37.325
37.272
37.217
37.16
37.102
37.042
36.982
36.922
36.863
36.807
36.754
36.706
36.663
36.628
36.6
36.581
36.571
36.569
36.575
36.588
36.607
36.632
36.66
36.69
36.721
36.752
36.781
36.808
36.831
36.851
36.866
36.877
36.883
36.884
36.88
36.872
36.86
36.845
36.826
36.806
36.783
36.757
36.73
36.699
36.665
36.628
36.588
36.545
36.498
36.447
36.393
36.335
36.274
36.21
36.144
36.076
36.007
35.938
35.869
35.799
35.73
35.663
35.598
35.534
35.472
35.411
35.352
35.294
35.237
35.182
35.128
35.075
35.022
34.969
34.914
34.859
34.804
34.75
34.696
34.645
34.597
34.553
34.512
34.475
34.441
34.41
34.38
34.353
34.326
34.301
34.277
34.255
34.234
34.216
34.199
34.184
34.171
34.157
34.145
34.131
34.117
34.103
34.09
34.076
34.063
34.051
34.038
34.026
34.013
34.0
33.985
33.969
33.952
33.934
33.916
33.897
33.878
33.858
33.838
33.817
33.796
33.776
33.756
33.736
33.718
33.701
33.685
33.669
33.652
33.633
33.611
33.587
33.561
33.533
33.503
33.472
33.442
33.413
33.386
33.361
33.339
33.32
33.303
33.288
33.274
33.26
33.244
33.226
33.204
33.179
33.151
33.12
33.087
33.051
33.016
32.98
32.944
32.908
32.872
32.836
32.8
32.763
32.726
32.691
32.658
32.627
32.599
32.573
32.552
32.535
32.522
32.515
32.516
32.524
32.542
32.571
32.613
32.674
32.755
32.86
32.995
33.164
33.368
33.61
33.889
34.203
34.549
34.921
35.314
35.723
36.139
36.556
36.966
37.363
37.742
38.097
38.422
38.712
38.964
39.179
39.358
39.502
39.614
39.698
39.757
39.793
39.808
39.808
39.793
39.766
39.729
39.683
39.629
39.568
39.501
39.43
39.355
39.278
39.2
39.122
39.044
38.968
38.895
38.825
38.76
38.701
38.646
38.597
38.554
38.514
38.479
38.448
38.42
38.394
38.37
38.347
38.323
38.297
38.268
38.235
38.197
38.153
38.104
38.05
37.99
37.925
37.856
37.784
37.712
37.641
37.572
37.508
37.448
37.395
37.348
37.309
37.276
37.25
37.231
37.217
37.21
37.208
37.211
37.219
37.23
37.243
37.259
37.274
37.288
37.3
37.308
37.314
37.317
37.317
37.314
37.308
37.3
37.29
37.278
37.262
37.244
37.223
37.198
37.171
37.141
37.108
37.071
37.032
36.989
36.944
36.894
36.84
36.783
36.721
36.657
36.59
36.519
36.448
36.375
36.303
36.231
36.161
36.092
36.024
35.958
35.894
35.832
35.773
35.715
35.659
35.603
35.547
35.491
35.433
35.374
35.313
35.252
35.189
35.127
35.065
35.003
34.942
34.882
34.823
34.766
34.711
34.657
34.604
34.55
34.495
34.44
34.387
34.336
34.289
34.246
34.207
34.171
34.139
34.11
34.085
34.063
34.044
34.027
34.012
33.998
33.985
33.972
33.959
33.945
33.929
33.913
33.897
33.879
33.859
33.838
33.816
33.792
33.766
33.74
33.714
33.687
33.661
33.636
33.611
33.586
33.561
33.537
33.513
33.488
33.464
33.441
33.417
33.394
33.37
33.347
33.324
33.3
33.276
33.252
33.227
33.201
33.174
33.146
33.117
33.087
33.056
33.024
32.991
32.958
32.924
32.889
32.852
32.814
32.774
32.732
32.691
32.65
32.61
32.572
32.537
32.505
32.476
32.45
32.427
32.407
32.39
32.374
32.36
32.347
32.335
32.322
32.309
32.295
32.279
32.262
32.243
32.222
32.199
32.174
32.147
32.118
32.086
32.051
32.015
31.978
31.94
31.903
31.866
31.831
31.798
31.767
31.738
31.712
31.69
31.67
31.655
31.643
31.635
31.631
31.631
31.636
31.648
31.668
31.699
31.744
31.807
31.891
32.002
32.145
32.323
32.541
32.801
33.104
33.446
33.826
34.236
34.669
35.119
35.578
36.035
36.484
36.914
37.319
37.692
38.032
38.333
38.596
38.818
39.001
39.147
39.259
39.339
39.391
39.418
39.423
39.409
39.38
39.338
39.285
39.223
39.155
39.083
39.007
38.929
38.85
38.77
38.691
38.613
38.535
38.459
38.383
38.309
38.238
38.169
38.103
38.041
37.984
37.933
37.887
37.847
37.812
37.781
37.754
37.731
37.709
37.688
37.665
37.641
37.613
37.583
37.549
37.513
37.472
37.428
37.381
37.329
37.274
37.216
37.156
37.095
37.033
36.972
36.912
36.854
36.799
36.749
36.705
36.669
36.641
36.621
36.609
36.606
36.611
36.622
36.641
36.664
36.689
36.717
36.744
36.771
36.795
36.818
36.836
36.851
36.862
36.869
36.873
36.874
36.873
36.868
36.86
36.847
36.828
36.803
36.772
36.733
36.689
36.639
36.585
36.526
36.465
36.402
36.336
36.27
36.202
36.135
36.067
36.0
35.933
35.867
35.803
35.74
35.678
35.617
35.558
35.5
35.443
35.386
35.33
35.275
35.221
35.168
35.117
35.066
35.016
34.968
34.922
34.879
34.837
34.797
34.759
34.723
34.689
34.656
34.625
34.594
34.563
34.533
34.502
34.473
34.444
34.416
34.388
34.362
34.338
34.315
34.295
34.276
34.26
34.247
34.236
34.228
34.223
34.22
34.22
34.221
34.222
34.223
34.224
34.224
34.224
34.222
34.22
34.217
34.214
34.212
34.21
34.21
34.21
34.212
34.214
34.218
34.223
34.229
34.235
34.242
34.249
34.255
34.26
34.263
34.263
34.262
34.26
34.256
34.253
34.25
34.247
34.245
34.243
34.242
34.242
34.244
34.25
34.266
34.291
34.324
34.36
34.396
34.426
34.448
34.46
34.459
34.446
34.421
34.384
34.339
34.288
34.233
34.176
34.12
34.066
34.014
33.967
33.923
33.884
33.85
33.82
33.795
33.773
33.755
33.741
33.73
33.723
33.718
33.717
33.718
33.723
33.732
33.745
33.763
33.787
33.819
33.861
33.917
33.99
34.085
34.206
34.358
34.543
34.763
35.017
35.305
35.625
35.972
36.341
36.727
37.122
37.519
37.913
38.294
38.658
39.0
39.314
39.596
39.843
40.05
40.219
40.349
40.441
40.499
40.523
40.518
40.487
40.433
40.362
40.275
40.178
40.072
39.96
39.844
39.725
39.606
39.488
39.371
39.257
39.146
39.039
38.938
38.841
38.75
38.666
38.587
38.514
38.446
38.382
38.323
38.268
38.218
38.171
38.128
38.087
38.046
38.006
37.964
37.92
37.872
37.82
37.764
37.702
37.634
37.562
37.486
37.407
37.326
37.245
37.162
37.081
37.001
36.923
36.85
36.781
36.718
36.661
36.611
36.569
36.537
36.513
36.497
36.488
36.486
36.49
36.499
36.512
36.527
36.546
36.566
36.589
36.613
36.638
36.664
36.688
36.711
36.731
36.748
36.761
36.77
36.776
36.777
36.773
36.764
36.75
36.729
36.703
36.668
36.626
36.576
36.52
36.458
36.391
36.321
36.249
36.174
36.098
36.02
35.94
35.859
35.777
35.693
35.609
35.523
35.437
35.35
35.262
35.173
35.084
34.995
34.906
34.818
34.732
34.649
34.57
34.494
34.422
34.356
34.293
34.235
34.18
34.127
34.076
34.027
33.978
33.931
33.884
33.837
33.791
33.745
33.701
33.658
33.616
33.575
33.534
33.492
33.45
33.406
33.361
33.314
33.264
33.213
33.162
33.111
33.062
33.013
32.967
32.923
32.882
32.844
32.811
32.781
32.754
32.731
32.71
32.691
32.675
32.66
32.647
32.636
32.626
32.617
32.608
32.6
32.591
32.583
32.575
32.565
32.555
32.542
32.529
32.514
32.497
32.48
32.462
32.443
32.425
32.406
32.388
32.372
32.356
32.34
32.325
32.311
32.297
32.283
32.267
32.25
32.232
32.213
32.191
32.167
32.142
32.117
32.093
32.07
32.048
32.029
32.013
31.998
31.986
31.975
31.965
31.955
31.947
31.939
31.931
31.925
31.918
31.911
31.902
31.891
31.878
31.861
31.841
31.818
31.791
31.761
31.727
31.691
31.653
31.614
31.574
31.535
31.496
31.46
31.426
31.397
31.369
31.344
31.322
31.302
31.283
31.266
31.251
31.239
31.231
31.228
31.231
31.243
31.264
31.297
31.346
31.414
31.505
31.625
31.778
31.969
32.201
32.475
32.792
33.148
33.541
33.964
34.411
34.873
35.343
35.811
36.269
36.709
37.125
37.509
37.858
38.167
38.434
38.659
38.843
38.986
39.091
39.162
39.202
39.214
39.202
39.17
39.121
39.058
38.986
38.905
38.819
38.729
38.637
38.545
38.453
38.363
38.277
38.195
38.118
38.047
37.981
37.921
37.866
37.817
37.772
37.732
37.697
37.664
37.635
37.608
37.583
37.561
37.54
37.52
37.5
37.48
37.46
37.438
37.414
37.388
37.359
37.326
37.29
37.252
37.211
37.167
37.123
37.078
37.033
36.988
36.944
36.902
36.863
36.835
36.822
36.822
36.834
36.854
36.879
36.904
36.928
36.948
36.963
36.972
36.975
36.973
36.967
36.957
36.946
36.936
36.926
36.918
36.91
36.905
36.901
36.9
36.9
36.901
36.901
36.901
36.897
36.89
36.878
36.862
36.84
36.812
36.78
36.741
36.698
36.649
36.595
36.536
36.473
36.407
36.338
36.265
36.189
36.111
36.033
35.956
35.881
35.808
35.74
35.675
35.613
35.555
35.499
35.446
35.393
35.34
35.289
35.237
35.185
35.132
35.079
35.025
34.97
34.914
34.858
34.803
34.75
34.699
34.651
34.608
34.569
34.534
34.502
34.472
34.444
34.418
34.393
34.368
34.344
34.321
34.298
34.275
34.252
