Trial 1:0back
37.287
37.251
37.216
37.181
37.145
37.11
37.075
37.039
37.004
36.967
36.929
36.887
36.84
36.788
36.73
36.667
36.597
36.521
36.439
36.353
36.263
36.173
36.083
35.994
35.909
35.828
35.754
35.688
35.63
35.58
35.538
35.502
35.472
35.446
35.423
35.405
35.39
35.379
35.372
35.367
35.367
35.37
35.377
35.388
35.402
35.42
35.44
35.463
35.488
35.514
35.539
35.561
35.58
35.592
35.597
35.593
35.58
35.56
35.531
35.493
35.446
35.39
35.327
35.259
35.186
35.11
35.031
34.951
34.871
34.79
34.712
34.636
34.565
34.498
34.436
34.378
34.323
34.272
34.226
34.186
34.15
34.118
34.089
34.063
34.037
34.012
33.987
33.962
33.938
33.914
33.891
33.87
33.852
33.836
33.823
33.813
33.805
33.799
33.795
33.793
33.79
33.786
33.78
33.773
33.764
33.752
33.737
33.72
33.699
33.675
33.647
33.616
33.584
33.553
33.524
33.5
33.483
33.478
33.488
33.517
33.569
33.648
33.755
33.894
34.064
34.266
34.498
34.756
35.037
35.335
35.645
35.959
36.27
36.573
36.861
37.129
37.373
37.59
37.777
37.934
38.061
38.158
38.227
38.27
38.288
38.286
38.267
38.234
38.19
38.138
38.081
38.021
37.962
37.905
37.848
37.785
37.715
37.636
37.553
37.468
37.386
37.311
37.247
37.194
37.152
37.12
37.097
37.083
37.074
37.069
37.064
37.056
37.045
37.028
37.004
36.973
36.932
36.882
36.824
36.758
36.685
36.605
36.519
36.427
36.333
36.236
36.14
36.045
35.953
35.867
35.787
35.715
35.65
35.593
35.544
35.504
35.473
35.451
35.436
35.427
35.423
35.425
35.43
35.439
35.452
35.467
35.484
35.502
35.52
35.539
35.559
35.578
35.595
35.608
35.616
35.618
35.614
35.604
35.587
35.562
35.53
35.49
35.443
35.387
35.325
35.258
35.187
35.115
35.042
34.97
34.9
34.832
34.767
34.705
34.646
34.591
34.539
34.49
34.442
34.395
34.348
34.3
34.254
34.209
34.165
34.121
34.077
34.033
33.991
33.949
33.91
33.873
33.839
33.807
33.777
33.751
33.728
33.709
33.693
33.679
33.667
33.657
33.649
33.641
33.634
33.627
33.618
33.606
33.592
33.574
33.553
33.528
33.501
33.472
33.441
33.41
33.379
33.351
33.325
33.303
33.289
33.285
33.293
33.316
33.357
33.418
33.505
33.62
33.765
33.942
34.151
34.389
34.654
34.942
35.248
35.565
35.887
36.207
36.518
36.812
37.085
37.333
37.554
37.746
37.907
38.038
38.138
38.21
38.256
38.281
38.285
38.274
38.248
38.212
38.167
38.117
38.064
38.009
37.952
37.895
37.839
37.783
37.729
37.676
37.624
37.573
37.521
37.471
37.421
37.374
37.328
37.286
37.248
37.212
37.179
37.149
37.12
37.091
37.061
37.027
36.989
36.946
36.898
36.845
36.784
36.716
36.641
36.558
36.468
36.374
36.277
36.177
36.077
35.979
35.883
35.793
35.711
35.641
35.581
35.532
35.493
35.462
35.441
35.427
35.42
35.421
35.428
35.441
35.457
35.476
35.497
35.519
35.54
35.559
35.576
35.589
35.598
35.603
35.604
35.601
35.593
35.579
35.56
35.535
35.505
35.47
35.431
35.388
35.341
35.291
35.236
35.179
35.119
35.058
34.997
34.934
34.869
34.802
34.734
34.664
34.594
34.523
34.452
34.38
34.309
34.239
34.171
34.105
34.044
33.987
33.936
33.891
33.851
33.816
33.786
33.761
33.74
33.723
33.709
33.698
33.687
33.677
33.667
33.657
33.648
33.638
33.628
33.616
33.603
33.589
33.574
33.558
33.542
33.526
33.511
33.496
33.484
33.473
33.464
33.456
33.449
33.441
33.432
33.42
33.407
33.392
33.376
33.358
33.34
33.32
33.301
33.284
33.27
33.261
33.262
33.276
33.307
33.361
33.441
33.552
33.697
33.88
34.099
34.353
34.638
34.949
35.279
35.622
35.969
36.315
36.65
36.97
37.266
37.535
37.774
37.979
38.15
38.286
38.389
38.46
38.502
38.519
38.514
38.491
38.452
38.401
38.342
38.276
38.208
38.139
38.071
38.005
37.942
37.882
37.827
37.777
37.731
37.69
37.653
37.621
37.593
37.567
37.544
37.52
37.494
37.467
37.438
37.405
37.369
37.329
37.284
37.234
37.177
37.115
37.046
36.972
36.891
36.804
36.712
36.614
36.514
36.412
36.31
36.209
36.109
36.013
35.922
35.839
35.763
35.696
35.637
35.586
35.543
35.511
35.487
35.472
35.466
35.467
35.475
35.488
35.505
35.524
35.545
35.567
35.589
35.61
35.63
35.647
35.662
35.674
35.684
35.691
35.695
35.695
35.69
35.681
35.664
35.64
35.607
35.567
35.52
35.469
35.413
35.353
35.29
35.225
35.158
35.089
35.018
34.945
34.872
34.798
34.726
34.654
34.585
34.518
34.455
34.396
34.342
34.294
34.252
34.214
34.179
34.146
34.114
34.083
34.053
34.024
33.994
33.963
33.932
33.9
33.867
33.833
33.8
33.77
33.742
33.717
33.695
33.675
33.656
33.639
33.623
33.608
33.595
33.584
33.574
33.564
33.555
33.547
33.541
33.535
33.53
33.525
33.52
33.514
33.509
33.503
33.496
33.489
33.481
33.47
33.455
33.438
33.417
33.395
33.37
33.343
33.315
33.286
33.256
33.227
33.201
33.181
33.172
33.177
33.2
33.246
33.32
33.425
33.567
33.747
33.967
34.223
34.511
34.827
35.165
35.517
35.876
36.235
36.584
36.918
37.231
37.518
37.775
37.999
38.189
38.344
38.463
38.55
38.605
38.633
38.636
38.619
38.584
38.535
38.474
38.404
38.328
38.248
38.166
38.084
38.003
37.924
37.85
37.782
37.721
37.666
37.617
37.575
37.539
37.51
37.487
37.467
37.449
37.432
37.415
37.395
37.371
37.341
37.306
37.262
37.211
37.151
37.084
37.009
36.928
36.841
36.748
36.649
36.545
36.438
36.331
36.224
36.12
36.019
35.921
35.829
35.744
35.668
35.6
35.542
35.494
35.455
35.426
35.406
35.395
35.391
35.392
35.399
35.41
35.422
35.435
35.449
35.462
35.473
35.482
35.488
35.489
35.486
35.481
35.472
35.459
35.442
35.422
35.399
35.373
35.345
35.315
35.281
35.243
35.2
35.153
35.101
35.045
34.986
34.925
34.86
34.792
34.722
34.651
34.579
34.507
34.435
34.365
34.297
34.234
34.175
34.121
34.071
34.026
33.984
33.947
33.912
33.88
33.852
33.826
33.801
33.777
33.751
33.723
33.694
33.664
33.632
33.599
33.565
33.531
33.497
33.463
33.43
33.4
33.372
33.348
33.328
33.31
33.295
33.279
33.259
33.234
33.207
33.18
33.157
33.14
33.128
33.123
33.124
33.129
33.135
33.141
33.143
33.142
33.136
33.126
33.111
33.091
33.066
33.038
33.008
32.979
32.951
32.926
32.907
32.898
32.901
32.919
32.955
33.015
33.102
33.22
33.372
33.561
33.788
34.051
34.348
34.672
35.018
35.378
35.746
36.113
36.472
36.813
37.133
37.426
37.69
37.923
38.122
38.286
38.416
38.513
38.581
38.623
38.641
38.638
38.616
38.579
38.53
38.472
38.406
38.334
38.259
38.184
38.108
38.033
37.96
37.888
37.817
37.748
37.681
37.615
37.552
37.493
37.436
37.383
37.335
37.29
37.25
37.214
37.182
37.153
37.125
37.096
37.065
37.031
36.99
36.943
36.888
36.823
36.749
36.666
36.574
36.473
36.366
36.254
36.14
36.026
35.915
35.808
35.707
35.616
35.535
35.465
35.406
35.358
35.32
35.295
35.28
35.277
35.283
35.298
35.322
35.352
35.388
35.426
35.466
35.504
35.539
35.571
35.596
35.614
35.624
35.627
35.622
35.61
35.59
35.563
35.529
35.489
35.442
35.39
35.333
35.272
35.208
35.142
35.075
35.008
34.939
34.869
34.798
34.726
34.653
34.579
34.505
34.431
34.356
34.279
34.202
34.123
34.045
33.969
33.896
33.828
33.766
33.71
33.661
33.617
33.579
33.548
33.523
33.503
33.487
33.473
33.461
33.451
33.442
33.433
33.426
33.419
33.412
33.403
33.392
33.379
33.364
33.348
33.329
33.308
33.284
33.259
33.233
33.208
33.183
33.161
33.139
33.12
33.103
33.089
33.078
33.072
33.071
33.075
33.087
33.107
33.137
33.181
33.24
33.322
33.429
33.567
33.739
33.944
34.183
34.454
34.753
35.075
35.416
35.77
36.135
36.504
36.87
37.223
37.554
37.854
38.116
38.336
38.512
38.644
38.733
38.782
38.793
38.771
38.72
38.646
38.555
38.452
38.341
38.226
38.111
37.997
37.889
37.787
37.691
37.604
37.523
37.451
37.386
37.329
37.279
37.235
37.195
37.158
37.125
37.093
37.061
37.03
36.996
36.959
36.917
36.87
36.816
36.757
36.69
36.617
36.535
36.446
36.35
36.249
36.144
36.037
35.929
35.821
35.717
35.616
35.521
35.434
35.356
35.288
35.23
35.182
35.144
35.117
35.099
35.091
35.091
35.097
35.109
35.123
35.141
35.16
35.18
35.201
35.221
35.242
35.261
35.279
35.296
35.309
35.318
35.322
35.32
35.312
35.298
35.278
35.254
35.225
35.192
35.155
35.115
35.07
35.022
34.97
34.915
34.856
34.793
34.727
34.657
34.584
34.507
34.429
34.35
34.271
34.193
34.116
34.042
33.971
33.904
33.841
33.783
33.728
33.677
33.63
33.586
33.547
33.512
33.481
33.455
33.433
33.414
33.398
33.385
33.372
33.361
33.35
33.338
33.325
33.31
33.294
33.277
33.259
33.241
33.224
33.208
33.192
33.176
33.161
33.146
33.13
33.116
33.101
33.087
33.071
33.056
33.039
33.022
33.004
32.985
32.964
32.942
32.917
32.891
32.865
32.839
32.819
32.806
32.806
32.823
32.864
32.935
33.04
33.186
33.376
33.61
33.889
34.208
34.563
34.946
35.349
35.762
36.175
36.578
36.963
37.321
37.647
37.936
38.184
38.389
38.55
38.669
38.749
38.793
38.807
38.794
38.759
38.707
38.642
38.568
38.49
38.41
38.331
38.254
38.181
38.113
38.048
37.987
37.93
37.875
37.822
37.771
37.722
37.678
37.64
37.608
37.579
37.549
37.514
37.474
37.427
37.372
37.309
37.24
37.165
37.085
37.002
36.915
36.824
36.73
36.633
36.534
36.433
36.332
36.23
36.128
36.027
35.928
35.832
35.742
35.657
35.58
35.51
35.448
35.393
35.346
35.306
35.275
35.252
35.236
35.227
35.224
35.227
35.236
35.251
35.269
35.291
35.314
35.338
35.362
35.386
35.409
35.43
35.447
35.458
35.463
35.46
35.449
35.43
35.403
35.367
35.323
35.271
35.213
35.151
35.085
35.016
34.945
34.871
34.797
34.721
34.645
34.569
34.496
34.424
34.354
34.286
34.219
34.154
34.09
34.029
33.971
33.914
33.859
33.805
33.752
33.699
33.646
33.594
33.544
33.496
33.452
33.412
33.376
33.344
33.317
33.296
33.278
33.265
33.255
33.248
33.243
33.241
33.239
33.239
33.239
33.236
33.229
33.219
33.205
33.187
33.165
33.141
33.113
33.081
33.048
33.013
32.978
32.944
32.912
32.881
32.852
32.825
32.801
32.781
32.765
32.755
32.754
32.762
32.784
32.824
32.884
32.971
33.087
33.239
33.429
33.657
33.923
34.223
34.554
34.909
35.282
35.665
36.051
36.431
36.798
37.145
37.467
37.758
38.014
38.233
38.413
38.555
38.663
38.738
38.781
38.795
38.783
38.751
38.702
38.639
38.565
38.482
38.393
38.302
38.209
38.118
38.029
37.942
37.857
37.775
37.699
37.627
37.562
37.502
37.447
37.396
37.349
37.306
37.265
37.225
37.186
37.147
37.107
37.065
37.02
36.973
36.922
36.865
36.802
36.732
36.655
36.571
36.48
36.381
36.275
36.162
36.045
35.926
35.809
35.696
35.591
35.495
35.41
35.336
35.274
35.225
35.188
35.165
35.154
35.152
35.159
35.173
35.192
35.217
35.244
35.272
35.298
35.323
35.345
35.364
35.381
35.393
35.4
35.401
35.398
35.388
35.374
35.353
35.329
35.305
35.286
35.27
35.256
35.24
35.221
35.195
35.158
35.109
35.046
34.969
34.88
34.781
34.674
34.561
34.444
34.326
34.21
34.097
33.989
33.888
33.796
33.712
33.637
33.571
33.512
33.462
33.42
33.385
33.356
33.332
33.313
33.297
33.284
33.271
33.259
33.248
33.236
33.223
33.208
33.192
33.174
33.156
33.137
33.116
33.095
33.072
33.047
33.021
32.993
32.963
32.934
32.905
32.876
32.847
32.821
32.797
32.777
32.761
32.748
32.741
32.741
32.749
32.768
32.8
32.851
32.926
33.031
33.17
33.346
33.559
33.812
34.101
34.426
34.778
35.153
35.542
35.935
36.326
36.705
37.066
37.402
37.707
37.977
38.21
38.405
38.562
38.68
38.762
38.811
38.83
38.822
38.793
38.746
38.684
38.61
38.527
38.437
38.344
38.249
38.154
38.061
37.971
37.885
37.804
37.728
37.659
37.597
37.54
37.488
37.441
37.398
37.359
37.323
37.289
37.255
37.221
37.185
37.146
37.106
37.061
37.012
36.955
36.89
36.817
36.735
36.646
36.548
36.442
36.332
36.217
36.102
35.987
35.875
35.768
35.667
35.574
35.49
35.416
35.354
35.303
35.265
35.239
35.224
35.219
35.225
35.238
35.259
35.284
35.311
35.338
35.364
35.388
35.408
35.423
35.434
35.439
35.438
35.43
35.417
35.398
35.375
35.349
35.32
35.288
35.253
35.215
35.175
35.134
35.089
35.04
34.986
34.926
34.86
34.79
34.714
34.633
34.548
34.459
34.368
34.276
34.184
34.092
34.003
33.918
33.837
33.762
33.692
33.628
33.571
33.519
33.474
33.436
33.405
33.379
33.36
33.348
33.342
33.34
33.342
33.344
33.344
33.341
33.332
33.318
33.299
33.276
33.246
33.213
33.175
33.134
33.091
33.048
33.006
32.967
32.932
32.902
32.876
32.856
32.841
32.834
32.837
32.851
32.879
32.925
32.991
33.082
33.201
33.353
33.539
33.763
34.023
34.317
34.64
34.986
35.349
35.72
36.093
36.458
36.808
37.138
37.441
37.714
37.953
38.157
38.325
38.456
38.554
38.619
38.653
38.661
38.646
38.612
38.561
38.499
38.427
38.348
38.265
38.18
38.094
38.009
37.927
37.848
37.773
37.701
37.634
37.571
37.512
37.457
37.405
37.356
37.308
37.26
37.213
37.167
37.12
37.072
37.023
36.971
36.915
36.856
36.793
36.725
36.653
36.574
36.49
36.399
36.303
36.203
36.099
35.994
35.888
35.784
35.682
35.586
35.495
35.413
35.341
35.281
35.231
35.193
35.167
35.154
35.152
35.16
35.178
35.203
35.233
35.267
35.302
35.339
35.374
35.407
35.437
35.462
35.481
35.494
35.5
35.497
35.486
35.465
35.437
35.4
35.356
35.306
35.25
35.19
35.128
35.064
34.998
34.933
34.867
34.803
34.74
34.678
34.616
34.555
34.494
34.434
34.374
34.316
34.259
34.203
34.148
34.093
34.036
33.98
33.924
33.869
33.816
33.765
33.716
33.668
33.622
33.578
33.538
33.5
33.464
33.43
33.4
33.371
33.345
33.319
33.294
33.268
33.242
33.216
33.19
33.163
33.139
33.12
33.108
33.107
33.121
33.155
33.213
33.298
33.416
33.568
33.756
33.98
34.238
34.526
34.839
35.17
35.512
35.859
36.205
36.544
36.867
37.168
37.443
37.688
37.899
38.074
38.211
38.31
38.374
38.405
38.406
38.383
38.339
38.278
38.205
38.123
38.037
37.949
37.86
37.771
37.685
37.603
37.526
37.453
37.386
37.323
37.267
37.216
37.172
37.131
37.091
37.051
37.009
36.963
36.914
36.86
36.801
36.735
36.663
36.585
36.502
36.413
36.322
36.229
36.134
36.038
35.94
35.844
35.749
35.658
35.571
35.489
35.412
35.341
35.276
35.218
35.167
35.123
35.087
35.058
35.037
35.022
35.014
35.013
35.017
35.027
35.042
35.059
35.079
35.101
35.125
35.15
35.175
35.199
35.219
35.236
35.249
35.258
35.262
35.26
35.251
35.235
35.21
35.176
35.134
35.085
35.028
34.966
34.899
34.827
34.752
34.676
34.6
34.526
34.455
34.388
34.325
34.265
34.209
34.155
34.105
34.059
34.015
33.973
33.932
33.891
33.851
33.811
33.771
33.729
33.686
33.641
33.594
33.546
33.498
33.449
33.4
33.353
33.307
33.262
33.22
33.179
33.14
33.105
33.072
33.042
33.014
32.989
32.967
32.949
32.935
32.927
32.926
32.937
32.96
33.001
33.065
33.156
33.278
33.435
33.628
33.857
34.12
34.413
34.732
35.068
35.417
35.77
36.12
36.46
36.785
37.088
37.365
37.61
37.821
37.998
38.139
38.245
38.318
38.36
38.373
38.362
38.33
38.282
38.221
38.151
38.074
37.994
37.912
37.829
37.746
37.666
37.589
37.515
37.443
37.374
37.308
37.246
37.189
37.136
37.086
37.038
36.993
36.95
36.907
36.865
36.819
36.769
36.714
36.653
36.585
36.51
36.428
36.34
36.245
36.145
36.038
35.927
35.814
35.7
35.589
35.48
35.378
35.283
35.203
35.143
35.103
35.084
35.08
35.088
35.106
35.129
35.154
35.179
35.201
35.218
35.232
35.243
35.251
35.257
35.262
35.265
35.265
35.261
35.252
35.239
35.222
35.202
35.179
35.154
35.127
35.1
35.073
35.045
35.017
34.987
34.955
34.919
34.88
34.837
34.79
34.739
34.686
34.628
34.566
34.5
34.43
34.358
34.285
34.212
34.14
34.07
34.003
33.94
33.882
33.828
33.778
33.732
33.69
33.651
33.614
33.58
33.548
33.52
33.495
33.472
33.451
33.431
33.411
33.391
33.372
33.353
33.333
33.313
33.292
33.269
33.245
33.219
33.19
33.162
33.132
33.102
33.071
33.04
33.013
32.993
32.984
32.991
33.019
33.073
33.159
33.279
33.438
33.636
33.874
34.148
34.455
34.787
35.138
35.5
35.865
36.226
36.575
36.903
37.205
37.477
37.716
37.92
38.088
38.22
38.317
38.382
38.418
38.43
38.42
38.391
38.348
38.292
38.229
38.161
38.09
38.017
37.942
37.867
37.791
37.715
37.639
37.564
37.489
37.414
37.34
37.267
37.194
37.12
37.047
36.973
36.898
36.822
36.744
36.667
36.589
36.513
36.437
36.362
36.286
36.212
36.137
36.062
35.985
35.907
35.827
35.747
35.666
35.586
35.507
35.429
35.354
35.283
35.217
35.158
35.107
35.064
35.03
35.004
34.986
34.975
34.971
34.976
34.989
35.009
35.036
35.067
35.101
35.138
35.175
35.21
35.243
35.27
35.291
35.305
35.311
35.309
35.299
35.282
35.257
35.223
35.181
35.132
35.077
35.018
34.957
34.894
34.83
34.763
34.696
34.628
34.56
34.493
34.425
34.359
34.293
34.228
34.164
34.101
34.04
33.979
33.92
33.863
33.808
33.755
33.704
33.657
33.612
33.571
33.533
33.498
33.466
33.435
33.406
33.379
33.353
33.328
33.304
33.28
33.257
33.234
33.21
33.188
33.165
33.143
33.121
33.098
33.075
33.053
33.032
33.014
33.001
32.995
33.001
33.024
33.069
33.144
33.252
33.398
33.583
33.808
34.073
34.372
34.702
35.055
35.424
35.799
36.173
36.537
36.885
37.211
37.509
37.774
38.003
38.193
38.346
38.462
38.543
38.592
38.611
38.604
38.574
38.525
38.46
38.383
38.296
38.202
38.104
38.004
37.905
37.81
37.721
37.64
37.565
37.498
37.439
37.386
37.341
37.301
37.266
37.235
37.206
37.176
37.144
37.109
37.068
37.02
36.965
36.901
36.827
36.745
36.656
36.56
36.458
36.352
36.243
36.133
36.025
35.918
35.817
35.72
35.631
35.549
35.477
35.417
35.367
35.327
35.297
35.275
35.26
35.251
35.247
35.248
35.252
35.26
35.269
35.281
35.293
35.308
35.324
35.34
35.354
35.366
35.376
35.382
35.384
35.383
35.376
35.365
35.347
35.326
35.3
35.27
35.237
35.2
35.158
35.112
35.06
35.002
34.939
34.871
34.8
34.725
34.646
34.566
34.485
34.403
34.321
34.241
34.164
34.09
34.021
33.957
33.898
33.845
33.797
33.754
33.715
33.679
33.647
33.618
33.59
33.563
33.53
33.491
33.444
33.393
33.339
33.286
33.232
33.18
33.131
33.088
33.051
33.021
32.996
32.979
32.968
32.962
32.96
32.963
32.97
32.98
32.994
33.014
33.041
33.08
33.134
33.207
33.303
33.427
33.584
33.775
34.003
34.266
34.562
34.885
35.23
35.592
35.961
36.33
36.689
37.034
37.356
37.651
37.914
38.143
38.334
38.488
38.608
38.694
38.749
38.776
38.779
38.762
38.728
38.682
38.627
38.566
38.501
38.433
38.364
38.294
38.225
38.157
38.091
38.027
37.965
37.905
37.848
37.794
37.744
37.698
37.656
37.617
37.58
37.544
37.508
37.473
37.437
37.4
37.359
37.312
37.258
37.197
37.126
37.046
36.957
36.859
36.754
36.644
36.531
36.416
36.302
36.188
36.078
35.973
35.875
35.787
35.708
35.64
35.584
35.539
35.505
35.481
35.467
35.462
35.465
35.475
35.49
35.51
35.534
35.56
35.586
35.61
35.631
35.647
35.657
35.661
35.658
35.648
35.63
35.603
35.568
35.524
35.474
35.417
35.355
35.289
35.22
35.149
35.078
35.005
34.933
34.863
34.793
34.725
34.659
34.596
34.537
34.48
34.426
34.374
34.322
34.271
34.219
34.166
34.114
34.061
34.009
33.957
33.906
33.855
33.805
33.756
33.71
33.667
33.628
33.593
33.561
33.532
33.507
33.485
33.465
33.448
33.432
33.417
33.401
33.383
33.362
33.339
33.313
33.284
33.251
33.215
33.176
33.136
33.096
33.06
33.032
33.016
33.017
