Trial 1:0back
34.931
34.934
34.94
34.949
34.959
34.973
34.991
35.012
35.038
35.068
35.101
35.137
35.175
35.214
35.25
35.285
35.317
35.347
35.373
35.396
35.415
35.43
35.441
35.447
35.449
35.447
35.44
35.429
35.415
35.4
35.383
35.365
35.348
35.33
35.314
35.298
35.283
35.269
35.255
35.24
35.225
35.209
35.194
35.178
35.162
35.147
35.131
35.115
35.099
35.081
35.062
35.043
35.022
35.002
34.983
34.966
34.95
34.937
34.925
34.916
34.907
34.9
34.895
34.89
34.886
34.883
34.88
34.878
34.877
34.877
34.878
34.878
34.879
34.878
34.876
34.872
34.867
34.861
34.854
34.847
34.841
34.834
34.826
34.816
34.805
34.793
34.78
34.767
34.755
34.744
34.734
34.725
34.719
34.715
34.713
34.715
34.72
34.727
34.734
34.743
34.75
34.757
34.764
34.769
34.773
34.775
34.777
34.776
34.772
34.767
34.759
34.75
34.74
34.73
34.721
34.712
34.704
34.695
34.684
34.672
34.659
34.645
34.63
34.615
34.6
34.586
34.572
34.56
34.549
34.541
34.536
34.533
34.531
34.53
34.53
34.53
34.53
34.53
34.531
34.532
34.533
34.534
34.536
34.539
34.543
34.548
34.553
34.557
34.561
34.562
34.56
34.556
34.549
34.54
34.529
34.518
34.508
34.497
34.486
34.476
34.467
34.46
34.456
34.453
34.453
34.455
34.459
34.465
34.471
34.478
34.484
34.489
34.493
34.495
34.495
34.494
34.49
34.485
34.48
34.475
34.47
34.466
34.462
34.459
34.456
34.453
34.449
34.445
34.442
34.439
34.437
34.435
34.434
34.432
34.429
34.425
34.42
34.414
34.407
34.399
34.39
34.381
34.373
34.366
34.361
34.358
34.359
34.365
34.378
34.399
34.433
34.482
34.547
34.631
34.735
34.858
35.0
35.157
35.327
35.507
35.692
35.88
36.068
36.252
36.428
36.594
36.746
36.882
37.002
37.104
37.19
37.259
37.312
37.349
37.372
37.379
37.372
37.351
37.319
37.276
37.224
37.167
37.106
37.043
36.98
36.919
36.86
36.805
36.755
36.711
36.671
36.638
36.609
36.586
36.569
36.556
36.547
36.54
36.536
36.534
36.533
36.533
36.532
36.531
36.529
36.526
36.523
36.519
36.513
36.505
36.494
36.48
36.465
36.448
36.429
36.41
36.391
36.371
36.351
36.33
36.307
36.283
36.258
36.232
36.207
36.182
36.16
36.141
36.123
36.108
36.095
36.083
36.073
36.065
36.059
36.056
36.055
36.056
36.058
36.061
36.063
36.065
36.066
36.067
36.068
36.069
36.07
36.071
36.071
36.071
36.069
36.067
36.063
36.057
36.048
36.037
36.023
36.006
35.988
35.968
35.945
35.921
35.895
35.868
35.84
35.812
35.783
35.754
35.725
35.698
35.673
35.65
35.629
35.61
35.592
35.576
35.56
35.546
35.532
35.519
35.508
35.498
35.49
35.482
35.474
35.463
35.448
35.43
35.411
35.391
35.372
35.354
35.339
35.328
35.32
35.318
35.32
35.325
35.334
35.344
35.355
35.367
35.378
35.389
35.401
35.414
35.427
35.441
35.455
35.469
35.484
35.5
35.516
35.535
35.555
35.577
35.601
35.628
35.657
35.688
35.721
35.754
35.788
35.821
35.853
35.882
35.909
35.934
35.956
35.976
35.994
36.009
36.02
36.028
36.032
36.033
36.03
36.025
36.017
36.007
35.995
35.98
35.963
35.944
35.922
35.898
35.871
35.842
35.81
35.777
35.741
35.703
35.663
35.621
35.577
35.531
35.484
35.436
35.389
35.342
35.298
35.257
35.218
35.181
35.147
35.115
35.088
35.066
35.05
35.041
35.041
35.049
35.065
35.088
35.117
35.15
35.184
35.22
35.257
35.294
35.33
35.366
35.401
35.434
35.464
35.492
35.516
35.537
35.554
35.566
35.573
35.576
35.575
35.57
35.562
35.552
35.54
35.527
35.512
35.496
35.477
35.457
35.435
35.412
35.389
35.365
35.342
35.32
35.299
35.28
35.261
35.243
35.226
35.208
35.191
35.175
35.159
35.145
35.131
35.118
35.106
35.095
35.084
35.073
35.063
35.053
35.043
35.034
35.026
35.018
35.01
35.003
34.996
34.991
34.987
34.983
34.98
34.978
34.977
34.976
34.975
34.974
34.973
34.971
34.97
34.969
34.969
34.97
34.971
34.974
34.976
34.98
34.983
34.987
34.99
34.993
34.994
34.994
34.99
34.984
34.975
34.964
34.951
34.935
34.919
34.903
34.886
34.872
34.859
34.847
34.838
34.83
34.821
34.812
34.803
34.793
34.783
34.774
34.766
34.759
34.752
34.746
34.741
34.737
34.735
34.732
34.73
34.728
34.726
34.723
34.72
34.717
34.714
34.713
34.712
34.712
34.712
34.711
34.708
34.704
34.699
34.692
34.684
34.674
34.664
34.654
34.643
34.631
34.618
34.603
34.589
34.574
34.561
34.549
34.539
34.532
34.527
34.527
34.53
34.536
34.543
34.551
34.559
34.565
34.571
34.575
34.578
34.579
34.58
34.581
34.58
34.579
34.577
34.575
34.573
34.571
34.569
34.566
34.564
34.561
34.557
34.554
34.55
34.545
34.54
34.534
34.528
34.522
34.514
34.506
34.498
34.492
34.487
34.485
34.486
34.487
34.489
34.492
34.493
34.494
34.493
34.491
34.487
34.484
34.48
34.477
34.474
34.471
34.469
34.465
34.461
34.456
34.451
34.446
34.44
34.435
34.43
34.425
34.422
34.421
34.422
34.427
34.439
34.458
34.489
34.534
34.596
34.676
34.775
34.893
35.03
35.184
35.351
35.528
35.713
35.9
36.087
36.27
36.445
36.61
36.762
36.901
37.025
37.133
37.224
37.298
37.356
37.398
37.425
37.439
37.441
37.433
37.415
37.389
37.355
37.316
37.271
37.222
37.169
37.113
37.055
36.998
36.942
36.888
36.836
36.786
36.741
36.701
36.668
36.64
36.617
36.599
36.586
36.577
36.571
36.568
36.566
36.565
36.564
36.563
36.562
36.559
36.554
36.546
36.536
36.524
36.51
36.493
36.473
36.45
36.424
36.396
36.368
36.341
36.315
36.291
36.27
36.252
36.239
36.228
36.221
36.215
36.212
36.21
36.209
36.209
36.209
36.211
36.213
36.217
36.221
36.226
36.232
36.237
36.242
36.245
36.248
36.249
36.248
36.245
36.241
36.235
36.226
36.215
36.201
36.184
36.164
36.142
36.118
36.092
36.066
36.039
36.011
35.983
35.954
35.925
35.895
35.866
35.838
35.812
35.788
35.766
35.748
35.731
35.716
35.703
35.69
35.678
35.667
35.656
35.646
35.635
35.625
35.614
35.603
35.592
35.582
35.572
35.561
35.551
35.541
35.532
35.525
35.519
35.514
35.509
35.505
35.501
35.498
35.494
35.489
35.484
35.478
35.472
35.465
35.458
35.451
35.445
35.44
35.437
35.434
35.43
35.426
35.42
35.411
35.401
35.39
35.377
35.362
35.347
35.331
35.316
35.302
35.288
35.274
35.262
35.251
35.242
35.235
35.229
35.225
35.22
35.216
35.212
35.207
35.201
35.194
35.186
35.177
35.168
35.16
35.153
35.147
35.142
35.139
35.137
35.135
35.133
35.13
35.128
35.125
35.123
35.12
35.117
35.114
35.111
35.108
35.106
35.103
35.101
35.097
35.091
35.084
35.074
35.062
35.048
35.033
35.017
35.001
34.985
34.969
34.952
34.936
34.92
34.907
34.895
34.886
34.881
34.878
34.878
34.881
34.885
34.89
34.894
34.897
34.899
34.899
34.896
34.892
34.886
34.879
34.871
34.863
34.855
34.848
34.841
34.834
34.826
34.817
34.805
34.793
34.78
34.768
34.757
34.747
34.739
34.733
34.728
34.725
34.723
34.721
34.719
34.717
34.716
34.714
34.712
34.709
34.706
34.703
34.701
34.698
34.696
34.693
34.689
34.683
34.676
34.667
34.656
34.644
34.631
34.617
34.605
34.592
34.581
34.573
34.569
34.572
34.585
34.609
34.646
34.698
34.766
34.851
34.952
35.068
35.198
35.339
35.488
35.644
35.803
35.961
36.115
36.264
36.405
36.537
36.659
36.769
36.866
36.951
37.022
37.078
37.121
37.15
37.167
37.172
37.167
37.153
37.133
37.106
37.076
37.042
37.007
36.972
36.938
36.905
36.874
36.843
36.814
36.786
36.759
36.734
36.711
36.691
36.673
36.657
36.645
36.636
36.63
36.626
36.625
36.627
36.631
36.637
36.644
36.653
36.662
36.67
36.678
36.683
36.685
36.682
36.674
36.659
36.637
36.61
36.579
36.544
36.507
36.468
36.429
36.389
36.35
36.311
36.276
36.244
36.216
36.194
36.176
36.164
36.156
36.153
36.152
36.154
36.158
36.164
36.172
36.181
36.192
36.203
36.214
36.224
36.234
36.243
36.249
36.253
36.255
36.254
36.251
36.248
36.244
36.238
36.231
36.223
36.212
36.198
36.182
36.162
36.14
36.115
36.09
36.063
36.035
36.006
35.975
35.944
35.913
35.882
35.854
35.827
35.803
35.783
35.766
35.752
35.74
35.731
35.722
35.715
35.709
35.704
35.699
35.694
35.688
35.682
35.677
35.671
35.665
35.658
35.65
35.641
35.631
35.618
35.605
35.589
35.572
35.555
35.538
35.522
35.506
35.491
35.477
35.465
35.454
35.445
35.439
35.436
35.436
35.441
35.449
35.461
35.477
35.497
35.521
35.548
35.579
35.614
35.652
35.693
35.736
35.783
35.831
35.88
35.929
35.977
36.023
36.064
36.1
36.132
36.158
36.18
36.196
36.207
36.213
36.214
36.21
36.203
36.193
36.18
36.166
36.151
36.135
36.119
36.102
36.084
36.065
36.045
36.023
35.999
35.973
35.945
35.915
35.882
35.846
35.809
35.769
35.728
35.685
35.641
35.596
35.551
35.506
35.464
35.424
35.387
35.355
35.329
35.308
35.292
35.281
35.273
35.27
35.271
35.277
35.288
35.303
35.323
35.345
35.371
35.4
35.432
35.464
35.497
35.529
35.56
35.589
35.615
35.638
35.657
35.673
35.687
35.696
35.702
35.703
35.699
35.688
35.672
35.652
35.627
35.598
35.563
35.522
35.476
35.428
35.38
35.335
35.296
35.263
35.24
35.225
35.219
35.22
35.226
35.235
35.246
35.258
35.268
35.277
35.283
35.286
35.285
35.28
35.273
35.262
35.249
35.234
35.217
35.199
35.18
35.161
35.142
35.123
35.106
35.09
35.077
35.065
35.056
35.05
35.045
35.043
35.041
35.039
35.037
35.033
35.027
35.02
35.013
35.006
35.0
34.994
34.988
34.983
34.977
34.972
34.967
34.963
34.96
34.958
34.957
34.957
34.958
34.959
34.959
34.958
34.956
34.952
34.947
34.941
34.932
34.922
34.911
34.9
34.889
34.879
34.868
34.858
34.846
34.836
34.825
34.817
34.809
34.803
34.799
34.797
34.794
34.791
34.786
34.781
34.775
34.768
34.76
34.75
34.739
34.727
34.716
34.704
34.695
34.687
34.682
34.68
34.681
34.683
34.685
34.687
34.689
34.691
34.692
34.693
34.694
34.694
34.692
34.688
34.683
34.674
34.662
34.647
34.631
34.615
34.598
34.581
34.565
34.551
34.538
34.528
34.519
34.513
34.508
34.504
34.501
34.498
34.495
34.494
34.492
34.491
34.49
34.489
34.487
34.485
34.482
34.478
34.474
34.469
34.465
34.46
34.457
34.454
34.452
34.45
34.447
34.443
34.438
34.431
34.424
34.415
34.407
34.399
34.391
34.384
34.378
34.374
34.372
34.37
34.369
34.366
34.361
34.356
34.349
34.342
34.336
34.332
34.33
34.331
34.334
34.339
34.345
34.352
34.359
34.365
34.37
34.373
34.374
34.374
34.372
34.369
34.366
34.362
34.358
34.353
34.348
34.343
34.337
34.331
34.326
34.323
34.324
34.33
34.345
34.371
34.409
34.464
34.536
34.628
34.741
34.874
35.027
35.196
35.378
35.571
35.77
35.97
36.168
36.359
36.541
36.712
36.868
37.009
37.132
37.237
37.325
37.396
37.45
37.488
37.51
37.518
37.512
37.494
37.466
37.43
37.385
37.334
37.277
37.216
37.154
37.092
37.032
36.976
36.924
36.878
36.84
36.808
36.784
36.767
36.756
36.75
36.748
36.75
36.754
36.761
36.77
36.781
36.793
36.805
36.816
36.824
36.829
36.829
36.825
36.816
36.802
36.783
36.761
36.734
36.704
36.671
36.634
36.597
36.558
36.518
36.478
36.439
36.401
36.366
36.336
36.311
36.29
36.274
36.263
36.257
36.255
36.259
36.267
36.277
36.289
36.302
36.314
36.324
36.331
36.335
36.335
36.333
36.328
36.321
36.311
36.299
36.285
36.268
36.25
36.232
36.214
36.196
36.178
36.161
36.145
36.131
36.117
36.103
36.088
36.073
36.058
36.043
36.026
36.008
35.986
35.963
35.939
35.916
35.893
35.87
35.847
35.824
35.802
35.78
35.76
35.742
35.726
35.712
35.701
35.691
35.683
35.675
35.666
35.657
35.648
35.638
35.628
35.619
35.611
35.603
35.595
35.589
35.583
35.578
35.574
35.57
35.567
35.564
35.561
35.558
35.554
35.551
35.547
35.544
35.54
35.536
35.53
35.522
35.513
35.501
35.488
35.475
35.461
35.447
35.433
35.419
35.404
35.387
35.37
35.352
35.334
35.317
35.301
35.285
35.27
35.257
35.246
35.237
35.23
35.225
35.221
35.217
35.214
35.21
35.207
35.206
35.205
35.204
35.203
35.201
35.196
35.19
35.181
35.169
35.155
35.14
35.124
35.107
35.089
35.072
35.055
35.039
35.023
35.008
34.993
34.978
34.963
34.948
34.934
34.919
34.904
34.889
34.874
34.859
34.844
34.831
34.817
34.803
34.79
34.777
34.766
34.756
34.748
34.742
34.737
34.734
34.733
34.733
34.734
34.735
34.736
34.737
34.736
34.734
34.732
34.728
34.725
34.722
34.719
34.715
34.711
34.706
34.7
34.693
34.685
34.675
34.664
34.653
34.643
34.634
34.627
34.621
34.616
34.612
34.608
34.605
34.601
34.597
34.593
34.589
34.586
34.584
34.584
34.585
34.587
34.587
34.586
34.583
34.577
34.569
34.558
34.545
34.532
34.518
34.505
34.493
34.482
34.473
34.464
34.456
34.447
34.438
34.428
34.419
34.409
34.4
34.392
34.383
34.375
34.367
34.36
34.355
34.35
34.342
34.327
34.302
34.271
34.237
34.208
34.191
34.191
34.216
34.267
34.348
34.458
34.594
34.753
34.932
35.125
35.328
35.536
35.742
35.944
36.136
36.316
36.481
36.631
36.762
36.875
36.968
37.042
37.098
37.138
37.163
37.175
37.175
37.166
37.148
37.123
37.091
37.056
37.016
36.975
36.933
36.892
36.851
36.81
36.771
36.733
36.696
36.662
36.631
36.603
36.579
36.56
36.546
36.537
36.532
36.53
36.529
36.53
36.532
36.533
36.535
36.535
36.535
36.534
36.53
36.524
36.516
36.504
36.489
36.47
36.448
36.423
36.395
36.364
36.33
36.294
36.258
36.223
36.189
36.158
36.13
36.106
36.085
36.069
36.058
36.051
36.049
36.052
36.059
36.07
36.081
36.093
36.104
36.113
36.121
36.126
36.13
36.132
36.134
36.134
36.133
36.13
36.126
36.12
36.112
36.103
36.092
36.079
36.065
36.051
36.037
36.024
36.012
36.001
35.99
35.978
35.966
35.951
35.935
35.916
35.895
35.872
35.849
35.825
35.802
35.778
35.754
35.73
35.707
35.685
35.664
35.645
35.628
35.614
35.602
35.593
35.585
35.577
35.569
35.562
35.553
35.544
35.534
35.523
35.512
35.501
35.49
35.479
35.467
35.455
35.441
35.425
35.407
35.389
35.369
35.349
35.329
35.311
35.294
35.278
35.261
35.244
35.226
35.209
35.193
35.178
35.164
35.153
35.144
35.138
35.133
35.13
35.128
35.125
35.123
35.121
35.12
35.119
35.118
35.117
35.117
35.117
35.117
35.115
35.112
35.107
35.101
35.093
35.083
35.072
35.059
35.045
35.031
35.017
35.004
34.991
34.978
34.966
34.953
34.939
34.924
34.908
34.893
34.878
34.863
34.85
34.839
34.828
34.819
34.811
34.804
34.797
34.792
34.787
34.783
34.778
34.773
34.768
34.763
34.758
34.751
34.743
34.734
34.723
34.711
34.698
34.684
34.67
34.657
34.645
34.634
34.624
34.617
34.611
34.607
34.605
34.603
34.6
34.597
34.594
34.589
34.584
34.578
34.572
34.566
34.561
34.557
34.554
34.551
34.548
34.544
34.541
34.537
34.533
34.53
34.527
34.523
34.518
34.512
34.505
34.497
34.489
34.481
34.473
34.465
34.458
34.452
34.446
34.439
34.433
34.426
34.42
34.413
34.406
34.398
34.39
34.381
34.371
34.36
34.347
34.334
34.321
34.307
34.294
34.282
34.27
34.259
34.25
34.243
34.239
34.239
34.243
34.254
34.274
34.305
34.349
34.407
34.48
34.57
34.677
34.798
34.932
35.076
35.227
35.384
35.541
35.698
35.851
35.999
36.139
36.268
36.387
36.493
36.585
36.663
36.727
36.777
36.814
36.838
36.851
36.852
36.845
36.828
36.804
36.774
36.738
36.698
36.657
36.614
36.572
36.53
36.488
36.447
36.407
36.368
36.33
36.295
36.263
36.234
36.209
36.188
36.171
36.157
36.147
36.14
36.135
36.131
36.127
36.123
36.119
36.114
36.108
36.101
36.092
36.081
36.068
36.051
36.031
36.007
35.981
35.952
35.923
35.895
35.868
35.844
35.821
35.801
35.783
35.768
35.756
35.748
35.743
35.742
35.746
35.754
35.765
35.779
35.794
35.811
35.827
35.843
35.857
35.87
35.88
35.889
35.895
35.898
35.9
35.898
35.892
35.883
35.87
35.854
35.836
35.815
35.793
35.772
35.75
35.731
35.712
35.693
35.674
35.655
35.637
35.619
35.6
35.582
35.562
35.543
35.522
35.502
35.48
35.459
35.437
35.415
35.394
35.372
35.351
35.33
35.311
35.292
35.274
35.257
35.241
35.227
35.213
35.2
35.187
35.175
35.164
35.154
35.145
35.138
35.131
35.124
35.118
35.112
35.106
35.1
35.094
35.087
35.081
35.073
35.066
35.059
35.051
35.044
35.036
35.03
35.028
35.028
35.032
35.038
35.045
35.053
35.059
35.062
35.061
35.057
35.047
35.033
35.015
34.995
34.972
34.95
34.928
34.907
34.889
34.872
34.857
34.844
34.832
34.821
34.811
34.801
34.792
34.783
34.775
34.767
34.759
34.75
34.741
34.731
34.721
34.709
34.698
34.687
34.676
34.667
34.659
34.653
34.65
34.648
34.647
34.648
34.649
34.649
34.649
34.649
34.649
34.648
34.646
34.643
34.637
34.631
34.622
34.612
34.599
34.585
34.57
34.555
34.541
34.527
34.513
34.5
34.488
34.478
34.471
34.465
34.459
34.452
34.444
34.434
34.421
34.408
34.393
34.378
34.364
34.351
34.339
34.328
34.317
34.307
34.297
34.288
34.28
34.27
34.261
34.251
34.241
34.233
34.227
34.224
34.223
34.224
34.226
34.229
34.231
34.233
34.234
34.235
34.237
34.238
34.24
34.242
34.243
34.245
34.246
34.246
34.248
34.255
34.266
34.28
34.295
34.311
34.324
34.334
34.339
34.338
34.329
34.313
34.29
34.261
34.227
34.191
34.154
34.117
34.083
34.052
34.025
34.005
33.992
33.986
33.989
34.002
34.025
34.06
34.11
34.176
34.258
34.358
34.474
34.606
34.752
34.91
35.076
35.248
35.422
35.595
35.764
35.925
36.076
36.216
36.342
36.454
36.551
36.632
36.697
36.746
36.778
36.797
36.803
36.798
36.782
36.759
36.729
36.695
36.657
36.617
36.576
36.533
36.491
36.45
36.411
36.375
36.341
36.31
36.282
36.257
36.237
36.22
36.206
36.194
36.185
36.178
36.172
36.169
36.167
36.168
36.169
36.173
36.176
36.179
36.181
36.182
36.181
36.178
36.175
36.17
36.163
36.154
36.143
36.13
36.114
36.095
36.073
36.05
36.026
36.001
35.975
35.95
35.926
35.902
35.881
35.863
35.847
35.833
35.821
35.811
35.802
35.788
35.767
35.741
35.71
35.679
35.651
35.628
35.612
35.604
35.604
35.612
35.628
35.649
35.673
35.7
35.728
35.754
35.776
35.794
35.806
35.811
35.81
35.803
35.79
35.773
35.751
35.726
35.699
35.671
35.641
35.611
35.581
35.551
35.523
35.496
35.472
35.453
35.439
35.431
35.427
35.426
35.427
35.429
35.431
35.432
35.432
35.43
35.426
35.418
35.408
35.394
35.378
35.359
35.338
35.315
35.29
35.266
35.242
35.219
35.199
35.18
35.164
35.151
35.14
35.13
35.12
35.11
35.099
35.089
35.078
35.069
35.06
35.052
35.047
35.043
35.043
35.043
35.045
35.048
35.05
35.05
35.049
35.046
35.042
35.036
35.029
35.02
35.009
34.997
34.982
34.966
34.948
34.93
34.913
34.897
34.883
34.872
34.862
34.854
34.846
34.839
34.833
34.826
34.819
34.81
34.801
34.79
34.78
34.77
34.762
34.754
34.747
34.74
34.732
34.72
34.705
34.688
34.671
34.653
34.637
34.623
34.611
34.604
34.601
34.601
34.605
34.61
34.617
34.625
34.631
34.636
34.639
34.639
34.637
34.633
34.626
34.617
34.605
34.59
34.572
34.553
34.531
34.509
34.487
34.466
34.445
34.426
34.409
34.393
34.377
34.36
34.344
34.328
34.314
34.301
34.292
34.285
34.283
34.284
34.289
34.296
34.306
34.318
34.33
34.343
34.354
34.364
34.372
34.378
34.381
34.383
34.382
34.379
34.375
34.369
34.361
34.351
34.338
34.324
34.308
34.292
34.276
34.261
34.247
34.234
34.223
34.213
34.205
34.198
34.191
34.184
34.178
34.171
34.166
34.162
34.163
34.168
34.181
34.202
34.234
34.278
34.336
34.41
34.498
34.602
34.72
34.851
34.993
35.142
35.297
35.453
35.607
35.757
35.899
36.031
36.151
36.258
36.352
36.432
36.5
36.554
