Trial 3:3back
33.41
33.389
33.368
33.348
33.333
33.323
33.317
33.317
33.318
33.321
33.323
33.322
33.317
33.306
33.289
33.266
33.236
33.203
33.167
33.132
33.097
33.064
33.032
33.001
32.973
32.947
32.922
32.899
32.876
32.854
32.832
32.81
32.789
32.769
32.749
32.732
32.716
32.703
32.693
32.689
32.692
32.706
32.733
32.778
32.843
32.93
33.042
33.18
33.344
33.535
33.752
33.994
34.258
34.541
34.839
35.149
35.467
35.787
36.103
36.414
36.713
36.997
37.265
37.514
37.741
37.946
38.125
38.28
38.411
38.519
38.605
38.673
38.725
38.765
38.795
38.816
38.83
38.839
38.843
38.843
38.838
38.83
38.817
38.801
38.782
38.759
38.733
38.702
38.667
38.626
38.582
38.535
38.486
38.436
38.386
38.337
38.289
38.241
38.193
38.145
38.097
38.048
37.998
37.946
37.891
37.832
37.77
37.703
37.633
37.56
37.485
37.409
37.333
37.257
37.184
37.114
37.048
36.985
36.925
36.869
36.817
36.77
36.728
36.69
36.656
36.627
36.603
36.582
36.564
36.547
36.529
36.509
36.488
36.466
36.444
36.421
36.398
36.374
36.348
36.32
36.29
36.256
36.22
36.181
36.141
36.099
36.058
36.017
35.976
35.936
35.894
35.851
35.805
35.754
35.7
35.641
35.58
35.517
35.453
35.389
35.327
35.267
35.21
35.155
35.101
35.048
34.996
34.945
34.896
34.847
34.801
34.757
34.716
34.678
34.644
34.611
34.581
34.551
34.522
34.493
34.465
34.437
34.411
34.387
34.366
34.349
34.336
34.324
34.313
34.302
34.288
34.271
34.251
34.226
34.197
34.164
34.129
34.091
34.053
34.015
33.977
33.939
33.904
33.871
33.841
33.815
33.793
33.773
33.756
33.74
33.726
33.713
33.701
33.689
33.676
33.663
33.648
33.632
33.615
33.597
33.579
33.562
33.545
33.529
33.515
33.501
33.49
33.478
33.468
33.458
33.449
33.439
33.427
33.412
33.394
33.373
33.349
33.323
33.297
33.272
33.248
33.226
33.205
33.187
33.17
33.154
33.14
33.126
33.111
33.095
33.075
33.052
33.026
32.998
32.968
32.939
32.911
32.883
32.857
32.832
32.809
32.79
32.776
32.769
32.771
32.788
32.822
32.878
32.959
33.068
33.208
33.377
33.577
33.804
34.056
34.329
34.618
34.92
35.232
35.55
35.87
36.188
36.501
36.805
37.095
37.367
37.62
37.852
38.062
38.25
38.416
38.561
38.685
38.789
38.873
38.938
38.986
39.02
39.041
39.053
39.057
39.053
39.042
39.023
38.999
38.967
38.931
38.891
38.848
38.805
38.762
38.72
38.68
38.641
38.604
38.568
38.533
38.498
38.461
38.424
38.385
38.344
38.3
38.251
38.197
38.137
38.071
37.999
37.921
37.839
37.753
37.664
37.574
37.484
37.396
37.31
37.228
37.152
37.082
37.019
36.962
36.912
36.87
36.833
36.801
36.772
36.745
36.718
36.692
36.666
36.64
36.615
36.589
36.564
36.537
36.509
36.479
36.448
36.415
36.38
36.344
36.308
36.271
36.233
36.196
36.158
36.121
36.083
36.044
36.003
35.961
35.915
35.867
35.816
35.763
35.707
35.649
35.589
35.529
35.467
35.406
35.344
35.283
35.223
35.165
35.108
35.053
35.0
34.949
34.901
34.855
34.811
34.768
34.727
34.686
34.646
34.605
34.565
34.526
34.487
34.45
34.414
34.379
34.344
34.31
34.275
34.24
34.205
34.171
34.136
34.102
34.069
34.037
34.008
33.98
33.955
33.932
33.91
33.891
33.874
33.86
33.847
33.836
33.826
33.816
33.805
33.792
33.778
33.761
33.742
33.722
33.701
33.68
33.659
33.639
33.619
33.599
33.578
33.557
33.534
33.509
33.484
33.458
33.432
33.405
33.379
33.354
33.33
33.308
33.288
33.271
33.255
33.242
33.228
33.215
33.202
33.189
33.175
33.16
33.145
33.128
33.11
33.09
33.07
33.048
33.027
33.005
32.984
32.963
32.943
32.923
32.903
32.882
32.86
32.838
32.815
32.793
32.771
32.75
32.731
32.715
32.702
32.692
32.688
32.689
32.699
32.719
32.753
32.803
32.873
32.965
33.084
33.23
33.406
33.612
33.846
34.106
34.39
34.691
35.005
35.326
35.65
35.971
36.287
36.594
36.889
37.17
37.434
37.68
37.906
38.11
38.292
38.453
38.593
38.713
38.814
38.896
38.961
39.008
39.038
39.053
39.055
39.046
39.027
39.002
38.973
38.94
38.905
38.867
38.828
38.787
38.746
38.704
38.663
38.624
38.586
38.549
38.512
38.476
38.44
38.404
38.367
38.329
38.288
38.243
38.194
38.138
38.077
38.009
37.936
37.857
37.775
37.689
37.601
37.511
37.421
37.332
37.245
37.16
37.079
37.003
36.934
36.871
36.814
36.763
36.716
36.671
36.628
36.586
36.546
36.506
36.468
36.432
36.4
36.37
36.343
36.319
36.296
36.274
36.251
36.227
36.202
36.176
36.149
36.122
36.096
36.068
36.04
36.011
35.979
35.945
35.908
35.869
35.828
35.785
35.738
35.689
35.635
35.578
35.518
35.454
35.388
35.321
35.255
35.188
35.123
35.059
34.997
34.936
34.879
34.823
34.77
34.721
34.676
34.634
34.596
34.561
34.529
34.498
34.469
34.439
34.408
34.376
34.342
34.306
34.27
34.235
34.2
34.167
34.134
34.103
34.072
34.043
34.014
33.985
33.956
33.928
33.901
33.875
33.853
33.833
33.816
33.801
33.787
33.774
33.761
33.746
33.731
33.715
33.699
33.683
33.667
33.651
33.635
33.618
33.601
33.582
33.562
33.542
33.523
33.504
33.486
33.469
33.453
33.438
33.422
33.406
33.389
33.371
33.351
33.331
33.311
33.29
33.27
33.252
33.235
33.22
33.206
33.192
33.177
33.158
33.137
33.113
33.085
33.054
33.021
32.989
32.959
32.932
32.908
32.888
32.871
32.857
32.845
32.835
32.825
32.815
32.808
32.805
32.808
32.821
32.848
32.892
32.957
33.046
33.159
33.299
33.464
33.656
33.873
34.115
34.378
34.661
34.958
35.267
35.584
35.903
36.219
36.527
36.824
37.107
37.372
37.618
37.844
38.048
38.231
38.393
38.534
38.655
38.755
38.837
38.901
38.949
38.982
39.002
39.012
39.014
39.01
39.0
38.986
38.968
38.947
38.921
38.893
38.86
38.825
38.788
38.748
38.707
38.663
38.619
38.572
38.524
38.474
38.423
38.369
38.315
38.259
38.203
38.145
38.083
38.017
37.946
37.871
37.79
37.705
37.616
37.524
37.431
37.338
37.248
37.162
37.081
37.004
36.934
36.871
36.815
36.766
36.726
36.694
36.669
36.65
36.635
36.624
36.614
36.604
36.595
36.585
36.575
36.562
36.548
36.533
36.514
36.494
36.47
36.444
36.414
36.382
36.348
36.311
36.272
36.232
36.189
36.145
36.099
36.051
36.001
35.949
35.896
35.842
35.786
35.729
35.669
35.607
35.543
35.477
35.411
35.344
35.279
35.217
35.158
35.104
35.054
35.008
34.965
34.924
34.885
34.847
34.807
34.767
34.728
34.688
34.65
34.613
34.577
34.543
34.51
34.477
34.445
34.412
34.379
34.348
34.317
34.289
34.262
34.237
34.214
34.193
34.173
34.154
34.135
34.116
34.095
34.072
34.05
34.028
34.008
33.989
33.972
33.958
33.945
33.933
33.921
33.909
33.897
33.883
33.868
33.853
33.838
33.823
33.807
33.792
33.776
33.759
33.741
33.72
33.698
33.673
33.649
33.631
33.62
33.617
33.619
33.624
33.629
33.631
33.627
33.616
33.596
33.568
33.533
33.492
33.447
33.399
33.35
33.302
33.255
33.21
33.169
33.134
33.104
33.081
33.066
33.062
33.071
33.094
33.135
33.196
33.279
33.387
33.521
33.68
33.866
34.076
34.31
34.566
34.841
35.13
35.432
35.741
36.053
36.365
36.673
36.971
37.257
37.528
37.782
38.016
38.231
38.425
38.6
38.755
38.89
39.005
39.102
39.18
39.242
39.287
39.318
39.337
39.344
39.341
39.329
39.308
39.282
39.249
39.213
39.173
39.132
39.09
39.049
39.008
38.967
38.927
38.887
38.846
38.806
38.766
38.725
38.685
38.643
38.601
38.558
38.511
38.459
38.401
38.337
38.266
38.188
38.104
38.015
37.922
37.827
37.73
37.634
37.541
37.449
37.362
37.28
37.203
37.131
37.066
37.007
36.953
36.906
36.864
36.826
36.792
36.761
36.732
36.705
36.679
36.653
36.628
36.603
36.579
36.556
36.531
36.505
36.478
36.45
36.421
36.391
36.361
36.329
36.296
36.262
36.227
36.189
36.15
36.108
36.064
36.017
35.969
35.918
35.865
35.809
35.75
35.688
35.624
35.557
35.49
35.423
35.358
35.297
35.239
35.185
35.133
35.084
35.037
34.99
34.944
34.897
34.85
34.803
34.757
34.714
34.673
34.634
34.597
34.561
34.527
34.493
34.459
34.425
34.391
34.357
34.325
34.295
34.268
34.245
34.224
34.205
34.189
34.176
34.168
34.162
34.157
34.152
34.147
34.141
34.132
34.121
34.107
34.088
34.066
34.038
34.006
33.969
33.929
33.887
33.845
33.803
33.764
33.728
33.697
33.67
33.648
33.63
33.617
33.606
33.596
33.587
33.577
33.568
33.557
33.546
33.533
33.518
33.501
33.482
33.462
33.439
33.415
33.389
33.362
33.335
33.307
33.279
33.251
33.224
33.198
33.174
33.152
33.131
33.111
33.092
33.074
33.057
33.039
33.021
33.001
32.98
32.96
32.941
32.926
32.916
32.917
32.929
32.956
33.001
33.067
33.156
33.27
33.41
33.579
33.775
33.999
34.248
34.521
34.814
35.123
35.445
35.775
36.107
36.437
36.76
37.073
37.373
37.655
37.918
38.159
38.376
38.568
38.736
38.88
39.002
39.104
39.186
39.251
39.3
39.335
39.356
39.367
39.368
39.362
39.35
39.332
39.309
39.282
39.251
39.215
39.175
39.133
39.088
39.042
38.996
38.951
38.906
38.86
38.812
38.762
38.709
38.654
38.597
38.539
38.48
38.419
38.357
38.294
38.228
38.159
38.087
38.012
37.933
37.851
37.767
37.681
37.593
37.504
37.415
37.327
37.241
37.157
37.077
37.003
36.934
36.871
36.814
36.762
36.714
36.67
36.63
36.594
36.562
36.533
36.507
36.483
36.461
36.441
36.421
36.4
36.379
36.358
36.335
36.311
36.284
36.255
36.223
36.187
36.145
36.099
36.048
35.993
35.934
35.874
35.812
35.749
35.688
35.627
35.568
35.511
35.454
35.398
35.343
35.287
35.233
35.179
35.127
35.076
35.027
34.98
34.932
34.884
34.836
34.788
34.742
34.699
34.658
34.619
34.584
34.551
34.52
34.49
34.46
34.429
34.398
34.365
34.331
34.297
34.263
34.231
34.201
34.174
34.15
34.129
34.109
34.091
34.073
34.056
34.039
34.023
34.006
33.988
33.97
33.95
33.93
33.909
33.886
33.862
33.837
33.811
33.783
33.755
33.727
33.7
33.675
33.652
33.63
33.611
33.594
33.577
33.56
33.541
33.521
33.501
33.479
33.455
33.431
33.406
33.379
33.353
33.327
33.302
33.28
33.26
33.244
33.23
33.219
33.21
33.202
33.193
33.183
33.169
33.153
33.133
33.109
33.083
33.056
33.028
33.0
32.972
32.945
32.918
32.892
32.867
32.842
32.817
32.794
32.772
32.753
32.736
32.72
32.707
32.695
32.686
32.681
32.682
32.69
32.71
32.746
32.8
32.876
32.978
33.107
33.266
33.453
33.668
33.909
34.172
34.455
34.755
35.067
35.388
35.712
36.034
36.35
36.656
36.949
37.225
37.483
37.72
37.936
38.129
38.299
38.447
38.571
38.674
38.755
38.817
38.863
38.893
38.911
38.919
38.918
38.907
38.889
38.863
38.831
38.795
38.757
38.716
38.675
38.632
38.589
38.545
38.5
38.455
38.41
38.365
38.321
38.278
38.236
38.193
38.15
38.105
38.055
38.002
37.943
37.881
37.814
37.744
37.67
37.593
37.515
37.435
37.353
37.269
37.185
37.102
37.019
36.938
36.86
36.784
36.712
36.645
36.583
36.527
36.476
36.43
36.39
36.355
36.326
36.301
36.281
36.264
36.249
36.236
36.225
36.215
36.204
36.192
36.177
36.159
36.137
36.11
36.078
36.043
36.003
35.96
35.913
35.863
35.812
35.759
35.706
35.654
35.601
35.549
35.496
35.443
35.389
35.335
35.28
35.227
35.174
35.122
35.071
35.022
34.973
34.924
34.876
34.831
34.79
34.752
34.717
34.683
34.65
34.616
34.582
34.546
34.509
34.471
34.431
34.387
34.342
34.295
34.246
34.198
34.151
34.108
34.069
34.035
34.007
33.984
33.964
33.948
33.933
33.919
33.904
33.889
33.873
33.857
33.84
33.822
33.805
33.788
33.771
33.756
33.74
33.725
33.708
33.69
33.669
33.646
33.622
33.597
33.572
33.549
33.527
33.507
33.489
33.473
33.46
33.448
33.438
33.429
33.421
33.413
33.405
33.395
33.385
33.372
33.358
33.342
33.325
33.306
33.287
33.266
33.244
33.22
33.196
33.171
33.146
33.121
33.096
33.072
33.047
33.023
33.0
32.978
32.957
32.936
32.917
32.898
32.88
32.86
32.841
32.821
32.801
32.782
32.764
32.748
32.733
32.723
32.72
32.725
32.743
32.776
32.825
32.893
32.982
33.093
33.229
33.391
33.58
33.795
34.036
34.298
34.577
34.87
35.172
35.477
35.782
36.082
36.371
36.647
36.908
37.152
37.377
37.581
37.765
37.927
38.069
38.192
38.297
38.384
38.457
38.514
38.559
38.59
38.611
38.621
38.62
38.61
38.592
38.566
38.534
38.497
38.457
38.413
38.366
38.317
38.267
38.215
38.164
38.113
38.063
38.013
37.964
37.914
37.862
37.809
37.755
37.698
37.639
37.577
37.51
37.438
37.362
37.281
37.197
37.111
37.024
36.939
36.857
36.779
36.706
36.639
36.578
36.523
36.473
36.428
36.389
36.355
36.327
36.304
36.284
36.266
36.249
36.233
36.217
36.2
36.182
36.164
36.145
36.126
36.107
36.089
36.071
36.053
36.035
36.016
35.995
35.971
35.946
35.917
35.885
35.85
35.813
35.773
35.732
35.688
35.644
35.598
35.55
35.5
35.449
35.396
35.342
35.287
35.231
35.176
35.121
35.066
35.011
34.955
34.898
34.84
34.782
34.725
34.669
34.615
34.564
34.517
34.473
34.434
34.398
34.364
34.33
34.297
34.263
34.229
34.197
34.166
34.138
34.113
34.091
34.072
34.056
34.041
34.026
34.011
33.997
33.982
33.967
33.953
33.94
33.928
33.916
33.904
33.889
33.871
33.849
33.824
33.796
33.764
33.731
33.699
33.668
33.641
33.617
33.596
33.579
33.564
33.551
33.539
33.527
33.516
33.504
33.493
33.483
33.474
33.465
33.456
33.447
33.437
33.425
33.411
33.394
33.375
33.353
33.33
33.306
33.282
33.257
33.231
33.204
33.176
33.148
33.121
33.095
33.07
33.046
33.023
33.001
32.98
32.96
32.941
32.921
32.901
32.88
32.859
32.839
32.821
32.806
32.794
32.786
32.784
32.788
32.8
32.822
32.859
32.914
32.991
33.094
33.225
33.387
33.581
33.805
34.057
34.333
34.629
34.941
35.263
35.593
35.926
36.259
36.586
36.904
37.207
37.493
37.757
38.0
38.22
38.416
38.589
38.74
38.869
38.979
39.069
39.141
39.196
39.235
39.261
39.275
39.279
39.276
39.264
39.246
39.222
39.194
39.162
39.126
39.085
39.042
38.996
38.949
38.903
38.859
38.816
38.774
38.732
38.689
38.647
38.604
38.561
38.517
38.471
38.423
38.37
38.314
38.254
38.19
38.12
38.046
37.968
37.886
37.802
37.715
37.628
37.54
37.453
37.366
37.281
37.2
37.122
37.05
36.982
36.919
36.861
36.808
36.759
36.714
36.673
36.637
36.606
36.578
36.555
36.534
36.515
36.496
36.476
36.454
36.43
36.405
36.379
36.352
36.324
36.295
36.264
36.229
36.191
36.149
36.103
36.054
36.003
35.95
35.896
35.841
35.783
35.723
35.661
35.597
35.533
35.468
35.405
35.343
35.282
35.223
35.164
35.106
35.048
34.991
34.934
34.88
34.828
34.779
34.732
34.687
34.643
34.6
34.558
34.517
34.476
34.438
34.402
34.369
34.341
34.316
34.294
34.273
34.253
34.232
34.21
34.188
34.166
34.144
34.124
34.105
34.087
34.071
34.053
34.036
34.019
34.002
33.987
33.972
33.958
33.944
33.93
33.914
33.898
33.88
33.861
33.84
33.816
33.79
33.763
33.735
33.708
33.683
33.658
33.633
33.608
33.582
33.555
33.527
33.497
33.468
33.439
33.41
33.383
33.357
33.333
33.309
33.287
33.265
33.243
33.222
33.2
33.178
33.156
33.136
33.116
33.098
33.08
33.063
33.046
33.029
33.011
32.993
32.974
32.955
32.935
32.914
32.891
32.866
32.84
32.812
32.784
32.756
32.728
32.703
32.681
32.666
32.662
32.671
32.698
32.745
32.815
32.909
33.03
33.18
33.357
33.562
33.795
34.053
34.333
34.631
34.943
35.266
35.596
35.926
36.254
36.575
36.884
37.179
37.457
37.713
37.947
38.155
38.339
38.499
38.635
38.75
38.843
38.918
38.976
39.019
39.049
39.068
39.077
39.077
39.069
39.054
39.031
39.002
38.968
38.929
38.888
38.845
38.802
38.759
38.715
38.672
38.627
38.583
38.538
38.495
38.453
38.413
38.373
38.332
38.29
38.245
38.196
38.142
38.083
38.019
37.951
37.878
37.8
37.719
37.632
37.542
37.449
37.353
37.256
37.16
37.067
36.979
36.897
36.82
36.748
36.682
36.621
36.566
36.517
36.473
36.435
36.402
36.373
36.347
36.323
36.301
36.28
36.258
36.236
36.212
36.187
36.161
36.133
36.103
36.071
36.037
36.001
35.963
35.923
35.881
35.839
35.794
35.748
35.699
35.648
35.594
35.537
35.477
35.414
35.349
35.284
35.218
35.152
35.088
35.026
34.967
34.912
34.86
34.81
34.763
34.717
34.672
34.627
34.583
34.539
34.495
34.452
34.412
34.375
34.34
34.308
34.279
34.25
34.224
34.198
34.172
34.147
34.122
34.097
34.073
34.051
34.029
34.007
33.984
33.96
33.935
33.908
33.879
33.849
33.818
33.788
33.76
33.733
33.709
33.687
33.666
33.646
33.627
33.608
33.589
33.57
33.55
33.53
33.508
33.486
33.463
33.439
33.415
33.391
33.369
33.348
33.33
33.312
33.296
33.279
33.262
33.244
33.226
33.206
33.184
33.161
33.135
33.108
33.08
33.05
33.021
32.992
32.963
32.934
32.907
32.881
32.857
32.836
32.818
32.802
32.789
32.779
32.77
32.763
32.756
32.749
32.739
32.729
32.715
32.7
32.682
32.663
32.643
32.621
32.599
32.576
32.554
32.534
32.515
32.499
32.488
32.485
32.492
32.513
32.552
32.613
32.698
32.809
32.948
33.115
33.309
33.528
33.77
34.032
34.311
34.602
34.902
35.206
35.51
35.809
36.099
36.377
36.641
36.888
37.116
37.325
37.514
37.682
37.831
37.96
38.069
38.16
38.233
38.29
38.332
38.36
38.377
38.384
38.382
38.373
38.357
38.338
38.316
38.291
38.264
38.234
38.203
38.171
38.137
38.104
38.069
38.035
38.0
37.965
37.93
37.894
37.856
37.815
37.772
37.727
37.679
37.628
37.574
37.516
37.454
37.387
37.317
37.243
37.167
37.09
37.013
36.936
36.86
36.785
36.712
36.64
36.571
36.504
36.44
36.381
36.326
36.275
36.229
36.188
36.151
36.118
36.088
36.062
36.039
36.018
35.998
35.979
35.959
35.938
35.915
35.89
35.862
35.831
35.798
35.763
35.727
35.69
35.653
35.615
35.576
35.535
35.493
35.45
35.406
35.362
35.318
35.273
35.228
35.181
35.134
35.085
35.036
34.986
34.933
34.88
34.825
34.77
34.714
34.658
34.603
34.547
34.493
34.44
34.389
34.34
34.294
34.251
34.212
34.176
34.142
34.111
34.081
34.055
34.031
34.009
33.99
33.972
33.956
33.94
33.923
33.905
33.885
33.864
33.839
33.813
33.786
33.757
33.728
33.699
33.67
33.642
33.614
33.586
33.559
33.533
33.509
33.486
33.463
33.442
33.422
33.402
33.382
33.363
33.344
33.326
33.309
33.292
33.275
33.258
33.24
33.22
33.2
33.179
33.158
33.139
33.12
33.102
33.084
33.067
33.051
33.034
33.017
32.998
32.978
32.957
32.934
32.911
32.888
32.866
32.846
32.827
32.811
32.796
32.78
32.764
32.747
32.727
32.705
32.681
32.657
32.633
32.61
32.589
32.57
32.552
32.535
32.517
32.499
32.478
32.457
32.435
32.415
32.396
32.381
32.37
32.367
32.371
32.386
32.414
32.457
32.517
32.597
32.699
32.824
32.975
33.153
33.356
33.583
33.83
34.095
34.371
34.656
34.944
35.232
35.515
35.79
36.053
36.302
36.532
36.744
36.935
37.104
37.253
37.381
37.491
37.583
37.66
37.723
37.773
37.81
37.837
37.854
37.864
37.866
37.864
37.858
37.849
37.837
37.822
37.805
37.786
37.764
37.741
37.715
37.686
37.655
37.622
37.588
37.553
37.517
37.482
37.446
37.409
37.37
37.328
37.284
37.237
37.185
37.131
37.073
37.011
36.946
36.878
36.807
36.735
36.663
36.593
36.526
36.463
36.404
36.35
36.3
36.254
36.211
36.173
36.139
36.109
36.082
36.058
36.037
36.019
36.002
35.987
35.973
35.959
35.945
35.93
35.915
35.899
35.881
35.86
35.838
35.813
35.786
35.758
35.728
35.696
35.662
35.626
35.587
35.546
35.503
35.458
35.412
35.366
35.32
35.274
35.228
35.181
35.135
35.087
35.039
34.99
34.938
34.885
34.832
34.779
34.727
34.677
34.63
34.584
34.54
34.497
34.454
34.412
34.371
34.332
34.296
34.263
34.233
34.207
