Trial 3:3back
36.934
36.909
36.883
36.855
36.826
36.795
36.762
36.727
36.691
36.654
36.615
36.573
36.529
36.482
36.432
36.379
36.323
36.263
36.198
36.13
36.059
35.987
35.914
35.841
35.769
35.697
35.624
35.552
35.48
35.408
35.335
35.262
35.189
35.117
35.046
34.977
34.908
34.84
34.772
34.704
34.635
34.567
34.499
34.431
34.363
34.296
34.229
34.162
34.097
34.032
33.968
33.904
33.841
33.778
33.718
33.661
33.605
33.551
33.499
33.448
33.397
33.346
33.295
33.244
33.192
33.142
33.093
33.045
32.998
32.952
32.908
32.867
32.828
32.79
32.753
32.716
32.68
32.645
32.611
32.578
32.546
32.516
32.489
32.464
32.442
32.422
32.403
32.382
32.359
32.333
32.302
32.267
32.228
32.185
32.141
32.094
32.048
32.004
31.96
31.918
31.878
31.841
31.806
31.773
31.744
31.717
31.692
31.667
31.642
31.615
31.588
31.563
31.54
31.521
31.51
31.508
31.518
31.544
31.589
31.657
31.75
31.869
32.019
32.2
32.415
32.664
32.947
33.262
33.607
33.98
34.378
34.795
35.227
35.667
36.11
36.55
36.983
37.404
37.807
38.189
38.545
38.873
39.169
39.434
39.669
39.872
40.046
40.192
40.312
40.409
40.483
40.538
40.575
40.597
40.606
40.603
40.588
40.564
40.532
40.493
40.45
40.402
40.351
40.298
40.243
40.186
40.128
40.072
40.016
39.961
39.907
39.853
39.798
39.742
39.684
39.624
39.562
39.498
39.432
39.363
39.291
39.215
39.132
39.045
38.953
38.856
38.757
38.657
38.556
38.457
38.359
38.263
38.172
38.085
38.004
37.928
37.858
37.792
37.73
37.672
37.619
37.569
37.522
37.477
37.433
37.391
37.352
37.314
37.278
37.243
37.208
37.175
37.142
37.11
37.077
37.043
37.007
36.968
36.926
36.881
36.833
36.78
36.723
36.661
36.596
36.527
36.455
36.381
36.304
36.224
36.143
36.061
35.977
35.893
35.809
35.727
35.646
35.569
35.495
35.423
35.353
35.283
35.215
35.148
35.083
35.017
34.951
34.885
34.819
34.752
34.685
34.621
34.557
34.494
34.432
34.37
34.311
34.252
34.195
34.139
34.083
34.028
33.974
33.923
33.873
33.825
33.778
33.731
33.684
33.638
33.592
33.546
33.499
33.453
33.405
33.358
33.311
33.265
33.219
33.174
33.129
33.085
33.042
32.999
32.956
32.914
32.872
32.83
32.789
32.749
32.709
32.67
32.633
32.597
32.562
32.529
32.498
32.467
32.438
32.411
32.385
32.359
32.333
32.307
32.281
32.254
32.224
32.193
32.158
32.122
32.084
32.044
32.004
31.965
31.927
31.892
31.86
31.83
31.802
31.776
31.753
31.732
31.715
31.703
31.698
31.702
31.717
31.747
31.795
31.865
31.959
32.081
32.231
32.414
32.629
32.879
33.162
33.477
33.822
34.193
34.586
34.998
35.421
35.852
36.284
36.713
37.135
37.544
37.937
38.311
38.662
38.988
39.287
39.557
39.799
40.012
40.195
40.35
40.478
40.578
40.654
40.706
40.738
40.752
40.751
40.737
40.713
40.681
40.643
40.6
40.555
40.507
40.458
40.409
40.361
40.313
40.266
40.22
40.176
40.132
40.09
40.047
40.001
39.953
39.9
39.843
39.779
39.71
39.635
39.555
39.469
39.379
39.284
39.185
39.083
38.979
38.874
38.769
38.665
38.564
38.466
38.372
38.284
38.201
38.123
38.051
37.984
37.921
37.863
37.81
37.761
37.717
37.676
37.637
37.6
37.562
37.522
37.48
37.436
37.389
37.341
37.294
37.247
37.2
37.155
37.111
37.068
37.027
36.987
36.947
36.905
36.861
36.814
36.763
36.71
36.652
36.589
36.522
36.452
36.38
36.306
36.23
36.153
36.074
35.995
35.916
35.837
35.758
35.679
35.599
35.521
35.444
35.37
35.298
35.23
35.164
35.101
35.04
34.981
34.923
34.865
34.805
34.743
34.68
34.616
34.551
34.487
34.424
34.361
34.3
34.24
34.182
34.125
34.069
34.013
33.956
33.899
33.842
33.787
33.734
33.683
33.634
33.588
33.544
33.502
33.462
33.424
33.386
33.348
33.308
33.266
33.222
33.176
33.13
33.082
33.034
32.986
32.939
32.892
32.848
32.806
32.769
32.736
32.706
32.678
32.65
32.622
32.594
32.565
32.535
32.504
32.472
32.44
32.409
32.379
32.351
32.325
32.301
32.279
32.257
32.236
32.215
32.194
32.173
32.152
32.132
32.114
32.098
32.089
32.087
32.096
32.12
32.161
32.224
32.31
32.422
32.563
32.736
32.942
33.179
33.449
33.749
34.077
34.429
34.801
35.188
35.586
35.989
36.392
36.788
37.174
37.544
37.896
38.226
38.533
38.814
39.068
39.296
39.497
39.672
39.823
39.95
40.053
40.133
40.192
40.23
40.251
40.257
40.249
40.23
40.201
40.164
40.118
40.065
40.008
39.947
39.885
39.823
39.761
39.7
39.639
39.579
39.519
39.459
39.4
39.339
39.277
39.213
39.145
39.075
39.001
38.924
38.843
38.758
38.669
38.577
38.481
38.383
38.285
38.186
38.09
37.997
37.907
37.821
37.739
37.661
37.59
37.523
37.462
37.406
37.354
37.305
37.258
37.213
37.17
37.129
37.089
37.05
37.01
36.97
36.93
36.89
36.851
36.811
36.77
36.725
36.682
36.645
36.615
36.592
36.572
36.551
36.526
36.494
36.453
36.402
36.341
36.272
36.195
36.111
36.023
35.931
35.838
35.745
35.654
35.564
35.474
35.385
35.297
35.211
35.127
35.046
34.968
34.894
34.824
34.76
34.7
34.645
34.592
34.54
34.487
34.433
34.377
34.32
34.261
34.202
34.143
34.085
34.029
33.976
33.926
33.88
33.837
33.796
33.757
33.718
33.679
33.64
33.599
33.557
33.513
33.469
33.424
33.381
33.339
33.299
33.261
33.226
33.193
33.161
33.13
33.097
33.062
33.026
32.988
32.949
32.91
32.872
32.835
32.8
32.768
32.739
32.713
32.688
32.664
32.64
32.615
32.588
32.559
32.526
32.49
32.452
32.414
32.377
32.343
32.315
32.295
32.287
32.294
32.319
32.367
32.439
32.537
32.663
32.819
33.005
33.221
33.467
33.741
34.042
34.368
34.716
35.082
35.463
35.854
36.251
36.65
37.044
37.429
37.799
38.152
38.483
38.791
39.074
39.33
39.559
39.76
39.932
40.077
40.195
40.289
40.361
40.412
40.445
40.463
40.466
40.457
40.437
40.408
40.371
40.327
40.278
40.224
40.166
40.107
40.047
39.987
39.928
39.871
39.814
39.756
39.698
39.638
39.575
39.51
39.442
39.371
39.298
39.221
39.14
39.055
38.965
38.872
38.775
38.675
38.573
38.469
38.364
38.261
38.16
38.061
37.967
37.877
37.791
37.71
37.632
37.559
37.49
37.425
37.366
37.312
37.264
37.222
37.184
37.148
37.115
37.082
37.049
37.016
36.982
36.947
36.911
36.873
36.833
36.791
36.747
36.701
36.653
36.602
36.548
36.489
36.427
36.361
36.292
36.22
36.146
36.071
35.995
35.921
35.847
35.774
35.702
35.628
35.552
35.473
35.39
35.306
35.22
35.133
35.048
34.965
34.886
34.809
34.737
34.668
34.602
34.537
34.473
34.409
34.345
34.279
34.213
34.147
34.082
34.019
33.958
33.899
33.843
33.789
33.737
33.686
33.636
33.587
33.536
33.484
33.432
33.378
33.324
33.268
33.213
33.158
33.104
33.054
33.007
32.964
32.924
32.887
32.853
32.821
32.79
32.759
32.728
32.696
32.663
32.631
32.598
32.567
32.535
32.503
32.471
32.439
32.407
32.375
32.341
32.306
32.269
32.23
32.19
32.148
32.104
32.059
32.014
31.967
31.921
31.875
31.83
31.788
31.749
31.715
31.685
31.658
31.636
31.619
31.607
31.601
31.604
31.616
31.64
31.68
31.737
31.818
31.925
32.061
32.23
32.434
32.673
32.945
33.251
33.588
33.951
34.337
34.739
35.153
35.573
35.993
36.41
36.817
37.209
37.584
37.937
38.269
38.575
38.853
39.102
39.321
39.51
39.672
39.807
39.916
40.004
40.07
40.117
40.149
40.165
40.169
40.163
40.149
40.128
40.102
40.072
40.039
40.005
39.971
39.936
39.901
39.864
39.826
39.786
39.745
39.702
39.659
39.614
39.567
39.517
39.462
39.401
39.333
39.26
39.181
39.098
39.009
38.915
38.817
38.715
38.611
38.504
38.396
38.289
38.181
38.075
37.97
37.868
37.768
37.671
37.577
37.488
37.403
37.325
37.254
37.188
37.127
37.071
37.018
36.968
36.921
36.876
36.832
36.79
36.749
36.709
36.669
36.63
36.59
36.548
36.503
36.454
36.401
36.345
36.285
36.221
36.155
36.086
36.015
35.942
35.868
35.791
35.712
35.629
35.542
35.452
35.359
35.263
35.165
35.067
34.971
34.876
34.786
34.7
34.618
34.54
34.464
34.388
34.312
34.235
34.158
34.08
34.001
33.922
33.843
33.766
33.691
33.619
33.551
33.486
33.424
33.365
33.308
33.254
33.2
33.147
33.094
33.039
32.983
32.926
32.869
32.812
32.756
32.703
32.653
32.605
32.561
32.522
32.486
32.452
32.419
32.386
32.35
32.311
32.271
32.228
32.183
32.135
32.086
32.034
31.982
31.931
31.881
31.832
31.786
31.743
31.702
31.663
31.625
31.588
31.551
31.516
31.483
31.453
31.424
31.398
31.372
31.346
31.319
31.291
31.262
31.23
31.197
31.163
31.128
31.091
31.053
31.015
30.974
30.933
30.889
30.844
30.797
30.749
30.701
30.653
30.607
30.563
30.521
30.484
30.452
30.426
30.409
30.401
30.406
30.426
30.463
30.521
30.601
30.705
30.836
30.994
31.182
31.4
31.649
31.926
32.231
32.562
32.916
33.292
33.683
34.085
34.492
34.899
35.3
35.691
36.068
36.428
36.767
37.083
37.373
37.638
37.879
38.095
38.287
38.456
38.604
38.73
38.835
38.922
38.99
39.043
39.08
39.104
39.114
39.112
39.099
39.077
39.048
39.015
38.979
38.942
38.904
38.868
38.835
38.805
38.776
38.748
38.72
38.691
38.66
38.627
38.59
38.549
38.501
38.447
38.388
38.322
38.251
38.175
38.094
38.008
37.919
37.827
37.733
37.639
37.547
37.458
37.372
37.288
37.208
37.13
37.055
36.984
36.917
36.853
36.793
36.736
36.682
36.631
36.584
36.539
36.498
36.458
36.422
36.391
36.365
36.344
36.325
36.306
36.284
36.258
36.226
36.19
36.147
36.099
36.045
35.986
35.921
35.852
35.779
35.704
35.625
35.545
35.464
35.383
35.302
35.222
35.143
35.063
34.984
34.904
34.824
34.744
34.663
34.582
34.501
34.419
34.339
34.261
34.184
34.108
34.034
33.961
33.889
33.82
33.751
33.684
33.619
33.556
33.496
33.438
33.382
33.327
33.273
33.22
33.169
33.119
33.069
33.021
32.973
32.927
32.881
32.836
32.793
32.75
32.708
32.667
32.627
32.587
32.547
32.507
32.465
32.422
32.379
32.336
32.294
32.252
32.211
32.172
32.133
32.097
32.062
32.029
31.996
31.965
31.935
31.906
31.879
31.854
31.83
31.807
31.784
31.761
31.737
31.712
31.685
31.656
31.626
31.594
31.561
31.527
31.492
31.457
31.422
31.388
31.354
31.321
31.289
31.257
31.227
31.198
31.17
31.144
31.118
31.091
31.063
31.034
31.002
30.968
30.931
30.893
30.855
30.816
30.778
30.742
30.707
30.675
30.646
30.62
30.598
30.579
30.564
30.554
30.549
30.553
30.566
30.591
30.632
30.692
30.774
30.881
31.016
31.181
31.376
31.601
31.856
32.141
32.452
32.786
33.141
33.513
33.897
34.29
34.687
35.085
35.477
35.859
36.227
36.578
36.909
37.216
37.5
37.758
37.99
38.196
38.376
38.532
38.665
38.777
38.871
38.948
39.009
39.056
39.091
39.113
39.126
39.13
39.128
39.121
39.11
39.095
39.077
39.056
39.034
39.01
38.985
38.959
38.93
38.9
38.867
38.834
38.798
38.761
38.721
38.677
38.63
38.579
38.522
38.459
38.39
38.314
38.232
38.144
38.051
37.952
37.85
37.746
37.642
37.54
37.439
37.342
37.25
37.163
37.084
37.011
36.945
36.885
36.831
36.783
36.74
36.701
36.665
36.632
36.6
36.569
36.539
36.508
36.477
36.444
36.41
36.373
36.336
36.298
36.26
36.219
36.177
36.133
36.085
36.036
35.983
35.928
35.871
35.811
35.749
35.686
35.62
35.552
35.482
35.408
35.332
35.254
35.173
35.091
35.008
34.925
34.842
34.761
34.682
34.605
34.53
34.456
34.382
34.31
34.238
34.169
34.1
34.034
33.969
33.905
33.841
33.778
33.715
33.653
33.59
33.529
33.467
33.406
33.345
33.283
33.221
33.16
33.099
33.039
32.98
32.923
32.868
32.814
32.762
32.711
32.663
32.616
32.571
32.527
32.484
32.441
32.4
32.358
32.317
32.276
32.234
32.192
32.151
32.111
32.074
32.038
32.005
31.974
31.945
31.917
31.891
31.867
31.844
31.821
31.799
31.776
31.753
31.729
31.703
31.677
31.647
31.616
31.583
31.55
31.516
31.483
31.45
31.419
31.389
31.36
31.331
31.303
31.275
31.248
31.221
31.194
31.167
31.141
31.115
31.09
31.067
31.045
31.024
31.003
30.983
30.962
30.941
30.918
30.892
30.864
30.833
30.8
30.764
30.727
30.692
30.657
30.626
30.599
30.579
30.57
30.572
30.589
30.624
30.678
30.753
30.853
30.979
31.132
31.314
31.525
31.766
32.037
32.336
32.661
33.008
33.374
33.755
34.146
34.544
34.944
35.341
35.732
36.111
36.476
36.824
37.152
37.458
37.741
37.998
38.229
38.432
38.608
38.758
38.884
38.989
39.074
39.142
39.195
39.234
39.261
39.278
39.286
39.287
39.281
39.268
39.25
39.227
39.201
39.171
39.14
39.107
39.074
39.04
39.007
38.973
38.938
38.901
38.862
38.82
38.774
38.725
38.67
38.611
38.545
38.475
38.399
38.318
38.233
38.146
38.057
37.966
37.875
37.783
37.691
37.6
37.512
37.426
37.345
37.269
37.198
37.133
37.073
37.02
36.973
36.93
36.892
36.857
36.826
36.799
36.774
36.752
36.731
36.711
36.692
36.671
36.65
36.628
36.605
36.581
36.556
36.528
36.495
36.458
36.416
36.369
36.318
36.263
36.203
36.139
36.07
35.998
35.923
35.848
35.772
35.696
35.62
35.545
35.471
35.397
35.324
35.251
35.178
35.103
35.029
34.957
34.886
34.816
34.747
34.679
34.61
34.541
34.471
34.402
34.332
34.263
34.195
34.127
34.061
33.995
33.931
33.867
33.805
33.744
33.683
33.623
33.564
33.507
33.452
33.399
33.348
33.298
33.249
33.201
33.155
33.11
33.066
33.023
32.981
32.94
32.9
32.863
32.828
32.795
32.764
32.733
32.704
32.676
32.648
32.621
32.594
32.568
32.543
32.518
32.494
32.47
32.446
32.423
32.399
32.375
32.35
32.323
32.293
32.262
32.23
32.197
32.164
32.13
32.096
32.062
32.028
31.995
31.963
31.931
31.899
31.868
31.837
31.806
31.775
31.745
31.714
31.683
31.651
31.62
31.59
31.56
31.53
31.502
31.474
31.449
31.427
31.41
31.401
31.404
31.421
31.457
31.513
31.593
31.701
31.838
32.008
32.21
32.443
32.707
32.999
33.317
33.658
34.016
34.388
34.768
35.151
35.534
35.911
36.28
36.635
36.974
37.294
37.592
37.867
38.118
38.344
38.545
38.723
38.876
39.007
39.116
39.204
39.274
39.327
39.365
39.39
39.402
39.403
39.394
39.376
39.351
39.319
39.282
39.241
39.195
39.146
39.096
39.045
38.994
38.944
38.895
38.846
38.797
38.749
38.7
38.649
38.594
38.535
38.47
38.398
38.319
38.234
38.143
38.047
37.947
37.846
37.743
37.641
37.54
37.441
37.343
37.249
37.16
37.076
36.999
36.93
36.868
36.814
36.766
36.724
36.685
36.651
36.618
36.587
36.556
36.525
36.495
36.466
36.437
36.409
36.382
36.354
36.327
36.299
36.271
36.24
36.207
36.171
36.132
36.09
36.046
36.0
35.951
35.899
35.844
35.786
35.726
35.663
35.598
35.53
35.459
35.386
35.311
35.233
35.154
35.072
34.988
34.904
34.82
34.738
34.656
34.574
34.494
34.414
34.335
34.258
34.182
34.106
34.032
33.958
33.887
33.819
33.754
33.692
33.632
33.573
33.516
33.459
33.404
33.349
33.293
33.236
33.178
33.12
33.062
33.006
32.951
32.897
32.845
32.796
32.751
32.709
32.67
32.634
32.601
32.57
32.541
32.513
32.486
32.459
32.431
32.402
32.371
32.339
32.305
32.271
32.236
32.203
32.171
32.141
32.114
32.09
32.069
32.05
32.034
32.018
32.002
31.984
31.963
31.938
31.91
31.878
31.843
31.805
31.766
31.726
31.686
31.646
31.608
31.572
31.539
31.507
31.477
31.447
31.418
31.388
31.358
31.328
31.298
31.268
31.238
31.208
31.179
31.153
31.133
31.119
31.115
31.12
31.139
31.172
31.222
31.293
31.387
31.507
31.654
31.83
32.036
32.273
32.541
32.838
33.163
33.512
33.882
34.268
34.668
35.075
35.484
35.89
36.287
36.672
37.04
37.39
37.717
38.022
38.303
38.558
38.787
38.99
39.168
39.322
39.452
39.559
39.647
39.716
39.769
39.808
39.836
39.855
39.865
39.867
39.86
39.845
39.824
39.797
39.766
39.731
39.693
39.653
39.612
39.571
39.529
39.486
39.442
39.396
39.349
39.299
39.247
39.192
39.133
39.069
38.999
38.921
38.836
38.744
38.646
38.544
38.438
38.331
38.223
38.116
38.011
37.908
37.808
37.713
37.622
37.535
37.454
37.378
37.307
37.242
37.182
37.127
37.077
37.033
36.994
36.96
36.93
36.902
36.875
36.848
36.82
36.79
36.76
36.73
36.7
36.67
36.639
36.609
36.578
36.546
36.51
36.471
36.427
36.381
36.33
36.277
36.221
36.163
36.101
36.037
35.97
35.9
35.827
35.752
35.676
35.601
35.525
35.45
35.375
35.301
35.225
35.149
35.072
34.994
34.916
34.837
34.757
34.678
34.599
34.519
34.441
34.362
34.285
34.209
34.135
34.063
33.993
33.925
33.861
33.799
33.739
33.681
33.623
33.564
33.505
33.445
33.384
33.323
33.262
33.203
33.146
33.093
33.043
32.996
32.953
32.914
32.877
32.842
32.808
32.774
32.74
32.705
32.67
32.633
32.596
32.559
32.522
32.488
32.455
32.425
32.397
32.371
32.347
32.324
32.301
32.278
32.255
32.23
32.203
32.173
32.14
32.106
32.07
32.034
31.998
31.961
31.924
31.889
31.855
31.823
31.792
31.761
31.73
31.698
31.665
31.631
31.596
31.562
31.529
31.496
31.463
31.429
31.394
31.359
31.323
31.286
31.246
31.201
31.151
31.098
31.045
30.996
30.957
30.931
30.922
30.936
30.976
31.044
31.143
31.276
31.445
31.652
31.896
32.176
32.492
32.838
33.213
33.61
34.025
34.452
34.886
35.322
35.756
36.184
36.602
37.008
37.398
37.769
38.118
38.442
38.741
39.011
39.254
39.47
39.661
39.826
39.968
40.088
40.186
40.265
40.327
40.372
40.402
40.418
40.422
40.416
40.401
40.38
40.354
40.324
40.293
40.259
40.224
40.187
40.148
40.108
40.065
40.021
39.976
39.929
39.88
39.828
39.773
39.713
39.648
39.576
39.499
39.417
39.331
39.24
39.146
39.048
38.946
38.839
38.729
38.616
38.504
38.393
38.285
38.183
38.088
38.001
37.922
37.851
37.787
37.73
37.679
37.632
37.59
37.551
37.515
37.482
37.452
37.423
37.397
37.371
37.347
37.321
37.295
37.266
37.235
37.2
37.162
37.12
37.075
37.028
36.98
36.932
36.882
36.831
36.778
36.723
36.664
36.6
36.533
36.462
36.389
36.312
36.234
36.153
36.07
35.986
35.901
35.815
35.727
35.638
35.548
35.456
35.364
35.271
35.178
35.087
34.999
34.914
34.832
34.754
34.68
34.607
34.535
34.465
34.395
34.324
34.252
34.18
34.108
34.038
33.97
33.906
33.844
33.784
33.728
33.674
33.623
33.574
33.527
33.481
33.435
33.388
33.34
33.292
33.243
33.194
33.143
33.093
33.045
32.999
32.956
32.915
32.879
32.845
32.814
32.785
32.757
32.728
32.699
32.668
32.634
32.599
32.561
32.522
32.482
32.443
32.406
32.371
32.339
32.31
32.284
32.26
32.237
32.214
32.19
32.165
32.138
32.108
32.077
32.044
32.011
31.977
31.944
31.912
31.882
31.853
31.826
31.802
31.779
31.755
31.731
31.703
31.673
31.64
31.604
31.565
31.524
31.481
31.436
31.391
31.347
31.305
31.267
31.232
31.202
31.175
31.153
31.134
31.121
31.114
31.113
31.122
31.141
31.174
31.224
31.294
31.387
31.508
31.66
31.845
32.065
32.321
32.613
32.94
33.299
33.686
34.097
34.526
34.968
35.417
35.868
36.315
36.754
37.179
37.587
37.974
38.34
38.68
38.994
39.279
39.534
39.759
39.954
40.121
40.261
40.375
40.466
40.535
40.585
40.616
40.631
40.63
40.616
40.592
40.56
40.52
40.475
40.426
40.375
40.32
40.264
40.207
40.148
40.089
40.029
39.97
39.909
39.848
39.787
39.725
39.662
39.595
39.524
39.448
39.368
39.285
39.199
39.112
39.023
38.934
38.843
38.752
38.659
38.564
38.469
38.374
38.282
38.192
38.106
38.025
37.95
37.881
37.819
37.762
37.708
37.658
37.61
37.563
37.52
37.48
37.442
37.407
37.375
37.343
37.311
37.279
37.246
37.212
37.176
37.139
37.099
37.058
37.015
36.97
36.923
36.873
36.819
36.762
36.701
36.637
36.569
36.498
36.424
36.349
36.273
36.196
36.12
36.045
35.971
35.896
35.822
35.747
35.67
35.591
35.511
35.43
