Trial 3:3back
30.548
30.497
30.448
30.4
30.353
30.307
30.259
30.211
30.163
30.115
30.068
30.024
29.981
29.939
29.899
29.86
29.821
29.782
29.744
29.706
29.669
29.632
29.597
29.565
29.538
29.516
29.502
29.499
29.51
29.54
29.597
29.69
29.828
30.022
30.282
30.619
31.039
31.548
32.144
32.823
33.574
34.385
35.238
36.111
36.986
37.84
38.657
39.418
40.109
40.72
41.243
41.675
42.015
42.265
42.432
42.521
42.541
42.5
42.408
42.275
42.111
41.924
41.723
41.516
41.308
41.106
40.913
40.731
40.562
40.408
40.265
40.134
40.01
39.893
39.78
39.671
39.564
39.457
39.349
39.238
39.124
39.006
38.884
38.756
38.623
38.484
38.335
38.175
38.007
37.834
37.659
37.485
37.318
37.158
37.01
36.873
36.75
36.64
36.543
36.46
36.388
36.328
36.279
36.24
36.209
36.185
36.168
36.156
36.147
36.142
36.138
36.136
36.134
36.132
36.128
36.121
36.111
36.096
36.076
36.052
36.021
35.984
35.942
35.896
35.844
35.788
35.728
35.663
35.594
35.521
35.443
35.36
35.271
35.177
35.079
34.978
34.873
34.764
34.652
34.537
34.42
34.302
34.181
34.06
33.938
33.817
33.698
33.582
33.469
33.36
33.254
33.151
33.051
32.953
32.856
32.76
32.665
32.57
32.476
32.382
32.289
32.196
32.103
32.012
31.921
31.833
31.747
31.664
31.584
31.506
31.43
31.355
31.278
31.193
31.097
30.993
30.883
30.771
30.663
30.563
30.474
30.399
30.339
30.293
30.26
30.238
30.224
30.216
30.21
30.205
30.198
30.186
30.169
30.146
30.116
30.08
30.038
29.992
29.942
29.89
29.835
29.78
29.726
29.672
29.619
29.565
29.51
29.455
29.4
29.347
29.299
29.256
29.224
29.206
29.208
29.238
29.304
29.418
29.59
29.831
30.15
30.553
31.042
31.619
32.28
33.015
33.813
34.658
35.534
36.42
37.297
38.145
38.946
39.684
40.346
40.922
41.407
41.797
42.093
42.299
42.423
42.471
42.453
42.379
42.259
42.104
41.922
41.722
41.51
41.292
41.072
40.856
40.647
40.446
40.255
40.075
39.907
39.751
39.605
39.47
39.341
39.216
39.093
38.971
38.846
38.719
38.588
38.453
38.313
38.169
38.021
37.867
37.71
37.55
37.387
37.223
37.06
36.899
36.745
36.598
36.46
36.331
36.212
36.103
36.003
35.913
35.831
35.757
35.692
35.634
35.585
35.543
35.509
35.481
35.458
35.44
35.425
35.412
35.399
35.385
35.37
35.354
35.335
35.313
35.288
35.257
35.22
35.178
35.127
35.068
35.002
34.929
34.851
34.768
34.683
34.596
34.507
34.417
34.326
34.232
34.137
34.039
33.939
33.836
33.732
33.626
33.518
33.408
33.297
33.185
33.071
32.959
32.847
32.739
32.633
32.535
32.451
32.381
32.323
32.272
32.224
32.175
32.121
32.059
31.988
31.906
31.811
31.706
31.591
31.469
31.342
31.212
31.083
30.958
30.838
30.726
30.621
30.524
30.433
30.349
30.272
30.2
30.133
30.071
30.014
29.96
29.909
29.86
29.814
29.769
29.726
29.684
29.642
29.599
29.556
29.51
29.463
29.414
29.364
29.314
29.264
29.215
29.167
29.119
29.073
29.027
28.981
28.935
28.887
28.84
28.795
28.754
28.719
28.693
28.682
28.693
28.737
28.822
28.962
29.169
29.453
29.824
30.289
30.848
31.501
32.243
33.062
33.947
34.878
35.836
36.801
37.751
38.667
39.529
40.32
41.028
41.643
42.16
42.576
42.893
43.116
43.251
43.308
43.295
43.225
43.107
42.951
42.767
42.564
42.348
42.127
41.905
41.687
41.474
41.268
41.071
40.883
40.702
40.53
40.365
40.207
40.056
39.909
39.765
39.623
39.483
39.344
39.205
39.066
38.925
38.783
38.639
38.494
38.346
38.196
38.045
37.893
37.741
37.591
37.443
37.298
37.158
37.024
36.896
36.773
36.657
36.546
36.443
36.347
36.259
36.179
36.107
36.044
35.991
35.945
35.906
35.874
35.846
35.822
35.8
35.779
35.759
35.739
35.72
35.698
35.674
35.646
35.613
35.574
35.529
35.477
35.417
35.35
35.276
35.196
35.108
35.013
34.911
34.803
34.69
34.572
34.451
34.327
34.203
34.08
33.957
33.834
33.711
33.588
33.465
33.341
33.218
33.096
32.974
32.854
32.736
32.62
32.504
32.389
32.273
32.159
32.046
31.935
31.828
31.723
31.623
31.527
31.435
31.345
31.258
31.172
31.089
31.007
30.925
30.845
30.764
30.683
30.6
30.516
30.431
30.347
30.264
30.184
30.107
30.032
29.959
29.888
29.818
29.749
29.68
29.612
29.544
29.478
29.412
29.349
29.287
29.227
29.169
29.114
29.062
29.013
28.968
28.925
28.885
28.846
28.805
28.763
28.72
28.677
28.636
28.6
28.569
28.547
28.538
28.545
28.576
28.64
28.748
28.913
29.147
29.461
29.865
30.366
30.965
31.661
32.447
33.311
34.239
35.214
36.217
37.227
38.223
39.181
40.083
40.912
41.652
42.293
42.827
43.252
43.569
43.781
43.896
43.924
43.877
43.769
43.612
43.421
43.205
42.976
42.741
42.507
42.281
42.065
41.862
41.673
41.497
41.335
41.183
41.041
40.905
40.773
40.643
40.513
40.382
40.247
40.107
39.96
39.808
39.648
39.481
39.306
39.126
38.94
38.753
38.566
38.38
38.198
38.021
37.851
37.689
37.535
37.388
37.248
37.117
36.994
36.88
36.774
36.675
36.584
36.5
36.422
36.35
36.283
36.219
36.16
36.106
36.058
36.014
35.974
35.939
35.907
35.878
35.851
35.824
35.796
35.766
35.733
35.697
35.657
35.61
35.557
35.497
35.43
35.355
35.273
35.182
35.084
34.978
34.866
34.748
34.626
34.505
34.386
34.271
34.159
34.049
33.941
33.832
33.723
33.613
33.5
33.384
33.265
33.144
33.021
32.895
32.768
32.639
32.511
32.382
32.254
32.127
32.002
31.878
31.757
31.64
31.525
31.415
31.308
31.206
31.106
31.009
30.915
30.823
30.734
30.646
30.56
30.475
30.391
30.309
30.23
30.153
30.081
30.014
29.952
29.894
29.839
29.786
29.733
29.68
29.626
29.571
29.514
29.455
29.396
29.335
29.275
29.214
29.154
29.095
29.037
28.982
28.928
28.874
28.822
28.769
28.717
28.666
28.616
28.57
28.53
28.499
28.481
28.477
28.494
28.537
28.617
28.743
28.928
29.184
29.519
29.943
30.46
31.071
31.773
32.559
33.421
34.343
35.309
36.3
37.294
38.273
39.214
40.099
40.91
41.634
42.261
42.786
43.205
43.519
43.731
43.848
43.879
43.837
43.731
43.577
43.384
43.165
42.929
42.686
42.442
42.203
41.972
41.752
41.544
41.347
41.162
40.986
40.82
40.662
40.512
40.367
40.225
40.084
39.942
39.799
39.652
39.501
39.344
39.182
39.015
38.845
38.673
38.501
38.329
38.159
37.992
37.829
37.669
37.513
37.363
37.217
37.079
36.949
36.826
36.713
36.61
36.516
36.429
36.349
36.274
36.203
36.134
36.07
36.009
35.952
35.899
35.85
35.805
35.762
35.72
35.679
35.636
35.592
35.546
35.496
35.443
35.386
35.325
35.26
35.19
35.115
35.031
34.941
34.843
34.74
34.632
34.519
34.404
34.286
34.168
34.049
33.929
33.81
33.692
33.576
33.461
33.348
33.237
33.127
33.019
32.913
32.806
32.699
32.591
32.483
32.375
32.267
32.161
32.056
31.955
31.855
31.758
31.662
31.567
31.473
31.38
31.288
31.198
31.108
31.018
30.928
30.837
30.745
30.652
30.557
30.462
30.368
30.277
30.188
30.103
30.021
29.942
29.867
29.792
29.719
29.646
29.573
29.5
29.425
29.349
29.272
29.196
29.12
29.046
28.976
28.911
28.851
28.799
28.753
28.713
28.679
28.648
28.62
28.594
28.569
28.544
28.52
28.498
28.478
28.463
28.455
28.456
28.471
28.506
28.568
28.666
28.813
29.02
29.298
29.656
30.102
30.64
31.271
31.994
32.801
33.68
34.618
35.595
36.594
37.592
38.569
39.503
40.374
41.168
41.871
42.473
42.969
43.356
43.638
43.818
43.905
43.908
43.837
43.705
43.525
43.309
43.07
42.816
42.555
42.296
42.042
41.798
41.567
41.35
41.149
40.962
40.788
40.626
40.472
40.324
40.181
40.041
39.9
39.757
39.61
39.456
39.294
39.124
38.945
38.759
38.566
38.368
38.168
37.968
37.77
37.574
37.383
37.199
37.022
36.854
36.694
36.543
36.401
36.269
36.145
36.031
35.924
35.824
35.73
35.642
35.559
35.482
35.412
35.347
35.289
35.236
35.187
35.142
35.098
35.055
35.01
34.964
34.913
34.852
34.779
34.696
34.605
34.508
34.406
34.302
34.199
34.096
33.997
33.901
33.809
33.723
33.641
33.561
33.483
33.404
33.322
33.237
33.147
33.052
32.953
32.85
32.743
32.633
32.519
32.404
32.287
32.168
32.05
31.932
31.816
31.703
31.594
31.491
31.391
31.295
31.202
31.112
31.025
30.94
30.857
30.776
30.695
30.615
30.535
30.453
30.369
30.284
30.197
30.11
30.023
29.937
29.852
29.768
29.686
29.605
29.526
29.448
29.373
29.301
29.232
29.165
29.101
29.04
28.982
28.926
28.872
28.82
28.77
28.722
28.674
28.626
28.577
28.526
28.474
28.422
28.371
28.321
28.274
28.231
28.194
28.162
28.136
28.118
28.107
28.108
28.124
28.161
28.224
28.321
28.462
28.659
28.922
29.261
29.686
30.203
30.813
31.516
32.305
33.169
34.095
35.066
36.062
37.062
38.047
38.997
39.894
40.722
41.467
42.121
42.676
43.129
43.481
43.736
43.897
43.973
43.971
43.902
43.776
43.605
43.398
43.166
42.918
42.663
42.406
42.154
41.91
41.677
41.457
41.249
41.053
40.867
40.689
40.515
40.345
40.175
40.003
39.827
39.647
39.462
39.273
39.078
38.879
38.674
38.467
38.257
38.047
37.836
37.627
37.42
37.218
37.022
36.833
36.652
36.48
36.317
36.163
36.019
35.885
35.761
35.645
35.539
35.442
35.353
35.271
35.195
35.125
35.06
34.998
34.938
34.878
34.817
34.753
34.685
34.613
34.537
34.456
34.372
34.284
34.191
34.093
33.992
33.888
33.783
33.677
33.572
33.467
33.363
33.26
33.158
33.057
32.955
32.852
32.75
32.648
32.546
32.445
32.345
32.245
32.146
32.048
31.951
31.854
31.759
31.665
31.573
31.482
31.392
31.304
31.216
31.13
31.044
30.959
30.874
30.79
30.706
30.622
30.539
30.454
30.37
30.286
30.202
30.119
30.036
29.953
29.871
29.79
29.71
29.629
29.55
29.472
29.394
29.317
29.242
29.169
29.1
29.033
28.968
28.904
28.84
28.777
28.715
28.654
28.594
28.536
28.481
28.429
28.379
28.333
28.289
28.249
28.212
28.181
28.153
28.129
28.108
28.089
28.073
28.06
28.05
28.046
28.051
28.067
28.102
28.164
28.263
28.413
28.624
28.906
29.267
29.713
30.246
30.866
31.568
32.343
33.181
34.066
34.983
35.914
36.84
37.744
38.609
39.419
40.163
40.833
41.42
41.92
42.333
42.657
42.897
43.058
43.145
43.166
43.127
43.037
42.905
42.737
42.541
42.326
42.097
41.862
41.625
41.389
41.158
40.932
40.714
40.503
40.299
40.099
39.904
39.711
39.521
39.332
39.143
38.955
38.766
38.577
38.387
38.195
38.0
37.804
37.608
37.411
37.215
37.022
36.833
36.649
36.472
36.302
36.139
35.983
35.833
35.69
35.552
35.421
35.295
35.175
35.061
34.952
34.849
34.751
34.656
34.564
34.476
34.39
34.307
34.227
34.148
34.071
33.996
33.921
33.846
33.769
33.688
33.603
33.513
33.419
33.321
33.22
33.117
33.012
32.907
32.802
32.696
32.593
32.492
32.396
32.303
32.214
32.13
32.049
31.97
31.892
31.815
31.735
31.654
31.569
31.48
31.388
31.293
31.195
31.097
30.998
30.901
30.805
30.712
30.623
30.539
30.458
30.38
30.304
30.229
30.155
30.08
30.003
29.926
29.847
29.768
29.689
29.61
29.532
29.458
29.387
29.321
29.259
29.201
29.148
29.099
29.055
29.013
28.973
28.934
28.897
28.86
28.823
28.785
28.748
28.709
28.671
28.632
28.591
28.551
28.511
28.471
28.433
28.397
28.366
28.34
28.321
28.313
28.317
28.338
28.383
28.462
28.582
28.755
28.99
29.298
29.687
30.161
30.723
31.371
32.101
32.902
33.763
34.667
35.596
36.535
37.467
38.375
39.245
40.063
40.816
41.495
42.092
42.602
43.024
43.358
43.605
43.77
43.86
43.882
43.844
43.753
43.618
43.449
43.253
43.038
42.812
42.579
42.345
42.114
41.889
41.67
41.459
41.255
41.058
40.868
40.683
40.501
40.321
40.142
39.962
39.781
39.598
39.412
39.223
39.03
38.835
38.637
38.436
38.232
38.028
37.823
37.621
37.42
37.223
37.029
36.841
36.659
36.484
36.317
36.158
36.007
35.865
35.732
35.607
35.489
35.377
35.273
35.175
35.083
34.997
34.916
34.841
34.771
34.704
34.64
34.576
34.509
34.44
34.368
34.292
34.213
34.13
34.044
33.956
33.865
33.772
33.676
33.581
33.491
33.407
33.328
33.253
33.177
33.1
33.018
32.932
32.839
32.74
32.635
32.524
32.409
32.291
32.171
32.049
31.929
31.808
31.688
31.568
31.45
31.335
31.224
31.119
31.02
30.928
30.844
30.766
30.693
30.624
30.558
30.494
30.431
30.369
30.309
30.249
30.188
30.128
30.066
30.005
29.942
29.881
29.822
29.766
29.712
29.659
29.608
29.557
29.506
29.456
29.405
29.355
29.306
29.258
29.212
29.166
29.121
29.076
29.032
28.988
28.945
28.903
28.863
28.825
28.79
28.759
28.732
28.711
28.7
28.703
28.723
28.767
28.841
28.955
29.12
29.346
29.644
30.025
30.496
31.065
31.733
32.498
33.353
34.288
35.287
36.333
37.406
38.485
39.549
40.577
41.552
42.457
43.278
44.006
44.637
45.168
45.602
45.942
46.193
46.36
46.451
46.475
46.439
46.354
46.227
46.067
45.882
45.677
45.46
45.235
45.006
44.778
44.553
44.335
44.124
43.921
43.724
43.534
43.348
43.166
42.984
42.803
42.62
42.435
42.248
42.058
41.865
41.669
41.471
41.272
41.072
40.871
40.669
40.466
40.262
40.059
39.858
39.66
39.466
39.278
39.097
38.926
38.764
38.611
38.467
38.332
38.206
38.087
37.977
37.873
37.776
37.686
37.604
37.527
37.455
37.387
37.324
37.262
37.202
37.142
37.082
37.02
36.957
36.891
36.822
36.749
36.671
36.588
36.499
36.404
36.303
36.195
36.082
35.965
35.844
35.718
35.59
35.458
35.323
35.186
35.047
34.906
34.764
34.623
34.481
34.34
34.2
34.059
33.92
33.784
33.652
33.525
33.401
33.281
33.165
33.053
32.942
32.833
32.724
32.615
32.506
32.398
32.289
32.181
32.074
31.969
31.867
31.766
31.668
31.571
31.476
31.384
31.294
31.208
31.124
31.043
30.964
30.887
30.813
30.739
30.667
30.597
30.529
30.463
30.398
30.335
30.272
30.211
30.15
30.089
30.029
29.97
29.912
29.858
29.806
29.76
29.722
29.694
29.68
29.685
29.713
29.773
29.874
30.026
30.238
30.521
30.883
31.331
31.87
32.501
33.22
34.019
34.888
35.811
36.772
37.752
38.732
39.692
40.615
41.486
42.291
43.017
43.656
44.203
44.657
45.018
45.289
45.477
45.591
45.647
45.653
45.617
45.545
45.442
45.311
45.155
44.978
44.782
44.572
44.35
44.121
43.889
43.657
43.427
43.2
42.978
42.762
42.551
42.345
42.143
41.944
41.748
41.554
41.362
41.171
40.981
40.793
40.607
40.422
40.239
40.055
39.872
39.688
39.506
39.326
39.149
38.977
38.809
38.647
38.493
38.347
38.209
38.078
37.954
37.839
37.731
37.631
37.539
37.454
37.376
37.308
37.247
37.193
37.144
37.097
37.051
37.003
36.953
36.898
36.839
36.776
36.709
36.637
36.561
36.479
36.392
36.299
36.2
36.095
35.984
35.867
35.747
35.623
35.496
35.368
35.239
35.111
34.983
34.856
34.731
34.606
34.483
34.363
34.246
34.131
34.017
33.905
33.794
33.684
33.578
33.479
33.389
33.308
33.231
33.157
33.081
32.999
32.91
32.812
32.704
32.586
32.459
32.326
32.19
32.052
31.916
31.782
31.653
31.53
31.414
31.305
31.203
31.109
31.023
30.945
30.874
30.808
30.747
30.69
30.635
30.583
30.532
30.479
30.426
30.372
30.317
30.261
30.203
30.145
30.087
30.03
29.973
29.917
29.862
29.808
29.756
29.704
29.653
29.603
29.556
29.512
29.475
29.447
29.432
29.435
29.466
29.534
29.649
29.825
30.073
30.404
30.826
31.344
31.959
32.667
33.463
34.334
35.268
36.246
37.251
38.262
39.26
40.226
41.142
41.991
42.759
43.435
44.012
44.485
44.853
45.119
45.287
45.367
45.368
45.302
45.181
45.016
44.819
44.599
44.367
44.131
43.897
43.67
43.455
43.252
43.062
42.885
42.719
42.562
42.41
42.263
42.116
41.969
41.819
41.665
41.508
41.347
41.18
41.008
40.831
40.649
40.464
40.278
40.091
39.904
39.72
39.538
39.361
39.189
39.024
38.866
38.717
38.577
38.447
38.326
38.216
38.115
38.022
37.936
37.856
37.781
37.71
37.643
37.579
37.518
37.46
37.403
37.348
37.294
37.24
37.186
37.13
37.071
37.009
36.944
36.877
36.807
36.736
36.662
36.586
36.507
36.424
36.337
36.244
36.145
36.041
35.933
35.821
35.704
35.584
35.462
35.336
35.208
35.078
34.945
34.811
34.676
34.541
34.409
34.279
34.154
34.035
33.92
33.809
33.701
33.595
33.49
33.387
33.284
33.181
33.078
32.976
32.874
32.771
32.669
32.566
32.464
32.362
32.259
32.157
32.056
31.956
31.859
31.762
31.666
31.57
31.474
31.379
31.286
31.194
31.104
31.017
30.932
30.849
30.769
30.692
30.618
30.547
30.478
30.412
30.348
30.286
30.225
30.165
30.105
30.045
29.982
29.92
29.858
29.797
29.738
29.679
29.621
29.565
29.511
29.461
29.415
29.376
29.343
29.319
29.306
29.307
29.326
29.372
29.454
29.584
29.772
30.032
30.372
30.8
31.321
31.934
32.636
33.418
34.268
35.171
36.111
37.07
38.027
38.965
39.867
40.716
41.498
42.199
42.811
43.328
43.747
44.069
44.299
44.44
44.502
44.495
44.428
44.312
44.158
43.977
43.776
43.564
43.346
43.128
42.913
42.703
42.5
42.305
42.119
41.939
41.763
41.591
41.422
41.255
41.091
40.93
40.773
40.62
40.47
40.32
40.17
40.019
39.865
39.707
39.546
39.382
39.215
39.047
38.88
38.714
38.551
38.391
38.235
38.085
37.942
37.806
37.677
37.556
37.443
37.338
37.243
37.156
37.078
37.006
36.941
36.88
36.824
36.771
36.719
36.668
36.618
36.568
36.517
36.464
36.409
36.352
36.291
36.225
36.154
36.076
35.992
35.901
35.805
35.703
35.596
35.484
35.369
35.251
35.131
35.009
34.887
34.764
34.643
34.521
34.401
34.281
34.162
34.046
33.931
33.817
33.703
33.591
33.48
33.368
33.257
33.144
33.03
32.914
32.798
32.68
32.564
32.448
32.335
32.227
32.123
32.025
31.932
31.844
31.76
31.68
31.602
31.526
31.46
31.411
31.378
31.358
31.343
31.327
31.305
31.272
31.226
31.166
31.092
31.005
30.908
30.803
30.693
30.579
30.463
30.348
30.235
30.125
30.018
29.916
29.819
29.729
29.646
29.57
29.5
29.436
29.38
29.33
29.286
29.248
29.214
29.185
29.159
29.137
29.116
29.096
29.075
29.053
29.031
29.009
28.989
28.972
28.961
28.957
28.963
28.985
29.028
29.103
29.219
29.388
29.621
29.93
30.321
30.802
31.377
32.044
32.8
33.635
34.536
35.49
36.478
37.48
38.476
39.447
40.375
41.241
42.032
42.734
43.339
43.842
44.241
44.539
44.739
44.848
44.878
44.838
44.74
44.595
44.413
44.206
43.982
43.749
43.513
43.277
43.044
42.819
42.603
42.397
42.201
42.015
41.837
41.669
41.508
41.353
41.201
41.051
40.899
40.744
40.585
40.419
40.247
40.07
39.889
39.706
39.523
39.34
39.16
38.983
38.81
38.641
38.476
38.316
38.159
38.008
37.864
37.728
37.599
37.477
37.364
37.259
37.162
37.07
36.982
36.899
36.818
36.74
36.664
36.589
36.515
36.441
36.368
36.295
36.222
36.148
36.074
35.999
35.924
35.848
35.771
35.693
35.613
35.531
35.447
35.361
35.271
35.179
35.084
34.986
34.887
34.786
34.684
34.581
34.476
34.37
34.261
34.151
34.039
33.924
33.807
33.689
33.571
33.453
33.337
33.223
33.112
33.003
32.898
32.795
32.696
32.598
32.503
32.408
32.314
32.218
32.121
32.021
31.92
31.818
31.719
31.624
31.535
31.45
31.37
31.294
31.221
31.15
31.08
31.01
30.94
30.869
30.796
30.722
30.646
30.57
30.493
30.418
30.344
30.272
30.204
30.138
30.076
30.015
29.956
29.899
29.843
29.786
29.729
29.671
29.612
29.556
29.501
29.448
29.398
29.35
29.306
29.265
29.226
29.19
29.156
29.124
29.093
29.065
29.038
29.013
28.991
28.974
28.964
28.962
28.971
28.994
29.037
29.106
29.209
29.354
29.551
29.81
30.14
30.547
31.036
31.609
32.261
32.988
33.779
34.623
35.504
36.407
37.315
38.209
39.074
39.893
40.651
41.339
41.947
42.469
42.903
43.248
43.505
43.68
43.779
43.809
43.778
43.696
43.573
43.419
43.241
43.048
42.846
42.641
42.437
42.238
42.046
41.862
41.686
41.517
