Trial 3:3back
34.783
34.698
34.611
34.524
34.437
34.351
34.265
34.181
34.097
34.013
33.929
33.845
33.762
33.679
33.597
33.515
33.435
33.355
33.277
33.2
33.127
33.056
32.988
32.923
32.862
32.804
32.749
32.697
32.647
32.6
32.554
32.51
32.468
32.429
32.392
32.357
32.325
32.295
32.267
32.24
32.213
32.188
32.164
32.14
32.118
32.098
32.078
32.06
32.045
32.031
32.019
32.008
31.998
31.989
31.983
31.977
31.974
31.974
31.977
31.985
32.001
32.026
32.063
32.115
32.187
32.284
32.41
32.572
32.773
33.018
33.309
33.648
34.035
34.469
34.948
35.466
36.018
36.595
37.189
37.79
38.387
38.97
39.527
40.05
40.531
40.962
41.339
41.658
41.919
42.12
42.264
42.351
42.386
42.371
42.312
42.214
42.082
41.924
41.743
41.546
41.338
41.123
40.905
40.685
40.468
40.254
40.042
39.834
39.63
39.429
39.23
39.034
38.839
38.645
38.451
38.259
38.066
37.875
37.684
37.493
37.302
37.111
36.919
36.726
36.533
36.342
36.151
35.962
35.775
35.592
35.413
35.241
35.075
34.918
34.77
34.633
34.508
34.396
34.298
34.216
34.151
34.102
34.07
34.056
34.058
34.075
34.107
34.151
34.206
34.272
34.348
34.433
34.525
34.623
34.727
34.834
34.944
35.054
35.163
35.27
35.373
35.471
35.563
35.649
35.726
35.793
35.85
35.896
35.931
35.954
35.965
35.964
35.951
35.928
35.894
35.85
35.798
35.737
35.67
35.597
35.521
35.441
35.358
35.275
35.191
35.107
35.021
34.935
34.849
34.762
34.674
34.586
34.497
34.408
34.32
34.231
34.144
34.057
33.971
33.886
33.802
33.719
33.637
33.557
33.479
33.402
33.327
33.254
33.182
33.111
33.042
32.974
32.908
32.843
32.78
32.72
32.664
32.611
32.561
32.514
32.47
32.428
32.388
32.348
32.31
32.271
32.232
32.194
32.158
32.125
32.096
32.073
32.06
32.059
32.073
32.107
32.164
32.25
32.369
32.529
32.732
32.984
33.287
33.643
34.052
34.511
35.017
35.563
36.141
36.742
37.355
37.969
38.573
39.156
39.706
40.216
40.677
41.084
41.433
41.722
41.949
42.117
42.228
42.285
42.294
42.26
42.187
42.083
41.951
41.798
41.629
41.449
41.262
41.07
40.876
40.681
40.487
40.295
40.106
39.92
39.738
39.559
39.383
39.209
39.036
38.865
38.694
38.523
38.351
38.179
38.006
37.832
37.658
37.484
37.309
37.135
36.961
36.786
36.613
36.44
36.267
36.094
35.923
35.755
35.593
35.438
35.291
35.154
35.028
34.913
34.812
34.724
34.65
34.589
34.543
34.51
34.49
34.481
34.484
34.496
34.518
34.549
34.588
34.633
34.686
34.745
34.811
34.882
34.957
35.037
35.118
35.2
35.281
35.358
35.433
35.502
35.565
35.621
35.667
35.704
35.731
35.749
35.758
35.757
35.748
35.729
35.701
35.665
35.619
35.565
35.503
35.434
35.36
35.282
35.202
35.119
35.035
34.95
34.863
34.776
34.689
34.601
34.513
34.427
34.342
34.259
34.177
34.096
34.017
33.939
33.86
33.782
33.703
33.625
33.548
33.471
33.394
33.319
33.246
33.175
33.105
33.037
32.97
32.905
32.841
32.78
32.721
32.664
32.611
32.559
32.511
32.464
32.419
32.374
32.33
32.287
32.245
32.204
32.165
32.127
32.09
32.056
32.026
32.001
31.984
31.976
31.98
31.999
32.038
32.102
32.194
32.322
32.489
32.7
32.959
33.269
33.632
34.048
34.514
35.027
35.58
36.166
36.775
37.396
38.019
38.631
39.221
39.779
40.296
40.764
41.178
41.534
41.83
42.066
42.243
42.363
42.431
42.451
42.427
42.366
42.272
42.151
42.008
41.848
41.674
41.492
41.303
41.112
40.919
40.726
40.534
40.343
40.153
39.964
39.778
39.595
39.414
39.235
39.059
38.886
38.715
38.547
38.383
38.22
38.06
37.9
37.74
37.579
37.418
37.255
37.09
36.925
36.758
36.59
36.422
36.252
36.083
35.916
35.752
35.593
35.441
35.298
35.164
35.042
34.932
34.835
34.751
34.681
34.625
34.583
34.554
34.539
34.535
34.543
34.561
34.589
34.625
34.669
34.72
34.777
34.839
34.906
34.976
35.048
35.122
35.197
35.27
35.342
35.409
35.472
35.529
35.579
35.619
35.65
35.672
35.683
35.684
35.676
35.66
35.636
35.605
35.568
35.524
35.474
35.419
35.358
35.292
35.221
35.145
35.064
34.979
34.892
34.803
34.712
34.62
34.526
34.431
34.337
34.243
34.151
34.059
33.968
33.879
33.792
33.707
33.622
33.539
33.456
33.375
33.295
33.218
33.143
33.073
33.005
32.942
32.883
32.827
32.775
32.725
32.677
32.631
32.587
32.544
32.5
32.457
32.415
32.373
32.331
32.289
32.248
32.208
32.169
32.132
32.097
32.064
32.034
32.006
31.98
31.956
31.935
31.916
31.9
31.888
31.88
31.875
31.874
31.876
31.884
31.898
31.922
31.958
32.012
32.09
32.196
32.336
32.517
32.742
33.016
33.341
33.719
34.148
34.622
35.137
35.685
36.261
36.856
37.459
38.061
38.651
39.219
39.755
40.249
40.695
41.086
41.419
41.692
41.904
42.056
42.15
42.19
42.181
42.127
42.034
41.91
41.76
41.591
41.408
41.214
41.015
40.812
40.609
40.407
40.208
40.012
39.822
39.635
39.453
39.274
39.099
38.927
38.756
38.588
38.421
38.255
38.09
37.924
37.758
37.591
37.422
37.253
37.082
36.909
36.736
36.562
36.389
36.217
36.047
35.88
35.718
35.561
35.41
35.264
35.124
34.991
34.866
34.749
34.643
34.548
34.464
34.393
34.335
34.29
34.259
34.241
34.237
34.245
34.266
34.297
34.338
34.387
34.444
34.505
34.572
34.641
34.711
34.782
34.851
34.919
34.984
35.046
35.105
35.159
35.208
35.251
35.288
35.318
35.342
35.358
35.366
35.367
35.36
35.346
35.325
35.296
35.26
35.217
35.167
35.11
35.048
34.982
34.911
34.837
34.761
34.684
34.607
34.529
34.451
34.371
34.292
34.211
34.13
34.047
33.961
33.874
33.785
33.695
33.606
33.516
33.425
33.333
33.243
33.153
33.065
32.979
32.895
32.814
32.736
32.661
32.59
32.522
32.458
32.397
32.339
32.286
32.237
32.191
32.149
32.109
32.072
32.036
32.003
31.97
31.939
31.91
31.883
31.858
31.836
31.815
31.797
31.782
31.769
31.757
31.746
31.736
31.725
31.714
31.704
31.694
31.683
31.672
31.661
31.65
31.64
31.631
31.623
31.617
31.611
31.608
31.608
31.612
31.624
31.644
31.676
31.725
31.794
31.891
32.019
32.184
32.389
32.639
32.935
33.279
33.669
34.105
34.582
35.096
35.64
36.206
36.784
37.365
37.937
38.49
39.016
39.504
39.946
40.338
40.673
40.95
41.168
41.327
41.429
41.478
41.477
41.432
41.348
41.231
41.088
40.922
40.74
40.546
40.344
40.136
39.925
39.714
39.505
39.296
39.09
38.887
38.685
38.487
38.291
38.097
37.906
37.717
37.53
37.344
37.16
36.976
36.794
36.611
36.429
36.248
36.066
35.884
35.703
35.523
35.345
35.168
34.993
34.822
34.654
34.493
34.338
34.191
34.052
33.924
33.806
33.7
33.606
33.526
33.459
33.408
33.373
33.354
33.352
33.365
33.393
33.437
33.494
33.564
33.644
33.733
33.83
33.932
34.038
34.145
34.253
34.361
34.466
34.569
34.666
34.755
34.836
34.908
34.97
35.022
35.063
35.094
35.116
35.129
35.132
35.128
35.115
35.095
35.068
35.033
34.991
34.942
34.886
34.824
34.756
34.681
34.601
34.517
34.428
34.336
34.239
34.14
34.039
33.936
33.833
33.73
33.628
33.527
33.428
33.331
33.235
33.141
33.048
32.956
32.866
32.777
32.691
32.606
32.523
32.441
32.36
32.282
32.207
32.135
32.066
32.0
31.937
31.878
31.821
31.768
31.719
31.672
31.629
31.59
31.556
31.526
31.501
31.481
31.464
31.451
31.441
31.432
31.425
31.419
31.414
31.41
31.408
31.407
31.408
31.412
31.419
31.429
31.443
31.463
31.491
31.53
31.586
31.661
31.762
31.892
32.056
32.26
32.507
32.8
33.14
33.526
33.959
34.433
34.944
35.485
36.047
36.622
37.198
37.765
38.311
38.827
39.303
39.732
40.11
40.433
40.697
40.904
41.055
41.152
41.197
41.196
41.153
41.073
40.963
40.826
40.67
40.496
40.311
40.116
39.914
39.709
39.502
39.294
39.088
38.883
38.68
38.484
38.294
38.109
37.928
37.749
37.569
37.387
37.201
37.009
36.812
36.609
36.4
36.186
35.969
35.749
35.529
35.309
35.091
34.876
34.665
34.461
34.267
34.084
33.914
33.76
33.624
33.507
33.41
33.335
33.282
33.252
33.244
33.258
33.293
33.349
33.424
33.516
33.624
33.746
33.879
34.021
34.171
34.325
34.481
34.637
34.792
34.944
35.09
35.229
35.357
35.473
35.572
35.656
35.722
35.773
35.808
35.828
35.836
35.833
35.82
35.799
35.77
35.733
35.689
35.639
35.582
35.52
35.453
35.381
35.304
35.222
35.134
35.041
34.942
34.84
34.733
34.623
34.511
34.399
34.288
34.179
34.072
33.969
33.871
33.775
33.683
33.593
33.504
33.417
33.332
33.248
33.167
33.089
33.014
32.944
32.877
32.815
32.756
32.701
32.649
32.599
32.551
32.504
32.457
32.409
32.36
32.31
32.261
32.214
32.169
32.127
32.089
32.055
32.025
32.0
31.978
31.96
31.946
31.935
31.926
31.923
31.925
31.936
31.958
31.995
32.05
32.126
32.228
32.358
32.522
32.72
32.955
33.228
33.539
33.887
34.268
34.679
35.114
35.568
36.032
36.498
36.957
37.402
37.824
38.216
38.573
38.891
39.164
39.391
39.57
39.703
39.789
39.831
39.832
39.796
39.726
39.627
39.504
39.361
39.202
39.03
38.848
38.659
38.466
38.272
38.077
37.883
37.691
37.501
37.312
37.125
36.938
36.753
36.567
36.379
36.189
35.996
35.8
35.602
35.402
35.2
34.997
34.792
34.587
34.384
34.183
33.987
33.797
33.615
33.442
33.279
33.129
32.991
32.869
32.762
32.674
32.604
32.554
32.524
32.515
32.526
32.557
32.607
32.675
32.76
32.859
32.971
33.094
33.226
33.366
33.511
33.659
33.809
33.958
34.104
34.246
34.381
34.51
34.631
34.742
34.843
34.934
35.012
35.078
35.132
35.171
35.196
35.205
35.201
35.184
35.156
35.117
35.07
35.014
34.953
34.885
34.812
34.734
34.652
34.567
34.479
34.389
34.297
34.204
34.11
34.014
33.919
33.823
33.728
33.635
33.543
33.454
33.367
33.285
33.206
33.133
33.064
33.0
32.938
32.878
32.821
32.766
32.712
32.66
32.61
32.563
32.519
32.476
32.436
32.396
32.356
32.317
32.278
32.241
32.205
32.17
32.135
32.101
32.068
32.037
32.007
31.981
31.957
31.937
31.92
31.909
31.903
31.906
31.919
31.944
31.987
32.052
32.142
32.263
32.419
32.612
32.846
33.121
33.438
33.795
34.19
34.617
35.072
35.546
36.032
36.521
37.004
37.471
37.914
38.323
38.694
39.021
39.299
39.526
39.702
39.826
39.901
39.928
39.913
39.86
39.776
39.664
39.53
39.378
39.212
39.036
38.852
38.665
38.474
38.282
38.088
37.893
37.697
37.501
37.305
37.109
36.913
36.718
36.522
36.327
36.131
35.935
35.738
35.542
35.346
35.15
34.955
34.759
34.564
34.368
34.174
33.982
33.793
33.609
33.432
33.263
33.105
32.958
32.826
32.707
32.604
32.516
32.444
32.388
32.349
32.326
32.32
32.329
32.355
32.398
32.457
32.532
32.621
32.724
32.838
32.963
33.097
33.239
33.385
33.533
33.681
33.828
33.972
34.11
34.24
34.362
34.474
34.575
34.664
34.74
34.801
34.846
34.874
34.887
34.884
34.866
34.835
34.792
34.74
34.679
34.613
34.544
34.473
34.4
34.327
34.254
34.183
34.112
34.043
33.975
33.907
33.839
33.772
33.703
33.634
33.563
33.491
33.417
33.343
33.267
33.191
33.116
33.041
32.967
32.894
32.822
32.752
32.683
32.617
32.552
32.488
32.428
32.369
32.312
32.257
32.203
32.149
32.095
32.04
31.984
31.927
31.868
31.808
31.749
31.691
31.634
31.582
31.536
31.5
31.475
31.467
31.477
31.51
31.57
31.66
31.785
31.946
32.149
32.394
32.685
33.02
33.4
33.821
34.28
34.77
35.284
35.812
36.343
36.868
37.375
37.857
38.305
38.711
39.07
39.377
39.63
39.827
39.97
40.061
40.102
40.098
40.053
39.974
39.865
39.732
39.58
39.414
39.237
39.053
38.864
38.673
38.482
38.293
38.106
37.92
37.736
37.553
37.372
37.193
37.014
36.835
36.657
36.479
36.301
36.124
35.948
35.773
35.598
35.424
35.249
35.074
34.9
34.727
34.555
34.385
34.216
34.049
33.886
33.726
33.574
33.429
33.296
33.175
33.068
32.975
32.897
32.834
32.786
32.753
32.736
32.735
32.748
32.776
32.818
32.874
32.943
33.024
33.117
33.219
33.329
33.447
33.57
33.697
33.824
33.951
34.076
34.196
34.311
34.42
34.519
34.609
34.687
34.754
34.807
34.848
34.876
34.892
34.895
34.887
34.868
34.839
34.802
34.757
34.706
34.651
34.592
34.53
34.465
34.398
34.328
34.257
34.184
34.11
34.033
33.955
33.875
33.792
33.707
33.62
33.531
33.44
33.348
33.255
33.16
33.066
32.972
32.879
32.787
32.697
32.609
32.522
32.438
32.356
32.277
32.2
32.126
32.056
31.988
31.923
31.862
31.803
31.748
31.697
31.651
31.611
31.579
31.557
31.548
31.554
31.581
31.632
31.71
31.821
31.968
32.155
32.385
32.66
32.981
33.347
33.755
34.199
34.674
35.17
35.681
36.195
36.704
37.196
37.664
38.099
38.494
38.843
39.142
39.389
39.582
39.723
39.813
39.856
39.854
39.813
39.737
39.632
39.503
39.356
39.194
39.023
38.845
38.663
38.48
38.296
38.112
37.93
37.749
37.57
37.394
37.221
37.05
36.882
36.715
36.549
36.383
36.217
36.05
35.885
35.719
35.552
35.385
35.216
35.047
34.877
34.708
34.538
34.369
34.201
34.036
33.874
33.717
33.564
33.417
33.278
33.148
33.028
32.918
32.821
32.737
32.666
32.61
32.57
32.547
32.542
32.554
32.584
32.632
32.696
32.773
32.864
32.965
33.076
33.194
33.317
33.443
33.572
33.701
33.828
33.952
34.072
34.184
34.289
34.384
34.47
34.543
34.604
34.652
34.687
34.711
34.725
34.73
34.729
34.721
34.71
34.694
34.675
34.653
34.627
34.596
34.561
34.519
34.472
34.418
34.357
34.289
34.215
34.137
34.056
33.973
33.888
33.803
33.72
33.639
33.562
33.488
33.419
33.355
33.294
33.236
33.181
33.128
33.076
33.026
32.975
32.924
32.871
32.817
32.76
32.703
32.646
32.588
32.531
32.478
32.431
32.396
32.376
32.375
32.395
32.439
32.509
32.61
32.745
32.915
33.123
33.37
33.655
33.978
34.337
34.728
35.145
35.581
36.027
36.476
36.917
37.343
37.746
38.119
38.456
38.754
39.008
39.217
39.38
39.499
39.573
39.607
39.602
39.562
39.492
39.397
39.279
39.142
38.99
38.826
38.652
38.471
38.286
38.096
37.905
37.714
37.524
37.336
37.149
36.966
36.786
36.61
36.436
36.264
36.093
35.924
35.757
35.59
35.426
35.263
35.102
34.943
34.786
34.632
34.482
34.336
34.196
34.063
33.936
33.816
33.704
33.601
33.507
33.423
33.35
33.288
33.24
33.207
33.188
33.186
33.198
33.225
33.265
33.319
33.385
33.461
33.545
33.636
33.732
33.832
33.935
34.039
34.142
34.245
34.344
34.441
34.533
34.618
34.697
34.767
34.829
34.881
34.925
34.958
34.98
34.992
34.994
34.986
34.97
34.947
34.917
34.883
34.843
34.799
34.752
34.702
34.649
34.593
34.536
34.475
34.412
34.346
34.278
34.208
34.135
34.06
33.984
33.905
33.825
33.743
33.66
33.576
33.492
33.406
33.321
33.235
33.15
33.064
32.98
32.895
32.811
32.727
32.646
32.567
32.49
32.417
32.346
32.279
32.217
32.16
32.113
32.077
32.056
32.054
32.074
32.121
32.2
32.315
32.468
32.664
32.903
33.186
33.511
33.875
34.271
34.695
35.137
35.589
36.043
36.488
36.916
37.32
37.692
38.028
38.322
38.571
38.773
38.928
39.037
39.102
39.127
39.116
39.072
38.998
38.899
38.779
38.642
38.489
38.325
38.152
37.973
37.79
37.605
37.418
37.23
37.043
36.858
36.675
36.495
36.319
36.145
35.975
35.808
35.644
35.481
35.316
35.151
34.985
34.82
34.657
34.499
34.347
34.2
34.061
33.928
33.802
33.683
33.57
33.464
33.364
33.27
33.182
33.102
33.03
32.967
32.914
32.872
32.842
32.824
32.819
32.827
32.848
32.881
32.927
32.984
33.052
33.131
33.22
33.318
33.422
33.532
33.644
33.758
33.872
33.987
34.099
34.209
34.316
34.418
34.514
34.603
34.682
34.75
34.808
34.853
34.888
34.91
34.921
34.922
34.912
34.894
34.866
34.832
34.791
34.745
34.694
34.64
34.585
34.529
34.471
34.411
34.35
34.287
34.223
34.158
34.092
34.025
33.957
33.888
33.817
33.746
33.673
33.598
33.522
33.444
33.364
33.282
33.2
33.118
33.036
32.955
32.876
32.8
32.727
32.658
32.594
32.537
32.489
32.451
32.426
32.417
32.428
32.462
32.525
32.621
32.753
32.925
33.138
33.391
33.684
34.014
34.376
34.765
35.174
35.596
36.023
36.446
36.857
37.25
37.615
37.948
38.244
38.498
38.71
38.879
39.005
39.089
39.135
39.145
39.123
39.072
38.996
38.9
38.786
38.659
38.522
38.377
38.226
38.072
37.914
37.755
37.595
37.434
37.273
37.113
36.953
36.794
36.637
36.482
36.33
36.179
36.031
35.884
35.739
35.593
35.448
35.301
35.152
35.002
34.85
34.697
34.544
34.392
34.242
34.097
33.957
33.824
33.699
33.583
33.478
33.384
33.303
33.237
33.183
33.144
33.118
33.105
33.106
33.121
33.149
33.189
33.241
33.302
33.373
33.452
33.537
33.627
33.721
33.817
33.914
34.011
34.107
34.2
34.29
34.376
34.456
34.53
34.598
34.66
34.715
34.762
34.801
34.833
34.856
34.871
34.877
34.875
34.864
34.846
34.819
34.787
34.748
34.703
34.652
34.597
34.538
34.475
34.41
34.341
34.27
34.197
34.122
34.046
33.97
33.893
33.817
33.74
33.663
33.587
33.51
33.433
33.357
33.28
33.202
33.124
33.046
32.967
32.887
32.807
32.728
32.65
32.574
32.501
32.431
32.367
32.309
32.259
32.218
32.19
32.177
32.184
32.214
32.271
32.359
32.483
32.644
32.847
33.089
33.372
33.692
34.045
34.426
34.828
35.242
35.663
36.081
36.49
36.882
37.25
37.589
37.893
38.159
38.386
38.571
38.714
38.817
38.881
38.909
38.903
38.868
38.805
38.72
38.614
38.492
38.358
38.215
38.064
37.907
37.748
37.586
37.425
37.265
37.107
36.951
36.798
36.648
36.501
36.357
36.215
36.075
35.939
35.805
35.673
35.543
35.415
35.289
35.163
35.038
34.913
34.786
34.66
34.534
34.409
34.287
34.168
34.054
33.946
33.844
33.749
33.661
33.583
33.514
33.456
33.409
33.375
33.354
33.346
33.352
33.371
33.402
33.444
33.497
33.561
33.634
33.716
33.806
33.901
34.0
34.102
34.204
34.305
34.404
34.499
34.588
34.672
34.749
34.818
34.879
34.931
34.975
35.01
35.037
35.054
35.063
35.064
35.057
35.043
35.021
34.993
34.958
34.916
34.869
34.817
34.763
34.705
34.646
34.583
34.518
34.451
34.382
34.313
34.243
34.172
34.099
34.027
33.954
33.88
33.806
33.733
33.661
33.59
33.52
33.453
33.386
33.321
33.258
33.195
33.134
33.073
33.013
32.955
32.898
32.842
32.787
32.734
32.682
32.633
32.585
32.539
32.494
32.452
32.411
32.373
32.336
32.302
32.271
32.244
32.221
32.205
32.196
32.199
32.216
32.251
32.309
32.394
32.512
32.666
32.861
33.098
33.378
33.7
34.061
34.456
34.88
35.323
35.779
36.237
36.689
37.128
37.544
37.932
38.284
38.596
38.865
39.087
39.26
39.386
39.466
39.502
39.497
39.457
39.383
39.283
39.159
39.018
38.862
38.697
38.525
38.349
38.173
37.998
37.824
37.655
37.49
37.329
37.171
37.016
36.864
36.715
36.566
36.419
36.273
36.128
35.984
35.841
35.698
35.557
35.416
35.277
35.14
35.006
34.874
34.745
34.619
34.497
34.377
34.261
34.15
34.045
33.948
33.861
33.784
33.718
33.664
33.625
33.601
33.591
33.595
33.613
33.644
33.687
33.743
33.809
33.885
33.97
34.062
34.159
34.26
34.363
34.466
34.568
34.667
34.762
34.852
34.936
35.013
35.083
35.146
35.2
35.246
35.284
35.314
35.336
35.35
35.358
35.359
35.354
35.344
35.327
35.305
35.276
35.241
35.201
35.156
35.106
35.05
34.99
34.925
34.854
34.779
34.701
34.619
34.535
34.449
34.363
34.277
34.192
34.108
34.025
33.943
33.864
33.786
33.71
33.637
33.568
33.502
33.44
33.383
33.33
33.28
33.234
33.19
33.148
33.107
33.067
33.028
32.991
32.957
32.924
32.893
32.866
32.84
32.817
32.798
32.781
32.767
32.755
32.744
32.734
32.724
32.713
32.702
32.69
32.677
32.664
32.653
32.649
32.655
32.675
32.713
32.773
32.859
32.976
33.126
33.314
33.541
33.807
34.112
34.452
34.825
35.225
35.645
36.077
36.512
36.942
