Trial 3:3back
38.014
37.899
37.784
37.669
37.553
37.437
37.32
37.202
37.085
36.968
36.852
36.739
36.63
36.526
36.428
36.337
36.254
36.18
36.115
36.059
36.013
35.975
35.947
35.927
35.916
35.912
35.916
35.925
35.939
35.957
35.978
36.003
36.029
36.057
36.085
36.113
36.14
36.164
36.186
36.203
36.216
36.223
36.225
36.222
36.213
36.198
36.178
36.151
36.118
36.08
36.035
35.986
35.931
35.872
35.81
35.744
35.675
35.605
35.533
35.46
35.387
35.313
35.24
35.169
35.097
35.027
34.957
34.887
34.818
34.749
34.681
34.614
34.549
34.485
34.423
34.364
34.306
34.25
34.196
34.144
34.093
34.045
34.0
33.956
33.915
33.875
33.838
33.803
33.769
33.737
33.707
33.679
33.651
33.624
33.597
33.571
33.544
33.518
33.491
33.464
33.437
33.409
33.382
33.355
33.328
33.301
33.274
33.248
33.222
33.198
33.174
33.152
33.131
33.112
33.094
33.076
33.06
33.044
33.028
33.012
32.995
32.978
32.96
32.943
32.926
32.911
32.901
32.898
32.905
32.925
32.962
33.02
33.102
33.212
33.352
33.526
33.734
33.979
34.258
34.571
34.915
35.287
35.682
36.096
36.523
36.957
37.393
37.825
38.246
38.653
39.04
39.402
39.736
40.039
40.309
40.543
40.742
40.904
41.031
41.124
41.184
41.214
41.217
41.194
41.148
41.082
40.998
40.9
40.789
40.667
40.538
40.402
40.263
40.12
39.977
39.834
39.693
39.555
39.419
39.288
39.16
39.037
38.917
38.8
38.686
38.575
38.465
38.357
38.249
38.141
38.033
37.924
37.816
37.709
37.603
37.5
37.4
37.305
37.214
37.129
37.051
36.981
36.917
36.862
36.816
36.777
36.747
36.726
36.713
36.707
36.709
36.717
36.731
36.748
36.77
36.793
36.817
36.841
36.864
36.886
36.905
36.92
36.932
36.94
36.943
36.942
36.935
36.924
36.907
36.885
36.858
36.825
36.788
36.744
36.696
36.642
36.585
36.523
36.457
36.387
36.314
36.238
36.16
36.078
35.995
35.909
35.822
35.734
35.646
35.559
35.472
35.387
35.302
35.219
35.137
35.057
34.978
34.901
34.825
34.752
34.681
34.612
34.546
34.482
34.421
34.362
34.304
34.249
34.195
34.144
34.094
34.045
33.997
33.951
33.906
33.862
33.82
33.779
33.741
33.704
33.669
33.636
33.604
33.573
33.543
33.514
33.487
33.46
33.435
33.411
33.387
33.364
33.342
33.321
33.3
33.279
33.259
33.238
33.216
33.194
33.17
33.145
33.119
33.093
33.066
33.04
33.015
32.991
32.97
32.953
32.941
32.937
32.943
32.963
32.999
33.056
33.137
33.246
33.386
33.56
33.768
34.013
34.292
34.606
34.951
35.323
35.719
36.132
36.558
36.99
37.422
37.849
38.263
38.661
39.037
39.387
39.707
39.996
40.251
40.47
40.653
40.799
40.909
40.984
41.027
41.039
41.023
40.983
40.921
40.839
40.74
40.628
40.504
40.371
40.232
40.088
39.94
39.791
39.641
39.491
39.343
39.197
39.053
38.912
38.774
38.639
38.507
38.377
38.25
38.125
38.001
37.878
37.757
37.636
37.517
37.398
37.282
37.168
37.056
36.948
36.843
36.744
36.651
36.563
36.483
36.41
36.344
36.287
36.237
36.195
36.16
36.132
36.11
36.096
36.087
36.084
36.086
36.094
36.105
36.119
36.136
36.154
36.172
36.189
36.204
36.217
36.228
36.234
36.237
36.234
36.226
36.212
36.193
36.168
36.137
36.102
36.061
36.016
35.966
35.911
35.852
35.79
35.723
35.654
35.582
35.507
35.432
35.355
35.276
35.197
35.116
35.035
34.954
34.872
34.791
34.71
34.63
34.55
34.471
34.394
34.317
34.241
34.166
34.093
34.021
33.951
33.883
33.816
33.751
33.688
33.627
33.567
33.509
33.452
33.397
33.343
33.29
33.239
33.189
33.142
33.096
33.053
33.013
32.974
32.938
32.904
32.872
32.841
32.812
32.783
32.754
32.725
32.696
32.667
32.637
32.608
32.579
32.55
32.521
32.493
32.466
32.439
32.412
32.386
32.359
32.332
32.304
32.276
32.247
32.218
32.189
32.161
32.138
32.119
32.109
32.11
32.126
32.159
32.214
32.294
32.403
32.544
32.719
32.929
33.176
33.459
33.776
34.125
34.504
34.906
35.328
35.763
36.206
36.65
37.089
37.518
37.931
38.323
38.689
39.026
39.33
39.6
39.832
40.027
40.185
40.305
40.391
40.443
40.464
40.456
40.422
40.366
40.288
40.193
40.084
39.962
39.83
39.691
39.546
39.397
39.246
39.093
38.941
38.79
38.64
38.493
38.349
38.207
38.068
37.931
37.796
37.662
37.529
37.396
37.263
37.13
36.997
36.864
36.732
36.603
36.477
36.355
36.238
36.128
36.024
35.929
35.842
35.765
35.698
35.64
35.592
35.554
35.525
35.506
35.495
35.492
35.497
35.509
35.528
35.552
35.581
35.614
35.649
35.685
35.721
35.756
35.79
35.82
35.847
35.87
35.888
35.901
35.909
35.911
35.908
35.9
35.886
35.866
35.84
35.809
35.772
35.729
35.681
35.629
35.572
35.511
35.446
35.378
35.306
35.232
35.156
35.078
35.0
34.921
34.842
34.764
34.686
34.609
34.533
34.458
34.385
34.312
34.24
34.17
34.101
34.034
33.968
33.904
33.841
33.781
33.724
33.668
33.615
33.563
33.513
33.464
33.417
33.37
33.324
33.278
33.234
33.19
33.148
33.108
33.069
33.032
32.998
32.966
32.937
32.91
32.885
32.861
32.838
32.816
32.795
32.775
32.755
32.736
32.716
32.696
32.674
32.651
32.627
32.601
32.574
32.544
32.514
32.482
32.449
32.418
32.388
32.361
32.338
32.323
32.318
32.326
32.351
32.397
32.467
32.565
32.695
32.858
33.058
33.295
33.568
33.878
34.222
34.597
35.0
35.426
35.869
36.325
36.785
37.245
37.697
38.135
38.554
38.948
39.313
39.645
39.94
40.198
40.416
40.595
40.736
40.84
40.908
40.942
40.945
40.921
40.872
40.801
40.712
40.606
40.487
40.356
40.216
40.069
39.917
39.762
39.605
39.449
39.293
39.14
38.99
38.843
38.7
38.56
38.423
38.29
38.159
38.029
37.9
37.772
37.645
37.517
37.389
37.261
37.133
37.005
36.879
36.756
36.637
36.522
36.414
36.313
36.22
36.136
36.062
35.998
35.944
35.901
35.868
35.845
35.831
35.825
35.828
35.838
35.853
35.874
35.899
35.927
35.957
35.988
36.019
36.05
36.079
36.106
36.129
36.149
36.163
36.171
36.173
36.169
36.158
36.141
36.117
36.086
36.048
36.003
35.952
35.896
35.835
35.77
35.701
35.629
35.555
35.478
35.4
35.322
35.242
35.162
35.083
35.003
34.923
34.843
34.764
34.684
34.604
34.524
34.445
34.367
34.29
34.215
34.142
34.072
34.004
33.939
33.878
33.819
33.763
33.711
33.661
33.614
33.569
33.525
33.484
33.443
33.403
33.363
33.323
33.284
33.244
33.204
33.165
33.126
33.088
33.051
33.015
32.98
32.946
32.914
32.883
32.854
32.827
32.801
32.776
32.752
32.728
32.704
32.68
32.656
32.631
32.605
32.578
32.55
32.521
32.491
32.461
32.43
32.401
32.375
32.353
32.338
32.333
32.341
32.367
32.414
32.487
32.588
32.721
32.89
33.096
33.339
33.621
33.94
34.293
34.678
35.09
35.524
35.975
36.436
36.9
37.362
37.815
38.252
38.67
39.061
39.422
39.749
40.039
40.291
40.502
40.673
40.806
40.9
40.959
40.985
40.98
40.948
40.892
40.814
40.718
40.607
40.482
40.347
40.203
40.052
39.897
39.74
39.582
39.425
39.27
39.117
38.967
38.821
38.677
38.537
38.401
38.266
38.135
38.004
37.875
37.746
37.618
37.489
37.361
37.232
37.105
36.979
36.855
36.735
36.619
36.509
36.405
36.309
36.222
36.144
36.077
36.02
35.973
35.936
35.91
35.893
35.885
35.885
35.892
35.905
35.923
35.945
35.97
35.997
36.025
36.053
36.081
36.108
36.133
36.155
36.174
36.19
36.2
36.206
36.207
36.201
36.19
36.172
36.147
36.116
36.078
36.033
35.982
35.925
35.862
35.795
35.723
35.648
35.57
35.49
35.409
35.327
35.245
35.163
35.082
35.002
34.923
34.845
34.768
34.692
34.617
34.544
34.471
34.399
34.327
34.257
34.188
34.12
34.055
33.991
33.931
33.873
33.817
33.764
33.712
33.662
33.613
33.566
33.519
33.473
33.429
33.385
33.343
33.301
33.261
33.221
33.183
33.145
33.109
33.074
33.039
33.006
32.973
32.941
32.91
32.879
32.849
32.819
32.789
32.76
32.73
32.7
32.67
32.64
32.61
32.579
32.548
32.517
32.486
32.454
32.422
32.391
32.361
32.333
32.309
32.291
32.282
32.283
32.299
32.334
32.391
32.474
32.587
32.733
32.914
33.131
33.385
33.674
33.998
34.354
34.738
35.146
35.573
36.012
36.458
36.904
37.344
37.771
38.179
38.564
38.921
39.246
39.537
39.792
40.01
40.19
40.333
40.44
40.513
40.552
40.561
40.542
40.497
40.43
40.343
40.238
40.119
39.987
39.845
39.696
39.541
39.382
39.221
39.059
38.898
38.737
38.579
38.424
38.273
38.125
37.981
37.841
37.704
37.57
37.439
37.31
37.181
37.054
36.927
36.801
36.675
36.55
36.425
36.303
36.183
36.066
35.952
35.844
35.743
35.648
35.561
35.483
35.414
35.356
35.308
35.271
35.244
35.227
35.22
35.223
35.233
35.251
35.275
35.304
35.335
35.369
35.403
35.436
35.467
35.495
35.518
35.536
35.549
35.555
35.555
35.549
35.536
35.517
35.491
35.46
35.423
35.38
35.332
35.28
35.223
35.162
35.096
35.027
34.954
34.877
34.798
34.715
34.63
34.544
34.456
34.368
34.28
34.192
34.106
34.022
33.94
33.861
33.784
33.709
33.637
33.567
33.498
33.43
33.364
33.3
33.236
33.174
33.113
33.053
32.993
32.935
32.877
32.82
32.765
32.711
32.66
32.61
32.562
32.517
32.473
32.432
32.392
32.355
32.319
32.286
32.254
32.224
32.195
32.168
32.141
32.115
32.089
32.063
32.037
32.01
31.983
31.956
31.927
31.898
31.868
31.836
31.805
31.773
31.741
31.711
31.684
31.661
31.644
31.636
31.639
31.656
31.693
31.751
31.835
31.949
32.095
32.276
32.494
32.749
33.04
33.366
33.724
34.11
34.519
34.947
35.388
35.835
36.282
36.722
37.149
37.558
37.943
38.3
38.625
38.916
39.169
39.385
39.562
39.7
39.801
39.867
39.9
39.902
39.877
39.826
39.754
39.663
39.555
39.433
39.3
39.158
39.008
38.854
38.696
38.536
38.377
38.219
38.063
37.911
37.762
37.616
37.474
37.336
37.202
37.069
36.939
36.81
36.681
36.551
36.422
36.292
36.162
36.032
35.903
35.777
35.653
35.533
35.418
35.309
35.206
35.111
35.024
34.947
34.879
34.821
34.774
34.737
34.711
34.694
34.687
34.688
34.697
34.713
34.735
34.761
34.79
34.822
34.855
34.888
34.92
34.951
34.979
35.004
35.023
35.038
35.047
35.049
35.045
35.034
35.016
34.99
34.958
34.919
34.873
34.822
34.765
34.702
34.635
34.563
34.487
34.408
34.326
34.241
34.155
34.067
33.979
33.891
33.803
33.716
33.631
33.548
33.467
33.389
33.314
33.242
33.172
33.105
33.039
32.975
32.913
32.852
32.792
32.733
32.676
32.622
32.57
32.519
32.471
32.425
32.38
32.338
32.297
32.259
32.222
32.188
32.156
32.127
32.1
32.074
32.05
32.027
32.005
31.984
31.964
31.944
31.924
31.904
31.885
31.866
31.847
31.828
31.809
31.79
31.77
31.751
31.732
31.715
31.699
31.686
31.679
31.679
31.692
31.719
31.765
31.834
31.929
32.054
32.213
32.408
32.641
32.914
33.224
33.572
33.953
34.365
34.801
35.258
35.727
36.203
36.678
37.146
37.6
38.035
38.445
38.826
39.173
39.485
39.759
39.993
40.188
40.343
40.46
40.54
40.586
40.6
40.585
40.544
40.48
40.395
40.294
40.179
40.051
39.915
39.773
39.625
39.476
39.325
39.176
39.029
38.884
38.744
38.607
38.474
38.345
38.218
38.094
37.972
37.85
37.729
37.607
37.485
37.362
37.239
37.115
36.991
36.868
36.745
36.625
36.506
36.391
36.28
36.173
36.074
35.982
35.898
35.824
35.76
35.706
35.662
35.628
35.602
35.586
35.577
35.576
35.582
35.594
35.611
35.632
35.656
35.683
35.709
35.736
35.761
35.784
35.804
35.82
35.832
35.839
35.841
35.838
35.83
35.817
35.798
35.773
35.742
35.705
35.663
35.615
35.562
35.504
35.441
35.374
35.302
35.227
35.148
35.066
34.982
34.897
34.812
34.726
34.641
34.556
34.471
34.387
34.304
34.223
34.143
34.066
33.99
33.917
33.847
33.78
33.715
33.653
33.593
33.536
33.481
33.429
33.38
33.334
33.291
33.251
33.214
33.178
33.143
33.11
33.078
33.047
33.015
32.984
32.953
32.922
32.89
32.858
32.827
32.795
32.764
32.734
32.704
32.675
32.646
32.618
32.589
32.561
32.533
32.505
32.477
32.449
32.422
32.395
32.368
32.342
32.317
32.294
32.274
32.259
32.251
32.254
32.271
32.305
32.362
32.444
32.556
32.701
32.882
33.101
33.36
33.66
33.998
34.374
34.784
35.224
35.688
36.17
36.663
37.16
37.655
38.138
38.605
39.047
39.461
39.841
40.183
40.486
40.746
40.965
41.141
41.276
41.373
41.432
41.457
41.45
41.416
41.356
41.274
41.173
41.057
40.928
40.789
40.642
40.491
40.335
40.179
40.022
39.866
39.713
39.563
39.416
39.274
39.135
39.001
38.87
38.743
38.618
38.496
38.375
38.255
38.136
38.016
37.896
37.774
37.652
37.529
37.405
37.283
37.162
37.044
36.93
36.821
36.719
36.624
36.537
36.46
36.393
36.335
36.288
36.25
36.222
36.203
36.193
36.19
36.195
36.205
36.219
36.236
36.256
36.276
36.296
36.315
36.331
36.345
36.356
36.362
36.364
36.361
36.353
36.34
36.322
36.298
36.269
36.234
36.193
36.146
36.093
36.034
35.971
35.902
35.828
35.751
35.669
35.583
35.494
35.403
35.311
35.219
35.127
35.036
34.947
34.86
34.774
34.689
34.607
34.525
34.446
34.368
34.293
34.22
34.15
34.083
34.018
33.955
33.895
33.837
33.781
33.726
33.672
33.619
33.567
33.515
33.465
33.415
33.368
33.322
33.279
33.238
33.199
33.162
33.126
33.091
33.058
33.027
32.996
32.967
32.938
32.91
32.882
32.855
32.828
32.801
32.773
32.746
32.718
32.69
32.662
32.633
32.604
32.575
32.547
32.519
32.491
32.463
32.435
32.407
32.38
32.354
32.331
32.312
32.299
32.295
32.302
32.325
32.366
32.431
32.523
32.647
32.807
33.005
33.243
33.523
33.843
34.202
34.597
35.024
35.477
35.952
36.441
36.937
37.433
37.922
38.398
38.854
39.284
39.684
40.049
40.376
40.661
40.903
41.102
41.259
41.373
41.448
41.486
41.489
41.462
41.406
41.327
41.227
41.11
40.98
40.838
40.689
40.534
40.374
40.213
40.05
39.889
39.728
39.57
39.415
39.264
39.116
38.972
38.831
38.694
38.559
38.427
38.296
38.166
38.037
37.907
37.778
37.647
37.517
37.386
37.257
37.129
37.003
36.88
36.762
36.649
36.542
36.442
36.351
36.269
36.197
36.134
36.082
36.039
36.007
35.984
35.97
35.965
35.967
35.976
35.991
36.011
36.034
36.06
36.087
36.115
36.142
36.167
36.189
36.206
36.218
36.224
36.223
36.215
36.199
36.176
36.146
36.109
36.065
36.014
35.957
35.895
35.827
35.755
35.678
35.598
35.515
35.428
35.34
35.25
35.158
35.065
34.971
34.877
34.783
34.689
34.597
34.506
34.416
34.329
34.244
34.161
34.08
34.001
33.925
33.851
33.78
33.711
33.644
33.58
33.519
33.461
33.406
33.354
33.304
33.256
33.211
33.168
33.127
33.087
33.048
33.01
32.972
32.935
32.898
32.862
32.826
32.791
32.756
32.721
32.688
32.656
32.626
32.597
32.57
32.546
32.523
32.502
32.482
32.463
32.446
32.429
32.412
32.395
32.378
32.359
32.339
32.317
32.294
32.268
32.241
32.212
32.182
32.152
32.123
32.096
32.072
32.054
32.042
32.042
32.055
32.086
32.14
32.221
32.332
32.478
32.662
32.887
33.152
33.458
33.802
34.183
34.596
35.037
35.5
35.979
36.468
36.959
37.447
37.923
38.382
38.819
39.228
39.604
39.944
40.245
40.506
40.724
40.9
41.034
41.128
41.184
41.205
41.193
41.152
41.084
40.994
40.885
40.759
40.62
40.47
40.312
40.148
39.981
39.812
39.643
39.475
39.31
39.148
38.989
38.835
38.686
38.541
38.4
38.263
38.129
37.996
37.865
37.732
37.599
37.465
37.33
37.194
37.059
36.925
36.793
36.664
36.54
36.421
36.309
36.205
36.11
36.024
35.949
35.883
35.828
35.784
35.749
35.724
35.709
35.703
35.704
35.713
35.727
35.746
35.768
35.792
35.817
35.841
35.864
35.885
35.903
35.917
35.928
35.933
35.934
35.93
35.92
35.906
35.887
35.863
35.832
35.795
35.752
35.704
35.65
35.59
35.526
35.458
35.386
35.31
35.231
35.149
35.065
34.979
34.89
34.8
34.709
34.617
34.525
34.433
34.343
34.253
34.166
34.08
33.995
33.913
33.832
33.753
33.676
33.603
33.532
33.464
33.399
33.336
33.276
33.218
33.163
33.11
33.06
33.013
32.968
32.925
32.884
32.846
32.809
32.774
32.741
32.71
32.681
32.654
32.628
32.604
32.58
32.558
32.536
32.516
32.497
32.48
32.464
32.449
32.435
32.423
32.41
32.398
32.385
32.372
32.357
32.342
32.325
32.308
32.289
32.269
32.248
32.226
32.204
32.182
32.162
32.144
32.131
32.124
32.127
32.141
32.171
32.22
32.292
32.391
32.521
32.686
32.887
33.128
33.409
33.73
34.089
34.484
34.911
35.364
35.839
36.329
36.828
37.329
37.825
38.309
38.775
39.218
39.631
40.011
40.353
40.656
40.918
41.138
41.316
41.452
41.549
41.608
41.632
41.624
41.587
41.524
41.439
41.335
41.215
41.082
40.939
40.788
40.632
40.474
40.314
40.156
39.999
39.846
39.697
39.551
39.409
39.27
39.135
39.003
38.874
38.747
38.623
38.5
38.377
38.255
38.132
38.007
37.882
37.756
37.631
37.506
37.384
37.265
37.149
37.039
36.934
36.836
36.744
36.661
36.586
36.519
36.461
36.412
36.371
36.338
36.313
36.295
36.284
36.28
36.282
36.289
36.302
36.319
36.339
36.362
36.385
36.409
36.432
36.452
36.468
36.479
36.484
36.483
36.475
36.459
36.436
36.404
36.365
36.317
36.262
36.199
36.13
36.054
35.972
35.885
35.794
35.699
35.602
35.503
35.403
35.302
35.202
35.102
35.003
34.907
34.812
34.72
34.63
34.544
34.46
34.379
34.301
34.224
34.15
34.078
34.007
33.937
33.868
33.8
33.733
33.667
33.602
33.539
33.477
33.416
33.358
33.303
33.25
33.199
33.15
33.103
33.058
33.015
32.973
32.932
32.893
32.856
32.821
32.788
32.756
32.727
32.7
32.674
32.649
32.625
32.602
32.58
32.558
32.537
32.516
32.496
32.476
32.457
32.437
32.417
32.397
32.377
32.356
32.333
32.309
32.283
32.256
32.229
32.202
32.176
32.152
32.132
32.119
32.114
32.121
32.143
32.183
32.247
32.338
32.459
32.615
32.808
33.04
33.311
33.622
33.971
34.355
34.77
35.212
35.676
36.155
36.643
37.132
37.616
38.088
38.541
38.97
39.368
39.732
40.059
40.344
40.587
40.788
40.947
41.064
41.143
41.185
41.194
41.171
41.121
41.046
40.95
40.836
40.709
40.569
40.422
40.268
40.111
39.951
39.792
39.634
39.479
39.326
39.178
39.034
38.896
38.762
38.634
38.511
38.391
38.276
38.162
38.05
37.939
37.827
37.715
37.601
37.485
37.368
37.249
37.128
37.007
36.887
36.768
36.653
36.541
36.434
36.334
36.242
36.158
36.085
36.022
35.97
35.928
35.896
35.874
35.859
35.852
35.851
35.854
35.862
35.871
35.882
35.892
35.903
35.912
35.919
35.924
35.924
35.921
35.912
35.898
35.878
35.851
35.818
35.778
35.732
35.681
35.624
35.562
35.496
35.427
35.354
35.279
35.201
35.121
35.039
34.954
34.868
34.779
34.689
34.598
34.507
34.416
34.326
34.237
34.149
34.063
33.978
33.895
33.815
33.736
33.658
33.582
33.507
33.433
33.36
33.289
33.22
33.152
33.085
33.021
32.959
32.9
32.844
32.791
32.741
32.694
32.651
32.61
32.571
32.535
32.499
32.465
32.43
32.396
32.361
32.326
32.29
32.253
32.216
32.178
32.141
32.104
32.068
32.034
32.001
31.97
31.941
31.913
31.886
31.861
31.836
31.812
31.787
31.762
31.736
31.709
31.68
31.65
31.618
31.585
31.55
31.515
31.48
31.447
31.414
31.385
31.359
31.339
31.327
31.325
31.337
31.367
31.418
31.493
31.598
31.734
31.905
32.111
32.355
32.636
32.952
33.301
33.679
34.083
34.506
34.944
35.389
35.836
36.277
36.707
37.118
37.505
37.864
38.189
38.478
38.729
38.94
39.111
39.243
39.336
39.393
39.415
39.405
39.367
39.302
39.216
39.11
38.989
38.855
38.71
38.558
38.401
38.241
38.08
37.92
37.761
37.605
37.451
37.301
37.155
37.012
36.873
36.738
36.607
36.478
36.352
36.227
36.103
35.979
35.855
35.731
35.606
35.481
35.355
35.231
35.107
34.986
34.869
34.756
34.649
34.55
34.46
34.378
34.306
34.244
34.191
34.147
34.112
