Trial 3:3back
37.044
37.126
37.198
37.261
37.314
37.359
37.395
37.424
37.447
37.464
37.478
37.488
37.495
37.499
37.501
37.502
37.501
37.499
37.496
37.491
37.486
37.48
37.472
37.463
37.454
37.443
37.429
37.414
37.394
37.371
37.342
37.309
37.27
37.227
37.179
37.126
37.069
37.008
36.945
36.88
36.814
36.747
36.681
36.616
36.552
36.49
36.431
36.377
36.327
36.282
36.242
36.208
36.176
36.148
36.121
36.095
36.069
36.043
36.016
35.988
35.961
35.934
35.907
35.88
35.855
35.831
35.807
35.782
35.756
35.728
35.7
35.672
35.643
35.613
35.583
35.553
35.521
35.488
35.451
35.413
35.374
35.333
35.291
35.247
35.203
35.158
35.112
35.065
35.017
34.966
34.915
34.864
34.812
34.762
34.712
34.663
34.617
34.572
34.529
34.489
34.45
34.412
34.374
34.336
34.296
34.256
34.214
34.172
34.131
34.089
34.048
34.005
33.963
33.919
33.876
33.833
33.792
33.753
33.716
33.683
33.652
33.625
33.601
33.581
33.564
33.549
33.537
33.527
33.518
33.511
33.504
33.496
33.486
33.473
33.455
33.434
33.409
33.382
33.354
33.326
33.3
33.276
33.254
33.234
33.217
33.201
33.185
33.169
33.152
33.133
33.114
33.094
33.072
33.048
33.022
32.995
32.967
32.937
32.906
32.873
32.84
32.806
32.773
32.741
32.71
32.681
32.653
32.627
32.605
32.586
32.571
32.562
32.56
32.569
32.591
32.629
32.687
32.766
32.87
32.999
33.153
33.331
33.532
33.753
33.991
34.242
34.502
34.767
35.033
35.297
35.555
35.804
36.041
36.263
36.47
36.659
36.832
36.986
37.122
37.241
37.342
37.428
37.499
37.555
37.6
37.633
37.657
37.671
37.677
37.678
37.674
37.667
37.657
37.644
37.628
37.612
37.594
37.574
37.552
37.527
37.5
37.472
37.443
37.414
37.385
37.356
37.327
37.297
37.265
37.23
37.192
37.149
37.101
37.048
36.991
36.931
36.869
36.807
36.746
36.687
36.631
36.579
36.531
36.488
36.449
36.415
36.386
36.363
36.344
36.331
36.324
36.321
36.32
36.322
36.326
36.331
36.337
36.344
36.351
36.358
36.364
36.369
36.372
36.371
36.367
36.358
36.345
36.328
36.305
36.278
36.247
36.212
36.174
36.135
36.094
36.053
36.011
35.967
35.92
35.873
35.824
35.774
35.723
35.672
35.622
35.572
35.523
35.475
35.427
35.38
35.333
35.284
35.235
35.186
35.136
35.088
35.041
34.996
34.955
34.917
34.88
34.845
34.812
34.78
34.748
34.716
34.684
34.653
34.622
34.593
34.565
34.538
34.511
34.485
34.459
34.433
34.407
34.382
34.358
34.335
34.312
34.291
34.271
34.251
34.232
34.214
34.195
34.177
34.158
34.139
34.121
34.104
34.088
34.071
34.054
34.036
34.017
33.996
33.973
33.947
33.918
33.885
33.85
33.814
33.777
33.742
33.708
33.677
33.647
33.62
33.594
33.572
33.551
33.531
33.514
33.498
33.484
33.47
33.458
33.448
33.442
33.442
33.45
33.47
33.505
33.558
33.631
33.725
33.84
33.977
34.135
34.313
34.51
34.726
34.957
35.199
35.451
35.708
35.967
36.226
36.479
36.724
36.958
37.177
37.381
37.567
37.736
37.886
38.019
38.135
38.234
38.315
38.381
38.431
38.469
38.496
38.515
38.526
38.531
38.531
38.529
38.524
38.519
38.514
38.509
38.506
38.504
38.504
38.506
38.508
38.513
38.518
38.523
38.526
38.527
38.524
38.516
38.502
38.482
38.457
38.425
38.386
38.339
38.285
38.223
38.156
38.083
38.007
37.929
37.849
37.769
37.689
37.611
37.535
37.463
37.396
37.334
37.278
37.228
37.184
37.146
37.113
37.086
37.063
37.044
37.029
37.016
37.005
36.994
36.984
36.974
36.963
36.951
36.939
36.927
36.914
36.901
36.885
36.866
36.845
36.82
36.79
36.756
36.717
36.674
36.626
36.574
36.52
36.464
36.407
36.349
36.291
36.232
36.173
36.114
36.054
35.992
35.929
35.866
35.802
35.738
35.676
35.615
35.557
35.501
35.447
35.394
35.342
35.292
35.242
35.192
35.144
35.096
35.049
35.003
34.957
34.912
34.868
34.824
34.781
34.739
34.698
34.659
34.623
34.589
34.557
34.527
34.497
34.468
34.44
34.413
34.387
34.362
34.336
34.312
34.289
34.267
34.248
34.231
34.215
34.202
34.189
34.177
34.166
34.154
34.141
34.128
34.114
34.098
34.079
34.058
34.036
34.013
33.988
33.962
33.935
33.907
33.878
33.849
33.82
33.79
33.759
33.727
33.694
33.66
33.626
33.594
33.563
33.538
33.517
33.504
33.5
33.507
33.528
33.566
33.623
33.701
33.803
33.93
34.081
34.257
34.455
34.674
34.911
35.164
35.428
35.7
35.978
36.258
36.535
36.807
37.07
37.323
37.562
37.785
37.991
38.177
38.342
38.486
38.61
38.713
38.799
38.866
38.918
38.957
38.986
39.006
39.02
39.03
39.038
39.045
39.052
39.059
39.064
39.07
39.077
39.084
39.091
39.099
39.108
39.117
39.124
39.131
39.134
39.134
39.13
39.121
39.107
39.088
39.061
39.027
38.985
38.937
38.881
38.818
38.749
38.674
38.593
38.508
38.42
38.331
38.242
38.153
38.066
37.983
37.903
37.829
37.76
37.696
37.638
37.587
37.542
37.502
37.467
37.437
37.41
37.386
37.364
37.343
37.32
37.296
37.271
37.245
37.217
37.187
37.155
37.122
37.088
37.051
37.012
36.971
36.927
36.882
36.833
36.783
36.73
36.675
36.619
36.56
36.5
36.438
36.376
36.312
36.248
36.183
36.117
36.051
35.984
35.916
35.847
35.778
35.707
35.636
35.563
35.49
35.417
35.345
35.274
35.204
35.136
35.069
35.005
34.942
34.883
34.826
34.774
34.724
34.678
34.633
34.59
34.549
34.507
34.464
34.42
34.376
34.332
34.288
34.245
34.203
34.163
34.126
34.09
34.057
34.028
34.002
33.98
33.961
33.945
33.932
33.92
33.91
33.9
33.892
33.883
33.873
33.862
33.849
33.834
33.816
33.796
33.773
33.747
33.719
33.689
33.657
33.623
33.587
33.55
33.512
33.474
33.435
33.397
33.361
33.325
33.29
33.256
33.221
33.186
33.152
33.119
33.087
33.055
33.024
32.993
32.964
32.936
32.911
32.889
32.874
32.868
32.874
32.896
32.939
33.004
33.096
33.214
33.362
33.538
33.743
33.975
34.232
34.511
34.809
35.12
35.441
35.769
36.1
36.429
36.75
37.061
37.354
37.628
37.88
38.106
38.307
38.483
38.636
38.767
38.877
38.967
39.04
39.099
39.147
39.185
39.214
39.234
39.249
39.258
39.264
39.267
39.268
39.27
39.272
39.277
39.284
39.291
39.299
39.306
39.313
39.318
39.32
39.319
39.314
39.306
39.292
39.273
39.249
39.217
39.18
39.134
39.081
39.019
38.949
38.873
38.79
38.701
38.609
38.516
38.422
38.33
38.24
38.154
38.07
37.991
37.916
37.845
37.778
37.715
37.657
37.603
37.554
37.509
37.468
37.43
37.394
37.36
37.325
37.291
37.255
37.216
37.175
37.131
37.087
37.041
36.995
36.947
36.898
36.849
36.8
36.75
36.7
36.648
36.596
36.543
36.488
36.431
36.372
36.312
36.249
36.184
36.118
36.051
35.984
35.915
35.846
35.776
35.705
35.633
35.561
35.49
35.419
35.349
35.281
35.214
35.148
35.083
35.018
34.954
34.891
34.83
34.771
34.713
34.656
34.6
34.544
34.49
34.437
34.385
34.335
34.286
34.238
34.192
34.146
34.102
34.058
34.015
33.972
33.932
33.893
33.856
33.821
33.788
33.757
33.727
33.699
33.671
33.643
33.616
33.588
33.56
33.531
33.501
33.47
33.438
33.405
33.371
33.336
33.301
33.265
33.229
33.193
33.155
33.117
33.079
33.042
33.006
32.97
32.936
32.904
32.873
32.843
32.814
32.784
32.754
32.722
32.688
32.653
32.618
32.584
32.55
32.518
32.487
32.457
32.428
32.4
32.375
32.351
32.33
32.313
32.3
32.294
32.297
32.312
32.341
32.387
32.453
32.543
32.658
32.799
32.968
33.163
33.384
33.627
33.89
34.17
34.463
34.765
35.07
35.375
35.675
35.967
36.247
36.514
36.764
36.996
37.209
37.4
37.57
37.719
37.847
37.956
38.047
38.121
38.181
38.229
38.264
38.288
38.303
38.31
38.31
38.305
38.295
38.284
38.27
38.257
38.245
38.235
38.228
38.223
38.221
38.219
38.218
38.216
38.211
38.201
38.185
38.163
38.134
38.098
38.056
38.008
37.953
37.893
37.827
37.756
37.68
37.6
37.515
37.427
37.334
37.24
37.146
37.054
36.964
36.878
36.799
36.725
36.66
36.602
36.552
36.51
36.476
36.447
36.423
36.403
36.383
36.364
36.344
36.322
36.297
36.27
36.241
36.212
36.182
36.151
36.12
36.087
36.052
36.016
35.978
35.938
35.896
35.853
35.808
35.762
35.715
35.669
35.623
35.578
35.533
35.487
35.442
35.396
35.351
35.305
35.259
35.214
35.167
35.12
35.072
35.023
34.973
34.923
34.872
34.822
34.772
34.725
34.678
34.632
34.587
34.543
34.499
34.457
34.414
34.371
34.33
34.288
34.247
34.205
34.162
34.12
34.078
34.036
33.996
33.957
33.92
33.885
33.851
33.82
33.792
33.766
33.743
33.721
33.7
33.679
33.658
33.636
33.614
33.592
33.569
33.544
33.518
33.492
33.465
33.438
33.412
33.387
33.363
33.341
33.32
33.301
33.283
33.266
33.25
33.233
33.217
33.2
33.183
33.163
33.141
33.117
33.091
33.063
33.034
33.003
32.971
32.937
32.903
32.869
32.835
32.803
32.774
32.748
32.728
32.715
32.712
32.721
32.743
32.782
32.84
32.919
33.021
33.148
33.3
33.476
33.676
33.897
34.137
34.392
34.66
34.937
35.219
35.501
35.779
36.051
36.311
36.558
36.788
37.0
37.191
37.362
37.511
37.639
37.747
37.837
37.911
37.969
38.016
38.052
38.078
38.096
38.108
38.115
38.119
38.121
38.122
38.121
38.121
38.12
38.12
38.119
38.12
38.121
38.123
38.126
38.13
38.134
38.137
38.138
38.136
38.129
38.115
38.094
38.064
38.024
37.976
37.919
37.854
37.781
37.701
37.616
37.527
37.433
37.337
37.238
37.139
37.04
36.943
36.849
36.76
36.678
36.602
36.534
36.473
36.417
36.369
36.325
36.286
36.25
36.217
36.186
36.156
36.125
36.096
36.066
36.037
36.008
35.979
35.95
35.919
35.886
35.853
35.819
35.785
35.751
35.717
35.681
35.644
35.604
35.561
35.515
35.468
35.419
35.369
35.319
35.269
35.219
35.169
35.119
35.07
35.02
34.97
34.92
34.869
34.818
34.766
34.714
34.662
34.61
34.559
34.509
34.46
34.412
34.365
34.319
34.272
34.224
34.177
34.129
34.079
34.029
33.977
33.924
33.871
33.816
33.761
33.707
33.655
33.604
33.556
33.51
33.468
33.427
33.389
33.353
33.318
33.283
33.249
33.217
33.185
33.155
33.127
33.099
33.072
33.046
33.02
32.995
32.97
32.946
32.922
32.899
32.876
32.853
32.83
32.806
32.782
32.758
32.735
32.714
32.693
32.672
32.65
32.627
32.602
32.575
32.547
32.516
32.484
32.451
32.417
32.382
32.348
32.314
32.281
32.248
32.216
32.187
32.162
32.143
32.134
32.137
32.156
32.193
32.252
32.334
32.443
32.579
32.742
32.934
33.151
33.393
33.655
33.933
34.222
34.518
34.816
35.113
35.405
35.687
35.958
36.215
36.456
36.679
36.883
37.068
37.233
37.38
37.508
37.619
37.713
37.791
37.853
37.902
37.939
37.965
37.982
37.992
37.995
37.993
37.988
37.98
37.972
37.965
37.958
37.953
37.947
37.942
37.935
37.928
37.921
37.913
37.905
37.896
37.885
37.871
37.856
37.838
37.817
37.792
37.761
37.722
37.674
37.617
37.553
37.483
37.408
37.33
37.25
37.169
37.088
37.009
36.933
36.861
36.792
36.727
36.666
36.609
36.555
36.504
36.456
36.41
36.365
36.321
36.278
36.237
36.197
36.159
36.123
36.089
36.056
36.023
35.991
35.959
35.928
35.895
35.862
35.828
35.792
35.754
35.714
35.672
35.629
35.583
35.535
35.484
35.431
35.375
35.318
35.26
35.2
35.141
35.08
35.02
34.96
34.9
34.841
34.781
34.721
34.66
34.597
34.534
34.47
34.405
34.34
34.276
34.212
34.15
34.089
34.03
33.974
33.919
33.867
33.816
33.769
33.725
33.685
33.649
33.615
33.584
33.553
33.522
33.489
33.455
33.419
33.381
33.341
33.302
33.263
33.226
33.19
33.157
33.126
33.097
33.07
33.044
33.02
32.998
32.978
32.959
32.942
32.924
32.907
32.889
32.87
32.85
32.829
32.807
32.784
32.76
32.736
32.711
32.684
32.655
32.625
32.595
32.564
32.534
32.503
32.473
32.444
32.415
32.386
32.358
32.331
32.306
32.281
32.258
32.236
32.216
32.199
32.183
32.169
32.157
32.149
32.145
32.147
32.159
32.182
32.219
32.274
32.35
32.449
32.572
32.72
32.893
33.091
33.312
33.555
33.816
34.091
34.377
34.67
34.963
35.254
35.537
35.811
36.073
36.321
36.552
36.765
36.959
37.133
37.29
37.428
37.548
37.65
37.737
37.809
37.868
37.914
37.95
37.978
38.0
38.019
38.034
38.046
38.056
38.066
38.076
38.085
38.095
38.104
38.112
38.12
38.125
38.129
38.129
38.128
38.123
38.114
38.1
38.08
38.054
38.022
37.985
37.941
37.892
37.837
37.777
37.71
37.639
37.563
37.485
37.404
37.322
37.238
37.154
37.07
36.988
36.907
36.829
36.757
36.689
36.627
36.57
36.519
36.473
36.433
36.398
36.367
36.34
36.316
36.294
36.272
36.251
36.229
36.207
36.183
36.159
36.132
36.105
36.076
36.041
36.0
35.954
35.901
35.845
35.786
35.725
35.663
35.601
35.54
35.479
35.42
35.362
35.305
35.25
35.195
35.141
35.088
35.034
34.978
34.921
34.862
34.802
34.741
34.679
34.615
34.549
34.483
34.415
34.347
34.279
34.213
34.151
34.092
34.036
33.982
33.932
33.883
33.836
33.79
33.746
33.703
33.663
33.626
33.591
33.558
33.526
33.494
33.462
33.429
33.397
33.365
33.334
33.304
33.276
33.251
33.227
33.204
33.182
33.159
33.137
33.116
33.095
33.075
33.056
33.037
33.018
32.999
32.978
32.956
32.933
32.91
32.886
32.862
32.839
32.819
32.802
32.785
32.769
32.752
32.733
32.712
32.689
32.664
32.637
32.609
32.581
32.553
32.524
32.496
32.468
32.441
32.415
32.389
32.364
32.34
32.317
32.295
32.272
32.249
32.227
32.206
32.188
32.174
32.166
32.165
32.173
32.193
32.228
32.28
32.352
32.445
32.564
32.708
32.879
33.076
33.297
33.538
33.797
34.071
34.354
34.642
34.93
35.216
35.495
35.764
36.02
36.26
36.483
36.689
36.876
37.043
37.189
37.315
37.421
37.507
37.576
37.629
37.666
37.691
37.704
37.707
37.703
37.692
37.677
37.66
37.64
37.62
37.6
37.581
37.563
37.546
37.533
37.523
37.517
37.512
37.507
37.502
37.495
37.486
37.474
37.457
37.435
37.409
37.376
37.338
37.292
37.241
37.184
37.123
37.057
36.987
36.914
36.839
36.763
36.688
36.614
36.543
36.477
36.415
36.359
36.306
36.258
36.215
36.177
36.142
36.111
36.083
36.059
36.038
36.019
36.002
35.986
35.97
35.953
35.935
35.916
35.895
35.871
35.843
35.812
35.776
35.736
35.693
35.649
35.604
35.559
35.514
35.469
35.425
35.382
35.34
35.299
35.26
35.221
35.182
35.143
35.103
35.063
35.021
34.979
34.935
34.889
34.842
34.794
34.744
34.694
34.643
34.591
34.538
34.478
34.411
34.335
34.252
34.165
34.077
33.992
33.914
33.844
33.786
33.738
33.702
33.675
33.658
33.649
33.644
33.643
33.645
33.646
33.647
33.645
33.641
33.635
33.626
33.614
33.599
33.582
33.563
33.543
33.522
33.501
33.479
33.457
33.434
33.41
33.386
33.361
33.335
33.307
33.278
33.249
33.22
33.191
33.162
33.133
33.104
33.074
33.045
33.015
32.985
32.955
32.926
32.896
32.867
32.838
32.81
32.783
32.758
32.734
32.712
32.694
32.679
32.671
32.669
32.677
32.696
32.728
32.778
32.846
32.935
33.046
33.18
33.339
33.52
33.723
33.945
34.184
34.438
34.701
34.97
35.241
35.511
35.775
36.032
36.277
36.509
36.725
36.923
37.102
37.261
37.4
37.518
37.618
37.699
37.763
37.812
37.848
37.873
37.887
37.894
37.894
37.889
37.88
37.868
37.854
37.84
37.827
37.814
37.803
37.793
37.785
37.78
37.775
37.771
37.768
37.763
37.755
37.743
37.727
37.705
37.677
37.645
37.607
37.562
37.511
37.452
37.386
37.313
37.234
37.151
37.065
36.978
36.89
36.804
36.721
36.641
36.567
36.498
36.437
36.382
36.334
36.291
36.254
36.221
36.193
36.169
36.148
36.13
36.114
36.099
36.085
36.07
36.053
36.035
36.016
35.995
35.972
35.948
35.923
35.897
35.869
35.838
35.805
35.77
35.732
35.691
35.647
35.601
35.551
35.499
35.444
35.387
35.33
35.273
35.216
35.159
35.103
35.047
34.991
34.935
34.879
34.822
34.764
34.706
34.647
34.588
34.53
34.472
34.415
34.359
34.304
34.252
34.203
34.157
34.113
34.073
34.035
33.998
33.964
33.931
33.899
33.868
33.837
33.807
33.777
33.747
33.716
33.686
33.656
33.626
33.596
33.566
33.536
33.507
33.479
33.452
33.425
33.399
33.374
33.351
33.328
33.307
33.287
33.267
33.248
33.228
33.208
33.188
33.168
33.148
33.128
33.109
33.089
33.07
33.051
33.031
33.011
32.991
32.97
32.949
32.929
32.91
32.89
32.87
32.849
32.827
32.805
32.781
32.758
32.734
32.712
32.692
32.674
32.661
32.653
32.651
32.659
32.678
32.712
32.765
32.838
32.936
33.059
33.209
33.384
33.584
33.806
34.049
34.311
34.586
34.871
35.163
35.457
35.749
36.034
36.31
36.573
36.82
37.051
37.262
37.453
37.623
37.773
37.902
38.011
38.102
38.176
38.234
38.279
38.312
38.335
38.349
38.357
38.361
38.36
38.357
38.352
38.346
38.339
38.332
38.325
38.32
38.315
38.312
38.309
38.306
38.303
38.301
38.3
38.299
38.296
38.288
38.275
38.254
38.223
38.182
38.131
38.07
38.002
37.926
37.845
37.759
37.671
37.582
37.494
37.407
37.321
37.239
37.159
37.084
37.013
36.946
36.884
36.827
36.776
36.729
36.688
36.65
36.618
36.588
36.56
36.534
36.509
36.484
36.46
36.436
36.411
36.386
36.359
36.331
36.3
36.266
36.231
36.193
36.154
36.112
36.069
36.024
35.977
35.93
35.881
35.832
35.781
35.729
35.677
35.623
35.568
35.514
35.458
35.402
35.346
35.289
35.232
35.174
35.116
35.058
35.002
34.946
34.893
34.841
34.791
34.743
34.695
34.647
34.599
34.55
34.499
34.447
34.393
34.339
34.285
34.231
34.177
34.124
34.072
34.02
33.968
33.917
33.866
33.818
33.773
33.73
33.691
33.656
33.624
33.594
33.567
33.543
33.521
33.501
33.482
33.464
33.447
33.431
33.415
33.399
33.383
33.367
33.35
33.332
33.313
33.293
33.272
33.249
33.224
33.197
33.169
33.14
33.111
33.082
33.054
33.026
32.999
32.972
32.946
32.921
32.896
32.871
32.846
32.82
32.794
32.767
32.738
32.707
32.676
32.643
32.61
32.577
32.545
32.515
32.487
32.462
32.443
32.432
32.432
32.444
32.473
32.521
32.591
32.684
32.802
32.946
33.117
33.315
33.537
33.784
34.053
34.342
34.645
34.959
35.277
35.596
35.91
36.216
36.509
36.785
37.044
37.282
37.498
37.689
37.857
38.001
38.124
38.227
38.311
38.377
38.428
38.465
38.489
38.502
38.506
38.504
38.497
38.486
38.472
38.456
38.439
38.422
38.405
38.388
38.372
38.357
38.343
38.33
38.316
38.304
38.292
38.281
38.269
38.256
38.24
38.22
38.195
38.165
38.128
38.084
38.035
37.981
37.922
37.857
37.788
37.715
37.639
37.561
37.481
37.399
37.318
37.239
37.162
37.087
37.017
36.951
36.891
36.836
36.784
36.736
36.691
36.648
36.607
36.566
36.525
36.486
36.447
36.409
36.372
36.336
36.299
36.262
36.224
36.185
36.145
36.105
36.065
36.025
35.985
35.944
35.902
35.858
35.813
35.765
35.717
35.666
35.614
35.56
35.504
35.449
35.392
35.335
35.276
35.215
35.153
35.091
35.027
34.964
34.902
34.841
34.782
34.725
34.67
34.616
34.563
34.511
34.46
34.409
34.358
34.307
34.257
34.207
34.158
34.11
34.062
34.014
33.967
33.92
33.873
33.826
33.779
33.733
33.688
33.644
33.601
33.559
33.518
33.478
33.437
33.396
33.357
33.319
33.282
33.245
33.21
33.177
33.146
33.118
33.092
33.068
33.046
33.024
33.004
32.985
32.967
32.95
32.932
32.913
32.894
32.873
32.851
32.829
32.807
32.785
32.764
32.743
32.721
32.7
32.676
32.651
32.623
32.594
32.564
32.533
32.501
32.469
32.437
32.403
32.369
32.335
32.303
32.272
32.243
32.217
32.197
32.182
32.175
32.177
32.191
32.22
32.265
32.332
32.421
32.536
32.679
32.849
33.047
33.272
33.522
33.794
34.083
34.385
34.696
35.01
35.324
35.633
35.932
36.218
36.487
36.736
36.964
37.17
37.355
37.517
37.658
37.779
37.88
37.963
38.029
38.081
38.118
38.145
38.161
38.17
38.172
38.169
38.162
38.151
38.139
38.126
38.113
38.1
