Trial 3:3back
34.723
34.679
34.638
34.6
34.563
34.526
34.491
34.456
34.422
34.389
34.355
34.322
34.289
34.258
34.228
34.2
34.174
34.149
34.126
34.104
34.085
34.069
34.054
34.04
34.028
34.015
34.003
33.989
33.974
33.957
33.938
33.918
33.896
33.872
33.848
33.822
33.797
33.771
33.746
33.721
33.698
33.676
33.655
33.635
33.616
33.596
33.574
33.551
33.527
33.502
33.477
33.45
33.424
33.397
33.371
33.345
33.322
33.3
33.28
33.262
33.244
33.227
33.209
33.191
33.173
33.154
33.135
33.116
33.095
33.073
33.052
33.031
33.01
32.99
32.971
32.954
32.938
32.924
32.911
32.898
32.885
32.872
32.858
32.843
32.829
32.814
32.799
32.787
32.777
32.772
32.776
32.792
32.822
32.872
32.943
33.04
33.164
33.316
33.497
33.707
33.944
34.207
34.49
34.791
35.103
35.422
35.745
36.065
36.379
36.682
36.971
37.243
37.496
37.728
37.939
38.128
38.293
38.435
38.556
38.656
38.738
38.803
38.853
38.888
38.91
38.921
38.92
38.91
38.893
38.87
38.841
38.808
38.771
38.732
38.691
38.65
38.609
38.569
38.53
38.492
38.456
38.419
38.384
38.349
38.314
38.279
38.242
38.202
38.157
38.108
38.052
37.991
37.924
37.851
37.773
37.691
37.604
37.514
37.424
37.334
37.244
37.156
37.072
36.992
36.919
36.851
36.79
36.735
36.687
36.646
36.61
36.58
36.555
36.534
36.516
36.502
36.49
36.479
36.467
36.454
36.439
36.421
36.4
36.377
36.353
36.328
36.301
36.272
36.241
36.208
36.172
36.134
36.091
36.046
35.997
35.945
35.889
35.829
35.766
35.7
35.631
35.562
35.494
35.426
35.361
35.297
35.237
35.18
35.126
35.076
35.029
34.987
34.948
34.912
34.88
34.849
34.819
34.789
34.76
34.732
34.703
34.673
34.642
34.609
34.576
34.543
34.509
34.475
34.441
34.409
34.377
34.346
34.317
34.288
34.261
34.235
34.21
34.184
34.16
34.136
34.113
34.09
34.067
34.045
34.022
34.0
33.978
33.957
33.936
33.916
33.897
33.878
33.86
33.844
33.829
33.814
33.8
33.787
33.774
33.76
33.747
33.732
33.717
33.702
33.686
33.67
33.653
33.634
33.615
33.595
33.575
33.553
33.531
33.509
33.487
33.465
33.442
33.418
33.392
33.366
33.34
33.313
33.288
33.263
33.238
33.215
33.193
33.173
33.153
33.134
33.115
33.096
33.076
33.054
33.031
33.006
32.98
32.955
32.933
32.914
32.901
32.896
32.903
32.924
32.962
33.021
33.101
33.206
33.339
33.498
33.685
33.897
34.132
34.387
34.659
34.944
35.24
35.541
35.844
36.146
36.441
36.726
36.996
37.249
37.483
37.696
37.888
38.057
38.204
38.329
38.431
38.513
38.575
38.62
38.649
38.665
38.669
38.663
38.647
38.624
38.595
38.56
38.522
38.48
38.435
38.389
38.341
38.293
38.245
38.198
38.152
38.106
38.06
38.013
37.964
37.914
37.861
37.804
37.745
37.681
37.613
37.542
37.466
37.386
37.303
37.217
37.131
37.044
36.959
36.877
36.798
36.723
36.652
36.587
36.528
36.475
36.429
36.388
36.351
36.319
36.29
36.264
36.24
36.218
36.197
36.178
36.16
36.142
36.125
36.107
36.089
36.071
36.053
36.035
36.016
35.997
35.977
35.956
35.935
35.913
35.891
35.866
35.839
35.81
35.777
35.74
35.7
35.657
35.611
35.562
35.509
35.452
35.393
35.331
35.268
35.205
35.141
35.078
35.017
34.957
34.899
34.843
34.788
34.734
34.682
34.632
34.584
34.538
34.495
34.454
34.415
34.378
34.342
34.307
34.272
34.238
34.205
34.172
34.139
34.106
34.074
34.043
34.014
33.987
33.963
33.94
33.92
33.902
33.888
33.877
33.869
33.863
33.858
33.854
33.851
33.846
33.839
33.831
33.82
33.808
33.793
33.776
33.757
33.738
33.716
33.694
33.672
33.649
33.626
33.603
33.58
33.557
33.533
33.511
33.489
33.469
33.45
33.432
33.416
33.401
33.387
33.372
33.356
33.339
33.322
33.306
33.29
33.275
33.259
33.244
33.229
33.214
33.2
33.186
33.173
33.159
33.143
33.125
33.104
33.081
33.055
33.027
32.999
32.97
32.941
32.911
32.88
32.85
32.821
32.793
32.768
32.746
32.728
32.715
32.71
32.716
32.736
32.776
32.839
32.927
33.044
33.191
33.368
33.575
33.813
34.076
34.365
34.674
35.0
35.337
35.681
36.027
36.37
36.705
37.028
37.334
37.621
37.887
38.13
38.349
38.544
38.714
38.859
38.982
39.084
39.165
39.228
39.275
39.309
39.329
39.339
39.341
39.335
39.323
39.304
39.281
39.253
39.221
39.188
39.154
39.12
39.087
39.053
39.02
38.988
38.956
38.925
38.894
38.863
38.83
38.795
38.758
38.717
38.672
38.624
38.572
38.516
38.454
38.388
38.317
38.241
38.16
38.075
37.987
37.897
37.806
37.716
37.627
37.539
37.455
37.374
37.297
37.224
37.156
37.094
37.038
36.988
36.944
36.905
36.871
36.84
36.812
36.786
36.762
36.74
36.717
36.695
36.671
36.645
36.616
36.584
36.55
36.514
36.476
36.436
36.395
36.352
36.306
36.258
36.208
36.156
36.103
36.049
35.993
35.935
35.878
35.82
35.762
35.703
35.643
35.583
35.522
35.462
35.402
35.341
35.281
35.221
35.162
35.104
35.049
34.996
34.946
34.899
34.855
34.813
34.773
34.735
34.698
34.661
34.623
34.586
34.547
34.509
34.472
34.435
34.399
34.364
34.332
34.301
34.272
34.245
34.22
34.196
34.174
34.154
34.135
34.115
34.096
34.075
34.055
34.034
34.012
33.99
33.966
33.943
33.918
33.894
33.87
33.845
33.82
33.795
33.769
33.745
33.72
33.696
33.673
33.649
33.626
33.604
33.583
33.562
33.543
33.523
33.505
33.486
33.469
33.451
33.435
33.42
33.404
33.389
33.374
33.357
33.339
33.319
33.298
33.276
33.252
33.226
33.2
33.172
33.143
33.115
33.086
33.059
33.032
33.007
32.982
32.958
32.934
32.909
32.885
32.862
32.839
32.819
32.803
32.792
32.788
32.794
32.812
32.846
32.899
32.974
33.075
33.203
33.359
33.543
33.753
33.989
34.247
34.526
34.822
35.131
35.449
35.77
36.092
36.409
36.718
37.016
37.298
37.562
37.807
38.029
38.229
38.407
38.562
38.695
38.806
38.897
38.97
39.025
39.064
39.089
39.102
39.102
39.092
39.073
39.048
39.018
38.985
38.951
38.914
38.877
38.838
38.799
38.759
38.72
38.682
38.644
38.607
38.57
38.533
38.496
38.458
38.418
38.376
38.331
38.281
38.225
38.163
38.094
38.017
37.934
37.844
37.748
37.648
37.546
37.443
37.34
37.24
37.143
37.05
36.964
36.884
36.811
36.744
36.684
36.63
36.583
36.541
36.505
36.474
36.448
36.425
36.405
36.388
36.371
36.354
36.337
36.318
36.298
36.275
36.251
36.226
36.199
36.17
36.14
36.109
36.077
36.044
36.009
35.973
35.935
35.896
35.856
35.815
35.772
35.727
35.678
35.626
35.571
35.513
35.451
35.389
35.325
35.262
35.199
35.137
35.078
35.021
34.966
34.915
34.866
34.819
34.774
34.732
34.69
34.649
34.611
34.574
34.539
34.505
34.473
34.442
34.412
34.382
34.352
34.323
34.294
34.266
34.24
34.214
34.19
34.168
34.146
34.125
34.105
34.085
34.064
34.043
34.022
33.999
33.976
33.953
33.93
33.907
33.882
33.857
33.832
33.806
33.78
33.755
33.731
33.708
33.686
33.665
33.645
33.626
33.608
33.589
33.57
33.553
33.536
33.52
33.504
33.49
33.479
33.47
33.464
33.459
33.454
33.447
33.438
33.426
33.409
33.388
33.364
33.337
33.306
33.274
33.241
33.207
33.174
33.141
33.107
33.075
33.044
33.013
32.985
32.959
32.935
32.911
32.888
32.865
32.841
32.817
32.795
32.774
32.755
32.74
32.73
32.729
32.738
32.761
32.801
32.862
32.945
33.054
33.188
33.348
33.536
33.749
33.986
34.245
34.522
34.813
35.115
35.422
35.73
36.033
36.328
36.612
36.881
37.135
37.371
37.589
37.787
37.965
38.123
38.26
38.378
38.476
38.557
38.619
38.665
38.698
38.717
38.724
38.72
38.708
38.687
38.66
38.627
38.59
38.551
38.509
38.466
38.421
38.375
38.33
38.284
38.239
38.195
38.152
38.108
38.065
38.019
37.972
37.922
37.868
37.811
37.749
37.681
37.609
37.531
37.45
37.364
37.275
37.182
37.088
36.994
36.9
36.809
36.722
36.639
36.56
36.488
36.422
36.364
36.313
36.269
36.233
36.204
36.182
36.165
36.154
36.147
36.143
36.139
36.136
36.132
36.126
36.119
36.111
36.1
36.086
36.071
36.053
36.032
36.007
35.978
35.946
35.911
35.874
35.834
35.791
35.747
35.702
35.655
35.607
35.556
35.504
35.45
35.394
35.338
35.281
35.224
35.167
35.109
35.052
34.997
34.942
34.889
34.837
34.787
34.737
34.688
34.641
34.595
34.549
34.505
34.462
34.419
34.375
34.333
34.292
34.253
34.216
34.182
34.151
34.123
34.099
34.078
34.061
34.047
34.035
34.025
34.015
34.007
34.0
33.992
33.983
33.974
33.962
33.949
33.934
33.917
33.898
33.879
33.86
33.842
33.826
33.812
33.798
33.784
33.769
33.754
33.738
33.722
33.705
33.686
33.668
33.649
33.63
33.611
33.59
33.568
33.545
33.522
33.498
33.474
33.45
33.424
33.398
33.37
33.341
33.312
33.283
33.256
33.232
33.211
33.192
33.176
33.161
33.148
33.136
33.125
33.114
33.102
33.089
33.074
33.058
33.042
33.024
33.005
32.986
32.967
32.947
32.928
32.91
32.895
32.884
32.88
32.885
32.903
32.937
32.99
33.067
33.169
33.298
33.456
33.644
33.861
34.105
34.373
34.664
34.972
35.293
35.624
35.958
36.292
36.621
36.94
37.247
37.537
37.807
38.057
38.284
38.488
38.669
38.827
38.962
39.076
39.169
39.243
39.3
39.342
39.37
39.385
39.39
39.386
39.375
39.358
39.337
39.311
39.283
39.255
39.226
39.197
39.17
39.142
39.115
39.087
39.058
39.03
39.001
38.971
38.941
38.908
38.874
38.836
38.795
38.75
38.702
38.649
38.59
38.526
38.456
38.381
38.3
38.214
38.124
38.031
37.935
37.838
37.739
37.64
37.542
37.447
37.356
37.269
37.186
37.108
37.036
36.969
36.908
36.853
36.805
36.77
36.752
36.749
36.758
36.776
36.798
36.819
36.835
36.842
36.839
36.824
36.796
36.756
36.704
36.643
36.574
36.499
36.421
36.342
36.261
36.182
36.104
36.029
35.956
35.887
35.821
35.757
35.697
35.639
35.585
35.535
35.487
35.443
35.4
35.358
35.317
35.275
35.234
35.191
35.147
35.102
35.055
35.007
34.959
34.91
34.86
34.81
34.76
34.71
34.661
34.614
34.567
34.523
34.481
34.442
34.406
34.375
34.349
34.327
34.31
34.297
34.286
34.277
34.267
34.257
34.244
34.231
34.215
34.197
34.178
34.157
34.136
34.113
34.089
34.064
34.038
34.013
33.987
33.962
33.937
33.914
33.892
33.87
33.848
33.826
33.803
33.78
33.756
33.733
33.71
33.687
33.665
33.643
33.621
33.599
33.577
33.555
33.532
33.511
33.489
33.468
33.448
33.428
33.409
33.389
33.367
33.345
33.321
33.296
33.27
33.244
33.218
33.193
33.168
33.144
33.121
33.098
33.074
33.05
33.025
33.0
32.975
32.95
32.928
32.91
32.898
32.892
32.897
32.913
32.945
32.993
33.062
33.154
33.27
33.412
33.582
33.778
33.999
34.242
34.505
34.784
35.076
35.377
35.683
35.989
36.291
36.586
36.869
37.138
37.391
37.627
37.844
38.041
38.218
38.375
38.511
38.627
38.724
38.804
38.867
38.914
38.946
38.966
38.975
38.976
38.97
38.959
38.943
38.925
38.905
38.884
38.863
38.842
38.821
38.801
38.782
38.762
38.741
38.72
38.697
38.673
38.647
38.618
38.586
38.549
38.508
38.46
38.407
38.346
38.278
38.203
38.123
38.037
37.945
37.85
37.752
37.652
37.551
37.45
37.351
37.254
37.161
37.073
36.99
36.912
36.84
36.772
36.709
36.652
36.599
36.55
36.505
36.465
36.428
36.394
36.362
36.331
36.3
36.27
36.24
36.209
36.179
36.148
36.118
36.087
36.055
36.022
35.986
35.948
35.908
35.864
35.819
35.771
35.723
35.672
35.621
35.569
35.516
35.463
35.409
35.356
35.303
35.25
35.196
35.143
35.09
35.038
34.986
34.935
34.884
34.834
34.786
34.739
34.694
34.649
34.606
34.563
34.521
34.479
34.438
34.398
34.359
34.322
34.286
34.253
34.221
34.191
34.162
34.135
34.109
34.084
34.06
34.038
34.017
33.998
33.979
33.961
33.943
33.926
33.91
33.894
33.877
33.859
33.841
33.821
33.8
33.778
33.754
33.728
33.702
33.676
33.65
33.624
33.597
33.571
33.545
33.519
33.495
33.472
33.45
33.428
33.407
33.386
33.368
33.35
33.333
33.316
33.299
33.281
33.263
33.245
33.227
33.209
33.191
33.173
33.156
33.139
33.123
33.108
33.092
33.077
33.063
33.047
33.031
33.014
32.996
32.977
32.957
32.938
32.916
32.893
32.868
32.842
32.816
32.79
32.764
32.74
32.716
32.694
32.673
32.653
32.636
32.62
32.606
32.594
32.582
32.572
32.562
32.553
32.546
32.543
32.545
32.556
32.578
32.614
32.669
32.744
32.843
32.967
33.116
33.289
33.487
33.708
33.949
34.209
34.484
34.768
35.06
35.353
35.646
35.932
36.21
36.475
36.725
36.957
37.17
37.364
37.539
37.695
37.832
37.951
38.053
38.14
38.212
38.271
38.318
38.355
38.381
38.398
38.408
38.411
38.409
38.403
38.394
38.382
38.369
38.353
38.335
38.316
38.295
38.273
38.25
38.227
38.203
38.178
38.153
38.126
38.099
38.069
38.036
38.001
37.961
37.917
37.866
37.811
37.749
37.681
37.606
37.526
37.44
37.35
37.256
37.16
37.064
36.97
36.879
36.793
36.712
36.637
36.568
36.505
36.446
36.393
36.346
36.302
36.262
36.224
36.19
36.157
36.127
36.099
36.073
36.048
36.024
36.002
35.981
35.961
35.94
35.919
35.898
35.874
35.848
35.819
35.785
35.747
35.705
35.659
35.61
35.557
35.504
35.451
35.398
35.345
35.294
35.243
35.192
35.143
35.093
35.044
34.995
34.947
34.899
34.852
34.806
34.762
34.718
34.675
34.632
34.589
34.547
34.505
34.464
34.422
34.38
34.34
34.3
34.263
34.228
34.194
34.161
34.129
34.098
34.067
34.038
34.009
33.98
33.952
33.925
33.9
33.875
33.851
33.827
33.803
33.778
33.753
33.727
33.7
33.674
33.649
33.625
33.602
33.58
33.559
33.537
33.517
33.498
33.48
33.462
33.445
33.429
33.414
33.397
33.379
33.36
33.34
33.319
33.297
33.275
33.252
33.229
33.208
33.187
33.167
33.149
33.131
33.117
33.104
33.092
33.08
33.068
33.056
33.043
33.03
33.016
33.0
32.984
32.967
32.95
32.933
32.916
32.897
32.878
32.858
32.836
32.813
32.788
32.763
32.738
32.714
32.691
32.668
32.646
32.624
32.604
32.586
32.569
32.552
32.535
32.516
32.497
32.477
32.457
32.439
32.423
32.41
32.4
32.394
32.395
32.403
32.421
32.451
32.497
32.56
32.642
32.746
32.871
33.018
33.186
33.374
33.58
33.803
34.041
34.29
34.549
34.813
35.079
35.343
35.602
35.853
36.092
36.317
36.527
36.72
36.894
37.049
37.187
37.307
37.409
37.494
37.563
37.618
37.66
37.69
37.712
37.726
37.734
37.736
37.735
37.73
37.723
37.714
37.704
37.692
37.679
37.666
37.652
37.636
37.62
37.603
37.585
37.566
37.547
37.526
37.503
37.477
37.447
37.412
37.374
37.331
37.283
37.229
37.17
37.107
37.039
36.968
36.895
36.82
36.743
36.667
36.591
36.518
36.45
36.387
36.332
36.285
36.244
36.21
36.18
36.154
36.132
36.112
36.093
36.075
36.057
36.038
36.018
35.997
35.976
35.955
35.933
35.912
35.89
35.869
35.848
35.827
35.804
35.779
35.751
35.719
35.685
35.649
35.61
35.569
35.525
35.48
35.434
35.386
35.338
35.289
35.239
35.189
35.138
35.086
35.035
34.984
34.935
34.886
34.838
34.791
34.744
34.697
34.652
34.607
34.563
34.522
34.482
34.444
34.407
34.371
34.336
34.303
34.271
34.24
34.21
34.183
34.157
34.132
34.108
34.084
34.062
34.04
34.019
34.0
33.983
33.967
33.952
33.937
33.923
33.908
33.891
33.872
33.852
33.83
33.808
33.785
33.762
33.739
33.716
33.693
33.67
33.646
33.622
33.6
33.579
33.559
33.541
33.524
33.508
33.491
33.474
33.456
33.435
33.414
33.392
33.369
33.345
33.322
33.299
33.277
33.256
33.235
33.214
33.194
33.176
33.158
33.141
33.123
33.105
33.087
33.068
33.049
33.029
33.008
32.987
32.966
32.944
32.923
32.901
32.88
32.86
32.841
32.822
32.804
32.785
32.766
32.746
32.725
32.705
32.684
32.664
32.645
32.627
32.61
32.594
32.58
32.569
32.562
32.56
32.566
32.582
32.611
32.656
32.718
32.802
32.908
33.038
33.193
33.371
33.572
33.795
34.035
34.289
34.554
34.825
35.099
35.372
35.64
35.901
36.15
36.387
36.609
36.815
37.004
37.177
37.333
37.473
37.598
37.71
37.808
37.892
37.963
38.022
38.069
38.107
38.135
38.156
38.171
38.182
38.19
38.195
38.199
38.201
38.201
38.2
38.196
38.191
38.186
38.18
38.173
38.166
38.158
38.15
38.141
38.13
38.117
38.103
38.085
38.062
38.035
38.001
37.961
37.915
37.862
37.801
37.733
37.659
37.58
37.496
37.412
37.327
37.244
37.162
37.084
37.01
36.94
36.875
36.816
36.761
36.713
36.67
36.631
36.598
36.567
36.538
36.51
36.483
36.456
36.427
36.399
36.37
36.342
36.313
36.284
36.254
36.225
36.195
36.164
36.133
36.101
36.069
36.035
36.0
35.963
35.923
35.88
35.835
35.787
35.737
35.685
35.631
35.576
35.519
35.463
35.406
35.35
35.295
35.241
35.187
35.133
35.08
35.029
34.98
34.932
34.886
34.842
34.799
34.758
34.717
34.677
34.638
34.598
34.559
34.518
34.479
34.441
34.404
34.37
34.336
34.304
34.274
34.247
34.221
34.198
34.176
34.156
34.137
34.119
34.103
34.086
34.068
34.049
34.03
34.011
33.99
33.969
33.947
33.924
33.902
33.879
33.857
33.835
33.814
33.793
33.772
33.752
33.732
33.712
33.692
33.671
33.648
33.624
33.599
33.57
33.538
33.502
33.464
33.425
33.385
33.346
33.308
33.273
33.241
33.213
33.189
33.168
33.15
33.134
33.12
33.108
33.098
33.088
33.077
33.067
33.055
33.043
33.029
33.015
33.001
32.986
32.972
32.96
32.949
32.939
32.929
32.919
32.908
32.896
32.883
32.869
32.853
32.836
32.817
32.797
32.776
32.756
32.738
32.721
32.705
32.691
32.678
32.667
32.657
32.65
32.646
32.645
32.648
32.658
32.674
32.7
32.736
32.785
32.85
32.932
33.034
33.157
33.301
33.467
33.654
33.861
34.087
34.328
34.582
34.845
35.114
35.385
35.655
35.919
36.175
36.421
36.654
36.872
37.075
37.261
37.43
37.581
37.714
37.831
37.932
38.019
38.092
38.152
38.203
38.244
38.277
38.302
38.321
38.335
38.343
38.347
38.348
38.346
38.342
38.337
38.33
38.323
38.316
38.308
38.3
38.292
38.283
38.274
38.263
38.25
38.235
38.215
38.193
38.166
38.134
38.097
38.055
38.008
37.956
37.899
37.836
37.768
37.696
37.619
37.541
37.46
37.38
37.3
37.222
37.146
37.074
37.004
36.939
36.878
36.82
36.767
36.717
36.671
36.628
36.588
36.55
36.514
36.481
36.449
36.418
36.388
36.359
36.33
36.301
36.273
36.244
36.214
36.182
36.148
36.113
36.075
36.037
35.997
35.955
35.913
35.869
35.827
35.788
35.753
35.72
35.689
35.658
35.627
35.595
35.561
35.524
35.483
35.438
35.387
35.332
35.272
35.209
35.144
35.077
35.011
34.945
34.882
34.822
34.766
34.714
34.666
34.62
34.578
34.539
34.503
34.469
34.436
34.406
34.376
34.347
34.32
34.294
34.268
34.244
34.22
34.197
34.174
34.151
34.128
34.106
34.084
34.061
34.037
34.014
33.99
33.967
33.943
33.918
33.893
33.867
33.839
33.809
33.779
33.749
33.718
33.687
33.656
33.627
33.598
33.571
33.546
33.521
33.497
33.473
33.448
33.424
33.399
33.375
33.351
33.326
33.302
33.276
33.25
33.222
33.194
33.167
33.14
33.115
33.092
33.071
33.052
33.037
33.023
33.011
33.0
32.99
32.981
32.973
32.965
32.958
32.951
32.943
32.935
32.926
32.916
32.903
32.888
32.871
32.852
32.831
32.809
32.786
32.762
32.738
32.714
32.69
32.667
32.645
32.624
32.604
32.584
32.564
32.544
32.526
32.509
32.492
32.477
32.464
32.454
32.447
32.446
32.451
32.465
32.491
32.531
32.589
32.666
32.765
32.889
33.037
33.208
33.401
33.615
33.846
34.093
34.35
34.614
34.881
35.149
35.412
35.667
35.913
36.145
36.363
36.564
36.749
36.917
37.069
37.204
37.324
37.43
37.522
37.6
37.665
37.719
37.763
37.796
37.821
37.837
37.848
37.853
37.856
37.856
37.856
37.856
37.856
37.854
37.852
37.849
37.844
37.835
37.822
37.807
37.789
37.77
37.749
37.728
37.705
37.682
37.657
37.63
37.601
37.567
37.53
