Trial 3:3back
34.333
34.333
34.332
34.332
34.33
34.327
34.322
34.317
34.309
34.3
34.292
34.285
34.282
34.284
34.294
34.313
34.343
34.387
34.445
34.517
34.603
34.702
34.812
34.931
35.058
35.189
35.324
35.459
35.594
35.727
35.857
35.982
36.102
36.214
36.317
36.41
36.491
36.561
36.619
36.666
36.703
36.731
36.751
36.764
36.769
36.767
36.756
36.737
36.71
36.676
36.636
36.591
36.542
36.49
36.437
36.383
36.33
36.278
36.228
36.185
36.156
36.139
36.135
36.139
36.149
36.16
36.168
36.171
36.167
36.154
36.131
36.098
36.058
36.009
35.954
35.894
35.831
35.768
35.706
35.647
35.594
35.548
35.511
35.482
35.464
35.455
35.456
35.463
35.477
35.496
35.517
35.539
35.56
35.578
35.593
35.603
35.609
35.608
35.602
35.592
35.577
35.558
35.535
35.51
35.481
35.45
35.417
35.384
35.352
35.322
35.294
35.269
35.247
35.226
35.207
35.187
35.166
35.143
35.117
35.089
35.058
35.024
34.987
34.949
34.909
34.87
34.832
34.796
34.764
34.734
34.706
34.682
34.66
34.639
34.619
34.6
34.582
34.563
34.545
34.526
34.507
34.489
34.469
34.45
34.43
34.41
34.39
34.369
34.349
34.328
34.306
34.285
34.264
34.244
34.227
34.212
34.199
34.189
34.179
34.171
34.163
34.155
34.144
34.131
34.115
34.097
34.078
34.059
34.041
34.027
34.019
34.021
34.034
34.06
34.102
34.161
34.236
34.327
34.434
34.554
34.686
34.827
34.974
35.125
35.276
35.425
35.568
35.704
35.831
35.947
36.052
36.145
36.226
36.295
36.352
36.398
36.434
36.46
36.478
36.489
36.492
36.49
36.483
36.472
36.456
36.435
36.411
36.382
36.349
36.313
36.275
36.235
36.195
36.156
36.119
36.084
36.052
36.023
35.995
35.97
35.947
35.925
35.906
35.887
35.869
35.851
35.832
35.813
35.792
35.77
35.747
35.723
35.697
35.67
35.643
35.616
35.59
35.566
35.544
35.526
35.513
35.504
35.5
35.502
35.508
35.519
35.532
35.548
35.565
35.581
35.596
35.607
35.615
35.617
35.613
35.604
35.589
35.569
35.546
35.52
35.492
35.463
35.434
35.406
35.378
35.35
35.323
35.296
35.269
35.242
35.215
35.188
35.159
35.129
35.097
35.061
35.021
34.976
34.926
34.872
34.815
34.757
34.699
34.642
34.588
34.536
34.488
34.445
34.408
34.376
34.35
34.329
34.312
34.298
34.286
34.275
34.266
34.255
34.243
34.229
34.213
34.195
34.175
34.155
34.134
34.114
34.096
34.081
34.07
34.063
34.057
34.053
34.051
34.048
34.045
34.041
34.036
34.03
34.022
34.013
34.002
33.99
33.978
33.965
33.952
33.941
33.933
33.928
33.929
33.937
33.954
33.981
34.02
34.073
34.14
34.221
34.315
34.422
34.54
34.668
34.803
34.944
35.087
35.23
35.37
35.506
35.636
35.758
35.872
35.977
36.071
36.157
36.232
36.298
36.354
36.4
36.436
36.462
36.477
36.483
36.48
36.468
36.449
36.423
36.391
36.354
36.313
36.268
36.219
36.169
36.117
36.065
36.014
35.965
35.918
35.875
35.836
35.8
35.768
35.738
35.711
35.685
35.659
35.633
35.605
35.578
35.549
35.52
35.489
35.459
35.43
35.401
35.374
35.35
35.329
35.312
35.299
35.291
35.289
35.291
35.297
35.308
35.323
35.339
35.356
35.373
35.389
35.404
35.416
35.425
35.431
35.432
35.43
35.423
35.412
35.397
35.38
35.361
35.341
35.321
35.302
35.284
35.267
35.252
35.238
35.224
35.211
35.196
35.179
35.159
35.135
35.108
35.075
35.038
34.998
34.954
34.909
34.863
34.817
34.773
34.732
34.693
34.658
34.628
34.602
34.581
34.564
34.55
34.538
34.528
34.518
34.507
34.496
34.484
34.47
34.456
34.44
34.423
34.405
34.387
34.37
34.353
34.337
34.322
34.309
34.298
34.288
34.28
34.275
34.272
34.27
34.27
34.27
34.27
34.269
34.265
34.258
34.248
34.234
34.217
34.198
34.18
34.163
34.151
34.144
34.146
34.158
34.181
34.216
34.264
34.326
34.401
34.49
34.591
34.703
34.825
34.955
35.09
35.228
35.368
35.508
35.645
35.779
35.908
36.032
36.148
36.255
36.352
36.437
36.511
36.572
36.622
36.66
36.689
36.709
36.721
36.726
36.724
36.714
36.697
36.673
36.642
36.604
36.56
36.513
36.462
36.411
36.36
36.312
36.266
36.225
36.187
36.154
36.124
36.096
36.07
36.045
36.02
35.995
35.969
35.941
35.913
35.883
35.852
35.82
35.788
35.756
35.724
35.693
35.663
35.635
35.61
35.589
35.572
35.559
35.55
35.546
35.546
35.55
35.556
35.565
35.575
35.585
35.595
35.603
35.608
35.609
35.605
35.597
35.585
35.569
35.551
35.532
35.513
35.494
35.475
35.458
35.442
35.425
35.409
35.392
35.375
35.358
35.342
35.325
35.308
35.289
35.267
35.238
35.204
35.163
35.119
35.07
35.017
34.962
34.907
34.852
34.8
34.752
34.71
34.673
34.644
34.621
34.604
34.592
34.584
34.579
34.575
34.571
34.565
34.556
34.544
34.528
34.508
34.483
34.456
34.426
34.396
34.365
34.337
34.311
34.291
34.275
34.265
34.26
34.257
34.257
34.258
34.259
34.258
34.255
34.249
34.24
34.227
34.213
34.196
34.178
34.16
34.142
34.127
34.114
34.106
34.104
34.11
34.126
34.152
34.192
34.244
34.311
34.391
34.484
34.588
34.703
34.826
34.954
35.086
35.22
35.354
35.485
35.613
35.735
35.851
35.958
36.058
36.148
36.229
36.301
36.365
36.419
36.465
36.502
36.531
36.552
36.564
36.567
36.562
36.549
36.53
36.504
36.474
36.44
36.402
36.361
36.317
36.271
36.224
36.176
36.129
36.083
36.039
36.0
35.964
35.932
35.903
35.877
35.852
35.826
35.8
35.772
35.742
35.709
35.674
35.638
35.602
35.565
35.528
35.494
35.462
35.433
35.409
35.389
35.374
35.364
35.36
35.361
35.366
35.376
35.39
35.405
35.421
35.436
35.449
35.458
35.462
35.463
35.46
35.454
35.444
35.43
35.413
35.394
35.374
35.352
35.331
35.31
35.29
35.271
35.253
35.237
35.22
35.203
35.184
35.163
35.138
35.111
35.081
35.049
35.014
34.977
34.938
34.899
34.86
34.823
34.787
34.753
34.722
34.693
34.668
34.646
34.627
34.611
34.597
34.585
34.573
34.561
34.549
34.535
34.519
34.5
34.479
34.456
34.429
34.402
34.373
34.345
34.319
34.295
34.273
34.255
34.241
34.231
34.227
34.226
34.23
34.236
34.243
34.252
34.258
34.262
34.261
34.255
34.245
34.229
34.21
34.187
34.163
34.138
34.113
34.091
34.07
34.053
34.04
34.029
34.023
34.021
34.023
34.03
34.043
34.063
34.09
34.127
34.174
34.232
34.3
34.38
34.471
34.571
34.679
34.795
34.917
35.042
35.17
35.298
35.426
35.55
35.671
35.787
35.896
35.995
36.085
36.163
36.228
36.279
36.317
36.341
36.351
36.348
36.334
36.311
36.282
36.25
36.214
36.176
36.137
36.099
36.062
36.027
35.992
35.959
35.928
35.899
35.873
35.848
35.825
35.802
35.779
35.755
35.728
35.698
35.664
35.627
35.586
35.542
35.496
35.449
35.402
35.357
35.314
35.274
35.24
35.212
35.189
35.172
35.161
35.153
35.149
35.146
35.145
35.143
35.139
35.135
35.128
35.12
35.11
35.099
35.088
35.077
35.068
35.06
35.054
35.05
35.049
35.049
35.05
35.05
35.049
35.045
35.038
35.027
35.013
34.996
34.975
34.951
34.923
34.892
34.859
34.823
34.785
34.745
34.705
34.664
34.624
34.585
34.549
34.515
34.485
34.458
34.434
34.413
34.394
34.376
34.359
34.34
34.32
34.297
34.272
34.244
34.214
34.183
34.151
34.121
34.092
34.064
34.038
34.013
33.991
33.971
33.953
33.938
33.926
33.916
33.908
33.9
33.891
33.882
33.871
33.859
33.846
33.831
33.815
33.799
33.784
33.768
33.753
33.739
33.726
33.714
33.703
33.692
33.682
33.672
33.662
33.651
33.64
33.629
33.618
33.607
33.598
33.59
33.584
33.581
33.581
33.586
33.596
33.612
33.636
33.668
33.711
33.764
33.828
33.903
33.988
34.083
34.187
34.299
34.415
34.535
34.656
34.775
34.889
34.997
35.096
35.187
35.268
35.339
35.399
35.451
35.494
35.527
35.553
35.572
35.585
35.591
35.592
35.587
35.576
35.561
35.541
35.517
35.488
35.455
35.418
35.378
35.337
35.295
35.254
35.213
35.174
35.137
35.101
35.067
35.035
35.005
34.977
34.951
34.93
34.912
34.897
34.884
34.872
34.862
34.851
34.84
34.828
34.815
34.801
34.785
34.769
34.753
34.737
34.724
34.713
34.707
34.704
34.705
34.712
34.724
34.74
34.759
34.78
34.801
34.822
34.841
34.857
34.87
34.879
34.882
34.881
34.874
34.865
34.852
34.838
34.821
34.804
34.785
34.766
34.746
34.726
34.707
34.687
34.667
34.647
34.626
34.605
34.583
34.561
34.538
34.513
34.487
34.459
34.43
34.399
34.367
34.336
34.304
34.272
34.242
34.214
34.189
34.168
34.155
34.148
34.146
34.148
34.15
34.151
34.151
34.147
34.139
34.127
34.11
34.09
34.067
34.043
34.018
33.994
33.972
33.952
33.937
33.927
33.922
33.921
33.926
33.934
33.943
33.954
33.963
33.97
33.973
33.971
33.963
33.95
33.932
33.911
33.887
33.864
33.842
33.823
33.808
33.799
33.797
33.803
33.816
33.839
33.87
33.91
33.96
34.019
34.088
34.165
34.25
34.341
34.437
34.537
34.638
34.74
34.841
34.94
35.038
35.132
35.222
35.308
35.388
35.462
35.53
35.59
35.643
35.687
35.723
35.75
35.768
35.777
35.778
35.77
35.754
35.731
35.701
35.667
35.629
35.589
35.549
35.512
35.477
35.447
35.421
35.4
35.384
35.371
35.36
35.351
35.342
35.334
35.324
35.313
35.3
35.286
35.269
35.25
35.228
35.203
35.177
35.149
35.122
35.097
35.074
35.055
35.041
35.031
35.027
35.027
35.034
35.045
35.061
35.079
35.1
35.122
35.143
35.162
35.178
35.19
35.196
35.198
35.194
35.186
35.176
35.163
35.149
35.134
35.12
35.107
35.095
35.085
35.075
35.065
35.055
35.044
35.032
35.018
35.002
34.984
34.963
34.939
34.912
34.882
34.85
34.815
34.778
34.74
34.701
34.663
34.626
34.591
34.559
34.53
34.507
34.488
34.473
34.463
34.455
34.449
34.445
34.439
34.432
34.422
34.409
34.393
34.373
34.351
34.327
34.302
34.276
34.25
34.225
34.202
34.18
34.162
34.145
34.132
34.122
34.114
34.109
34.106
34.105
34.104
34.104
34.102
34.099
34.095
34.091
34.086
34.082
34.08
34.08
34.083
34.091
34.104
34.122
34.147
34.18
34.223
34.277
34.343
34.421
34.51
34.611
34.72
34.835
34.953
35.074
35.193
35.31
35.422
35.528
35.627
35.719
35.803
35.88
35.949
36.011
36.065
36.111
36.15
36.179
36.2
36.211
36.212
36.205
36.189
36.166
36.136
36.1
36.06
36.018
35.974
35.93
35.886
35.844
35.804
35.766
35.731
35.698
35.669
35.643
35.619
35.599
35.582
35.567
35.553
35.54
35.527
35.513
35.497
35.479
35.458
35.434
35.409
35.382
35.356
35.33
35.306
35.286
35.27
35.259
35.254
35.255
35.26
35.269
35.283
35.298
35.315
35.333
35.349
35.364
35.377
35.386
35.392
35.392
35.386
35.375
35.362
35.351
35.342
35.336
35.33
35.323
35.315
35.305
35.294
35.283
35.271
35.259
35.246
35.232
35.217
35.2
35.182
35.16
35.136
35.109
35.078
35.043
35.005
34.964
34.921
34.877
34.834
34.792
34.752
34.716
34.685
34.659
34.637
34.619
34.603
34.59
34.578
34.566
34.553
34.54
34.526
34.511
34.497
34.482
34.468
34.455
34.444
34.434
34.426
34.418
34.41
34.402
34.394
34.385
34.376
34.367
34.358
34.35
34.342
34.334
34.325
34.315
34.304
34.292
34.278
34.263
34.248
34.234
34.222
34.213
34.207
34.206
34.211
34.224
34.245
34.275
34.317
34.371
34.436
34.512
34.598
34.694
34.796
34.904
35.016
35.13
35.244
35.358
35.468
35.575
35.678
35.776
35.868
35.954
36.035
36.109
36.178
36.24
36.294
36.34
36.376
36.402
36.418
36.423
36.42
36.409
36.392
36.369
36.342
36.312
36.279
36.245
36.21
36.175
36.139
36.104
36.071
36.039
36.009
35.983
35.961
35.944
35.929
35.915
35.903
35.89
35.875
35.858
35.838
35.815
35.788
35.758
35.725
35.69
35.655
35.621
35.59
35.562
35.54
35.523
35.514
35.51
35.513
35.52
35.531
35.543
35.555
35.566
35.575
35.582
35.587
35.591
35.593
35.593
35.592
35.59
35.586
35.581
35.575
35.566
35.556
35.544
35.532
35.519
35.507
35.496
35.486
35.477
35.467
35.456
35.445
35.432
35.415
35.396
35.372
35.343
35.31
35.271
35.229
35.184
35.139
35.093
35.049
35.008
34.971
34.939
34.912
34.891
34.873
34.859
34.847
34.836
34.824
34.81
34.793
34.773
34.75
34.722
34.692
34.66
34.629
34.599
34.572
34.549
34.53
34.515
34.504
34.496
34.49
34.486
34.482
34.479
34.475
34.47
34.465
34.457
34.449
34.439
34.428
34.415
34.401
34.386
34.371
34.355
34.339
34.325
34.311
34.3
34.292
34.288
34.286
34.288
34.292
34.297
34.301
34.304
34.304
34.302
34.299
34.295
34.29
34.285
34.281
34.279
34.283
34.293
34.311
34.341
34.384
34.441
34.512
34.6
34.701
34.816
34.943
35.078
35.217
35.359
35.5
35.637
35.768
35.891
36.007
36.112
36.209
36.295
36.37
36.434
36.488
36.531
36.563
36.586
36.599
36.605
36.605
36.598
36.588
36.573
36.556
36.535
36.512
36.485
36.455
36.422
36.386
36.347
36.307
36.267
36.227
36.188
36.151
36.117
36.085
36.057
36.032
36.011
35.994
35.979
35.967
35.957
35.946
35.936
35.925
35.914
35.902
35.889
35.875
35.86
35.844
35.827
35.811
35.795
35.779
35.764
35.75
35.739
35.73
35.725
35.722
35.724
35.729
35.737
35.748
35.759
35.771
35.781
35.789
35.793
35.794
35.791
35.784
35.772
35.756
35.738
35.718
35.697
35.674
35.651
35.627
35.604
35.581
35.56
35.54
35.52
35.502
35.483
35.462
35.44
35.416
35.39
35.361
35.329
35.294
35.257
35.218
35.177
35.136
35.094
35.052
35.011
34.972
34.935
34.901
34.871
34.846
34.825
34.811
34.801
34.796
34.793
34.793
34.792
34.791
34.787
34.779
34.767
34.75
34.73
34.707
34.682
34.656
34.631
34.608
34.587
34.568
34.553
34.54
34.529
34.52
34.513
34.506
34.5
34.494
34.488
34.481
34.473
34.463
34.45
34.437
34.422
34.406
34.39
34.373
34.357
34.341
34.325
34.31
34.295
34.28
34.266
34.252
34.238
34.223
34.208
34.192
34.174
34.156
34.136
34.117
34.098
34.082
34.07
34.061
34.059
34.065
34.08
34.106
34.145
34.199
34.268
34.354
34.456
34.572
34.701
34.84
34.986
35.136
35.287
35.434
35.577
35.712
35.838
35.953
36.058
36.151
36.233
36.304
36.365
36.416
36.459
36.492
36.518
36.536
36.547
36.55
36.546
36.535
36.517
36.492
36.461
36.424
36.384
36.34
36.295
36.249
36.203
36.158
36.114
36.072
36.032
35.993
35.957
35.923
35.891
35.862
35.835
35.811
35.788
35.763
35.732
35.697
35.656
35.614
35.571
35.531
35.495
35.462
35.436
35.416
35.403
35.398
35.4
35.409
35.424
35.445
35.471
35.501
35.533
35.565
35.597
35.627
35.653
35.674
35.689
35.697
35.698
35.693
35.682
35.666
35.646
35.623
35.599
35.575
35.551
35.529
35.509
35.49
35.473
35.457
35.443
35.429
35.414
35.399
35.383
35.366
35.348
35.329
35.306
35.279
35.248
35.213
35.173
35.13
35.086
35.04
34.995
34.952
34.912
34.875
34.842
34.813
34.788
34.766
34.747
34.731
34.715
34.7
34.685
34.669
34.652
34.632
34.611
34.589
34.566
34.544
34.523
34.504
34.487
34.474
34.464
34.458
34.455
34.454
34.454
34.453
34.452
34.449
34.444
34.437
34.429
34.419
34.408
34.397
34.385
34.374
34.364
34.355
34.347
34.34
34.333
34.328
34.323
34.319
34.315
34.311
34.308
34.305
34.302
34.299
34.294
34.288
34.28
34.27
34.258
34.245
34.231
34.217
34.207
34.2
34.2
34.209
34.228
34.259
34.304
34.364
34.438
34.528
34.631
34.747
34.873
35.007
35.147
35.289
35.431
35.568
35.698
35.82
35.933
36.035
36.126
36.207
36.278
36.339
36.391
36.433
36.467
36.492
36.51
36.521
36.527
36.528
36.524
36.516
36.505
36.49
36.472
36.449
36.423
36.392
36.358
36.32
36.279
36.236
36.192
36.148
36.103
36.059
36.017
35.976
35.937
35.901
35.868
35.837
35.809
35.784
35.761
35.738
35.717
35.695
35.672
35.649
35.626
35.604
35.584
35.566
35.552
35.543
35.538
35.538
35.542
35.549
35.559
35.571
35.584
35.599
35.614
35.63
35.646
35.661
35.675
35.686
35.694
35.698
35.698
35.694
35.684
35.67
35.653
35.632
35.609
35.584
35.56
35.535
35.511
35.489
35.467
35.447
35.429
35.411
35.394
35.376
35.356
35.334
35.309
35.279
35.247
35.21
35.171
35.129
35.084
35.039
34.992
34.947
34.905
34.866
34.832
34.803
34.778
34.756
34.737
34.719
34.701
34.682
34.662
34.641
34.619
34.597
34.574
34.551
34.527
34.504
34.482
34.461
34.44
34.422
34.405
34.392
34.38
34.371
34.363
34.353
34.336
34.313
34.284
34.252
34.217
34.183
34.152
34.126
34.106
34.092
34.087
34.089
34.099
34.114
34.133
34.154
34.176
34.196
34.216
34.233
34.247
34.259
34.268
34.273
34.275
34.274
34.27
34.264
34.255
34.245
34.236
34.229
34.228
34.235
34.251
34.281
34.325
34.384
34.459
34.55
34.656
34.776
34.909
35.051
35.2
35.353
35.506
35.657
35.802
35.939
36.066
36.182
36.285
36.376
36.452
36.516
36.566
36.605
36.633
36.651
36.66
36.663
36.661
36.654
36.642
36.628
36.61
36.59
36.567
36.542
36.513
36.482
36.447
36.409
36.368
36.326
36.282
36.237
36.191
36.145
36.1
36.057
36.015
35.976
35.939
35.906
35.874
35.846
35.82
35.798
35.777
35.758
35.741
35.725
35.71
35.697
35.686
35.675
35.666
35.658
35.652
35.647
35.644
35.644
35.645
35.649
35.657
35.668
35.682
35.7
35.72
35.743
35.765
35.788
35.81
35.829
35.846
35.859
35.867
35.87
35.869
35.862
35.85
35.833
35.811
35.785
35.755
35.724
35.691
35.659
35.628
35.597
35.568
35.54
35.512
35.483
35.452
35.42
35.387
35.353
35.317
35.279
35.241
35.201
35.16
35.118
35.075
35.034
34.993
34.953
34.917
34.883
34.854
34.828
34.806
34.788
34.774
34.762
34.752
34.743
34.734
34.724
34.711
34.695
34.677
34.654
34.629
34.601
34.571
34.541
34.512
34.485
34.462
34.442
34.426
34.415
34.408
34.405
34.406
34.409
34.414
34.42
34.425
34.428
34.428
34.425
34.418
34.408
34.395
34.381
34.365
34.349
34.332
34.316
34.299
34.284
34.27
34.258
34.248
34.24
34.237
34.238
34.244
34.257
34.276
34.303
34.34
34.386
34.443
34.511
34.592
34.685
34.79
34.906
35.032
35.166
35.306
35.45
35.596
35.744
35.89
36.034
36.172
36.304
36.427
36.539
36.638
36.723
36.793
36.846
36.883
36.904
36.911
36.906
36.891
36.867
36.838
36.803
36.765
36.725
36.683
36.64
36.597
36.556
36.515
36.476
36.439
36.404
36.37
36.337
36.306
36.274
36.243
36.211
36.178
36.143
36.108
36.071
36.035
35.999
35.965
35.933
35.904
35.88
35.859
35.843
35.831
35.822
35.818
35.816
35.817
35.819
35.823
35.827
35.832
35.837
35.842
35.848
35.853
35.86
35.868
35.876
35.886
35.896
35.908
35.919
35.93
35.942
35.952
35.962
35.972
35.982
35.991
35.997
36.001
36.0
35.994
35.981
35.963
35.937
35.906
35.868
35.826
35.781
35.732
35.683
35.633
35.584
35.537
35.492
35.45
35.41
35.373
35.337
35.303
35.27
35.238
35.204
35.171
35.136
35.099
35.061
35.021
34.983
34.945
34.909
34.876
34.846
34.819
34.795
34.774
34.756
34.74
34.726
34.715
34.705
34.697
34.69
34.684
34.679
34.674
34.667
34.66
34.65
34.639
34.625
34.609
34.592
34.574
34.555
34.536
34.519
34.504
34.492
34.483
34.476
34.471
34.469
34.467
34.465
34.461
34.455
34.446
34.433
34.416
34.395
34.37
34.342
34.31
34.278
34.246
34.216
34.19
34.169
34.156
34.151
34.155
34.169
34.193
34.226
34.27
34.324
34.389
34.463
34.547
34.642
34.746
34.861
34.984
35.114
35.251
35.392
35.535
35.68
35.823
35.964
36.101
36.233
36.357
36.474
36.58
36.675
36.757
36.826
36.882
36.923
36.95
36.964
36.964
36.951
36.927
36.893
36.85
36.801
36.748
36.692
36.635
36.579
36.525
36.473
36.423
36.378
36.336
36.297
36.26
36.225
36.191
36.157
36.124
36.09
36.056
36.021
35.985
35.948
35.911
35.875
35.839
35.804
35.771
35.742
35.717
35.697
35.683
35.675
35.674
35.679
35.689
35.704
35.723
35.743
