Trial 3:3back
34.434
34.43
34.425
34.42
34.415
34.41
34.406
34.402
34.398
34.393
34.388
34.382
34.376
34.369
34.363
34.358
34.353
34.348
34.344
34.34
34.335
34.33
34.323
34.314
34.304
34.292
34.278
34.262
34.243
34.223
34.202
34.181
34.158
34.136
34.113
34.092
34.072
34.053
34.035
34.019
34.004
33.99
33.978
33.967
33.958
33.951
33.944
33.936
33.925
33.912
33.896
33.877
33.857
33.835
33.811
33.786
33.76
33.735
33.71
33.686
33.661
33.637
33.614
33.592
33.573
33.555
33.54
33.527
33.516
33.507
33.499
33.493
33.488
33.484
33.481
33.48
33.478
33.476
33.473
33.47
33.466
33.462
33.459
33.455
33.452
33.45
33.447
33.445
33.442
33.439
33.437
33.434
33.43
33.426
33.42
33.413
33.404
33.394
33.382
33.366
33.347
33.325
33.301
33.275
33.248
33.222
33.198
33.175
33.157
33.142
33.131
33.124
33.121
33.12
33.123
33.13
33.141
33.156
33.177
33.206
33.245
33.298
33.37
33.466
33.59
33.747
33.939
34.165
34.425
34.716
35.033
35.371
35.722
36.08
36.437
36.786
37.121
37.434
37.722
37.98
38.204
38.394
38.549
38.668
38.752
38.804
38.826
38.822
38.794
38.746
38.681
38.602
38.513
38.417
38.317
38.214
38.109
38.006
37.906
37.808
37.714
37.623
37.535
37.449
37.364
37.282
37.201
37.124
37.049
36.978
36.91
36.847
36.787
36.731
36.68
36.634
36.593
36.557
36.526
36.497
36.472
36.448
36.425
36.404
36.383
36.362
36.338
36.312
36.283
36.249
36.21
36.168
36.122
36.073
36.024
35.974
35.925
35.879
35.836
35.797
35.762
35.733
35.709
35.69
35.676
35.667
35.664
35.666
35.674
35.687
35.706
35.729
35.755
35.782
35.81
35.838
35.865
35.89
35.912
35.932
35.948
35.96
35.968
35.972
35.971
35.966
35.958
35.946
35.931
35.911
35.888
35.862
35.833
35.802
35.768
35.733
35.696
35.657
35.619
35.579
35.539
35.497
35.454
35.41
35.365
35.32
35.274
35.229
35.187
35.146
35.107
35.072
35.038
35.007
34.976
34.947
34.918
34.89
34.861
34.833
34.805
34.777
34.75
34.724
34.699
34.674
34.651
34.628
34.606
34.586
34.569
34.552
34.538
34.525
34.514
34.505
34.498
34.491
34.485
34.481
34.477
34.473
34.469
34.466
34.461
34.455
34.447
34.438
34.428
34.416
34.404
34.392
34.381
34.371
34.363
34.356
34.35
34.345
34.34
34.337
34.334
34.331
34.328
34.324
34.319
34.313
34.304
34.294
34.283
34.271
34.257
34.242
34.226
34.21
34.194
34.177
34.161
34.145
34.129
34.114
34.099
34.084
34.071
34.059
34.049
34.04
34.032
34.023
34.013
34.002
33.989
33.974
33.956
33.93
33.896
33.855
33.811
33.766
33.722
33.683
33.649
33.622
33.601
33.589
33.583
33.584
33.59
33.6
33.613
33.628
33.643
33.657
33.668
33.676
33.68
33.68
33.675
33.667
33.656
33.642
33.628
33.614
33.599
33.585
33.572
33.56
33.549
33.54
33.534
33.529
33.527
33.526
33.525
33.526
33.525
33.524
33.521
33.516
33.508
33.497
33.485
33.471
33.456
33.439
33.421
33.404
33.386
33.368
33.35
33.334
33.318
33.305
33.295
33.288
33.286
33.288
33.295
33.307
33.323
33.345
33.373
33.411
33.459
33.522
33.603
33.704
33.831
33.987
34.173
34.391
34.639
34.915
35.215
35.534
35.865
36.201
36.535
36.86
37.171
37.461
37.726
37.965
38.173
38.35
38.494
38.606
38.686
38.735
38.755
38.749
38.721
38.674
38.612
38.538
38.454
38.364
38.27
38.175
38.079
37.986
37.894
37.806
37.72
37.637
37.556
37.476
37.399
37.322
37.247
37.174
37.106
37.042
36.983
36.929
36.879
36.833
36.792
36.754
36.718
36.684
36.652
36.62
36.589
36.557
36.526
36.493
36.461
36.427
36.393
36.358
36.321
36.282
36.241
36.199
36.157
36.113
36.071
36.029
35.989
35.952
35.92
35.894
35.876
35.865
35.862
35.867
35.877
35.893
35.914
35.94
35.969
36.001
36.034
36.068
36.103
36.136
36.168
36.197
36.225
36.249
36.268
36.284
36.295
36.301
36.304
36.302
36.296
36.286
36.272
36.255
36.235
36.212
36.185
36.156
36.123
36.088
36.051
36.014
35.975
35.935
35.893
35.85
35.804
35.756
35.707
35.657
35.608
35.558
35.509
35.459
35.41
35.361
35.312
35.264
35.218
35.174
35.133
35.093
35.056
35.021
34.986
34.954
34.923
34.894
34.867
34.84
34.815
34.791
34.767
34.744
34.721
34.7
34.68
34.662
34.645
34.629
34.614
34.601
34.589
34.58
34.572
34.567
34.563
34.561
34.56
34.559
34.559
34.558
34.556
34.554
34.551
34.544
34.535
34.522
34.506
34.49
34.473
34.456
34.44
34.425
34.411
34.4
34.39
34.382
34.375
34.369
34.362
34.356
34.348
34.34
34.332
34.324
34.316
34.308
34.301
34.294
34.287
34.279
34.271
34.263
34.252
34.24
34.226
34.209
34.19
34.17
34.149
34.129
34.11
34.091
34.073
34.054
34.036
34.016
33.995
33.973
33.951
33.929
33.907
33.887
33.867
33.848
33.83
33.813
33.796
33.78
33.765
33.752
33.741
33.732
33.724
33.717
33.712
33.708
33.703
33.698
33.693
33.687
33.679
33.67
33.66
33.649
33.638
33.627
33.616
33.607
33.598
33.592
33.586
33.58
33.575
33.569
33.564
33.559
33.552
33.544
33.533
33.519
33.502
33.483
33.462
33.439
33.415
33.389
33.361
33.332
33.303
33.276
33.249
33.225
33.202
33.181
33.161
33.144
33.129
33.118
33.112
33.111
33.117
33.131
33.153
33.186
33.234
33.3
33.391
33.511
33.664
33.853
34.078
34.338
34.63
34.948
35.286
35.638
35.994
36.348
36.692
37.019
37.324
37.602
37.852
38.07
38.255
38.406
38.525
38.612
38.669
38.699
38.705
38.689
38.654
38.604
38.541
38.467
38.386
38.298
38.204
38.108
38.009
37.909
37.811
37.714
37.621
37.532
37.447
37.367
37.292
37.221
37.156
37.098
37.045
36.998
36.955
36.917
36.883
36.853
36.826
36.801
36.779
36.758
36.738
36.72
36.702
36.686
36.671
36.658
36.645
36.631
36.616
36.598
36.575
36.549
36.517
36.48
36.439
36.395
36.348
36.3
36.253
36.207
36.165
36.127
36.095
36.069
36.05
36.039
36.035
36.038
36.048
36.064
36.086
36.111
36.139
36.17
36.202
36.235
36.267
36.298
36.325
36.349
36.368
36.382
36.392
36.396
36.394
36.386
36.374
36.357
36.336
36.313
36.288
36.261
36.233
36.201
36.167
36.13
36.091
36.049
36.003
35.953
35.899
35.843
35.786
35.729
35.674
35.62
35.569
35.521
35.473
35.428
35.386
35.345
35.308
35.272
35.238
35.205
35.174
35.143
35.114
35.084
35.055
35.027
34.999
34.971
34.944
34.917
34.892
34.867
34.844
34.822
34.802
34.783
34.766
34.75
34.736
34.722
34.71
34.698
34.686
34.675
34.665
34.657
34.65
34.642
34.635
34.627
34.619
34.61
34.6
34.59
34.58
34.569
34.559
34.55
34.541
34.531
34.521
34.508
34.495
34.483
34.471
34.461
34.453
34.447
34.443
34.441
34.439
34.439
34.439
34.438
34.437
34.436
34.433
34.429
34.423
34.414
34.403
34.39
34.375
34.358
34.341
34.322
34.302
34.282
34.263
34.244
34.226
34.209
34.193
34.177
34.161
34.145
34.129
34.113
34.097
34.082
34.069
34.055
34.043
34.03
34.017
34.004
33.99
33.976
33.963
33.949
33.935
33.921
33.907
33.894
33.881
33.869
33.857
33.847
33.84
33.834
33.828
33.821
33.814
33.807
33.799
33.792
33.786
33.78
33.775
33.77
33.766
33.761
33.756
33.75
33.742
33.734
33.725
33.716
33.705
33.695
33.684
33.674
33.662
33.649
33.635
33.621
33.605
33.589
33.572
33.555
33.539
33.523
33.507
33.491
33.476
33.462
33.448
33.437
33.427
33.419
33.415
33.414
33.417
33.425
33.44
33.464
33.498
33.548
33.616
33.709
33.831
33.984
34.171
34.392
34.646
34.929
35.238
35.566
35.907
36.253
36.599
36.937
37.261
37.566
37.847
38.1
38.324
38.515
38.675
38.804
38.902
38.97
39.011
39.027
39.021
38.997
38.958
38.907
38.847
38.78
38.708
38.633
38.556
38.477
38.398
38.32
38.242
38.165
38.088
38.013
37.938
37.865
37.793
37.723
37.653
37.585
37.518
37.455
37.395
37.338
37.286
37.238
37.193
37.152
37.113
37.078
37.046
37.016
36.988
36.962
36.935
36.908
36.88
36.85
36.819
36.787
36.755
36.722
36.689
36.657
36.625
36.594
36.564
36.537
36.513
36.492
36.474
36.462
36.455
36.454
36.459
36.47
36.486
36.507
36.532
36.561
36.594
36.629
36.666
36.703
36.74
36.776
36.81
36.842
36.87
36.895
36.916
36.932
36.943
36.949
36.949
36.943
36.932
36.916
36.895
36.869
36.838
36.804
36.766
36.726
36.682
36.635
36.585
36.532
36.476
36.419
36.362
36.304
36.246
36.189
36.133
36.078
36.024
35.969
35.915
35.861
35.809
35.757
35.708
35.66
35.614
35.57
35.53
35.491
35.454
35.419
35.384
35.351
35.318
35.286
35.254
35.224
35.196
35.169
35.143
35.118
35.095
35.073
35.054
35.036
35.02
35.005
34.99
34.977
34.965
34.954
34.946
34.939
34.934
34.932
34.93
34.928
34.926
34.922
34.918
34.914
34.908
34.902
34.894
34.885
34.875
34.865
34.853
34.841
34.828
34.816
34.804
34.792
34.779
34.766
34.753
34.741
34.728
34.715
34.701
34.686
34.67
34.654
34.636
34.619
34.601
34.584
34.567
34.55
34.534
34.518
34.502
34.487
34.472
34.458
34.443
34.428
34.413
34.397
34.38
34.362
34.343
34.323
34.302
34.28
34.258
34.234
34.21
34.185
34.16
34.135
34.112
34.089
34.068
34.048
34.029
34.011
33.995
33.979
33.963
33.948
33.934
33.92
33.907
33.894
33.882
33.869
33.856
33.842
33.828
33.813
33.798
33.782
33.765
33.747
33.729
33.712
33.696
33.682
33.67
33.659
33.649
33.64
33.63
33.621
33.611
33.603
33.595
33.587
33.579
33.568
33.556
33.543
33.528
33.513
33.496
33.479
33.461
33.442
33.421
33.398
33.375
33.353
33.331
33.311
33.293
33.278
33.266
33.258
33.254
33.254
33.258
33.265
33.277
33.295
33.319
33.353
33.399
33.462
33.546
33.652
33.778
33.928
34.11
34.327
34.583
34.876
35.206
35.566
35.951
36.354
36.765
37.177
37.579
37.965
38.326
38.656
38.949
39.202
39.412
39.579
39.703
39.789
39.84
39.859
39.85
39.818
39.768
39.704
39.628
39.546
39.459
39.369
39.279
39.188
39.099
39.012
38.927
38.842
38.757
38.672
38.587
38.501
38.414
38.327
38.239
38.152
38.065
37.98
37.898
37.819
37.746
37.678
37.618
37.566
37.522
37.484
37.453
37.426
37.402
37.381
37.36
37.339
37.316
37.289
37.257
37.22
37.179
37.133
37.082
37.027
36.97
36.913
36.857
36.804
36.755
36.713
36.679
36.652
36.632
36.618
36.612
36.612
36.618
36.63
36.649
36.672
36.699
36.73
36.764
36.8
36.835
36.868
36.898
36.925
36.946
36.963
36.975
36.983
36.987
36.987
36.982
36.972
36.958
36.94
36.919
36.893
36.864
36.831
36.795
36.756
36.714
36.67
36.626
36.58
36.533
36.485
36.435
36.384
36.331
36.275
36.218
36.16
36.101
36.041
35.981
35.92
35.858
35.797
35.736
35.677
35.619
35.561
35.502
35.444
35.386
35.328
35.272
35.217
35.164
35.114
35.068
35.025
34.984
34.947
34.913
34.881
34.852
34.825
34.801
34.779
34.759
34.741
34.724
34.709
34.695
34.682
34.67
34.657
34.644
34.63
34.616
34.604
34.592
34.58
34.57
34.56
34.551
34.545
34.539
34.535
34.531
34.528
34.524
34.521
34.517
34.512
34.507
34.503
34.498
34.492
34.486
34.478
34.468
34.456
34.441
34.425
34.407
34.388
34.368
34.346
34.325
34.304
34.283
34.264
34.245
34.226
34.207
34.187
34.168
34.147
34.126
34.104
34.082
34.06
34.04
34.021
34.003
33.985
33.968
33.95
33.932
33.913
33.893
33.872
33.849
33.827
33.803
33.779
33.755
33.731
33.708
33.686
33.664
33.644
33.625
33.607
33.59
33.575
33.561
33.548
33.535
33.522
33.51
33.499
33.488
33.477
33.466
33.457
33.448
33.44
33.434
33.428
33.422
33.417
33.411
33.405
33.4
33.395
33.39
33.384
33.378
33.37
33.36
33.349
33.337
33.324
33.311
33.298
33.286
33.274
33.264
33.254
33.245
33.237
33.229
33.223
33.219
33.216
33.214
33.213
33.212
33.211
33.211
33.212
33.216
33.225
33.239
33.261
33.295
33.343
33.41
33.501
33.621
33.775
33.966
34.193
34.458
34.756
35.084
35.436
35.807
36.19
36.575
36.956
37.324
37.674
37.998
38.295
38.558
38.787
38.982
39.142
39.268
39.364
39.43
39.47
39.486
39.481
39.459
39.422
39.373
39.315
39.248
39.175
39.097
39.016
38.933
38.847
38.76
38.673
38.586
38.5
38.415
38.329
38.244
38.159
38.077
37.997
37.921
37.851
37.787
37.728
37.675
37.628
37.584
37.543
37.504
37.467
37.43
37.394
37.357
37.319
37.278
37.233
37.185
37.134
37.08
37.022
36.963
36.902
36.839
36.778
36.718
36.66
36.606
36.558
36.518
36.486
36.464
36.45
36.446
36.452
36.466
36.488
36.517
36.554
36.595
36.641
36.691
36.743
36.795
36.846
36.896
36.944
36.988
37.027
37.059
37.084
37.101
37.109
37.108
37.099
37.083
37.064
37.04
37.013
36.984
36.952
36.919
36.885
36.851
36.816
36.78
36.744
36.705
36.664
36.621
36.577
36.531
36.485
36.437
36.388
36.337
36.284
36.23
36.174
36.118
36.06
36.001
35.941
35.88
35.82
35.759
35.699
35.641
35.583
35.526
35.471
35.418
35.368
35.321
35.277
35.237
35.202
35.169
35.138
35.11
35.084
35.06
35.036
35.013
34.99
34.967
34.944
34.921
34.9
34.88
34.861
34.844
34.829
34.815
34.803
34.792
34.782
34.772
34.763
34.755
34.747
34.74
34.733
34.726
34.718
34.709
34.7
34.69
34.68
34.67
34.659
34.649
34.637
34.626
34.613
34.601
34.589
34.577
34.566
34.556
34.546
34.537
34.529
34.521
34.514
34.508
34.503
34.498
34.492
34.485
34.476
34.465
34.452
34.438
34.421
34.401
34.378
34.354
34.329
34.304
34.282
34.271
34.272
34.283
34.301
34.322
34.34
34.354
34.36
34.357
34.343
34.318
34.282
34.236
34.184
34.125
34.064
34.002
33.941
33.884
33.831
33.785
33.745
33.711
33.683
33.661
33.645
33.633
33.625
33.62
33.616
33.615
33.613
33.611
33.607
33.603
33.598
33.593
33.587
33.579
33.569
33.556
33.54
33.523
33.503
33.482
33.46
33.436
33.411
33.385
33.358
33.331
33.305
33.282
33.263
33.247
33.236
33.229
33.226
33.226
33.233
33.246
33.27
33.306
33.359
33.434
33.534
33.666
33.833
34.04
34.288
34.579
34.908
35.272
35.662
36.072
36.492
36.916
37.333
37.737
38.12
38.477
38.802
39.091
39.342
39.553
39.726
39.861
39.961
40.029
40.067
40.08
40.07
40.042
39.997
39.938
39.868
39.789
39.705
39.618
39.528
39.439
39.349
39.261
39.174
39.09
39.009
38.93
38.854
38.778
38.703
38.628
38.554
38.479
38.405
38.333
38.264
38.198
38.136
38.079
38.026
37.978
37.934
37.895
37.86
37.827
37.796
37.766
37.736
37.707
37.678
37.646
37.613
37.576
37.537
37.495
37.451
37.403
37.353
37.302
37.25
37.198
37.148
37.103
37.062
37.026
36.997
36.975
36.961
36.955
36.956
36.965
36.98
37.001
37.027
37.055
37.084
37.113
37.142
37.17
37.197
37.222
37.246
37.266
37.281
37.291
37.295
37.291
37.279
37.26
37.235
37.203
37.165
37.123
37.077
37.028
36.978
36.926
36.874
36.821
36.768
36.715
36.661
36.608
36.554
36.499
36.443
36.386
36.328
36.269
36.21
36.152
36.094
36.037
35.979
35.922
35.865
35.809
35.755
35.702
35.65
35.6
35.552
35.505
35.459
35.415
35.372
35.33
35.288
35.247
35.204
35.161
35.117
35.072
35.028
34.985
34.944
34.904
34.866
34.83
34.796
34.766
34.739
34.715
34.693
34.674
34.658
34.642
34.629
34.616
34.605
34.595
34.586
34.576
34.567
34.557
34.547
34.536
34.526
34.516
34.506
34.496
34.488
34.48
34.471
34.463
34.454
34.445
34.436
34.427
34.417
34.408
34.398
34.388
34.377
34.365
34.353
34.34
34.327
34.314
34.301
34.287
34.273
34.258
34.242
34.225
34.208
34.189
34.17
34.15
34.129
34.109
34.089
34.07
34.053
34.038
34.025
34.013
34.003
33.992
33.98
33.967
33.954
33.941
33.927
33.913
33.899
33.883
33.867
33.848
33.828
33.806
33.784
33.76
33.735
33.71
33.685
33.661
33.639
33.618
33.6
33.584
33.571
33.56
33.551
33.543
33.538
33.535
33.533
33.532
33.531
33.529
33.527
33.524
33.52
33.512
33.502
33.49
33.477
33.464
33.451
33.439
33.43
33.422
33.414
33.406
33.397
33.386
33.374
33.359
33.343
33.326
33.308
33.289
33.269
33.248
33.228
33.208
33.191
33.176
33.166
33.162
33.165
33.178
33.205
33.246
33.307
33.39
33.502
33.646
33.827
34.047
34.309
34.61
34.95
35.323
35.723
36.141
36.569
36.997
37.418
37.821
38.199
38.547
38.859
39.133
39.364
39.553
39.7
39.806
39.872
39.902
39.901
39.873
39.821
39.752
39.669
39.578
39.481
39.381
39.281
39.183
39.087
38.996
38.909
38.826
38.747
38.672
38.6
38.531
38.462
38.394
38.326
38.259
38.191
38.125
38.059
37.996
37.935
37.876
37.819
37.765
37.714
37.666
37.62
37.577
37.535
37.493
37.451
37.407
37.359
37.306
37.249
37.187
37.121
37.049
36.972
36.891
36.808
36.725
36.644
36.566
36.496
36.434
36.382
36.341
36.312
36.295
36.289
36.294
36.308
36.33
36.357
36.389
36.424
36.459
36.493
36.524
36.551
36.574
36.593
36.607
36.617
36.622
36.625
36.624
36.62
36.613
36.603
36.591
36.576
36.559
36.539
36.517
36.493
36.467
36.439
36.411
36.381
36.35
36.317
36.28
36.239
36.194
36.145
36.092
36.035
35.976
35.916
35.854
35.791
35.727
35.663
35.6
35.538
35.477
35.418
35.361
35.305
35.25
35.195
35.141
35.089
35.037
34.986
34.936
34.886
34.837
34.788
34.74
34.694
34.649
34.607
34.567
34.529
34.496
34.466
34.441
34.42
34.405
34.393
34.386
34.383
34.383
34.386
34.391
34.399
34.407
34.416
34.425
34.432
34.438
34.443
34.448
34.451
34.454
34.457
34.46
34.462
34.463
34.465
34.467
34.468
34.469
34.469
34.469
34.471
34.473
34.476
34.479
34.484
34.489
34.494
34.497
34.5
34.502
34.503
34.503
34.499
34.492
34.483
34.47
34.456
34.44
34.423
34.405
34.385
34.363
34.339
34.315
34.29
34.264
34.238
34.211
34.184
34.156
34.129
34.101
34.073
34.047
34.022
33.999
33.978
33.958
33.939
33.921
33.903
33.885
33.868
33.85
33.833
33.815
33.796
33.776
33.756
33.736
33.716
33.696
33.677
33.659
33.64
33.622
33.603
33.583
33.563
33.544
33.524
33.504
33.484
33.465
33.445
33.425
33.404
33.382
33.361
33.338
33.317
33.297
33.277
33.258
33.239
33.22
33.202
33.183
33.164
33.145
33.127
33.11
33.094
33.079
33.065
33.053
33.044
33.038
33.037
33.04
33.051
33.071
33.102
33.15
33.217
33.309
33.431
33.588
33.782
34.016
34.287
34.595
34.935
35.303
35.69
36.09
36.491
36.886
37.268
37.629
37.966
38.272
38.545
38.782
38.981
39.141
39.265
39.352
39.406
39.428
39.423
39.395
39.348
39.285
39.209
39.124
39.033
38.936
38.838
38.738
38.64
38.544
38.45
38.36
38.273
38.189
38.107
38.026
37.947
37.87
37.794
37.72
37.647
37.577
37.51
37.446
37.387
37.333
37.284
37.241
37.203
37.17
37.141
37.114
37.089
37.065
37.041
37.016
36.991
36.962
36.931
36.898
36.861
36.822
36.781
36.737
36.692
36.644
36.596
36.548
36.501
36.457
36.418
36.383
36.354
36.33
36.313
36.302
36.297
36.299
36.308
36.323
36.342
36.365
36.39
36.416
36.441
36.466
36.489
36.51
36.529
36.545
36.557
36.565
36.568
36.567
36.561
36.551
36.535
36.513
36.485
36.453
36.416
36.375
36.332
36.286
36.242
36.205
36.177
36.157
36.141
36.128
36.112
36.092
36.065
36.029
35.983
35.928
35.864
35.793
35.716
35.636
35.552
35.468
35.384
35.302
35.222
35.148
35.079
35.016
34.959
34.909
34.864
34.824
34.787
34.754
34.724
34.697
34.673
34.65
34.629
34.609
34.589
34.57
34.55
34.531
34.512
34.493
34.473
34.452
34.43
34.407
34.384
34.361
34.34
34.32
34.303
34.288
34.275
34.264
34.255
34.249
34.245
34.244
34.245
34.248
34.251
34.254
34.256
34.256
34.254
34.249
34.242
34.231
34.216
34.199
34.179
34.159
34.138
34.117
34.096
34.075
34.056
34.038
34.022
34.007
33.993
33.98
33.968
33.957
33.947
33.937
33.928
33.919
33.908
