Trial 3:3back
36.564
36.576
36.574
36.558
36.531
36.493
36.447
36.393
36.333
36.27
36.203
36.136
36.07
36.006
35.943
35.883
35.826
35.772
35.722
35.676
35.634
35.597
35.564
35.535
35.51
35.489
35.471
35.455
35.441
35.427
35.414
35.399
35.383
35.365
35.345
35.322
35.298
35.271
35.244
35.215
35.187
35.161
35.137
35.116
35.1
35.088
35.082
35.081
35.085
35.094
35.107
35.123
35.142
35.165
35.19
35.216
35.243
35.272
35.3
35.327
35.352
35.376
35.397
35.416
35.432
35.445
35.454
35.458
35.459
35.456
35.45
35.441
35.43
35.417
35.402
35.385
35.366
35.346
35.324
35.302
35.279
35.255
35.231
35.206
35.181
35.156
35.131
35.106
35.083
35.061
35.04
35.02
35.001
34.984
34.967
34.953
34.939
34.927
34.916
34.905
34.895
34.885
34.874
34.864
34.854
34.844
34.835
34.826
34.818
34.81
34.803
34.795
34.788
34.781
34.775
34.769
34.764
34.759
34.755
34.752
34.749
34.747
34.747
34.747
34.749
34.753
34.758
34.765
34.773
34.782
34.79
34.799
34.807
34.814
34.819
34.823
34.826
34.828
34.83
34.831
34.833
34.833
34.834
34.834
34.834
34.834
34.834
34.834
34.833
34.832
34.83
34.827
34.823
34.818
34.811
34.803
34.795
34.786
34.778
34.77
34.763
34.757
34.751
34.746
34.741
34.737
34.732
34.726
34.719
34.712
34.704
34.696
34.689
34.683
34.68
34.68
34.686
34.698
34.72
34.752
34.797
34.856
34.928
35.014
35.113
35.223
35.343
35.47
35.601
35.733
35.864
35.991
36.109
36.217
36.313
36.395
36.463
36.515
36.552
36.573
36.579
36.571
36.55
36.516
36.474
36.423
36.366
36.304
36.238
36.171
36.103
36.034
35.967
35.903
35.842
35.785
35.733
35.684
35.64
35.598
35.561
35.527
35.497
35.47
35.446
35.425
35.406
35.387
35.37
35.352
35.333
35.314
35.295
35.274
35.251
35.227
35.202
35.176
35.151
35.126
35.103
35.082
35.065
35.052
35.044
35.04
35.041
35.047
35.057
35.072
35.091
35.113
35.137
35.163
35.19
35.217
35.243
35.268
35.292
35.315
35.338
35.359
35.379
35.398
35.414
35.428
35.44
35.448
35.454
35.456
35.454
35.449
35.439
35.426
35.41
35.39
35.368
35.343
35.317
35.29
35.263
35.235
35.207
35.18
35.154
35.129
35.105
35.081
35.059
35.038
35.017
34.998
34.979
34.962
34.945
34.929
34.914
34.901
34.889
34.878
34.869
34.86
34.853
34.846
34.84
34.835
34.83
34.826
34.822
34.818
34.814
34.81
34.806
34.801
34.797
34.792
34.787
34.783
34.779
34.775
34.771
34.767
34.763
34.76
34.757
34.756
34.756
34.757
34.761
34.765
34.77
34.775
34.779
34.783
34.786
34.789
34.791
34.792
34.793
34.793
34.792
34.791
34.788
34.785
34.782
34.779
34.775
34.772
34.768
34.764
34.76
34.755
34.75
34.745
34.739
34.732
34.726
34.719
34.713
34.706
34.699
34.693
34.687
34.682
34.679
34.678
34.68
34.686
34.696
34.711
34.734
34.764
34.804
34.855
34.917
34.991
35.077
35.173
35.279
35.392
35.51
35.63
35.75
35.867
35.979
36.084
36.18
36.264
36.336
36.395
36.439
36.468
36.484
36.486
36.475
36.454
36.422
36.381
36.332
36.278
36.22
36.159
36.097
36.034
35.972
35.911
35.852
35.796
35.743
35.693
35.647
35.604
35.566
35.531
35.5
35.471
35.446
35.422
35.401
35.38
35.36
35.339
35.317
35.293
35.268
35.241
35.212
35.182
35.15
35.119
35.088
35.059
35.033
35.011
34.994
34.982
34.976
34.974
34.978
34.987
35.0
35.017
35.037
35.06
35.086
35.112
35.14
35.167
35.195
35.222
35.248
35.274
35.298
35.32
35.34
35.358
35.372
35.383
35.39
35.393
35.393
35.388
35.379
35.366
35.35
35.332
35.312
35.292
35.271
35.25
35.228
35.207
35.185
35.162
35.14
35.117
35.095
35.072
35.051
35.029
35.008
34.987
34.967
34.947
34.927
34.909
34.891
34.874
34.859
34.844
34.83
34.817
34.804
34.792
34.781
34.771
34.762
34.755
34.749
34.746
34.744
34.743
34.743
34.744
34.746
34.748
34.75
34.751
34.751
34.75
34.749
34.747
34.745
34.742
34.74
34.739
34.739
34.739
34.74
34.742
34.744
34.746
34.747
34.748
34.749
34.749
34.75
34.752
34.754
34.757
34.76
34.764
34.769
34.773
34.776
34.78
34.784
34.787
34.79
34.793
34.794
34.794
34.792
34.79
34.786
34.781
34.776
34.77
34.763
34.754
34.745
34.735
34.725
34.715
34.706
34.697
34.689
34.683
34.677
34.673
34.671
34.672
34.678
34.69
34.711
34.74
34.781
34.834
34.9
34.979
35.071
35.176
35.29
35.413
35.543
35.675
35.807
35.936
36.059
36.174
36.278
36.369
36.447
36.509
36.557
36.589
36.606
36.609
36.597
36.573
36.538
36.493
36.439
36.379
36.313
36.245
36.176
36.106
36.038
35.972
35.909
35.85
35.795
35.744
35.697
35.655
35.617
35.583
35.552
35.525
35.502
35.481
35.462
35.447
35.433
35.422
35.41
35.399
35.386
35.372
35.355
35.337
35.315
35.292
35.267
35.241
35.216
35.191
35.168
35.148
35.132
35.12
35.114
35.113
35.116
35.125
35.137
35.154
35.174
35.196
35.221
35.248
35.277
35.306
35.335
35.363
35.39
35.416
35.44
35.462
35.481
35.497
35.508
35.514
35.516
35.514
35.507
35.497
35.484
35.47
35.453
35.434
35.413
35.391
35.367
35.343
35.319
35.294
35.27
35.246
35.223
35.2
35.178
35.156
35.135
35.114
35.093
35.073
35.054
35.035
35.018
35.001
34.987
34.974
34.963
34.954
34.946
34.938
34.932
34.925
34.919
34.913
34.907
34.901
34.894
34.886
34.879
34.873
34.868
34.866
34.864
34.864
34.865
34.867
34.869
34.872
34.874
34.876
34.878
34.88
34.882
34.883
34.883
34.883
34.883
34.882
34.883
34.884
34.885
34.886
34.887
34.887
34.886
34.884
34.882
34.88
34.878
34.876
34.874
34.873
34.871
34.87
34.869
34.868
34.867
34.865
34.863
34.86
34.856
34.851
34.844
34.837
34.829
34.821
34.814
34.806
34.8
34.794
34.789
34.785
34.783
34.783
34.786
34.792
34.803
34.819
34.844
34.877
34.921
34.976
35.044
35.124
35.217
35.32
35.433
35.552
35.676
35.802
35.927
36.049
36.164
36.27
36.366
36.449
36.519
36.573
36.613
36.637
36.647
36.642
36.624
36.595
36.556
36.509
36.456
36.399
36.338
36.276
36.213
36.15
36.088
36.028
35.971
35.917
35.866
35.818
35.773
35.731
35.693
35.658
35.627
35.6
35.576
35.555
35.537
35.521
35.507
35.493
35.478
35.463
35.447
35.429
35.409
35.387
35.363
35.338
35.312
35.287
35.263
35.241
35.222
35.205
35.193
35.184
35.179
35.178
35.182
35.189
35.201
35.217
35.237
35.261
35.288
35.317
35.347
35.377
35.407
35.436
35.462
35.486
35.506
35.523
35.537
35.546
35.552
35.555
35.553
35.548
35.54
35.528
35.515
35.499
35.48
35.459
35.437
35.414
35.389
35.364
35.339
35.314
35.289
35.264
35.239
35.214
35.19
35.166
35.143
35.122
35.103
35.086
35.07
35.056
35.042
35.029
35.017
35.005
34.993
34.983
34.972
34.962
34.952
34.943
34.934
34.925
34.916
34.908
34.9
34.893
34.887
34.881
34.877
34.874
34.872
34.871
34.87
34.869
34.867
34.866
34.864
34.863
34.863
34.862
34.862
34.862
34.861
34.86
34.859
34.859
34.858
34.858
34.858
34.86
34.861
34.863
34.865
34.869
34.873
34.878
34.882
34.887
34.89
34.892
34.893
34.892
34.89
34.887
34.883
34.877
34.869
34.86
34.849
34.838
34.826
34.814
34.803
34.793
34.784
34.778
34.775
34.775
34.779
34.789
34.804
34.826
34.857
34.896
34.946
35.008
35.081
35.166
35.262
35.368
35.482
35.601
35.723
35.844
35.963
36.077
36.182
36.277
36.36
36.429
36.484
36.524
36.55
36.562
36.561
36.548
36.524
36.49
36.448
36.399
36.346
36.289
36.23
36.17
36.111
36.052
35.995
35.94
35.888
35.838
35.792
35.749
35.709
35.672
35.637
35.606
35.577
35.55
35.526
35.503
35.481
35.461
35.441
35.421
35.4
35.378
35.354
35.328
35.3
35.272
35.242
35.213
35.185
35.158
35.134
35.114
35.097
35.085
35.079
35.078
35.082
35.093
35.108
35.128
35.153
35.18
35.21
35.242
35.274
35.307
35.338
35.368
35.395
35.419
35.44
35.458
35.473
35.484
35.492
35.498
35.501
35.501
35.499
35.494
35.486
35.476
35.463
35.448
35.431
35.411
35.39
35.366
35.341
35.314
35.286
35.258
35.229
35.201
35.173
35.147
35.122
35.099
35.078
35.059
35.041
35.025
35.01
34.997
34.985
34.974
34.964
34.954
34.945
34.935
34.926
34.916
34.908
34.9
34.892
34.886
34.881
34.877
34.873
34.871
34.869
34.868
34.866
34.866
34.865
34.864
34.864
34.863
34.863
34.864
34.865
34.866
34.868
34.87
34.873
34.876
34.879
34.882
34.885
34.887
34.888
34.888
34.886
34.884
34.882
34.879
34.875
34.872
34.87
34.868
34.866
34.865
34.864
34.864
34.864
34.865
34.866
34.866
34.865
34.863
34.86
34.855
34.849
34.841
34.834
34.826
34.819
34.812
34.805
34.799
34.794
34.791
34.79
34.793
34.799
34.81
34.827
34.851
34.885
34.928
34.982
35.049
35.127
35.216
35.315
35.423
35.536
35.652
35.77
35.886
35.997
36.101
36.195
36.277
36.344
36.396
36.432
36.452
36.456
36.447
36.425
36.391
36.349
36.299
36.243
36.183
36.121
36.058
35.995
35.934
35.875
35.819
35.765
35.715
35.669
35.627
35.588
35.553
35.522
35.493
35.468
35.446
35.426
35.408
35.392
35.376
35.36
35.343
35.326
35.308
35.29
35.271
35.252
35.233
35.214
35.195
35.176
35.158
35.143
35.129
35.119
35.111
35.107
35.105
35.106
35.11
35.117
35.127
35.141
35.158
35.179
35.203
35.229
35.257
35.285
35.314
35.341
35.368
35.392
35.414
35.432
35.447
35.457
35.462
35.464
35.463
35.458
35.452
35.443
35.433
35.421
35.407
35.391
35.373
35.352
35.329
35.305
35.278
35.251
35.222
35.194
35.165
35.138
35.113
35.09
35.07
35.052
35.037
35.023
35.011
35.0
34.99
34.979
34.969
34.959
34.949
34.939
34.929
34.919
34.909
34.9
34.892
34.885
34.878
34.872
34.866
34.861
34.856
34.852
34.848
34.845
34.842
34.839
34.837
34.835
34.834
34.833
34.833
34.834
34.835
34.837
34.838
34.839
34.841
34.842
34.844
34.847
34.849
34.851
34.852
34.852
34.852
34.851
34.85
34.849
34.848
34.846
34.843
34.84
34.836
34.832
34.827
34.823
34.818
34.813
34.808
34.803
34.798
34.792
34.788
34.784
34.781
34.78
34.782
34.786
34.795
34.808
34.829
34.857
34.895
34.943
35.001
35.071
35.152
35.243
35.342
35.449
35.56
35.674
35.788
35.9
36.007
36.106
36.197
36.276
36.343
36.397
36.438
36.465
36.478
36.478
36.466
36.443
36.412
36.373
36.329
36.279
36.227
36.173
36.118
36.063
36.008
35.955
35.905
35.857
35.812
35.771
35.732
35.697
35.665
35.636
35.609
35.585
35.563
35.544
35.526
35.509
35.493
35.477
35.461
35.444
35.428
35.41
35.392
35.373
35.354
35.334
35.314
35.296
35.279
35.265
35.253
35.244
35.236
35.231
35.228
35.227
35.23
35.235
35.243
35.255
35.269
35.287
35.307
35.329
35.354
35.38
35.407
35.434
35.461
35.487
35.51
35.531
35.549
35.563
35.574
35.579
35.58
35.577
35.57
35.559
35.546
35.531
35.515
35.497
35.478
35.458
35.437
35.415
35.394
35.372
35.35
35.328
35.306
35.284
35.263
35.242
35.222
35.203
35.186
35.171
35.157
35.143
35.13
35.116
35.103
35.089
35.077
35.065
35.054
35.044
35.034
35.024
35.016
35.008
35.001
34.996
34.993
34.99
34.988
34.987
34.986
34.986
34.985
34.985
34.985
34.985
34.984
34.983
34.981
34.979
34.978
34.977
34.977
34.977
34.978
34.979
34.98
34.981
34.982
34.983
34.983
34.984
34.985
34.986
34.986
34.987
34.988
34.989
34.989
34.99
34.99
34.989
34.987
34.984
34.979
34.972
34.964
34.955
34.945
34.935
34.926
34.918
34.912
34.91
34.912
34.921
34.938
34.964
34.999
35.044
35.099
35.166
35.244
35.332
35.429
35.532
35.641
35.751
35.862
35.97
36.073
36.171
36.26
36.34
36.408
36.464
36.507
36.535
36.551
36.554
36.545
36.525
36.495
36.458
36.414
36.366
36.314
36.261
36.208
36.155
36.104
36.055
36.008
35.963
35.921
35.882
35.847
35.814
35.785
35.759
35.736
35.716
35.698
35.682
35.668
35.656
35.644
35.633
35.621
35.608
35.594
35.578
35.561
35.541
35.519
35.496
35.472
35.449
35.426
35.406
35.388
35.375
35.365
35.36
35.36
35.365
35.373
35.385
35.4
35.416
35.435
35.454
35.474
35.495
35.515
35.534
35.553
35.571
35.588
35.604
35.617
35.629
35.637
35.643
35.646
35.647
35.645
35.641
35.636
35.628
35.619
35.609
35.598
35.585
35.571
35.556
35.539
35.521
35.502
35.481
35.46
35.438
35.417
35.396
35.376
35.357
35.339
35.322
35.307
35.293
35.279
35.265
35.251
35.237
35.222
35.209
35.195
35.183
35.172
35.163
35.156
35.149
35.144
35.141
35.138
35.135
35.132
35.129
35.124
35.119
35.113
35.107
35.1
35.094
35.088
35.083
35.079
35.076
35.075
35.075
35.077
35.081
35.086
35.091
35.096
35.099
35.102
35.102
35.101
35.099
35.095
35.091
35.086
35.08
35.073
35.066
35.059
35.052
35.046
35.04
35.036
35.032
35.028
35.025
35.021
35.017
35.013
35.009
35.005
35.002
35.0
35.001
35.004
35.011
35.023
35.041
35.066
35.099
35.14
35.19
35.25
35.319
35.398
35.485
35.579
35.678
35.78
35.883
35.984
36.082
36.174
36.26
36.337
36.403
36.458
36.501
36.53
36.547
36.55
36.543
36.524
36.496
36.461
36.419
36.372
36.321
36.269
36.217
36.166
36.116
36.069
36.024
35.983
35.946
35.911
35.88
35.851
35.826
35.805
35.786
35.77
35.757
35.745
35.734
35.722
35.711
35.698
35.683
35.666
35.646
35.623
35.599
35.573
35.547
35.521
35.497
35.474
35.454
35.438
35.424
35.415
35.408
35.404
35.403
35.405
35.41
35.418
35.428
35.44
35.454
35.469
35.487
35.506
35.526
35.547
35.569
35.591
35.611
35.629
35.643
35.655
35.663
35.666
35.667
35.664
35.658
35.649
35.637
35.623
35.606
35.588
35.569
35.549
35.528
35.509
35.489
35.47
35.452
35.434
35.416
35.398
35.38
35.363
35.347
35.332
35.317
35.304
35.291
35.279
35.267
35.256
35.246
35.236
35.228
35.219
35.211
35.204
35.197
35.19
35.183
35.176
35.17
35.164
35.158
35.153
35.148
35.143
35.139
35.136
35.133
35.131
35.129
35.127
35.126
35.125
35.123
35.121
35.119
35.118
35.117
35.117
35.118
35.12
35.122
35.124
35.126
35.128
35.128
35.128
35.127
35.124
35.121
35.116
35.111
35.104
35.097
35.089
35.08
35.071
35.062
35.053
35.045
35.037
35.03
35.024
35.018
35.013
35.008
35.003
34.998
34.995
34.993
34.993
34.995
34.999
35.007
35.019
35.036
35.059
35.089
35.128
35.176
35.233
35.301
35.377
35.462
35.555
35.653
35.755
35.86
35.965
36.068
36.167
36.259
36.342
36.414
36.475
36.523
36.558
36.58
36.589
36.586
36.571
36.547
36.514
36.474
36.429
36.38
36.33
36.278
36.228
36.179
36.133
36.09
36.049
36.012
35.978
35.947
35.92
35.897
35.877
35.86
35.846
35.834
35.823
35.814
35.805
35.798
35.789
35.78
35.768
35.755
35.738
35.719
35.699
35.677
35.655
35.633
35.612
35.592
35.573
35.557
35.543
35.532
35.524
35.519
35.516
35.517
35.52
35.526
35.535
35.546
35.56
35.576
35.593
35.611
35.629
35.647
35.665
35.682
35.697
35.711
35.722
35.73
35.735
35.736
35.734
35.729
35.721
35.71
35.697
35.682
35.665
35.646
35.625
35.604
35.582
35.561
35.54
35.52
35.501
35.483
35.466
35.449
35.433
35.417
35.402
35.387
35.374
35.362
35.35
35.339
35.329
35.32
35.312
35.304
35.297
35.289
35.279
35.27
35.259
35.249
35.239
35.23
35.221
35.212
35.204
35.197
35.189
35.183
35.178
35.174
35.171
35.168
35.166
35.164
35.162
35.159
35.156
35.153
35.15
35.147
35.144
35.142
35.139
35.137
35.134
35.132
35.131
35.129
35.128
35.126
35.125
35.123
35.12
35.117
35.114
35.11
35.105
35.1
35.095
35.09
35.085
35.079
35.075
35.07
35.067
35.063
35.059
35.055
35.05
35.045
35.04
35.036
35.034
35.035
35.039
35.049
35.065
35.089
35.123
35.167
35.222
35.289
35.367
35.454
35.55
35.652
35.758
35.865
35.971
36.074
36.172
36.262
36.343
36.413
36.472
36.518
36.553
36.575
36.586
36.585
36.574
36.554
36.525
36.489
36.449
36.405
36.36
36.315
36.27
36.226
36.184
36.145
36.107
36.072
36.04
36.011
35.985
35.962
35.941
35.923
35.905
35.89
35.875
35.862
35.85
35.839
35.828
35.817
35.806
35.794
35.781
35.767
35.75
35.733
35.713
35.692
35.67
35.646
35.623
35.601
35.58
35.563
35.55
35.54
35.534
35.532
35.533
35.537
35.542
35.55
35.56
35.571
35.583
35.596
35.609
35.622
35.634
35.646
35.658
35.668
35.678
35.688
35.696
35.702
35.707
35.71
35.71
35.708
35.703
35.695
35.686
35.674
35.661
35.646
35.63
35.614
35.596
35.578
35.559
35.54
35.521
35.501
35.481
35.462
35.443
35.424
35.406
35.39
35.375
35.363
35.352
35.343
35.336
35.33
35.326
35.321
35.317
35.313
35.309
35.303
35.297
35.291
35.284
35.276
35.268
35.259
35.251
35.244
35.237
35.232
35.227
35.223
35.219
35.217
35.215
35.214
35.213
35.213
35.213
35.213
35.214
35.214
35.214
35.214
35.213
35.212
35.211
35.209
35.208
35.206
35.204
35.201
35.199
35.196
35.193
35.19
35.187
35.184
35.181
35.177
35.174
35.17
35.166
35.163
35.16
35.156
35.153
35.149
35.144
35.139
35.133
35.127
35.12
35.113
35.106
35.1
35.093
35.088
35.084
35.081
35.08
35.079
35.081
35.086
35.096
35.112
35.135
35.167
35.208
35.26
35.322
35.395
35.478
35.57
35.669
35.774
35.883
35.992
36.099
36.202
36.299
36.387
36.465
36.531
36.585
36.626
36.653
36.666
36.667
36.656
36.634
36.603
36.565
36.522
36.474
36.424
36.372
36.322
36.272
36.225
36.181
36.139
36.101
36.067
36.036
36.009
35.985
35.963
35.944
35.927
35.913
35.9
35.888
35.877
35.867
35.856
35.844
35.831
35.816
35.799
35.78
35.76
35.739
35.717
35.694
35.672
35.651
35.631
35.613
35.598
35.587
35.578
35.573
35.57
35.57
35.572
35.577
35.583
35.591
35.6
35.61
35.621
35.632
35.644
35.656
35.668
35.681
35.693
35.705
35.716
35.726
35.734
35.74
35.744
35.745
35.744
35.739
35.733
35.724
35.712
35.698
35.683
35.666
35.648
35.629
35.609
35.589
35.568
35.548
35.528
35.509
35.491
35.474
35.458
35.442
35.428
35.415
35.402
35.389
35.378
35.366
35.354
35.342
35.33
35.319
35.307
35.295
35.284
35.274
35.264
35.255
35.246
35.239
35.232
35.225
35.22
35.215
35.21
35.206
35.201
35.196
35.191
35.185
35.179
35.172
35.166
35.161
35.157
35.154
35.152
35.152
35.154
35.157
35.161
35.165
35.17
35.174
35.177
35.178
35.179
35.178
35.175
35.172
35.169
35.165
35.161
35.156
35.152
35.147
35.142
35.135
35.128
35.12
35.111
35.102
35.092
35.082
35.073
35.065
35.057
35.05
35.043
35.037
35.031
35.026
35.021
35.016
35.012
35.009
35.006
35.004
35.002
35.002
35.003
35.008
35.015
35.027
35.044
35.069
35.101
35.143
35.196
35.259
35.333
35.418
35.51
35.61
35.714
35.819
35.925
36.028
36.125
36.216
36.298
36.369
36.429
36.477
36.514
36.538
36.55
36.552
36.543
36.524
36.496
36.461
36.42
36.373
36.323
36.271
36.219
36.167
36.117
36.072
36.03
35.992
35.959
35.93
35.905
35.884
35.865
35.849
35.834
35.821
35.809
35.797
35.785
35.773
35.761
35.75
35.739
35.727
35.715
35.702
35.686
35.669
35.649
35.628
35.606
35.584
35.562
35.542
35.522
35.505
35.49
35.478
35.47
35.465
35.465
35.467
35.473
35.481
35.49
35.502
35.514
35.528
35.542
35.556
35.57
35.582
35.594
35.603
35.611
35.616
35.62
35.622
35.623
35.621
35.618
35.613
35.606
35.598
35.588
35.577
35.564
35.551
35.537
35.523
35.508
35.495
35.481
35.468
35.454
35.441
35.427
35.412
35.397
35.381
35.366
35.35
35.333
35.317
35.301
35.285
35.27
35.256
35.243
35.231
35.221
35.212
35.204
35.196
35.189
35.182
35.176
35.169
35.162
35.156
35.149
35.142
35.136
35.129
35.124
35.119
35.115
35.111
35.109
35.108
35.107
35.106
35.105
35.104
