Trial 3:3back
35.524
35.626
35.727
35.825
35.921
36.012
36.098
36.176
36.244
36.301
36.345
36.377
36.396
36.402
36.395
36.375
36.341
36.294
36.234
36.163
36.081
35.991
35.892
35.786
35.675
35.561
35.446
35.332
35.22
35.111
35.005
34.904
34.807
34.713
34.621
34.53
34.441
34.353
34.267
34.183
34.1
34.021
33.946
33.875
33.809
33.747
33.689
33.634
33.582
33.534
33.489
33.448
33.412
33.379
33.351
33.326
33.306
33.287
33.27
33.254
33.239
33.224
33.209
33.193
33.177
33.161
33.145
33.129
33.115
33.101
33.088
33.076
33.064
33.053
33.041
33.028
33.013
32.998
32.981
32.964
32.948
32.932
32.918
32.905
32.896
32.89
32.889
32.893
32.904
32.922
32.95
32.989
33.042
33.116
33.214
33.342
33.506
33.708
33.953
34.242
34.573
34.944
35.353
35.794
36.261
36.744
37.236
37.727
38.208
38.671
39.106
39.509
39.873
40.194
40.469
40.696
40.876
41.009
41.098
41.146
41.157
41.134
41.084
41.009
40.914
40.8
40.672
40.533
40.384
40.227
40.063
39.893
39.719
39.542
39.363
39.184
39.004
38.826
38.651
38.477
38.306
38.137
37.971
37.809
37.65
37.494
37.341
37.19
37.041
36.895
36.75
36.607
36.467
36.33
36.197
36.068
35.944
35.826
35.713
35.608
35.511
35.425
35.351
35.291
35.246
35.217
35.203
35.204
35.22
35.251
35.296
35.355
35.427
35.508
35.599
35.697
35.798
35.901
36.002
36.1
36.193
36.278
36.354
36.42
36.475
36.518
36.549
36.569
36.577
36.573
36.557
36.53
36.492
36.444
36.386
36.319
36.243
36.16
36.069
35.973
35.872
35.767
35.659
35.547
35.434
35.32
35.206
35.093
34.981
34.871
34.763
34.659
34.557
34.459
34.365
34.275
34.19
34.107
34.029
33.955
33.885
33.82
33.76
33.702
33.648
33.597
33.55
33.506
33.465
33.427
33.394
33.366
33.341
33.321
33.305
33.29
33.276
33.261
33.247
33.233
33.219
33.206
33.193
33.181
33.17
33.159
33.145
33.129
33.108
33.086
33.061
33.034
33.007
32.98
32.954
32.929
32.906
32.884
32.865
32.849
32.836
32.824
32.816
32.81
32.807
32.807
32.813
32.824
32.844
32.874
32.918
32.977
33.056
33.158
33.289
33.451
33.651
33.891
34.174
34.5
34.87
35.278
35.722
36.192
36.682
37.18
37.676
38.161
38.625
39.062
39.465
39.829
40.149
40.424
40.651
40.831
40.966
41.058
41.112
41.13
41.117
41.077
41.012
40.925
40.819
40.697
40.561
40.414
40.256
40.091
39.919
39.741
39.559
39.374
39.19
39.008
38.83
38.656
38.487
38.321
38.16
38.001
37.845
37.692
37.541
37.392
37.244
37.097
36.951
36.804
36.657
36.512
36.369
36.23
36.096
35.969
35.851
35.742
35.643
35.555
35.48
35.418
35.369
35.334
35.312
35.305
35.312
35.333
35.367
35.414
35.473
35.542
35.619
35.703
35.792
35.884
35.977
36.069
36.158
36.243
36.322
36.393
36.455
36.507
36.548
36.577
36.593
36.597
36.588
36.567
36.533
36.488
36.432
36.371
36.306
36.237
36.163
36.084
35.997
35.904
35.804
35.698
35.586
35.469
35.348
35.224
35.097
34.969
34.843
34.718
34.597
34.482
34.372
34.27
34.175
34.09
34.012
33.941
33.876
33.818
33.766
33.719
33.677
33.64
33.607
33.578
33.551
33.526
33.502
33.477
33.451
33.424
33.397
33.369
33.34
33.312
33.285
33.259
33.236
33.215
33.195
33.176
33.157
33.14
33.122
33.104
33.085
33.067
33.048
33.031
33.014
32.998
32.983
32.967
32.952
32.936
32.922
32.908
32.893
32.879
32.865
32.85
32.836
32.823
32.81
32.798
32.788
32.781
32.777
32.779
32.789
32.811
32.848
32.904
32.983
33.089
33.227
33.401
33.613
33.867
34.162
34.5
34.877
35.29
35.733
36.198
36.678
37.164
37.647
38.116
38.565
38.984
39.368
39.71
40.009
40.26
40.463
40.618
40.725
40.789
40.812
40.798
40.751
40.676
40.577
40.458
40.321
40.171
40.009
39.839
39.662
39.48
39.296
39.109
38.922
38.734
38.548
38.363
38.181
38.001
37.825
37.651
37.481
37.314
37.15
36.99
36.833
36.678
36.526
36.376
36.227
36.082
35.939
35.801
35.667
35.54
35.42
35.308
35.204
35.109
35.024
34.949
34.887
34.838
34.803
34.782
34.777
34.785
34.807
34.843
34.89
34.95
35.02
35.1
35.189
35.284
35.384
35.486
35.588
35.688
35.784
35.873
35.952
36.022
36.081
36.127
36.16
36.18
36.185
36.177
36.155
36.12
36.073
36.014
35.945
35.866
35.779
35.686
35.588
35.486
35.382
35.275
35.167
35.057
34.948
34.837
34.727
34.617
34.509
34.402
34.298
34.197
34.099
34.005
33.915
33.828
33.745
33.666
33.591
33.521
33.455
33.394
33.336
33.283
33.234
33.19
33.151
33.117
33.087
33.059
33.033
33.008
32.984
32.96
32.937
32.915
32.894
32.876
32.86
32.845
32.832
32.819
32.807
32.796
32.786
32.779
32.772
32.767
32.761
32.756
32.751
32.746
32.741
32.736
32.73
32.723
32.715
32.704
32.689
32.672
32.653
32.632
32.61
32.588
32.567
32.546
32.527
32.51
32.494
32.48
32.468
32.458
32.453
32.452
32.459
32.473
32.497
32.533
32.584
32.653
32.745
32.861
33.007
33.186
33.401
33.656
33.951
34.288
34.664
35.076
35.518
35.984
36.465
36.953
37.44
37.916
38.373
38.803
39.2
39.556
39.87
40.137
40.357
40.529
40.655
40.736
40.776
40.777
40.743
40.677
40.582
40.464
40.325
40.17
40.002
39.824
39.638
39.445
39.249
39.049
38.847
38.645
38.444
38.244
38.046
37.849
37.654
37.463
37.276
37.093
36.917
36.746
36.58
36.421
36.265
36.113
35.965
35.821
35.683
35.551
35.424
35.304
35.189
35.081
34.982
34.891
34.811
34.742
34.687
34.645
34.616
34.601
34.598
34.609
34.632
34.669
34.719
34.782
34.857
34.942
35.038
35.143
35.253
35.368
35.484
35.6
35.712
35.819
35.916
36.003
36.079
36.141
36.189
36.221
36.238
36.238
36.223
36.193
36.149
36.092
36.025
35.948
35.862
35.77
35.671
35.567
35.459
35.349
35.236
35.121
35.005
34.888
34.771
34.656
34.543
34.432
34.324
34.22
34.12
34.024
33.932
33.846
33.766
33.692
33.626
33.566
33.513
33.467
33.425
33.389
33.355
33.324
33.294
33.264
33.236
33.208
33.181
33.156
33.131
33.108
33.085
33.064
33.043
33.02
32.989
32.948
32.899
32.845
32.791
32.741
32.699
32.668
32.649
32.643
32.648
32.664
32.687
32.717
32.75
32.784
32.816
32.845
32.868
32.886
32.897
32.902
32.9
32.892
32.88
32.863
32.844
32.822
32.798
32.771
32.742
32.712
32.682
32.652
32.623
32.596
32.575
32.56
32.555
32.561
32.581
32.62
32.68
32.765
32.877
33.02
33.196
33.41
33.663
33.957
34.291
34.665
35.074
35.513
35.976
36.455
36.943
37.429
37.905
38.363
38.793
39.189
39.545
39.856
40.119
40.332
40.498
40.617
40.69
40.721
40.713
40.67
40.595
40.493
40.368
40.224
40.065
39.893
39.712
39.522
39.327
39.128
38.927
38.725
38.523
38.322
38.123
37.927
37.733
37.541
37.35
37.16
36.971
36.783
36.597
36.413
36.232
36.053
35.877
35.705
35.539
35.379
35.227
35.085
34.953
34.832
34.723
34.628
34.548
34.483
34.434
34.399
34.378
34.37
34.374
34.39
34.417
34.455
34.503
34.563
34.633
34.712
34.801
34.897
34.998
35.105
35.213
35.323
35.431
35.535
35.635
35.727
35.809
35.881
35.94
35.986
36.018
36.037
36.04
36.029
36.004
35.964
35.911
35.847
35.771
35.687
35.594
35.494
35.388
35.278
35.164
35.049
34.933
34.818
34.704
34.592
34.484
34.378
34.276
34.178
34.085
33.995
33.909
33.829
33.752
33.679
33.611
33.546
33.487
33.433
33.384
33.339
33.298
33.261
33.225
33.19
33.156
33.124
33.093
33.063
33.035
33.007
32.98
32.953
32.926
32.9
32.876
32.853
32.832
32.814
32.799
32.786
32.777
32.769
32.763
32.758
32.755
32.753
32.751
32.749
32.746
32.743
32.74
32.736
32.73
32.724
32.717
32.71
32.702
32.695
32.686
32.676
32.663
32.649
32.632
32.614
32.594
32.572
32.549
32.527
32.505
32.484
32.465
32.449
32.436
32.429
32.428
32.434
32.449
32.477
32.519
32.581
32.664
32.773
32.912
33.083
33.29
33.537
33.825
34.156
34.53
34.942
35.39
35.867
36.365
36.875
37.389
37.896
38.387
38.851
39.281
39.67
40.01
40.3
40.538
40.721
40.856
40.949
41.005
41.027
41.016
40.973
40.898
40.794
40.663
40.505
40.326
40.128
39.915
39.691
39.46
39.225
38.988
38.752
38.52
38.293
38.073
37.859
37.653
37.455
37.265
37.082
36.905
36.736
36.572
36.412
36.256
36.103
35.96
35.828
35.707
35.597
35.493
35.394
35.298
35.203
35.109
35.016
34.924
34.836
34.754
34.681
34.619
34.569
34.532
34.51
34.504
34.515
34.541
34.583
34.641
34.712
34.796
34.89
34.993
35.102
35.214
35.326
35.436
35.541
35.639
35.73
35.811
35.882
35.941
35.988
36.022
36.041
36.047
36.039
36.018
35.982
35.934
35.873
35.801
35.719
35.628
35.532
35.43
35.323
35.214
35.104
34.991
34.878
34.765
34.653
34.542
34.435
34.331
34.232
34.137
34.048
33.964
33.884
33.81
33.74
33.673
33.609
33.547
33.488
33.43
33.375
33.323
33.272
33.224
33.179
33.135
33.092
33.05
33.01
32.971
32.936
32.905
32.879
32.858
32.841
32.827
32.816
32.808
32.801
32.794
32.788
32.782
32.775
32.761
32.737
32.704
32.666
32.625
32.585
32.55
32.521
32.502
32.491
32.489
32.495
32.508
32.525
32.544
32.565
32.586
32.607
32.628
32.646
32.66
32.669
32.672
32.669
32.661
32.647
32.628
32.606
32.583
32.561
32.541
32.524
32.51
32.5
32.494
32.495
32.507
32.531
32.574
32.639
32.731
32.855
33.014
33.213
33.454
33.739
34.068
34.44
34.85
35.294
35.766
36.259
36.765
37.275
37.779
38.267
38.732
39.164
39.558
39.907
40.208
40.458
40.655
40.8
40.895
40.941
40.943
40.904
40.831
40.728
40.598
40.446
40.275
40.09
39.892
39.685
39.472
39.254
39.035
38.815
38.596
38.379
38.163
37.95
37.74
37.534
37.332
37.134
36.941
36.752
36.568
36.389
36.215
36.046
35.882
35.723
35.569
35.419
35.274
35.134
35.001
34.875
34.757
34.649
34.55
34.462
34.384
34.318
34.263
34.221
34.193
34.18
34.183
34.202
34.236
34.285
34.346
34.419
34.502
34.594
34.693
34.796
34.903
35.012
35.12
35.225
35.325
35.418
35.505
35.582
35.648
35.703
35.746
35.776
35.795
35.804
35.801
35.789
35.765
35.731
35.686
35.631
35.566
35.493
35.412
35.325
35.232
35.135
35.032
34.926
34.818
34.708
34.598
34.489
34.382
34.28
34.181
34.086
33.996
33.911
33.832
33.758
33.688
33.623
33.563
33.506
33.452
33.401
33.351
33.303
33.257
33.212
33.171
33.133
33.099
33.068
33.039
33.013
32.987
32.962
32.937
32.913
32.889
32.865
32.843
32.823
32.804
32.788
32.776
32.766
32.759
32.754
32.751
32.749
32.747
32.743
32.736
32.727
32.717
32.706
32.696
32.685
32.676
32.669
32.663
32.659
32.657
32.655
32.652
32.649
32.644
32.64
32.636
32.633
32.629
32.626
32.622
32.619
32.614
32.608
32.602
32.594
32.588
32.582
32.579
32.578
32.583
32.596
32.62
32.66
32.72
32.803
32.915
33.058
33.236
33.453
33.711
34.011
34.353
34.737
35.158
35.612
36.09
36.584
37.087
37.588
38.079
38.551
38.996
39.406
39.774
40.095
40.366
40.585
40.751
40.864
40.929
40.947
40.924
40.864
40.77
40.647
40.5
40.332
40.148
39.949
39.741
39.524
39.303
39.079
38.853
38.628
38.403
38.18
37.959
37.741
37.528
37.319
37.115
36.914
36.716
36.521
36.329
36.142
35.959
35.781
35.609
35.443
35.284
35.133
34.99
34.855
34.728
34.61
34.502
34.405
34.32
34.25
34.195
34.156
34.134
34.127
34.136
34.16
34.198
34.251
34.316
34.393
34.478
34.572
34.672
34.776
34.884
34.993
35.103
35.211
35.317
35.418
35.512
35.599
35.677
35.744
35.8
35.845
35.877
35.898
35.905
35.901
35.884
35.856
35.816
35.767
35.709
35.644
35.571
35.492
35.407
35.318
35.225
35.128
35.028
34.928
34.827
34.726
34.626
34.528
34.432
34.339
34.247
34.16
34.076
33.996
33.92
33.847
33.777
33.709
33.645
33.584
33.527
33.472
33.42
33.37
33.323
33.278
33.236
33.196
33.16
33.129
33.101
33.078
33.06
33.044
33.031
33.019
33.009
33.001
32.993
32.986
32.979
32.971
32.963
32.953
32.941
32.929
32.917
32.905
32.895
32.886
32.88
32.875
32.871
32.868
32.865
32.864
32.864
32.863
32.863
32.861
32.857
32.852
32.843
32.832
32.818
32.801
32.783
32.765
32.747
32.729
32.711
32.694
32.68
32.669
32.663
32.664
32.674
32.694
32.729
32.782
32.857
32.958
33.088
33.252
33.454
33.695
33.978
34.304
34.67
35.075
35.513
35.979
36.465
36.963
37.466
37.963
38.445
38.903
39.329
39.717
40.06
40.355
40.599
40.792
40.934
41.024
41.066
41.063
41.018
40.936
40.822
40.68
40.516
40.333
40.136
39.929
39.714
39.495
39.274
39.051
38.828
38.606
38.385
38.168
37.953
37.743
37.536
37.333
37.136
36.944
36.757
36.576
36.402
36.233
36.069
35.909
35.754
35.602
35.455
35.312
35.174
35.043
34.92
34.807
34.705
34.614
34.534
34.466
34.411
34.369
34.34
34.323
34.319
34.328
34.349
34.384
34.431
34.491
34.562
34.646
34.739
34.841
34.948
35.058
35.171
35.283
35.394
35.501
35.603
35.697
35.781
35.855
35.915
35.961
35.993
36.011
36.015
36.005
35.983
35.948
35.902
35.845
35.777
35.699
35.611
35.516
35.416
35.313
35.209
35.106
35.005
34.906
34.81
34.716
34.625
34.537
34.45
34.366
34.285
34.207
34.132
34.06
33.991
33.925
33.862
33.8
33.74
33.682
33.626
33.573
33.522
33.474
33.43
33.388
33.349
33.306
33.255
33.194
33.125
33.054
32.983
32.918
32.862
32.818
32.787
32.77
32.766
32.774
32.791
32.817
32.848
32.884
32.921
32.957
32.991
33.021
33.046
33.065
33.079
33.087
33.09
33.089
33.083
33.073
33.057
33.036
33.011
32.983
32.954
32.925
32.896
32.869
32.845
32.825
32.81
32.799
32.792
32.79
32.791
32.799
32.813
32.835
32.865
32.906
32.962
33.035
33.13
33.251
33.4
33.581
33.797
34.051
34.343
34.674
35.043
35.447
35.88
36.336
36.808
37.287
37.766
38.234
38.686
39.112
39.507
39.862
40.175
40.439
40.655
40.819
40.934
41.0
41.02
40.998
40.938
40.843
40.719
40.569
40.398
40.209
40.008
39.797
39.58
39.358
39.133
38.907
38.681
38.456
38.234
38.016
37.804
37.597
37.397
37.202
37.012
36.828
36.648
36.472
36.3
36.131
35.965
35.802
35.642
35.486
35.335
35.189
35.05
34.918
34.795
34.681
34.579
34.488
34.411
34.349
34.304
34.274
34.261
34.263
34.278
34.306
34.347
34.399
34.463
34.536
34.619
34.709
34.804
34.902
35.002
35.103
35.203
35.302
35.399
35.489
35.572
35.646
35.71
35.763
35.803
35.831
35.846
35.848
35.838
35.817
35.785
35.744
35.695
35.638
35.574
35.504
35.429
35.35
35.267
35.18
35.091
35.0
34.906
34.81
34.714
34.616
34.518
34.421
34.325
34.231
34.139
34.051
33.968
33.889
33.816
33.748
33.687
33.631
33.58
33.534
33.491
33.451
33.413
33.378
33.346
33.315
33.287
33.26
33.235
33.21
33.187
33.164
33.14
33.117
33.092
33.068
33.043
33.016
32.985
32.949
32.909
32.87
32.832
32.799
32.771
32.751
32.738
32.734
32.738
32.75
32.768
32.79
32.815
32.841
32.867
32.893
32.916
32.937
32.953
32.965
32.972
32.973
32.969
32.96
32.946
32.929
32.91
32.892
32.877
32.867
32.862
32.864
32.873
32.889
32.914
32.951
33.003
33.075
33.172
33.297
33.452
33.639
33.861
34.12
34.417
34.751
35.121
35.524
35.955
36.409
36.876
37.349
37.82
38.279
38.718
39.131
39.512
39.855
40.155
40.41
40.615
40.772
40.879
40.939
40.954
40.927
40.863
40.766
40.641
40.491
40.32
40.134
39.937
39.731
39.52
39.305
39.089
38.873
38.658
38.444
38.232
38.023
37.816
37.612
37.412
37.215
37.022
36.833
36.648
36.466
36.287
36.112
35.942
35.775
35.615
35.462
35.316
35.178
35.049
34.931
34.825
34.731
34.651
34.585
34.533
34.495
34.47
34.458
34.46
34.474
34.5
34.538
34.587
34.647
34.715
34.793
34.879
34.972
35.071
35.176
35.284
35.395
35.507
35.618
35.726
35.828
35.923
36.01
36.087
36.154
36.209
36.252
36.281
36.295
36.294
36.278
36.248
36.204
36.148
36.083
36.009
35.927
35.837
35.741
35.641
35.538
35.432
35.327
35.222
35.119
35.019
34.921
34.826
34.733
34.643
34.556
34.473
34.394
34.318
34.246
34.177
34.111
34.049
33.99
33.933
33.88
33.829
33.781
33.735
33.691
33.648
33.607
33.567
33.53
33.496
33.465
33.437
33.412
33.392
33.375
33.361
33.35
33.341
33.333
33.327
33.321
33.315
33.31
33.305
33.301
33.296
33.293
33.289
33.285
33.279
33.273
33.265
33.255
33.244
33.231
33.217
33.202
33.185
33.168
33.15
33.132
33.115
33.098
33.082
33.068
33.057
33.049
33.044
33.045
33.051
33.065
33.091
33.132
33.191
33.273
33.379
33.515
33.682
33.884
34.123
34.402
34.722
35.081
35.477
35.903
36.354
36.821
37.297
37.772
38.238
38.687
39.113
39.507
39.864
40.178
40.446
40.666
40.838
40.961
41.037
41.07
41.062
41.016
40.937
40.828
40.694
40.539
40.367
40.182
39.985
39.78
39.568
39.351
39.132
38.912
38.693
38.477
38.264
38.056
37.853
37.655
37.462
37.274
37.091
36.912
36.738
36.568
36.402
36.241
36.084
35.931
35.782
35.637
35.497
35.361
35.232
35.11
34.997
34.896
34.807
34.733
34.673
34.628
34.599
34.585
34.587
34.602
34.63
34.671
34.724
34.787
34.86
34.942
35.032
35.129
35.232
35.338
35.447
35.556
35.663
35.768
35.866
35.958
36.04
36.113
36.174
36.223
36.26
36.284
36.294
36.29
36.273
36.243
36.202
36.151
36.09
36.021
35.943
35.858
35.764
35.664
35.557
35.446
35.332
35.218
35.105
34.993
34.883
34.778
34.676
34.581
34.49
34.405
34.326
34.253
34.184
34.119
34.057
33.999
33.943
33.89
33.841
33.795
33.753
33.714
33.677
33.642
33.611
33.582
33.556
33.533
33.512
33.493
33.474
33.456
33.437
33.416
33.393
33.369
33.345
33.321
33.297
33.274
33.253
33.235
33.22
33.208
33.197
33.189
33.181
33.173
33.166
33.16
33.153
33.146
33.138
33.131
33.123
33.114
33.103
33.09
33.075
33.058
33.04
33.022
33.005
32.989
32.975
32.963
32.955
32.953
32.958
32.973
32.999
33.041
33.103
33.187
33.298
33.44
33.616
33.83
34.083
34.377
34.71
35.082
35.488
35.924
36.384
36.859
37.342
37.823
38.295
38.749
39.176
39.571
39.928
40.242
40.509
40.728
40.899
41.021
41.095
41.124
41.11
41.058
40.973
40.859
40.722
40.565
40.394
40.211
40.02
39.822
39.621
39.418
39.216
39.015
38.817
38.621
38.427
38.235
38.046
37.859
37.675
37.494
37.317
37.144
36.976
36.81
36.648
36.488
36.332
36.181
36.035
35.894
35.759
35.63
35.508
35.394
35.287
35.188
35.099
35.019
34.952
34.898
34.858
34.831
34.819
34.821
34.837
34.868
34.911
34.968
35.037
35.118
35.208
35.306
35.41
35.519
35.63
35.741
35.851
35.956
36.056
36.147
36.228
36.297
36.353
36.395
36.422
36.434
36.431
36.415
36.385
36.343
36.291
36.229
36.16
36.085
36.005
35.919
35.831
35.739
35.646
35.551
35.454
35.355
35.254
35.152
35.049
34.947
34.845
34.746
34.649
34.556
34.466
34.379
34.296
34.216
34.142
34.073
34.01
33.952
33.899
33.851
33.806
33.764
33.723
33.683
33.644
33.604
33.566
33.529
33.495
33.464
33.435
33.41
33.389
33.37
33.354
33.34
33.326
33.313
33.301
33.29
33.28
33.271
33.263
33.255
33.246
33.238
33.229
33.22
33.211
33.201
33.19
33.179
33.167
33.155
33.142
33.13
33.118
33.108
33.099
33.091
33.083
33.075
33.066
33.056
33.045
33.034
33.023
33.013
33.007
33.005
33.01
33.024
33.051
33.093
33.154
33.237
33.346
33.484
33.655
33.861
34.106
34.389
34.712
35.073
35.468
35.893
36.342
36.807
37.282
37.756
38.222
38.671
39.094
39.484
39.835
40.142
40.402
40.614
40.778
40.893
40.961
40.986
40.971
40.92
40.838
40.729
40.599
40.45
40.286
40.11
39.926
39.734
39.537
39.337
39.137
38.936
38.737
38.54
38.347
38.157
37.972
37.793
37.618
37.448
37.281
37.117
36.956
36.799
36.643
36.49
