Trial 3:3back
35.585
35.549
35.513
35.478
35.443
35.41
35.38
35.352
35.327
35.307
35.29
35.278
35.268
35.259
35.251
35.245
35.24
35.237
35.237
35.239
35.244
35.25
35.256
35.26
35.264
35.266
35.268
35.269
35.27
35.271
35.272
35.273
35.273
35.27
35.266
35.26
35.252
35.24
35.223
35.201
35.175
35.146
35.113
35.078
35.042
35.006
34.97
34.934
34.898
34.862
34.825
34.788
34.749
34.712
34.675
34.64
34.608
34.577
34.547
34.517
34.487
34.457
34.428
34.399
34.369
34.339
34.308
34.275
34.24
34.204
34.167
34.132
34.097
34.064
34.03
33.996
33.962
33.928
33.894
33.862
33.832
33.806
33.783
33.762
33.743
33.723
33.704
33.685
33.666
33.648
33.63
33.612
33.595
33.577
33.559
33.54
33.519
33.497
33.474
33.449
33.425
33.4
33.376
33.354
33.335
33.321
33.312
33.31
33.318
33.336
33.364
33.404
33.455
33.52
33.597
33.687
33.79
33.905
34.034
34.174
34.325
34.485
34.653
34.828
35.008
35.192
35.377
35.562
35.746
35.927
36.104
36.275
36.441
36.601
36.754
36.898
37.033
37.157
37.268
37.366
37.45
37.519
37.574
37.613
37.638
37.65
37.65
37.64
37.62
37.595
37.564
37.529
37.492
37.455
37.417
37.381
37.344
37.307
37.27
37.231
37.193
37.153
37.111
37.068
37.024
36.978
36.931
36.881
36.826
36.765
36.7
36.632
36.564
36.497
36.432
36.371
36.313
36.26
36.21
36.165
36.123
36.086
36.053
36.022
35.996
35.972
35.952
35.936
35.923
35.914
35.907
35.904
35.904
35.906
35.91
35.915
35.921
35.925
35.927
35.925
35.92
35.91
35.897
35.879
35.858
35.834
35.808
35.778
35.746
35.71
35.671
35.629
35.585
35.54
35.493
35.447
35.401
35.356
35.312
35.269
35.225
35.181
35.138
35.094
35.048
35.001
34.952
34.904
34.856
34.811
34.769
34.731
34.697
34.667
34.639
34.613
34.586
34.558
34.53
34.5
34.47
34.44
34.41
34.379
34.348
34.317
34.285
34.254
34.223
34.192
34.161
34.13
34.098
34.066
34.034
34.004
33.976
33.95
33.927
33.905
33.884
33.863
33.841
33.819
33.797
33.775
33.752
33.729
33.707
33.684
33.662
33.641
33.62
33.603
33.591
33.585
33.586
33.594
33.612
33.641
33.682
33.734
33.801
33.881
33.975
34.083
34.203
34.334
34.475
34.627
34.789
34.961
35.142
35.33
35.523
35.72
35.917
36.111
36.301
36.484
36.661
36.829
36.989
37.139
37.278
37.405
37.52
37.619
37.703
37.772
37.825
37.864
37.89
37.903
37.904
37.894
37.873
37.843
37.803
37.755
37.7
37.642
37.582
37.524
37.467
37.412
37.361
37.311
37.264
37.217
37.172
37.127
37.083
37.038
36.992
36.944
36.895
36.847
36.8
36.754
36.71
36.669
36.631
36.596
36.563
36.531
36.499
36.469
36.439
36.41
36.381
36.352
36.325
36.299
36.274
36.25
36.225
36.201
36.178
36.153
36.128
36.101
36.073
36.044
36.014
35.984
35.952
35.92
35.889
35.858
35.827
35.796
35.766
35.736
35.707
35.679
35.652
35.626
35.601
35.577
35.555
35.532
35.511
35.491
35.471
35.452
35.431
35.409
35.383
35.354
35.32
35.28
35.235
35.186
35.133
35.079
35.035
35.006
34.993
34.994
35.002
35.012
35.019
35.019
35.008
34.985
34.95
34.902
34.845
34.779
34.708
34.632
34.555
34.477
34.401
34.329
34.262
34.201
34.145
34.095
34.051
34.012
33.975
33.941
33.908
33.877
33.847
33.817
33.787
33.757
33.727
33.697
33.667
33.637
33.609
33.582
33.556
33.533
33.511
33.491
33.473
33.458
33.446
33.438
33.433
33.431
33.433
33.438
33.447
33.46
33.478
33.504
33.538
33.583
33.64
33.709
33.793
33.892
34.006
34.134
34.275
34.429
34.594
34.768
34.946
35.127
35.309
35.489
35.665
35.834
35.993
36.14
36.275
36.396
36.503
36.597
36.679
36.751
36.813
36.866
36.912
36.95
36.982
37.006
37.025
37.038
37.045
37.049
37.049
37.045
37.036
37.023
37.007
36.987
36.964
36.937
36.908
36.878
36.848
36.818
36.787
36.756
36.724
36.691
36.656
36.619
36.579
36.539
36.497
36.455
36.41
36.364
36.316
36.267
36.22
36.175
36.133
36.094
36.058
36.026
35.995
35.968
35.942
35.92
35.901
35.884
35.869
35.856
35.844
35.832
35.819
35.806
35.791
35.776
35.76
35.744
35.727
35.71
35.694
35.677
35.662
35.647
35.633
35.621
35.615
35.618
35.627
35.641
35.653
35.662
35.664
35.656
35.637
35.609
35.572
35.529
35.48
35.426
35.368
35.306
35.243
35.179
35.115
35.052
34.989
34.927
34.868
34.811
34.757
34.707
34.662
34.623
34.588
34.556
34.527
34.5
34.474
34.449
34.424
34.401
34.378
34.357
34.337
34.318
34.299
34.28
34.26
34.241
34.222
34.2
34.178
34.154
34.129
34.102
34.074
34.044
34.014
33.983
33.95
33.917
33.884
33.852
33.822
33.795
33.77
33.75
33.734
33.721
33.712
33.704
33.697
33.69
33.682
33.672
33.66
33.646
33.63
33.613
33.596
33.58
33.566
33.554
33.548
33.548
33.556
33.572
33.598
33.635
33.685
33.751
33.831
33.927
34.038
34.164
34.302
34.451
34.609
34.773
34.943
35.115
35.286
35.455
35.62
35.779
35.93
36.072
36.202
36.32
36.425
36.516
36.593
36.655
36.701
36.734
36.753
36.759
36.755
36.743
36.724
36.701
36.675
36.649
36.623
36.597
36.574
36.553
36.534
36.515
36.497
36.481
36.465
36.45
36.436
36.425
36.414
36.405
36.395
36.384
36.369
36.35
36.328
36.303
36.274
36.244
36.213
36.181
36.15
36.117
36.085
36.053
36.022
35.993
35.964
35.935
35.907
35.88
35.854
35.83
35.808
35.79
35.776
35.767
35.763
35.763
35.765
35.768
35.772
35.774
35.776
35.776
35.776
35.773
35.768
35.76
35.749
35.735
35.719
35.701
35.681
35.658
35.634
35.607
35.579
35.549
35.52
35.492
35.467
35.445
35.425
35.405
35.386
35.366
35.345
35.32
35.292
35.26
35.225
35.188
35.149
35.108
35.067
35.026
34.986
34.947
34.908
34.871
34.834
34.799
34.764
34.73
34.696
34.662
34.629
34.597
34.566
34.536
34.508
34.482
34.457
34.432
34.407
34.382
34.357
34.333
34.309
34.284
34.26
34.236
34.212
34.189
34.166
34.144
34.121
34.098
34.074
34.048
34.021
33.994
33.969
33.945
33.922
33.9
33.878
33.855
33.832
33.807
33.781
33.754
33.727
33.7
33.674
33.649
33.627
33.607
33.59
33.576
33.567
33.563
33.566
33.578
33.599
33.631
33.673
33.728
33.795
33.874
33.964
34.065
34.175
34.292
34.414
34.54
34.667
34.794
34.92
35.044
35.165
35.28
35.39
35.495
35.593
35.683
35.763
35.834
35.896
35.95
35.997
36.037
36.072
36.102
36.129
36.153
36.174
36.193
36.209
36.223
36.234
36.242
36.246
36.247
36.246
36.242
36.234
36.224
36.211
36.194
36.174
36.15
36.123
36.092
36.056
36.017
35.974
35.927
35.877
35.826
35.775
35.726
35.677
35.631
35.586
35.543
35.503
35.466
35.431
35.399
35.372
35.349
35.331
35.318
35.31
35.308
35.312
35.321
35.333
35.348
35.365
35.381
35.396
35.408
35.416
35.421
35.423
35.424
35.422
35.419
35.412
35.404
35.393
35.379
35.361
35.34
35.319
35.298
35.277
35.257
35.239
35.222
35.207
35.193
35.181
35.17
35.159
35.149
35.136
35.121
35.102
35.081
35.056
35.028
34.997
34.964
34.93
34.894
34.856
34.816
34.775
34.734
34.694
34.656
34.62
34.587
34.556
34.529
34.504
34.481
34.46
34.439
34.418
34.396
34.373
34.347
34.319
34.289
34.258
34.227
34.196
34.166
34.137
34.109
34.082
34.056
34.031
34.008
33.988
33.97
33.954
33.94
33.926
33.913
33.9
33.887
33.872
33.857
33.842
33.826
33.81
33.792
33.773
33.754
33.735
33.715
33.695
33.675
33.656
33.637
33.619
33.604
33.591
33.584
33.584
33.592
33.61
33.637
33.675
33.723
33.783
33.851
33.929
34.015
34.109
34.21
34.318
34.431
34.548
34.668
34.79
34.912
35.033
35.152
35.268
35.379
35.484
35.582
35.671
35.752
35.825
35.89
35.947
35.998
36.041
36.078
36.107
36.13
36.147
36.159
36.164
36.165
36.161
36.151
36.137
36.117
36.094
36.065
36.033
35.999
35.962
35.925
35.888
35.851
35.815
35.779
35.746
35.714
35.685
35.658
35.634
35.614
35.596
35.579
35.563
35.545
35.526
35.504
35.48
35.454
35.427
35.399
35.373
35.347
35.322
35.299
35.277
35.258
35.241
35.227
35.214
35.203
35.195
35.189
35.185
35.183
35.184
35.189
35.195
35.202
35.211
35.219
35.227
35.234
35.242
35.249
35.257
35.264
35.269
35.273
35.275
35.274
35.27
35.261
35.249
35.231
35.208
35.182
35.151
35.117
35.081
35.042
35.001
34.96
34.917
34.877
34.84
34.809
34.782
34.76
34.74
34.723
34.706
34.691
34.677
34.662
34.647
34.63
34.611
34.59
34.566
34.539
34.509
34.477
34.444
34.408
34.371
34.333
34.293
34.254
34.214
34.173
34.133
34.094
34.057
34.021
33.987
33.955
33.926
33.901
33.878
33.859
33.844
33.831
33.823
33.818
33.815
33.814
33.815
33.817
33.819
33.819
33.818
33.813
33.805
33.793
33.776
33.755
33.73
33.704
33.679
33.655
33.634
33.618
33.608
33.607
33.617
33.639
33.675
33.727
33.794
33.876
33.971
34.08
34.201
34.332
34.472
34.617
34.766
34.916
35.066
35.213
35.357
35.495
35.63
35.76
35.887
36.009
36.124
36.231
36.33
36.42
36.501
36.572
36.633
36.686
36.73
36.765
36.792
36.81
36.821
36.826
36.826
36.822
36.815
36.805
36.792
36.778
36.761
36.74
36.715
36.688
36.659
36.63
36.601
36.571
36.543
36.515
36.486
36.456
36.424
36.391
36.358
36.325
36.292
36.258
36.223
36.19
36.158
36.127
36.099
36.073
36.051
36.032
36.017
36.004
35.994
35.985
35.978
35.971
35.966
35.961
35.958
35.955
35.951
35.947
35.94
35.931
35.921
35.909
35.895
35.881
35.866
35.852
35.84
35.828
35.818
35.808
35.8
35.792
35.785
35.775
35.764
35.75
35.732
35.712
35.687
35.66
35.63
35.6
35.568
35.535
35.5
35.465
35.431
35.397
35.363
35.331
35.3
35.272
35.245
35.219
35.194
35.17
35.148
35.127
35.108
35.089
35.069
35.047
35.022
34.993
34.959
34.921
34.878
34.832
34.785
34.735
34.685
34.636
34.588
34.544
34.502
34.465
34.433
34.407
34.385
34.368
34.356
34.347
34.342
34.34
34.34
34.34
34.34
34.339
34.335
34.326
34.311
34.29
34.264
34.233
34.199
34.16
34.119
34.075
34.03
33.985
33.942
33.902
33.867
33.841
33.826
33.825
33.838
33.866
33.908
33.963
34.03
34.106
34.191
34.283
34.381
34.484
34.59
34.699
34.811
34.925
35.041
35.158
35.277
35.398
35.522
35.647
35.771
35.894
36.013
36.13
36.241
36.348
36.45
36.546
36.636
36.721
36.798
36.868
36.929
36.983
37.028
37.064
37.09
37.107
37.116
37.117
37.11
37.098
37.081
37.06
37.038
37.014
36.989
36.963
36.937
36.91
36.881
36.85
36.816
36.781
36.745
36.707
36.669
36.631
36.592
36.555
36.521
36.488
36.458
36.43
36.407
36.387
36.369
36.353
36.337
36.321
36.304
36.285
36.268
36.252
36.24
36.231
36.227
36.226
36.228
36.234
36.244
36.257
36.274
36.295
36.32
36.347
36.374
36.401
36.426
36.447
36.464
36.475
36.478
36.473
36.459
36.435
36.401
36.356
36.303
36.241
36.173
36.102
36.027
35.952
35.877
35.803
35.731
35.662
35.595
35.533
35.474
35.418
35.367
35.319
35.273
35.229
35.187
35.147
35.108
35.069
35.031
34.992
34.953
34.912
34.87
34.826
34.783
34.74
34.699
34.659
34.619
34.579
34.538
34.495
34.452
34.407
34.361
34.316
34.271
34.226
34.181
34.135
34.088
34.04
33.992
33.943
33.893
33.842
33.79
33.738
33.685
33.632
33.579
33.528
33.48
33.435
33.392
33.352
33.316
33.284
33.257
33.235
33.219
33.209
33.204
33.204
33.208
33.216
33.228
33.241
33.255
33.269
33.282
33.295
33.306
33.317
33.328
33.341
33.358
33.381
33.411
33.449
33.498
33.56
33.635
33.726
33.834
33.959
34.103
34.265
34.444
34.637
34.843
35.058
35.279
35.502
35.723
35.938
36.144
36.337
36.514
36.674
36.814
36.936
37.039
37.125
37.193
37.246
37.284
37.31
37.324
37.328
37.322
37.309
37.289
37.264
37.235
37.203
37.167
37.131
37.094
37.058
37.022
36.986
36.952
36.92
36.891
36.864
36.839
36.817
36.795
36.775
36.756
36.736
36.716
36.695
36.674
36.652
36.63
36.608
36.585
36.563
36.54
36.517
36.494
36.47
36.446
36.421
36.397
36.374
36.353
36.335
36.319
36.304
36.291
36.279
36.267
36.255
36.244
36.231
36.218
36.205
36.191
36.176
36.16
36.143
36.126
36.109
36.092
36.074
36.056
36.037
36.016
35.996
35.975
35.954
35.933
35.913
35.893
35.873
35.851
35.828
35.802
35.775
35.744
35.71
35.673
35.632
35.589
35.542
35.493
35.44
35.386
35.333
35.281
35.233
35.188
35.148
35.112
35.079
35.049
35.02
34.992
34.965
34.939
34.913
34.885
34.855
34.823
34.79
34.754
34.717
34.677
34.636
34.593
34.548
34.503
34.459
34.418
34.382
34.351
34.325
34.303
34.283
34.264
34.246
34.229
34.212
34.195
34.177
34.159
34.138
34.113
34.086
34.056
34.025
33.994
33.964
33.933
33.903
33.874
33.846
33.817
33.79
33.764
33.74
33.719
33.699
33.68
33.663
33.646
33.632
33.621
33.614
33.614
33.622
33.637
33.66
33.69
33.729
33.778
33.837
33.907
33.989
34.081
34.185
34.3
34.423
34.555
34.695
34.839
34.988
35.139
35.289
35.437
35.581
35.721
35.854
35.979
36.096
36.204
36.302
36.39
36.468
36.534
36.588
36.631
36.663
36.685
36.698
36.702
36.699
36.692
36.68
36.666
36.651
36.636
36.622
36.609
36.597
36.585
36.573
36.56
36.545
36.527
36.505
36.479
36.45
36.416
36.38
36.34
36.298
36.255
36.211
36.167
36.123
36.078
36.033
35.988
35.942
35.897
35.854
35.812
35.775
35.741
35.712
35.688
35.67
35.66
35.656
35.656
35.661
35.67
35.682
35.696
35.711
35.726
35.742
35.756
35.769
35.779
35.788
35.795
35.803
35.811
35.815
35.813
35.805
35.788
35.764
35.732
35.692
35.646
35.596
35.544
35.49
35.438
35.389
35.344
35.304
35.27
35.243
35.221
35.205
35.194
35.187
35.182
35.179
35.176
35.171
35.164
35.153
35.136
35.114
35.087
35.055
35.019
34.978
34.933
34.885
34.834
34.782
34.728
34.673
34.619
34.568
34.518
34.472
34.43
34.391
34.357
34.326
34.299
34.275
34.254
34.235
34.218
34.2
34.182
34.163
34.144
34.123
34.1
34.076
34.05
34.022
33.991
33.958
33.922
33.886
33.85
33.818
33.79
33.767
33.747
33.73
33.714
33.7
33.686
33.671
33.654
33.637
33.618
33.597
33.575
33.553
33.532
33.514
33.499
33.488
33.481
33.481
33.487
33.5
33.523
33.555
33.6
33.657
33.727
33.809
33.902
34.005
34.115
34.232
34.354
34.48
34.609
34.738
34.867
34.993
35.114
35.229
35.338
35.44
35.535
35.622
35.701
35.77
35.83
35.879
35.917
35.948
35.973
35.992
36.007
36.016
36.021
36.02
36.014
36.003
35.988
35.967
35.944
35.92
35.893
35.865
35.836
35.805
35.774
35.742
35.71
35.676
35.641
35.606
35.571
35.536
35.501
35.468
35.437
35.408
35.381
35.356
35.333
35.31
35.288
35.264
35.239
35.212
35.184
35.156
35.127
35.098
35.071
35.046
35.025
35.006
34.991
34.979
34.971
34.966
34.965
34.967
34.972
34.98
34.991
35.004
35.019
35.035
35.051
35.066
35.079
35.087
35.09
35.087
35.077
35.061
35.039
35.013
34.982
34.948
34.913
34.876
34.84
34.804
34.769
34.738
34.709
34.684
34.661
34.641
34.624
34.609
34.596
34.584
34.572
34.56
34.547
34.531
34.513
34.491
34.465
34.436
34.403
34.368
34.33
34.29
34.249
34.208
34.167
34.124
34.081
34.037
33.992
33.946
33.903
33.863
33.828
33.799
33.774
33.755
33.74
33.73
33.723
33.718
33.715
33.714
33.712
33.709
33.704
33.697
33.686
33.673
33.656
33.635
33.61
33.582
33.551
33.519
33.487
33.456
33.428
33.403
33.382
33.366
33.354
33.348
33.346
33.35
33.36
33.377
33.401
33.434
33.477
33.528
33.587
33.653
33.725
33.804
33.89
33.982
34.08
34.184
34.294
34.41
34.531
34.658
34.79
34.927
35.067
35.209
35.348
35.484
35.615
35.739
35.856
35.964
36.062
36.15
36.227
36.293
36.345
36.384
36.409
36.422
36.423
36.416
36.402
36.383
36.361
36.336
36.309
36.281
36.253
36.226
36.202
36.179
36.157
36.136
36.115
36.093
36.07
36.044
36.017
35.991
35.964
35.937
35.908
35.876
35.842
35.806
35.769
35.73
35.69
35.65
35.61
35.571
35.533
35.498
35.466
35.437
35.413
35.392
35.375
35.36
35.347
35.336
35.327
35.318
35.311
35.305
35.301
35.299
35.297
35.296
35.295
35.294
35.293
35.292
35.291
35.29
35.29
35.29
35.289
35.285
35.279
35.27
35.26
35.247
35.232
35.214
35.193
35.169
35.137
35.09
35.027
34.954
34.875
34.796
34.721
34.655
34.6
34.558
34.527
34.506
34.496
34.494
34.499
34.508
34.519
34.532
34.544
34.553
34.559
34.561
34.557
34.547
34.531
34.51
34.483
34.451
34.415
34.378
34.34
34.301
34.262
34.224
34.186
34.15
34.116
34.083
34.052
34.025
34.0
33.979
33.961
33.947
33.935
33.926
33.919
33.913
33.908
33.902
33.895
33.887
33.876
33.862
33.844
33.823
33.797
33.767
33.734
33.697
33.659
33.622
33.588
33.557
33.535
33.522
33.522
33.535
33.562
33.605
33.663
33.737
33.827
33.931
34.048
34.178
34.317
34.465
34.617
34.772
34.929
35.087
35.242
35.393
35.539
35.678
35.81
35.934
36.048
36.153
36.248
36.335
36.413
36.483
36.544
36.598
36.646
36.686
36.72
36.747
36.768
36.785
36.797
36.804
36.808
36.807
36.803
36.796
36.788
36.776
36.762
36.745
36.725
36.702
36.676
36.645
36.611
36.574
36.533
36.488
36.441
36.39
36.338
36.286
36.234
36.182
36.131
36.08
36.031
35.984
35.94
35.899
35.863
35.832
35.806
35.786
35.771
35.76
35.754
35.751
35.752
35.755
35.76
35.766
35.771
35.775
35.775
35.772
35.764
35.754
35.742
35.728
35.712
35.695
35.677
35.659
35.64
35.622
35.606
35.592
35.582
35.575
35.57
35.566
35.563
35.559
35.553
35.544
35.534
35.521
35.506
35.488
35.464
35.436
35.403
35.366
35.327
35.286
35.245
35.202
35.158
35.113
35.067
35.022
34.978
34.939
34.905
34.875
34.847
34.822
34.798
34.776
34.754
34.732
34.709
34.686
34.662
34.637
34.611
34.583
34.556
34.531
34.507
34.484
34.463
34.443
34.425
34.409
34.392
34.377
34.364
34.351
34.34
34.328
34.315
34.299
34.282
34.261
34.237
34.211
34.183
34.155
34.128
34.101
34.073
34.047
34.023
34.003
33.988
33.978
33.974
33.976
33.986
34.002
34.024
34.053
34.09
34.135
34.188
34.249
34.316
34.392
34.474
34.564
34.66
34.762
34.87
34.984
35.104
35.227
35.354
35.484
35.616
35.75
35.883
36.015
36.144
36.269
36.388
36.499
36.603
36.697
36.781
36.857
36.922
36.977
37.022
37.056
37.08
37.094
37.096
37.089
37.071
37.046
37.015
36.98
36.94
36.9
36.859
36.819
36.779
36.74
36.703
36.666
36.629
36.592
36.553
36.513
36.472
36.429
36.386
36.342
36.298
36.257
36.22
36.186
36.155
36.126
36.101
36.077
36.057
36.039
36.023
36.01
36.0
35.991
35.984
35.978
35.972
35.966
35.959
35.951
35.941
35.929
35.916
35.901
35.885
35.869
35.853
35.837
35.822
35.809
35.796
35.785
35.775
35.767
35.76
35.752
35.744
35.735
35.726
35.717
35.707
35.697
35.686
35.675
35.664
35.652
35.637
35.621
35.602
35.581
35.557
35.531
35.502
35.471
35.439
35.405
35.369
35.333
35.297
35.263
35.229
35.195
35.16
35.125
35.088
35.052
35.015
34.979
34.944
34.909
34.867
34.817
34.76
34.698
34.637
34.577
34.524
34.478
34.441
34.415
34.398
34.389
34.388
34.393
34.404
34.418
34.434
34.45
34.463
34.473
34.477
34.476
34.47
34.459
34.444
34.426
34.404
34.379
34.35
34.317
34.283
34.246
34.209
34.172
34.135
34.1
34.069
34.042
34.02
34.005
33.999
34.001
34.013
34.033
34.062
34.1
34.146
34.201
34.264
34.337
34.419
34.512
34.613
34.721
34.836
34.956
35.082
35.213
35.348
35.486
35.627
35.769
35.912
36.052
36.188
36.321
36.448
36.569
36.682
36.785
36.877
36.955
37.018
37.066
37.101
37.123
37.135
37.14
37.138
37.131
37.12
37.105
37.087
37.068
37.047
37.026
