Trial 3:3back
35.677
35.652
35.628
35.605
35.582
35.561
35.54
35.521
35.502
35.484
35.466
35.448
35.431
35.414
35.396
35.378
35.361
35.343
35.326
35.31
35.294
35.28
35.267
35.254
35.242
35.229
35.216
35.202
35.187
35.17
35.153
35.135
35.117
35.098
35.08
35.063
35.047
35.032
35.019
35.007
34.998
34.993
34.993
34.998
35.01
35.03
35.06
35.1
35.152
35.215
35.289
35.375
35.47
35.575
35.688
35.806
35.928
36.053
36.177
36.299
36.416
36.528
36.631
36.724
36.807
36.879
36.938
36.986
37.023
37.048
37.063
37.069
37.068
37.06
37.046
37.029
37.008
36.985
36.961
36.938
36.914
36.892
36.871
36.85
36.83
36.81
36.79
36.771
36.752
36.734
36.716
36.698
36.681
36.664
36.647
36.631
36.614
36.597
36.579
36.558
36.536
36.512
36.486
36.459
36.432
36.403
36.373
36.344
36.315
36.287
36.26
36.236
36.213
36.194
36.178
36.165
36.154
36.147
36.143
36.14
36.14
36.142
36.145
36.15
36.155
36.16
36.165
36.169
36.172
36.175
36.176
36.176
36.174
36.171
36.166
36.159
36.149
36.138
36.124
36.109
36.092
36.074
36.055
36.035
36.014
35.993
35.971
35.949
35.927
35.904
35.881
35.859
35.836
35.814
35.792
35.77
35.75
35.731
35.713
35.695
35.678
35.66
35.642
35.624
35.606
35.588
35.571
35.553
35.536
35.519
35.502
35.484
35.466
35.448
35.429
35.41
35.391
35.373
35.356
35.339
35.324
35.31
35.298
35.286
35.275
35.264
35.253
35.242
35.229
35.215
35.199
35.182
35.163
35.142
35.121
35.098
35.075
35.052
35.029
35.008
34.988
34.97
34.955
34.943
34.936
34.933
34.936
34.946
34.963
34.988
35.022
35.065
35.117
35.18
35.253
35.336
35.428
35.527
35.632
35.742
35.853
35.965
36.074
36.179
36.278
36.369
36.451
36.523
36.584
36.633
36.67
36.695
36.71
36.716
36.713
36.703
36.687
36.668
36.647
36.625
36.603
36.581
36.562
36.544
36.528
36.514
36.502
36.491
36.482
36.474
36.465
36.457
36.448
36.439
36.429
36.417
36.405
36.392
36.378
36.362
36.346
36.329
36.311
36.291
36.271
36.25
36.228
36.206
36.183
36.159
36.134
36.109
36.083
36.058
36.034
36.011
35.991
35.973
35.959
35.949
35.941
35.937
35.936
35.936
35.937
35.94
35.944
35.949
35.953
35.956
35.959
35.96
35.96
35.957
35.953
35.946
35.936
35.925
35.911
35.897
35.881
35.865
35.848
35.832
35.816
35.801
35.787
35.773
35.761
35.75
35.74
35.73
35.721
35.712
35.703
35.693
35.682
35.67
35.657
35.642
35.625
35.608
35.589
35.57
35.551
35.532
35.513
35.494
35.475
35.458
35.441
35.426
35.411
35.397
35.382
35.368
35.354
35.339
35.323
35.308
35.291
35.273
35.255
35.237
35.218
35.199
35.179
35.16
35.141
35.122
35.103
35.084
35.064
35.045
35.026
35.006
34.988
34.971
34.955
34.942
34.931
34.923
34.918
34.917
34.921
34.931
34.947
34.972
35.005
35.048
35.1
35.161
35.231
35.308
35.392
35.481
35.574
35.669
35.763
35.857
35.947
36.034
36.115
36.189
36.256
36.314
36.363
36.403
36.434
36.456
36.47
36.476
36.476
36.469
36.458
36.443
36.424
36.404
36.382
36.36
36.338
36.317
36.296
36.277
36.259
36.243
36.228
36.215
36.205
36.196
36.189
36.183
36.177
36.172
36.166
36.16
36.152
36.141
36.127
36.11
36.09
36.066
36.039
36.011
35.98
35.948
35.915
35.883
35.852
35.823
35.796
35.773
35.753
35.736
35.722
35.712
35.705
35.701
35.698
35.698
35.699
35.702
35.704
35.707
35.709
35.711
35.711
35.71
35.706
35.699
35.691
35.681
35.669
35.656
35.643
35.629
35.614
35.599
35.583
35.567
35.55
35.532
35.514
35.494
35.474
35.453
35.433
35.412
35.391
35.371
35.35
35.33
35.31
35.291
35.271
35.253
35.234
35.216
35.197
35.178
35.16
35.141
35.123
35.106
35.09
35.074
35.058
35.043
35.028
35.013
34.997
34.981
34.963
34.945
34.925
34.904
34.881
34.858
34.834
34.811
34.788
34.767
34.746
34.726
34.707
34.69
34.673
34.656
34.64
34.625
34.611
34.598
34.586
34.575
34.565
34.555
34.547
34.54
34.535
34.533
34.536
34.544
34.56
34.584
34.618
34.661
34.714
34.777
34.848
34.926
35.012
35.103
35.197
35.295
35.393
35.49
35.585
35.676
35.761
35.84
35.912
35.976
36.031
36.078
36.117
36.148
36.172
36.188
36.197
36.2
36.197
36.188
36.175
36.158
36.138
36.117
36.095
36.074
36.054
36.037
36.022
36.011
36.002
35.997
35.994
35.993
35.993
35.994
35.996
35.996
35.996
35.994
35.99
35.984
35.976
35.966
35.954
35.939
35.921
35.901
35.878
35.854
35.828
35.801
35.775
35.748
35.723
35.7
35.678
35.659
35.643
35.63
35.618
35.609
35.602
35.596
35.591
35.587
35.584
35.581
35.577
35.574
35.571
35.569
35.565
35.561
35.557
35.551
35.544
35.535
35.524
35.512
35.498
35.484
35.468
35.452
35.434
35.417
35.398
35.38
35.362
35.345
35.329
35.314
35.3
35.287
35.275
35.264
35.253
35.242
35.23
35.216
35.201
35.184
35.165
35.144
35.122
35.099
35.076
35.053
35.031
35.01
34.991
34.973
34.957
34.941
34.927
34.913
34.9
34.886
34.871
34.857
34.841
34.826
34.811
34.796
34.781
34.767
34.753
34.74
34.726
34.712
34.698
34.683
34.667
34.651
34.634
34.617
34.6
34.583
34.567
34.55
34.534
34.518
34.503
34.49
34.479
34.472
34.47
34.474
34.485
34.505
34.534
34.573
34.622
34.681
34.749
34.826
34.911
35.001
35.097
35.197
35.299
35.402
35.505
35.605
35.701
35.792
35.877
35.954
36.023
36.082
36.131
36.17
36.198
36.216
36.226
36.227
36.222
36.212
36.197
36.179
36.158
36.137
36.115
36.093
36.073
36.053
36.036
36.02
36.006
35.996
35.987
35.981
35.977
35.974
35.971
35.969
35.965
35.96
35.952
35.943
35.932
35.92
35.906
35.891
35.875
35.858
35.84
35.822
35.804
35.784
35.764
35.744
35.723
35.701
35.678
35.656
35.634
35.611
35.59
35.571
35.553
35.538
35.526
35.517
35.51
35.506
35.503
35.502
35.502
35.503
35.503
35.504
35.503
35.502
35.499
35.495
35.488
35.479
35.467
35.453
35.437
35.419
35.401
35.383
35.364
35.347
35.33
35.314
35.299
35.283
35.266
35.249
35.23
35.211
35.19
35.169
35.147
35.124
35.101
35.078
35.056
35.033
35.012
34.991
34.971
34.952
34.934
34.917
34.899
34.882
34.864
34.847
34.829
34.811
34.793
34.775
34.757
34.738
34.72
34.702
34.683
34.665
34.647
34.63
34.613
34.598
34.583
34.568
34.553
34.539
34.525
34.512
34.499
34.487
34.476
34.466
34.456
34.446
34.436
34.425
34.415
34.403
34.391
34.378
34.363
34.348
34.332
34.315
34.299
34.282
34.266
34.251
34.236
34.222
34.209
34.197
34.185
34.175
34.165
34.155
34.145
34.136
34.127
34.118
34.11
34.102
34.094
34.088
34.081
34.075
34.068
34.059
34.049
34.037
34.022
34.005
33.987
33.967
33.946
33.926
33.907
33.89
33.876
33.864
33.854
33.848
33.846
33.848
33.854
33.865
33.882
33.906
33.937
33.977
34.027
34.088
34.159
34.24
34.332
34.434
34.542
34.656
34.774
34.892
35.008
35.12
35.225
35.321
35.407
35.482
35.546
35.596
35.635
35.663
35.679
35.686
35.684
35.675
35.661
35.643
35.622
35.6
35.578
35.557
35.537
35.518
35.5
35.484
35.468
35.454
35.442
35.43
35.42
35.412
35.404
35.398
35.393
35.39
35.387
35.385
35.383
35.38
35.377
35.372
35.366
35.358
35.349
35.337
35.323
35.307
35.29
35.271
35.251
35.231
35.211
35.191
35.171
35.152
35.135
35.12
35.106
35.094
35.084
35.076
35.07
35.066
35.064
35.063
35.063
35.063
35.063
35.063
35.063
35.062
35.06
35.057
35.054
35.05
35.046
35.042
35.038
35.032
35.025
35.016
35.004
34.99
34.974
34.956
34.936
34.914
34.892
34.869
34.847
34.824
34.802
34.781
34.761
34.742
34.723
34.705
34.686
34.668
34.649
34.63
34.611
34.592
34.573
34.554
34.537
34.52
34.505
34.492
34.48
34.469
34.459
34.45
34.441
34.432
34.422
34.41
34.398
34.383
34.368
34.352
34.336
34.319
34.302
34.286
34.271
34.257
34.243
34.231
34.219
34.208
34.197
34.185
34.173
34.16
34.147
34.132
34.118
34.103
34.089
34.075
34.062
34.051
34.041
34.032
34.024
34.017
34.009
34.002
33.995
33.988
33.979
33.971
33.962
33.953
33.944
33.937
33.931
33.925
33.921
33.917
33.913
33.908
33.901
33.892
33.882
33.87
33.856
33.842
33.827
33.811
33.795
33.781
33.767
33.755
33.745
33.737
33.731
33.727
33.726
33.728
33.735
33.747
33.765
33.792
33.826
33.869
33.921
33.983
34.054
34.134
34.221
34.316
34.415
34.518
34.623
34.727
34.827
34.923
35.011
35.091
35.161
35.221
35.269
35.307
35.334
35.352
35.361
35.363
35.357
35.346
35.329
35.309
35.287
35.263
35.238
35.213
35.188
35.164
35.14
35.118
35.097
35.078
35.062
35.048
35.037
35.027
35.02
35.014
35.008
35.002
34.996
34.989
34.981
34.972
34.963
34.952
34.94
34.928
34.915
34.9
34.885
34.869
34.853
34.836
34.819
34.803
34.786
34.769
34.753
34.738
34.725
34.714
34.705
34.699
34.695
34.694
34.695
34.699
34.706
34.714
34.723
34.732
34.742
34.751
34.758
34.763
34.767
34.768
34.767
34.765
34.76
34.755
34.748
34.739
34.73
34.719
34.706
34.693
34.679
34.664
34.648
34.634
34.62
34.606
34.594
34.583
34.572
34.562
34.552
34.542
34.533
34.523
34.514
34.505
34.496
34.486
34.475
34.464
34.452
34.439
34.426
34.412
34.398
34.384
34.37
34.356
34.343
34.329
34.317
34.304
34.292
34.281
34.27
34.259
34.248
34.237
34.225
34.213
34.201
34.19
34.179
34.169
34.16
34.153
34.147
34.142
34.137
34.133
34.129
34.123
34.117
34.111
34.103
34.095
34.087
34.079
34.072
34.064
34.057
34.051
34.045
34.041
34.038
34.037
34.038
34.04
34.044
34.047
34.051
34.053
34.053
34.05
34.045
34.037
34.027
34.014
34.001
33.986
33.97
33.955
33.941
33.928
33.918
33.909
33.903
33.898
33.896
33.897
33.901
33.909
33.924
33.945
33.974
34.012
34.059
34.116
34.182
34.256
34.338
34.426
34.521
34.619
34.72
34.821
34.921
35.017
35.109
35.193
35.27
35.338
35.397
35.448
35.489
35.521
35.544
35.559
35.564
35.561
35.551
35.533
35.511
35.484
35.454
35.422
35.391
35.36
35.332
35.306
35.283
35.264
35.248
35.236
35.226
35.218
35.211
35.205
35.198
35.19
35.182
35.171
35.159
35.146
35.132
35.117
35.102
35.087
35.073
35.059
35.045
35.032
35.018
35.003
34.988
34.973
34.956
34.94
34.924
34.908
34.894
34.881
34.87
34.862
34.857
34.855
34.856
34.86
34.867
34.877
34.889
34.903
34.916
34.929
34.941
34.951
34.959
34.964
34.968
34.968
34.967
34.964
34.959
34.952
34.944
34.935
34.926
34.915
34.905
34.894
34.882
34.871
34.86
34.849
34.837
34.826
34.815
34.804
34.793
34.783
34.772
34.762
34.752
34.742
34.732
34.721
34.71
34.698
34.685
34.672
34.658
34.644
34.629
34.615
34.601
34.588
34.575
34.564
34.553
34.544
34.535
34.528
34.521
34.516
34.512
34.508
34.504
34.499
34.494
34.488
34.482
34.476
34.47
34.465
34.46
34.455
34.451
34.447
34.443
34.438
34.432
34.425
34.417
34.407
34.396
34.383
34.368
34.351
34.333
34.314
34.295
34.277
34.261
34.247
34.236
34.228
34.223
34.222
34.224
34.229
34.238
34.249
34.264
34.283
34.307
34.335
34.37
34.411
34.459
34.515
34.579
34.649
34.724
34.804
34.887
34.972
35.058
35.144
35.23
35.313
35.392
35.466
35.533
35.593
35.645
35.688
35.722
35.746
35.762
35.769
35.768
35.761
35.747
35.729
35.707
35.681
35.654
35.626
35.598
35.57
35.543
35.518
35.494
35.473
35.454
35.437
35.424
35.412
35.403
35.395
35.389
35.383
35.378
35.374
35.37
35.365
35.36
35.355
35.348
35.34
35.33
35.319
35.307
35.293
35.278
35.262
35.246
35.23
35.214
35.199
35.186
35.173
35.163
35.155
35.148
35.144
35.143
35.145
35.15
35.157
35.167
35.18
35.194
35.21
35.226
35.242
35.257
35.269
35.279
35.285
35.287
35.284
35.278
35.266
35.25
35.229
35.203
35.174
35.141
35.106
35.069
35.03
34.993
34.955
34.92
34.886
34.855
34.826
34.801
34.779
34.76
34.744
34.73
34.719
34.708
34.699
34.692
34.686
34.681
34.676
34.671
34.666
34.66
34.654
34.646
34.636
34.624
34.609
34.591
34.571
34.549
34.524
34.498
34.47
34.442
34.415
34.389
34.364
34.341
34.32
34.301
34.284
34.269
34.256
34.243
34.23
34.218
34.205
34.192
34.178
34.164
34.15
34.136
34.122
34.11
34.099
34.091
34.086
34.082
34.081
34.082
34.086
34.094
34.105
34.12
34.141
34.167
34.199
34.238
34.284
34.338
34.399
34.468
34.545
34.629
34.72
34.817
34.918
35.021
35.125
35.228
35.328
35.422
35.509
35.588
35.658
35.717
35.766
35.804
35.833
35.852
35.863
35.867
35.866
35.86
35.851
35.84
35.827
35.814
35.8
35.786
35.772
35.758
35.744
35.73
35.716
35.703
35.689
35.675
35.662
35.647
35.633
35.619
35.604
35.59
35.577
35.564
35.552
35.539
35.527
35.515
35.503
35.49
35.477
35.463
35.447
35.429
35.409
35.387
35.364
35.339
35.314
35.288
35.263
35.239
35.218
35.2
35.185
35.173
35.165
35.161
35.161
35.163
35.166
35.171
35.175
35.178
35.179
35.178
35.175
35.17
35.164
35.156
35.146
35.136
35.125
35.114
35.102
35.09
35.078
35.065
35.051
35.037
35.022
35.006
34.989
34.971
34.951
34.93
34.909
34.887
34.864
34.841
34.817
34.794
34.772
34.75
34.729
34.709
34.69
34.672
34.655
34.638
34.622
34.606
34.591
34.576
34.563
34.551
34.541
34.532
34.525
34.52
34.516
34.513
34.511
34.508
34.505
34.501
34.496
34.491
34.483
34.475
34.465
34.454
34.441
34.428
34.415
34.402
34.389
34.378
34.368
34.361
34.356
34.355
34.358
34.365
34.378
34.396
34.422
34.454
34.494
34.542
34.597
34.66
34.73
34.807
34.89
34.978
35.072
35.169
35.27
35.372
35.475
35.578
35.678
35.775
35.865
35.947
36.021
36.084
36.136
36.178
36.208
36.226
36.235
36.233
36.223
36.206
36.183
36.157
36.127
36.098
36.069
36.042
36.017
35.994
35.974
35.956
35.94
35.926
35.914
35.905
35.897
35.89
35.883
35.876
35.868
35.859
35.849
35.838
35.824
35.808
35.791
35.772
35.752
35.73
35.708
35.684
35.66
35.636
35.611
35.585
35.56
35.534
35.508
35.483
35.458
35.435
35.412
35.391
35.371
35.354
35.34
35.329
35.32
35.314
35.31
35.309
35.311
35.314
35.318
35.323
35.329
35.333
35.336
35.338
35.337
35.334
35.327
35.318
35.306
35.293
35.279
35.264
35.248
35.233
35.218
35.203
35.188
35.175
35.162
35.149
35.136
35.123
35.109
35.095
35.081
35.067
35.053
35.04
35.026
35.012
34.998
34.984
34.969
34.955
34.94
34.926
34.913
34.9
34.888
34.877
34.867
34.858
34.849
34.841
34.833
34.824
34.814
34.804
34.793
34.781
34.768
34.756
34.743
34.73
34.716
34.703
34.69
34.678
34.666
34.655
34.645
34.635
34.626
34.616
34.607
34.598
34.589
34.582
34.577
34.576
34.578
34.587
34.602
34.624
34.656
34.697
34.749
34.811
34.883
34.966
35.058
35.157
35.262
35.37
35.48
35.588
35.694
35.793
35.886
35.97
36.044
36.106
36.156
36.195
36.222
36.239
36.247
36.247
36.24
36.228
36.212
36.192
36.17
36.147
36.124
36.101
36.079
36.057
36.037
36.019
36.002
35.986
35.971
35.956
35.941
35.926
35.912
35.898
35.884
35.871
35.858
35.845
35.832
35.82
35.808
35.795
35.782
35.767
35.75
35.732
35.712
35.69
35.667
35.643
35.618
35.593
35.568
35.543
35.519
35.496
35.476
35.458
35.443
35.433
35.426
35.423
35.423
35.426
35.432
35.439
35.447
35.455
35.463
35.47
35.474
35.475
35.474
35.469
35.463
35.454
35.442
35.43
35.417
35.403
35.39
35.377
35.364
35.352
35.341
35.329
35.318
35.306
35.294
35.282
35.269
35.255
35.24
35.223
35.205
35.186
35.167
35.147
35.127
35.107
35.088
35.07
35.053
35.036
35.02
35.005
34.991
34.976
34.961
34.946
34.931
34.916
34.9
34.883
34.865
34.847
34.828
34.811
34.794
34.778
34.764
34.75
34.736
34.723
34.71
34.697
34.684
34.67
34.656
34.642
34.628
34.613
34.598
34.583
34.568
34.553
34.539
34.525
34.512
34.501
34.49
34.481
34.474
34.47
34.469
34.472
34.48
34.494
34.515
34.545
34.584
34.632
34.691
34.758
34.836
34.921
35.013
35.111
35.213
35.316
35.419
35.52
35.616
35.708
35.793
35.87
35.938
35.996
36.044
36.079
36.104
36.118
36.122
36.117
36.104
36.085
36.061
36.032
36.001
35.969
35.935
35.901
35.869
35.838
35.81
35.784
35.762
35.743
35.727
35.713
35.703
35.696
35.69
35.685
35.681
35.677
35.672
35.665
35.657
35.647
35.635
35.62
35.604
35.585
35.564
35.542
35.518
35.493
35.467
35.44
35.413
35.387
35.361
35.337
35.315
35.295
35.278
35.263
35.251
35.242
35.237
35.234
35.234
35.235
35.239
35.244
35.25
35.256
35.262
35.267
35.271
35.274
35.275
35.275
35.272
35.268
35.262
35.255
35.246
35.236
35.223
35.21
35.194
35.177
35.159
35.14
35.119
35.096
35.073
35.049
35.024
35.0
34.976
34.954
34.935
34.917
34.901
34.888
34.875
34.864
34.854
34.844
34.835
34.825
34.813
34.801
34.787
34.772
34.755
34.738
34.721
34.703
34.684
34.666
34.648
34.629
34.61
34.592
34.574
34.556
34.54
34.525
34.511
34.499
34.488
34.479
34.47
34.463
34.456
34.449
34.442
34.435
34.429
34.422
34.415
34.408
34.4
34.391
34.381
34.37
34.359
34.346
34.333
34.321
34.308
34.296
34.285
34.275
34.266
34.26
34.256
34.255
34.258
34.265
34.278
34.297
34.323
34.358
34.402
34.456
34.519
34.592
34.672
34.761
34.857
34.958
35.062
35.168
35.273
35.376
35.475
35.569
35.655
35.733
35.801
35.859
35.905
35.939
35.962
35.974
35.974
35.965
35.947
35.923
35.894
35.86
35.825
35.789
35.754
35.72
35.689
35.661
35.637
35.618
35.603
35.593
35.586
35.581
35.576
35.572
35.567
35.561
35.553
35.543
35.532
35.519
35.505
35.489
35.473
35.455
35.435
35.414
35.39
35.365
35.339
35.313
35.287
35.263
35.24
35.219
35.202
35.187
35.174
35.165
35.159
35.155
35.154
35.154
35.155
35.156
35.159
35.161
35.163
35.165
35.167
35.168
35.168
35.168
35.168
35.168
35.167
35.166
35.164
35.161
35.156
35.151
35.144
35.136
35.127
35.116
35.103
35.089
35.073
35.055
35.037
35.018
34.999
34.98
34.961
34.944
34.927
34.912
34.899
34.887
34.877
34.867
34.858
34.849
34.839
34.828
34.817
34.804
34.789
34.772
34.754
34.735
34.715
34.695
34.676
34.657
34.641
34.626
34.613
34.602
34.594
34.587
34.581
34.575
34.57
34.565
34.56
34.554
34.548
34.541
34.533
34.525
34.516
34.507
34.497
34.488
34.478
34.469
34.461
34.453
34.446
34.439
34.433
34.427
34.421
34.414
34.407
34.398
34.387
34.376
34.363
34.35
34.338
34.326
34.316
34.308
34.302
34.3
34.301
34.308
34.32
34.338
34.364
34.397
34.437
34.486
34.542
34.606
34.676
34.752
34.833
34.919
35.007
35.098
35.189
35.28
35.367
35.45
35.527
35.597
35.658
35.71
35.751
35.782
35.802
35.813
35.813
35.806
35.791
35.771
35.745
35.716
35.685
35.652
35.618
35.586
35.556
35.528
35.505
35.485
35.469
35.456
35.446
35.438
35.432
35.427
35.423
35.419
35.415
35.411
35.405
35.397
35.388
35.377
35.364
35.35
35.335
35.319
35.302
35.284
35.266
35.248
35.229
35.21
35.192
35.173
35.155
35.137
35.121
35.105
35.092
35.08
35.071
35.064
35.06
35.059
35.06
35.064
35.07
35.078
35.086
35.095
35.104
35.112
35.119
35.124
35.127
35.128
35.127
35.123
35.117
35.109
35.098
35.086
35.072
35.056
35.039
35.022
35.005
34.989
34.974
34.96
34.947
34.935
34.925
34.916
34.907
34.898
34.888
34.878
34.867
34.856
34.843
34.83
34.815
34.798
34.781
34.762
34.743
34.725
34.707
34.691
34.676
34.662
34.65
34.639
34.629
34.62
34.611
34.602
34.593
34.584
34.575
34.566
34.557
34.548
34.539
34.53
34.521
34.513
34.505
34.497
34.49
34.482
34.474
34.466
34.458
34.449
34.44
34.431
34.421
34.411
34.401
34.39
34.38
