Trial 3:3back
37.025
36.994
36.961
36.925
36.887
36.846
36.802
36.754
36.702
36.646
36.587
36.526
36.463
36.4
36.337
36.277
36.219
36.166
36.118
36.076
36.042
36.016
36.0
35.992
35.99
35.995
36.005
36.02
36.037
36.056
36.075
36.095
36.114
36.132
36.15
36.168
36.184
36.199
36.211
36.221
36.229
36.234
36.237
36.239
36.238
36.236
36.232
36.224
36.214
36.201
36.19
36.182
36.179
36.177
36.174
36.166
36.153
36.132
36.103
36.066
36.02
35.966
35.905
35.837
35.764
35.688
35.609
35.532
35.456
35.383
35.313
35.247
35.186
35.128
35.076
35.028
34.985
34.946
34.911
34.879
34.85
34.822
34.797
34.773
34.752
34.731
34.71
34.689
34.667
34.644
34.621
34.596
34.572
34.549
34.526
34.504
34.483
34.463
34.444
34.426
34.409
34.394
34.38
34.366
34.354
34.342
34.331
34.321
34.312
34.302
34.293
34.282
34.272
34.26
34.248
34.236
34.224
34.211
34.198
34.185
34.172
34.157
34.143
34.128
34.114
34.101
34.089
34.078
34.067
34.057
34.048
34.039
34.03
34.02
34.011
34.001
33.991
33.979
33.966
33.951
33.935
33.919
33.903
33.885
33.865
33.843
33.819
33.793
33.765
33.736
33.708
33.68
33.653
33.628
33.604
33.582
33.563
33.548
33.539
33.538
33.546
33.563
33.591
33.632
33.686
33.755
33.838
33.937
34.051
34.18
34.323
34.479
34.649
34.83
35.022
35.222
35.429
35.639
35.85
36.058
36.262
36.46
36.651
36.831
37.001
37.157
37.299
37.425
37.535
37.628
37.707
37.77
37.82
37.856
37.879
37.891
37.893
37.885
37.871
37.85
37.824
37.793
37.757
37.717
37.672
37.623
37.571
37.516
37.461
37.407
37.355
37.306
37.26
37.22
37.183
37.151
37.121
37.092
37.062
37.03
36.996
36.962
36.928
36.894
36.86
36.825
36.79
36.754
36.718
36.681
36.644
36.608
36.571
36.534
36.498
36.462
36.429
36.397
36.367
36.341
36.318
36.298
36.281
36.269
36.26
36.255
36.251
36.25
36.25
36.251
36.253
36.255
36.257
36.26
36.262
36.265
36.268
36.269
36.27
36.267
36.263
36.256
36.248
36.239
36.229
36.219
36.207
36.193
36.177
36.159
36.139
36.116
36.092
36.064
36.034
36.001
35.966
35.93
35.892
35.853
35.812
35.77
35.726
35.68
35.633
35.584
35.531
35.477
35.42
35.361
35.301
35.24
35.179
35.118
35.058
35.001
34.946
34.895
34.846
34.801
34.759
34.719
34.682
34.648
34.617
34.588
34.56
34.534
34.508
34.484
34.461
34.44
34.42
34.403
34.386
34.369
34.35
34.33
34.309
34.288
34.266
34.245
34.224
34.204
34.184
34.166
34.149
34.133
34.12
34.108
34.098
34.09
34.082
34.074
34.068
34.061
34.053
34.043
34.029
34.012
33.992
33.971
33.952
33.934
33.92
33.91
33.909
33.915
33.927
33.943
33.96
33.974
33.983
33.986
33.981
33.967
33.943
33.911
33.872
33.827
33.778
33.727
33.677
33.626
33.577
33.53
33.484
33.442
33.403
33.369
33.339
33.315
33.296
33.281
33.272
33.267
33.27
33.28
33.301
33.332
33.376
33.432
33.504
33.591
33.696
33.819
33.959
34.116
34.289
34.475
34.672
34.877
35.088
35.303
35.519
35.733
35.942
36.143
36.334
36.514
36.679
36.83
36.965
37.084
37.187
37.273
37.342
37.397
37.437
37.465
37.482
37.49
37.489
37.482
37.468
37.449
37.425
37.398
37.367
37.333
37.297
37.259
37.22
37.179
37.138
37.097
37.057
37.015
36.974
36.934
36.894
36.855
36.816
36.779
36.741
36.704
36.666
36.626
36.585
36.541
36.494
36.445
36.394
36.341
36.286
36.231
36.176
36.121
36.068
36.017
35.969
35.924
35.881
35.841
35.804
35.771
35.742
35.718
35.699
35.686
35.679
35.676
35.678
35.683
35.693
35.707
35.725
35.748
35.774
35.803
35.832
35.861
35.889
35.915
35.938
35.956
35.969
35.976
35.977
35.972
35.963
35.95
35.934
35.915
35.894
35.869
35.841
35.809
35.773
35.734
35.692
35.648
35.601
35.553
35.503
35.452
35.4
35.347
35.293
35.238
35.183
35.127
35.071
35.016
34.962
34.909
34.859
34.81
34.763
34.719
34.675
34.633
34.593
34.555
34.519
34.486
34.456
34.428
34.402
34.377
34.353
34.329
34.307
34.285
34.264
34.245
34.227
34.21
34.193
34.177
34.162
34.148
34.133
34.119
34.105
34.089
34.074
34.057
34.04
34.024
34.009
33.995
33.983
33.971
33.961
33.95
33.94
33.929
33.918
33.906
33.894
33.881
33.867
33.854
33.84
33.826
33.813
33.8
33.786
33.773
33.76
33.746
33.732
33.718
33.703
33.688
33.671
33.653
33.632
33.609
33.583
33.555
33.525
33.494
33.463
33.432
33.401
33.369
33.337
33.306
33.276
33.247
33.22
33.194
33.169
33.143
33.118
33.095
33.073
33.056
33.045
33.042
33.049
33.066
33.095
33.138
33.195
33.269
33.36
33.468
33.595
33.739
33.898
34.073
34.261
34.46
34.669
34.883
35.099
35.314
35.525
35.73
35.926
36.112
36.285
36.445
36.59
36.719
36.832
36.929
37.009
37.074
37.124
37.16
37.184
37.196
37.197
37.188
37.171
37.146
37.116
37.082
37.045
37.005
36.963
36.919
36.874
36.828
36.781
36.734
36.687
36.638
36.589
36.538
36.486
36.434
36.382
36.331
36.28
36.229
36.176
36.124
36.07
36.017
35.964
35.911
35.858
35.806
35.756
35.71
35.667
35.628
35.592
35.559
35.528
35.499
35.472
35.448
35.427
35.407
35.391
35.378
35.369
35.363
35.36
35.361
35.364
35.37
35.38
35.395
35.413
35.434
35.457
35.48
35.501
35.521
35.541
35.561
35.582
35.602
35.621
35.638
35.653
35.664
35.672
35.677
35.678
35.675
35.668
35.657
35.642
35.623
35.601
35.575
35.546
35.515
35.48
35.444
35.406
35.366
35.324
35.281
35.238
35.196
35.155
35.114
35.073
35.031
34.988
34.944
34.897
34.849
34.8
34.75
34.7
34.649
34.6
34.552
34.507
34.464
34.424
34.387
34.352
34.318
34.286
34.256
34.229
34.205
34.184
34.166
34.149
34.134
34.12
34.107
34.096
34.086
34.077
34.069
34.06
34.052
34.044
34.036
34.031
34.027
34.024
34.023
34.023
34.025
34.027
34.031
34.034
34.036
34.037
34.037
34.037
34.035
34.032
34.029
34.025
34.021
34.017
34.012
34.007
34.0
33.992
33.983
33.971
33.957
33.939
33.92
33.898
33.875
33.85
33.825
33.799
33.775
33.753
33.734
33.718
33.703
33.69
33.678
33.668
33.661
33.658
33.66
33.667
33.68
33.699
33.726
33.763
33.809
33.868
33.94
34.025
34.125
34.239
34.368
34.512
34.669
34.837
35.016
35.201
35.391
35.581
35.769
35.953
36.13
36.298
36.456
36.602
36.735
36.855
36.962
37.054
37.133
37.199
37.251
37.291
37.319
37.337
37.343
37.34
37.327
37.307
37.282
37.251
37.216
37.177
37.136
37.092
37.048
37.003
36.957
36.911
36.864
36.816
36.765
36.713
36.659
36.604
36.547
36.49
36.433
36.374
36.315
36.256
36.197
36.138
36.08
36.022
35.965
35.91
35.855
35.802
35.749
35.697
35.647
35.599
35.555
35.514
35.477
35.445
35.419
35.4
35.387
35.382
35.382
35.389
35.402
35.419
35.439
35.463
35.489
35.517
35.545
35.573
35.6
35.625
35.649
35.67
35.69
35.707
35.722
35.735
35.746
35.756
35.763
35.769
35.772
35.772
35.768
35.761
35.749
35.733
35.712
35.687
35.657
35.623
35.585
35.543
35.498
35.451
35.401
35.351
35.3
35.251
35.203
35.157
35.112
35.068
35.024
34.979
34.936
34.896
34.858
34.822
34.787
34.754
34.721
34.687
34.654
34.621
34.588
34.554
34.521
34.487
34.453
34.42
34.387
34.355
34.323
34.293
34.264
34.236
34.211
34.188
34.168
34.152
34.14
34.132
34.125
34.12
34.115
34.11
34.105
34.1
34.094
34.088
34.081
34.073
34.064
34.054
34.045
34.035
34.025
34.017
34.009
34.003
33.998
33.995
33.994
33.995
33.996
33.996
33.996
33.994
33.99
33.983
33.973
33.961
33.946
33.929
33.91
33.889
33.866
33.842
33.817
33.791
33.765
33.739
33.715
33.691
33.67
33.65
33.632
33.616
33.604
33.594
33.588
33.586
33.59
33.601
33.621
33.653
33.697
33.757
33.833
33.926
34.038
34.167
34.312
34.473
34.648
34.837
35.037
35.245
35.459
35.675
35.891
36.103
36.309
36.507
36.696
36.872
37.035
37.183
37.316
37.434
37.537
37.626
37.701
37.764
37.813
37.85
37.875
37.889
37.892
37.886
37.871
37.85
37.821
37.787
37.748
37.706
37.661
37.616
37.571
37.525
37.48
37.434
37.388
37.343
37.298
37.254
37.211
37.17
37.13
37.089
37.049
37.007
36.966
36.924
36.882
36.84
36.796
36.751
36.704
36.656
36.608
36.559
36.511
36.465
36.42
36.377
36.338
36.302
36.27
36.242
36.217
36.196
36.179
36.164
36.151
36.142
36.137
36.136
36.14
36.148
36.16
36.176
36.194
36.215
36.237
36.26
36.284
36.307
36.327
36.344
36.357
36.363
36.365
36.362
36.355
36.346
36.334
36.32
36.303
36.282
36.258
36.23
36.199
36.165
36.128
36.088
36.046
36.003
35.96
35.917
35.873
35.83
35.787
35.745
35.702
35.659
35.616
35.573
35.53
35.487
35.444
35.4
35.357
35.316
35.277
35.241
35.206
35.173
35.14
35.107
35.074
35.039
35.002
34.964
34.925
34.887
34.849
34.812
34.774
34.737
34.699
34.661
34.626
34.593
34.563
34.537
34.514
34.494
34.475
34.459
34.445
34.435
34.428
34.424
34.422
34.42
34.417
34.414
34.409
34.402
34.393
34.382
34.368
34.353
34.336
34.318
34.299
34.28
34.262
34.242
34.223
34.204
34.185
34.166
34.146
34.126
34.105
34.084
34.063
34.041
34.018
33.996
33.973
33.95
33.927
33.904
33.882
33.86
33.837
33.815
33.793
33.771
33.75
33.731
33.715
33.703
33.694
33.691
33.693
33.703
33.723
33.755
33.8
33.861
33.937
34.029
34.138
34.268
34.418
34.587
34.774
34.975
35.185
35.4
35.617
35.833
36.044
36.247
36.441
36.622
36.789
36.942
37.081
37.204
37.313
37.406
37.485
37.55
37.603
37.646
37.678
37.701
37.717
37.726
37.73
37.727
37.719
37.705
37.684
37.658
37.628
37.595
37.561
37.525
37.488
37.45
37.411
37.37
37.329
37.288
37.248
37.21
37.171
37.133
37.094
37.054
37.014
36.973
36.931
36.889
36.845
36.8
36.753
36.703
36.652
36.599
36.546
36.493
36.441
36.39
36.342
36.297
36.256
36.221
36.19
36.165
36.143
36.126
36.111
36.1
36.092
36.086
36.084
36.085
36.091
36.099
36.111
36.125
36.142
36.161
36.181
36.202
36.222
36.242
36.258
36.271
36.28
36.286
36.287
36.286
36.281
36.273
36.263
36.25
36.236
36.219
36.2
36.178
36.154
36.128
36.099
36.069
36.036
36.001
35.964
35.926
35.885
35.841
35.795
35.746
35.695
35.643
35.59
35.537
35.484
35.433
35.382
35.332
35.284
35.238
35.194
35.154
35.115
35.079
35.046
35.014
34.984
34.955
34.929
34.907
34.887
34.869
34.851
34.833
34.816
34.797
34.779
34.761
34.743
34.725
34.707
34.689
34.67
34.651
34.632
34.613
34.595
34.577
34.56
34.544
34.529
34.516
34.504
34.493
34.483
34.473
34.464
34.454
34.443
34.432
34.422
34.414
34.409
34.408
34.41
34.413
34.416
34.418
34.417
34.413
34.406
34.394
34.378
34.358
34.333
34.305
34.274
34.241
34.207
34.174
34.141
34.108
34.077
34.048
34.02
33.995
33.972
33.951
33.933
33.916
33.901
33.889
33.879
33.873
33.872
33.877
33.89
33.91
33.941
33.983
34.036
34.102
34.183
34.278
34.389
34.515
34.655
34.807
34.971
35.144
35.325
35.513
35.705
35.898
36.089
36.276
36.457
36.629
36.792
36.943
37.081
37.206
37.315
37.408
37.486
37.548
37.596
37.632
37.655
37.667
37.671
37.666
37.655
37.639
37.618
37.594
37.567
37.536
37.502
37.465
37.425
37.382
37.337
37.291
37.244
37.196
37.146
37.095
37.042
36.988
36.933
36.878
36.822
36.765
36.709
36.652
36.596
36.539
36.484
36.431
36.378
36.327
36.278
36.23
36.183
36.137
36.094
36.055
36.019
35.988
35.962
35.942
35.928
35.92
35.918
35.923
35.933
35.946
35.964
35.983
36.005
36.028
36.052
36.077
36.103
36.129
36.154
36.176
36.196
36.212
36.224
36.232
36.236
36.237
36.234
36.228
36.217
36.202
36.183
36.162
36.138
36.113
36.088
36.061
36.032
36.003
35.972
35.941
35.91
35.878
35.847
35.814
35.78
35.745
35.707
35.668
35.626
35.581
35.535
35.487
35.437
35.386
35.334
35.281
35.227
35.174
35.122
35.072
35.025
34.982
34.943
34.908
34.875
34.846
34.819
34.793
34.769
34.746
34.724
34.701
34.678
34.655
34.632
34.608
34.586
34.563
34.542
34.52
34.498
34.477
34.458
34.44
34.424
34.41
34.396
34.383
34.372
34.364
34.357
34.353
34.351
34.35
34.349
34.348
34.345
34.343
34.34
34.338
34.335
34.331
34.325
34.319
34.312
34.304
34.295
34.286
34.276
34.264
34.251
34.236
34.221
34.205
34.19
34.176
34.162
34.148
34.134
34.12
34.107
34.093
34.078
34.063
34.047
34.031
34.013
33.994
33.975
33.954
33.934
33.915
33.896
33.88
33.866
33.858
33.858
33.869
33.891
33.926
33.974
34.037
34.115
34.207
34.314
34.436
34.572
34.722
34.885
35.059
35.242
35.431
35.623
35.817
36.011
36.204
36.394
36.58
36.758
36.926
37.082
37.226
37.356
37.473
37.577
37.668
37.745
37.811
37.864
37.904
37.934
37.953
37.961
37.959
37.949
37.931
37.907
37.877
37.843
37.805
37.764
37.722
37.68
37.638
37.597
37.555
37.513
37.472
37.431
37.391
37.353
37.316
37.279
37.244
37.211
37.179
37.15
37.123
37.097
37.071
37.045
37.018
36.99
36.961
36.931
36.899
36.865
36.829
36.79
36.75
36.708
36.665
36.621
36.577
36.535
36.495
36.458
36.426
36.399
36.377
36.359
36.344
36.331
36.321
36.313
36.306
36.3
36.297
36.296
36.297
36.301
36.306
36.31
36.312
36.312
36.312
36.311
36.31
36.309
36.307
36.305
36.301
36.296
36.288
36.278
36.265
36.25
36.231
36.21
36.185
36.157
36.126
36.091
36.053
36.011
35.965
35.916
35.864
35.81
35.754
35.697
35.639
35.579
35.52
35.46
35.402
35.343
35.286
35.23
35.176
35.124
35.073
35.023
34.975
34.928
34.881
34.837
34.794
34.754
34.717
34.684
34.655
34.628
34.602
34.578
34.555
34.532
34.507
34.482
34.456
34.428
34.401
34.375
34.352
34.331
34.313
34.298
34.286
34.275
34.266
34.259
34.252
34.247
34.243
34.24
34.236
34.232
34.226
34.221
34.217
34.213
34.21
34.209
34.207
34.204
34.198
34.19
34.179
34.166
34.15
34.132
34.112
34.089
34.066
34.041
34.016
33.99
33.964
33.938
33.912
33.886
33.858
33.83
33.803
33.776
33.75
33.726
33.702
33.679
33.655
33.631
33.607
33.583
33.562
33.545
33.53
33.52
33.514
33.513
33.52
33.535
33.561
33.598
33.649
33.714
33.795
33.893
34.009
34.143
34.294
34.461
34.641
34.832
35.031
35.236
35.445
35.654
35.861
36.063
36.257
36.442
36.617
36.785
36.946
37.099
37.241
37.368
37.479
37.572
37.644
37.697
37.73
37.745
37.742
37.726
37.697
37.659
37.615
37.565
37.512
37.457
37.402
37.349
37.297
37.248
37.202
37.159
37.119
37.08
37.043
37.008
36.973
36.938
36.903
36.867
36.83
36.791
36.75
36.707
36.662
36.615
36.566
36.512
36.455
36.395
36.334
36.271
36.209
36.15
36.094
36.043
35.998
35.959
35.926
35.9
35.881
35.867
35.859
35.854
35.854
35.856
35.863
35.872
35.885
35.901
35.918
35.935
35.952
35.968
35.983
35.996
36.007
36.016
36.024
36.03
36.035
36.038
36.041
36.043
36.044
36.042
36.037
36.028
36.015
35.999
35.979
35.956
35.929
35.901
35.87
35.837
35.801
35.763
35.722
35.679
35.634
35.589
35.543
35.496
35.449
35.401
35.354
35.308
35.263
35.22
35.179
35.139
35.101
35.063
35.027
34.991
34.957
34.925
34.894
34.864
34.834
34.804
34.774
34.743
34.713
34.683
34.655
34.628
34.602
34.577
34.553
34.53
34.508
34.488
34.469
34.451
34.435
34.42
34.406
34.393
34.383
34.373
34.365
34.357
34.349
34.34
34.331
34.32
34.31
34.3
34.29
34.281
34.272
34.265
34.259
34.253
34.247
34.24
34.232
34.222
34.21
34.197
34.182
34.166
34.149
34.131
34.112
34.092
34.072
34.052
34.03
34.007
33.983
33.957
33.931
33.905
33.879
33.854
33.829
33.806
33.786
33.771
33.76
33.755
33.755
33.757
33.76
33.764
33.768
33.773
33.78
33.792
33.81
33.837
33.874
33.923
33.984
34.06
34.151
34.257
34.378
34.512
34.658
34.813
34.977
35.148
35.322
35.498
35.674
35.847
36.017
36.181
36.337
36.482
36.616
36.738
36.845
36.939
37.019
37.086
37.14
37.183
37.214
37.235
37.247
37.252
37.25
37.243
37.231
37.215
37.195
37.173
37.149
37.125
37.101
37.077
37.052
37.025
36.995
36.962
36.926
36.886
36.841
36.792
36.74
36.682
36.621
36.557
36.49
36.42
36.349
36.276
36.203
36.131
36.061
35.994
35.931
35.872
35.817
35.768
35.725
35.688
35.656
35.631
35.611
35.596
35.587
35.582
35.582
35.585
35.594
35.606
35.623
35.643
35.665
35.69
35.714
35.739
35.762
35.783
35.803
35.823
35.842
35.859
35.875
35.888
35.897
35.902
35.904
35.902
35.899
35.892
35.883
35.871
35.855
35.835
35.812
35.786
35.756
35.723
35.687
35.649
35.609
35.567
35.523
35.479
35.435
35.39
35.345
35.3
35.256
35.212
35.169
35.127
35.085
35.044
35.003
34.963
34.924
34.885
34.847
34.808
34.769
34.73
34.691
34.653
34.614
34.576
34.539
34.503
34.468
34.435
34.402
34.369
34.336
34.303
34.272
34.242
34.216
34.194
34.175
34.162
34.151
34.142
34.134
34.127
34.121
34.115
34.11
34.107
34.103
34.099
34.096
34.092
34.088
34.084
34.08
34.075
34.071
34.066
34.059
34.052
34.045
34.039
34.033
34.028
34.023
34.018
34.013
34.006
33.998
33.99
33.982
33.973
33.964
33.953
33.941
33.927
33.913
33.898
33.882
33.866
33.848
33.828
33.807
33.784
33.76
33.735
33.71
33.686
33.663
33.642
33.623
33.607
33.598
33.594
33.598
33.61
33.632
33.663
33.707
33.763
33.834
33.921
34.024
34.143
34.279
34.429
34.592
34.767
34.951
35.142
35.339
35.539
35.74
35.94
36.136
36.326
36.507
36.679
36.841
36.994
37.136
37.267
37.387
37.496
37.593
37.678
37.752
37.818
37.874
37.922
37.962
37.994
38.019
38.036
38.047
38.053
38.053
38.05
38.043
38.032
38.018
38.0
37.979
37.954
37.927
37.897
37.867
37.835
37.803
37.769
37.733
37.696
37.658
37.618
37.576
37.531
37.483
37.432
37.378
37.321
37.263
37.203
37.14
37.076
37.01
36.943
36.878
36.815
36.755
36.701
36.654
36.612
36.577
36.548
36.525
36.508
36.498
36.493
36.493
36.498
36.506
36.518
36.536
36.565
36.604
36.652
36.705
36.759
36.809
36.853
36.887
36.911
36.924
36.926
36.917
36.898
36.871
36.836
36.796
36.752
36.706
36.658
36.611
36.564
36.518
36.473
36.43
36.39
36.352
36.315
36.28
36.245
36.21
36.174
36.136
36.097
36.058
36.018
35.979
35.939
35.899
35.859
35.819
35.779
35.739
35.699
35.659
35.619
35.579
35.539
35.499
35.459
35.42
35.382
35.345
35.308
35.269
35.23
35.189
35.148
35.107
35.066
35.027
34.989
34.952
34.915
34.877
34.84
34.802
34.765
34.729
34.695
34.662
34.631
34.602
34.576
34.551
34.528
34.507
34.488
34.47
34.454
34.438
34.424
34.41
34.398
34.386
34.374
34.361
34.348
34.334
34.319
34.303
34.286
34.268
34.249
34.23
34.21
34.189
34.167
34.144
34.121
34.097
34.074
34.05
34.025
33.999
33.971
33.941
33.909
33.876
33.844
33.811
33.78
33.748
33.717
33.686
33.656
33.627
33.598
33.572
33.549
33.528
33.511
33.499
33.491
33.49
33.497
33.514
33.542
33.584
33.64
33.712
33.802
33.909
34.033
34.175
34.333
34.504
34.686
34.877
35.073
35.272
35.472
35.671
35.867
36.057
36.24
36.414
36.577
36.728
36.867
36.993
37.105
37.204
37.287
37.356
37.411
37.454
37.485
37.508
37.522
37.529
37.531
37.528
37.522
37.511
37.497
37.48
37.461
37.441
37.419
37.394
37.368
37.34
37.31
37.28
37.25
37.222
37.194
37.168
37.141
37.114
37.086
37.055
37.022
36.986
36.946
36.904
36.859
36.812
36.764
36.714
36.664
36.615
36.566
36.518
36.472
36.429
36.388
36.35
36.316
36.285
36.259
36.237
36.22
36.206
36.197
36.191
36.189
36.191
36.195
36.201
36.208
36.216
36.223
36.232
36.241
36.254
36.268
36.282
36.294
36.302
36.305
36.302
36.297
