Trial 3:3back
34.705
34.69
34.676
34.663
34.65
34.637
34.625
34.613
34.601
34.589
34.578
34.566
34.553
34.538
34.521
34.501
34.479
34.455
34.43
34.406
34.385
34.367
34.352
34.34
34.331
34.325
34.32
34.317
34.314
34.31
34.305
34.299
34.292
34.284
34.275
34.265
34.254
34.243
34.232
34.222
34.212
34.201
34.189
34.177
34.162
34.145
34.127
34.107
34.086
34.064
34.042
34.018
33.996
33.975
33.957
33.942
33.932
33.928
33.928
33.933
33.943
33.96
33.983
34.014
34.055
34.107
34.173
34.253
34.35
34.463
34.593
34.74
34.904
35.081
35.269
35.465
35.665
35.865
36.062
36.25
36.428
36.591
36.738
36.868
36.982
37.079
37.16
37.227
37.28
37.321
37.35
37.369
37.378
37.378
37.369
37.355
37.335
37.31
37.283
37.254
37.225
37.196
37.167
37.138
37.111
37.086
37.063
37.043
37.027
37.012
37.001
36.991
36.982
36.973
36.962
36.95
36.935
36.916
36.894
36.868
36.84
36.808
36.775
36.739
36.703
36.665
36.627
36.589
36.551
36.514
36.478
36.443
36.409
36.375
36.341
36.307
36.276
36.247
36.22
36.196
36.175
36.159
36.146
36.139
36.136
36.137
36.143
36.153
36.166
36.181
36.198
36.214
36.23
36.244
36.258
36.27
36.281
36.289
36.295
36.298
36.299
36.297
36.293
36.288
36.281
36.272
36.261
36.248
36.231
36.212
36.189
36.163
36.134
36.103
36.068
36.029
35.989
35.946
35.902
35.856
35.81
35.764
35.719
35.676
35.634
35.596
35.561
35.53
35.503
35.479
35.458
35.439
35.42
35.401
35.382
35.361
35.337
35.311
35.284
35.255
35.225
35.194
35.163
35.133
35.103
35.075
35.047
35.021
34.995
34.97
34.944
34.919
34.894
34.869
34.843
34.818
34.793
34.77
34.747
34.727
34.709
34.693
34.679
34.668
34.659
34.652
34.644
34.637
34.629
34.62
34.611
34.6
34.588
34.574
34.559
34.543
34.525
34.507
34.487
34.468
34.451
34.433
34.417
34.401
34.385
34.368
34.349
34.327
34.303
34.275
34.247
34.219
34.192
34.167
34.144
34.124
34.105
34.09
34.076
34.065
34.055
34.047
34.04
34.035
34.031
34.029
34.032
34.041
34.058
34.087
34.128
34.184
34.255
34.342
34.446
34.567
34.703
34.855
35.02
35.197
35.384
35.579
35.778
35.979
36.178
36.372
36.557
36.731
36.891
37.037
37.166
37.281
37.38
37.465
37.535
37.593
37.638
37.674
37.701
37.721
37.735
37.745
37.748
37.747
37.741
37.731
37.717
37.702
37.685
37.668
37.651
37.633
37.616
37.599
37.584
37.57
37.56
37.551
37.546
37.542
37.54
37.539
37.538
37.536
37.532
37.525
37.516
37.504
37.487
37.466
37.441
37.411
37.377
37.339
37.297
37.251
37.203
37.154
37.105
37.057
37.01
36.965
36.923
36.883
36.848
36.817
36.789
36.764
36.743
36.724
36.707
36.693
36.68
36.669
36.662
36.659
36.659
36.661
36.665
36.669
36.673
36.676
36.677
36.675
36.671
36.663
36.653
36.641
36.627
36.61
36.592
36.572
36.55
36.527
36.503
36.476
36.448
36.418
36.386
36.353
36.319
36.286
36.252
36.219
36.187
36.155
36.125
36.094
36.062
36.029
35.995
35.961
35.924
35.886
35.847
35.807
35.767
35.728
35.69
35.653
35.617
35.584
35.552
35.521
35.49
35.458
35.425
35.391
35.355
35.316
35.276
35.235
35.194
35.155
35.118
35.085
35.056
35.031
35.01
34.992
34.977
34.961
34.944
34.925
34.905
34.881
34.855
34.827
34.798
34.769
34.741
34.714
34.69
34.668
34.648
34.63
34.613
34.597
34.58
34.563
34.545
34.526
34.508
34.491
34.478
34.467
34.46
34.455
34.454
34.453
34.452
34.449
34.444
34.436
34.425
34.41
34.391
34.369
34.345
34.318
34.291
34.264
34.238
34.212
34.189
34.167
34.146
34.127
34.109
34.091
34.074
34.057
34.041
34.025
34.01
33.995
33.981
33.967
33.954
33.941
33.927
33.913
33.897
33.879
33.86
33.839
33.817
33.797
33.779
33.766
33.759
33.762
33.777
33.807
33.854
33.92
34.006
34.114
34.244
34.395
34.567
34.756
34.96
35.176
35.402
35.634
35.867
36.098
36.325
36.544
36.753
36.95
37.133
37.301
37.454
37.59
37.709
37.81
37.893
37.958
38.007
38.042
38.065
38.078
38.084
38.083
38.078
38.069
38.059
38.048
38.037
38.027
38.018
38.01
38.004
37.998
37.993
37.989
37.985
37.982
37.979
37.978
37.977
37.978
37.978
37.979
37.979
37.977
37.972
37.964
37.953
37.94
37.924
37.905
37.883
37.858
37.831
37.8
37.765
37.727
37.686
37.642
37.596
37.549
37.502
37.457
37.412
37.369
37.328
37.289
37.252
37.216
37.182
37.149
37.12
37.093
37.07
37.05
37.033
37.02
37.01
37.004
37.0
36.997
36.993
36.988
36.981
36.971
36.959
36.945
36.929
36.911
36.894
36.876
36.858
36.839
36.82
36.799
36.776
36.75
36.721
36.689
36.653
36.616
36.577
36.537
36.495
36.453
36.41
36.368
36.326
36.285
36.244
36.204
36.163
36.123
36.083
36.043
36.003
35.963
35.924
35.887
35.852
35.818
35.786
35.756
35.727
35.698
35.67
35.64
35.61
35.578
35.544
35.509
35.472
35.434
35.396
35.357
35.318
35.279
35.241
35.202
35.164
35.126
35.088
35.051
35.014
34.979
34.945
34.914
34.885
34.859
34.837
34.817
34.8
34.785
34.772
34.759
34.747
34.733
34.718
34.703
34.686
34.667
34.646
34.624
34.602
34.578
34.554
34.529
34.503
34.476
34.449
34.422
34.395
34.37
34.345
34.322
34.301
34.282
34.264
34.248
34.233
34.218
34.203
34.187
34.169
34.148
34.126
34.102
34.077
34.051
34.026
34.003
33.983
33.965
33.951
33.94
33.93
33.923
33.916
33.909
33.901
33.891
33.878
33.862
33.844
33.824
33.803
33.78
33.757
33.734
33.712
33.692
33.674
33.657
33.643
33.63
33.618
33.606
33.589
33.568
33.543
33.515
33.486
33.457
33.431
33.408
33.389
33.377
33.373
33.379
33.395
33.425
33.469
33.53
33.608
33.705
33.819
33.95
34.1
34.269
34.455
34.658
34.877
35.108
35.349
35.596
35.847
36.096
36.339
36.573
36.796
37.004
37.196
37.371
37.526
37.661
37.776
37.872
37.949
38.009
38.052
38.081
38.099
38.109
38.111
38.107
38.101
38.092
38.083
38.074
38.066
38.057
38.049
38.041
38.033
38.025
38.019
38.013
38.009
38.005
38.003
38.002
38.001
38.001
37.999
37.996
37.989
37.978
37.963
37.945
37.924
37.901
37.876
37.849
37.82
37.788
37.754
37.717
37.677
37.634
37.588
37.541
37.492
37.442
37.392
37.344
37.297
37.254
37.214
37.179
37.148
37.123
37.102
37.085
37.073
37.065
37.06
37.059
37.06
37.064
37.07
37.079
37.088
37.097
37.104
37.111
37.115
37.116
37.114
37.107
37.096
37.08
37.061
37.039
37.014
36.988
36.961
36.935
36.908
36.882
36.854
36.826
36.795
36.763
36.728
36.69
36.649
36.605
36.559
36.511
36.461
36.408
36.354
36.297
36.24
36.182
36.123
36.063
36.003
35.941
35.879
35.816
35.753
35.69
35.625
35.561
35.498
35.436
35.378
35.322
35.271
35.224
35.182
35.146
35.113
35.083
35.055
35.028
35.001
34.974
34.945
34.913
34.878
34.84
34.799
34.757
34.714
34.671
34.63
34.591
34.555
34.523
34.493
34.466
34.441
34.419
34.4
34.383
34.367
34.353
34.339
34.325
34.312
34.299
34.285
34.27
34.256
34.242
34.228
34.214
34.199
34.183
34.166
34.149
34.131
34.112
34.093
34.074
34.054
34.035
34.015
33.996
33.978
33.958
33.939
33.918
33.897
33.875
33.852
33.828
33.804
33.781
33.758
33.737
33.718
33.702
33.687
33.675
33.665
33.656
33.648
33.641
33.635
33.627
33.619
33.61
33.599
33.587
33.575
33.563
33.549
33.536
33.524
33.513
33.503
33.495
33.487
33.48
33.474
33.468
33.461
33.453
33.443
33.432
33.419
33.404
33.388
33.369
33.349
33.328
33.307
33.289
33.272
33.26
33.251
33.248
33.249
33.253
33.26
33.269
33.28
33.295
33.317
33.348
33.391
33.45
33.528
33.628
33.75
33.896
34.067
34.26
34.475
34.709
34.958
35.218
35.485
35.754
36.02
36.279
36.528
36.762
36.981
37.181
37.362
37.524
37.666
37.79
37.895
37.984
38.055
38.112
38.155
38.185
38.205
38.218
38.225
38.228
38.228
38.227
38.226
38.226
38.228
38.231
38.235
38.239
38.243
38.245
38.245
38.242
38.235
38.225
38.211
38.194
38.175
38.155
38.134
38.115
38.096
38.079
38.061
38.044
38.024
38.002
37.977
37.947
37.912
37.873
37.828
37.779
37.727
37.673
37.615
37.557
37.499
37.442
37.388
37.339
37.293
37.252
37.216
37.184
37.156
37.133
37.113
37.096
37.082
37.069
37.059
37.049
37.039
37.028
37.016
37.003
36.988
36.972
36.955
36.937
36.92
36.905
36.891
36.877
36.864
36.851
36.836
36.819
36.8
36.778
36.751
36.716
36.67
36.614
36.551
36.483
36.414
36.345
36.28
36.221
36.167
36.121
36.08
36.045
36.015
35.99
35.968
35.948
35.93
35.911
35.892
35.87
35.846
35.818
35.787
35.753
35.716
35.678
35.638
35.597
35.556
35.515
35.475
35.435
35.397
35.359
35.321
35.284
35.248
35.211
35.176
35.14
35.106
35.072
35.04
35.009
34.979
34.949
34.921
34.892
34.864
34.836
34.807
34.777
34.747
34.716
34.685
34.655
34.626
34.599
34.575
34.554
34.535
34.519
34.505
34.492
34.48
34.467
34.453
34.435
34.414
34.389
34.362
34.334
34.306
34.279
34.254
34.231
34.212
34.196
34.182
34.17
34.158
34.147
34.136
34.122
34.106
34.087
34.065
34.041
34.016
33.992
33.967
33.945
33.925
33.908
33.894
33.881
33.87
33.858
33.846
33.833
33.818
33.8
33.78
33.758
33.733
33.708
33.682
33.656
33.631
33.608
33.586
33.567
33.549
33.532
33.517
33.501
33.486
33.471
33.455
33.439
33.423
33.407
33.391
33.376
33.36
33.343
33.326
33.309
33.291
33.27
33.247
33.221
33.195
33.168
33.142
33.118
33.096
33.077
33.062
33.052
33.046
33.045
33.049
33.057
33.071
33.09
33.118
33.154
33.202
33.265
33.344
33.442
33.56
33.698
33.856
34.035
34.233
34.449
34.682
34.927
35.183
35.444
35.707
35.968
36.221
36.463
36.692
36.904
37.099
37.275
37.431
37.567
37.684
37.783
37.864
37.929
37.98
38.018
38.044
38.06
38.067
38.067
38.061
38.05
38.036
38.019
38.001
37.982
37.963
37.945
37.928
37.912
37.899
37.887
37.877
37.869
37.861
37.855
37.849
37.842
37.834
37.825
37.816
37.805
37.792
37.777
37.76
37.74
37.715
37.687
37.653
37.614
37.57
37.522
37.471
37.417
37.361
37.304
37.249
37.194
37.142
37.091
37.042
36.994
36.947
36.902
36.858
36.817
36.778
36.742
36.709
36.682
36.659
36.642
36.63
36.623
36.618
36.615
36.612
36.609
36.605
36.598
36.59
36.579
36.567
36.553
36.537
36.521
36.503
36.484
36.463
36.439
36.41
36.376
36.339
36.3
36.259
36.217
36.176
36.136
36.099
36.067
36.039
36.014
35.991
35.969
35.946
35.921
35.893
35.861
35.824
35.783
35.738
35.69
35.64
35.588
35.536
35.485
35.437
35.393
35.353
35.316
35.281
35.248
35.216
35.184
35.151
35.116
35.079
35.042
35.003
34.964
34.924
34.886
34.848
34.813
34.781
34.75
34.721
34.692
34.664
34.635
34.607
34.578
34.549
34.52
34.492
34.464
34.436
34.409
34.381
34.353
34.326
34.3
34.277
34.256
34.238
34.224
34.214
34.206
34.202
34.199
34.197
34.195
34.192
34.188
34.18
34.169
34.156
34.14
34.121
34.1
34.078
34.056
34.032
34.01
33.987
33.965
33.944
33.922
33.902
33.881
33.861
33.841
33.82
33.8
33.781
33.762
33.745
33.73
33.716
33.703
33.692
33.681
33.669
33.657
33.643
33.628
33.611
33.593
33.574
33.554
33.535
33.517
33.499
33.483
33.469
33.456
33.446
33.439
33.434
33.431
33.429
33.427
33.423
33.418
33.41
33.399
33.386
33.37
33.353
33.334
33.316
33.297
33.279
33.263
33.248
33.234
33.221
33.209
33.198
33.189
33.18
33.172
33.164
33.156
33.147
33.137
33.128
33.119
33.111
33.106
33.105
33.112
33.127
33.154
33.195
33.253
33.329
33.425
33.543
33.681
33.84
34.018
34.214
34.426
34.652
34.888
35.133
35.383
35.636
35.887
36.133
36.371
36.596
36.807
37.0
37.173
37.326
37.457
37.567
37.657
37.728
37.784
37.824
37.852
37.87
37.878
37.879
37.874
37.862
37.844
37.824
37.801
37.777
37.754
37.733
37.714
37.697
37.684
37.672
37.662
37.65
37.637
37.622
37.605
37.586
37.564
37.54
37.513
37.485
37.455
37.424
37.393
37.36
37.325
37.289
37.249
37.207
37.162
37.113
37.061
37.007
36.952
36.896
36.841
36.787
36.736
36.687
36.64
36.598
36.56
36.527
36.498
36.474
36.453
36.436
36.42
36.406
36.393
36.381
36.369
36.355
36.34
36.325
36.309
36.294
36.279
36.265
36.252
36.241
36.231
36.224
36.219
36.215
36.212
36.209
36.205
36.199
36.19
36.177
36.16
36.138
36.111
36.079
36.044
36.005
35.963
35.92
35.876
35.832
35.789
35.746
35.705
35.663
35.623
35.583
35.543
35.503
35.463
35.423
35.383
35.345
35.306
35.269
35.233
35.199
35.167
35.138
35.109
35.082
35.057
35.033
35.008
34.983
34.957
34.929
34.898
34.866
34.83
34.793
34.755
34.719
34.685
34.656
34.631
34.61
34.593
34.58
34.569
34.559
34.549
34.539
34.526
34.512
34.495
34.476
34.455
34.433
34.409
34.385
34.361
34.337
34.313
34.291
34.269
34.249
34.23
34.212
34.195
34.179
34.165
34.152
34.139
34.127
34.115
34.103
34.092
34.082
34.073
34.065
34.058
34.052
34.047
34.042
34.036
34.029
34.02
34.008
33.993
33.975
33.954
33.931
33.907
33.884
33.862
33.842
33.823
33.807
33.793
33.781
33.772
33.764
33.756
33.746
33.732
33.715
33.694
33.67
33.643
33.617
33.59
33.566
33.547
33.534
33.53
33.537
33.559
33.597
33.651
33.724
33.816
33.927
34.056
34.203
34.366
34.543
34.734
34.937
35.151
35.373
35.6
35.83
36.06
36.286
36.506
36.717
36.917
37.102
37.273
37.427
37.565
37.685
37.789
37.877
37.95
38.01
38.058
38.096
38.124
38.143
38.154
38.155
38.149
38.136
38.116
38.09
38.061
38.03
37.997
37.964
37.931
37.899
37.87
37.843
37.819
37.798
37.78
37.764
37.748
37.732
37.715
37.695
37.672
37.646
37.616
37.583
37.545
37.505
37.461
37.415
37.367
37.318
37.268
37.217
37.165
37.112
37.059
37.006
36.953
36.902
36.854
36.811
36.772
36.736
36.705
36.677
36.652
36.631
36.614
36.599
36.587
36.577
36.569
36.562
36.557
36.554
36.55
36.546
36.541
36.536
36.529
36.52
36.509
36.496
36.481
36.464
36.446
36.425
36.401
36.375
36.347
36.318
36.289
36.261
36.234
36.207
36.181
36.156
36.129
36.102
36.073
36.041
36.006
35.969
35.929
35.886
35.842
35.797
35.751
35.705
35.66
35.615
35.571
35.528
35.487
35.447
35.408
35.369
35.33
35.291
35.252
35.213
35.174
35.135
35.095
35.055
35.016
34.976
34.937
34.899
34.861
34.824
34.788
34.753
34.718
34.684
34.651
34.618
34.585
34.551
34.517
34.482
34.447
34.413
34.379
34.347
34.316
34.288
34.262
34.239
34.217
34.197
34.179
34.164
34.15
34.136
34.123
34.11
34.098
34.085
34.072
34.058
34.043
34.027
34.011
33.995
33.979
33.964
33.95
33.937
33.926
33.915
33.904
33.891
33.876
33.86
33.841
33.821
33.8
33.777
33.754
33.731
33.708
33.686
33.666
33.647
33.63
33.614
33.6
33.587
33.575
33.563
33.55
33.535
33.519
33.501
33.48
33.458
33.433
33.408
33.382
33.356
33.331
33.308
33.287
33.268
33.251
33.238
33.226
33.214
33.203
33.193
33.183
33.176
33.172
33.176
33.191
33.217
33.259
33.319
33.398
33.499
33.623
33.769
33.938
34.128
34.338
34.565
34.806
35.059
35.319
35.583
35.846
36.105
36.357
36.599
36.827
37.041
37.238
37.417
37.578
37.72
37.843
37.948
38.034
38.104
38.16
38.201
38.23
38.248
38.257
38.259
38.256
38.249
38.24
38.23
38.221
38.213
38.206
38.2
38.197
38.197
38.2
38.207
38.215
38.223
38.23
38.234
38.235
38.234
38.229
38.221
38.211
38.197
38.181
38.162
38.14
38.117
38.09
38.06
38.028
37.992
37.952
37.909
37.862
37.813
37.761
37.707
37.652
37.596
37.539
37.483
37.428
37.375
37.324
37.275
37.229
37.186
37.146
37.11
37.078
37.05
37.026
37.006
36.99
36.977
36.966
36.956
36.947
36.938
36.927
36.915
36.902
36.886
36.87
36.852
36.835
36.818
36.8
36.78
36.758
36.733
36.704
36.671
36.635
36.594
36.551
36.506
36.458
36.41
36.361
36.311
36.262
36.211
36.161
36.111
36.06
36.011
35.962
35.915
35.869
35.823
35.778
35.735
35.696
35.66
35.627
35.596
35.566
35.535
35.503
35.468
35.43
35.389
35.344
35.296
35.247
35.196
35.144
35.093
35.044
34.997
34.954
34.913
34.875
34.84
34.805
34.771
34.736
34.701
34.665
34.627
34.586
34.546
34.507
34.469
34.433
34.4
34.37
34.343
34.319
34.298
34.279
34.261
34.245
34.229
34.213
34.196
34.177
34.157
34.136
34.115
34.092
34.068
34.044
34.021
33.998
33.976
33.956
33.938
33.922
33.907
33.893
33.88
33.867
33.853
33.838
33.821
33.802
33.78
33.755
33.727
33.699
33.669
33.64
33.613
33.589
33.568
33.55
33.536
33.523
33.512
33.501
33.49
33.478
33.464
33.449
33.43
33.41
33.387
33.362
33.338
33.315
33.293
33.272
33.255
33.239
33.225
33.212
33.199
33.186
33.17
33.153
33.134
33.114
33.094
33.074
33.054
33.034
33.015
32.996
32.981
32.969
32.962
32.962
32.97
32.989
33.021
33.068
33.133
33.218
33.324
33.451
33.601
33.773
33.966
34.178
34.407
34.65
34.905
35.169
35.437
35.705
35.97
36.228
36.476
36.71
36.928
37.129
37.311
37.474
37.617
37.741
37.847
37.935
38.007
38.064
38.108
38.14
38.161
38.174
38.18
38.181
38.178
38.173
38.167
38.161
38.155
38.15
38.146
38.143
38.141
38.137
38.134
38.129
38.123
38.117
38.111
38.104
38.097
38.091
38.086
38.082
38.076
38.068
38.057
38.041
38.019
37.992
37.959
37.92
37.877
37.83
37.779
37.726
37.67
37.612
37.552
37.492
37.431
37.37
37.31
37.251
37.195
37.142
37.093
37.049
37.01
36.976
36.947
36.922
36.9
36.882
36.866
36.851
36.836
36.82
36.805
36.791
36.777
36.765
36.755
36.747
36.74
36.733
36.725
36.714
36.7
36.683
36.661
36.635
36.605
36.573
36.537
36.501
36.464
36.426
36.389
36.352
36.316
36.28
36.245
36.209
36.173
36.136
36.098
36.058
36.017
35.973
35.929
35.883
35.836
35.787
35.738
35.687
35.636
35.584
35.533
35.482
35.432
35.384
35.339
35.295
35.254
35.215
35.177
35.141
35.106
35.071
35.037
35.003
34.968
34.933
34.898
34.864
34.829
34.795
34.76
34.726
34.693
34.66
34.629
34.6
34.572
34.545
34.519
34.493
34.467
34.439
34.411
34.382
34.353
34.322
34.292
34.262
34.235
34.21
34.187
34.168
34.15
34.134
34.119
34.105
34.091
34.075
34.059
34.041
34.022
34.002
33.981
33.958
33.935
33.91
33.886
33.861
33.837
33.814
33.794
33.777
33.763
33.751
33.74
33.729
33.718
33.706
33.693
33.678
33.662
33.644
33.625
33.606
33.586
33.566
33.546
33.525
33.503
33.481
33.458
33.435
33.412
33.389
33.368
33.349
33.332
33.317
33.304
33.293
33.283
33.275
33.267
33.258
33.249
33.238
33.225
33.211
33.196
33.179
33.162
33.147
33.132
33.119
33.107
33.096
33.087
33.08
33.074
33.068
33.062
33.054
33.044
33.033
33.019
33.003
32.984
32.963
32.938
32.912
32.884
32.856
32.829
32.806
32.788
32.776
32.772
32.777
32.793
32.822
32.867
32.927
33.004
33.1
33.216
33.352
33.508
33.685
33.881
34.094
34.323
34.567
34.822
35.085
35.353
35.621
35.886
36.145
36.394
36.631
36.852
37.055
37.238
37.401
37.543
37.665
37.766
37.85
37.916
37.968
38.006
38.032
38.049
38.057
38.059
38.057
38.051
38.043
38.034
38.024
38.015
38.006
37.998
37.99
37.982
37.972
37.961
37.949
37.936
37.922
37.908
37.894
37.882
37.871
37.861
37.852
37.845
37.838
37.831
37.823
37.814
37.802
37.787
37.767
37.742
37.711
37.675
37.632
37.586
37.536
37.484
37.43
37.378
37.327
37.28
37.237
37.2
37.167
37.14
37.118
37.101
37.087
37.077
37.069
37.062
37.056
37.05
37.044
37.038
37.031
37.023
37.014
37.005
36.996
36.987
36.976
36.965
36.951
36.936
36.92
36.901
36.88
36.856
36.83
36.802
36.771
36.737
36.7
36.659
36.615
