Trial 3:3back
35.726
35.704
35.684
35.667
35.652
35.639
35.626
35.614
35.601
35.589
35.576
35.563
35.551
35.538
35.525
35.512
35.498
35.483
35.466
35.447
35.428
35.41
35.393
35.377
35.363
35.352
35.342
35.335
35.331
35.331
35.334
35.342
35.353
35.367
35.383
35.398
35.413
35.426
35.438
35.447
35.453
35.457
35.457
35.454
35.446
35.434
35.418
35.398
35.375
35.35
35.322
35.292
35.26
35.228
35.195
35.163
35.132
35.103
35.076
35.052
35.03
35.011
34.994
34.979
34.965
34.952
34.94
34.931
34.924
34.919
34.914
34.907
34.897
34.883
34.864
34.842
34.815
34.785
34.753
34.719
34.684
34.649
34.616
34.585
34.559
34.537
34.52
34.508
34.5
34.496
34.496
34.498
34.501
34.506
34.512
34.517
34.521
34.521
34.519
34.512
34.501
34.485
34.466
34.442
34.415
34.387
34.359
34.332
34.307
34.284
34.263
34.245
34.231
34.219
34.209
34.203
34.199
34.197
34.195
34.193
34.19
34.185
34.18
34.174
34.167
34.162
34.16
34.161
34.166
34.179
34.199
34.23
34.272
34.326
34.393
34.473
34.565
34.668
34.781
34.902
35.03
35.164
35.3
35.436
35.57
35.698
35.818
35.928
36.026
36.111
36.182
36.239
36.281
36.31
36.326
36.33
36.323
36.307
36.284
36.255
36.221
36.184
36.145
36.104
36.063
36.023
35.986
35.952
35.923
35.899
35.88
35.865
35.855
35.847
35.842
35.838
35.834
35.83
35.824
35.816
35.803
35.787
35.765
35.74
35.712
35.682
35.65
35.618
35.587
35.556
35.527
35.5
35.477
35.458
35.443
35.434
35.428
35.427
35.429
35.434
35.441
35.45
35.46
35.471
35.482
35.491
35.497
35.5
35.5
35.497
35.49
35.479
35.466
35.451
35.432
35.413
35.393
35.372
35.352
35.333
35.315
35.299
35.284
35.27
35.258
35.246
35.236
35.226
35.215
35.204
35.191
35.176
35.16
35.14
35.118
35.092
35.062
35.029
34.992
34.954
34.916
34.878
34.841
34.806
34.774
34.744
34.718
34.696
34.677
34.662
34.649
34.638
34.63
34.623
34.618
34.613
34.608
34.603
34.597
34.591
34.582
34.571
34.556
34.538
34.516
34.491
34.464
34.435
34.405
34.376
34.348
34.322
34.299
34.279
34.263
34.251
34.243
34.24
34.241
34.246
34.252
34.259
34.264
34.268
34.269
34.267
34.263
34.256
34.246
34.234
34.218
34.199
34.178
34.155
34.131
34.107
34.083
34.061
34.041
34.023
34.007
33.994
33.985
33.979
33.978
33.983
33.995
34.014
34.042
34.078
34.123
34.176
34.24
34.313
34.396
34.488
34.588
34.694
34.806
34.922
35.039
35.156
35.273
35.386
35.495
35.599
35.696
35.787
35.869
35.944
36.011
36.069
36.117
36.156
36.187
36.207
36.219
36.221
36.215
36.202
36.182
36.156
36.126
36.091
36.054
36.014
35.974
35.933
35.892
35.852
35.814
35.778
35.746
35.718
35.692
35.67
35.652
35.637
35.626
35.618
35.612
35.607
35.603
35.6
35.595
35.59
35.583
35.575
35.566
35.554
35.539
35.522
35.502
35.481
35.459
35.438
35.42
35.402
35.387
35.375
35.365
35.358
35.353
35.351
35.351
35.353
35.357
35.363
35.371
35.381
35.392
35.402
35.412
35.419
35.424
35.426
35.425
35.42
35.411
35.397
35.379
35.357
35.33
35.301
35.269
35.236
35.204
35.174
35.144
35.116
35.089
35.065
35.044
35.024
35.006
34.99
34.974
34.959
34.944
34.928
34.911
34.893
34.875
34.856
34.836
34.814
34.79
34.765
34.74
34.713
34.686
34.659
34.633
34.609
34.586
34.565
34.545
34.527
34.511
34.497
34.486
34.477
34.472
34.469
34.469
34.469
34.469
34.468
34.465
34.46
34.452
34.441
34.427
34.409
34.389
34.367
34.343
34.318
34.293
34.269
34.247
34.228
34.211
34.198
34.188
34.181
34.176
34.175
34.175
34.176
34.177
34.179
34.18
34.179
34.176
34.171
34.162
34.149
34.132
34.113
34.092
34.071
34.049
34.027
34.006
33.985
33.967
33.951
33.939
33.932
33.932
33.939
33.956
33.983
34.021
34.071
34.134
34.209
34.296
34.395
34.503
34.619
34.741
34.866
34.992
35.115
35.234
35.347
35.453
35.55
35.638
35.717
35.785
35.844
35.893
35.934
35.964
35.979
35.978
35.962
35.933
35.896
35.855
35.813
35.774
35.74
35.713
35.693
35.68
35.672
35.667
35.666
35.665
35.664
35.661
35.656
35.647
35.634
35.618
35.598
35.576
35.551
35.525
35.498
35.471
35.445
35.419
35.395
35.374
35.357
35.344
35.334
35.329
35.326
35.326
35.328
35.33
35.332
35.333
35.334
35.333
35.332
35.33
35.327
35.323
35.317
35.311
35.304
35.297
35.292
35.29
35.289
35.291
35.295
35.3
35.305
35.311
35.318
35.324
35.329
35.333
35.335
35.334
35.33
35.323
35.314
35.301
35.285
35.264
35.24
35.211
35.178
35.141
35.102
35.063
35.025
34.99
34.958
34.929
34.903
34.88
34.86
34.843
34.829
34.818
34.809
34.8
34.791
34.781
34.769
34.755
34.74
34.723
34.704
34.684
34.661
34.638
34.613
34.589
34.565
34.541
34.518
34.497
34.477
34.459
34.444
34.432
34.422
34.413
34.407
34.402
34.398
34.395
34.392
34.39
34.388
34.385
34.382
34.376
34.367
34.356
34.341
34.324
34.305
34.285
34.263
34.241
34.218
34.197
34.176
34.157
34.14
34.126
34.115
34.106
34.1
34.096
34.094
34.094
34.095
34.097
34.102
34.111
34.123
34.137
34.151
34.162
34.168
34.168
34.161
34.148
34.128
34.103
34.072
34.039
34.004
33.968
33.934
33.901
33.873
33.85
33.835
33.83
33.834
33.851
33.881
33.924
33.98
34.048
34.13
34.222
34.324
34.434
34.548
34.665
34.782
34.897
35.009
35.116
35.219
35.316
35.407
35.491
35.568
35.637
35.698
35.752
35.797
35.835
35.866
35.888
35.903
35.912
35.915
35.912
35.904
35.891
35.872
35.848
35.818
35.782
35.74
35.695
35.647
35.597
35.548
35.5
35.455
35.412
35.373
35.339
35.309
35.283
35.26
35.241
35.224
35.209
35.195
35.185
35.177
35.172
35.169
35.167
35.166
35.164
35.161
35.158
35.154
35.149
35.143
35.137
35.131
35.125
35.119
35.114
35.109
35.107
35.106
35.108
35.113
35.121
35.131
35.143
35.156
35.17
35.183
35.196
35.208
35.219
35.228
35.234
35.236
35.234
35.228
35.217
35.203
35.184
35.163
35.138
35.112
35.082
35.05
35.016
34.982
34.949
34.917
34.889
34.862
34.839
34.82
34.803
34.788
34.777
34.767
34.759
34.751
34.743
34.733
34.72
34.706
34.688
34.668
34.645
34.62
34.593
34.565
34.537
34.509
34.482
34.455
34.431
34.408
34.388
34.371
34.357
34.347
34.339
34.335
34.333
34.333
34.334
34.336
34.338
34.339
34.338
34.336
34.333
34.327
34.319
34.305
34.288
34.267
34.244
34.222
34.201
34.183
34.167
34.153
34.142
34.133
34.128
34.126
34.128
34.133
34.14
34.149
34.157
34.166
34.173
34.179
34.182
34.182
34.179
34.173
34.163
34.15
34.134
34.117
34.099
34.083
34.069
34.06
34.057
34.061
34.074
34.098
34.133
34.18
34.241
34.314
34.4
34.495
34.598
34.708
34.822
34.939
35.056
35.17
35.28
35.383
35.478
35.563
35.636
35.696
35.744
35.779
35.802
35.813
35.815
35.809
35.795
35.776
35.752
35.726
35.697
35.667
35.637
35.608
35.579
35.55
35.522
35.495
35.468
35.443
35.419
35.394
35.369
35.343
35.314
35.283
35.249
35.212
35.174
35.135
35.096
35.06
35.025
34.992
34.963
34.938
34.916
34.9
34.888
34.882
34.881
34.885
34.893
34.905
34.921
34.94
34.963
34.987
35.011
35.036
35.06
35.082
35.102
35.12
35.133
35.142
35.147
35.148
35.144
35.138
35.13
35.12
35.11
35.1
35.091
35.083
35.077
35.073
35.07
35.068
35.066
35.064
35.061
35.057
35.051
35.043
35.032
35.02
35.003
34.983
34.959
34.932
34.901
34.868
34.832
34.796
34.76
34.724
34.691
34.661
34.635
34.614
34.598
34.588
34.581
34.577
34.577
34.578
34.579
34.581
34.581
34.58
34.577
34.573
34.566
34.558
34.546
34.532
34.515
34.496
34.475
34.455
34.434
34.416
34.4
34.386
34.374
34.365
34.358
34.353
34.351
34.351
34.353
34.358
34.365
34.373
34.383
34.392
34.401
34.408
34.414
34.416
34.415
34.409
34.399
34.384
34.364
34.34
34.314
34.287
34.26
34.234
34.21
34.188
34.17
34.156
34.147
34.144
34.148
34.16
34.18
34.208
34.244
34.288
34.339
34.398
34.465
34.54
34.622
34.71
34.803
34.899
34.997
35.096
35.194
35.29
35.383
35.472
35.555
35.631
35.699
35.759
35.811
35.856
35.892
35.921
35.942
35.957
35.965
35.967
35.963
35.952
35.936
35.914
35.887
35.854
35.818
35.777
35.733
35.686
35.638
35.588
35.539
35.489
35.441
35.395
35.351
35.31
35.271
35.236
35.206
35.18
35.158
35.141
35.128
35.119
35.112
35.109
35.107
35.108
35.111
35.115
35.119
35.123
35.127
35.13
35.132
35.133
35.134
35.135
35.136
35.137
35.139
35.142
35.147
35.155
35.164
35.176
35.19
35.206
35.224
35.243
35.263
35.287
35.318
35.356
35.398
35.441
35.48
35.514
35.539
35.552
35.552
35.539
35.513
35.475
35.427
35.37
35.307
35.24
35.171
35.103
35.038
34.978
34.925
34.879
34.841
34.812
34.792
34.779
34.772
34.771
34.774
34.778
34.783
34.787
34.788
34.787
34.781
34.77
34.755
34.736
34.714
34.689
34.662
34.634
34.605
34.576
34.549
34.523
34.501
34.482
34.466
34.455
34.446
34.442
34.44
34.44
34.443
34.448
34.455
34.461
34.467
34.471
34.473
34.472
34.467
34.458
34.445
34.429
34.409
34.387
34.363
34.338
34.313
34.289
34.268
34.25
34.237
34.231
34.233
34.244
34.264
34.294
34.334
34.385
34.447
34.52
34.602
34.692
34.79
34.892
34.998
35.105
35.211
35.314
35.414
35.507
35.594
35.671
35.737
35.793
35.839
35.876
35.905
35.927
35.941
35.949
35.952
35.951
35.946
35.937
35.926
35.912
35.896
35.878
35.858
35.835
35.811
35.785
35.757
35.728
35.697
35.664
35.63
35.595
35.559
35.522
35.484
35.445
35.407
35.37
35.334
35.299
35.267
35.238
35.212
35.191
35.174
35.162
35.154
35.151
35.151
35.155
35.161
35.169
35.179
35.189
35.2
35.211
35.222
35.231
35.239
35.246
35.253
35.259
35.264
35.269
35.275
35.28
35.287
35.293
35.301
35.309
35.318
35.326
35.334
35.339
35.341
35.336
35.323
35.301
35.272
35.236
35.196
35.155
35.113
35.071
35.032
34.996
34.965
34.941
34.921
34.907
34.898
34.892
34.89
34.89
34.892
34.895
34.899
34.902
34.905
34.906
34.905
34.902
34.897
34.891
34.881
34.868
34.853
34.835
34.814
34.79
34.764
34.735
34.705
34.674
34.642
34.61
34.578
34.548
34.519
34.494
34.472
34.453
34.438
34.428
34.422
34.421
34.422
34.425
34.43
34.434
34.438
34.441
34.442
34.441
34.439
34.436
34.432
34.426
34.419
34.413
34.41
34.411
34.419
34.436
34.463
34.501
34.552
34.614
34.689
34.775
34.872
34.978
35.089
35.205
35.322
35.439
35.554
35.666
35.773
35.872
35.96
36.038
36.103
36.155
36.193
36.217
36.227
36.225
36.212
36.189
36.157
36.118
36.073
36.025
35.976
35.926
35.879
35.835
35.795
35.759
35.727
35.699
35.674
35.653
35.635
35.618
35.602
35.585
35.568
35.549
35.528
35.503
35.475
35.445
35.413
35.382
35.351
35.321
35.292
35.264
35.239
35.219
35.203
35.193
35.19
35.194
35.204
35.219
35.239
35.263
35.29
35.321
35.353
35.385
35.417
35.447
35.474
35.497
35.517
35.533
35.544
35.551
35.553
35.548
35.538
35.523
35.502
35.478
35.452
35.425
35.398
35.372
35.349
35.329
35.312
35.299
35.29
35.285
35.282
35.28
35.279
35.276
35.272
35.265
35.255
35.242
35.226
35.206
35.183
35.158
35.129
35.098
35.064
35.03
34.996
34.963
34.931
34.901
34.873
34.847
34.824
34.804
34.789
34.777
34.771
34.767
34.766
34.765
34.764
34.762
34.757
34.751
34.743
34.732
34.719
34.704
34.686
34.666
34.644
34.621
34.598
34.576
34.555
34.537
34.52
34.508
34.5
34.497
34.501
34.512
34.531
34.559
34.595
34.64
34.692
34.754
34.824
34.902
34.988
35.082
35.182
35.286
35.393
35.501
35.608
35.713
35.813
35.908
35.996
36.076
36.148
36.211
36.264
36.307
36.342
36.369
36.387
36.398
36.402
36.399
36.39
36.374
36.353
36.327
36.299
36.267
36.233
36.197
36.158
36.117
36.074
36.03
35.985
35.94
35.895
35.851
35.807
35.764
35.723
35.685
35.649
35.618
35.59
35.566
35.545
35.527
35.511
35.499
35.489
35.483
35.48
35.479
35.48
35.483
35.486
35.491
35.496
35.501
35.506
35.511
35.516
35.522
35.527
35.532
35.537
35.542
35.547
35.552
35.557
35.562
35.568
35.573
35.578
35.583
35.588
35.594
35.599
35.605
35.61
35.614
35.615
35.615
35.612
35.607
35.598
35.586
35.57
35.549
35.523
35.493
35.459
35.421
35.383
35.343
35.305
35.269
35.236
35.205
35.177
35.152
35.132
35.115
35.101
35.092
35.086
35.081
35.077
35.072
35.065
35.056
35.045
35.031
35.014
34.994
34.97
34.942
34.912
34.879
34.846
34.815
34.785
34.759
34.737
34.718
34.703
34.691
34.682
34.677
34.675
34.677
34.682
34.689
34.697
34.707
34.718
34.73
34.743
34.76
34.781
34.808
34.841
34.881
34.93
34.988
35.055
35.13
35.216
35.31
35.413
35.522
35.636
35.753
35.871
35.988
36.102
36.211
36.313
36.406
36.489
36.561
36.62
36.666
36.699
36.719
36.727
36.723
36.708
36.682
36.648
36.607
36.56
36.51
36.457
36.403
36.349
36.298
36.249
36.205
36.166
36.131
36.102
36.078
36.059
36.044
36.032
36.023
36.016
36.011
36.005
35.999
35.991
35.981
35.968
35.953
35.936
35.918
35.898
35.877
35.856
35.834
35.813
35.792
35.772
35.754
35.74
35.73
35.725
35.725
35.73
35.739
35.753
35.769
35.788
35.809
35.831
35.853
35.873
35.891
35.906
35.916
35.921
35.923
35.92
35.912
35.9
35.883
35.861
35.834
35.804
35.771
35.736
35.702
35.669
35.637
35.607
35.58
35.556
35.536
35.519
35.505
35.494
35.484
35.475
35.466
35.455
35.442
35.426
35.407
35.385
35.36
35.332
35.3
35.266
35.232
35.196
35.16
35.125
35.09
35.057
35.028
35.004
34.983
34.967
34.956
34.949
34.945
34.942
34.942
34.942
34.943
34.943
34.943
34.94
34.935
34.928
34.919
34.907
34.892
34.875
34.855
34.833
34.809
34.785
34.762
34.74
34.722
34.709
34.7
34.698
34.703
34.718
34.743
34.78
34.83
34.893
34.969
35.058
35.158
35.267
35.384
35.507
35.633
35.76
35.885
36.005
36.118
36.223
36.317
36.401
36.474
36.533
36.58
36.615
36.638
36.651
36.657
36.655
36.648
36.638
36.625
36.61
36.593
36.574
36.554
36.533
36.512
36.491
36.47
36.45
36.43
36.41
36.391
36.371
36.35
36.328
36.305
36.281
36.257
36.233
36.208
36.182
36.156
36.13
36.103
36.077
36.053
36.031
36.011
35.993
35.978
35.966
35.958
35.953
35.953
35.955
35.959
35.964
35.97
35.975
35.979
35.983
35.984
35.985
35.983
35.98
35.975
35.969
35.963
35.957
35.95
35.944
35.937
35.93
35.923
35.916
35.909
35.902
35.894
35.885
35.876
35.867
35.857
35.845
35.832
35.816
35.799
35.778
35.755
35.729
35.699
35.667
35.632
35.594
35.555
35.514
35.474
35.434
35.396
35.359
35.326
35.296
35.269
35.247
35.228
35.212
35.201
35.192
35.186
35.18
35.175
35.168
35.159
35.148
35.135
35.121
35.104
35.087
35.067
35.047
35.026
35.004
34.982
34.96
34.938
34.915
34.893
34.87
34.848
34.828
34.81
34.793
34.779
34.767
34.756
34.748
34.741
34.737
34.736
34.737
34.741
34.748
34.757
34.768
34.783
34.802
34.825
34.855
34.894
34.942
34.999
35.067
35.145
35.234
35.331
35.437
35.549
35.665
35.784
35.902
36.017
36.128
36.232
36.328
36.414
36.49
36.555
36.608
36.649
36.679
36.697
36.705
36.703
36.692
36.673
36.649
36.619
36.585
36.549
36.511
36.473
36.437
36.404
36.374
36.348
36.325
36.305
36.288
36.274
36.263
36.256
36.251
36.25
36.249
36.248
36.245
36.239
36.229
36.216
36.199
36.178
36.153
36.125
36.093
36.058
36.022
35.987
35.954
35.924
35.899
35.878
35.86
35.847
35.838
35.832
35.83
35.831
35.837
35.845
35.855
35.867
35.88
35.894
35.906
35.916
35.924
35.927
35.926
35.919
35.907
35.888
35.865
35.837
35.806
35.772
35.738
35.703
35.67
35.638
35.608
35.581
35.557
35.536
35.518
35.503
35.489
35.477
35.465
35.453
35.44
35.425
35.409
35.392
35.373
35.352
35.327
35.3
35.27
35.237
35.202
35.167
35.132
35.099
35.067
35.038
35.012
34.989
34.97
34.953
34.941
34.932
34.927
34.926
34.928
34.933
34.94
34.947
34.953
34.957
34.96
34.959
34.955
34.947
34.933
34.915
34.891
34.862
34.831
34.797
34.762
34.727
34.694
34.663
34.635
34.611
34.59
34.574
34.563
34.557
34.556
34.56
34.567
34.577
34.59
34.606
34.626
34.649
34.677
34.709
34.747
34.791
34.842
34.9
34.966
35.039
35.121
35.211
35.308
35.411
35.518
35.628
35.739
35.849
35.957
36.063
36.163
36.256
36.34
36.416
36.481
36.536
36.579
36.612
36.634
36.646
36.646
36.637
36.618
36.59
36.556
36.518
36.476
36.433
36.389
36.346
36.306
36.269
36.237
36.209
36.186
36.169
36.155
36.145
36.138
36.133
36.13
36.129
36.128
36.126
36.122
36.116
36.107
36.093
36.077
36.057
36.034
36.008
35.981
35.954
35.926
35.899
35.873
35.849
35.829
35.813
35.802
35.796
35.795
35.798
35.806
35.816
35.829
35.843
35.858
35.874
35.887
35.899
35.907
35.91
35.909
35.903
35.892
35.876
35.857
35.833
35.807
35.777
35.746
35.714
35.681
35.649
35.618
35.589
35.562
35.537
35.514
35.493
35.475
35.459
35.446
35.436
35.427
35.419
35.41
35.4
35.387
35.371
35.353
35.332
35.308
35.28
35.25
35.218
35.185
35.15
35.116
35.082
35.05
35.021
34.996
34.974
34.956
34.943
34.934
34.928
34.925
34.925
34.928
34.933
34.939
34.944
34.947
34.947
34.942
34.935
34.924
34.911
34.894
34.875
34.854
34.831
34.806
34.78
34.753
34.731
34.722
34.726
34.743
34.769
34.798
34.827
34.851
34.867
34.875
34.874
34.865
34.846
34.82
34.788
34.753
34.717
34.684
34.656
34.636
34.625
34.627
34.641
34.67
34.713
34.771
34.842
34.925
35.02
35.124
35.234
35.348
35.464
35.578
35.69
35.796
35.894
35.983
36.063
36.132
36.19
36.237
36.272
36.295
36.308
36.311
36.305
36.29
36.267
36.238
36.202
36.163
36.121
36.08
36.039
36.0
35.965
35.934
35.907
35.885
35.868
35.858
35.852
35.851
35.851
35.853
35.855
35.856
35.855
35.852
35.845
35.834
35.819
35.8
35.778
35.751
35.722
35.692
35.66
35.629
35.598
35.569
35.542
35.519
35.499
35.484
35.474
35.469
35.469
35.474
35.484
35.498
35.515
35.534
35.554
35.574
35.592
35.608
35.621
35.63
35.634
35.632
35.624
35.609
35.59
35.565
35.537
35.505
35.472
35.437
35.402
35.368
35.334
35.302
35.273
35.246
35.223
35.203
35.185
35.169
35.156
35.145
35.135
35.125
35.116
35.106
35.095
35.082
35.066
35.047
35.026
35.003
34.979
34.955
34.93
34.905
34.879
34.853
34.828
34.805
34.784
34.766
34.751
34.738
34.727
34.718
34.711
34.705
34.702
34.7
34.699
34.699
34.7
34.701
34.7
34.697
34.691
34.683
34.671
34.657
34.639
34.619
34.595
34.57
34.543
34.514
34.486
34.46
34.438
34.42
34.406
34.397
34.392
34.391
34.392
34.396
34.401
34.406
34.412
34.416
34.418
34.418
34.417
34.415
34.415
34.418
34.425
34.439
34.461
34.491
34.531
34.582
34.644
34.717
34.8
34.893
34.992
35.096
35.202
35.309
35.415
35.518
35.616
35.707
35.789
35.86
35.92
35.968
36.004
36.029
36.043
36.048
36.043
36.031
36.013
35.989
35.961
35.93
35.897
35.864
35.832
35.802
35.775
35.751
35.73
35.713
35.699
35.688
35.68
35.675
35.671
35.667
35.663
35.657
35.648
35.638
35.624
35.608
35.589
35.568
35.545
35.519
35.491
35.462
35.433
35.404
35.378
35.354
35.333
35.317
35.306
35.3
35.298
35.301
35.308
35.319
35.332
35.347
35.362
35.377
35.391
35.403
35.413
35.419
35.422
35.42
35.415
35.406
35.393
35.377
35.358
35.337
35.314
35.291
35.267
35.244
35.222
35.202
35.184
35.168
35.154
35.143
35.135
35.129
35.125
35.121
35.116
35.11
35.101
35.089
35.074
35.055
35.033
35.008
34.978
34.945
34.909
34.871
34.832
