Trial 3:3back
34.229
34.516
34.827
35.155
35.498
35.848
36.199
36.547
36.885
37.208
37.513
37.794
38.049
38.275
38.47
38.635
38.769
38.874
38.949
38.997
39.02
39.021
39.001
38.965
38.914
38.85
38.776
38.693
38.6
38.501
38.396
38.286
38.174
38.059
37.943
37.826
37.708
37.59
37.471
37.353
37.235
37.119
37.002
36.887
36.772
36.656
36.541
36.425
36.309
36.194
36.08
35.967
35.857
35.751
35.648
35.551
35.46
35.375
35.297
35.224
35.157
35.097
35.046
35.004
34.972
34.953
34.947
34.953
34.973
35.004
35.046
35.099
35.161
35.231
35.306
35.384
35.462
35.539
35.613
35.683
35.748
35.807
35.857
35.898
35.93
35.952
35.966
35.97
35.966
35.954
35.933
35.903
35.865
35.82
35.768
35.711
35.651
35.587
35.52
35.452
35.381
35.309
35.237
35.165
35.093
35.021
34.948
34.874
34.801
34.729
34.658
34.588
34.521
34.455
34.392
34.331
34.273
34.217
34.163
34.109
34.056
34.005
33.955
33.905
33.857
33.811
33.767
33.726
33.688
33.652
33.619
33.589
33.56
33.533
33.508
33.485
33.462
33.441
33.421
33.403
33.386
33.371
33.358
33.345
33.335
33.325
33.316
33.308
33.3
33.291
33.281
33.269
33.256
33.242
33.228
33.212
33.195
33.177
33.159
33.14
33.12
33.1
33.079
33.058
33.035
33.013
32.991
32.97
32.95
32.931
32.913
32.9
32.892
32.892
32.903
32.928
32.97
33.032
33.118
33.23
33.371
33.543
33.746
33.981
34.246
34.538
34.852
35.184
35.53
35.884
36.241
36.596
36.944
37.279
37.595
37.889
38.158
38.4
38.613
38.797
38.95
39.074
39.169
39.237
39.279
39.299
39.298
39.278
39.241
39.19
39.126
39.051
38.966
38.873
38.773
38.667
38.556
38.442
38.325
38.206
38.086
37.966
37.845
37.724
37.603
37.483
37.363
37.243
37.124
37.006
36.888
36.773
36.658
36.546
36.436
36.328
36.222
36.118
36.017
35.921
35.829
35.742
35.662
35.587
35.519
35.458
35.406
35.363
35.328
35.302
35.285
35.277
35.278
35.287
35.306
35.334
35.37
35.416
35.469
35.53
35.595
35.664
35.734
35.802
35.868
35.929
35.986
36.035
36.077
36.11
36.135
36.15
36.157
36.155
36.143
36.122
36.093
36.054
36.008
35.954
35.894
35.828
35.758
35.683
35.605
35.524
35.442
35.36
35.278
35.196
35.114
35.032
34.95
34.869
34.791
34.715
34.643
34.574
34.507
34.444
34.383
34.325
34.271
34.219
34.17
34.124
34.079
34.035
33.994
33.953
33.914
33.876
33.839
33.804
33.771
33.738
33.706
33.674
33.643
33.613
33.586
33.559
33.534
33.508
33.481
33.455
33.429
33.405
33.383
33.363
33.346
33.33
33.315
33.302
33.289
33.277
33.266
33.255
33.244
33.235
33.226
33.218
33.209
33.2
33.189
33.177
33.163
33.147
33.129
33.109
33.088
33.066
33.043
33.022
33.003
32.987
32.976
32.972
32.974
32.987
33.013
33.054
33.115
33.199
33.31
33.451
33.624
33.831
34.071
34.342
34.644
34.972
35.321
35.684
36.056
36.428
36.795
37.15
37.488
37.805
38.097
38.361
38.597
38.802
38.978
39.125
39.245
39.338
39.406
39.451
39.474
39.478
39.464
39.434
39.389
39.332
39.264
39.185
39.099
39.006
38.906
38.801
38.693
38.581
38.467
38.351
38.234
38.115
37.996
37.875
37.753
37.633
37.514
37.397
37.284
37.174
37.066
36.96
36.856
36.753
36.65
36.548
36.447
36.345
36.243
36.141
36.042
35.947
35.859
35.78
35.711
35.654
35.608
35.573
35.55
35.537
35.534
35.54
35.556
35.58
35.611
35.647
35.687
35.732
35.781
35.832
35.886
35.941
35.994
36.044
36.091
36.134
36.172
36.203
36.228
36.247
36.258
36.261
36.255
36.242
36.22
36.191
36.153
36.109
36.057
36.0
35.936
35.867
35.795
35.719
35.641
35.562
35.483
35.402
35.322
35.241
35.161
35.081
35.002
34.923
34.845
34.767
34.689
34.614
34.54
34.469
34.401
34.336
34.275
34.217
34.164
34.114
34.067
34.024
33.982
33.942
33.903
33.866
33.83
33.796
33.763
33.732
33.702
33.673
33.645
33.618
33.593
33.568
33.545
33.523
33.502
33.481
33.461
33.441
33.423
33.405
33.388
33.373
33.358
33.343
33.328
33.314
33.3
33.288
33.276
33.265
33.255
33.244
33.233
33.222
33.21
33.197
33.182
33.165
33.145
33.123
33.1
33.075
33.051
33.027
33.004
32.984
32.968
32.956
32.952
32.955
32.97
32.999
33.044
33.108
33.194
33.305
33.445
33.614
33.815
34.049
34.314
34.607
34.925
35.264
35.618
35.981
36.346
36.709
37.063
37.404
37.726
38.025
38.298
38.543
38.759
38.944
39.099
39.225
39.322
39.393
39.439
39.464
39.468
39.455
39.425
39.381
39.325
39.258
39.182
39.098
39.006
38.906
38.799
38.688
38.575
38.459
38.342
38.224
38.106
37.988
37.871
37.757
37.645
37.535
37.426
37.318
37.21
37.102
36.993
36.884
36.776
36.668
36.56
36.454
36.349
36.246
36.148
36.055
35.968
35.887
35.815
35.75
35.694
35.646
35.607
35.577
35.558
35.547
35.545
35.551
35.565
35.585
35.61
35.641
35.676
35.714
35.755
35.798
35.842
35.886
35.931
35.975
36.017
36.057
36.093
36.125
36.151
36.172
36.184
36.189
36.186
36.175
36.155
36.127
36.09
36.044
35.991
35.931
35.864
35.791
35.711
35.625
35.533
35.437
35.34
35.243
35.148
35.056
34.968
34.884
34.803
34.727
34.654
34.586
34.521
34.46
34.401
34.345
34.29
34.238
34.189
34.142
34.097
34.055
34.015
33.975
33.936
33.896
33.856
33.815
33.776
33.737
33.698
33.66
33.621
33.583
33.547
33.513
33.482
33.453
33.429
33.407
33.388
33.371
33.356
33.343
33.332
33.323
33.313
33.305
33.296
33.287
33.278
33.27
33.262
33.255
33.249
33.241
33.231
33.219
33.203
33.185
33.164
33.141
33.117
33.093
33.067
33.042
33.016
32.99
32.964
32.938
32.914
32.891
32.872
32.856
32.844
32.838
32.84
32.85
32.871
32.907
32.961
33.035
33.134
33.259
33.413
33.599
33.816
34.065
34.346
34.655
34.988
35.341
35.709
36.083
36.459
36.829
37.187
37.527
37.845
38.137
38.399
38.633
38.835
39.005
39.144
39.252
39.33
39.381
39.406
39.409
39.392
39.358
39.309
39.245
39.17
39.085
38.992
38.891
38.785
38.674
38.558
38.439
38.318
38.196
38.075
37.953
37.833
37.715
37.598
37.485
37.374
37.267
37.163
37.06
36.959
36.859
36.759
36.659
36.558
36.456
36.354
36.252
36.15
36.049
35.951
35.857
35.768
35.684
35.608
35.54
35.483
35.436
35.401
35.378
35.365
35.364
35.372
35.391
35.418
35.452
35.493
35.538
35.586
35.637
35.69
35.745
35.8
35.854
35.905
35.952
35.995
36.032
36.061
36.082
36.094
36.098
36.094
36.083
36.065
36.041
36.011
35.975
35.934
35.886
35.833
35.776
35.714
35.649
35.58
35.508
35.432
35.353
35.271
35.188
35.104
35.02
34.936
34.852
34.77
34.689
34.609
34.532
34.456
34.383
34.312
34.244
34.178
34.115
34.055
33.998
33.945
33.895
33.849
33.806
33.767
33.73
33.696
33.664
33.632
33.602
33.573
33.544
33.516
33.488
33.462
33.437
33.413
33.39
33.368
33.349
33.331
33.315
33.299
33.284
33.268
33.253
33.237
33.221
33.205
33.188
33.171
33.154
33.138
33.122
33.108
33.096
33.086
33.078
33.07
33.061
33.051
33.039
33.026
33.012
32.997
32.982
32.967
32.95
32.932
32.913
32.892
32.871
32.849
32.828
32.809
32.793
32.78
32.772
32.77
32.776
32.792
32.821
32.865
32.928
33.012
33.12
33.254
33.416
33.608
33.833
34.088
34.372
34.683
35.018
35.371
35.737
36.109
36.482
36.848
37.202
37.539
37.854
38.144
38.405
38.635
38.833
38.999
39.134
39.237
39.31
39.356
39.377
39.375
39.351
39.307
39.246
39.171
39.084
38.987
38.882
38.773
38.659
38.541
38.421
38.3
38.178
38.056
37.934
37.812
37.691
37.57
37.45
37.331
37.216
37.103
36.993
36.884
36.776
36.669
36.562
36.456
36.352
36.25
36.149
36.051
35.953
35.858
35.765
35.675
35.59
35.51
35.437
35.373
35.318
35.274
35.242
35.224
35.219
35.226
35.244
35.272
35.308
35.351
35.399
35.451
35.507
35.563
35.62
35.676
35.731
35.784
35.834
35.88
35.921
35.956
35.981
35.998
36.006
36.005
35.997
35.981
35.957
35.927
35.89
35.848
35.801
35.75
35.696
35.639
35.579
35.515
35.448
35.376
35.302
35.225
35.145
35.064
34.98
34.896
34.812
34.73
34.649
34.57
34.494
34.42
34.348
34.277
34.209
34.142
34.077
34.015
33.956
33.899
33.845
33.795
33.747
33.703
33.661
33.622
33.586
33.554
33.524
33.496
33.471
33.447
33.425
33.404
33.385
33.367
33.35
33.334
33.317
33.3
33.282
33.264
33.248
33.232
33.216
33.201
33.186
33.171
33.157
33.144
33.133
33.122
33.113
33.105
33.097
33.087
33.077
33.066
33.054
33.042
33.029
33.016
33.001
32.984
32.966
32.948
32.928
32.909
32.889
32.869
32.85
32.832
32.815
32.799
32.784
32.771
32.758
32.747
32.737
32.731
32.729
32.733
32.746
32.769
32.804
32.855
32.925
33.017
33.134
33.279
33.456
33.665
33.908
34.182
34.486
34.818
35.171
35.542
35.924
36.309
36.691
37.062
37.418
37.753
38.062
38.34
38.587
38.799
38.978
39.122
39.233
39.312
39.361
39.382
39.382
39.368
39.344
39.312
39.27
39.219
39.155
39.077
38.986
38.881
38.762
38.631
38.49
38.341
38.187
38.029
37.872
37.716
37.562
37.411
37.264
37.121
36.983
36.851
36.722
36.598
36.477
36.36
36.246
36.136
36.032
35.932
35.836
35.746
35.661
35.581
35.507
35.438
35.376
35.318
35.265
35.219
35.179
35.146
35.122
35.107
35.102
35.107
35.124
35.15
35.186
35.232
35.286
35.347
35.412
35.48
35.549
35.617
35.682
35.744
35.801
35.851
35.893
35.927
35.952
35.968
35.975
35.972
35.959
35.938
35.909
35.873
35.83
35.782
35.73
35.674
35.616
35.555
35.492
35.425
35.356
35.284
35.21
35.133
35.055
34.975
34.895
34.815
34.736
34.658
34.581
34.506
34.433
34.362
34.293
34.226
34.161
34.099
34.039
33.981
33.926
33.873
33.823
33.776
33.732
33.689
33.649
33.61
33.574
33.54
33.507
33.475
33.445
33.415
33.387
33.36
33.334
33.31
33.287
33.264
33.242
33.221
33.201
33.182
33.164
33.146
33.128
33.112
33.096
33.081
33.067
33.053
33.041
33.031
33.024
33.019
33.014
33.009
33.004
32.999
32.992
32.984
32.975
32.962
32.948
32.931
32.912
32.892
32.871
32.849
32.828
32.806
32.785
32.765
32.747
32.734
32.727
32.728
32.737
32.755
32.787
32.833
32.898
32.984
33.095
33.234
33.403
33.602
33.832
34.094
34.385
34.703
35.045
35.406
35.779
36.159
36.539
36.913
37.273
37.614
37.931
38.218
38.474
38.695
38.882
39.033
39.151
39.235
39.288
39.312
39.309
39.282
39.234
39.167
39.084
38.988
38.88
38.763
38.64
38.512
38.381
38.248
38.113
37.978
37.844
37.712
37.58
37.45
37.322
37.195
37.071
36.95
36.831
36.713
36.597
36.482
36.368
36.253
36.138
36.022
35.907
35.791
35.677
35.564
35.456
35.352
35.254
35.163
35.081
35.007
34.942
34.889
34.846
34.815
34.794
34.783
34.782
34.792
34.811
34.84
34.877
34.923
34.974
35.03
35.089
35.151
35.215
35.281
35.346
35.411
35.473
35.531
35.584
35.631
35.67
35.702
35.725
35.738
35.742
35.737
35.723
35.701
35.671
35.634
35.591
35.541
35.485
35.423
35.356
35.286
35.212
35.137
35.059
34.981
34.901
34.82
34.74
34.66
34.581
34.503
34.426
34.351
34.276
34.202
34.129
34.058
33.988
33.921
33.857
33.796
33.738
33.684
33.633
33.587
33.544
33.505
33.47
33.436
33.404
33.371
33.337
33.302
33.266
33.23
33.195
33.161
33.128
33.097
33.069
33.043
33.02
32.999
32.982
32.969
32.958
32.95
32.943
32.937
32.93
32.923
32.914
32.903
32.892
32.88
32.867
32.852
32.836
32.819
32.802
32.786
32.77
32.756
32.742
32.73
32.717
32.705
32.694
32.685
32.677
32.67
32.663
32.657
32.649
32.643
32.637
32.634
32.635
32.643
32.66
32.688
32.73
32.787
32.864
32.963
33.088
33.241
33.423
33.636
33.88
34.154
34.456
34.783
35.131
35.494
35.867
36.243
36.616
36.977
37.323
37.648
37.946
38.215
38.452
38.656
38.826
38.961
39.063
39.132
39.169
39.178
39.159
39.118
39.055
38.975
38.88
38.773
38.657
38.534
38.406
38.275
38.142
38.008
37.875
37.744
37.615
37.489
37.365
37.242
37.122
37.003
36.886
36.771
36.658
36.546
36.435
36.323
36.211
36.099
35.986
35.873
35.761
35.649
35.54
35.433
35.331
35.236
35.149
35.069
35.0
34.941
34.893
34.856
34.83
34.816
34.813
34.821
34.84
34.868
34.906
34.952
35.006
35.067
35.135
35.208
35.286
35.367
35.45
35.533
35.614
35.691
35.763
35.828
35.885
35.932
35.968
35.994
36.009
36.013
36.005
35.985
35.956
35.916
35.868
35.812
35.751
35.686
35.616
35.543
35.468
35.392
35.316
35.239
35.161
35.083
35.004
34.925
34.847
34.769
34.692
34.617
34.542
34.468
34.394
34.321
34.249
34.177
34.108
34.042
33.979
33.919
33.863
33.811
33.763
33.719
33.679
33.643
33.61
33.58
33.552
33.527
33.502
33.479
33.457
33.437
33.416
33.397
33.377
33.359
33.341
33.325
33.31
33.297
33.285
33.275
33.266
33.257
33.249
33.241
33.232
33.222
33.21
33.197
33.181
33.165
33.146
33.126
33.107
33.088
33.072
33.057
33.042
33.029
33.015
33.002
32.989
32.977
32.967
32.958
32.952
32.948
32.948
32.956
32.973
33.005
33.053
33.121
33.211
33.326
33.468
33.64
33.844
34.08
34.347
34.645
34.968
35.315
35.677
36.051
36.429
36.805
37.173
37.527
37.86
38.17
38.451
38.702
38.92
39.104
39.254
39.37
39.452
39.502
39.525
39.521
39.493
39.444
39.376
39.293
39.195
39.087
38.97
38.848
38.721
38.591
38.46
38.327
38.194
38.061
37.927
37.791
37.655
37.519
37.382
37.247
37.112
36.981
36.852
36.726
36.604
36.485
36.368
36.253
36.139
36.028
35.92
35.815
35.712
35.612
35.517
35.427
35.344
35.27
35.204
35.148
35.103
35.067
35.042
35.028
35.025
35.032
35.049
35.076
35.112
35.155
35.206
35.263
35.326
35.393
35.464
35.537
35.609
35.68
35.748
35.811
35.869
35.92
35.963
35.998
36.023
36.039
36.046
36.046
36.038
36.023
36.0
35.969
35.931
35.884
35.829
35.767
35.699
35.624
35.545
35.464
35.38
35.294
35.206
35.12
35.034
34.951
34.869
34.79
34.713
34.637
34.563
34.492
34.423
34.356
34.291
34.228
34.166
34.105
34.047
33.991
33.937
33.884
33.834
33.786
33.74
33.698
33.659
33.623
33.59
33.559
33.531
33.505
33.48
33.457
33.435
33.414
33.393
33.374
33.356
33.34
33.327
33.314
33.304
33.295
33.287
33.28
33.274
33.268
33.26
33.252
33.242
33.23
33.216
33.2
33.183
33.165
33.146
33.126
33.107
33.088
33.071
33.056
33.042
33.032
33.023
33.015
33.008
33.001
32.996
32.994
32.995
33.001
33.016
33.041
33.08
33.137
33.216
33.32
33.452
33.615
33.812
34.043
34.308
34.606
34.933
35.285
35.656
36.042
36.434
36.826
37.211
37.581
37.93
38.253
38.546
38.805
39.029
39.216
39.368
39.487
39.572
39.627
39.654
39.657
39.636
39.598
39.543
39.474
39.395
39.306
39.209
39.105
38.995
38.88
38.76
38.635
38.507
38.376
38.242
38.106
37.967
37.827
37.685
37.544
37.404
37.267
37.133
37.003
36.878
36.756
36.637
36.521
36.41
36.302
36.199
36.099
36.003
35.911
35.823
35.74
35.663
35.592
35.528
35.471
35.42
35.378
35.343
35.318
35.301
35.295
35.297
35.309
35.329
35.358
35.396
35.441
35.494
35.553
35.617
35.683
35.749
35.814
35.877
35.937
35.991
36.039
36.079
36.11
36.131
36.143
36.145
36.138
36.12
36.094
36.06
36.018
35.97
35.916
35.858
35.797
35.732
35.664
35.595
35.522
35.446
35.366
35.281
35.194
35.104
35.014
34.924
34.834
34.745
34.659
34.574
34.492
34.415
34.341
34.271
34.205
34.143
34.084
34.028
33.975
33.923
33.875
33.829
33.785
33.744
33.703
33.663
33.622
33.583
33.545
33.508
33.472
33.437
33.405
33.374
33.346
33.322
33.301
33.283
33.268
33.256
33.247
33.239
33.234
33.228
33.222
33.215
33.206
33.196
33.183
33.169
33.152
33.132
33.11
33.087
33.063
33.038
33.014
32.989
32.966
32.942
32.92
32.899
32.878
32.86
32.843
32.828
32.817
32.809
32.806
32.806
32.812
32.825
32.85
32.888
32.944
33.02
33.122
33.25
33.408
33.597
33.819
34.074
34.359
34.671
35.007
35.361
35.73
36.105
36.48
36.85
37.208
37.547
37.864
38.155
38.416
38.645
38.842
39.005
39.134
39.231
39.296
39.331
39.34
39.324
39.286
39.23
39.159
39.075
38.981
38.88
38.773
38.662
38.546
38.428
38.308
38.186
38.064
37.941
37.819
37.697
37.575
37.454
37.334
37.213
37.094
36.975
36.857
36.74
36.625
36.511
36.397
36.285
36.175
36.068
35.966
35.867
35.772
35.681
35.594
35.51
35.43
35.354
35.284
35.22
35.165
35.119
35.081
35.054
35.036
35.03
35.033
35.047
35.07
35.102
35.143
35.191
35.247
35.308
35.374
35.443
35.514
35.585
35.655
35.721
35.783
35.84
35.889
35.93
35.963
35.988
36.004
36.013
36.014
36.007
35.993
35.972
35.942
35.904
35.858
35.804
35.744
35.677
35.606
35.531
35.452
35.37
35.285
35.199
35.113
35.026
34.94
34.855
34.771
34.69
34.612
34.537
34.465
34.395
34.329
34.265
34.204
34.146
34.09
34.036
33.984
33.933
33.883
33.835
33.788
33.745
33.704
33.666
33.632
33.6
33.572
33.547
33.525
33.506
33.49
33.475
33.462
33.449
33.436
33.422
33.407
33.393
33.378
33.364
33.349
33.334
33.317
33.301
33.284
33.267
33.251
33.234
33.219
33.204
33.19
33.176
33.16
33.145
33.129
33.113
33.097
33.082
33.067
33.055
33.044
33.037
33.035
33.039
33.05
33.072
33.105
33.151
33.213
33.294
33.397
33.525
33.681
33.866
34.081
34.326
34.598
34.895
35.215
35.552
35.903
36.26
36.618
36.968
37.305
37.622
37.915
38.179
38.413
38.613
38.779
38.912
39.012
39.081
39.121
39.135
39.125
39.093
39.043
38.978
38.9
38.812
38.716
38.613
38.505
38.394
38.279
38.162
38.043
37.923
37.802
37.678
37.553
37.425
37.295
37.163
37.032
36.901
36.771
36.641
36.512
36.385
36.26
36.137
36.016
35.898
35.784
35.674
35.568
35.467
35.372
35.285
35.206
35.135
35.073
35.019
34.973
34.936
34.907
34.888
34.877
34.875
34.881
34.894
34.916
34.947
34.987
35.037
35.096
35.162
35.234
35.309
35.386
35.462
35.536
35.607
35.675
35.737
35.792
35.84
35.878
35.907
35.928
35.939
35.941
35.935
35.921
35.898
35.869
35.832
35.789
35.74
35.685
35.626
35.562
35.495
35.425
35.35
35.271
35.189
35.104
35.018
34.93
34.842
34.755
34.669
34.587
34.509
34.435
34.366
34.302
34.242
34.186
34.134
34.085
34.04
33.997
33.957
33.918
33.88
33.843
33.806
33.771
33.737
33.704
33.672
33.643
33.613
33.583
33.553
33.521
33.49
33.458
33.428
33.398
33.371
33.347
33.325
33.307
33.291
33.279
33.268
33.26
33.251
33.242
33.232
33.221
33.209
33.196
33.183
33.169
33.154
33.137
33.118
33.097
33.076
33.055
33.034
33.016
33.0
32.988
32.982
32.983
32.992
33.014
33.049
33.101
33.173
33.267
33.389
33.539
33.719
33.931
34.175
34.45
34.753
35.082
35.432
35.799
36.175
36.555
36.931
37.298
37.651
37.982
38.289
38.569
38.818
39.037
39.224
39.38
39.504
39.599
39.664
39.703
39.719
39.712
39.685
39.639
39.577
39.5
39.413
39.317
39.214
39.107
38.996
38.883
38.768
38.653
38.538
38.424
38.311
38.199
38.087
37.977
37.868
37.759
37.65
37.542
37.434
37.326
37.216
37.106
36.995
36.883
36.772
36.662
36.554
36.448
36.343
36.242
36.145
36.054
35.97
35.892
35.823
35.762
35.71
35.668
35.634
35.61
35.596
35.591
35.594
35.606
35.625
35.653
35.688
35.73
35.777
35.83
35.886
35.944
36.004
36.063
36.121
36.176
36.225
36.269
36.306
36.336
36.36
36.377
36.388
36.392
36.388
36.375
36.355
36.326
36.289
36.243
36.19
36.131
36.065
35.993
35.916
35.834
35.749
35.661
35.571
35.48
35.388
35.297
35.207
35.119
35.034
34.951
34.87
34.792
34.717
34.645
34.576
34.511
34.451
34.393
34.34
34.289
34.242
34.196
34.152
34.108
34.065
34.022
33.979
33.936
33.892
33.848
33.804
