Trial 3:3back
36.094
36.091
36.086
36.081
36.073
36.064
36.052
36.038
36.021
36.002
35.982
35.961
35.939
35.918
35.899
35.882
35.867
35.855
35.847
35.843
35.842
35.844
35.85
35.858
35.867
35.876
35.886
35.895
35.903
35.91
35.915
35.918
35.919
35.918
35.913
35.906
35.895
35.882
35.868
35.851
35.833
35.815
35.795
35.775
35.756
35.736
35.716
35.697
35.679
35.66
35.641
35.623
35.604
35.585
35.565
35.544
35.522
35.499
35.475
35.451
35.428
35.405
35.382
35.36
35.34
35.32
35.302
35.284
35.267
35.251
35.235
35.218
35.202
35.186
35.169
35.152
35.136
35.119
35.102
35.086
35.07
35.054
35.038
35.023
35.009
34.995
34.982
34.969
34.956
34.945
34.933
34.922
34.912
34.903
34.895
34.888
34.881
34.874
34.866
34.856
34.844
34.83
34.814
34.797
34.777
34.756
34.734
34.711
34.688
34.664
34.641
34.618
34.596
34.576
34.558
34.542
34.529
34.519
34.512
34.509
34.509
34.513
34.522
34.535
34.553
34.578
34.611
34.651
34.701
34.76
34.828
34.905
34.991
35.086
35.187
35.295
35.407
35.521
35.636
35.749
35.858
35.961
36.058
36.145
36.223
36.29
36.347
36.393
36.428
36.454
36.47
36.478
36.479
36.474
36.463
36.448
36.43
36.41
36.387
36.365
36.341
36.319
36.296
36.275
36.254
36.236
36.219
36.204
36.19
36.179
36.169
36.161
36.154
36.148
36.143
36.138
36.134
36.128
36.121
36.112
36.101
36.086
36.068
36.048
36.026
36.002
35.977
35.951
35.924
35.898
35.872
35.848
35.826
35.807
35.792
35.779
35.771
35.766
35.764
35.766
35.771
35.778
35.786
35.796
35.805
35.815
35.823
35.831
35.836
35.841
35.843
35.843
35.84
35.834
35.825
35.813
35.798
35.781
35.762
35.743
35.723
35.702
35.681
35.659
35.638
35.615
35.593
35.569
35.544
35.518
35.491
35.464
35.437
35.411
35.385
35.361
35.337
35.314
35.292
35.27
35.25
35.23
35.211
35.192
35.175
35.159
35.144
35.128
35.114
35.099
35.085
35.069
35.053
35.035
35.016
34.997
34.977
34.958
34.939
34.921
34.904
34.887
34.873
34.86
34.849
34.84
34.832
34.825
34.819
34.814
34.809
34.804
34.798
34.791
34.783
34.774
34.764
34.753
34.741
34.729
34.717
34.705
34.692
34.68
34.667
34.655
34.642
34.63
34.616
34.6
34.583
34.565
34.544
34.523
34.501
34.479
34.457
34.436
34.416
34.398
34.383
34.371
34.362
34.356
34.354
34.357
34.365
34.38
34.402
34.432
34.471
34.52
34.579
34.65
34.731
34.822
34.922
35.031
35.147
35.267
35.391
35.515
35.638
35.757
35.871
35.977
36.073
36.159
36.232
36.294
36.342
36.379
36.405
36.42
36.427
36.426
36.418
36.404
36.386
36.364
36.34
36.314
36.288
36.263
36.238
36.216
36.195
36.176
36.159
36.144
36.131
36.121
36.112
36.106
36.102
36.099
36.097
36.096
36.096
36.096
36.097
36.096
36.095
36.092
36.086
36.078
36.067
36.053
36.036
36.017
35.995
35.972
35.948
35.924
35.9
35.878
35.858
35.84
35.826
35.815
35.808
35.804
35.804
35.807
35.812
35.818
35.826
35.835
35.844
35.853
35.861
35.868
35.873
35.876
35.877
35.875
35.869
35.86
35.848
35.832
35.813
35.792
35.769
35.745
35.721
35.696
35.672
35.649
35.627
35.607
35.587
35.568
35.55
35.533
35.517
35.501
35.484
35.466
35.447
35.427
35.407
35.385
35.364
35.341
35.319
35.296
35.273
35.249
35.226
35.202
35.179
35.156
35.133
35.111
35.089
35.068
35.047
35.027
35.009
34.991
34.974
34.958
34.943
34.928
34.913
34.9
34.887
34.875
34.863
34.852
34.841
34.83
34.819
34.808
34.797
34.786
34.773
34.76
34.747
34.733
34.719
34.705
34.69
34.675
34.66
34.646
34.632
34.618
34.606
34.596
34.586
34.578
34.571
34.565
34.558
34.551
34.543
34.535
34.526
34.516
34.505
34.491
34.476
34.458
34.439
34.418
34.397
34.375
34.352
34.33
34.309
34.289
34.272
34.257
34.247
34.24
34.24
34.246
34.26
34.284
34.318
34.364
34.42
34.489
34.568
34.66
34.761
34.872
34.99
35.114
35.241
35.37
35.496
35.619
35.737
35.847
35.949
36.041
36.122
36.191
36.248
36.293
36.326
36.348
36.36
36.362
36.355
36.34
36.319
36.295
36.268
36.241
36.214
36.187
36.162
36.138
36.115
36.095
36.076
36.058
36.042
36.028
36.014
36.002
35.991
35.981
35.972
35.964
35.958
35.952
35.946
35.939
35.932
35.924
35.915
35.904
35.892
35.877
35.861
35.842
35.822
35.8
35.777
35.753
35.73
35.709
35.69
35.673
35.658
35.646
35.636
35.63
35.627
35.627
35.629
35.634
35.64
35.647
35.656
35.664
35.673
35.681
35.688
35.694
35.698
35.701
35.701
35.699
35.694
35.687
35.677
35.664
35.649
35.63
35.61
35.587
35.563
35.538
35.512
35.486
35.46
35.435
35.411
35.387
35.364
35.342
35.319
35.297
35.274
35.251
35.228
35.205
35.182
35.159
35.137
35.114
35.091
35.069
35.046
35.025
35.005
34.985
34.966
34.947
34.929
34.91
34.891
34.872
34.854
34.835
34.816
34.798
34.779
34.761
34.743
34.725
34.708
34.691
34.675
34.659
34.642
34.626
34.608
34.591
34.574
34.557
34.542
34.528
34.515
34.503
34.492
34.483
34.476
34.469
34.462
34.457
34.45
34.444
34.436
34.428
34.418
34.408
34.397
34.386
34.375
34.363
34.351
34.339
34.326
34.313
34.298
34.283
34.267
34.25
34.232
34.213
34.194
34.174
34.155
34.136
34.118
34.101
34.086
34.071
34.059
34.049
34.042
34.039
34.039
34.044
34.053
34.069
34.092
34.124
34.165
34.217
34.28
34.354
34.44
34.535
34.641
34.754
34.873
34.996
35.121
35.246
35.367
35.482
35.591
35.691
35.782
35.862
35.932
35.991
36.038
36.073
36.098
36.113
36.118
36.115
36.105
36.09
36.071
36.048
36.023
35.998
35.974
35.95
35.929
35.908
35.89
35.873
35.858
35.846
35.835
35.826
35.819
35.812
35.805
35.799
35.794
35.788
35.784
35.779
35.774
35.767
35.76
35.75
35.738
35.724
35.708
35.69
35.671
35.651
35.631
35.612
35.593
35.575
35.559
35.544
35.531
35.519
35.51
35.504
35.501
35.502
35.506
35.515
35.527
35.541
35.557
35.575
35.592
35.608
35.623
35.637
35.649
35.658
35.662
35.662
35.657
35.647
35.633
35.616
35.596
35.574
35.551
35.526
35.501
35.476
35.451
35.427
35.404
35.381
35.36
35.338
35.316
35.295
35.275
35.255
35.236
35.218
35.199
35.181
35.161
35.142
35.122
35.101
35.08
35.059
35.037
35.016
34.996
34.977
34.958
34.941
34.925
34.91
34.895
34.879
34.864
34.848
34.832
34.817
34.801
34.785
34.77
34.756
34.742
34.728
34.716
34.705
34.695
34.686
34.677
34.67
34.662
34.655
34.649
34.642
34.633
34.624
34.614
34.602
34.589
34.576
34.564
34.553
34.542
34.533
34.525
34.518
34.511
34.504
34.496
34.488
34.477
34.465
34.451
34.435
34.418
34.399
34.38
34.359
34.337
34.315
34.292
34.271
34.253
34.238
34.226
34.219
34.218
34.222
34.233
34.251
34.278
34.314
34.359
34.413
34.476
34.548
34.629
34.717
34.813
34.914
35.02
35.13
35.241
35.351
35.46
35.565
35.664
35.756
35.839
35.912
35.974
36.024
36.063
36.091
36.107
36.113
36.11
36.098
36.08
36.057
36.03
36.0
35.968
35.935
35.903
35.871
35.84
35.81
35.784
35.76
35.738
35.718
35.7
35.683
35.667
35.653
35.639
35.626
35.613
35.602
35.59
35.578
35.565
35.552
35.537
35.521
35.503
35.484
35.463
35.441
35.417
35.393
35.369
35.345
35.322
35.302
35.284
35.268
35.255
35.245
35.24
35.238
35.24
35.246
35.256
35.268
35.281
35.296
35.311
35.325
35.337
35.347
35.355
35.36
35.363
35.362
35.359
35.353
35.345
35.335
35.323
35.308
35.291
35.272
35.251
35.229
35.206
35.183
35.16
35.137
35.115
35.092
35.071
35.051
35.033
35.015
34.997
34.979
34.96
34.941
34.92
34.899
34.877
34.853
34.829
34.805
34.78
34.756
34.732
34.71
34.69
34.671
34.653
34.637
34.621
34.606
34.592
34.578
34.565
34.552
34.54
34.528
34.517
34.507
34.496
34.486
34.476
34.466
34.456
34.446
34.436
34.425
34.414
34.403
34.391
34.379
34.367
34.354
34.341
34.328
34.315
34.302
34.288
34.274
34.258
34.242
34.223
34.204
34.183
34.162
34.141
34.119
34.098
34.078
34.06
34.043
34.03
34.02
34.014
34.013
34.018
34.028
34.045
34.069
34.101
34.142
34.192
34.251
34.32
34.398
34.485
34.581
34.683
34.79
34.901
35.013
35.124
35.233
35.338
35.437
35.529
35.613
35.689
35.755
35.811
35.856
35.889
35.912
35.924
35.927
35.92
35.907
35.888
35.865
35.839
35.811
35.782
35.753
35.726
35.699
35.673
35.649
35.626
35.605
35.586
35.569
35.554
35.541
35.53
35.521
35.513
35.507
35.502
35.498
35.494
35.491
35.487
35.482
35.476
35.468
35.459
35.447
35.432
35.416
35.397
35.378
35.357
35.335
35.314
35.294
35.274
35.256
35.241
35.227
35.216
35.208
35.203
35.201
35.201
35.205
35.21
35.218
35.227
35.237
35.247
35.258
35.267
35.276
35.281
35.284
35.284
35.281
35.274
35.265
35.252
35.237
35.219
35.199
35.177
35.155
35.133
35.112
35.093
35.074
35.056
35.039
35.023
35.008
34.994
34.98
34.966
34.952
34.937
34.921
34.905
34.888
34.871
34.852
34.833
34.812
34.791
34.769
34.748
34.726
34.705
34.686
34.667
34.65
34.634
34.618
34.605
34.592
34.58
34.568
34.556
34.545
34.533
34.522
34.51
34.498
34.487
34.476
34.465
34.454
34.444
34.434
34.426
34.419
34.413
34.408
34.403
34.398
34.394
34.389
34.385
34.38
34.376
34.371
34.366
34.36
34.354
34.346
34.338
34.329
34.319
34.308
34.295
34.281
34.265
34.249
34.232
34.216
34.201
34.187
34.175
34.166
34.16
34.158
34.161
34.17
34.185
34.207
34.238
34.276
34.324
34.381
34.448
34.526
34.613
34.71
34.816
34.928
35.047
35.169
35.292
35.416
35.536
35.653
35.762
35.863
35.954
36.034
36.101
36.156
36.199
36.23
36.25
36.259
36.259
36.251
36.235
36.214
36.189
36.16
36.129
36.098
36.065
36.034
36.004
35.976
35.952
35.93
35.911
35.896
35.883
35.874
35.868
35.865
35.863
35.863
35.864
35.865
35.865
35.866
35.866
35.865
35.863
35.86
35.854
35.846
35.836
35.823
35.807
35.788
35.767
35.745
35.721
35.696
35.672
35.65
35.63
35.613
35.599
35.589
35.583
35.58
35.58
35.582
35.586
35.592
35.599
35.608
35.617
35.626
35.634
35.642
35.649
35.655
35.659
35.661
35.661
35.658
35.653
35.644
35.634
35.62
35.604
35.586
35.566
35.545
35.522
35.499
35.475
35.45
35.426
35.402
35.378
35.354
35.331
35.309
35.288
35.268
35.248
35.229
35.21
35.191
35.171
35.15
35.128
35.107
35.086
35.066
35.047
35.029
35.012
34.995
34.98
34.965
34.95
34.936
34.923
34.909
34.895
34.882
34.869
34.855
34.842
34.829
34.816
34.802
34.788
34.775
34.761
34.748
34.735
34.723
34.712
34.7
34.69
34.679
34.67
34.662
34.654
34.647
34.641
34.635
34.63
34.625
34.62
34.615
34.609
34.603
34.595
34.587
34.577
34.566
34.553
34.539
34.525
34.508
34.491
34.473
34.455
34.436
34.419
34.403
34.389
34.378
34.372
34.37
34.376
34.388
34.41
34.441
34.484
34.537
34.602
34.677
34.763
34.858
34.963
35.076
35.197
35.323
35.453
35.584
35.715
35.841
35.961
36.071
36.171
36.259
36.332
36.392
36.437
36.469
36.489
36.497
36.495
36.485
36.469
36.448
36.424
36.397
36.369
36.341
36.313
36.286
36.26
36.235
36.211
36.188
36.167
36.146
36.127
36.11
36.095
36.081
36.07
36.06
36.052
36.045
36.04
36.035
36.032
36.029
36.026
36.023
36.018
36.011
36.003
35.992
35.979
35.964
35.947
35.929
35.91
35.891
35.871
35.853
35.835
35.82
35.807
35.797
35.79
35.786
35.784
35.785
35.789
35.794
35.801
35.81
35.82
35.83
35.84
35.849
35.857
35.864
35.869
35.872
35.873
35.871
35.867
35.861
35.851
35.84
35.825
35.808
35.788
35.766
35.742
35.716
35.69
35.663
35.636
35.61
35.585
35.56
35.537
35.515
35.495
35.476
35.458
35.44
35.424
35.407
35.391
35.374
35.357
35.339
35.321
35.301
35.281
35.259
35.238
35.217
35.196
35.176
35.157
35.139
35.122
35.104
35.086
35.067
35.048
35.03
35.011
34.992
34.973
34.955
34.937
34.92
34.904
34.89
34.877
34.866
34.855
34.846
34.838
34.831
34.825
34.819
34.814
34.809
34.805
34.801
34.798
34.795
34.792
34.787
34.782
34.775
34.768
34.759
34.75
34.741
34.731
34.721
34.71
34.699
34.687
34.675
34.663
34.65
34.638
34.625
34.612
34.599
34.587
34.576
34.567
34.559
34.555
34.553
34.554
34.56
34.57
34.587
34.612
34.646
34.689
34.743
34.807
34.882
34.968
35.064
35.17
35.285
35.408
35.536
35.667
35.798
35.927
36.052
36.17
36.279
36.377
36.464
36.538
36.599
36.647
36.683
36.708
36.722
36.727
36.723
36.711
36.693
36.669
36.642
36.612
36.58
36.548
36.517
36.486
36.457
36.429
36.403
36.38
36.359
36.34
36.323
36.308
36.294
36.282
36.271
36.261
36.251
36.243
36.234
36.226
36.217
36.208
36.197
36.185
36.172
36.158
36.143
36.127
36.11
36.093
36.075
36.057
36.04
36.024
36.009
35.997
35.987
35.98
35.975
35.971
35.97
35.97
35.973
35.979
35.987
35.996
36.006
36.016
36.027
36.037
36.046
36.054
36.059
36.061
36.059
36.054
36.047
36.037
36.026
36.013
35.999
35.985
35.97
35.957
35.944
35.933
35.923
35.914
35.906
35.899
35.891
35.883
35.874
35.864
35.853
35.841
35.828
35.814
35.799
35.782
35.765
35.747
35.73
35.712
35.693
35.675
35.656
35.637
35.617
35.597
35.577
35.557
35.537
35.518
35.499
35.48
35.461
35.442
35.423
35.404
35.384
35.365
35.346
35.327
35.307
35.286
35.266
35.244
35.222
35.2
35.178
35.156
35.134
35.113
35.093
35.073
35.053
35.033
35.011
34.989
34.966
34.941
34.917
34.891
34.866
34.84
34.814
34.789
34.764
34.74
34.717
34.695
34.674
34.656
34.64
34.627
34.617
34.611
34.611
34.616
34.63
34.651
34.682
34.722
34.772
34.832
34.902
34.982
35.071
35.17
35.277
35.391
35.51
35.632
35.755
35.876
35.993
36.105
36.208
36.302
36.386
36.458
36.518
36.565
36.6
36.623
36.634
36.634
36.626
36.611
36.591
36.567
36.542
36.515
36.49
36.465
36.443
36.423
36.405
36.391
36.378
36.368
36.358
36.35
36.341
36.332
36.323
36.313
36.302
36.29
36.276
36.262
36.247
36.23
36.212
36.193
36.173
36.152
36.131
36.109
36.087
36.064
36.041
36.018
35.997
35.976
35.956
35.937
35.921
35.907
35.897
35.889
35.885
35.884
35.886
35.891
35.898
35.906
35.915
35.925
35.935
35.944
35.951
35.955
35.957
35.956
35.953
35.948
35.941
35.932
35.92
35.906
35.889
35.869
35.847
35.823
35.797
35.769
35.741
35.714
35.688
35.663
35.64
35.618
35.596
35.576
35.555
35.535
35.515
35.496
35.476
35.455
35.434
35.413
35.391
35.37
35.348
35.327
35.306
35.286
35.265
35.245
35.225
35.205
35.187
35.169
35.152
35.136
35.12
35.105
35.09
35.075
35.061
35.048
35.035
35.024
35.015
35.008
35.002
34.998
34.995
34.992
34.988
34.984
34.978
34.97
34.96
34.948
34.934
34.917
34.9
34.88
34.86
34.84
34.82
34.8
34.783
34.767
34.754
34.744
34.736
34.732
34.731
34.735
34.744
34.76
34.784
34.816
34.858
34.912
34.977
35.054
35.143
35.243
35.354
35.473
35.599
35.729
35.861
35.993
36.123
36.248
36.366
36.476
36.575
36.664
36.74
36.803
36.853
36.89
36.914
36.927
36.929
36.923
36.91
36.891
36.868
36.843
36.817
36.79
36.763
36.736
36.71
36.686
36.663
36.64
36.619
36.599
36.58
36.562
36.546
36.533
36.52
36.509
36.498
36.488
36.477
36.467
36.456
36.446
36.434
36.423
36.41
36.396
36.381
36.365
36.346
36.326
36.303
36.278
36.252
36.224
36.196
36.169
36.145
36.122
36.103
36.087
36.075
36.066
36.061
36.06
36.063
36.069
36.077
36.087
36.098
36.108
36.117
36.125
36.131
36.135
36.137
36.137
36.135
36.13
36.123
36.114
36.102
36.088
36.07
36.05
36.027
36.003
35.976
35.948
35.92
35.892
35.865
35.839
35.814
35.79
35.769
35.749
35.731
35.714
35.698
35.682
35.666
35.649
35.632
35.613
35.594
35.573
35.552
35.53
35.508
35.485
35.462
35.438
35.415
35.392
35.369
35.347
35.326
35.305
35.286
35.268
35.252
35.236
35.222
35.207
35.193
35.177
35.161
35.145
35.127
35.108
35.087
35.066
35.043
35.02
34.997
34.976
34.956
34.939
34.925
34.914
34.907
34.905
34.909
34.92
34.938
34.965
35.002
35.048
35.105
35.173
35.251
35.339
35.437
35.544
35.658
35.779
35.904
36.031
36.158
36.283
36.403
36.517
36.622
36.716
36.798
36.868
36.926
36.972
37.007
37.031
37.045
37.049
37.045
37.035
37.019
36.998
36.974
36.947
36.917
36.886
36.854
36.82
36.787
36.754
36.723
36.693
36.666
36.641
36.619
36.599
36.583
36.57
36.561
36.554
36.551
36.55
36.551
36.553
36.555
36.557
36.558
36.558
36.557
36.553
36.548
36.539
36.528
36.516
36.501
36.486
36.471
36.455
36.441
36.428
36.417
36.408
36.402
36.4
36.402
36.406
36.414
36.424
36.436
36.449
36.463
36.477
36.491
36.502
36.511
36.516
36.518
36.515
36.508
36.496
36.481
36.461
36.437
36.409
36.378
36.344
36.308
36.269
36.229
36.186
36.143
36.098
36.052
36.006
35.959
35.913
35.867
35.823
35.781
35.74
35.703
35.668
35.635
35.605
35.578
35.554
35.532
35.513
35.497
35.483
35.472
35.462
35.453
35.445
35.436
35.426
35.416
35.404
35.391
35.376
35.36
35.343
35.323
35.302
35.28
35.257
35.232
35.207
35.182
35.156
35.13
35.103
35.077
35.052
35.028
35.007
34.988
34.973
34.962
34.956
34.956
34.962
34.975
34.996
35.027
35.068
35.12
35.183
35.258
35.346
35.445
35.554
35.672
35.797
35.926
36.058
36.19
36.32
36.445
36.564
36.675
36.776
36.867
36.947
37.014
37.07
37.113
37.145
37.167
37.178
37.18
37.174
37.16
37.139
37.114
37.084
37.051
37.016
36.979
36.942
36.906
36.871
36.838
36.809
36.782
36.758
36.737
36.718
36.702
36.687
36.675
36.663
36.651
36.64
36.627
36.613
36.598
36.58
36.561
36.54
36.518
36.495
36.471
36.447
36.422
36.399
36.376
36.356
36.338
36.324
36.312
36.303
36.298
36.296
36.296
36.299
36.304
36.311
36.319
36.329
36.34
36.351
36.364
36.377
36.389
36.4
36.41
36.417
36.421
36.421
36.417
36.408
36.395
36.379
36.358
36.335
36.309
36.282
36.255
36.228
36.202
36.176
36.15
36.126
36.101
36.078
36.054
36.03
36.005
35.98
35.954
35.927
35.9
35.873
35.846
35.819
35.791
35.764
35.738
35.712
35.686
35.661
35.636
35.611
35.586
35.561
35.534
35.508
35.482
35.456
35.432
35.407
35.385
35.363
35.344
35.325
35.308
35.291
35.274
35.257
35.238
35.218
35.196
35.174
35.15
35.125
35.099
35.073
35.048
35.025
35.004
34.986
34.972
34.961
34.955
34.954
34.959
34.97
34.99
35.018
35.056
35.105
35.164
35.236
35.319
35.413
35.517
35.631
35.752
35.881
36.013
36.149
36.286
36.422
36.555
36.681
36.8
36.908
37.005
37.09
37.162
37.22
37.265
37.298
37.317
37.324
37.321
37.309
37.289
37.262
37.23
37.195
37.157
37.118
37.08
37.042
37.007
36.973
36.943
36.915
36.89
36.868
36.849
36.833
36.818
36.805
36.793
36.781
36.768
36.755
36.74
36.724
36.706
36.686
36.664
36.639
36.613
36.586
36.558
36.53
36.503
36.476
36.449
36.424
36.401
36.381
36.364
36.351
36.341
36.334
36.331
36.332
36.335
36.341
36.349
36.36
36.372
36.385
36.398
36.41
36.419
36.425
36.427
36.426
36.42
36.411
36.398
36.382
36.364
36.344
36.322
36.299
36.276
36.252
36.228
36.203
36.178
36.152
36.127
36.101
36.075
36.049
36.023
35.996
35.969
35.942
35.914
35.887
35.86
35.832
35.805
35.777
35.75
35.723
35.697
35.671
35.645
35.619
35.594
35.569
35.546
35.523
35.502
35.482
35.463
35.446
35.429
35.414
35.399
35.385
35.371
35.357
35.341
35.324
35.305
35.285
35.264
35.242
35.218
35.194
35.169
35.143
35.118
35.094
35.07
35.047
35.026
35.007
34.989
34.974
34.963
34.955
34.952
34.956
34.967
34.986
35.014
35.052
35.1
35.16
35.231
