Trial 3:3back
36.9
36.877
36.855
36.836
36.819
36.803
36.79
36.777
36.766
36.756
36.747
36.737
36.726
36.714
36.699
36.681
36.66
36.636
36.608
36.577
36.543
36.507
36.469
36.43
36.391
36.351
36.312
36.272
36.231
36.191
36.149
36.107
36.062
36.016
35.967
35.916
35.863
35.809
35.752
35.696
35.639
35.583
35.529
35.479
35.431
35.385
35.341
35.299
35.258
35.218
35.179
35.139
35.098
35.059
35.02
34.982
34.944
34.906
34.868
34.83
34.793
34.755
34.718
34.679
34.641
34.603
34.565
34.527
34.489
34.452
34.415
34.38
34.347
34.316
34.286
34.259
34.233
34.21
34.187
34.166
34.144
34.123
34.101
34.079
34.058
34.036
34.015
33.993
33.971
33.949
33.928
33.907
33.887
33.868
33.851
33.834
33.817
33.8
33.784
33.766
33.749
33.731
33.711
33.691
33.67
33.647
33.623
33.598
33.571
33.542
33.513
33.484
33.456
33.429
33.403
33.378
33.354
33.33
33.306
33.282
33.259
33.239
33.222
33.207
33.193
33.181
33.168
33.156
33.142
33.127
33.11
33.092
33.073
33.055
33.036
33.018
33.002
32.991
32.988
32.996
33.02
33.063
33.129
33.219
33.335
33.478
33.647
33.841
34.057
34.292
34.543
34.806
35.076
35.348
35.619
35.885
36.142
36.388
36.618
36.831
37.026
37.2
37.354
37.487
37.598
37.689
37.759
37.812
37.847
37.868
37.872
37.86
37.837
37.805
37.767
37.726
37.685
37.646
37.612
37.585
37.565
37.552
37.547
37.55
37.558
37.571
37.586
37.604
37.621
37.638
37.654
37.667
37.678
37.685
37.688
37.688
37.685
37.676
37.663
37.643
37.617
37.584
37.544
37.497
37.444
37.386
37.323
37.258
37.192
37.126
37.061
36.997
36.936
36.878
36.823
36.771
36.722
36.675
36.63
36.587
36.547
36.509
36.473
36.441
36.412
36.387
36.365
36.346
36.329
36.318
36.311
36.308
36.308
36.308
36.307
36.303
36.294
36.28
36.261
36.236
36.205
36.171
36.133
36.092
36.05
36.007
35.963
35.92
35.876
35.833
35.79
35.748
35.705
35.664
35.622
35.581
35.539
35.497
35.455
35.413
35.371
35.329
35.286
35.245
35.205
35.167
35.129
35.093
35.059
35.025
34.991
34.957
34.922
34.887
34.85
34.812
34.772
34.732
34.691
34.651
34.611
34.573
34.536
34.5
34.466
34.434
34.403
34.375
34.349
34.324
34.301
34.279
34.258
34.236
34.213
34.19
34.165
34.139
34.11
34.08
34.048
34.015
33.982
33.951
33.921
33.894
33.87
33.849
33.83
33.813
33.798
33.785
33.773
33.76
33.748
33.734
33.718
33.699
33.678
33.653
33.626
33.596
33.563
33.529
33.494
33.459
33.427
33.396
33.369
33.344
33.322
33.303
33.287
33.272
33.259
33.247
33.236
33.225
33.214
33.201
33.187
33.172
33.154
33.134
33.113
33.089
33.064
33.037
33.008
32.979
32.95
32.922
32.895
32.871
32.85
32.832
32.816
32.802
32.79
32.78
32.772
32.763
32.754
32.744
32.733
32.721
32.707
32.692
32.676
32.659
32.642
32.625
32.608
32.592
32.578
32.564
32.552
32.54
32.529
32.516
32.502
32.488
32.473
32.459
32.445
32.433
32.424
32.42
32.421
32.43
32.449
32.48
32.526
32.59
32.673
32.776
32.902
33.051
33.224
33.419
33.636
33.871
34.121
34.381
34.648
34.916
35.182
35.442
35.691
35.926
36.144
36.342
36.518
36.671
36.799
36.904
36.986
37.045
37.085
37.107
37.114
37.108
37.092
37.069
37.041
37.012
36.983
36.954
36.927
36.902
36.879
36.857
36.837
36.819
36.801
36.785
36.77
36.756
36.746
36.738
36.733
36.73
36.729
36.731
36.734
36.737
36.741
36.743
36.743
36.739
36.73
36.717
36.698
36.673
36.642
36.605
36.562
36.515
36.464
36.411
36.355
36.3
36.246
36.193
36.142
36.093
36.047
36.002
35.961
35.923
35.891
35.865
35.845
35.83
35.818
35.811
35.805
35.803
35.803
35.805
35.808
35.811
35.814
35.815
35.814
35.81
35.802
35.79
35.774
35.755
35.732
35.707
35.68
35.652
35.622
35.593
35.564
35.535
35.507
35.48
35.453
35.425
35.398
35.37
35.341
35.311
35.28
35.247
35.212
35.176
35.137
35.098
35.057
35.017
34.977
34.938
34.9
34.864
34.829
34.796
34.764
34.733
34.702
34.673
34.644
34.617
34.59
34.563
34.536
34.509
34.483
34.456
34.429
34.402
34.375
34.349
34.324
34.299
34.276
34.254
34.233
34.214
34.196
34.179
34.163
34.146
34.13
34.112
34.094
34.075
34.054
34.034
34.013
33.992
33.97
33.948
33.925
33.903
33.881
33.859
33.836
33.813
33.79
33.767
33.745
33.725
33.705
33.686
33.668
33.651
33.636
33.62
33.604
33.588
33.571
33.553
33.535
33.515
33.495
33.475
33.455
33.435
33.415
33.395
33.376
33.356
33.337
33.319
33.301
33.285
33.27
33.257
33.245
33.234
33.223
33.211
33.2
33.188
33.176
33.163
33.15
33.137
33.124
33.11
33.096
33.081
33.065
33.049
33.034
33.02
33.006
32.992
32.979
32.967
32.956
32.947
32.939
32.931
32.925
32.919
32.912
32.905
32.897
32.887
32.874
32.861
32.845
32.827
32.807
32.786
32.764
32.742
32.721
32.703
32.69
32.684
32.687
32.702
32.73
32.773
32.833
32.913
33.014
33.135
33.277
33.439
33.618
33.813
34.021
34.239
34.463
34.69
34.917
35.141
35.358
35.567
35.763
35.946
36.111
36.258
36.386
36.494
36.582
36.649
36.697
36.727
36.741
36.739
36.725
36.702
36.672
36.637
36.601
36.564
36.529
36.495
36.465
36.438
36.415
36.395
36.377
36.361
36.346
36.334
36.322
36.31
36.297
36.284
36.27
36.254
36.235
36.214
36.19
36.165
36.139
36.112
36.085
36.057
36.029
36.001
35.973
35.944
35.915
35.886
35.856
35.823
35.788
35.749
35.706
35.659
35.611
35.561
35.511
35.462
35.414
35.37
35.33
35.295
35.265
35.24
35.22
35.204
35.194
35.187
35.183
35.181
35.183
35.186
35.19
35.194
35.198
35.2
35.201
35.199
35.193
35.182
35.168
35.15
35.129
35.106
35.081
35.055
35.028
35.001
34.974
34.947
34.919
34.89
34.86
34.828
34.795
34.76
34.724
34.688
34.651
34.615
34.58
34.546
34.516
34.488
34.465
34.444
34.425
34.405
34.385
34.363
34.339
34.313
34.285
34.255
34.224
34.191
34.158
34.126
34.093
34.06
34.029
33.998
33.968
33.94
33.912
33.886
33.862
33.841
33.821
33.803
33.786
33.771
33.757
33.743
33.729
33.714
33.699
33.682
33.665
33.649
33.632
33.616
33.599
33.58
33.561
33.541
33.521
33.502
33.484
33.47
33.459
33.451
33.445
33.442
33.44
33.439
33.439
33.437
33.434
33.428
33.42
33.409
33.396
33.379
33.361
33.342
33.325
33.309
33.296
33.285
33.275
33.266
33.258
33.249
33.239
33.229
33.218
33.206
33.195
33.183
33.171
33.158
33.146
33.134
33.123
33.111
33.098
33.084
33.067
33.048
33.028
33.006
32.985
32.964
32.945
32.928
32.913
32.9
32.89
32.882
32.875
32.87
32.864
32.858
32.85
32.84
32.831
32.82
32.81
32.799
32.789
32.779
32.77
32.761
32.751
32.742
32.733
32.724
32.715
32.705
32.695
32.686
32.676
32.667
32.657
32.648
32.639
32.631
32.624
32.619
32.614
32.611
32.61
32.611
32.616
32.624
32.639
32.66
32.689
32.73
32.785
32.859
32.952
33.066
33.202
33.36
33.538
33.734
33.945
34.167
34.398
34.635
34.872
35.107
35.336
35.554
35.76
35.949
36.119
36.268
36.394
36.498
36.58
36.641
36.681
36.702
36.707
36.698
36.676
36.646
36.609
36.567
36.524
36.481
36.439
36.4
36.362
36.327
36.295
36.264
36.237
36.212
36.19
36.17
36.153
36.138
36.126
36.115
36.106
36.097
36.09
36.082
36.074
36.065
36.054
36.041
36.026
36.008
35.987
35.963
35.937
35.907
35.876
35.841
35.805
35.767
35.727
35.687
35.646
35.605
35.564
35.522
35.48
35.438
35.396
35.354
35.314
35.277
35.242
35.211
35.185
35.162
35.142
35.124
35.108
35.095
35.085
35.077
35.073
35.07
35.07
35.071
35.073
35.075
35.077
35.078
35.077
35.075
35.07
35.062
35.051
35.037
35.021
35.005
34.988
34.971
34.955
34.94
34.925
34.911
34.896
34.88
34.863
34.844
34.821
34.796
34.768
34.738
34.705
34.672
34.638
34.604
34.571
34.539
34.51
34.483
34.458
34.437
34.417
34.399
34.382
34.365
34.349
34.333
34.318
34.301
34.285
34.267
34.247
34.226
34.203
34.179
34.153
34.128
34.103
34.079
34.055
34.031
34.009
33.989
33.97
33.953
33.939
33.926
33.915
33.905
33.894
33.884
33.874
33.863
33.853
33.844
33.835
33.827
33.818
33.81
33.802
33.793
33.786
33.779
33.772
33.765
33.756
33.745
33.732
33.717
33.699
33.678
33.655
33.632
33.609
33.587
33.567
33.547
33.53
33.514
33.5
33.488
33.476
33.465
33.456
33.447
33.44
33.434
33.426
33.418
33.409
33.399
33.389
33.378
33.367
33.355
33.344
33.333
33.323
33.314
33.306
33.3
33.295
33.292
33.29
33.288
33.286
33.282
33.278
33.272
33.265
33.256
33.247
33.237
33.227
33.218
33.209
33.2
33.193
33.187
33.182
33.177
33.174
33.17
33.166
33.162
33.156
33.149
33.14
33.131
33.121
33.11
33.099
33.087
33.075
33.064
33.054
33.045
33.038
33.031
33.026
33.021
33.016
33.012
33.008
33.005
33.001
32.997
32.993
32.989
32.983
32.977
32.969
32.961
32.95
32.939
32.926
32.914
32.903
32.895
32.891
32.893
32.903
32.921
32.952
32.995
33.054
33.13
33.222
33.334
33.465
33.613
33.775
33.95
34.136
34.332
34.536
34.744
34.955
35.165
35.372
35.573
35.764
35.942
36.106
36.252
36.379
36.487
36.573
36.639
36.683
36.708
36.714
36.705
36.68
36.643
36.597
36.544
36.491
36.438
36.389
36.345
36.304
36.27
36.24
36.215
36.194
36.175
36.158
36.142
36.127
36.112
36.097
36.081
36.065
36.05
36.037
36.025
36.014
36.004
35.994
35.984
35.972
35.959
35.944
35.926
35.905
35.883
35.857
35.829
35.798
35.765
35.732
35.696
35.66
35.624
35.587
35.549
35.512
35.475
35.438
35.403
35.37
35.34
35.314
35.292
35.273
35.259
35.251
35.249
35.252
35.259
35.269
35.281
35.294
35.306
35.317
35.325
35.328
35.328
35.324
35.316
35.306
35.293
35.279
35.264
35.248
35.233
35.217
35.201
35.184
35.167
35.149
35.13
35.11
35.09
35.069
35.047
35.024
35.002
34.978
34.954
34.93
34.906
34.882
34.856
34.83
34.804
34.777
34.75
34.722
34.694
34.666
34.639
34.613
34.589
34.566
34.544
34.524
34.506
34.49
34.476
34.463
34.452
34.441
34.431
34.421
34.41
34.398
34.384
34.369
34.352
34.334
34.316
34.296
34.276
34.257
34.241
34.229
34.221
34.216
34.213
34.211
34.211
34.21
34.208
34.205
34.201
34.196
34.188
34.178
34.165
34.149
34.129
34.107
34.084
34.059
34.033
34.008
33.984
33.961
33.939
33.92
33.904
33.89
33.88
33.872
33.867
33.863
33.861
33.86
33.859
33.859
33.856
33.851
33.842
33.83
33.814
33.796
33.775
33.753
33.731
33.71
33.692
33.675
33.661
33.649
33.639
33.632
33.626
33.622
33.618
33.615
33.612
33.608
33.603
33.595
33.583
33.568
33.551
33.532
33.513
33.493
33.473
33.455
33.44
33.428
33.419
33.414
33.412
33.413
33.418
33.425
33.433
33.443
33.454
33.465
33.475
33.483
33.489
33.491
33.489
33.483
33.471
33.454
33.433
33.409
33.385
33.36
33.336
33.315
33.297
33.284
33.276
33.273
33.275
33.281
33.292
33.312
33.341
33.382
33.437
33.508
33.597
33.705
33.833
33.979
34.142
34.32
34.51
34.709
34.913
35.118
35.321
35.517
35.704
35.88
36.042
36.187
36.316
36.426
36.518
36.592
36.647
36.684
36.705
36.711
36.704
36.688
36.663
36.632
36.597
36.56
36.522
36.484
36.447
36.412
36.379
36.348
36.323
36.308
36.301
36.301
36.306
36.312
36.317
36.318
36.313
36.302
36.285
36.261
36.231
36.197
36.161
36.122
36.084
36.045
36.008
35.971
35.935
35.899
35.864
35.829
35.795
35.759
35.724
35.689
35.654
35.619
35.585
35.552
35.521
35.493
35.467
35.443
35.421
35.401
35.383
35.367
35.352
35.338
35.324
35.312
35.3
35.29
35.281
35.273
35.266
35.261
35.257
35.255
35.254
35.255
35.256
35.257
35.258
35.257
35.255
35.25
35.242
35.23
35.215
35.194
35.162
35.121
35.072
35.017
34.96
34.905
34.853
34.808
34.77
34.74
34.719
34.705
34.699
34.698
34.7
34.703
34.705
34.705
34.701
34.693
34.68
34.662
34.639
34.611
34.578
34.542
34.505
34.468
34.431
34.397
34.366
34.339
34.315
34.294
34.276
34.259
34.244
34.228
34.214
34.198
34.182
34.165
34.146
34.126
34.105
34.084
34.062
34.041
34.022
34.005
33.989
33.976
33.963
33.953
33.943
33.933
33.922
33.91
33.898
33.886
33.874
33.863
33.853
33.845
33.839
33.835
33.833
33.832
33.833
33.834
33.833
33.832
33.828
33.822
33.814
33.806
33.797
33.787
33.779
33.77
33.762
33.756
33.75
33.745
33.74
33.735
33.73
33.723
33.715
33.706
33.697
33.687
33.677
33.667
33.657
33.647
33.638
33.629
33.619
33.609
33.599
33.586
33.573
33.559
33.544
33.529
33.514
33.5
33.486
33.473
33.462
33.453
33.445
33.439
33.434
33.431
33.429
33.427
33.425
33.423
33.421
33.418
33.416
33.414
33.411
33.41
33.408
33.408
33.408
33.407
33.407
33.406
33.405
33.404
33.403
33.401
33.399
33.396
33.392
33.387
33.382
33.377
33.37
33.364
33.358
33.351
33.345
33.339
33.333
33.328
33.324
33.321
33.318
33.316
33.315
33.314
33.314
33.314
33.314
33.316
33.32
33.328
33.34
33.36
33.39
33.431
33.488
33.563
33.657
33.773
33.911
34.071
34.252
34.451
34.666
34.893
35.127
35.362
35.593
35.813
36.019
36.207
36.375
36.522
36.646
36.747
36.825
36.881
36.918
36.939
36.945
36.941
36.927
36.906
36.881
36.853
36.824
36.793
36.763
36.732
36.702
36.673
36.644
36.617
36.59
36.566
36.543
36.523
36.504
36.487
36.472
36.459
36.448
36.437
36.427
36.417
36.405
36.393
36.379
36.364
36.348
36.329
36.309
36.287
36.263
36.236
36.208
36.177
36.146
36.117
36.094
36.076
36.06
36.045
36.029
36.011
35.989
35.963
35.932
35.897
35.858
35.818
35.778
35.738
35.7
35.665
35.634
35.607
35.585
35.568
35.556
35.548
35.545
35.545
35.549
35.555
35.564
35.573
35.582
35.59
35.596
35.6
35.601
35.598
35.591
35.579
35.562
35.542
35.519
35.494
35.468
35.442
35.416
35.391
35.368
35.347
35.328
35.31
35.293
35.275
35.258
35.24
35.221
35.2
35.178
35.156
35.133
35.111
35.088
35.066
35.044
35.022
35.001
34.98
34.959
34.937
34.915
34.892
34.868
34.844
34.819
34.794
34.769
34.745
34.722
34.7
34.679
34.66
34.643
34.628
34.614
34.601
34.588
34.576
34.563
34.55
34.538
34.525
34.512
34.499
34.486
34.474
34.461
34.45
34.439
34.43
34.423
34.416
34.41
34.404
34.4
34.397
34.394
34.393
34.392
34.391
34.391
34.39
34.389
34.385
34.38
34.373
34.364
34.356
34.348
34.34
34.334
34.329
34.327
34.323
34.314
34.299
34.28
34.258
34.235
34.212
34.191
34.174
34.16
34.151
34.147
34.147
34.15
34.154
34.161
34.168
34.176
34.185
34.194
34.203
34.211
34.218
34.224
34.228
34.23
34.23
34.229
34.225
34.218
34.209
34.197
34.183
34.166
34.147
34.125
34.103
34.082
34.063
34.046
34.032
34.02
34.011
34.004
33.999
33.995
33.991
33.988
33.985
33.982
33.978
33.972
33.965
33.956
33.944
33.929
33.912
33.892
33.87
33.848
33.827
33.807
33.79
33.776
33.768
33.765
33.771
33.787
33.813
33.854
33.909
33.982
34.075
34.188
34.321
34.472
34.642
34.827
35.026
35.234
35.448
35.664
35.878
36.088
36.289
36.48
36.657
36.818
36.963
37.09
37.198
37.288
37.36
37.415
37.453
37.476
37.487
37.486
37.475
37.455
37.43
37.4
37.369
37.337
37.306
37.276
37.248
37.223
37.199
37.178
37.157
37.137
37.118
37.099
37.079
37.058
37.037
37.017
36.997
36.978
36.96
36.945
36.931
36.918
36.907
36.895
36.882
36.868
36.851
36.831
36.808
36.783
36.753
36.72
36.683
36.643
36.601
36.557
36.512
36.467
36.423
36.381
36.342
36.305
36.274
36.247
36.226
36.209
36.197
36.188
36.183
36.181
36.181
36.183
36.186
36.19
36.195
36.2
36.205
36.209
36.213
36.216
36.217
36.216
36.213
36.207
36.197
36.185
36.171
36.154
36.135
36.114
36.093
36.072
36.051
36.032
36.014
35.997
35.979
35.96
35.94
35.917
35.892
35.865
35.835
35.803
35.77
35.735
35.701
35.667
35.635
35.605
35.579
35.556
35.537
35.521
35.508
35.499
35.491
35.484
35.478
35.471
35.462
35.45
35.435
35.417
35.395
35.369
35.34
35.309
35.276
35.242
35.208
35.175
35.143
35.113
35.085
35.059
35.036
35.014
34.995
34.977
34.96
34.944
34.927
34.91
34.893
34.875
34.857
34.838
34.819
34.799
34.779
34.76
34.74
34.72
34.701
34.682
34.664
34.646
34.631
34.618
34.608
34.6
34.594
34.59
34.585
34.583
34.582
34.584
34.588
34.592
34.597
34.601
34.603
34.604
34.602
34.598
34.591
34.581
34.57
34.557
34.542
34.526
34.509
34.491
34.472
34.453
34.433
34.412
34.391
34.371
34.351
34.331
34.311
34.292
34.274
34.257
34.24
34.223
34.206
34.19
34.174
34.16
34.148
34.14
34.135
34.134
34.135
34.137
34.138
34.135
34.129
34.119
34.104
34.085
34.063
34.038
34.011
33.983
33.955
33.929
33.903
33.88
33.859
33.841
33.826
33.813
33.801
33.79
33.78
33.769
33.758
33.746
33.732
33.72
33.708
33.698
33.691
33.69
33.695
33.71
33.738
33.78
33.84
33.918
34.019
34.142
34.287
34.454
34.64
34.843
35.06
35.285
35.516
35.748
35.977
36.2
36.414
36.617
36.805
36.978
37.134
37.273
37.395
37.5
37.588
37.659
37.713
37.75
37.771
37.778
37.773
37.757
37.734
37.706
37.675
37.642
37.608
37.577
37.549
37.527
37.509
37.496
37.487
37.482
37.481
37.483
37.488
37.494
37.502
37.51
37.518
37.526
37.534
37.541
37.547
37.552
37.556
37.559
37.56
37.558
37.552
37.54
37.524
37.502
37.475
37.443
37.407
37.367
37.326
37.284
37.242
37.202
37.165
37.131
37.101
37.074
37.049
37.026
37.004
36.983
36.963
36.945
36.928
36.913
36.9
36.888
36.878
36.87
36.862
36.855
36.848
36.841
36.833
36.823
36.812
36.798
36.781
36.763
36.742
36.72
36.696
36.67
36.644
36.618
36.593
36.567
36.543
36.519
36.497
36.476
36.456
36.437
36.418
36.399
36.38
36.36
36.34
36.319
36.297
36.275
36.252
36.228
36.203
36.178
36.152
36.125
36.096
36.065
36.033
36.0
35.965
35.93
35.895
35.86
35.825
35.791
35.759
35.729
35.699
35.673
35.65
35.632
35.619
35.611
35.606
35.603
35.6
35.597
35.592
35.585
35.575
35.561
35.544
35.523
35.5
35.473
35.445
35.415
35.386
35.358
35.332
35.309
35.288
35.271
35.256
35.244
35.235
35.227
35.22
35.214
35.207
35.2
35.192
35.182
35.17
35.157
35.143
35.127
35.111
35.094
35.077
35.061
35.047
35.034
35.023
35.014
35.005
34.997
34.988
34.978
34.966
34.95
34.931
34.909
34.883
34.854
34.822
34.789
34.756
34.723
34.692
34.662
34.633
34.606
34.582
34.562
34.545
34.531
34.519
34.508
34.497
34.485
34.47
34.452
34.43
34.404
34.375
34.343
34.308
34.272
34.235
34.198
34.163
34.129
34.099
34.072
34.05
34.033
34.021
34.012
34.006
34.002
33.999
33.997
33.994
33.989
33.982
33.972
33.959
33.943
33.924
33.902
33.877
33.851
33.824
33.798
33.773
33.748
33.725
33.703
33.684
33.667
33.653
33.642
33.635
33.632
33.633
33.64
33.654
33.677
33.711
33.759
33.823
33.904
34.006
34.129
34.273
34.438
34.624
34.828
35.046
35.277
35.516
35.759
36.002
36.24
36.471
36.691
36.898
37.088
37.259
37.412
37.545
37.659
37.754
37.83
37.89
37.934
37.964
37.982
37.989
37.988
37.98
37.967
37.949
37.93
37.909
37.887
37.866
37.844
37.824
37.806
37.79
37.777
37.767
37.76
37.756
37.754
37.756
37.759
37.763
37.768
37.774
37.78
37.785
37.79
37.794
37.797
37.798
37.798
37.794
37.786
37.775
37.758
37.737
37.71
37.677
37.639
37.596
37.548
37.497
37.444
37.39
37.336
37.283
37.234
37.187
37.144
37.105
37.071
37.041
37.016
36.995
36.977
36.962
36.949
36.937
36.926
36.915
36.904
36.893
36.883
36.873
36.865
36.858
36.852
36.848
36.846
36.846
36.847
36.846
36.843
36.835
36.822
