Trial 3:3back
35.724
35.732
35.749
35.772
35.802
35.837
35.877
35.919
35.962
36.005
36.045
36.08
36.11
36.134
36.152
36.164
36.17
36.17
36.166
36.157
36.144
36.127
36.105
36.08
36.052
36.021
35.989
35.956
35.924
35.892
35.861
35.831
35.802
35.774
35.746
35.717
35.687
35.657
35.626
35.594
35.562
35.529
35.497
35.465
35.433
35.4
35.367
35.334
35.301
35.268
35.237
35.207
35.179
35.153
35.128
35.105
35.084
35.063
35.043
35.024
35.006
34.989
34.973
34.958
34.943
34.928
34.912
34.895
34.874
34.852
34.827
34.802
34.776
34.75
34.726
34.704
34.684
34.667
34.651
34.637
34.626
34.616
34.609
34.605
34.602
34.601
34.599
34.596
34.592
34.587
34.58
34.571
34.561
34.551
34.54
34.528
34.516
34.502
34.488
34.474
34.46
34.446
34.433
34.421
34.41
34.399
34.388
34.377
34.366
34.357
34.348
34.338
34.328
34.316
34.304
34.291
34.278
34.265
34.254
34.245
34.237
34.231
34.228
34.226
34.226
34.226
34.226
34.226
34.227
34.231
34.241
34.258
34.285
34.327
34.385
34.463
34.563
34.685
34.831
34.998
35.184
35.389
35.608
35.838
36.076
36.318
36.559
36.796
37.024
37.238
37.435
37.611
37.763
37.891
37.995
38.075
38.131
38.167
38.182
38.179
38.159
38.125
38.08
38.025
37.964
37.898
37.83
37.762
37.694
37.629
37.567
37.509
37.454
37.404
37.359
37.319
37.283
37.251
37.223
37.197
37.173
37.15
37.127
37.104
37.079
37.053
37.024
36.993
36.959
36.922
36.883
36.841
36.798
36.755
36.71
36.666
36.621
36.576
36.531
36.486
36.443
36.402
36.362
36.324
36.289
36.255
36.223
36.194
36.168
36.146
36.127
36.112
36.1
36.092
36.088
36.086
36.087
36.089
36.093
36.099
36.105
36.113
36.121
36.129
36.138
36.148
36.159
36.172
36.187
36.203
36.22
36.236
36.25
36.263
36.273
36.28
36.283
36.283
36.279
36.272
36.262
36.25
36.234
36.214
36.192
36.167
36.139
36.108
36.076
36.043
36.009
35.974
35.939
35.902
35.864
35.826
35.788
35.751
35.714
35.679
35.647
35.617
35.591
35.567
35.545
35.524
35.503
35.482
35.461
35.441
35.42
35.401
35.383
35.366
35.351
35.338
35.325
35.315
35.305
35.297
35.29
35.284
35.277
35.27
35.261
35.25
35.236
35.219
35.201
35.181
35.16
35.138
35.116
35.093
35.069
35.044
35.019
34.994
34.971
34.95
34.932
34.917
34.904
34.894
34.885
34.876
34.866
34.858
34.85
34.842
34.834
34.826
34.817
34.807
34.796
34.784
34.772
34.758
34.745
34.732
34.721
34.714
34.71
34.71
34.712
34.716
34.72
34.724
34.726
34.724
34.719
34.708
34.692
34.67
34.643
34.613
34.579
34.543
34.503
34.462
34.419
34.376
34.334
34.292
34.254
34.218
34.184
34.154
34.126
34.102
34.081
34.064
34.05
34.04
34.034
34.032
34.035
34.044
34.061
34.09
34.134
34.195
34.276
34.379
34.505
34.654
34.824
35.015
35.223
35.446
35.679
35.918
36.157
36.393
36.62
36.833
37.03
37.206
37.36
37.491
37.597
37.673
37.72
37.74
37.737
37.715
37.68
37.636
37.586
37.535
37.482
37.43
37.379
37.33
37.283
37.237
37.193
37.15
37.108
37.068
37.028
36.988
36.949
36.909
36.868
36.827
36.786
36.746
36.706
36.667
36.629
36.592
36.556
36.522
36.49
36.458
36.428
36.399
36.371
36.345
36.32
36.296
36.272
36.246
36.219
36.19
36.157
36.122
36.085
36.043
35.997
35.948
35.895
35.841
35.785
35.729
35.674
35.623
35.577
35.538
35.506
35.482
35.466
35.458
35.458
35.464
35.477
35.496
35.518
35.543
35.57
35.597
35.624
35.648
35.668
35.684
35.695
35.701
35.701
35.695
35.685
35.67
35.651
35.627
35.599
35.568
35.534
35.5
35.464
35.43
35.396
35.365
35.336
35.31
35.286
35.264
35.244
35.226
35.209
35.192
35.175
35.157
35.136
35.113
35.088
35.062
35.034
35.004
34.972
34.938
34.902
34.865
34.828
34.791
34.756
34.723
34.694
34.668
34.646
34.628
34.613
34.6
34.589
34.578
34.567
34.555
34.541
34.525
34.507
34.488
34.467
34.444
34.421
34.399
34.379
34.36
34.344
34.329
34.316
34.303
34.29
34.277
34.264
34.251
34.239
34.227
34.215
34.203
34.191
34.18
34.17
34.161
34.153
34.146
34.139
34.132
34.124
34.117
34.109
34.102
34.095
34.089
34.083
34.076
34.069
34.059
34.048
34.035
34.022
34.007
33.992
33.975
33.958
33.939
33.921
33.903
33.887
33.871
33.857
33.844
33.832
33.821
33.809
33.796
33.783
33.77
33.756
33.741
33.725
33.707
33.689
33.669
33.649
33.628
33.607
33.585
33.563
33.542
33.523
33.506
33.491
33.48
33.47
33.462
33.456
33.451
33.447
33.445
33.446
33.449
33.458
33.473
33.496
33.529
33.574
33.633
33.709
33.806
33.924
34.067
34.233
34.422
34.63
34.854
35.091
35.334
35.58
35.821
36.055
36.276
36.481
36.666
36.83
36.97
37.086
37.178
37.247
37.294
37.321
37.33
37.323
37.302
37.27
37.23
37.184
37.132
37.077
37.02
36.962
36.905
36.85
36.798
36.749
36.702
36.658
36.614
36.571
36.529
36.489
36.45
36.413
36.375
36.337
36.3
36.264
36.228
36.194
36.16
36.129
36.101
36.075
36.052
36.03
36.009
35.988
35.967
35.943
35.918
35.891
35.862
35.829
35.793
35.756
35.716
35.675
35.633
35.592
35.552
35.515
35.482
35.454
35.43
35.412
35.399
35.39
35.387
35.388
35.394
35.405
35.418
35.435
35.455
35.476
35.5
35.524
35.549
35.574
35.598
35.621
35.642
35.66
35.674
35.686
35.694
35.698
35.7
35.698
35.693
35.684
35.67
35.652
35.629
35.604
35.576
35.548
35.52
35.492
35.465
35.438
35.412
35.384
35.355
35.323
35.29
35.257
35.224
35.192
35.162
35.133
35.106
35.082
35.061
35.043
35.027
35.014
35.002
34.99
34.978
34.964
34.95
34.935
34.92
34.904
34.888
34.873
34.857
34.842
34.825
34.807
34.788
34.767
34.745
34.723
34.7
34.676
34.651
34.626
34.601
34.576
34.553
34.53
34.51
34.491
34.475
34.463
34.453
34.446
34.44
34.435
34.431
34.428
34.424
34.421
34.417
34.411
34.405
34.399
34.394
34.389
34.385
34.382
34.379
34.373
34.366
34.357
34.345
34.332
34.318
34.304
34.29
34.277
34.266
34.257
34.249
34.244
34.24
34.239
34.239
34.238
34.237
34.236
34.234
34.231
34.227
34.221
34.212
34.202
34.189
34.173
34.156
34.135
34.113
34.09
34.067
34.044
34.021
34.0
33.98
33.962
33.947
33.935
33.926
33.92
33.918
33.919
33.924
33.935
33.952
33.976
34.009
34.053
34.111
34.184
34.276
34.388
34.521
34.674
34.847
35.037
35.244
35.462
35.689
35.919
36.15
36.376
36.596
36.806
37.003
37.183
37.344
37.485
37.605
37.701
37.776
37.827
37.856
37.864
37.853
37.825
37.782
37.726
37.661
37.588
37.509
37.428
37.345
37.265
37.187
37.113
37.043
36.98
36.922
36.871
36.826
36.787
36.754
36.723
36.696
36.671
36.647
36.625
36.603
36.582
36.559
36.536
36.512
36.486
36.458
36.428
36.397
36.365
36.332
36.299
36.264
36.227
36.189
36.149
36.107
36.066
36.024
35.984
35.945
35.907
35.871
35.835
35.8
35.767
35.734
35.704
35.676
35.652
35.631
35.615
35.601
35.585
35.565
35.541
35.517
35.495
35.478
35.469
35.469
35.478
35.498
35.526
35.561
35.603
35.65
35.701
35.752
35.803
35.851
35.892
35.926
35.951
35.967
35.973
35.972
35.963
35.949
35.929
35.906
35.878
35.848
35.815
35.782
35.749
35.717
35.685
35.655
35.627
35.599
35.571
35.541
35.509
35.476
35.442
35.406
35.371
35.335
35.299
35.264
35.229
35.195
35.161
35.129
35.098
35.068
35.038
35.008
34.98
34.953
34.929
34.907
34.888
34.87
34.851
34.832
34.811
34.789
34.767
34.745
34.723
34.702
34.682
34.664
34.647
34.631
34.615
34.601
34.587
34.574
34.561
34.547
34.535
34.524
34.516
34.509
34.503
34.497
34.491
34.484
34.476
34.465
34.452
34.438
34.423
34.409
34.395
34.381
34.367
34.353
34.339
34.327
34.315
34.305
34.295
34.286
34.277
34.268
34.258
34.248
34.237
34.224
34.209
34.194
34.177
34.159
34.141
34.122
34.104
34.087
34.071
34.056
34.042
34.028
34.015
34.004
33.994
33.985
33.977
33.97
33.964
33.958
33.953
33.948
33.942
33.933
33.923
33.909
33.893
33.873
33.852
33.829
33.805
33.779
33.753
33.727
33.701
33.675
33.648
33.622
33.596
33.571
33.547
33.524
33.503
33.484
33.467
33.454
33.445
33.441
33.444
33.453
33.471
33.499
33.54
33.597
33.673
33.769
33.89
34.036
34.206
34.4
34.615
34.848
35.095
35.352
35.613
35.873
36.127
36.37
36.599
36.807
36.994
37.155
37.291
37.401
37.486
37.548
37.588
37.608
37.609
37.593
37.561
37.516
37.461
37.399
37.331
37.261
37.19
37.12
37.051
36.986
36.923
36.863
36.804
36.745
36.687
36.629
36.572
36.516
36.462
36.411
36.363
36.319
36.278
36.242
36.209
36.179
36.151
36.125
36.1
36.076
36.052
36.029
36.006
35.983
35.96
35.935
35.908
35.877
35.843
35.806
35.766
35.725
35.684
35.643
35.603
35.565
35.527
35.491
35.456
35.422
35.391
35.363
35.338
35.318
35.303
35.291
35.283
35.278
35.277
35.278
35.282
35.288
35.297
35.309
35.322
35.338
35.355
35.373
35.392
35.411
35.43
35.447
35.463
35.475
35.483
35.487
35.486
35.48
35.469
35.455
35.436
35.415
35.391
35.365
35.338
35.311
35.283
35.256
35.23
35.204
35.179
35.156
35.135
35.116
35.098
35.083
35.07
35.059
35.048
35.038
35.028
35.016
35.003
34.989
34.973
34.954
34.933
34.91
34.885
34.858
34.83
34.802
34.774
34.748
34.723
34.699
34.678
34.658
34.639
34.621
34.605
34.589
34.573
34.557
34.541
34.523
34.505
34.486
34.467
34.447
34.426
34.406
34.386
34.367
34.348
34.331
34.314
34.3
34.288
34.279
34.272
34.267
34.263
34.26
34.257
34.254
34.249
34.243
34.233
34.222
34.21
34.198
34.187
34.176
34.166
34.156
34.148
34.14
34.134
34.129
34.127
34.127
34.127
34.128
34.129
34.128
34.125
34.121
34.115
34.108
34.1
34.091
34.08
34.069
34.057
34.044
34.032
34.02
34.008
33.997
33.986
33.977
33.969
33.964
33.961
33.961
33.963
33.966
33.97
33.973
33.975
33.975
33.973
33.97
33.965
33.959
33.953
33.947
33.941
33.934
33.929
33.928
33.932
33.94
33.952
33.967
33.983
33.999
34.013
34.026
34.037
34.048
34.06
34.078
34.102
34.137
34.187
34.257
34.35
34.467
34.611
34.78
34.974
35.189
35.421
35.664
35.914
36.164
36.411
36.649
36.875
37.084
37.274
37.443
37.586
37.705
37.798
37.864
37.904
37.921
37.916
37.893
37.853
37.801
37.739
37.669
37.595
37.518
37.44
37.362
37.287
37.214
37.144
37.077
37.015
36.958
36.905
36.857
36.814
36.775
36.74
36.708
36.678
36.649
36.62
36.591
36.56
36.529
36.498
36.467
36.435
36.402
36.367
36.33
36.29
36.248
36.204
36.159
36.112
36.065
36.018
35.971
35.925
35.882
35.841
35.803
35.768
35.738
35.712
35.692
35.676
35.663
35.654
35.647
35.644
35.643
35.644
35.646
35.651
35.659
35.67
35.684
35.7
35.717
35.736
35.757
35.779
35.802
35.826
35.851
35.876
35.9
35.922
35.942
35.959
35.972
35.979
35.98
35.977
35.97
35.959
35.944
35.927
35.906
35.882
35.855
35.827
35.798
35.767
35.736
35.706
35.676
35.647
35.62
35.595
35.571
35.546
35.523
35.499
35.475
35.45
35.425
35.399
35.371
35.341
35.31
35.278
35.245
35.212
35.177
35.142
35.106
35.069
35.031
34.992
34.954
34.915
34.877
34.839
34.803
34.767
34.732
34.699
34.667
34.637
34.609
34.584
34.562
34.541
34.522
34.505
34.491
34.479
34.469
34.463
34.459
34.456
34.456
34.455
34.455
34.455
34.455
34.454
34.452
34.45
34.447
34.442
34.435
34.425
34.413
34.401
34.389
34.377
34.367
34.356
34.345
34.334
34.322
34.311
34.301
34.294
34.289
34.285
34.281
34.276
34.27
34.262
34.254
34.244
34.235
34.224
34.214
34.202
34.19
34.177
34.163
34.149
34.135
34.122
34.109
34.097
34.086
34.075
34.065
34.055
34.047
34.038
34.031
34.023
34.015
34.006
33.995
33.984
33.972
33.959
33.947
33.933
33.92
33.905
33.889
33.871
33.852
33.83
33.808
33.785
33.762
33.738
33.713
33.689
33.663
33.637
33.611
33.585
33.561
33.539
33.521
33.507
33.498
33.496
33.502
33.511
33.524
33.54
33.565
33.604
33.662
33.745
33.856
33.999
34.174
34.381
34.617
34.877
35.156
35.447
35.744
36.04
36.331
36.609
36.871
37.111
37.326
37.513
37.671
37.799
37.899
37.97
38.016
38.038
38.04
38.022
37.99
37.944
37.888
37.824
37.754
37.681
37.607
37.533
37.46
37.389
37.321
37.256
37.194
37.135
37.08
37.029
36.983
36.941
36.903
36.869
36.838
36.809
36.782
36.755
36.728
36.7
36.671
36.641
36.61
36.578
36.546
36.513
36.481
36.45
36.421
36.391
36.361
36.329
36.294
36.255
36.213
36.168
36.121
36.074
36.026
35.98
35.936
35.897
35.862
35.832
35.807
35.787
35.771
35.759
35.752
35.75
35.751
35.757
35.766
35.778
35.792
35.806
35.818
35.829
35.838
35.846
35.853
35.86
35.867
35.874
35.882
35.889
35.896
35.903
35.907
35.909
35.91
35.909
35.906
35.9
35.891
35.879
35.864
35.847
35.827
35.805
35.781
35.752
35.721
35.686
35.649
35.612
35.574
35.537
35.501
35.466
35.433
35.401
35.37
35.339
35.309
35.28
35.253
35.228
35.204
35.181
35.159
35.138
35.115
35.092
35.07
35.048
35.027
35.007
34.987
34.966
34.944
34.919
34.891
34.861
34.83
34.799
34.767
34.736
34.705
34.674
34.644
34.616
34.588
34.561
34.537
34.516
34.497
34.48
34.466
34.453
34.442
34.433
34.426
34.42
34.415
34.41
34.404
34.397
34.389
34.379
34.367
34.354
34.339
34.322
34.303
34.279
34.253
34.224
34.192
34.16
34.128
34.097
34.068
34.041
34.017
33.995
33.977
33.961
33.949
33.937
33.927
33.918
33.91
33.903
33.898
33.895
33.895
33.896
33.899
33.9
33.901
33.899
33.895
33.886
33.874
33.858
33.838
33.815
33.789
33.76
33.731
33.701
33.67
33.64
33.61
33.582
33.555
33.531
33.509
33.491
33.476
33.465
33.457
33.452
33.449
33.448
33.449
33.451
33.454
33.458
33.463
33.468
33.473
33.476
33.478
33.48
33.479
33.478
33.474
33.469
33.462
33.455
33.446
33.436
33.424
33.412
33.397
33.381
33.364
33.345
33.326
33.305
33.284
33.262
33.241
33.22
33.201
33.183
33.167
33.154
33.144
33.138
33.136
33.137
33.141
33.147
33.154
33.161
33.17
33.179
33.19
33.205
33.228
33.261
33.309
33.376
33.467
33.584
33.731
33.91
34.119
34.358
34.624
34.911
35.213
35.525
35.838
36.148
36.447
36.728
36.988
37.221
37.424
37.597
37.736
37.843
37.919
37.964
37.983
37.977
37.951
37.908
37.852
37.786
37.714
37.638
37.56
37.482
37.406
37.332
37.261
37.194
37.132
37.073
37.019
36.968
36.919
36.872
36.824
36.776
36.728
36.679
36.631
36.583
36.536
36.49
36.447
36.404
36.363
36.325
36.29
36.258
36.226
36.195
36.164
36.134
36.103
36.071
36.039
36.007
35.975
35.943
35.911
35.879
35.846
35.812
35.779
35.745
35.712
35.679
35.648
35.62
35.596
35.576
35.56
35.548
35.541
35.537
35.538
35.542
35.551
35.564
35.58
35.598
35.617
35.637
35.655
35.672
35.688
35.702
35.714
35.725
35.736
35.747
35.757
35.766
35.773
35.78
35.784
35.787
35.786
35.783
35.776
35.767
35.755
35.74
35.721
35.699
35.674
35.645
35.613
35.578
35.541
35.502
35.462
35.421
35.38
35.342
35.307
35.275
35.246
35.221
35.2
35.182
35.167
35.153
35.141
35.13
35.119
35.108
35.097
35.085
35.072
35.059
35.044
35.029
35.012
34.995
34.977
34.958
34.939
34.921
34.903
34.887
34.871
34.856
34.844
34.833
34.824
34.817
34.812
34.807
34.803
34.799
34.795
34.791
34.787
34.783
34.779
34.774
34.769
34.762
34.754
34.746
34.736
34.725
34.714
34.703
34.691
34.68
34.668
34.657
34.645
34.633
34.621
34.61
34.6
34.591
34.587
34.588
34.594
34.603
34.615
34.626
34.634
34.64
34.642
34.639
34.631
34.618
34.601
34.582
34.561
34.539
34.517
34.497
34.479
34.463
34.449
34.437
34.426
34.416
34.407
34.397
34.387
34.378
34.369
34.36
34.351
34.342
34.33
34.317
34.3
34.282
34.261
34.24
34.218
34.196
34.174
34.154
34.136
34.121
34.108
34.099
34.094
34.091
34.093
34.099
34.107
34.12
34.136
34.157
34.185
34.221
34.267
34.325
34.399
34.492
34.607
34.746
34.91
35.098
35.308
35.537
35.779
36.031
36.287
36.544
36.797
37.041
37.273
37.492
37.693
37.874
38.032
38.167
38.276
38.359
38.418
38.454
38.47
38.467
38.449
38.418
38.373
38.319
38.255
38.186
38.112
38.036
37.961
37.888
37.818
37.751
37.687
37.626
37.568
37.513
37.459
37.408
37.359
37.313
37.27
37.23
37.192
37.157
37.124
37.093
37.064
37.035
37.007
36.979
36.951
36.922
36.892
36.86
36.826
36.79
36.751
36.711
36.67
36.628
36.585
36.542
36.498
36.454
36.411
36.37
36.333
36.3
36.271
36.247
36.227
36.211
36.199
36.189
36.182
36.178
36.177
36.178
36.183
36.19
36.201
36.213
36.228
36.245
36.263
36.282
36.302
36.321
36.338
36.354
36.368
36.382
36.394
36.405
36.415
36.421
36.423
36.421
36.414
36.402
36.386
36.364
36.337
36.307
36.274
36.24
36.205
36.17
36.136
36.101
36.067
36.034
36.002
35.97
35.937
35.905
35.872
35.84
35.809
35.779
35.75
35.724
35.698
35.674
35.65
35.626
35.601
35.575
35.547
35.518
35.489
35.46
35.432
35.403
35.375
35.347
35.318
35.286
35.253
35.217
35.181
35.143
35.107
35.073
35.041
35.012
34.985
34.961
34.939
34.918
34.897
34.876
34.857
34.838
34.821
34.805
34.791
34.777
34.764
34.752
34.74
34.728
34.717
34.705
34.695
34.684
34.674
34.664
34.655
34.646
34.638
34.63
34.622
34.614
34.606
34.599
34.593
34.588
34.583
34.58
34.575
34.568
34.559
34.547
34.532
34.516
34.498
34.48
34.462
34.444
34.426
34.408
34.39
34.372
34.355
34.338
34.324
34.311
34.3
34.291
34.284
34.279
34.275
34.272
34.27
34.268
34.267
34.266
34.263
34.26
34.255
34.247
34.235
34.219
34.199
34.175
34.148
34.116
34.082
34.046
34.01
33.974
33.94
33.907
33.877
33.85
33.826
33.805
33.786
33.772
33.761
33.754
33.752
33.755
33.763
33.777
33.797
33.827
33.869
33.927
34.003
34.1
34.22
34.366
34.538
34.735
34.956
35.198
35.457
35.727
36.005
36.284
36.558
36.822
37.072
37.303
37.514
37.701
37.863
37.998
38.107
38.19
38.247
38.281
38.294
38.289
38.27
38.237
38.195
38.144
38.087
38.026
37.962
37.895
37.827
37.758
37.689
37.621
37.555
37.49
37.428
37.368
37.312
37.26
37.212
37.169
37.13
37.094
37.062
37.033
37.006
36.981
36.958
36.936
36.915
36.895
36.874
36.854
36.831
36.807
36.78
36.749
36.714
36.676
36.635
36.591
36.544
36.495
36.443
36.391
36.339
36.287
36.237
36.19
36.147
36.108
36.075
36.047
36.025
36.009
35.997
35.991
35.988
35.991
35.997
36.006
36.018
36.03
36.044
36.057
36.07
36.081
36.091
36.098
36.104
36.109
36.112
36.114
36.116
36.118
36.118
36.116
36.112
36.106
36.098
36.088
36.075
36.061
36.044
36.025
36.004
35.979
35.952
35.922
35.889
35.855
35.819
35.782
35.743
35.703
35.664
35.626
35.59
35.555
35.523
35.494
35.468
35.444
35.421
35.4
35.38
35.363
35.346
35.331
35.316
35.301
35.286
35.27
35.252
35.232
35.21
35.186
35.16
35.133
35.105
35.076
35.045
35.014
34.982
34.951
34.921
34.894
34.87
34.85
34.834
34.822
34.813
34.808
34.806
34.807
34.81
34.815
34.821
34.826
34.83
34.832
34.833
34.831
34.827
34.821
34.813
34.803
34.792
34.779
34.766
34.752
34.739
34.725
34.713
34.7
34.688
34.676
34.663
34.65
34.635
34.62
34.605
34.59
34.577
34.563
34.549
34.536
34.522
34.509
34.497
34.486
34.476
34.468
34.461
34.455
34.447
34.438
34.427
34.415
34.402
34.389
34.375
34.362
34.349
34.335
34.321
34.307
34.295
34.284
34.272
34.261
34.248
34.233
34.217
34.199
34.18
34.159
34.138
34.117
34.097
34.076
34.055
34.035
34.014
33.994
33.973
33.953
33.933
33.913
33.893
33.874
33.856
