Trial 3:3back
43.436
43.389
43.332
43.267
43.195
43.115
43.03
42.939
42.844
42.745
42.643
42.54
42.437
42.336
42.236
42.138
42.042
41.946
41.849
41.75
41.646
41.537
41.424
41.305
41.181
41.052
40.919
40.783
40.644
40.503
40.363
40.222
40.081
39.94
39.8
39.661
39.523
39.387
39.251
39.116
38.983
38.851
38.723
38.599
38.483
38.374
38.273
38.181
38.097
38.02
37.952
37.889
37.832
37.778
37.728
37.679
37.632
37.587
37.541
37.495
37.448
37.399
37.348
37.296
37.241
37.185
37.127
37.067
37.007
36.946
36.885
36.823
36.76
36.694
36.625
36.553
36.478
36.4
36.32
36.239
36.157
36.076
35.995
35.914
35.833
35.75
35.666
35.58
35.491
35.401
35.308
35.215
35.122
35.03
34.94
34.852
34.767
34.682
34.599
34.517
34.436
34.355
34.276
34.197
34.118
34.038
33.959
33.879
33.8
33.721
33.642
33.564
33.488
33.413
33.34
33.269
33.199
33.13
33.063
32.997
32.931
32.867
32.803
32.74
32.678
32.617
32.557
32.5
32.445
32.393
32.346
32.303
32.264
32.228
32.195
32.164
32.135
32.106
32.077
32.047
32.015
31.981
31.944
31.905
31.864
31.821
31.778
31.735
31.694
31.655
31.619
31.587
31.56
31.537
31.519
31.504
31.492
31.48
31.469
31.456
31.44
31.42
31.397
31.368
31.336
31.3
31.262
31.224
31.187
31.152
31.121
31.094
31.07
31.05
31.033
31.017
31.002
30.988
30.972
30.955
30.936
30.914
30.889
30.859
30.827
30.792
30.756
30.72
30.686
30.653
30.624
30.598
30.575
30.556
30.539
30.523
30.507
30.49
30.471
30.45
30.426
30.402
30.379
30.36
30.349
30.351
30.371
30.416
30.492
30.606
30.76
30.96
31.208
31.506
31.852
32.244
32.68
33.153
33.659
34.191
34.74
35.299
35.863
36.423
36.975
37.514
38.036
38.538
39.016
39.466
39.885
40.271
40.621
40.934
41.211
41.449
41.651
41.816
41.947
42.046
42.116
42.161
42.183
42.186
42.174
42.15
42.114
42.069
42.016
41.955
41.886
41.809
41.726
41.636
41.539
41.438
41.334
41.226
41.118
41.008
40.899
40.789
40.679
40.569
40.46
40.349
40.238
40.124
40.007
39.887
39.763
39.635
39.504
39.371
39.237
39.103
38.968
38.834
38.7
38.568
38.437
38.306
38.175
38.043
37.911
37.781
37.652
37.527
37.407
37.294
37.188
37.092
37.003
36.923
36.849
36.779
36.712
36.647
36.584
36.522
36.461
36.401
36.342
36.285
36.23
36.176
36.123
36.072
36.02
35.969
35.918
35.867
35.816
35.765
35.714
35.661
35.607
35.551
35.492
35.429
35.363
35.292
35.218
35.141
35.06
34.977
34.893
34.806
34.718
34.631
34.543
34.457
34.371
34.287
34.204
34.121
34.039
33.957
33.874
33.791
33.707
33.621
33.534
33.447
33.36
33.276
33.193
33.115
33.039
32.968
32.899
32.834
32.769
32.705
32.641
32.576
32.51
32.442
32.371
32.298
32.223
32.145
32.066
31.988
31.912
31.84
31.772
31.708
31.649
31.594
31.543
31.496
31.453
31.411
31.372
31.332
31.291
31.248
31.202
31.153
31.101
31.048
30.995
30.942
30.892
30.845
30.801
30.76
30.722
30.688
30.658
30.629
30.601
30.574
30.547
30.519
30.489
30.458
30.425
30.391
30.355
30.319
30.282
30.246
30.21
30.176
30.143
30.111
30.082
30.056
30.031
30.008
29.985
29.962
29.94
29.918
29.894
29.871
29.848
29.825
29.803
29.781
29.759
29.737
29.715
29.693
29.672
29.651
29.631
29.612
29.593
29.576
29.559
29.544
29.529
29.515
29.501
29.486
29.471
29.456
29.439
29.422
29.404
29.384
29.363
29.339
29.313
29.283
29.252
29.218
29.182
29.145
29.109
29.074
29.041
29.015
28.999
28.995
29.009
29.043
29.102
29.189
29.306
29.456
29.641
29.861
30.116
30.405
30.726
31.077
31.454
31.853
32.271
32.704
33.147
33.599
34.053
34.508
34.957
35.398
35.824
36.232
36.619
36.979
37.312
37.615
37.888
38.129
38.341
38.523
38.677
38.803
38.904
38.98
39.035
39.071
39.089
39.094
39.087
39.07
39.045
39.012
38.973
38.927
38.875
38.817
38.753
38.683
38.609
38.531
38.451
38.371
38.29
38.209
38.128
38.046
37.963
37.878
37.791
37.702
37.609
37.512
37.411
37.306
37.199
37.09
36.98
36.87
36.761
36.653
36.547
36.443
36.341
36.24
36.141
36.044
35.949
35.857
35.767
35.682
35.6
35.522
35.45
35.384
35.322
35.267
35.216
35.17
35.128
35.091
35.058
35.028
35.002
34.979
34.958
34.938
34.919
34.9
34.879
34.857
34.831
34.803
34.771
34.737
34.699
34.657
34.613
34.566
34.517
34.465
34.412
34.358
34.301
34.243
34.182
34.12
34.054
33.985
33.914
33.841
33.769
33.697
33.628
33.563
33.503
33.449
33.4
33.355
33.314
33.274
33.234
33.192
33.148
33.1
33.048
32.993
32.935
32.874
32.81
32.745
32.68
32.616
32.555
32.498
32.446
32.397
32.352
32.31
32.269
32.228
32.186
32.143
32.098
32.05
32.001
31.95
31.898
31.847
31.797
31.75
31.707
31.668
31.634
31.603
31.576
31.55
31.525
31.501
31.474
31.445
31.414
31.378
31.339
31.296
31.249
31.2
31.148
31.097
31.047
31.001
30.96
30.925
30.895
30.87
30.85
30.834
30.822
30.811
30.802
30.793
30.784
30.773
30.759
30.743
30.724
30.704
30.683
30.661
30.639
30.618
30.597
30.576
30.557
30.538
30.52
30.503
30.486
30.469
30.451
30.432
30.414
30.398
30.385
30.378
30.379
30.391
30.417
30.46
30.524
30.611
30.723
30.862
31.028
31.222
31.442
31.688
31.956
32.243
32.547
32.864
33.189
33.519
33.849
34.176
34.497
34.81
35.112
35.402
35.676
35.935
36.175
36.396
36.597
36.778
36.937
37.075
37.192
37.291
37.371
37.435
37.484
37.52
37.543
37.556
37.558
37.551
37.534
37.508
37.474
37.431
37.381
37.324
37.261
37.191
37.117
37.04
36.959
36.877
36.795
36.713
36.631
36.549
36.466
36.381
36.294
36.204
36.11
36.014
35.914
35.81
35.704
35.594
35.482
35.367
35.251
35.134
35.02
34.91
34.805
34.708
34.619
34.539
34.467
34.402
34.343
34.29
34.24
34.193
34.149
34.107
34.067
34.031
33.998
33.97
33.947
33.929
33.916
33.907
33.901
33.896
33.891
33.885
33.875
33.861
33.841
33.815
33.783
33.746
33.705
33.662
33.617
33.573
33.531
33.492
33.455
33.421
33.388
33.356
33.323
33.287
33.248
33.205
33.157
33.102
33.042
32.977
32.908
32.837
32.765
32.693
32.624
32.559
32.498
32.443
32.393
32.349
32.308
32.272
32.237
32.203
32.167
32.129
32.089
32.044
31.996
31.943
31.887
31.829
31.77
31.712
31.657
31.604
31.554
31.508
31.465
31.424
31.385
31.346
31.307
31.266
31.225
31.181
31.134
31.085
31.034
30.983
30.934
30.889
30.847
30.811
30.78
30.754
30.732
30.713
30.697
30.682
30.666
30.648
30.626
30.598
30.566
30.528
30.486
30.441
30.392
30.343
30.293
30.245
30.2
30.16
30.126
30.099
30.079
30.066
30.06
30.06
30.067
30.08
30.101
30.13
30.169
30.22
30.285
30.365
30.462
30.577
30.71
30.864
31.037
31.23
31.442
31.671
31.915
32.17
32.434
32.702
32.971
33.237
33.496
33.745
33.98
34.2
34.401
34.584
34.749
34.895
35.025
35.14
35.239
35.326
35.401
35.465
35.518
35.56
35.592
35.613
35.624
35.624
35.614
35.596
35.569
35.536
35.496
35.452
35.403
35.351
35.296
35.239
35.178
35.114
35.048
34.979
34.908
34.836
34.762
34.688
34.613
34.539
34.465
34.389
34.313
34.236
34.158
34.08
34.002
33.925
33.848
33.774
33.702
33.633
33.567
33.503
33.444
33.39
33.34
33.295
33.254
33.217
33.184
33.155
33.128
33.104
33.084
33.067
33.054
33.044
33.036
33.029
33.024
33.018
33.01
33.001
32.99
32.977
32.962
32.946
32.928
32.911
32.893
32.877
32.861
32.846
32.832
32.819
32.807
32.794
32.778
32.759
32.736
32.706
32.672
32.633
32.589
32.543
32.496
32.448
32.402
32.357
32.314
32.274
32.236
32.201
32.167
32.134
32.1
32.065
32.028
31.988
31.947
31.903
31.857
31.81
31.761
31.712
31.664
31.618
31.576
31.538
31.503
31.47
31.44
31.41
31.38
31.349
31.315
31.279
31.238
31.193
31.145
31.094
31.041
30.988
30.935
30.883
30.834
30.789
30.747
30.711
30.678
30.65
30.626
30.605
30.586
30.568
30.55
30.531
30.51
30.487
30.461
30.434
30.405
30.376
30.347
30.317
30.289
30.263
30.238
30.216
30.199
30.186
30.179
30.178
30.185
30.2
30.226
30.262
30.31
30.372
30.447
30.536
30.641
30.762
30.898
31.05
31.216
31.394
31.584
31.782
31.986
32.194
32.401
32.605
32.804
32.995
33.177
33.346
33.502
33.644
33.772
33.884
33.982
34.066
34.137
34.197
34.246
34.285
34.314
34.333
34.343
34.344
34.336
34.319
34.296
34.267
34.233
34.196
34.158
34.118
34.079
34.041
34.005
33.969
33.934
33.899
33.863
33.823
33.78
33.732
33.679
33.622
33.561
33.498
33.434
33.37
33.308
33.248
33.191
33.138
33.087
33.039
32.992
32.948
32.903
32.859
32.815
32.769
32.722
32.675
32.629
32.584
32.543
32.507
32.478
32.455
32.441
32.433
32.431
32.434
32.442
32.453
32.465
32.477
32.488
32.497
32.502
32.505
32.505
32.505
32.504
32.504
32.504
32.504
32.505
32.505
32.505
32.503
32.499
32.492
32.482
32.469
32.451
32.43
32.406
32.377
32.346
32.313
32.279
32.245
32.21
32.176
32.143
32.111
32.08
32.051
32.022
31.994
31.966
31.937
31.907
31.875
31.841
31.805
31.766
31.726
31.685
31.645
31.606
31.569
31.535
31.504
31.475
31.446
31.418
31.39
31.361
31.331
31.3
31.269
31.238
31.207
31.177
31.146
31.116
31.088
31.06
31.035
31.012
30.991
30.972
30.954
30.937
30.92
30.903
30.885
30.867
30.848
30.829
30.81
30.79
30.771
30.752
30.734
30.717
30.702
30.688
30.676
30.665
30.656
30.649
30.645
30.644
30.648
30.658
30.676
30.702
30.739
30.789
30.851
30.928
31.021
31.128
31.251
31.388
31.537
31.697
31.863
32.034
32.207
32.38
32.552
32.719
32.882
33.037
33.185
33.322
33.45
33.565
33.667
33.755
33.83
33.892
33.941
33.979
34.006
34.025
34.037
34.043
34.044
34.041
34.035
34.026
34.013
33.997
33.976
33.95
33.92
33.886
33.85
33.812
33.773
33.735
33.698
33.663
33.631
33.602
33.574
33.547
33.519
33.49
33.458
33.423
33.385
33.343
33.296
33.246
33.194
33.141
33.088
33.037
32.988
32.942
32.901
32.863
32.831
32.803
32.779
32.76
32.745
32.733
32.724
32.718
32.714
32.713
32.714
32.718
32.723
32.729
32.738
32.746
32.755
32.763
32.77
32.776
32.782
32.786
32.789
32.791
32.791
32.789
32.785
32.778
32.769
32.757
32.744
32.728
32.71
32.692
32.672
32.653
32.635
32.618
32.603
32.591
32.581
32.573
32.564
32.555
32.544
32.53
32.515
32.497
32.478
32.457
32.434
32.41
32.386
32.363
32.34
32.32
32.303
32.288
32.275
32.265
32.256
32.247
32.237
32.226
32.214
32.2
32.184
32.165
32.146
32.125
32.105
32.086
32.069
32.054
32.043
32.035
32.028
32.023
32.017
32.012
32.005
31.996
31.985
31.971
31.955
31.936
31.915
31.892
31.868
31.845
31.823
31.803
31.785
31.769
31.755
31.742
31.731
31.721
31.712
31.704
31.696
31.688
31.679
31.671
31.664
31.66
31.663
31.674
31.695
31.73
31.779
31.844
31.925
32.021
32.133
32.26
32.4
32.549
32.705
32.865
33.028
33.191
33.352
33.509
33.662
33.808
33.948
34.08
34.204
34.319
34.423
34.516
34.597
34.666
34.721
34.763
34.79
34.804
34.804
34.793
34.773
34.747
34.718
34.687
34.655
34.625
34.596
34.567
34.539
34.509
34.478
34.446
34.412
34.378
34.343
34.31
34.278
34.248
34.221
34.195
34.171
34.146
34.122
34.097
34.072
34.045
34.016
33.987
33.956
33.924
33.891
33.857
33.822
33.789
33.757
33.728
33.702
33.679
33.66
33.644
33.632
33.625
33.622
33.624
33.631
33.642
33.657
33.675
33.697
33.721
33.744
33.765
33.783
33.797
33.809
33.817
33.823
33.827
33.831
33.834
33.837
33.839
33.841
33.842
33.843
33.843
33.843
33.84
33.836
33.83
33.821
33.812
33.801
33.79
33.779
33.769
33.761
33.754
33.748
33.743
33.736
33.728
33.716
33.702
33.684
33.663
33.638
33.611
33.582
33.552
33.522
33.493
33.466
33.443
33.422
33.405
33.39
33.377
33.365
33.354
33.341
33.327
33.308
33.287
33.262
33.236
33.209
33.183
33.158
33.135
33.116
33.1
33.087
33.078
33.073
33.07
33.071
33.072
33.074
33.074
33.071
33.065
33.055
33.042
33.027
33.01
32.993
32.975
32.958
32.94
32.923
32.905
32.888
32.871
32.854
32.84
32.827
32.816
32.807
32.801
32.799
32.804
32.817
32.839
32.873
32.919
32.978
33.052
33.139
33.24
33.354
33.48
33.616
33.762
33.914
34.07
34.228
34.386
34.54
34.687
34.827
34.956
35.076
35.184
35.282
35.368
35.444
35.509
35.563
35.607
35.64
35.664
35.678
35.684
35.68
35.667
35.646
35.62
35.59
35.558
35.527
35.497
35.471
35.449
35.43
35.415
35.405
35.394
35.381
35.363
35.341
35.315
35.286
35.255
35.224
35.195
35.167
35.143
35.122
35.105
35.092
35.083
35.078
35.074
35.07
35.065
35.058
35.047
35.031
35.012
34.989
34.964
34.938
34.913
34.89
34.87
34.853
34.84
34.832
34.827
34.825
34.826
34.829
34.833
34.839
34.844
34.849
34.852
34.854
34.854
34.852
34.848
34.844
34.838
34.833
34.828
34.823
34.818
34.815
34.812
34.81
34.807
34.803
34.798
34.792
34.783
34.772
34.757
34.739
34.717
34.694
34.668
34.642
34.616
34.591
34.568
34.546
34.526
34.508
34.491
34.475
34.46
34.445
34.428
34.41
34.391
34.37
34.348
34.325
34.304
34.284
34.267
34.253
34.241
34.231
34.222
34.213
34.203
34.191
34.177
34.16
34.141
34.122
34.102
34.082
34.064
34.046
34.03
34.015
34.002
33.989
33.977
33.964
33.951
33.937
33.92
33.902
33.881
33.858
33.835
33.81
33.787
33.763
33.741
33.72
33.698
33.677
33.655
33.634
33.613
33.594
33.577
33.561
33.548
33.537
33.528
33.523
33.521
33.524
33.534
33.553
33.582
33.621
33.674
33.739
33.82
33.916
34.027
34.154
34.294
34.447
34.609
34.776
34.946
35.116
35.282
35.444
35.598
35.745
35.884
36.016
36.141
36.259
36.37
36.474
36.57
36.658
36.736
36.803
36.859
36.902
36.935
36.958
36.973
36.98
36.98
36.975
36.966
36.954
36.94
36.924
36.908
36.892
36.879
36.867
36.857
36.849
36.841
36.833
36.824
36.813
36.802
36.79
36.778
36.766
36.756
36.746
36.736
36.727
36.716
36.705
36.692
36.676
36.656
36.632
36.604
36.573
36.54
36.505
36.47
36.435
36.403
36.373
36.347
36.324
36.304
36.288
36.276
36.266
36.259
36.253
36.248
36.244
36.24
36.237
36.236
36.237
36.239
36.243
36.248
36.254
36.262
36.269
36.277
36.284
36.29
36.296
36.299
36.299
36.295
36.287
36.274
36.257
36.236
36.211
36.184
36.158
36.13
36.103
36.077
36.052
36.028
36.005
35.982
35.958
35.933
35.907
35.88
35.851
35.82
35.789
35.758
35.728
35.701
35.676
35.654
35.635
35.617
35.6
35.584
35.567
35.549
35.53
35.509
35.486
35.463
35.439
35.414
35.389
35.363
35.337
35.311
35.286
35.261
35.238
35.216
35.196
35.177
35.159
35.142
35.124
35.104
35.082
35.056
35.028
34.998
34.965
34.932
34.897
34.864
34.832
34.802
34.774
34.747
34.723
34.7
34.679
34.659
34.638
34.615
34.59
34.563
34.534
34.504
34.474
34.445
34.418
34.396
34.38
34.369
34.366
34.369
34.38
34.4
34.428
34.465
34.514
34.574
34.648
34.736
34.839
34.956
35.089
35.235
35.393
35.561
35.738
35.92
36.107
36.297
36.486
36.672
36.854
37.031
37.199
37.359
37.508
37.645
37.769
37.88
37.98
38.067
38.143
38.207
38.261
38.305
38.339
38.364
38.38
38.389
38.39
38.385
38.376
38.366
38.355
38.345
38.337
38.332
38.328
38.327
38.327
38.326
38.326
38.325
38.324
38.32
38.314
38.304
38.29
38.273
38.253
38.23
38.205
38.176
38.145
38.114
38.082
38.051
38.021
37.991
37.962
37.933
37.903
37.872
37.838
37.802
37.764
37.727
37.691
37.658
37.63
37.606
37.588
37.575
37.568
37.566
37.567
37.571
37.577
37.584
37.591
37.598
37.605
37.61
37.614
37.616
37.617
37.614
37.609
37.601
37.592
37.58
37.567
37.553
37.536
37.518
37.497
37.474
37.449
37.421
37.391
37.36
37.329
37.297
37.267
37.238
37.209
37.181
37.153
37.125
37.096
37.066
37.036
37.004
36.973
36.943
36.914
36.886
36.861
36.836
36.813
36.79
36.766
36.741
36.715
36.687
36.656
36.624
36.588
36.549
36.507
36.461
36.411
36.357
36.298
36.236
36.17
36.102
36.032
35.961
35.89
35.819
35.75
35.682
35.617
35.555
35.496
35.442
35.391
35.342
35.295
35.249
35.203
35.157
35.111
35.065
35.02
34.976
34.936
34.899
34.866
34.837
34.809
34.782
34.757
34.731
34.706
34.681
34.659
34.64
34.627
34.622
34.626
34.643
34.676
34.724
34.79
34.874
34.976
35.094
35.229
35.378
35.539
35.71
35.889
36.077
36.271
36.47
36.673
36.876
37.078
37.277
37.47
37.656
37.832
37.996
38.147
38.285
38.411
38.524
38.623
38.71
38.784
38.847
38.9
38.943
38.978
39.007
39.03
39.049
39.065
39.078
39.088
39.094
39.096
39.094
39.088
39.078
39.064
39.047
39.028
39.008
38.988
38.967
38.947
38.926
38.904
38.88
38.853
38.821
38.785
38.745
38.702
38.656
38.607
38.556
38.503
38.448
38.394
38.339
38.286
38.233
38.183
38.135
38.089
38.044
38.002
37.96
37.918
37.875
37.832
37.789
37.746
37.704
37.663
37.624
37.589
37.557
37.53
37.507
37.488
37.472
37.46
37.448
37.438
37.426
37.412
37.396
37.376
37.353
37.326
37.294
37.258
37.219
37.178
37.136
37.094
37.054
37.017
36.982
36.95
36.92
36.888
36.855
36.818
36.779
36.737
36.692
36.643
36.593
36.541
36.489
36.437
36.385
36.334
36.283
36.232
36.182
36.132
36.081
36.028
35.974
35.918
35.862
35.805
35.748
35.693
35.64
35.59
35.543
35.498
35.455
35.414
35.375
35.339
35.304
35.271
35.239
35.206
35.17
35.131
35.088
35.041
34.989
34.929
34.859
34.78
34.697
34.614
34.535
34.463
34.401
34.35
34.31
34.283
34.272
34.276
34.29
34.311
34.333
34.353
34.368
34.374
34.37
34.356
34.333
34.301
34.262
34.216
34.164
34.11
34.053
33.996
33.939
33.883
33.83
33.781
33.738
33.703
33.678
33.664
33.664
33.679
33.711
33.763
33.835
33.927
34.04
34.173
34.323
34.489
34.67
34.863
35.068
35.281
35.502
35.729
35.959
36.19
36.421
36.647
36.867
37.077
37.275
37.459
37.627
37.779
37.916
38.036
38.141
38.231
38.307
38.369
38.42
38.461
38.495
38.522
38.545
38.564
38.58
38.593
38.601
38.605
38.604
38.598
38.586
38.569
38.547
38.522
38.494
38.463
38.432
38.402
38.372
38.342
38.313
38.283
38.251
38.219
38.184
38.148
38.11
38.069
38.026
37.978
37.926
37.871
37.811
37.749
37.685
37.621
37.558
37.498
37.441
37.387
37.338
37.291
37.248
37.206
37.166
37.128
37.092
37.058
37.027
36.998
36.972
36.949
36.928
36.909
36.89
36.871
36.85
36.829
36.806
36.781
36.755
36.728
36.699
36.669
36.639
36.608
36.577
36.545
36.512
36.477
36.44
36.402
36.362
36.319
36.275
36.229
36.181
36.131
36.077
36.02
35.957
35.891
35.821
35.749
35.674
35.598
35.522
35.449
35.378
35.31
35.246
35.185
35.127
35.071
35.016
34.961
34.906
34.849
34.792
34.735
34.679
34.625
34.574
34.527
34.483
34.443
34.405
34.369
34.333
34.298
34.263
34.226
34.189
34.151
34.112
34.072
34.031
33.988
33.946
33.903
33.86
33.818
33.776
33.734
33.693
33.653
33.613
33.574
33.535
33.497
33.46
33.423
33.387
33.351
33.315
33.281
33.247
33.215
33.182
33.149
33.116
33.083
33.051
33.019
32.988
32.959
32.93
32.901
32.871
32.841
32.809
32.773
32.734
32.691
32.644
32.593
32.536
32.475
32.411
32.346
32.28
32.216
32.157
32.106
32.065
32.039
32.029
32.038
32.067
32.116
32.186
32.277
32.389
32.521
32.671
32.839
33.022
33.219
33.427
33.644
33.865
34.087
34.307
34.52
34.725
34.918
35.096
35.259
35.404
35.533
35.647
35.746
35.832
35.908
35.973
36.03
36.081
36.125
36.164
36.197
36.225
36.249
36.268
36.285
36.298
36.307
36.313
36.316
36.317
36.317
36.316
36.314
