Trial 3:3back
34.752
34.746
34.736
34.722
34.706
34.687
34.667
34.644
34.618
34.589
34.554
34.515
34.472
34.426
34.378
34.33
34.284
34.239
34.198
34.159
34.123
34.09
34.057
34.025
33.993
33.959
33.924
33.887
33.847
33.806
33.765
33.722
33.68
33.637
33.596
33.556
33.516
33.477
33.438
33.4
33.364
33.329
33.295
33.262
33.23
33.201
33.174
33.15
33.129
33.111
33.095
33.081
33.068
33.055
33.044
33.032
33.023
33.014
33.01
33.011
33.019
33.038
33.069
33.115
33.179
33.264
33.373
33.508
33.671
33.867
34.097
34.362
34.662
34.996
35.361
35.755
36.17
36.602
37.041
37.48
37.909
38.322
38.71
39.069
39.394
39.682
39.931
40.14
40.31
40.44
40.531
40.587
40.609
40.601
40.564
40.502
40.417
40.313
40.192
40.056
39.908
39.752
39.588
39.42
39.248
39.075
38.9
38.725
38.549
38.375
38.203
38.033
37.867
37.703
37.541
37.381
37.222
37.065
36.909
36.753
36.6
36.447
36.296
36.147
36.001
35.857
35.719
35.586
35.459
35.336
35.22
35.11
35.008
34.915
34.83
34.754
34.688
34.63
34.582
34.542
34.512
34.49
34.476
34.47
34.47
34.475
34.483
34.494
34.508
34.522
34.535
34.54
34.536
34.526
34.512
34.497
34.484
34.475
34.471
34.473
34.482
34.495
34.513
34.533
34.554
34.573
34.59
34.603
34.609
34.607
34.598
34.582
34.558
34.528
34.492
34.452
34.407
34.358
34.306
34.253
34.2
34.147
34.095
34.044
33.995
33.947
33.9
33.854
33.809
33.762
33.715
33.667
33.62
33.573
33.528
33.486
33.446
33.409
33.376
33.345
33.317
33.292
33.269
33.246
33.224
33.202
33.181
33.16
33.139
33.12
33.101
33.083
33.065
33.046
33.026
33.005
32.984
32.962
32.939
32.919
32.901
32.887
32.881
32.884
32.898
32.925
32.966
33.024
33.099
33.195
33.316
33.466
33.647
33.864
34.119
34.415
34.751
35.124
35.53
35.964
36.419
36.887
37.36
37.829
38.287
38.724
39.135
39.514
39.854
40.151
40.405
40.614
40.777
40.898
40.976
41.016
41.019
40.991
40.934
40.854
40.753
40.636
40.506
40.365
40.216
40.06
39.9
39.737
39.572
39.406
39.24
39.074
38.909
38.745
38.579
38.414
38.248
38.083
37.917
37.752
37.588
37.426
37.265
37.108
36.954
36.804
36.657
36.513
36.371
36.231
36.092
35.955
35.82
35.689
35.562
35.439
35.322
35.212
35.11
35.018
34.935
34.862
34.798
34.743
34.697
34.658
34.627
34.604
34.588
34.578
34.573
34.573
34.577
34.585
34.596
34.61
34.626
34.644
34.662
34.681
34.699
34.716
34.732
34.746
34.758
34.766
34.771
34.771
34.767
34.756
34.741
34.72
34.695
34.664
34.629
34.591
34.549
34.503
34.456
34.406
34.354
34.3
34.246
34.19
34.135
34.079
34.025
33.971
33.918
33.865
33.814
33.763
33.713
33.665
33.619
33.575
33.532
33.491
33.453
33.416
33.381
33.348
33.315
33.283
33.25
33.217
33.185
33.152
33.12
33.088
33.056
33.023
32.989
32.956
32.924
32.892
32.861
32.831
32.803
32.776
32.751
32.729
32.71
32.694
32.681
32.672
32.667
32.665
32.669
32.68
32.698
32.727
32.769
32.827
32.902
32.999
33.121
33.272
33.456
33.675
33.934
34.233
34.571
34.947
35.355
35.789
36.244
36.712
37.183
37.65
38.104
38.538
38.946
39.321
39.659
39.957
40.214
40.428
40.601
40.734
40.829
40.887
40.913
40.909
40.878
40.822
40.743
40.645
40.529
40.397
40.251
40.092
39.923
39.745
39.56
39.37
39.177
38.982
38.789
38.598
38.411
38.227
38.048
37.875
37.706
37.541
37.376
37.204
37.025
36.842
36.655
36.469
36.287
36.111
35.942
35.783
35.632
35.49
35.359
35.237
35.124
35.02
34.926
34.842
34.766
34.699
34.641
34.59
34.546
34.509
34.478
34.452
34.431
34.416
34.406
34.401
34.4
34.403
34.411
34.421
34.434
34.449
34.463
34.477
34.49
34.502
34.511
34.519
34.525
34.53
34.534
34.537
34.538
34.538
34.535
34.529
34.52
34.506
34.486
34.462
34.432
34.398
34.359
34.316
34.27
34.221
34.17
34.118
34.064
34.01
33.957
33.905
33.854
33.805
33.759
33.714
33.671
33.629
33.588
33.549
33.51
33.47
33.431
33.392
33.353
33.315
33.276
33.238
33.199
33.162
33.125
33.09
33.057
33.025
32.995
32.967
32.94
32.915
32.892
32.87
32.848
32.826
32.804
32.781
32.757
32.733
32.709
32.685
32.661
32.638
32.615
32.595
32.578
32.565
32.557
32.555
32.56
32.571
32.591
32.621
32.662
32.717
32.788
32.877
32.989
33.125
33.291
33.49
33.724
33.995
34.303
34.647
35.023
35.428
35.855
36.297
36.748
37.2
37.648
38.082
38.497
38.886
39.244
39.568
39.854
40.099
40.302
40.463
40.581
40.657
40.694
40.694
40.661
40.599
40.51
40.397
40.263
40.112
39.946
39.768
39.582
39.39
39.194
38.996
38.797
38.599
38.402
38.207
38.015
37.826
37.641
37.461
37.284
37.112
36.944
36.781
36.621
36.466
36.313
36.163
36.015
35.868
35.723
35.581
35.442
35.306
35.176
35.051
34.934
34.825
34.724
34.633
34.552
34.481
34.42
34.369
34.326
34.293
34.267
34.25
34.239
34.235
34.236
34.242
34.252
34.266
34.283
34.304
34.327
34.354
34.383
34.412
34.442
34.472
34.501
34.527
34.551
34.571
34.587
34.598
34.604
34.606
34.604
34.598
34.589
34.577
34.561
34.542
34.52
34.493
34.462
34.427
34.387
34.344
34.296
34.246
34.193
34.138
34.082
34.026
33.97
33.915
33.86
33.807
33.754
33.701
33.649
33.599
33.55
33.505
33.463
33.424
33.388
33.356
33.328
33.302
33.278
33.255
33.233
33.21
33.187
33.162
33.135
33.108
33.079
33.05
33.02
32.991
32.963
32.936
32.91
32.884
32.859
32.835
32.811
32.788
32.768
32.75
32.736
32.727
32.723
32.726
32.736
32.756
32.789
32.835
32.896
32.976
33.076
33.201
33.354
33.539
33.759
34.016
34.311
34.643
35.008
35.404
35.825
36.265
36.717
37.174
37.626
38.066
38.487
38.883
39.246
39.575
39.865
40.114
40.323
40.49
40.615
40.698
40.743
40.751
40.725
40.667
40.582
40.474
40.345
40.199
40.038
39.866
39.686
39.5
39.312
39.122
38.933
38.745
38.559
38.374
38.191
38.009
37.829
37.65
37.471
37.293
37.117
36.943
36.772
36.606
36.444
36.287
36.134
35.985
35.84
35.698
35.56
35.426
35.296
35.171
35.051
34.937
34.831
34.733
34.645
34.566
34.498
34.439
34.39
34.349
34.316
34.292
34.276
34.267
34.265
34.268
34.276
34.29
34.309
34.331
34.355
34.38
34.403
34.425
34.445
34.463
34.48
34.495
34.508
34.518
34.526
34.53
34.532
34.531
34.527
34.52
34.509
34.494
34.477
34.455
34.429
34.4
34.368
34.334
34.296
34.256
34.214
34.169
34.123
34.077
34.029
33.982
33.933
33.884
33.833
33.78
33.726
33.672
33.618
33.565
33.514
33.465
33.42
33.378
33.339
33.302
33.266
33.231
33.198
33.164
33.131
33.1
33.071
33.043
33.017
32.993
32.971
32.951
32.931
32.91
32.889
32.866
32.843
32.818
32.794
32.769
32.746
32.725
32.705
32.688
32.674
32.664
32.659
32.662
32.674
32.697
32.734
32.788
32.863
32.961
33.087
33.244
33.434
33.661
33.926
34.228
34.565
34.936
35.337
35.761
36.203
36.656
37.115
37.572
38.021
38.453
38.864
39.247
39.597
39.911
40.186
40.418
40.61
40.759
40.868
40.937
40.97
40.97
40.939
40.881
40.799
40.695
40.573
40.436
40.284
40.12
39.946
39.763
39.574
39.38
39.183
38.985
38.787
38.591
38.399
38.211
38.028
37.851
37.68
37.514
37.353
37.195
37.041
36.889
36.739
36.591
36.443
36.297
36.151
36.007
35.865
35.726
35.591
35.461
35.335
35.213
35.096
34.985
34.88
34.783
34.692
34.607
34.531
34.463
34.405
34.358
34.323
34.299
34.286
34.283
34.288
34.3
34.319
34.342
34.369
34.396
34.422
34.445
34.466
34.482
34.494
34.502
34.507
34.51
34.511
34.51
34.506
34.5
34.492
34.481
34.467
34.449
34.427
34.401
34.371
34.338
34.302
34.264
34.224
34.184
34.141
34.096
34.049
34.0
33.949
33.896
33.843
33.79
33.737
33.685
33.635
33.586
33.54
33.495
33.452
33.41
33.369
33.329
33.29
33.253
33.217
33.181
33.145
33.109
33.073
33.037
33.001
32.964
32.928
32.893
32.859
32.827
32.797
32.77
32.746
32.725
32.706
32.689
32.673
32.659
32.646
32.635
32.625
32.618
32.614
32.613
32.616
32.627
32.648
32.679
32.726
32.79
32.877
32.991
33.136
33.317
33.537
33.798
34.1
34.444
34.825
35.239
35.681
36.143
36.617
37.096
37.57
38.033
38.478
38.898
39.287
39.642
39.958
40.233
40.466
40.654
40.799
40.901
40.963
40.987
40.977
40.935
40.866
40.773
40.66
40.531
40.387
40.231
40.067
39.895
39.718
39.536
39.351
39.163
38.974
38.785
38.598
38.413
38.233
38.058
37.889
37.726
37.568
37.414
37.264
37.116
36.969
36.821
36.671
36.519
36.364
36.207
36.048
35.888
35.728
35.571
35.418
35.272
35.132
35.002
34.88
34.768
34.666
34.574
34.492
34.42
34.359
34.308
34.267
34.236
34.215
34.202
34.197
34.199
34.208
34.22
34.236
34.255
34.274
34.293
34.31
34.326
34.338
34.349
34.357
34.363
34.367
34.371
34.373
34.375
34.376
34.375
34.371
34.365
34.356
34.343
34.325
34.303
34.275
34.244
34.209
34.171
34.131
34.09
34.048
34.004
33.958
33.91
33.859
33.808
33.755
33.702
33.648
33.595
33.543
33.493
33.444
33.396
33.351
33.307
33.265
33.224
33.185
33.148
33.113
33.081
33.049
33.017
32.984
32.95
32.916
32.881
32.847
32.812
32.778
32.744
32.712
32.682
32.654
32.629
32.608
32.589
32.572
32.557
32.545
32.535
32.527
32.52
32.517
32.516
32.52
32.529
32.546
32.573
32.613
32.667
32.74
32.834
32.953
33.101
33.283
33.501
33.757
34.053
34.388
34.759
35.162
35.592
36.042
36.504
36.972
37.436
37.89
38.326
38.738
39.122
39.472
39.785
40.058
40.291
40.481
40.629
40.735
40.799
40.824
40.812
40.767
40.691
40.589
40.465
40.322
40.164
39.995
39.819
39.637
39.455
39.278
39.108
38.945
38.787
38.634
38.482
38.329
38.172
38.011
37.844
37.67
37.491
37.307
37.12
36.932
36.743
36.555
36.368
36.186
36.009
35.838
35.674
35.519
35.372
35.234
35.106
34.987
34.877
34.774
34.68
34.593
34.513
34.44
34.374
34.316
34.266
34.225
34.192
34.167
34.151
34.142
34.14
34.142
34.148
34.157
34.169
34.183
34.198
34.215
34.234
34.254
34.275
34.296
34.316
34.335
34.351
34.364
34.37
34.371
34.366
34.355
34.338
34.317
34.291
34.264
34.235
34.205
34.174
34.142
34.111
34.079
34.047
34.013
33.979
33.943
33.905
33.865
33.822
33.777
33.73
33.682
33.633
33.585
33.537
33.491
33.445
33.401
33.358
33.316
33.275
33.235
33.197
33.161
33.128
33.098
33.072
33.049
33.028
33.009
32.991
32.972
32.952
32.93
32.906
32.878
32.848
32.817
32.785
32.754
32.724
32.697
32.671
32.649
32.629
32.612
32.599
32.591
32.588
32.593
32.608
32.634
32.674
32.728
32.799
32.889
33.001
33.137
33.3
33.494
33.721
33.985
34.284
34.62
34.99
35.389
35.814
36.257
36.712
37.171
37.628
38.074
38.501
38.903
39.275
39.612
39.911
40.169
40.384
40.555
40.683
40.768
40.812
40.817
40.785
40.721
40.627
40.509
40.368
40.209
40.035
39.849
39.654
39.453
39.249
39.043
38.838
38.636
38.436
38.24
38.05
37.864
37.681
37.501
37.323
37.146
36.971
36.798
36.627
36.46
36.297
36.137
35.982
35.829
35.68
35.534
35.392
35.255
35.121
34.994
34.873
34.759
34.653
34.555
34.466
34.387
34.319
34.26
34.211
34.172
34.141
34.12
34.107
34.101
34.104
34.113
34.129
34.149
34.174
34.202
34.233
34.265
34.297
34.328
34.358
34.385
34.409
34.43
34.447
34.459
34.468
34.472
34.473
34.472
34.468
34.463
34.456
34.446
34.431
34.412
34.388
34.359
34.325
34.286
34.242
34.194
34.143
34.089
34.034
33.979
33.926
33.875
33.826
33.78
33.735
33.693
33.653
33.614
33.577
33.54
33.504
33.469
33.435
33.402
33.37
33.338
33.307
33.277
33.245
33.214
33.181
33.148
33.114
33.08
33.047
33.014
32.983
32.953
32.924
32.897
32.872
32.85
32.83
32.811
32.793
32.778
32.764
32.751
32.741
32.734
32.734
32.744
32.767
32.807
32.868
32.953
33.068
33.216
33.398
33.618
33.877
34.175
34.51
34.879
35.279
35.705
36.15
36.608
37.072
37.534
37.988
38.426
38.842
39.232
39.59
39.914
40.201
40.447
40.651
40.812
40.929
41.004
41.037
41.031
40.987
40.911
40.805
40.675
40.524
40.357
40.178
39.99
39.797
39.601
39.404
39.208
39.015
38.826
38.641
38.46
38.284
38.112
37.944
37.778
37.614
37.451
37.288
37.123
36.957
36.79
36.621
36.451
36.281
36.113
35.948
35.787
35.632
35.485
35.345
35.213
35.09
34.976
34.871
34.773
34.684
34.603
34.531
34.467
34.412
34.366
34.329
34.3
34.28
34.267
34.261
34.262
34.271
34.285
34.305
34.33
34.357
34.385
34.413
34.439
34.464
34.488
34.509
34.527
34.542
34.554
34.562
34.566
34.567
34.564
34.558
34.548
34.535
34.517
34.496
34.471
34.441
34.409
34.373
34.336
34.295
34.254
34.211
34.167
34.121
34.074
34.024
33.972
33.918
33.862
33.806
33.75
33.695
33.641
33.588
33.537
33.49
33.445
33.404
33.366
33.329
33.293
33.259
33.226
33.193
33.16
33.127
33.094
33.06
33.024
32.987
32.95
32.912
32.876
32.842
32.809
32.779
32.751
32.726
32.704
32.686
32.67
32.66
32.653
32.653
32.66
32.676
32.706
32.749
32.804
32.874
32.965
33.082
33.232
33.421
33.655
33.934
34.262
34.636
35.052
35.504
35.987
36.491
37.007
37.525
38.037
38.533
39.004
39.443
39.844
40.201
40.511
40.772
40.983
41.145
41.259
41.327
41.354
41.343
41.299
41.224
41.124
41.002
40.863
40.71
40.546
40.372
40.191
40.004
39.814
39.622
39.429
39.235
39.041
38.85
38.66
38.474
38.292
38.115
37.944
37.778
37.617
37.461
37.308
37.157
37.008
36.858
36.708
36.557
36.404
36.251
36.097
35.945
35.796
35.651
35.511
35.377
35.251
35.134
35.026
34.928
34.839
34.76
34.691
34.631
34.579
34.535
34.499
34.471
34.453
34.442
34.438
34.441
34.45
34.462
34.478
34.496
34.513
34.53
34.546
34.559
34.567
34.571
34.57
34.564
34.553
34.539
34.521
34.501
34.48
34.456
34.43
34.401
34.369
34.333
34.294
34.25
34.202
34.151
34.097
34.042
33.987
33.931
33.875
33.821
33.767
33.713
33.659
33.605
33.552
33.499
33.446
33.394
33.343
33.294
33.245
33.198
33.153
33.109
33.066
33.025
32.986
32.948
32.913
32.88
32.849
32.819
32.79
32.762
32.736
32.712
32.69
32.669
32.649
32.631
32.614
32.597
32.581
32.565
32.551
32.536
32.521
32.507
32.496
32.49
32.491
32.501
32.521
32.554
32.603
32.671
32.761
32.878
33.025
33.207
33.428
33.688
33.99
34.334
34.718
35.138
35.59
36.068
36.564
37.069
37.575
38.074
38.557
39.019
39.452
39.85
40.209
40.524
40.793
41.015
41.191
41.321
41.407
41.453
41.461
41.434
41.376
41.289
41.177
41.044
40.895
40.731
40.557
40.375
40.186
39.994
39.799
39.602
39.406
39.212
39.021
38.834
38.649
38.467
38.289
38.114
37.943
37.775
37.61
37.447
37.286
37.124
36.962
36.802
36.645
36.491
36.34
36.191
36.043
35.896
35.751
35.607
35.465
35.327
35.194
35.068
34.95
34.841
34.742
34.655
34.579
34.514
34.461
34.417
34.382
34.356
34.337
34.325
34.319
34.319
34.325
34.337
34.353
34.374
34.399
34.428
34.458
34.487
34.515
34.54
34.562
34.579
34.591
34.599
34.601
34.599
34.591
34.579
34.561
34.539
34.512
34.48
34.443
34.401
34.354
34.305
34.252
34.196
34.139
34.082
34.025
33.968
33.912
33.857
33.804
33.753
33.703
33.654
33.605
33.555
33.504
33.452
33.398
33.345
33.291
33.239
33.188
33.139
33.093
33.049
33.008
32.97
32.935
32.901
32.867
32.834
32.8
32.767
32.734
32.701
32.669
32.637
32.604
32.57
32.535
32.499
32.463
32.427
32.392
32.362
32.337
32.32
32.313
32.319
32.34
32.377
32.434
32.51
32.61
32.735
32.89
33.079
33.305
33.57
33.877
34.226
34.615
35.04
35.496
35.978
36.477
36.986
37.496
37.998
38.484
38.946
39.377
39.772
40.125
40.434
40.696
40.911
41.078
41.199
41.274
41.308
41.302
41.262
41.191
41.093
40.972
40.833
40.677
40.509
40.33
40.145
39.955
39.764
39.571
39.379
39.188
38.999
38.811
38.624
38.44
38.257
38.075
37.893
37.711
37.529
37.348
37.166
36.986
36.808
36.631
36.457
36.286
36.117
35.95
35.786
35.625
35.469
35.318
35.172
35.032
34.9
34.775
34.66
34.554
34.459
34.375
34.303
34.242
34.191
34.152
34.125
34.109
34.103
34.106
34.116
34.133
34.154
34.179
34.205
34.232
34.259
34.285
34.31
34.334
34.358
34.381
34.404
34.426
34.446
34.462
34.474
34.481
34.481
34.476
34.466
34.449
34.428
34.403
34.372
34.337
34.299
34.258
34.214
34.168
34.118
34.065
34.009
33.951
33.891
33.831
33.771
33.713
33.657
33.603
33.551
33.5
33.45
33.4
33.35
33.3
33.251
33.202
33.156
33.112
33.07
33.031
32.994
32.959
32.926
32.893
32.861
32.83
32.799
32.769
32.739
32.71
32.681
32.653
32.625
32.597
32.568
32.54
32.51
32.481
32.453
32.428
32.406
32.389
32.379
32.378
32.389
32.412
32.452
32.511
32.593
32.701
32.839
33.011
33.22
33.469
33.76
34.093
34.467
34.878
35.323
35.796
36.292
36.803
37.321
37.836
38.341
38.828
39.29
39.718
40.107
40.452
40.75
40.998
41.194
41.34
41.436
41.485
41.49
41.456
41.387
41.287
41.161
41.013
40.848
40.668
40.477
40.279
40.077
39.872
39.666
39.462
39.259
39.058
38.861
38.666
38.473
38.281
38.091
37.901
37.711
37.521
37.332
37.143
36.956
36.771
36.589
36.41
36.235
36.065
35.901
35.742
35.589
35.441
35.299
35.162
35.03
34.904
34.785
34.674
34.571
34.478
34.395
34.324
34.265
34.219
34.184
34.162
34.151
34.149
34.157
34.173
34.196
34.225
34.259
34.296
34.334
34.375
34.416
34.456
34.496
34.533
34.567
34.597
34.62
34.638
34.649
34.655
34.656
34.654
34.646
34.635
34.62
34.6
34.576
34.547
34.513
34.473
34.427
34.375
34.317
34.255
34.191
34.126
34.06
33.994
33.929
33.866
33.805
33.747
33.692
33.639
33.59
33.542
33.496
33.45
33.404
33.357
33.31
33.262
33.212
33.16
33.108
33.055
33.003
32.951
32.901
32.852
32.807
32.763
32.723
32.685
32.651
32.619
32.589
32.561
32.533
32.507
32.482
32.459
32.438
32.419
32.405
32.396
32.394
32.401
32.42
32.455
32.509
32.586
32.69
32.827
33.0
33.213
33.47
33.77
34.115
34.503
34.932
35.395
35.888
36.403
36.932
37.467
38.0
38.522
39.025
39.501
39.944
40.348
40.708
41.021
41.285
41.498
41.66
41.771
41.833
41.848
41.821
41.756
41.657
41.528
41.376
41.203
41.014
40.813
40.603
40.389
40.172
39.956
39.743
39.534
39.329
39.13
38.935
38.746
38.561
38.38
38.201
38.025
37.85
37.675
37.5
37.325
37.15
36.973
36.797
36.62
36.445
36.271
36.1
35.933
35.772
35.616
35.468
35.329
35.197
35.075
34.962
34.857
34.762
34.675
34.597
34.529
34.471
34.423
34.386
34.36
34.346
34.344
34.352
34.37
34.397
34.43
34.468
34.508
34.548
34.588
34.625
34.658
34.687
34.71
34.727
34.739
34.748
34.753
34.753
34.75
34.744
34.734
34.72
34.7
34.676
34.645
34.608
34.565
34.515
34.459
34.398
34.334
34.267
34.199
34.13
34.061
33.992
33.924
33.855
33.786
33.718
33.651
33.585
33.519
33.455
33.392
33.33
33.271
33.213
33.157
33.103
33.05
32.998
32.946
32.895
32.845
32.795
32.746
32.697
32.648
32.601
32.556
32.514
32.474
32.437
32.402
32.369
32.338
32.308
32.28
32.252
32.227
32.203
32.181
32.161
32.144
32.129
32.12
32.117
32.126
32.151
32.196
32.268
32.372
32.514
32.699
32.93
33.21
33.54
33.918
34.342
34.809
35.315
35.852
36.413
36.989
37.57
38.147
38.71
39.251
39.761
40.235
40.665
41.047
41.375
41.647
41.863
42.024
42.131
42.187
42.196
42.163
42.092
41.988
41.857
41.702
41.529
41.342
41.145
40.942
40.737
40.531
40.327
40.126
39.929
39.736
39.547
39.363
39.183
39.006
38.831
38.659
38.489
38.32
38.151
37.982
37.814
