Trial 3:3back
34.008
33.988
33.969
33.95
33.932
33.913
33.895
33.877
33.859
33.842
33.825
33.805
33.784
33.759
33.732
33.701
33.669
33.636
33.602
33.567
33.533
33.5
33.469
33.44
33.414
33.389
33.366
33.345
33.325
33.307
33.291
33.275
33.261
33.246
33.23
33.215
33.199
33.182
33.166
33.149
33.132
33.114
33.096
33.078
33.06
33.041
33.023
33.006
32.99
32.975
32.962
32.951
32.941
32.931
32.921
32.911
32.899
32.886
32.872
32.856
32.838
32.819
32.798
32.776
32.755
32.735
32.716
32.697
32.678
32.659
32.638
32.618
32.597
32.576
32.556
32.536
32.517
32.5
32.486
32.475
32.468
32.466
32.472
32.486
32.512
32.552
32.61
32.689
32.795
32.932
33.104
33.315
33.569
33.867
34.211
34.597
35.02
35.473
35.947
36.433
36.922
37.403
37.868
38.309
38.718
39.092
39.426
39.719
39.969
40.177
40.344
40.473
40.567
40.628
40.659
40.664
40.646
40.609
40.556
40.491
40.416
40.334
40.248
40.16
40.072
39.984
39.897
39.811
39.726
39.642
39.562
39.484
39.411
39.343
39.28
39.223
39.173
39.129
39.091
39.059
39.032
39.007
38.983
38.959
38.932
38.903
38.87
38.835
38.797
38.756
38.712
38.666
38.619
38.569
38.516
38.461
38.402
38.341
38.278
38.212
38.143
38.074
38.004
37.935
37.869
37.808
37.751
37.701
37.656
37.619
37.589
37.567
37.552
37.544
37.541
37.544
37.552
37.564
37.579
37.595
37.61
37.623
37.633
37.64
37.645
37.648
37.647
37.644
37.637
37.628
37.615
37.6
37.583
37.562
37.539
37.512
37.482
37.447
37.41
37.37
37.326
37.278
37.226
37.171
37.113
37.052
36.987
36.919
36.848
36.773
36.695
36.614
36.532
36.451
36.369
36.289
36.21
36.132
36.056
35.983
35.912
35.843
35.777
35.712
35.649
35.587
35.525
35.463
35.401
35.339
35.279
35.22
35.164
35.11
35.058
35.007
34.958
34.91
34.862
34.814
34.767
34.719
34.671
34.624
34.578
34.534
34.493
34.454
34.418
34.386
34.358
34.335
34.314
34.298
34.284
34.272
34.26
34.248
34.235
34.221
34.203
34.182
34.157
34.131
34.103
34.074
34.046
34.017
33.99
33.964
33.94
33.916
33.893
33.872
33.854
33.837
33.82
33.804
33.787
33.768
33.748
33.726
33.703
33.678
33.652
33.625
33.596
33.564
33.53
33.495
33.46
33.426
33.392
33.359
33.325
33.292
33.259
33.226
33.194
33.164
33.136
33.111
33.089
33.07
33.053
33.038
33.023
33.007
32.989
32.97
32.95
32.929
32.907
32.885
32.862
32.838
32.813
32.79
32.766
32.743
32.72
32.697
32.674
32.649
32.623
32.595
32.566
32.535
32.504
32.472
32.441
32.413
32.385
32.359
32.335
32.312
32.29
32.27
32.251
32.234
32.219
32.206
32.196
32.188
32.182
32.178
32.176
32.175
32.177
32.178
32.18
32.179
32.176
32.169
32.159
32.145
32.128
32.107
32.084
32.06
32.034
32.007
31.978
31.95
31.923
31.898
31.874
31.851
31.829
31.807
31.784
31.763
31.744
31.729
31.718
31.712
31.713
31.721
31.736
31.761
31.795
31.841
31.902
31.981
32.082
32.21
32.369
32.563
32.797
33.073
33.393
33.754
34.154
34.587
35.045
35.521
36.005
36.489
36.964
37.419
37.848
38.244
38.603
38.923
39.201
39.436
39.63
39.784
39.9
39.982
40.033
40.057
40.058
40.038
40.002
39.951
39.89
39.819
39.738
39.645
39.544
39.436
39.326
39.216
39.11
39.009
38.916
38.831
38.754
38.686
38.624
38.57
38.521
38.477
38.436
38.396
38.356
38.315
38.272
38.227
38.181
38.132
38.084
38.034
37.985
37.936
37.888
37.84
37.793
37.745
37.695
37.643
37.588
37.531
37.471
37.409
37.345
37.282
37.219
37.158
37.101
37.049
37.002
36.962
36.929
36.906
36.893
36.889
36.895
36.91
36.933
36.955
36.975
36.99
37.002
37.013
37.024
37.037
37.053
37.074
37.1
37.131
37.165
37.201
37.239
37.276
37.311
37.343
37.37
37.392
37.407
37.414
37.412
37.401
37.381
37.352
37.314
37.267
37.212
37.151
37.084
37.013
36.94
36.865
36.788
36.711
36.632
36.554
36.476
36.4
36.324
36.248
36.174
36.099
36.026
35.953
35.881
35.809
35.739
35.669
35.601
35.535
35.472
35.412
35.356
35.305
35.257
35.21
35.159
35.102
35.04
34.976
34.91
34.847
34.787
34.732
34.681
34.636
34.597
34.565
34.538
34.516
34.5
34.487
34.477
34.47
34.464
34.461
34.459
34.457
34.455
34.454
34.451
34.447
34.441
34.433
34.423
34.412
34.399
34.387
34.374
34.362
34.351
34.341
34.331
34.323
34.314
34.305
34.294
34.282
34.269
34.256
34.241
34.224
34.207
34.189
34.169
34.148
34.124
34.098
34.069
34.04
34.009
33.978
33.946
33.914
33.882
33.848
33.814
33.78
33.746
33.713
33.682
33.652
33.622
33.594
33.568
33.542
33.518
33.496
33.474
33.454
33.435
33.416
33.399
33.381
33.364
33.347
33.33
33.313
33.296
33.279
33.262
33.245
33.227
33.208
33.19
33.171
33.154
33.137
33.12
33.104
33.088
33.071
33.053
33.034
33.015
32.995
32.975
32.955
32.934
32.913
32.891
32.868
32.844
32.819
32.793
32.767
32.741
32.714
32.688
32.662
32.637
32.613
32.592
32.572
32.556
32.545
32.538
32.538
32.545
32.561
32.586
32.626
32.682
32.761
32.866
33.004
33.179
33.396
33.658
33.967
34.321
34.716
35.148
35.607
36.086
36.576
37.068
37.55
38.016
38.458
38.867
39.24
39.572
39.861
40.107
40.31
40.473
40.598
40.688
40.744
40.771
40.772
40.752
40.715
40.664
40.604
40.537
40.465
40.391
40.314
40.236
40.159
40.081
40.004
39.927
39.85
39.773
39.695
39.618
39.54
39.463
39.386
39.31
39.235
39.161
39.09
39.022
38.957
38.896
38.838
38.784
38.733
38.684
38.638
38.593
38.548
38.503
38.458
38.411
38.363
38.312
38.259
38.204
38.148
38.09
38.03
37.969
37.907
37.846
37.787
37.73
37.676
37.626
37.581
37.54
37.504
37.475
37.453
37.439
37.432
37.432
37.439
37.452
37.471
37.495
37.524
37.555
37.586
37.617
37.646
37.67
37.69
37.704
37.712
37.713
37.709
37.7
37.686
37.666
37.642
37.614
37.583
37.548
37.511
37.471
37.428
37.382
37.333
37.281
37.226
37.168
37.107
37.043
36.977
36.908
36.836
36.762
36.688
36.614
36.54
36.468
36.399
36.331
36.266
36.201
36.136
36.069
36.001
35.93
35.858
35.783
35.706
35.628
35.548
35.469
35.389
35.309
35.231
35.154
35.079
35.007
34.939
34.874
34.814
34.757
34.704
34.655
34.611
34.572
34.538
34.507
34.48
34.454
34.43
34.407
34.384
34.359
34.334
34.309
34.285
34.262
34.239
34.218
34.199
34.181
34.164
34.148
34.132
34.115
34.097
34.078
34.057
34.034
34.009
33.982
33.953
33.922
33.891
33.86
33.829
33.8
33.772
33.746
33.721
33.699
33.68
33.662
33.644
33.626
33.606
33.585
33.563
33.539
33.514
33.488
33.463
33.438
33.414
33.39
33.366
33.342
33.317
33.29
33.263
33.235
33.205
33.175
33.144
33.114
33.084
33.055
33.027
33.0
32.975
32.953
32.934
32.918
32.903
32.89
32.876
32.862
32.846
32.83
32.813
32.795
32.777
32.758
32.738
32.718
32.697
32.677
32.657
32.638
32.617
32.596
32.575
32.555
32.537
32.521
32.506
32.492
32.479
32.467
32.455
32.443
32.43
32.417
32.403
32.387
32.37
32.352
32.333
32.312
32.291
32.27
32.249
32.228
32.207
32.188
32.171
32.156
32.143
32.132
32.122
32.113
32.103
32.094
32.083
32.071
32.057
32.041
32.023
32.001
31.977
31.949
31.92
31.889
31.856
31.823
31.79
31.757
31.726
31.695
31.667
31.642
31.62
31.603
31.59
31.584
31.586
31.598
31.622
31.661
31.718
31.797
31.904
32.042
32.217
32.433
32.694
33.001
33.355
33.753
34.191
34.663
35.158
35.668
36.183
36.692
37.186
37.657
38.096
38.498
38.856
39.169
39.433
39.651
39.823
39.952
40.042
40.096
40.12
40.117
40.093
40.051
39.996
39.93
39.855
39.774
39.688
39.6
39.509
39.418
39.327
39.236
39.147
39.06
38.975
38.893
38.814
38.738
38.666
38.596
38.527
38.461
38.397
38.336
38.276
38.218
38.161
38.105
38.052
38.002
37.953
37.907
37.861
37.817
37.772
37.728
37.682
37.635
37.586
37.534
37.479
37.421
37.361
37.298
37.234
37.169
37.103
37.037
36.974
36.914
36.86
36.812
36.771
36.737
36.712
36.695
36.686
36.686
36.693
36.707
36.727
36.752
36.78
36.811
36.842
36.874
36.903
36.931
36.955
36.976
36.994
37.009
37.02
37.028
37.032
37.031
37.026
37.016
37.0
36.979
36.953
36.922
36.887
36.846
36.802
36.754
36.701
36.645
36.586
36.522
36.455
36.385
36.314
36.242
36.17
36.099
36.028
35.959
35.891
35.823
35.756
35.691
35.626
35.563
35.502
35.442
35.384
35.327
35.271
35.218
35.165
35.113
35.062
35.014
34.967
34.924
34.882
34.842
34.803
34.764
34.724
34.684
34.644
34.603
34.564
34.526
34.489
34.454
34.421
34.391
34.365
34.34
34.319
34.3
34.285
34.272
34.261
34.252
34.244
34.236
34.229
34.222
34.216
34.21
34.204
34.197
34.191
34.185
34.178
34.17
34.161
34.151
34.141
34.13
34.118
34.105
34.092
34.079
34.067
34.056
34.044
34.032
34.019
34.005
33.989
33.973
33.955
33.936
33.915
33.893
33.871
33.848
33.826
33.805
33.783
33.763
33.742
33.723
33.703
33.684
33.665
33.645
33.624
33.601
33.576
33.548
33.517
33.484
33.449
33.412
33.376
33.34
33.306
33.276
33.249
33.226
33.207
33.191
33.178
33.168
33.16
33.154
33.15
33.145
33.139
33.132
33.122
33.111
33.098
33.084
33.069
33.052
33.033
33.014
32.993
32.972
32.951
32.928
32.905
32.881
32.857
32.833
32.808
32.782
32.755
32.727
32.699
32.67
32.643
32.618
32.596
32.577
32.561
32.547
32.536
32.529
32.525
32.526
32.534
32.55
32.578
32.621
32.683
32.77
32.884
33.033
33.218
33.446
33.716
34.031
34.388
34.783
35.211
35.663
36.131
36.608
37.083
37.55
38.0
38.425
38.82
39.18
39.502
39.784
40.024
40.224
40.384
40.507
40.596
40.654
40.683
40.689
40.674
40.642
40.596
40.54
40.477
40.407
40.333
40.256
40.176
40.093
40.008
39.921
39.833
39.744
39.654
39.565
39.477
39.391
39.308
39.228
39.152
39.079
39.01
38.946
38.885
38.828
38.775
38.725
38.677
38.63
38.584
38.538
38.49
38.441
38.388
38.333
38.274
38.213
38.149
38.081
38.012
37.942
37.872
37.803
37.736
37.67
37.608
37.549
37.495
37.446
37.403
37.368
37.339
37.319
37.307
37.305
37.311
37.326
37.349
37.378
37.411
37.448
37.485
37.523
37.559
37.593
37.624
37.65
37.67
37.686
37.696
37.7
37.698
37.691
37.678
37.658
37.634
37.603
37.567
37.525
37.476
37.423
37.365
37.305
37.244
37.184
37.122
37.06
36.996
36.93
36.863
36.793
36.721
36.646
36.569
36.49
36.409
36.329
36.248
36.167
36.086
36.006
35.926
35.848
35.771
35.696
35.62
35.546
35.473
35.401
35.331
35.263
35.198
35.136
35.077
35.021
34.969
34.921
34.877
34.836
34.8
34.768
34.738
34.71
34.682
34.655
34.629
34.602
34.576
34.551
34.525
34.504
34.49
34.484
34.483
34.484
34.486
34.486
34.482
34.472
34.456
34.434
34.406
34.373
34.336
34.296
34.255
34.214
34.175
34.139
34.107
34.078
34.052
34.029
34.008
33.989
33.971
33.954
33.936
33.917
33.897
33.877
33.856
33.834
33.812
33.789
33.764
33.738
33.712
33.684
33.655
33.627
33.597
33.568
33.54
33.513
33.487
33.464
33.442
33.421
33.401
33.382
33.362
33.342
33.322
33.301
33.279
33.258
33.236
33.215
33.195
33.176
33.156
33.136
33.113
33.089
33.062
33.034
33.004
32.972
32.94
32.907
32.875
32.843
32.813
32.784
32.758
32.736
32.718
32.702
32.69
32.681
32.675
32.67
32.668
32.667
32.666
32.665
32.662
32.658
32.653
32.646
32.638
32.628
32.616
32.604
32.59
32.573
32.555
32.533
32.508
32.481
32.453
32.423
32.391
32.36
32.329
32.299
32.27
32.242
32.216
32.19
32.167
32.145
32.126
32.109
32.094
32.084
32.08
32.084
32.101
32.133
32.187
32.266
32.375
32.519
32.703
32.93
33.204
33.526
33.893
34.303
34.75
35.225
35.721
36.228
36.737
37.236
37.718
38.173
38.595
38.98
39.323
39.622
39.876
40.087
40.256
40.386
40.479
40.54
40.571
40.576
40.559
40.522
40.47
40.405
40.33
40.248
40.16
40.07
39.98
39.89
39.801
39.714
39.629
39.545
39.464
39.383
39.303
39.225
39.148
39.072
38.998
38.927
38.859
38.795
38.736
38.681
38.631
38.585
38.542
38.502
38.465
38.43
38.394
38.357
38.319
38.277
38.232
38.182
38.127
38.069
38.006
37.94
37.871
37.8
37.727
37.655
37.584
37.516
37.452
37.394
37.342
37.296
37.256
37.223
37.197
37.178
37.165
37.16
37.16
37.165
37.175
37.188
37.205
37.224
37.245
37.267
37.29
37.313
37.337
37.358
37.378
37.395
37.407
37.414
37.415
37.407
37.391
37.367
37.333
37.292
37.244
37.191
37.133
37.072
37.009
36.944
36.878
36.812
36.745
36.68
36.616
36.553
36.491
36.428
36.364
36.3
36.235
36.169
36.101
36.033
35.962
35.891
35.82
35.749
35.679
35.609
35.54
35.472
35.406
35.341
35.279
35.219
35.16
35.104
35.049
34.995
34.943
34.893
34.844
34.797
34.753
34.711
34.672
34.635
34.6
34.565
34.53
34.495
34.46
34.425
34.39
34.356
34.323
34.293
34.266
34.244
34.226
34.212
34.202
34.197
34.194
34.192
34.191
34.19
34.187
34.182
34.176
34.166
34.154
34.138
34.119
34.098
34.076
34.053
34.03
34.008
33.986
33.965
33.946
33.927
33.909
33.891
33.873
33.856
33.838
33.821
33.803
33.785
33.768
33.751
33.735
33.719
33.703
33.687
33.67
33.653
33.634
33.613
33.591
33.566
33.54
33.512
33.483
33.453
33.422
33.391
33.36
33.33
33.301
33.273
33.247
33.222
33.199
33.177
33.157
33.139
33.123
33.11
33.098
33.089
33.083
33.079
33.077
33.076
33.076
33.076
33.075
33.073
33.069
33.064
33.056
33.045
33.031
33.014
32.993
32.97
32.944
32.919
32.892
32.865
32.838
32.812
32.785
32.759
32.735
32.712
32.69
32.67
32.652
32.637
32.625
32.616
32.611
32.609
32.611
32.616
32.626
32.643
32.668
32.702
32.75
32.815
32.901
33.015
33.159
33.34
33.56
33.822
34.124
34.466
34.843
35.249
35.679
36.124
36.575
37.026
37.466
37.888
38.287
38.657
38.995
39.296
39.56
39.787
39.975
40.127
40.245
40.331
40.39
40.424
40.438
40.434
40.415
40.383
40.34
40.287
40.227
40.161
40.089
40.013
39.933
39.851
39.768
39.685
39.602
39.521
39.442
39.366
39.292
39.22
39.152
39.086
39.025
38.968
38.916
38.867
38.819
38.77
38.721
38.671
38.62
38.571
38.521
38.472
38.423
38.374
38.325
38.275
38.223
38.167
38.108
38.046
37.981
37.915
37.849
37.783
37.72
37.66
37.606
37.559
37.521
37.493
37.474
37.466
37.468
37.48
37.502
37.531
37.567
37.608
37.652
37.698
37.742
37.783
37.821
37.852
37.877
37.897
37.91
37.918
37.919
37.915
37.906
37.891
37.871
37.848
37.819
37.787
37.751
37.71
37.665
37.615
37.562
37.505
37.445
37.383
37.318
37.253
37.186
37.117
37.048
36.978
36.907
36.837
36.767
36.697
36.628
36.559
36.491
36.422
36.355
36.287
36.219
36.151
36.083
36.013
35.943
35.872
35.801
35.73
35.66
35.591
35.524
35.461
35.401
35.345
35.294
35.247
35.204
35.166
35.131
35.101
35.073
35.047
35.024
35.002
34.982
34.961
34.942
34.922
34.903
34.882
34.861
34.839
34.817
34.795
34.773
34.752
34.732
34.712
34.693
34.673
34.653
34.632
34.61
34.588
34.565
34.543
34.52
34.498
34.476
34.454
34.432
34.41
34.387
34.362
34.337
34.311
34.283
34.255
34.226
34.194
34.16
34.123
34.086
34.047
34.008
33.968
33.929
33.893
33.859
33.827
33.798
33.771
33.745
33.719
33.694
33.669
33.645
33.621
33.597
33.573
33.548
33.523
33.496
33.469
33.442
33.415
33.388
33.361
33.334
33.306
33.279
33.251
33.224
33.197
33.173
33.15
33.128
33.108
33.09
33.073
33.056
33.039
33.022
33.005
32.989
32.975
32.962
32.949
32.937
32.925
32.913
32.902
32.891
32.88
32.868
32.855
32.84
32.824
32.805
32.784
32.761
32.737
32.71
32.682
32.652
32.622
32.591
32.56
32.53
32.501
32.473
32.447
32.424
32.403
32.385
32.372
32.365
32.366
32.377
32.401
32.441
32.5
32.584
32.696
32.843
33.027
33.254
33.526
33.842
34.203
34.603
35.035
35.492
35.965
36.446
36.924
37.392
37.84
38.263
38.653
39.008
39.324
39.599
39.835
40.03
40.187
40.307
40.394
40.45
40.477
40.48
40.461
40.424
40.373
40.312
40.242
40.167
40.09
40.011
39.933
39.856
39.78
39.707
39.635
39.565
39.497
39.43
39.364
39.3
39.238
39.179
39.124
39.072
39.024
38.981
38.941
38.906
38.873
38.842
38.812
38.783
38.754
38.724
38.692
38.656
38.617
38.572
38.522
38.466
38.405
38.339
38.269
38.196
38.12
38.044
37.968
37.894
37.821
37.751
37.683
37.618
37.557
37.5
37.448
37.402
37.363
37.33
37.304
37.284
37.271
37.264
37.263
37.268
37.277
37.29
37.305
37.322
37.339
37.355
37.369
37.379
37.385
37.386
37.38
37.369
37.352
37.329
37.3
37.267
37.229
37.187
37.141
37.093
37.041
36.987
36.93
36.873
36.814
36.756
36.696
36.634
36.571
36.504
36.435
36.363
36.289
36.213
36.134
36.054
35.972
35.89
35.809
35.729
35.651
35.576
35.504
35.434
35.367
35.304
35.244
35.186
35.13
35.076
35.023
34.972
34.921
34.872
34.822
34.773
34.724
34.676
34.629
34.582
34.536
34.491
34.449
34.41
34.374
34.342
34.312
34.285
34.261
34.239
34.218
34.198
34.179
34.161
34.145
34.129
34.112
34.096
34.079
34.062
34.045
34.027
34.009
33.992
33.975
33.959
33.943
33.927
33.91
33.892
33.874
33.854
33.832
33.81
33.787
33.764
33.74
33.717
33.695
33.673
33.652
33.631
33.611
33.59
33.569
33.549
33.528
33.505
33.481
33.456
33.429
33.4
33.371
33.341
33.311
33.28
33.247
33.213
33.177
33.14
33.104
33.067
33.031
32.995
32.962
32.93
32.9
32.874
32.851
32.831
32.815
32.802
32.79
32.781
32.772
32.765
32.758
32.751
32.742
32.733
32.723
32.712
32.702
32.692
32.681
32.671
32.662
32.652
32.641
32.629
32.617
32.603
32.588
32.571
32.552
32.532
32.51
32.488
32.465
32.444
32.423
32.402
32.381
32.359
32.338
32.317
32.296
32.276
32.258
32.241
32.226
32.214
32.203
32.195
32.19
32.189
32.192
32.2
32.213
32.234
32.266
32.311
32.373
32.457
32.567
32.709
32.888
33.107
33.368
33.67
34.012
34.389
34.795
35.226
35.671
36.125
36.579
37.024
37.452
37.856
38.231
38.573
38.88
39.15
39.382
39.576
39.734
39.858
39.951
40.015
40.055
40.075
40.076
40.062
40.034
39.996
39.948
39.892
39.829
39.76
39.686
39.607
39.524
39.439
39.353
39.266
39.179
39.093
39.009
38.928
38.852
38.781
38.717
38.658
38.605
38.557
38.514
38.474
38.438
38.404
38.37
38.336
38.3
38.262
38.221
38.176
38.128
38.076
38.02
37.96
37.896
37.831
37.766
37.702
37.638
37.576
37.514
37.454
37.395
37.34
37.289
37.245
37.206
37.175
37.15
37.132
37.12
37.116
37.118
37.128
37.144
37.166
37.194
37.225
37.258
37.291
37.321
37.349
37.374
37.395
37.411
37.421
37.426
37.426
37.42
37.408
37.391
37.368
37.34
37.308
37.27
37.229
37.183
37.135
37.085
37.033
36.982
36.929
36.876
36.822
36.767
36.711
36.654
36.595
36.535
36.473
36.409
36.342
36.276
36.212
36.15
36.09
36.03
35.969
35.907
35.842
35.775
35.707
35.637
35.566
35.495
35.424
35.354
35.286
35.22
35.158
35.098
35.04
34.984
34.931
34.881
34.833
34.788
34.747
34.708
34.673
34.642
34.615
34.592
34.571
34.552
34.534
34.518
34.502
34.486
34.47
34.453
34.435
34.417
34.399
34.38
34.361
34.341
34.321
34.302
34.283
34.263
34.243
34.222
34.2
34.177
34.154
34.132
34.111
34.089
34.069
34.049
34.032
34.016
34.0
33.983
33.966
33.947
33.928
33.907
33.885
33.861
33.836
33.807
33.777
33.744
33.708
33.67
33.63
33.589
33.548
33.507
33.468
33.43
33.395
33.363
33.334
33.308
33.285
33.263
33.244
33.227
33.211
33.194
33.178
33.162
33.144
33.126
33.107
33.086
33.063
33.038
33.012
32.986
32.96
32.935
32.911
32.889
32.868
32.848
32.831
