Trial 3:3back
33.897
33.884
33.868
33.851
33.832
33.812
33.792
33.771
33.749
33.726
33.702
33.678
33.655
33.631
33.608
33.586
33.564
33.545
33.527
33.511
33.496
33.483
33.47
33.457
33.443
33.428
33.411
33.393
33.375
33.356
33.338
33.32
33.303
33.285
33.267
33.249
33.231
33.214
33.197
33.182
33.168
33.156
33.145
33.136
33.128
33.121
33.115
33.111
33.107
33.105
33.104
33.104
33.105
33.106
33.107
33.107
33.104
33.1
33.094
33.087
33.077
33.065
33.051
33.035
33.017
32.999
32.98
32.961
32.943
32.926
32.91
32.895
32.882
32.87
32.859
32.85
32.843
32.838
32.835
32.835
32.836
32.84
32.846
32.855
32.868
32.888
32.917
32.958
33.017
33.096
33.201
33.336
33.504
33.709
33.952
34.232
34.546
34.888
35.253
35.634
36.023
36.411
36.791
37.155
37.497
37.81
38.091
38.335
38.542
38.711
38.843
38.94
39.003
39.036
39.04
39.02
38.978
38.918
38.845
38.76
38.668
38.569
38.465
38.359
38.25
38.141
38.034
37.93
37.83
37.735
37.646
37.565
37.489
37.419
37.353
37.291
37.233
37.178
37.127
37.079
37.034
36.993
36.955
36.919
36.885
36.852
36.819
36.788
36.756
36.725
36.692
36.658
36.622
36.586
36.547
36.507
36.466
36.423
36.379
36.334
36.289
36.246
36.206
36.171
36.139
36.113
36.09
36.072
36.059
36.052
36.049
36.051
36.058
36.07
36.087
36.109
36.136
36.169
36.206
36.247
36.29
36.333
36.374
36.413
36.448
36.478
36.503
36.524
36.538
36.547
36.551
36.548
36.539
36.525
36.505
36.481
36.453
36.419
36.381
36.337
36.289
36.239
36.185
36.13
36.074
36.018
35.962
35.906
35.851
35.798
35.746
35.696
35.647
35.601
35.555
35.509
35.465
35.421
35.378
35.336
35.295
35.254
35.213
35.174
35.138
35.103
35.072
35.044
35.019
34.997
34.975
34.955
34.936
34.917
34.899
34.881
34.864
34.848
34.833
34.818
34.805
34.793
34.782
34.773
34.766
34.76
34.754
34.749
34.742
34.735
34.727
34.718
34.709
34.7
34.691
34.681
34.671
34.661
34.651
34.643
34.635
34.627
34.621
34.616
34.611
34.606
34.601
34.595
34.589
34.582
34.574
34.565
34.555
34.543
34.531
34.518
34.504
34.491
34.478
34.466
34.454
34.442
34.429
34.415
34.399
34.382
34.364
34.345
34.326
34.307
34.289
34.271
34.253
34.235
34.216
34.197
34.178
34.161
34.144
34.127
34.11
34.094
34.079
34.065
34.051
34.037
34.023
34.009
33.995
33.98
33.965
33.949
33.934
33.919
33.902
33.885
33.867
33.847
33.826
33.804
33.78
33.756
33.73
33.703
33.676
33.648
33.618
33.588
33.557
33.527
33.496
33.467
33.44
33.414
33.39
33.368
33.348
33.33
33.313
33.298
33.283
33.269
33.257
33.244
33.232
33.218
33.204
33.187
33.17
33.153
33.135
33.118
33.102
33.087
33.074
33.065
33.062
33.065
33.075
33.094
33.124
33.169
33.232
33.318
33.429
33.571
33.747
33.957
34.203
34.481
34.789
35.121
35.471
35.833
36.199
36.563
36.917
37.255
37.571
37.859
38.117
38.343
38.536
38.694
38.819
38.911
38.972
39.007
39.016
39.005
38.975
38.93
38.873
38.805
38.729
38.647
38.559
38.469
38.377
38.284
38.191
38.099
38.008
37.919
37.833
37.748
37.667
37.589
37.514
37.444
37.379
37.319
37.264
37.214
37.17
37.131
37.097
37.067
37.041
37.017
36.996
36.975
36.954
36.933
36.912
36.89
36.866
36.84
36.812
36.781
36.747
36.711
36.672
36.632
36.59
36.547
36.502
36.459
36.416
36.375
36.337
36.304
36.275
36.252
36.234
36.222
36.215
36.214
36.217
36.225
36.237
36.252
36.269
36.287
36.305
36.323
36.34
36.356
36.371
36.383
36.391
36.396
36.396
36.393
36.387
36.379
36.369
36.356
36.341
36.323
36.303
36.279
36.251
36.222
36.19
36.157
36.123
36.087
36.05
36.008
35.958
35.899
35.833
35.763
35.691
35.62
35.552
35.489
35.433
35.385
35.345
35.312
35.284
35.262
35.243
35.226
35.212
35.199
35.185
35.172
35.156
35.139
35.12
35.097
35.073
35.047
35.02
34.992
34.963
34.935
34.906
34.878
34.85
34.823
34.797
34.774
34.754
34.735
34.72
34.707
34.697
34.688
34.682
34.677
34.674
34.672
34.671
34.669
34.667
34.664
34.66
34.655
34.648
34.64
34.63
34.617
34.603
34.587
34.569
34.551
34.532
34.514
34.497
34.481
34.466
34.453
34.44
34.427
34.415
34.402
34.389
34.377
34.364
34.35
34.337
34.324
34.31
34.295
34.278
34.26
34.242
34.222
34.202
34.18
34.156
34.132
34.108
34.085
34.062
34.038
34.014
33.989
33.964
33.939
33.914
33.89
33.866
33.844
33.824
33.805
33.787
33.771
33.755
33.741
33.727
33.715
33.703
33.689
33.673
33.654
33.634
33.611
33.587
33.563
33.538
33.514
33.49
33.468
33.448
33.43
33.414
33.399
33.387
33.376
33.369
33.362
33.357
33.354
33.352
33.352
33.354
33.356
33.359
33.362
33.365
33.366
33.366
33.362
33.356
33.347
33.334
33.318
33.3
33.278
33.255
33.232
33.208
33.184
33.161
33.139
33.119
33.102
33.088
33.077
33.069
33.064
33.06
33.057
33.055
33.053
33.052
33.053
33.058
33.067
33.084
33.111
33.152
33.212
33.298
33.413
33.562
33.746
33.967
34.225
34.518
34.842
35.191
35.559
35.937
36.317
36.69
37.048
37.385
37.696
37.975
38.22
38.429
38.6
38.736
38.836
38.903
38.941
38.952
38.942
38.911
38.865
38.805
38.735
38.657
38.573
38.485
38.393
38.298
38.203
38.109
38.018
37.929
37.843
37.76
37.68
37.602
37.528
37.457
37.39
37.328
37.269
37.215
37.164
37.119
37.078
37.043
37.012
36.984
36.96
36.939
36.919
36.9
36.881
36.861
36.839
36.816
36.791
36.763
36.731
36.695
36.657
36.616
36.573
36.529
36.483
36.438
36.393
36.35
36.311
36.276
36.249
36.228
36.215
36.209
36.21
36.218
36.231
36.25
36.275
36.304
36.335
36.368
36.402
36.437
36.473
36.508
36.541
36.574
36.604
36.633
36.659
36.683
36.702
36.717
36.725
36.727
36.721
36.708
36.688
36.661
36.627
36.588
36.545
36.498
36.45
36.399
36.348
36.296
36.245
36.194
36.143
36.094
36.045
35.998
35.951
35.907
35.864
35.823
35.783
35.744
35.705
35.668
35.63
35.593
35.557
35.521
35.485
35.45
35.415
35.379
35.343
35.307
35.27
35.234
35.2
35.167
35.137
35.109
35.085
35.061
35.039
35.018
35.0
34.984
34.97
34.959
34.949
34.942
34.938
34.935
34.934
34.936
34.938
34.941
34.944
34.947
34.949
34.951
34.951
34.952
34.953
34.955
34.956
34.956
34.954
34.95
34.943
34.933
34.919
34.9
34.877
34.851
34.821
34.789
34.757
34.724
34.692
34.661
34.63
34.6
34.57
34.54
34.51
34.481
34.453
34.425
34.398
34.37
34.342
34.313
34.283
34.251
34.216
34.179
34.14
34.102
34.065
34.029
33.996
33.965
33.938
33.914
33.894
33.876
33.861
33.848
33.837
33.827
33.818
33.811
33.804
33.799
33.793
33.788
33.782
33.775
33.768
33.759
33.751
33.743
33.736
33.73
33.725
33.721
33.717
33.713
33.707
33.7
33.692
33.681
33.668
33.654
33.638
33.621
33.602
33.583
33.564
33.545
33.527
33.509
33.492
33.475
33.46
33.446
33.433
33.422
33.411
33.401
33.393
33.387
33.383
33.381
33.381
33.385
33.392
33.403
33.42
33.445
33.481
33.531
33.598
33.687
33.8
33.941
34.113
34.317
34.552
34.817
35.11
35.427
35.76
36.104
36.451
36.794
37.126
37.442
37.737
38.007
38.25
38.462
38.641
38.788
38.902
38.986
39.042
39.072
39.078
39.062
39.027
38.978
38.915
38.843
38.763
38.676
38.587
38.495
38.403
38.312
38.223
38.136
38.052
37.97
37.892
37.815
37.741
37.668
37.596
37.525
37.455
37.387
37.32
37.256
37.196
37.14
37.089
37.042
36.999
36.961
36.926
36.895
36.867
36.841
36.816
36.792
36.767
36.741
36.712
36.682
36.649
36.613
36.575
36.535
36.493
36.45
36.407
36.364
36.323
36.284
36.251
36.222
36.2
36.184
36.174
36.17
36.171
36.178
36.19
36.206
36.226
36.25
36.276
36.304
36.332
36.36
36.387
36.412
36.433
36.45
36.462
36.468
36.47
36.466
36.459
36.447
36.434
36.417
36.398
36.376
36.352
36.326
36.298
36.267
36.234
36.199
36.162
36.122
36.081
36.037
35.99
35.94
35.89
35.838
35.786
35.734
35.682
35.631
35.582
35.533
35.484
35.437
35.391
35.347
35.305
35.266
35.229
35.193
35.158
35.124
35.089
35.054
35.019
34.984
34.949
34.916
34.885
34.855
34.828
34.803
34.781
34.762
34.746
34.732
34.72
34.71
34.702
34.696
34.691
34.688
34.686
34.687
34.688
34.69
34.692
34.693
34.693
34.693
34.692
34.691
34.689
34.685
34.68
34.673
34.665
34.654
34.643
34.631
34.619
34.605
34.591
34.576
34.562
34.548
34.536
34.525
34.516
34.507
34.499
34.491
34.483
34.475
34.467
34.458
34.448
34.437
34.425
34.412
34.396
34.379
34.359
34.337
34.313
34.287
34.262
34.237
34.213
34.191
34.172
34.155
34.138
34.123
34.108
34.095
34.081
34.067
34.053
34.039
34.025
34.011
33.998
33.985
33.973
33.962
33.951
33.941
33.93
33.918
33.905
33.89
33.873
33.857
33.84
33.824
33.808
33.792
33.776
33.759
33.744
33.728
33.713
33.7
33.687
33.677
33.669
33.662
33.657
33.653
33.65
33.648
33.645
33.641
33.636
33.629
33.62
33.608
33.596
33.582
33.568
33.552
33.537
33.521
33.503
33.485
33.465
33.444
33.423
33.403
33.383
33.362
33.34
33.317
33.293
33.268
33.242
33.218
33.194
33.171
33.151
33.133
33.119
33.109
33.104
33.105
33.113
33.132
33.162
33.208
33.273
33.361
33.476
33.621
33.8
34.012
34.26
34.54
34.849
35.182
35.534
35.898
36.266
36.632
36.988
37.325
37.637
37.92
38.169
38.384
38.563
38.704
38.809
38.88
38.919
38.931
38.921
38.892
38.849
38.793
38.729
38.658
38.583
38.503
38.421
38.338
38.254
38.17
38.087
38.005
37.924
37.844
37.766
37.691
37.619
37.55
37.483
37.42
37.36
37.304
37.251
37.203
37.159
37.119
37.083
37.053
37.026
37.004
36.985
36.968
36.955
36.941
36.928
36.912
36.893
36.87
36.843
36.811
36.774
36.732
36.687
36.638
36.586
36.531
36.477
36.422
36.371
36.323
36.279
36.24
36.208
36.182
36.163
36.149
36.14
36.136
36.137
36.142
36.152
36.166
36.182
36.202
36.223
36.246
36.268
36.289
36.308
36.325
36.339
36.349
36.357
36.36
36.359
36.354
36.344
36.331
36.315
36.296
36.275
36.25
36.222
36.192
36.159
36.125
36.089
36.051
36.012
35.971
35.93
35.888
35.846
35.805
35.763
35.722
35.68
35.638
35.596
35.557
35.52
35.486
35.454
35.424
35.394
35.363
35.33
35.295
35.257
35.217
35.175
35.133
35.091
35.049
35.008
34.969
34.931
34.896
34.864
34.834
34.807
34.783
34.761
34.742
34.725
34.711
34.7
34.692
34.687
34.683
34.681
34.679
34.676
34.672
34.667
34.661
34.654
34.645
34.635
34.625
34.613
34.6
34.587
34.573
34.56
34.547
34.534
34.522
34.512
34.503
34.496
34.489
34.484
34.479
34.476
34.473
34.471
34.47
34.469
34.47
34.473
34.477
34.482
34.486
34.488
34.485
34.479
34.468
34.451
34.43
34.405
34.378
34.347
34.316
34.283
34.25
34.217
34.187
34.158
34.132
34.109
34.089
34.072
34.056
34.043
34.031
34.02
34.01
34.001
33.991
33.981
33.969
33.958
33.946
33.934
33.922
33.91
33.898
33.887
33.877
33.866
33.856
33.846
33.838
33.83
33.823
33.817
33.811
33.805
33.797
33.787
33.777
33.766
33.756
33.747
33.739
33.734
33.73
33.727
33.725
33.724
33.722
33.719
33.716
33.711
33.705
33.696
33.684
33.672
33.658
33.644
33.629
33.614
33.599
33.582
33.566
33.549
33.532
33.515
33.5
33.486
33.474
33.466
33.461
33.459
33.46
33.464
33.474
33.488
33.511
33.543
33.589
33.652
33.737
33.847
33.987
34.159
34.363
34.6
34.868
35.162
35.479
35.813
36.158
36.508
36.854
37.191
37.512
37.812
38.085
38.328
38.537
38.712
38.852
38.958
39.032
39.076
39.092
39.086
39.06
39.018
38.963
38.898
38.825
38.747
38.665
38.583
38.5
38.418
38.336
38.255
38.173
38.091
38.01
37.93
37.851
37.773
37.698
37.625
37.555
37.49
37.428
37.371
37.318
37.269
37.224
37.183
37.145
37.11
37.077
37.046
37.015
36.983
36.95
36.916
36.881
36.846
36.809
36.769
36.728
36.683
36.637
36.588
36.537
36.486
36.435
36.387
36.343
36.303
36.27
36.244
36.225
36.216
36.216
36.225
36.242
36.266
36.298
36.336
36.378
36.423
36.47
36.516
36.56
36.6
36.635
36.665
36.689
36.708
36.722
36.729
36.731
36.728
36.719
36.706
36.687
36.665
36.639
36.609
36.577
36.543
36.507
36.47
36.433
36.394
36.356
36.318
36.278
36.238
36.197
36.153
36.108
36.061
36.013
35.966
35.918
35.87
35.823
35.776
35.73
35.684
35.64
35.596
35.553
35.512
35.473
35.434
35.398
35.363
35.329
35.297
35.269
35.242
35.216
35.19
35.165
35.142
35.119
35.098
35.078
35.059
35.04
35.023
35.007
34.992
34.978
34.967
34.956
34.946
34.936
34.924
34.91
34.894
34.877
34.858
34.837
34.813
34.787
34.757
34.725
34.69
34.655
34.619
34.584
34.55
34.519
34.492
34.468
34.45
34.435
34.425
34.42
34.417
34.417
34.419
34.421
34.423
34.423
34.421
34.415
34.407
34.396
34.384
34.369
34.352
34.333
34.313
34.292
34.27
34.25
34.23
34.211
34.192
34.174
34.157
34.141
34.125
34.11
34.096
34.082
34.068
34.054
34.039
34.024
34.008
33.991
33.974
33.957
33.939
33.921
33.902
33.884
33.867
33.85
33.834
33.819
33.804
33.79
33.776
33.761
33.746
33.731
33.715
33.699
33.684
33.671
33.659
33.648
33.636
33.623
33.609
33.594
33.579
33.564
33.55
33.538
33.53
33.523
33.519
33.515
33.512
33.509
33.505
33.5
33.493
33.483
33.472
33.458
33.442
33.424
33.402
33.38
33.355
33.329
33.303
33.277
33.252
33.228
33.207
33.187
33.168
33.151
33.135
33.122
33.11
33.101
33.095
33.092
33.092
33.095
33.103
33.118
33.141
33.175
33.224
33.292
33.384
33.504
33.657
33.846
34.074
34.338
34.638
34.969
35.326
35.701
36.086
36.475
36.858
37.228
37.579
37.905
38.201
38.463
38.69
38.881
39.035
39.154
39.238
39.29
39.312
39.307
39.278
39.228
39.16
39.079
38.988
38.889
38.786
38.68
38.574
38.47
38.368
38.268
38.172
38.079
37.99
37.905
37.824
37.747
37.675
37.607
37.544
37.486
37.435
37.389
37.349
37.314
37.283
37.256
37.233
37.213
37.197
37.182
37.168
37.153
37.136
37.115
37.091
37.061
37.026
36.985
36.938
36.885
36.828
36.768
36.706
36.643
36.581
36.522
36.467
36.417
36.374
36.338
36.31
36.289
36.276
36.269
36.269
36.276
36.29
36.31
36.335
36.365
36.397
36.43
36.464
36.497
36.527
36.554
36.578
36.599
36.617
36.632
36.643
36.649
36.652
36.65
36.643
36.629
36.61
36.585
36.555
36.521
36.484
36.444
36.401
36.357
36.312
36.267
36.22
36.174
36.127
36.08
36.031
35.979
35.923
35.864
35.802
35.74
35.679
35.618
35.559
35.502
35.449
35.398
35.351
35.306
35.265
35.226
35.191
35.159
35.13
35.103
35.077
35.054
35.031
35.008
34.986
34.964
34.941
34.919
34.897
34.876
34.856
34.836
34.817
34.798
34.781
34.764
34.748
34.732
34.717
34.703
34.69
34.679
34.669
34.661
34.653
34.645
34.636
34.626
34.615
34.603
34.592
34.58
34.568
34.555
34.54
34.524
34.507
34.489
34.471
34.452
34.434
34.416
34.399
34.384
34.371
34.36
34.352
34.344
34.337
34.33
34.322
34.313
34.303
34.292
34.28
34.268
34.256
34.241
34.226
34.208
34.189
34.169
34.148
34.127
34.105
34.083
34.06
34.037
34.015
33.992
33.969
33.947
33.925
33.904
33.883
33.864
33.846
33.829
33.813
33.798
33.784
33.772
33.761
33.75
33.739
33.728
33.715
33.702
33.688
33.674
33.659
33.642
33.626
33.609
33.591
33.573
33.556
33.538
33.522
33.507
33.494
33.482
33.471
33.463
33.455
33.448
33.442
33.436
33.43
33.424
33.418
33.412
33.405
33.399
33.393
33.385
33.378
33.37
33.363
33.355
33.346
33.337
33.327
33.317
33.306
33.295
33.284
33.271
33.257
33.242
33.227
33.21
33.193
33.177
33.162
33.148
33.134
33.121
33.108
33.096
33.086
33.077
33.07
33.066
33.064
33.063
33.064
33.067
33.074
33.087
33.106
33.136
33.179
33.238
33.319
33.426
33.563
33.733
33.938
34.18
34.458
34.768
35.106
35.466
35.841
36.224
36.608
36.984
37.345
37.684
37.995
38.274
38.519
38.728
38.9
39.037
39.137
39.203
39.238
39.246
39.229
39.191
39.138
39.073
38.999
38.919
38.836
38.75
38.664
38.578
38.492
38.407
38.322
38.237
38.152
38.067
37.982
37.898
37.814
37.732
37.652
37.575
37.5
37.429
37.361
37.297
37.237
37.181
37.13
37.085
37.044
37.008
36.976
36.947
36.921
36.896
36.871
36.845
36.818
36.788
36.754
36.716
36.676
36.632
36.588
36.543
36.499
36.457
36.417
36.382
36.351
36.325
36.306
36.294
36.291
36.296
36.308
36.327
36.354
36.386
36.423
36.464
36.509
36.556
36.603
36.648
36.69
36.728
36.762
36.792
36.816
36.834
36.847
36.853
36.852
36.845
36.833
36.815
36.792
36.765
36.735
36.702
36.666
36.626
36.584
36.539
36.492
36.444
36.395
36.345
36.294
36.243
36.192
36.142
36.093
36.044
35.996
35.947
35.897
35.844
35.79
35.734
35.678
35.62
35.562
35.504
35.447
35.392
35.34
35.292
35.247
35.206
35.168
35.133
35.101
35.071
35.042
35.016
34.993
34.971
34.953
34.936
34.921
34.906
34.893
34.879
34.866
34.853
34.84
34.828
34.816
34.804
34.793
34.783
34.773
34.763
34.754
34.745
34.737
34.731
34.725
34.722
34.72
34.719
34.72
34.721
34.722
34.722
34.721
34.719
34.716
34.71
34.702
34.693
34.681
34.669
34.656
34.643
34.629
34.613
34.597
34.581
34.563
34.545
34.527
34.51
34.493
34.477
34.461
34.444
34.427
34.408
34.387
34.363
34.335
34.305
34.273
34.239
34.204
34.169
34.132
34.095
34.059
34.023
33.988
33.955
33.923
33.893
33.866
33.842
33.818
33.797
33.776
33.757
33.74
33.722
33.704
33.685
33.665
33.644
33.622
33.601
33.58
33.561
33.543
33.527
33.512
33.498
33.484
33.472
33.46
33.449
33.439
33.431
33.424
33.418
33.412
33.408
33.405
33.403
33.401
33.399
33.398
33.398
33.397
33.395
33.391
33.385
33.377
33.368
33.358
33.347
33.335
33.321
33.307
33.291
33.273
33.254
33.234
33.213
33.191
33.17
33.149
33.13
33.112
33.096
33.082
33.071
33.061
33.054
33.049
33.047
33.049
33.054
33.064
33.083
33.113
33.156
33.218
33.304
33.418
33.566
33.75
33.973
34.237
34.539
34.875
35.242
35.632
36.038
36.45
36.86
37.261
37.643
38.0
38.326
38.616
38.868
39.079
39.249
39.379
39.471
39.529
39.556
39.556
39.532
39.49
39.431
39.358
39.275
39.186
39.094
38.999
38.903
38.807
38.712
38.618
38.527
38.436
38.348
38.261
38.179
38.099
38.023
37.951
37.882
37.816
37.753
37.695
37.642
37.594
37.551
37.512
37.476
37.442
37.412
37.384
37.358
37.335
37.314
37.294
37.275
37.255
37.233
37.209
37.182
37.151
37.117
37.08
37.039
36.995
36.949
36.902
36.855
36.807
36.761
36.719
36.682
36.651
36.628
36.613
36.606
36.609
36.619
36.636
36.658
36.685
36.715
36.747
36.779
36.812
36.843
36.87
36.894
36.912
36.926
36.936
36.94
36.94
36.935
36.926
36.912
36.892
36.867
36.837
36.803
36.765
36.724
36.679
36.632
36.583
36.532
36.479
36.424
36.368
36.31
36.253
36.195
36.137
36.079
36.021
35.965
35.909
35.853
35.798
35.744
35.689
35.636
35.583
35.53
35.478
35.427
35.377
35.327
35.277
35.229
35.182
35.137
35.093
35.052
35.013
34.977
34.942
34.909
34.878
34.848
34.82
34.793
34.767
34.742
34.718
34.696
34.675
34.655
34.637
34.621
34.605
34.591
34.577
34.564
34.552
34.542
34.533
34.526
34.519
34.515
34.512
34.509
34.507
34.504
34.501
34.497
34.491
34.484
34.474
34.462
34.45
34.436
34.421
34.406
34.389
34.371
34.352
34.332
34.312
34.292
34.273
34.255
34.239
34.223
34.208
34.194
34.18
34.165
34.148
34.13
34.11
34.089
34.067
34.044
34.02
33.996
33.972
33.948
33.925
33.903
33.883
33.864
33.847
33.832
33.818
33.806
33.796
33.788
33.781
33.776
33.77
