Trial 3:3back
35.509
35.451
35.394
35.338
35.283
35.229
35.176
35.124
35.072
35.021
34.972
34.923
34.877
34.832
34.789
34.749
34.712
34.678
34.648
34.622
34.603
34.589
34.581
34.579
34.582
34.589
34.599
34.613
34.629
34.647
34.666
34.685
34.703
34.72
34.735
34.749
34.76
34.768
34.773
34.776
34.776
34.774
34.77
34.764
34.755
34.745
34.734
34.721
34.708
34.692
34.675
34.656
34.634
34.61
34.582
34.551
34.517
34.48
34.439
34.397
34.354
34.309
34.265
34.22
34.177
34.135
34.095
34.057
34.021
33.987
33.956
33.926
33.898
33.871
33.844
33.818
33.791
33.764
33.737
33.709
33.682
33.654
33.626
33.597
33.569
33.541
33.513
33.485
33.457
33.43
33.402
33.375
33.349
33.323
33.298
33.275
33.251
33.23
33.209
33.191
33.173
33.156
33.14
33.125
33.11
33.097
33.085
33.077
33.072
33.074
33.083
33.102
33.134
33.182
33.247
33.332
33.438
33.566
33.715
33.886
34.075
34.282
34.503
34.735
34.974
35.217
35.46
35.698
35.928
36.146
36.35
36.538
36.709
36.861
36.993
37.106
37.2
37.274
37.33
37.369
37.391
37.398
37.39
37.369
37.337
37.296
37.246
37.19
37.129
37.064
36.995
36.925
36.853
36.781
36.707
36.635
36.563
36.493
36.426
36.361
36.299
36.24
36.184
36.131
36.081
36.034
35.989
35.946
35.905
35.865
35.826
35.788
35.749
35.71
35.671
35.631
35.591
35.551
35.512
35.473
35.436
35.4
35.365
35.332
35.3
35.271
35.244
35.219
35.197
35.178
35.162
35.15
35.141
35.136
35.135
35.137
35.142
35.149
35.159
35.169
35.18
35.189
35.197
35.204
35.208
35.211
35.212
35.211
35.208
35.203
35.195
35.184
35.172
35.156
35.139
35.12
35.1
35.078
35.055
35.031
35.006
34.98
34.953
34.924
34.895
34.864
34.832
34.799
34.765
34.73
34.694
34.657
34.619
34.579
34.537
34.494
34.451
34.408
34.366
34.325
34.286
34.248
34.213
34.181
34.149
34.119
34.091
34.063
34.035
34.007
33.978
33.95
33.922
33.893
33.865
33.836
33.808
33.781
33.755
33.731
33.708
33.688
33.67
33.654
33.639
33.624
33.61
33.597
33.583
33.568
33.553
33.536
33.519
33.499
33.477
33.454
33.43
33.406
33.384
33.364
33.349
33.34
33.341
33.352
33.378
33.419
33.478
33.556
33.654
33.773
33.913
34.074
34.253
34.448
34.657
34.877
35.105
35.336
35.568
35.797
36.019
36.233
36.434
36.621
36.792
36.947
37.085
37.205
37.307
37.392
37.459
37.508
37.54
37.555
37.555
37.541
37.514
37.477
37.431
37.378
37.319
37.256
37.189
37.119
37.049
36.978
36.907
36.837
36.769
36.703
36.638
36.577
36.518
36.462
36.408
36.358
36.309
36.263
36.217
36.174
36.132
36.091
36.051
36.012
35.974
35.936
35.897
35.859
35.819
35.779
35.738
35.697
35.655
35.612
35.57
35.529
35.489
35.451
35.417
35.386
35.359
35.337
35.317
35.302
35.29
35.282
35.276
35.273
35.272
35.273
35.275
35.279
35.283
35.287
35.292
35.296
35.299
35.301
35.302
35.3
35.296
35.289
35.28
35.268
35.253
35.235
35.215
35.193
35.169
35.143
35.115
35.087
35.057
35.025
34.992
34.958
34.923
34.886
34.85
34.813
34.775
34.737
34.699
34.661
34.623
34.584
34.545
34.506
34.467
34.427
34.388
34.348
34.308
34.268
34.228
34.188
34.149
34.11
34.073
34.038
34.004
33.972
33.942
33.912
33.884
33.856
33.828
33.799
33.769
33.738
33.706
33.673
33.64
33.608
33.576
33.546
33.518
33.491
33.467
33.446
33.426
33.408
33.392
33.378
33.364
33.352
33.341
33.331
33.322
33.313
33.304
33.295
33.287
33.281
33.278
33.279
33.288
33.306
33.336
33.379
33.438
33.515
33.611
33.726
33.86
34.014
34.185
34.372
34.57
34.778
34.992
35.209
35.424
35.636
35.84
36.035
36.217
36.383
36.534
36.666
36.781
36.876
36.953
37.012
37.052
37.076
37.084
37.077
37.056
37.024
36.983
36.932
36.875
36.812
36.744
36.673
36.599
36.525
36.449
36.373
36.297
36.222
36.148
36.076
36.008
35.942
35.88
35.821
35.764
35.711
35.66
35.612
35.566
35.523
35.482
35.441
35.401
35.36
35.318
35.275
35.23
35.184
35.138
35.091
35.044
34.999
34.956
34.917
34.88
34.847
34.818
34.794
34.775
34.76
34.75
34.744
34.743
34.744
34.748
34.755
34.764
34.774
34.785
34.798
34.813
34.828
34.844
34.86
34.876
34.891
34.905
34.917
34.928
34.937
34.943
34.947
34.948
34.946
34.941
34.933
34.922
34.908
34.892
34.872
34.851
34.827
34.803
34.778
34.752
34.726
34.698
34.669
34.638
34.605
34.571
34.536
34.5
34.463
34.427
34.39
34.352
34.315
34.277
34.24
34.203
34.167
34.131
34.095
34.059
34.023
33.986
33.949
33.912
33.875
33.84
33.805
33.772
33.741
33.712
33.684
33.659
33.634
33.611
33.59
33.57
33.55
33.53
33.51
33.49
33.468
33.446
33.423
33.399
33.375
33.351
33.326
33.302
33.279
33.256
33.235
33.217
33.201
33.189
33.182
33.181
33.187
33.202
33.226
33.262
33.312
33.377
33.46
33.56
33.68
33.818
33.974
34.146
34.332
34.529
34.735
34.946
35.159
35.369
35.575
35.771
35.957
36.128
36.284
36.423
36.544
36.647
36.731
36.797
36.847
36.879
36.897
36.901
36.893
36.874
36.846
36.809
36.764
36.714
36.657
36.596
36.531
36.463
36.393
36.32
36.247
36.174
36.101
36.029
35.958
35.889
35.821
35.756
35.693
35.632
35.574
35.519
35.466
35.416
35.369
35.323
35.279
35.236
35.193
35.151
35.109
35.066
35.024
34.981
34.939
34.899
34.86
34.822
34.787
34.753
34.723
34.696
34.672
34.653
34.638
34.629
34.624
34.625
34.63
34.64
34.654
34.67
34.689
34.709
34.73
34.751
34.772
34.792
34.81
34.826
34.84
34.852
34.862
34.869
34.875
34.877
34.877
34.874
34.868
34.859
34.847
34.832
34.815
34.795
34.772
34.747
34.72
34.69
34.658
34.624
34.589
34.553
34.515
34.477
34.439
34.401
34.364
34.327
34.291
34.255
34.22
34.186
34.152
34.12
34.089
34.058
34.028
33.997
33.967
33.936
33.906
33.877
33.848
33.82
33.793
33.767
33.742
33.718
33.694
33.672
33.65
33.63
33.61
33.591
33.572
33.553
33.534
33.516
33.497
33.479
33.461
33.443
33.426
33.409
33.394
33.378
33.364
33.351
33.341
33.334
33.334
33.342
33.361
33.391
33.436
33.497
33.577
33.676
33.795
33.934
34.091
34.265
34.454
34.654
34.863
35.077
35.292
35.504
35.711
35.908
36.094
36.267
36.426
36.568
36.694
36.802
36.894
36.968
37.026
37.067
37.092
37.103
37.099
37.084
37.058
37.022
36.978
36.926
36.87
36.809
36.746
36.681
36.614
36.548
36.482
36.417
36.352
36.288
36.225
36.162
36.1
36.04
35.982
35.925
35.871
35.82
35.77
35.722
35.676
35.632
35.588
35.545
35.503
35.46
35.417
35.373
35.329
35.285
35.24
35.196
35.154
35.112
35.074
35.038
35.006
34.979
34.955
34.935
34.92
34.908
34.9
34.895
34.893
34.894
34.898
34.904
34.914
34.925
34.938
34.953
34.968
34.983
34.997
35.01
35.022
35.032
35.04
35.047
35.051
35.053
35.052
35.049
35.042
35.032
35.019
35.002
34.982
34.959
34.933
34.905
34.875
34.844
34.812
34.779
34.746
34.712
34.678
34.644
34.611
34.577
34.544
34.511
34.479
34.447
34.415
34.384
34.354
34.323
34.293
34.263
34.233
34.203
34.174
34.145
34.117
34.089
34.063
34.037
34.011
33.986
33.96
33.935
33.909
33.883
33.858
33.833
33.809
33.785
33.763
33.74
33.719
33.699
33.68
33.662
33.644
33.627
33.609
33.592
33.574
33.556
33.537
33.52
33.503
33.487
33.474
33.461
33.452
33.445
33.443
33.446
33.458
33.479
33.513
33.563
33.63
33.717
33.825
33.953
34.103
34.272
34.46
34.664
34.88
35.105
35.336
35.568
35.8
36.025
36.243
36.451
36.645
36.824
36.987
37.132
37.259
37.368
37.458
37.531
37.587
37.626
37.65
37.66
37.657
37.641
37.614
37.578
37.534
37.484
37.429
37.371
37.31
37.247
37.184
37.12
37.056
36.993
36.93
36.868
36.806
36.747
36.69
36.635
36.584
36.537
36.493
36.452
36.414
36.38
36.348
36.317
36.287
36.257
36.225
36.192
36.156
36.117
36.077
36.035
35.992
35.948
35.903
35.858
35.813
35.77
35.729
35.69
35.654
35.622
35.594
35.571
35.551
35.537
35.527
35.521
35.519
35.521
35.525
35.531
35.538
35.546
35.552
35.557
35.56
35.562
35.563
35.561
35.558
35.554
35.548
35.541
35.532
35.521
35.509
35.497
35.483
35.468
35.453
35.437
35.42
35.402
35.383
35.363
35.341
35.317
35.291
35.262
35.233
35.202
35.171
35.138
35.105
35.072
35.037
35.002
34.966
34.931
34.895
34.859
34.824
34.788
34.754
34.719
34.685
34.651
34.618
34.585
34.552
34.52
34.488
34.457
34.427
34.397
34.367
34.338
34.309
34.28
34.251
34.223
34.195
34.168
34.141
34.115
34.089
34.063
34.038
34.012
33.987
33.961
33.936
33.911
33.885
33.86
33.836
33.811
33.787
33.764
33.741
33.72
33.699
33.681
33.665
33.651
33.642
33.637
33.639
33.649
33.671
33.706
33.756
33.824
33.911
34.018
34.146
34.295
34.463
34.649
34.851
35.066
35.289
35.519
35.751
35.981
36.207
36.426
36.635
36.832
37.014
37.182
37.332
37.465
37.579
37.675
37.752
37.812
37.857
37.887
37.904
37.91
37.905
37.891
37.869
37.841
37.806
37.765
37.719
37.67
37.617
37.561
37.503
37.443
37.383
37.322
37.263
37.204
37.147
37.092
37.039
36.988
36.94
36.894
36.85
36.808
36.768
36.728
36.688
36.647
36.606
36.563
36.519
36.473
36.425
36.378
36.33
36.283
36.236
36.19
36.145
36.102
36.06
36.019
35.981
35.945
35.913
35.882
35.855
35.831
35.809
35.791
35.776
35.765
35.756
35.749
35.745
35.743
35.742
35.744
35.747
35.751
35.756
35.761
35.766
35.771
35.774
35.775
35.774
35.769
35.761
35.749
35.735
35.718
35.698
35.677
35.655
35.631
35.606
35.579
35.551
35.522
35.492
35.46
35.427
35.392
35.356
35.319
35.28
35.241
35.201
35.161
35.12
35.079
35.039
34.999
34.96
34.922
34.886
34.851
34.817
34.784
34.752
34.72
34.688
34.657
34.626
34.596
34.566
34.537
34.509
34.482
34.456
34.429
34.403
34.377
34.35
34.323
34.295
34.268
34.241
34.215
34.189
34.163
34.137
34.111
34.084
34.059
34.033
34.008
33.983
33.959
33.935
33.912
33.89
33.87
33.852
33.835
33.82
33.807
33.797
33.79
33.788
33.792
33.806
33.831
33.87
33.927
34.003
34.1
34.218
34.358
34.519
34.698
34.896
35.108
35.332
35.563
35.798
36.034
36.266
36.492
36.708
36.913
37.103
37.277
37.434
37.571
37.689
37.787
37.865
37.924
37.964
37.987
37.993
37.986
37.966
37.936
37.896
37.849
37.795
37.736
37.674
37.607
37.539
37.468
37.397
37.325
37.255
37.184
37.115
37.047
36.98
36.914
36.85
36.787
36.726
36.667
36.61
36.554
36.5
36.447
36.395
36.344
36.294
36.243
36.193
36.143
36.092
36.041
35.991
35.942
35.894
35.847
35.802
35.759
35.718
35.681
35.648
35.618
35.593
35.573
35.558
35.547
35.542
35.541
35.545
35.553
35.564
35.579
35.595
35.613
35.632
35.651
35.669
35.687
35.704
35.72
35.734
35.745
35.753
35.758
35.758
35.754
35.745
35.733
35.717
35.696
35.672
35.645
35.614
35.581
35.546
35.51
35.473
35.435
35.395
35.352
35.308
35.261
35.213
35.163
35.112
35.061
35.011
34.961
34.913
34.866
34.821
34.779
34.738
34.699
34.661
34.624
34.587
34.55
34.513
34.475
34.438
34.401
34.365
34.33
34.296
34.263
34.231
34.199
34.169
34.139
34.111
34.084
34.058
34.033
34.008
33.984
33.961
33.937
33.914
33.892
33.87
33.849
33.829
33.811
33.793
33.777
33.76
33.745
33.73
33.716
33.705
33.699
33.698
33.705
33.723
33.754
33.8
33.862
33.941
34.04
34.158
34.295
34.449
34.621
34.807
35.006
35.214
35.429
35.646
35.862
36.073
36.276
36.468
36.646
36.809
36.956
37.084
37.193
37.283
37.353
37.405
37.439
37.456
37.457
37.444
37.418
37.38
37.333
37.277
37.215
37.149
37.078
37.005
36.93
36.854
36.777
36.701
36.623
36.546
36.47
36.394
36.32
36.249
36.179
36.112
36.048
35.986
35.927
35.87
35.815
35.762
35.709
35.658
35.606
35.553
35.499
35.445
35.389
35.333
35.277
35.222
35.17
35.119
35.072
35.028
34.988
34.951
34.918
34.889
34.864
34.843
34.829
34.822
34.821
34.826
34.839
34.857
34.88
34.907
34.936
34.966
34.996
35.025
35.05
35.073
35.091
35.105
35.115
35.12
35.119
35.114
35.105
35.091
35.074
35.053
35.03
35.005
34.978
34.95
34.922
34.894
34.867
34.841
34.815
34.79
34.765
34.739
34.712
34.685
34.656
34.625
34.592
34.557
34.52
34.482
34.442
34.402
34.361
34.32
34.279
34.237
34.196
34.156
34.116
34.078
34.041
34.006
33.973
33.941
33.912
33.884
33.856
33.83
33.804
33.777
33.751
33.724
33.696
33.668
33.639
33.611
33.583
33.557
33.531
33.506
33.481
33.458
33.436
33.414
33.394
33.374
33.354
33.335
33.316
33.3
33.288
33.283
33.285
33.299
33.325
33.367
33.426
33.503
33.601
33.72
33.86
34.02
34.199
34.395
34.605
34.827
35.057
35.291
35.527
35.76
35.988
36.209
36.418
36.615
36.797
36.962
37.11
37.238
37.348
37.438
37.509
37.562
37.599
37.619
37.625
37.619
37.601
37.574
37.538
37.496
37.447
37.394
37.337
37.277
37.214
37.15
37.084
37.017
36.95
36.884
36.819
36.755
36.692
36.631
36.57
36.511
36.453
36.397
36.343
36.291
36.241
36.193
36.147
36.102
36.059
36.017
35.974
35.933
35.892
35.852
35.812
35.772
35.732
35.694
35.656
35.619
35.583
35.55
35.52
35.493
35.471
35.452
35.438
35.428
35.423
35.421
35.422
35.426
35.431
35.439
35.447
35.455
35.464
35.472
35.48
35.487
35.494
35.499
35.502
35.504
35.502
35.498
35.492
35.485
35.476
35.466
35.454
35.441
35.427
35.411
35.393
35.373
35.352
35.33
35.306
35.281
35.256
35.229
35.201
35.172
35.141
35.108
35.073
35.036
34.999
34.96
34.921
34.881
34.842
34.803
34.765
34.727
34.69
34.654
34.618
34.581
34.545
34.509
34.473
34.437
34.403
34.369
34.337
34.307
34.279
34.253
34.229
34.207
34.186
34.167
34.147
34.126
34.105
34.082
34.058
34.032
34.005
33.978
33.951
33.925
33.902
33.882
33.868
33.862
33.866
33.884
33.916
33.967
34.036
34.126
34.238
34.371
34.524
34.697
34.887
35.093
35.312
35.541
35.776
36.013
36.249
36.481
36.704
36.917
37.116
37.299
37.465
37.614
37.743
37.854
37.945
38.019
38.075
38.114
38.136
38.144
38.139
38.122
38.095
38.06
38.018
37.971
37.919
37.863
37.803
37.741
37.677
37.612
37.547
37.481
37.416
37.352
37.288
37.226
37.165
37.106
37.049
36.994
36.941
36.89
36.84
36.791
36.742
36.692
36.641
36.589
36.536
36.482
36.427
36.372
36.317
36.263
36.211
36.16
36.111
36.066
36.023
35.982
35.945
35.911
35.881
35.854
35.831
35.812
35.797
35.786
35.78
35.779
35.78
35.784
35.79
35.797
35.804
35.811
35.816
35.821
35.824
35.825
35.825
35.824
35.821
35.818
35.813
35.808
35.8
35.792
35.781
35.768
35.752
35.734
35.712
35.687
35.659
35.629
35.596
35.561
35.526
35.491
35.456
35.421
35.386
35.352
35.318
35.285
35.251
35.218
35.185
35.152
35.117
35.082
35.044
35.005
34.963
34.919
34.874
34.827
34.781
34.734
34.689
34.647
34.606
34.568
34.533
34.5
34.468
34.437
34.407
34.377
34.347
34.317
34.286
34.255
34.223
34.192
34.161
34.132
34.105
34.081
34.061
34.048
34.042
34.045
34.061
34.091
34.138
34.204
34.291
34.398
34.526
34.675
34.842
35.027
35.227
35.44
35.663
35.893
36.126
36.359
36.589
36.812
37.025
37.225
37.41
37.577
37.725
37.855
37.965
38.055
38.128
38.182
38.22
38.241
38.248
38.241
38.222
38.191
38.15
38.101
38.046
37.985
37.92
37.852
37.782
37.711
37.639
37.568
37.498
37.427
37.357
37.288
37.218
37.15
37.082
37.015
36.949
36.884
36.82
36.757
36.696
36.636
36.578
36.519
36.462
36.405
36.349
36.294
36.239
36.186
36.133
36.082
36.031
35.982
35.935
35.89
35.847
35.808
35.772
35.74
35.711
35.687
35.667
35.651
35.639
35.629
35.623
35.618
35.616
35.615
35.615
35.615
35.616
35.616
35.615
35.614
35.613
35.611
35.607
35.602
35.596
35.587
35.576
35.563
35.547
35.529
35.509
35.487
35.463
35.438
35.409
35.379
35.346
35.312
35.276
35.239
35.201
35.162
35.122
35.081
35.04
35.0
34.959
34.919
34.88
34.841
34.802
34.764
34.725
34.687
34.648
34.609
34.57
34.529
34.487
34.444
34.4
34.357
34.313
34.269
34.226
34.185
34.144
34.105
34.068
34.033
33.999
33.967
33.937
33.908
33.88
33.853
33.827
33.803
33.779
33.758
33.74
33.726
33.718
33.719
33.73
33.755
33.795
33.854
33.931
34.03
34.149
34.289
34.448
34.624
34.815
35.018
35.231
35.451
35.673
35.895
36.114
36.327
36.53
36.721
36.899
37.06
37.204
37.328
37.432
37.517
37.581
37.625
37.652
37.662
37.656
37.637
37.605
37.562
37.509
37.449
37.383
37.313
37.239
37.164
37.087
37.01
36.934
36.859
36.785
36.713
36.642
36.573
36.507
36.443
36.381
36.32
36.261
36.204
36.147
36.091
36.036
35.982
35.928
35.875
35.822
35.769
35.716
35.663
35.611
35.56
35.51
35.462
35.416
35.373
35.333
35.296
35.263
35.232
35.205
35.181
35.161
35.144
35.132
35.123
35.117
35.115
35.116
35.12
35.125
35.131
35.138
35.143
35.148
35.152
35.154
35.154
35.153
35.149
35.144
35.136
35.126
35.113
35.098
35.081
35.063
35.043
35.021
34.998
34.973
34.946
34.918
34.888
34.857
34.824
34.791
34.758
34.724
34.69
34.656
34.621
34.586
34.549
34.511
34.472
34.432
34.392
34.352
34.313
34.274
34.236
34.198
34.161
34.124
34.087
34.051
34.015
33.98
33.945
33.911
33.879
33.847
33.816
33.786
33.756
33.725
33.694
33.663
33.63
33.597
33.562
33.527
33.491
33.456
33.422
33.39
33.361
33.335
33.314
33.299
33.29
33.291
33.302
33.326
33.365
33.421
33.495
33.589
33.703
33.837
33.989
34.158
34.342
34.537
34.741
34.951
35.163
35.375
35.582
35.783
35.974
36.152
36.316
36.464
36.595
36.707
36.8
36.874
36.929
36.967
36.989
36.995
36.987
36.967
36.935
36.894
36.844
36.788
36.725
36.658
36.587
36.513
36.438
36.362
36.286
36.209
36.133
36.058
35.984
35.911
35.84
35.77
35.703
35.639
35.577
35.517
35.459
35.402
35.346
35.29
35.234
35.178
35.123
35.067
35.011
34.957
34.904
34.853
34.805
34.759
34.717
34.678
34.642
34.61
34.582
34.558
34.537
34.52
34.506
34.495
34.486
34.481
34.478
34.48
34.484
34.492
34.503
34.516
34.531
34.547
34.563
34.58
34.596
34.611
34.624
34.635
34.642
34.647
34.648
34.645
34.639
34.628
34.613
34.595
34.573
34.548
34.522
34.494
34.465
34.435
34.406
34.377
34.348
34.319
34.292
34.265
34.239
34.213
34.188
34.164
34.14
34.117
34.092
34.066
34.039
34.01
33.979
33.947
33.915
33.883
33.852
33.821
33.79
33.76
33.732
33.704
33.678
33.653
33.629
33.605
33.581
33.558
33.534
33.51
33.486
33.461
33.435
33.408
33.381
33.353
33.325
33.297
33.27
33.243
33.217
33.192
33.17
33.15
33.136
33.129
33.131
33.147
33.177
33.224
33.288
33.372
33.475
33.597
33.739
33.899
34.074
34.263
34.461
34.667
34.875
35.084
35.288
35.485
35.672
35.846
36.004
36.145
36.266
36.369
36.451
36.515
36.56
36.588
36.601
36.599
36.585
36.559
36.522
36.478
36.425
36.366
36.302
36.234
36.162
36.088
36.012
35.936
35.86
35.786
35.714
35.645
35.58
35.516
35.456
35.397
35.34
35.284
35.229
35.176
35.124
35.074
35.024
34.975
34.926
34.878
34.831
34.784
34.737
34.691
34.646
34.602
34.559
34.517
34.478
34.441
34.408
34.379
34.355
34.335
34.32
34.309
34.301
34.298
34.298
34.301
34.307
34.315
34.326
34.338
34.352
34.367
34.382
34.398
34.414
34.429
34.445
34.459
34.473
34.485
34.494
34.5
34.502
34.502
34.498
34.49
34.479
34.464
34.446
34.426
34.403
34.379
34.353
34.327
34.299
34.271
34.244
34.216
34.189
34.162
34.136
34.109
34.083
34.056
34.029
34.001
33.972
33.942
33.91
33.879
33.846
33.814
33.781
33.749
33.718
