Trial 3:3back
33.763
33.756
33.747
33.737
33.727
33.716
33.704
33.692
33.68
33.67
33.66
33.652
33.644
33.635
33.625
33.614
33.601
33.586
33.569
33.549
33.527
33.505
33.482
33.46
33.438
33.418
33.4
33.384
33.37
33.358
33.347
33.339
33.332
33.328
33.324
33.321
33.318
33.316
33.315
33.314
33.312
33.311
33.308
33.304
33.299
33.291
33.281
33.271
33.259
33.246
33.231
33.216
33.201
33.185
33.168
33.151
33.133
33.116
33.099
33.082
33.066
33.051
33.037
33.022
33.007
32.991
32.976
32.961
32.947
32.936
32.928
32.926
32.93
32.943
32.968
33.007
33.066
33.146
33.254
33.393
33.567
33.78
34.032
34.323
34.649
35.005
35.385
35.781
36.184
36.587
36.98
37.356
37.71
38.036
38.331
38.59
38.812
38.998
39.145
39.258
39.337
39.385
39.407
39.404
39.38
39.34
39.286
39.221
39.147
39.067
38.982
38.894
38.804
38.714
38.626
38.54
38.456
38.374
38.293
38.215
38.138
38.063
37.99
37.919
37.85
37.784
37.722
37.664
37.61
37.561
37.515
37.472
37.432
37.395
37.361
37.328
37.297
37.267
37.236
37.204
37.17
37.135
37.099
37.06
37.02
36.978
36.934
36.888
36.841
36.793
36.747
36.704
36.664
36.629
36.598
36.575
36.559
36.551
36.551
36.559
36.575
36.599
36.63
36.666
36.705
36.746
36.789
36.832
36.875
36.916
36.954
36.988
37.017
37.042
37.061
37.075
37.083
37.085
37.081
37.072
37.058
37.038
37.015
36.99
36.962
36.933
36.902
36.87
36.836
36.801
36.764
36.725
36.683
36.639
36.593
36.544
36.494
36.442
36.388
36.332
36.276
36.22
36.164
36.11
36.057
36.006
35.956
35.908
35.862
35.816
35.771
35.727
35.684
35.642
35.6
35.559
35.519
35.481
35.446
35.412
35.381
35.351
35.324
35.299
35.277
35.257
35.239
35.222
35.207
35.191
35.176
35.16
35.145
35.13
35.115
35.101
35.086
35.072
35.059
35.047
35.037
35.029
35.023
35.018
35.014
35.01
35.006
35.003
34.998
34.994
34.989
34.984
34.978
34.97
34.962
34.952
34.94
34.927
34.913
34.899
34.883
34.867
34.851
34.835
34.82
34.805
34.791
34.777
34.763
34.749
34.736
34.723
34.71
34.696
34.681
34.665
34.647
34.628
34.608
34.587
34.564
34.542
34.52
34.497
34.475
34.453
34.43
34.407
34.385
34.363
34.341
34.321
34.3
34.28
34.259
34.237
34.214
34.191
34.169
34.147
34.127
34.107
34.088
34.069
34.051
34.032
34.011
33.99
33.97
33.949
33.93
33.912
33.896
33.881
33.869
33.859
33.851
33.844
33.838
33.833
33.829
33.823
33.817
33.81
33.801
33.79
33.778
33.764
33.747
33.726
33.704
33.68
33.654
33.626
33.599
33.572
33.546
33.522
33.499
33.478
33.459
33.443
33.43
33.42
33.414
33.411
33.411
33.415
33.423
33.436
33.456
33.488
33.537
33.606
33.703
33.832
33.996
34.199
34.441
34.719
35.029
35.362
35.714
36.077
36.445
36.811
37.171
37.518
37.849
38.159
38.444
38.701
38.926
39.119
39.278
39.404
39.498
39.56
39.593
39.599
39.583
39.548
39.497
39.433
39.359
39.277
39.189
39.098
39.006
38.914
38.823
38.733
38.644
38.556
38.47
38.387
38.307
38.23
38.158
38.09
38.026
37.968
37.914
37.867
37.827
37.793
37.767
37.747
37.731
37.72
37.71
37.702
37.693
37.683
37.671
37.656
37.638
37.616
37.59
37.56
37.525
37.486
37.442
37.394
37.342
37.286
37.228
37.168
37.109
37.053
37.003
36.959
36.922
36.894
36.874
36.864
36.861
36.867
36.879
36.898
36.922
36.949
36.979
37.009
37.04
37.07
37.098
37.125
37.149
37.169
37.187
37.201
37.211
37.216
37.215
37.21
37.199
37.184
37.165
37.141
37.113
37.083
37.05
37.013
36.973
36.93
36.885
36.837
36.787
36.734
36.681
36.626
36.571
36.515
36.459
36.404
36.351
36.298
36.245
36.195
36.148
36.103
36.059
36.017
35.976
35.936
35.896
35.856
35.815
35.774
35.733
35.692
35.652
35.613
35.576
35.54
35.506
35.474
35.443
35.415
35.388
35.362
35.337
35.313
35.29
35.266
35.244
35.224
35.205
35.187
35.172
35.157
35.143
35.129
35.114
35.098
35.081
35.062
35.042
35.019
34.995
34.968
34.94
34.91
34.879
34.847
34.815
34.783
34.752
34.722
34.693
34.666
34.641
34.617
34.596
34.577
34.558
34.54
34.522
34.503
34.483
34.461
34.439
34.417
34.397
34.379
34.362
34.345
34.329
34.313
34.297
34.28
34.263
34.245
34.226
34.206
34.187
34.167
34.147
34.127
34.107
34.087
34.067
34.046
34.024
34.002
33.98
33.958
33.935
33.912
33.889
33.866
33.843
33.82
33.798
33.776
33.754
33.733
33.711
33.689
33.667
33.644
33.62
33.595
33.571
33.547
33.524
33.502
33.481
33.461
33.441
33.422
33.403
33.382
33.36
33.337
33.314
33.29
33.267
33.244
33.223
33.203
33.185
33.168
33.152
33.138
33.126
33.114
33.104
33.096
33.089
33.084
33.078
33.074
33.07
33.065
33.06
33.053
33.044
33.032
33.017
33.0
32.98
32.957
32.933
32.908
32.881
32.854
32.827
32.8
32.774
32.75
32.727
32.706
32.688
32.672
32.659
32.648
32.641
32.635
32.633
32.632
32.636
32.643
32.657
32.68
32.715
32.764
32.833
32.927
33.052
33.212
33.413
33.657
33.942
34.267
34.626
35.014
35.422
35.842
36.265
36.682
37.087
37.47
37.827
38.152
38.441
38.694
38.909
39.085
39.224
39.327
39.395
39.432
39.442
39.428
39.395
39.347
39.287
39.219
39.144
39.065
38.984
38.902
38.82
38.74
38.66
38.581
38.504
38.429
38.356
38.284
38.215
38.148
38.084
38.023
37.965
37.912
37.861
37.814
37.77
37.73
37.692
37.658
37.628
37.6
37.573
37.549
37.527
37.505
37.483
37.458
37.432
37.401
37.367
37.329
37.286
37.24
37.192
37.144
37.096
37.048
37.002
36.957
36.914
36.874
36.837
36.805
36.779
36.76
36.749
36.747
36.753
36.768
36.79
36.821
36.857
36.898
36.941
36.984
37.026
37.065
37.101
37.134
37.162
37.185
37.203
37.217
37.225
37.229
37.227
37.221
37.21
37.196
37.177
37.153
37.125
37.092
37.055
37.016
36.973
36.928
36.881
36.834
36.786
36.738
36.689
36.642
36.595
36.548
36.501
36.454
36.406
36.358
36.309
36.26
36.209
36.159
36.107
36.055
36.002
35.949
35.896
35.846
35.798
35.752
35.71
35.669
35.631
35.594
35.56
35.527
35.497
35.467
35.439
35.411
35.384
35.356
35.329
35.302
35.275
35.25
35.226
35.203
35.181
35.159
35.138
35.119
35.101
35.086
35.072
35.06
35.05
35.04
35.03
35.019
35.008
34.998
34.988
34.979
34.971
34.963
34.956
34.949
34.942
34.935
34.928
34.92
34.911
34.901
34.891
34.88
34.867
34.854
34.839
34.823
34.807
34.79
34.773
34.757
34.741
34.726
34.711
34.697
34.682
34.667
34.651
34.634
34.615
34.593
34.569
34.542
34.514
34.486
34.458
34.431
34.405
34.381
34.358
34.336
34.316
34.296
34.277
34.259
34.241
34.222
34.202
34.182
34.161
34.138
34.114
34.089
34.064
34.038
34.014
33.991
33.97
33.95
33.931
33.913
33.898
33.884
33.872
33.862
33.853
33.846
33.839
33.833
33.828
33.825
33.823
33.82
33.816
33.812
33.806
33.797
33.786
33.772
33.756
33.738
33.718
33.696
33.672
33.647
33.619
33.59
33.56
33.53
33.5
33.471
33.444
33.419
33.398
33.378
33.361
33.347
33.337
33.331
33.331
33.338
33.355
33.384
33.429
33.493
33.58
33.694
33.839
34.02
34.238
34.494
34.785
35.109
35.462
35.837
36.227
36.625
37.022
37.413
37.791
38.149
38.482
38.788
39.063
39.305
39.513
39.686
39.825
39.93
40.004
40.049
40.068
40.064
40.04
39.999
39.943
39.876
39.8
39.719
39.634
39.547
39.46
39.373
39.289
39.207
39.129
39.052
38.977
38.903
38.831
38.76
38.69
38.622
38.559
38.499
38.443
38.392
38.345
38.303
38.266
38.234
38.205
38.177
38.151
38.126
38.101
38.075
38.047
38.017
37.984
37.946
37.904
37.857
37.805
37.749
37.689
37.628
37.567
37.506
37.446
37.389
37.336
37.289
37.249
37.217
37.194
37.179
37.174
37.178
37.19
37.21
37.237
37.269
37.306
37.345
37.387
37.43
37.473
37.514
37.553
37.587
37.617
37.639
37.654
37.662
37.664
37.659
37.648
37.631
37.608
37.579
37.543
37.502
37.455
37.404
37.349
37.29
37.228
37.164
37.099
37.033
36.967
36.9
36.834
36.769
36.707
36.645
36.584
36.524
36.464
36.403
36.343
36.283
36.222
36.161
36.1
36.04
35.98
35.921
35.863
35.808
35.755
35.706
35.658
35.613
35.57
35.529
35.49
35.452
35.416
35.381
35.347
35.313
35.28
35.247
35.213
35.18
35.148
35.117
35.088
35.06
35.033
35.007
34.984
34.962
34.942
34.923
34.906
34.89
34.879
34.873
34.872
34.875
34.878
34.882
34.882
34.879
34.871
34.858
34.84
34.818
34.79
34.759
34.724
34.687
34.65
34.614
34.581
34.55
34.522
34.497
34.474
34.453
34.434
34.416
34.4
34.383
34.366
34.347
34.326
34.305
34.284
34.263
34.241
34.219
34.197
34.176
34.155
34.134
34.113
34.091
34.068
34.044
34.019
33.993
33.967
33.941
33.915
33.89
33.866
33.842
33.819
33.795
33.77
33.744
33.716
33.688
33.659
33.631
33.605
33.58
33.557
33.534
33.512
33.492
33.472
33.452
33.433
33.416
33.4
33.384
33.37
33.356
33.343
33.329
33.315
33.299
33.283
33.266
33.249
33.232
33.214
33.197
33.18
33.163
33.146
33.13
33.113
33.096
33.079
33.062
33.045
33.028
33.011
32.994
32.977
32.962
32.947
32.932
32.917
32.902
32.886
32.871
32.854
32.837
32.818
32.797
32.776
32.753
32.73
32.706
32.68
32.655
32.63
32.608
32.588
32.571
32.558
32.547
32.538
32.533
32.531
32.533
32.541
32.557
32.582
32.621
32.678
32.757
32.863
33.002
33.179
33.399
33.663
33.971
34.321
34.709
35.127
35.568
36.022
36.48
36.933
37.37
37.786
38.172
38.525
38.841
39.119
39.356
39.553
39.709
39.826
39.907
39.955
39.975
39.969
39.943
39.9
39.844
39.779
39.707
39.631
39.553
39.474
39.395
39.317
39.24
39.166
39.094
39.022
38.952
38.882
38.813
38.744
38.675
38.606
38.538
38.471
38.406
38.345
38.287
38.233
38.185
38.142
38.107
38.078
38.055
38.037
38.021
38.006
37.99
37.972
37.949
37.922
37.889
37.85
37.805
37.752
37.693
37.629
37.562
37.494
37.426
37.359
37.295
37.236
37.184
37.14
37.106
37.082
37.069
37.065
37.069
37.08
37.097
37.118
37.142
37.168
37.196
37.223
37.249
37.275
37.3
37.323
37.346
37.366
37.384
37.399
37.41
37.414
37.413
37.407
37.395
37.379
37.358
37.333
37.305
37.273
37.238
37.2
37.16
37.119
37.076
37.031
36.983
36.933
36.88
36.824
36.768
36.709
36.649
36.587
36.523
36.459
36.393
36.327
36.26
36.193
36.127
36.063
36.0
35.938
35.879
35.821
35.765
35.711
35.659
35.607
35.556
35.505
35.455
35.408
35.363
35.322
35.283
35.247
35.213
35.181
35.151
35.122
35.094
35.066
35.039
35.012
34.985
34.959
34.933
34.907
34.881
34.856
34.831
34.807
34.785
34.765
34.747
34.729
34.714
34.699
34.686
34.673
34.66
34.648
34.635
34.62
34.604
34.586
34.565
34.544
34.522
34.499
34.476
34.454
34.434
34.414
34.396
34.379
34.364
34.352
34.341
34.329
34.315
34.301
34.284
34.265
34.243
34.22
34.196
34.17
34.143
34.117
34.09
34.063
34.036
34.01
33.986
33.964
33.943
33.923
33.905
33.889
33.873
33.858
33.842
33.825
33.808
33.79
33.771
33.753
33.734
33.716
33.697
33.679
33.66
33.642
33.625
33.606
33.587
33.567
33.545
33.521
33.496
33.471
33.444
33.418
33.393
33.37
33.348
33.327
33.307
33.287
33.267
33.247
33.227
33.209
33.193
33.179
33.165
33.153
33.142
33.132
33.124
33.118
33.114
33.11
33.107
33.104
33.098
33.09
33.079
33.064
33.047
33.026
33.003
32.977
32.95
32.921
32.892
32.861
32.829
32.798
32.769
32.742
32.718
32.699
32.686
32.678
32.677
32.683
32.699
32.728
32.771
32.834
32.919
33.033
33.179
33.362
33.586
33.851
34.158
34.503
34.881
35.286
35.711
36.146
36.584
37.015
37.432
37.826
38.193
38.528
38.828
39.092
39.318
39.507
39.661
39.782
39.871
39.933
39.97
39.986
39.983
39.964
39.931
39.887
39.832
39.771
39.705
39.634
39.559
39.481
39.399
39.313
39.224
39.131
39.037
38.944
38.852
38.762
38.676
38.592
38.514
38.44
38.371
38.307
38.248
38.195
38.146
38.101
38.06
38.02
37.984
37.949
37.915
37.882
37.849
37.814
37.776
37.735
37.69
37.641
37.586
37.527
37.465
37.4
37.334
37.267
37.202
37.141
37.085
37.037
36.997
36.966
36.945
36.934
36.933
36.94
36.956
36.978
37.005
37.036
37.07
37.107
37.145
37.182
37.22
37.255
37.288
37.318
37.343
37.364
37.382
37.395
37.404
37.409
37.41
37.405
37.393
37.375
37.351
37.321
37.284
37.241
37.192
37.138
37.08
37.019
36.955
36.889
36.822
36.755
36.688
36.621
36.553
36.486
36.419
36.352
36.284
36.215
36.146
36.078
36.009
35.941
35.874
35.806
35.739
35.673
35.609
35.546
35.484
35.422
35.363
35.307
35.253
35.203
35.155
35.11
35.067
35.027
34.989
34.953
34.919
34.886
34.854
34.823
34.792
34.764
34.736
34.711
34.689
34.669
34.651
34.636
34.623
34.612
34.604
34.598
34.594
34.592
34.591
34.591
34.59
34.588
34.584
34.578
34.571
34.561
34.548
34.534
34.517
34.499
34.48
34.46
34.438
34.416
34.394
34.372
34.35
34.329
34.308
34.289
34.27
34.252
34.233
34.215
34.196
34.176
34.156
34.134
34.112
34.089
34.064
34.04
34.014
33.987
33.958
33.927
33.893
33.858
33.823
33.787
33.751
33.717
33.684
33.653
33.623
33.595
33.568
33.541
33.516
33.491
33.468
33.444
33.421
33.398
33.374
33.35
33.325
33.301
33.276
33.251
33.228
33.206
33.185
33.165
33.145
33.125
33.105
33.086
33.067
33.048
33.029
33.01
32.99
32.969
32.948
32.927
32.905
32.884
32.862
32.841
32.821
32.802
32.785
32.769
32.754
32.741
32.729
32.719
32.709
32.699
32.69
32.681
32.672
32.662
32.651
32.637
32.62
32.6
32.578
32.553
32.526
32.498
32.47
32.442
32.414
32.386
32.359
32.333
32.309
32.285
32.263
32.243
32.225
32.211
32.199
32.191
32.188
32.191
32.202
32.223
32.258
32.312
32.389
32.496
32.639
32.822
33.051
33.327
33.649
34.015
34.42
34.858
35.32
35.798
36.282
36.761
37.226
37.668
38.08
38.458
38.797
39.093
39.344
39.55
39.713
39.836
39.92
39.971
39.992
39.988
39.963
39.921
39.867
39.801
39.727
39.648
39.564
39.478
39.391
39.305
39.22
39.134
39.048
38.963
38.878
38.793
38.711
38.63
38.552
38.478
38.406
38.338
38.272
38.208
38.148
38.092
38.04
37.994
37.951
37.914
37.881
37.852
37.826
37.801
37.776
37.75
37.722
37.69
37.654
37.612
37.564
37.512
37.456
37.397
37.335
37.271
37.207
37.144
37.084
37.029
36.98
36.936
36.898
36.866
36.842
36.825
36.817
36.817
36.828
36.847
36.874
36.908
36.946
36.988
37.032
37.075
37.116
37.153
37.185
37.212
37.233
37.248
37.256
37.258
37.253
37.242
37.226
37.205
37.179
37.15
37.117
37.081
37.042
37.0
36.956
36.911
36.864
36.815
36.766
36.715
36.663
36.609
36.552
36.493
36.431
36.366
36.298
36.228
36.157
36.085
36.013
35.941
35.87
35.802
35.736
35.672
35.608
35.547
35.487
35.43
35.374
35.321
35.271
35.224
35.18
35.14
35.102
35.065
35.03
34.994
34.959
34.924
34.89
34.857
34.825
34.794
34.765
34.739
34.716
34.696
34.678
34.661
34.645
34.629
34.612
34.595
34.578
34.561
34.545
34.531
34.518
34.507
34.499
34.492
34.488
34.484
34.482
34.48
34.479
34.477
34.476
34.474
34.471
34.467
34.462
34.454
34.445
34.435
34.425
34.415
34.404
34.392
34.379
34.365
34.349
34.333
34.315
34.294
34.272
34.248
34.223
34.196
34.167
34.137
34.106
34.075
34.042
34.009
33.976
33.944
33.914
33.886
33.858
33.833
33.81
33.789
33.771
33.754
33.737
33.72
33.702
33.683
33.664
33.644
33.624
33.605
33.588
33.572
33.561
33.557
33.558
33.564
33.572
33.58
33.586
33.589
33.586
33.577
33.561
33.539
33.512
33.481
33.447
33.41
33.373
33.337
33.303
33.272
33.244
33.219
33.198
33.18
33.164
33.15
33.137
33.125
33.112
33.097
33.082
33.066
33.047
33.027
33.004
32.98
32.954
32.927
32.901
32.874
32.849
32.825
32.804
32.786
32.772
32.763
32.76
32.765
32.78
32.806
32.848
32.91
32.997
33.113
33.264
33.454
33.686
33.962
34.281
34.64
35.036
35.461
35.908
36.368
36.83
37.288
37.731
38.152
38.544
38.902
39.222
39.5
39.737
39.932
40.086
40.203
40.284
40.335
40.358
40.358
40.338
40.302
40.254
40.196
40.129
40.056
39.977
39.893
39.807
39.72
39.632
39.543
39.454
39.366
39.279
39.193
39.11
39.03
38.953
38.877
38.804
38.732
38.663
38.595
38.53
38.468
38.41
38.355
38.303
38.255
38.209
38.166
38.125
38.084
38.042
37.999
37.953
37.904
37.851
37.795
37.736
37.675
37.613
37.55
37.487
37.426
37.368
37.314
37.266
37.226
37.193
37.168
37.151
37.143
37.144
37.153
37.169
37.191
37.217
37.247
37.278
37.308
37.337
37.363
37.387
37.407
37.424
37.437
37.448
37.456
37.461
37.462
37.46
37.453
37.442
37.426
37.406
37.382
37.352
37.316
37.276
37.231
37.182
37.128
37.071
37.011
36.948
36.883
36.816
36.746
36.675
36.602
36.527
36.451
36.373
36.294
36.214
36.134
36.055
35.975
35.897
35.819
35.744
35.671
35.6
35.531
35.465
35.401
35.338
35.273
35.209
35.145
35.083
35.025
34.971
34.921
34.875
34.834
34.797
34.763
34.733
34.706
34.681
34.659
34.638
34.617
34.597
34.576
34.556
34.536
34.516
34.495
34.474
34.452
34.428
34.403
34.377
34.35
34.322
34.294
34.266
34.238
34.209
34.181
34.154
34.129
34.104
34.08
34.058
34.037
34.018
34.0
33.982
33.965
33.947
33.929
33.909
33.887
33.863
33.836
33.808
33.778
33.746
33.714
33.681
33.648
33.615
33.582
33.549
33.518
33.486
33.456
33.426
33.398
33.37
33.345
33.32
33.294
33.269
33.244
33.22
33.197
33.175
33.156
33.138
33.122
33.107
33.093
33.079
33.066
33.051
33.035
33.018
32.999
32.979
32.958
32.935
32.911
32.886
32.861
32.837
32.814
32.793
32.774
32.755
32.738
32.723
32.709
32.696
32.684
32.672
32.661
32.651
32.642
32.633
32.626
32.619
32.613
32.607
32.601
32.596
32.591
32.587
32.583
32.579
32.575
32.57
32.564
32.557
32.549
32.54
32.529
32.517
32.503
32.488
32.472
32.454
32.434
32.413
32.391
32.367
32.342
32.316
32.29
32.264
32.24
32.217
32.197
32.181
32.17
32.165
32.17
32.187
32.218
32.269
32.343
32.445
32.58
32.753
32.967
33.224
33.527
33.873
34.26
34.683
35.135
35.607
36.09
36.576
37.055
37.518
37.956
38.364
38.735
39.066
39.354
39.599
39.799
39.956
40.074
40.156
40.207
40.23
40.23
40.21
40.173
40.125
40.069
40.006
39.939
39.87
39.799
39.728
39.657
39.589
39.523
39.458
39.393
39.328
39.263
39.199
39.136
39.073
39.011
38.951
38.893
38.837
38.785
38.735
38.689
38.645
38.603
38.564
38.526
38.489
38.451
38.411
38.367
38.319
38.266
38.206
38.14
38.069
37.993
37.915
37.835
37.753
37.672
37.592
37.514
37.44
37.37
37.305
37.245
37.191
37.143
37.101
37.065
37.034
37.01
36.992
36.98
36.971
36.967
36.965
36.965
36.966
36.968
36.97
36.973
36.977
36.981
36.984
36.984
36.983
36.98
36.975
36.967
36.956
36.942
36.925
36.905
36.883
36.859
36.833
36.806
36.778
36.748
36.717
36.683
36.647
36.609
36.569
36.527
36.483
36.438
36.392
36.346
36.301
36.256
36.212
36.169
36.126
36.083
36.04
35.996
35.953
35.908
35.864
35.819
35.775
35.73
35.684
35.639
35.594
35.548
35.503
35.457
35.411
35.366
35.321
35.276
35.231
35.188
35.145
35.104
35.064
35.024
34.986
34.949
34.914
34.882
34.855
34.832
34.813
34.796
34.781
34.768
34.758
34.748
34.74
34.731
34.723
34.713
34.703
34.691
34.678
34.662
34.643
34.621
34.596
34.568
34.538
34.505
34.469
34.432
34.392
34.349
34.304
34.258
34.211
34.163
34.114
34.064
34.012
33.96
33.908
33.858
33.81
33.766
33.726
33.689
33.657
33.628
33.603
33.581
33.563
33.548
33.536
33.527
33.521
33.517
33.513
