Trial 3:3back
33.761
33.721
33.683
33.65
33.62
33.593
33.568
33.544
33.523
33.503
33.483
33.464
33.445
33.425
33.406
33.386
33.364
33.342
33.32
33.298
33.277
33.256
33.237
33.218
33.201
33.185
33.171
33.16
33.152
33.144
33.137
33.13
33.122
33.114
33.108
33.106
33.111
33.127
33.155
33.2
33.266
33.357
33.475
33.625
33.808
34.025
34.277
34.561
34.875
35.214
35.575
35.951
36.335
36.722
37.106
37.479
37.836
38.174
38.487
38.773
39.029
39.253
39.444
39.603
39.731
39.829
39.899
39.945
39.967
39.968
39.949
39.912
39.86
39.794
39.716
39.628
39.532
39.429
39.321
39.21
39.097
38.983
38.868
38.752
38.635
38.517
38.399
38.282
38.164
38.048
37.932
37.818
37.705
37.593
37.482
37.371
37.261
37.153
37.047
36.944
36.843
36.744
36.65
36.56
36.476
36.397
36.323
36.255
36.193
36.137
36.087
36.044
36.008
35.978
35.955
35.94
35.931
35.929
35.934
35.948
35.971
36.0
36.035
36.073
36.113
36.155
36.196
36.235
36.272
36.304
36.332
36.354
36.369
36.379
36.383
36.38
36.37
36.354
36.332
36.304
36.271
36.232
36.188
36.14
36.087
36.03
35.968
35.902
35.833
35.762
35.687
35.611
35.534
35.457
35.38
35.303
35.225
35.147
35.069
34.991
34.912
34.835
34.757
34.68
34.604
34.53
34.458
34.389
34.322
34.257
34.195
34.136
34.078
34.022
33.967
33.914
33.863
33.815
33.769
33.726
33.685
33.646
33.609
33.574
33.541
33.509
33.478
33.448
33.42
33.394
33.372
33.353
33.336
33.322
33.311
33.302
33.295
33.29
33.286
33.28
33.274
33.265
33.254
33.242
33.228
33.212
33.195
33.177
33.159
33.14
33.12
33.1
33.079
33.058
33.037
33.015
32.994
32.973
32.953
32.933
32.916
32.902
32.896
32.898
32.913
32.945
32.996
33.068
33.165
33.289
33.444
33.63
33.848
34.097
34.376
34.684
35.017
35.37
35.74
36.118
36.5
36.877
37.245
37.598
37.931
38.239
38.521
38.773
38.995
39.185
39.345
39.476
39.579
39.655
39.705
39.73
39.731
39.711
39.672
39.615
39.543
39.458
39.362
39.257
39.146
39.03
38.91
38.787
38.663
38.539
38.415
38.293
38.173
38.056
37.942
37.831
37.723
37.618
37.515
37.414
37.314
37.215
37.116
37.016
36.916
36.814
36.712
36.61
36.509
36.41
36.312
36.217
36.125
36.038
35.954
35.877
35.806
35.743
35.689
35.644
35.608
35.583
35.568
35.563
35.568
35.582
35.604
35.634
35.668
35.708
35.751
35.796
35.843
35.89
35.935
35.978
36.016
36.051
36.081
36.108
36.131
36.148
36.159
36.164
36.161
36.15
36.13
36.102
36.067
36.023
35.971
35.912
35.847
35.776
35.7
35.62
35.539
35.456
35.374
35.291
35.209
35.128
35.049
34.971
34.895
34.82
34.745
34.672
34.599
34.527
34.457
34.389
34.324
34.261
34.2
34.14
34.082
34.023
33.966
33.909
33.855
33.803
33.754
33.707
33.662
33.621
33.583
33.547
33.515
33.485
33.457
33.43
33.405
33.38
33.357
33.336
33.317
33.299
33.283
33.267
33.252
33.238
33.223
33.208
33.195
33.183
33.174
33.165
33.156
33.146
33.134
33.12
33.104
33.085
33.065
33.042
33.018
32.993
32.966
32.937
32.908
32.88
32.852
32.827
32.804
32.784
32.767
32.752
32.738
32.726
32.717
32.71
32.709
32.714
32.727
32.752
32.792
32.852
32.934
33.043
33.182
33.353
33.557
33.796
34.067
34.37
34.701
35.056
35.429
35.814
36.205
36.594
36.974
37.339
37.683
38.0
38.289
38.547
38.772
38.963
39.12
39.246
39.34
39.405
39.442
39.453
39.443
39.412
39.365
39.304
39.231
39.146
39.053
38.951
38.842
38.729
38.611
38.491
38.369
38.247
38.126
38.005
37.886
37.767
37.651
37.535
37.421
37.307
37.194
37.081
36.968
36.856
36.744
36.632
36.519
36.407
36.296
36.187
36.081
35.979
35.882
35.791
35.707
35.63
35.562
35.503
35.453
35.413
35.383
35.363
35.351
35.348
35.352
35.364
35.382
35.407
35.438
35.474
35.514
35.557
35.601
35.647
35.693
35.739
35.785
35.829
35.871
35.909
35.943
35.972
35.996
36.014
36.025
36.03
36.026
36.013
35.992
35.963
35.926
35.883
35.833
35.777
35.716
35.649
35.577
35.501
35.42
35.337
35.251
35.163
35.074
34.985
34.898
34.814
34.733
34.655
34.58
34.508
34.44
34.374
34.311
34.25
34.19
34.132
34.075
34.017
33.959
33.902
33.846
33.79
33.733
33.677
33.621
33.568
33.518
33.471
33.428
33.388
33.352
33.319
33.289
33.262
33.239
33.218
33.199
33.184
33.169
33.156
33.143
33.128
33.114
33.099
33.083
33.069
33.054
33.04
33.025
33.01
32.996
32.981
32.968
32.957
32.946
32.936
32.926
32.917
32.908
32.899
32.889
32.879
32.868
32.856
32.843
32.829
32.814
32.797
32.778
32.757
32.736
32.716
32.697
32.68
32.667
32.657
32.65
32.649
32.654
32.67
32.698
32.741
32.803
32.888
32.997
33.132
33.288
33.469
33.677
33.915
34.184
34.483
34.81
35.162
35.534
35.921
36.317
36.713
37.102
37.475
37.828
38.154
38.449
38.71
38.933
39.119
39.266
39.376
39.452
39.498
39.516
39.509
39.479
39.43
39.362
39.28
39.185
39.08
38.968
38.849
38.725
38.597
38.465
38.331
38.196
38.061
37.927
37.794
37.663
37.534
37.408
37.285
37.166
37.049
36.935
36.823
36.711
36.601
36.491
36.383
36.277
36.173
36.071
35.972
35.877
35.785
35.697
35.614
35.536
35.464
35.4
35.342
35.291
35.247
35.211
35.182
35.161
35.148
35.145
35.15
35.165
35.188
35.221
35.261
35.31
35.366
35.428
35.493
35.561
35.629
35.695
35.759
35.817
35.871
35.918
35.956
35.985
36.004
36.012
36.009
35.996
35.974
35.942
35.902
35.853
35.797
35.734
35.666
35.595
35.52
35.443
35.363
35.281
35.198
35.113
35.028
34.942
34.855
34.768
34.68
34.592
34.505
34.418
34.334
34.252
34.174
34.099
34.027
33.959
33.896
33.836
33.781
33.731
33.686
33.645
33.608
33.574
33.548
33.532
33.525
33.526
33.53
33.535
33.536
33.532
33.521
33.504
33.478
33.445
33.405
33.36
33.311
33.262
33.213
33.166
33.122
33.081
33.043
33.009
32.978
32.952
32.929
32.911
32.896
32.885
32.877
32.872
32.869
32.867
32.865
32.864
32.863
32.862
32.86
32.859
32.856
32.853
32.848
32.84
32.831
32.818
32.803
32.786
32.766
32.744
32.722
32.7
32.681
32.665
32.654
32.65
32.654
32.668
32.693
32.733
32.79
32.869
32.973
33.105
33.269
33.466
33.697
33.962
34.261
34.591
34.949
35.329
35.722
36.123
36.522
36.913
37.288
37.643
37.971
38.268
38.529
38.754
38.94
39.087
39.197
39.271
39.312
39.322
39.303
39.26
39.195
39.114
39.02
38.916
38.804
38.687
38.566
38.444
38.321
38.198
38.076
37.954
37.831
37.708
37.585
37.461
37.336
37.211
37.086
36.961
36.837
36.713
36.589
36.466
36.344
36.223
36.103
35.986
35.871
35.758
35.649
35.543
35.443
35.347
35.257
35.174
35.097
35.029
34.969
34.92
34.88
34.85
34.83
34.819
34.817
34.823
34.835
34.853
34.877
34.907
34.945
34.99
35.043
35.101
35.164
35.231
35.299
35.367
35.434
35.498
35.558
35.612
35.66
35.701
35.734
35.758
35.773
35.779
35.774
35.758
35.732
35.695
35.649
35.596
35.535
35.469
35.398
35.325
35.252
35.182
35.115
35.048
34.982
34.915
34.844
34.77
34.69
34.606
34.518
34.427
34.334
34.242
34.151
34.063
33.979
33.898
33.822
33.751
33.685
33.624
33.567
33.513
33.462
33.414
33.369
33.327
33.289
33.254
33.222
33.193
33.166
33.141
33.118
33.096
33.076
33.058
33.042
33.029
33.018
33.009
33.001
32.993
32.985
32.977
32.968
32.958
32.946
32.934
32.922
32.908
32.893
32.877
32.862
32.846
32.83
32.816
32.802
32.787
32.773
32.758
32.743
32.728
32.713
32.702
32.702
32.72
32.752
32.796
32.844
32.892
32.933
32.963
32.98
32.984
32.976
32.957
32.932
32.903
32.876
32.856
32.85
32.863
32.901
32.969
33.072
33.213
33.395
33.619
33.884
34.186
34.522
34.887
35.274
35.677
36.086
36.495
36.894
37.276
37.635
37.964
38.26
38.519
38.739
38.919
39.059
39.163
39.231
39.266
39.272
39.251
39.207
39.143
39.062
38.969
38.863
38.749
38.628
38.501
38.372
38.24
38.106
37.973
37.84
37.708
37.577
37.446
37.315
37.185
37.054
36.925
36.794
36.663
36.53
36.396
36.263
36.132
36.003
35.876
35.754
35.635
35.52
35.41
35.306
35.207
35.115
35.03
34.952
34.882
34.818
34.762
34.714
34.675
34.645
34.625
34.615
34.615
34.625
34.643
34.671
34.708
34.753
34.806
34.865
34.93
34.998
35.07
35.143
35.216
35.287
35.356
35.421
35.48
35.533
35.577
35.613
35.64
35.657
35.665
35.664
35.653
35.633
35.603
35.564
35.518
35.466
35.409
35.347
35.282
35.214
35.143
35.069
34.994
34.919
34.843
34.767
34.691
34.615
34.539
34.462
34.384
34.306
34.227
34.149
34.072
33.995
33.921
33.848
33.778
33.711
33.646
33.585
33.528
33.473
33.422
33.373
33.328
33.285
33.246
33.21
33.177
33.147
33.119
33.093
33.069
33.047
33.025
33.004
32.982
32.962
32.942
32.926
32.912
32.9
32.89
32.881
32.873
32.865
32.857
32.85
32.844
32.838
32.832
32.827
32.821
32.814
32.807
32.799
32.79
32.781
32.769
32.757
32.744
32.73
32.716
32.701
32.687
32.674
32.661
32.651
32.641
32.633
32.625
32.618
32.614
32.612
32.615
32.621
32.632
32.65
32.676
32.713
32.763
32.829
32.915
33.025
33.163
33.332
33.534
33.771
34.042
34.345
34.679
35.038
35.418
35.812
36.212
36.61
36.999
37.372
37.722
38.044
38.335
38.59
38.806
38.981
39.115
39.21
39.269
39.296
39.296
39.27
39.223
39.158
39.076
38.981
38.876
38.761
38.638
38.51
38.377
38.241
38.102
37.963
37.823
37.684
37.544
37.406
37.269
37.134
37.002
36.873
36.746
36.62
36.496
36.371
36.247
36.122
35.995
35.866
35.736
35.604
35.474
35.348
35.226
35.112
35.005
34.908
34.822
34.747
34.682
34.63
34.59
34.562
34.546
34.54
34.546
34.561
34.587
34.622
34.666
34.718
34.778
34.845
34.918
34.994
35.072
35.151
35.228
35.304
35.377
35.447
35.516
35.583
35.648
35.707
35.759
35.8
35.83
35.848
35.853
35.846
35.826
35.794
35.75
35.697
35.636
35.568
35.494
35.415
35.333
35.248
35.162
35.076
34.989
34.904
34.818
34.732
34.645
34.557
34.47
34.383
34.297
34.213
34.13
34.05
33.974
33.901
33.833
33.771
33.714
33.663
33.616
33.574
33.534
33.497
33.462
33.428
33.396
33.365
33.336
33.307
33.278
33.248
33.219
33.189
33.161
33.134
33.109
33.086
33.066
33.047
33.028
33.011
32.994
32.979
32.966
32.956
32.949
32.945
32.942
32.94
32.938
32.936
32.933
32.927
32.918
32.906
32.89
32.872
32.852
32.831
32.81
32.789
32.769
32.749
32.731
32.716
32.703
32.692
32.683
32.675
32.669
32.665
32.664
32.667
32.674
32.688
32.709
32.741
32.785
32.841
32.914
33.007
33.123
33.265
33.436
33.639
33.874
34.141
34.441
34.769
35.123
35.497
35.884
36.279
36.673
37.058
37.428
37.776
38.097
38.387
38.641
38.857
39.036
39.176
39.279
39.347
39.384
39.392
39.373
39.331
39.269
39.187
39.088
38.976
38.853
38.722
38.584
38.443
38.3
38.156
38.013
37.871
37.73
37.592
37.456
37.324
37.194
37.067
36.943
36.82
36.699
36.578
36.456
36.331
36.205
36.079
35.953
35.829
35.706
35.586
35.47
35.358
35.251
35.152
35.062
34.98
34.908
34.844
34.79
34.745
34.71
34.686
34.673
34.671
34.679
34.697
34.724
34.761
34.807
34.862
34.924
34.993
35.068
35.146
35.226
35.307
35.388
35.467
35.542
35.613
35.677
35.733
35.78
35.818
35.846
35.863
35.87
35.867
35.857
35.84
35.817
35.787
35.75
35.705
35.653
35.594
35.527
35.454
35.374
35.288
35.198
35.105
35.01
34.914
34.821
34.728
34.638
34.55
34.466
34.385
34.307
34.234
34.165
34.1
34.037
33.978
33.922
33.868
33.815
33.765
33.716
33.668
33.622
33.576
33.531
33.485
33.441
33.398
33.357
33.319
33.284
33.253
33.224
33.199
33.176
33.157
33.14
33.125
33.112
33.1
33.089
33.08
33.072
33.064
33.057
33.049
33.042
33.035
33.028
33.022
33.016
33.009
33.003
32.996
32.989
32.981
32.971
32.96
32.948
32.937
32.925
32.915
32.905
32.896
32.888
32.88
32.872
32.866
32.859
32.854
32.849
32.845
32.841
32.838
32.839
32.843
32.853
32.871
32.9
32.941
33.0
33.078
33.18
33.31
33.469
33.658
33.88
34.133
34.418
34.733
35.073
35.433
35.809
36.194
36.582
36.966
37.338
37.694
38.025
38.328
38.599
38.834
39.031
39.192
39.315
39.405
39.461
39.487
39.484
39.457
39.408
39.339
39.254
39.154
39.043
38.922
38.793
38.659
38.52
38.378
38.234
38.089
37.943
37.799
37.655
37.511
37.367
37.225
37.084
36.944
36.806
36.67
36.537
36.408
36.282
36.16
36.043
35.93
35.82
35.715
35.612
35.512
35.417
35.325
35.238
35.156
35.082
35.014
34.955
34.904
34.862
34.831
34.811
34.802
34.804
34.816
34.839
34.871
34.913
34.965
35.025
35.091
35.162
35.235
35.311
35.386
35.46
35.533
35.603
35.668
35.727
35.78
35.825
35.861
35.889
35.908
35.918
35.918
35.908
35.889
35.862
35.827
35.784
35.736
35.684
35.626
35.565
35.5
35.432
35.362
35.289
35.216
35.143
35.07
34.996
34.921
34.847
34.772
34.697
34.621
34.543
34.465
34.387
34.308
34.23
34.154
34.079
34.009
33.943
33.882
33.825
33.774
33.727
33.683
33.643
33.605
33.569
33.535
33.504
33.474
33.446
33.42
33.395
33.373
33.352
33.331
33.311
33.291
33.27
33.248
33.224
33.2
33.176
33.154
33.132
33.114
33.097
33.082
33.069
33.057
33.047
33.041
33.036
33.034
33.033
33.032
33.03
33.027
33.023
33.018
33.01
32.999
32.986
32.97
32.952
32.932
32.914
32.896
32.881
32.869
32.86
32.857
32.858
32.866
32.881
32.904
32.934
32.974
33.025
33.089
33.17
33.269
33.392
33.54
33.717
33.925
34.166
34.44
34.743
35.074
35.428
35.798
36.178
36.561
36.94
37.308
37.658
37.985
38.282
38.546
38.774
38.966
39.122
39.244
39.331
39.385
39.409
39.407
39.38
39.333
39.267
39.186
39.091
38.986
38.871
38.75
38.625
38.495
38.363
38.227
38.089
37.95
37.811
37.672
37.535
37.399
37.264
37.129
36.996
36.863
36.732
36.603
36.477
36.353
36.231
36.113
35.997
35.884
35.775
35.669
35.567
35.469
35.374
35.284
35.199
35.12
35.049
34.986
34.934
34.893
34.864
34.847
34.842
34.85
34.868
34.898
34.937
34.985
35.041
35.103
35.171
35.244
35.321
35.399
35.477
35.554
35.627
35.695
35.758
35.813
35.861
35.901
35.932
35.955
35.969
35.975
35.973
35.962
35.943
35.916
35.881
35.84
35.793
35.74
35.681
35.618
35.551
35.48
35.407
35.33
35.252
35.171
35.089
35.005
34.922
34.838
34.753
34.669
34.586
34.505
34.426
34.35
34.278
34.21
34.147
34.089
34.037
33.988
33.943
33.901
33.86
33.82
33.78
33.742
33.704
33.667
33.63
33.595
33.561
33.528
33.497
33.467
33.439
33.412
33.386
33.362
33.338
33.315
33.294
33.273
33.255
33.239
33.227
33.217
33.211
33.206
33.202
33.198
33.195
33.192
33.189
33.185
33.181
33.176
33.169
33.16
33.149
33.136
33.121
33.105
33.088
33.072
33.056
33.041
33.027
33.016
33.008
33.002
33.002
33.006
33.016
33.033
33.059
33.096
33.145
33.209
33.292
33.396
33.524
33.678
33.861
34.075
34.319
34.593
34.895
35.221
35.567
35.927
36.296
36.667
37.034
37.391
37.731
38.05
38.343
38.605
38.834
39.028
39.186
39.308
39.394
39.448
39.469
39.461
39.425
39.365
39.285
39.188
39.078
38.959
38.834
38.705
38.573
38.441
38.308
38.176
38.044
37.914
37.786
37.658
37.53
37.403
37.276
37.15
37.026
36.902
36.78
36.659
36.541
36.424
36.309
36.196
36.084
35.973
35.864
35.757
35.653
35.552
35.455
35.362
35.276
35.197
35.127
35.066
35.017
34.98
34.957
34.947
34.949
34.962
34.987
35.022
35.065
35.117
35.176
35.24
35.307
35.377
35.449
35.523
35.598
35.673
35.746
35.817
35.883
35.943
35.995
36.04
36.078
36.108
36.13
36.141
36.141
36.131
36.111
36.082
36.043
35.995
35.939
35.876
35.807
35.733
35.656
35.577
35.496
35.415
35.333
35.25
35.169
35.088
35.009
34.931
34.856
34.785
34.716
34.65
34.585
34.523
34.462
34.403
34.345
34.286
34.225
34.162
34.099
34.036
33.975
33.917
33.863
33.813
33.768
33.729
33.693
33.662
33.634
33.608
33.585
33.562
33.541
33.52
33.498
33.477
33.456
33.435
33.416
33.399
33.386
33.375
33.367
33.361
33.356
33.351
33.343
33.333
33.32
33.305
33.288
33.271
33.252
33.233
33.213
33.193
33.174
33.157
33.14
33.125
33.111
33.098
33.086
33.076
33.069
33.065
33.064
33.066
33.072
33.082
33.1
33.125
33.16
33.208
33.272
33.354
33.458
33.586
33.74
33.924
34.139
34.385
34.662
34.966
35.296
35.644
36.008
36.378
36.75
37.117
37.471
37.808
38.122
38.408
38.664
38.887
39.074
39.227
39.345
39.429
39.482
39.505
39.502
39.475
39.429
39.364
39.284
39.192
39.09
38.98
38.864
38.743
38.62
38.504
38.402
38.313
38.234
38.16
38.085
38.006
37.918
37.818
37.705
37.579
37.44
37.29
37.131
36.966
36.798
36.63
36.464
36.302
36.147
36.001
35.866
35.741
35.629
35.528
35.438
35.359
35.291
35.235
35.19
35.158
35.143
35.151
35.183
35.234
35.3
35.377
35.459
35.543
35.623
35.697
35.762
35.819
35.867
35.907
35.942
35.971
35.997
36.02
36.04
36.06
36.08
36.1
36.118
36.133
36.145
36.151
36.151
36.144
36.131
36.11
36.082
36.047
36.004
35.953
35.897
35.836
35.77
35.7
35.627
35.552
35.476
35.398
35.319
35.239
35.158
35.075
34.993
34.91
34.828
34.747
34.668
34.591
34.516
34.445
34.378
34.315
34.256
34.2
34.149
34.1
34.056
34.014
33.975
33.939
33.904
33.872
33.841
33.81
33.778
33.743
33.707
33.67
33.634
33.6
33.568
33.538
33.512
33.489
33.47
33.456
33.446
33.44
33.437
33.437
33.438
33.44
33.442
33.441
33.439
33.435
33.428
33.419
33.408
33.394
33.379
33.362
33.343
33.323
33.3
33.275
33.248
33.22
33.194
33.169
33.147
33.128
33.114
33.104
33.099
33.1
33.108
33.123
33.146
33.179
33.224
33.284
33.362
33.461
33.584
33.734
33.911
34.118
34.354
34.617
34.906
35.219
35.553
35.902
36.26
36.622
36.981
37.33
37.666
37.982
38.274
38.538
38.77
38.968
39.133
39.265
39.364
39.432
39.471
39.484
39.472
39.44
39.389
39.323
39.245
39.155
39.056
38.949
38.836
38.717
38.595
38.47
38.345
38.219
38.092
37.966
37.841
37.718
37.596
37.474
37.354
37.233
37.11
36.984
36.856
36.727
36.598
36.471
36.348
36.229
36.117
36.013
35.916
35.828
35.747
35.675
35.612
35.556
35.507
35.465
35.431
35.405
35.386
35.374
35.371
35.374
35.384
35.402
35.428
35.461
35.502
35.549
35.602
35.659
35.718
35.778
35.839
35.898
35.956
36.013
36.065
36.114
36.156
36.192
36.22
36.242
36.256
36.262
36.259
36.247
36.226
36.196
36.158
36.113
36.063
36.006
35.945
35.878
35.808
35.735
35.659
35.583
35.506
35.428
35.349
35.27
35.192
35.113
35.036
34.96
34.885
34.813
34.741
34.671
34.602
34.535
34.47
34.407
34.347
34.29
34.235
34.183
34.134
34.087
34.042
34.0
33.961
33.924
33.889
33.856
33.824
33.793
33.764
33.735
33.707
33.681
33.656
33.633
33.611
33.591
33.573
33.558
33.545
33.534
33.525
33.519
33.513
33.509
33.505
33.501
33.497
33.491
33.483
33.474
33.463
33.449
33.432
33.413
33.391
33.369
33.345
33.321
33.298
33.274
33.251
33.229
33.209
33.191
33.175
33.162
33.152
33.146
33.144
33.148
33.157
33.175
33.203
33.245
33.304
33.384
33.489
33.62
33.781
33.974
34.198
34.454
34.739
35.049
35.379
35.725
36.081
36.442
36.801
37.152
37.49
37.809
38.105
38.374
38.614
38.822
39.0
39.146
39.261
39.346
39.402
39.432
39.437
39.421
39.386
39.335
39.269
39.192
39.104
39.008
38.903
38.792
38.675
38.555
38.431
38.304
38.175
38.047
37.918
37.792
37.668
37.545
37.423
37.303
37.184
37.068
36.955
36.843
36.733
36.625
36.517
36.412
36.308
36.207
36.107
36.01
35.915
35.823
