Trial 3:3back
35.077
35.073
35.07
35.068
35.065
35.064
35.063
35.063
35.063
35.064
35.065
35.065
35.065
35.064
35.063
35.062
35.061
35.06
35.059
35.057
35.054
35.051
35.048
35.045
35.042
35.04
35.037
35.035
35.032
35.029
35.025
35.021
35.016
35.011
35.005
35.0
34.996
34.992
34.989
34.987
34.986
34.985
34.983
34.981
34.979
34.975
34.971
34.965
34.96
34.955
34.95
34.946
34.942
34.937
34.933
34.928
34.923
34.917
34.91
34.903
34.895
34.887
34.879
34.872
34.866
34.86
34.855
34.851
34.847
34.843
34.84
34.836
34.832
34.827
34.821
34.814
34.807
34.8
34.792
34.784
34.776
34.769
34.763
34.758
34.753
34.749
34.746
34.743
34.741
34.741
34.745
34.753
34.768
34.791
34.822
34.862
34.913
34.975
35.047
35.128
35.219
35.316
35.42
35.527
35.636
35.743
35.848
35.946
36.037
36.119
36.19
36.248
36.294
36.326
36.344
36.349
36.343
36.326
36.3
36.267
36.228
36.185
36.14
36.093
36.045
35.998
35.951
35.905
35.861
35.82
35.781
35.746
35.714
35.686
35.662
35.643
35.628
35.616
35.607
35.601
35.597
35.594
35.591
35.588
35.584
35.579
35.573
35.565
35.555
35.543
35.53
35.514
35.497
35.479
35.459
35.44
35.421
35.404
35.389
35.375
35.365
35.358
35.353
35.352
35.353
35.357
35.363
35.371
35.38
35.391
35.403
35.416
35.429
35.443
35.456
35.469
35.481
35.491
35.5
35.507
35.511
35.512
35.51
35.505
35.497
35.487
35.475
35.461
35.446
35.429
35.411
35.392
35.373
35.352
35.332
35.312
35.292
35.274
35.255
35.237
35.22
35.202
35.185
35.169
35.153
35.137
35.122
35.108
35.095
35.083
35.071
35.06
35.05
35.04
35.031
35.022
35.015
35.008
35.001
34.994
34.988
34.982
34.975
34.97
34.964
34.96
34.956
34.954
34.952
34.951
34.95
34.95
34.95
34.95
34.951
34.951
34.952
34.952
34.953
34.953
34.955
34.956
34.958
34.96
34.963
34.964
34.965
34.965
34.964
34.962
34.958
34.952
34.946
34.939
34.931
34.923
34.915
34.906
34.897
34.888
34.88
34.873
34.867
34.862
34.858
34.854
34.851
34.847
34.844
34.841
34.838
34.837
34.836
34.835
34.835
34.835
34.834
34.833
34.83
34.826
34.821
34.814
34.806
34.798
34.789
34.781
34.773
34.767
34.761
34.757
34.753
34.75
34.748
34.745
34.742
34.739
34.734
34.729
34.724
34.718
34.711
34.705
34.699
34.692
34.686
34.681
34.676
34.671
34.668
34.666
34.666
34.669
34.675
34.686
34.704
34.728
34.761
34.804
34.857
34.92
34.993
35.076
35.167
35.265
35.369
35.476
35.585
35.693
35.798
35.898
35.99
36.075
36.149
36.213
36.265
36.306
36.333
36.348
36.35
36.34
36.319
36.288
36.249
36.205
36.155
36.103
36.05
35.996
35.944
35.894
35.847
35.804
35.765
35.73
35.7
35.675
35.654
35.636
35.622
35.611
35.602
35.595
35.589
35.584
35.58
35.577
35.574
35.57
35.566
35.562
35.556
35.548
35.539
35.529
35.517
35.503
35.488
35.472
35.456
35.439
35.422
35.405
35.389
35.375
35.363
35.354
35.347
35.344
35.344
35.346
35.351
35.358
35.367
35.376
35.387
35.398
35.409
35.419
35.429
35.438
35.445
35.452
35.457
35.462
35.465
35.466
35.465
35.461
35.455
35.446
35.436
35.424
35.411
35.396
35.381
35.365
35.349
35.332
35.315
35.297
35.279
35.26
35.242
35.223
35.204
35.185
35.166
35.147
35.129
35.112
35.096
35.082
35.068
35.055
35.043
35.033
35.023
35.015
35.007
35.001
34.995
34.99
34.986
34.983
34.981
34.98
34.98
34.982
34.984
34.987
34.99
34.992
34.995
34.996
34.995
34.994
34.991
34.987
34.983
34.978
34.973
34.968
34.964
34.96
34.957
34.955
34.953
34.952
34.952
34.952
34.952
34.953
34.954
34.954
34.954
34.954
34.953
34.952
34.951
34.949
34.946
34.943
34.938
34.933
34.927
34.92
34.913
34.907
34.901
34.896
34.891
34.887
34.883
34.88
34.878
34.877
34.875
34.873
34.871
34.868
34.865
34.861
34.857
34.853
34.849
34.845
34.842
34.839
34.835
34.831
34.826
34.821
34.814
34.807
34.799
34.791
34.783
34.775
34.767
34.759
34.751
34.744
34.738
34.731
34.726
34.72
34.715
34.71
34.706
34.703
34.7
34.698
34.697
34.696
34.697
34.698
34.699
34.702
34.706
34.711
34.72
34.733
34.751
34.776
34.809
34.853
34.907
34.972
35.049
35.136
35.231
35.334
35.443
35.556
35.669
35.781
35.888
35.989
36.081
36.162
36.232
36.289
36.333
36.363
36.379
36.382
36.373
36.353
36.324
36.286
36.241
36.192
36.14
36.087
36.035
35.984
35.935
35.889
35.847
35.809
35.774
35.744
35.718
35.696
35.678
35.663
35.651
35.642
35.635
35.629
35.624
35.619
35.614
35.608
35.601
35.592
35.581
35.569
35.555
35.539
35.522
35.504
35.485
35.465
35.446
35.426
35.407
35.388
35.37
35.354
35.339
35.328
35.318
35.312
35.309
35.309
35.312
35.317
35.324
35.334
35.345
35.358
35.372
35.388
35.403
35.417
35.431
35.444
35.455
35.465
35.474
35.481
35.485
35.487
35.486
35.482
35.476
35.467
35.455
35.442
35.427
35.412
35.396
35.379
35.362
35.343
35.323
35.301
35.279
35.256
35.233
35.21
35.188
35.167
35.147
35.129
35.113
35.099
35.086
35.074
35.062
35.05
35.038
35.027
35.015
35.005
34.995
34.987
34.98
34.974
34.968
34.963
34.959
34.954
34.95
34.946
34.942
34.939
34.936
34.932
34.928
34.924
34.921
34.918
34.916
34.915
34.914
34.914
34.915
34.916
34.917
34.918
34.918
34.918
34.917
34.915
34.913
34.91
34.906
34.903
34.9
34.897
34.895
34.892
34.89
34.889
34.887
34.886
34.885
34.884
34.883
34.881
34.879
34.876
34.873
34.87
34.866
34.862
34.857
34.853
34.848
34.844
34.839
34.834
34.83
34.826
34.823
34.821
34.818
34.814
34.81
34.805
34.799
34.793
34.786
34.78
34.775
34.769
34.764
34.759
34.755
34.751
34.748
34.745
34.741
34.738
34.734
34.728
34.722
34.715
34.707
34.699
34.692
34.684
34.677
34.67
34.664
34.659
34.655
34.651
34.648
34.646
34.644
34.642
34.642
34.644
34.648
34.656
34.669
34.688
34.716
34.753
34.8
34.858
34.928
35.009
35.1
35.2
35.307
35.419
35.535
35.651
35.765
35.874
35.975
36.066
36.146
36.213
36.267
36.307
36.334
36.348
36.35
36.341
36.323
36.295
36.261
36.22
36.174
36.125
36.074
36.021
35.969
35.917
35.866
35.818
35.772
35.728
35.689
35.653
35.623
35.597
35.575
35.557
35.543
35.53
35.52
35.512
35.506
35.501
35.496
35.491
35.486
35.48
35.473
35.464
35.453
35.441
35.427
35.411
35.394
35.375
35.356
35.336
35.315
35.296
35.28
35.266
35.255
35.248
35.245
35.246
35.25
35.257
35.267
35.279
35.293
35.308
35.325
35.342
35.358
35.374
35.39
35.404
35.417
35.429
35.439
35.448
35.454
35.457
35.457
35.454
35.449
35.44
35.43
35.417
35.404
35.389
35.373
35.356
35.338
35.32
35.301
35.282
35.261
35.238
35.215
35.191
35.166
35.14
35.115
35.091
35.067
35.045
35.024
35.005
34.988
34.972
34.958
34.946
34.935
34.925
34.916
34.907
34.9
34.893
34.887
34.882
34.877
34.874
34.872
34.871
34.87
34.87
34.87
34.871
34.871
34.873
34.874
34.876
34.878
34.88
34.883
34.886
34.888
34.891
34.893
34.896
34.898
34.9
34.901
34.901
34.9
34.898
34.897
34.895
34.893
34.891
34.888
34.885
34.883
34.881
34.88
34.879
34.879
34.878
34.876
34.873
34.87
34.866
34.863
34.86
34.857
34.855
34.852
34.85
34.847
34.843
34.84
34.837
34.833
34.829
34.825
34.82
34.814
34.808
34.802
34.796
34.79
34.784
34.777
34.771
34.765
34.76
34.754
34.75
34.746
34.742
34.739
34.737
34.735
34.734
34.732
34.731
34.729
34.726
34.724
34.721
34.716
34.711
34.704
34.696
34.688
34.679
34.67
34.662
34.656
34.65
34.646
34.643
34.642
34.644
34.648
34.656
34.669
34.688
34.713
34.746
34.789
34.842
34.907
34.983
35.072
35.171
35.28
35.395
35.515
35.636
35.756
35.871
35.979
36.078
36.165
36.24
36.301
36.348
36.38
36.399
36.404
36.396
36.377
36.349
36.311
36.266
36.216
36.16
36.102
36.041
35.98
35.92
35.861
35.806
35.753
35.704
35.659
35.618
35.581
35.548
35.518
35.491
35.467
35.446
35.429
35.413
35.4
35.389
35.379
35.369
35.357
35.344
35.33
35.314
35.297
35.279
35.26
35.241
35.222
35.203
35.186
35.171
35.158
35.148
35.142
35.138
35.137
35.139
35.145
35.153
35.165
35.18
35.197
35.217
35.238
35.259
35.282
35.304
35.326
35.346
35.365
35.382
35.396
35.406
35.414
35.419
35.421
35.421
35.418
35.412
35.404
35.393
35.38
35.365
35.349
35.331
35.313
35.293
35.274
35.253
35.232
35.211
35.189
35.167
35.144
35.122
35.099
35.077
35.055
35.034
35.014
34.995
34.977
34.962
34.948
34.936
34.926
34.917
34.909
34.901
34.892
34.882
34.873
34.864
34.855
34.846
34.838
34.831
34.824
34.817
34.811
34.805
34.8
34.796
34.794
34.792
34.792
34.793
34.794
34.796
34.799
34.803
34.808
34.814
34.821
34.829
34.837
34.845
34.853
34.861
34.866
34.869
34.871
34.87
34.868
34.865
34.861
34.857
34.852
34.846
34.84
34.833
34.827
34.821
34.815
34.809
34.804
34.8
34.795
34.791
34.788
34.784
34.78
34.776
34.772
34.766
34.761
34.754
34.747
34.739
34.731
34.723
34.716
34.71
34.704
34.701
34.697
34.695
34.692
34.688
34.685
34.68
34.675
34.67
34.664
34.657
34.649
34.641
34.632
34.623
34.613
34.604
34.595
34.586
34.578
34.572
34.567
34.564
34.564
34.567
34.575
34.588
34.607
34.632
34.666
34.71
34.765
34.831
34.909
34.999
35.099
35.208
35.323
35.443
35.565
35.686
35.803
35.915
36.02
36.114
36.198
36.27
36.328
36.372
36.403
36.42
36.424
36.415
36.395
36.365
36.327
36.281
36.231
36.176
36.119
36.061
36.004
35.949
35.896
35.846
35.799
35.756
35.717
35.682
35.65
35.621
35.597
35.576
35.558
35.544
35.533
35.523
35.516
35.509
35.502
35.495
35.487
35.478
35.469
35.459
35.448
35.435
35.42
35.404
35.386
35.367
35.347
35.326
35.305
35.286
35.267
35.251
35.237
35.228
35.222
35.221
35.223
35.229
35.239
35.25
35.264
35.28
35.297
35.315
35.335
35.354
35.373
35.391
35.407
35.422
35.434
35.443
35.45
35.454
35.454
35.452
35.447
35.44
35.43
35.418
35.404
35.389
35.373
35.356
35.339
35.321
35.301
35.281
35.26
35.238
35.216
35.193
35.169
35.146
35.122
35.099
35.076
35.054
35.034
35.014
34.997
34.981
34.967
34.955
34.944
34.933
34.924
34.915
34.906
34.897
34.889
34.881
34.874
34.867
34.862
34.857
34.853
34.85
34.847
34.846
34.845
34.846
34.848
34.85
34.853
34.856
34.858
34.86
34.86
34.859
34.857
34.855
34.851
34.848
34.844
34.842
34.84
34.839
34.84
34.841
34.845
34.849
34.854
34.859
34.864
34.869
34.874
34.879
34.883
34.887
34.889
34.891
34.891
34.89
34.887
34.883
34.877
34.871
34.863
34.856
34.847
34.839
34.83
34.821
34.812
34.804
34.797
34.791
34.786
34.781
34.777
34.772
34.767
34.761
34.754
34.747
34.74
34.732
34.724
34.716
34.708
34.701
34.695
34.69
34.687
34.685
34.685
34.686
34.691
34.699
34.712
34.732
34.76
34.797
34.846
34.906
34.977
35.06
35.152
35.253
35.36
35.472
35.586
35.7
35.811
35.917
36.016
36.107
36.188
36.256
36.312
36.354
36.381
36.394
36.394
36.381
36.357
36.323
36.281
36.233
36.18
36.124
36.066
36.008
35.951
35.895
35.841
35.79
35.743
35.699
35.66
35.625
35.596
35.571
35.551
35.534
35.521
35.51
35.5
35.491
35.483
35.474
35.464
35.454
35.443
35.431
35.417
35.401
35.383
35.362
35.341
35.318
35.295
35.272
35.25
35.23
35.211
35.195
35.182
35.172
35.166
35.163
35.164
35.168
35.176
35.186
35.198
35.212
35.227
35.244
35.26
35.277
35.292
35.307
35.321
35.334
35.347
35.359
35.37
35.379
35.387
35.393
35.396
35.396
35.394
35.388
35.378
35.365
35.35
35.331
35.31
35.287
35.263
35.239
35.214
35.189
35.164
35.14
35.117
35.095
35.074
35.054
35.034
35.016
34.999
34.982
34.966
34.951
34.937
34.925
34.913
34.902
34.892
34.882
34.873
34.865
34.858
34.851
34.844
34.838
34.831
34.825
34.819
34.813
34.807
34.802
34.797
34.792
34.789
34.786
34.784
34.783
34.782
34.782
34.782
34.783
34.785
34.788
34.791
34.794
34.796
34.799
34.801
34.803
34.805
34.807
34.809
34.81
34.811
34.813
34.814
34.815
34.817
34.818
34.818
34.818
34.816
34.814
34.81
34.805
34.8
34.795
34.791
34.787
34.782
34.778
34.773
34.768
34.762
34.756
34.749
34.742
34.735
34.728
34.721
34.713
34.706
34.698
34.69
34.682
34.674
34.667
34.659
34.651
34.643
34.636
34.628
34.622
34.617
34.614
34.612
34.611
34.612
34.614
34.619
34.626
34.639
34.656
34.68
34.712
34.753
34.804
34.866
34.939
35.023
35.117
35.221
35.332
35.448
35.567
35.685
35.799
35.908
36.009
36.1
36.18
36.246
36.298
36.335
36.357
36.365
36.359
36.341
36.311
36.271
36.223
36.169
36.11
36.048
35.986
35.923
35.863
35.807
35.754
35.705
35.661
35.622
35.586
35.554
35.525
35.499
35.475
35.454
35.435
35.419
35.405
35.393
35.382
35.373
35.363
35.354
35.344
35.333
35.321
35.306
35.29
35.271
35.251
35.229
35.205
35.182
35.161
35.141
35.124
35.111
35.102
35.097
35.097
35.1
35.107
35.118
35.132
35.149
35.169
35.191
35.215
35.239
35.264
35.287
35.308
35.328
35.346
35.361
35.375
35.386
35.395
35.402
35.405
35.407
35.406
35.402
35.397
35.389
35.378
35.364
35.348
35.33
35.309
35.287
35.264
35.24
35.215
35.19
35.165
35.14
35.116
35.093
35.07
35.049
35.029
35.01
34.992
34.976
34.961
34.948
34.936
34.925
34.917
34.909
34.903
34.897
34.892
34.888
34.884
34.879
34.876
34.872
34.869
34.867
34.866
34.865
34.864
34.864
34.864
34.864
34.865
34.865
34.865
34.863
34.86
34.856
34.851
34.846
34.841
34.837
34.833
34.829
34.826
34.824
34.823
34.824
34.825
34.827
34.83
34.834
34.838
34.842
34.845
34.848
34.85
34.852
34.853
34.853
34.852
34.85
34.848
34.846
34.843
34.84
34.836
34.831
34.825
34.819
34.813
34.807
34.801
34.796
34.79
34.785
34.78
34.775
34.771
34.765
34.76
34.753
34.745
34.736
34.727
34.717
34.707
34.697
34.689
34.681
34.676
34.673
34.673
34.676
34.682
34.692
34.706
34.725
34.751
34.785
34.828
34.88
34.942
35.015
35.097
35.189
35.289
35.395
35.504
35.614
35.723
35.827
35.925
36.014
36.094
36.163
36.22
36.265
36.297
36.315
36.321
36.314
36.297
36.271
36.236
36.195
36.147
36.096
36.042
35.986
35.931
35.878
35.827
35.778
35.732
35.689
35.65
35.613
35.58
35.55
35.523
35.499
35.478
35.459
35.443
35.429
35.417
35.406
35.398
35.39
35.382
35.372
35.362
35.35
35.337
35.323
35.307
35.291
35.274
35.256
35.239
35.222
35.206
35.193
35.182
35.175
35.171
35.171
35.173
35.179
35.187
35.198
35.212
35.229
35.248
35.268
35.287
35.306
35.324
35.34
35.355
35.367
35.376
35.383
35.387
35.388
35.386
35.382
35.376
35.368
35.359
35.349
35.338
35.326
35.314
35.301
35.287
35.273
35.258
35.242
35.226
35.209
35.191
35.172
35.15
35.128
35.105
35.081
35.057
35.033
35.009
34.984
34.96
34.938
34.916
34.897
34.881
34.867
34.855
34.846
34.839
34.834
34.83
34.828
34.826
34.826
34.826
34.826
34.826
34.826
34.826
34.826
34.825
34.824
34.823
34.822
34.82
34.817
34.814
34.811
34.808
34.804
34.8
34.798
34.796
34.795
34.796
34.798
34.802
34.806
34.81
34.814
34.818
34.823
34.826
34.83
34.833
34.835
34.838
34.84
34.842
34.844
34.845
34.845
34.845
34.844
34.842
34.839
34.836
34.831
34.825
34.819
34.813
34.807
34.801
34.796
34.791
34.788
34.785
34.782
34.78
34.777
34.775
34.772
34.768
34.764
34.758
34.752
34.745
34.737
34.73
34.723
34.717
34.712
34.709
34.707
34.707
34.71
34.716
34.726
34.741
34.762
34.791
34.829
34.876
34.933
35.001
35.078
35.165
35.261
35.363
35.47
35.579
35.688
35.795
35.896
35.991
36.077
36.153
36.217
36.268
36.305
36.33
36.341
36.34
36.328
36.305
36.274
36.236
36.192
36.143
36.091
36.038
35.984
35.931
35.879
35.829
35.781
35.735
35.692
35.651
35.614
35.58
35.549
35.521
35.497
35.475
35.456
35.441
35.428
35.418
35.409
35.402
35.394
35.386
35.377
35.367
35.356
35.343
35.329
35.314
35.298
35.28
35.263
35.246
35.23
35.216
35.204
35.195
35.189
35.186
35.186
35.19
35.197
35.208
35.221
35.235
35.251
35.268
35.285
35.302
35.319
35.335
35.351
35.366
35.379
35.39
35.399
35.407
35.412
35.415
35.416
35.415
35.411
35.405
35.397
35.386
35.373
35.359
35.342
35.325
35.307
35.288
35.269
35.249
35.228
35.206
35.184
35.162
35.14
35.118
35.098
35.079
35.06
35.043
35.027
35.012
34.998
34.985
34.973
34.962
34.951
34.941
34.931
34.92
34.909
34.899
34.889
34.88
34.871
34.863
34.855
34.847
34.84
34.832
34.825
34.819
34.814
34.81
34.808
34.807
34.807
34.809
34.812
34.816
34.821
34.827
34.833
34.84
34.846
34.852
34.857
34.862
34.865
34.868
34.87
34.872
34.872
34.872
34.871
34.87
34.868
34.865
34.862
34.858
34.854
34.85
34.846
34.842
34.837
34.832
34.828
34.824
34.82
34.817
34.814
34.811
34.807
34.803
34.799
34.794
34.789
34.783
34.777
34.771
34.764
34.757
34.749
34.74
34.731
34.721
34.71
34.699
34.688
34.678
34.669
34.662
34.657
34.654
34.654
34.658
34.666
34.68
34.7
34.728
34.765
34.811
34.867
34.933
35.008
35.093
35.185
35.283
35.385
35.488
35.591
35.69
35.784
35.872
35.95
36.018
36.075
36.12
36.151
36.17
36.176
36.17
36.152
36.126
36.092
36.052
36.007
35.96
35.91
35.859
35.808
35.758
35.71
35.663
35.62
35.581
35.545
35.513
35.485
35.46
35.438
35.419
35.403
35.389
35.377
35.366
35.357
35.349
35.34
35.332
35.324
35.315
35.305
35.294
35.281
35.266
35.249
35.231
35.211
35.191
35.171
35.153
35.137
35.123
35.113
35.107
35.105
35.106
35.112
35.122
35.135
35.15
35.168
35.187
35.206
35.226
35.246
35.264
35.282
35.297
35.311
35.324
35.335
35.344
35.351
35.356
35.358
35.357
35.353
35.348
35.34
35.332
35.322
35.311
35.3
35.288
35.274
35.26
35.246
35.23
35.214
35.197
35.18
35.162
35.144
35.126
35.107
35.088
35.069
35.049
35.03
35.011
34.992
34.973
34.954
34.936
34.919
34.903
34.887
34.873
34.86
34.849
34.84
34.832
34.826
34.823
34.821
34.82
34.822
34.825
34.829
34.834
34.839
34.843
34.848
34.852
34.855
34.858
34.86
34.861
34.86
34.859
34.858
34.855
34.852
34.849
34.846
34.843
34.839
34.836
34.833
34.829
34.827
34.824
34.823
34.823
34.823
34.823
34.824
34.825
34.826
34.827
34.828
34.828
34.827
34.826
34.824
34.822
34.82
34.817
34.814
34.811
34.807
34.804
34.799
34.794
34.788
34.781
34.774
34.765
34.756
34.747
34.737
34.727
34.716
34.705
34.695
34.684
34.675
34.667
34.66
34.655
34.651
34.649
34.648
34.65
34.655
34.664
34.677
34.697
34.724
34.759
34.802
34.855
34.917
34.989
35.069
35.159
35.255
35.356
35.46
35.566
35.67
35.771
35.865
35.951
36.027
36.092
36.145
36.185
36.212
36.226
36.227
36.217
36.195
36.165
36.127
36.084
36.036
35.986
35.934
35.882
35.831
35.78
35.732
35.687
35.645
35.607
35.572
35.541
35.513
35.487
35.463
35.442
35.422
35.404
35.388
35.374
35.362
35.352
35.343
35.335
35.327
35.32
35.312
35.302
35.292
35.28
35.266
35.251
35.234
35.217
35.199
35.182
35.167
35.154
35.145
35.14
35.138
35.14
35.145
35.154
35.166
35.18
35.198
35.217
35.238
35.261
35.285
35.31
35.334
35.357
35.378
35.397
35.414
35.426
35.435
35.44
35.441
35.438
35.432
35.422
35.409
35.394
35.377
35.358
35.337
35.315
35.292
35.268
35.245
35.222
35.201
35.181
35.162
35.143
35.125
35.108
35.091
35.075
35.06
35.045
35.031
35.018
35.005
34.992
34.979
34.967
34.954
34.941
34.929
34.917
34.906
34.896
