Trial 3:3back
35.783
35.8
35.813
35.821
35.823
35.819
35.809
35.792
35.77
35.741
35.706
35.664
35.617
35.564
35.506
35.443
35.375
35.304
35.229
35.151
35.071
34.989
34.907
34.825
34.743
34.661
34.58
34.501
34.423
34.347
34.273
34.202
34.133
34.067
34.004
33.944
33.886
33.831
33.779
33.73
33.683
33.638
33.594
33.552
33.511
33.47
33.43
33.391
33.352
33.315
33.279
33.245
33.212
33.182
33.154
33.128
33.103
33.08
33.058
33.037
33.016
32.995
32.974
32.952
32.929
32.906
32.882
32.857
32.833
32.808
32.783
32.758
32.732
32.707
32.681
32.656
32.63
32.604
32.579
32.553
32.529
32.506
32.486
32.469
32.456
32.449
32.45
32.463
32.49
32.536
32.605
32.7
32.826
32.985
33.18
33.412
33.683
33.993
34.34
34.722
35.137
35.58
36.046
36.529
37.024
37.522
38.016
38.5
38.967
39.41
39.826
40.208
40.556
40.866
41.138
41.372
41.566
41.724
41.844
41.93
41.982
42.003
41.996
41.962
41.905
41.828
41.732
41.623
41.501
41.37
41.233
41.092
40.949
40.805
40.662
40.519
40.38
40.243
40.11
39.981
39.856
39.736
39.619
39.507
39.397
39.289
39.182
39.075
38.967
38.857
38.746
38.632
38.516
38.398
38.28
38.161
38.043
37.928
37.817
37.711
37.611
37.519
37.436
37.361
37.295
37.238
37.189
37.149
37.116
37.09
37.071
37.056
37.044
37.036
37.03
37.025
37.021
37.017
37.013
37.008
37.001
36.992
36.98
36.965
36.946
36.925
36.9
36.871
36.838
36.801
36.76
36.714
36.663
36.608
36.548
36.482
36.411
36.336
36.255
36.171
36.083
35.992
35.897
35.801
35.703
35.603
35.503
35.402
35.301
35.201
35.101
35.002
34.904
34.809
34.716
34.626
34.538
34.454
34.371
34.292
34.216
34.143
34.074
34.007
33.944
33.883
33.825
33.77
33.717
33.667
33.619
33.573
33.529
33.486
33.444
33.404
33.365
33.327
33.289
33.251
33.214
33.177
33.14
33.104
33.069
33.034
32.999
32.965
32.932
32.899
32.867
32.835
32.805
32.775
32.746
32.718
32.69
32.661
32.632
32.602
32.572
32.54
32.508
32.476
32.445
32.414
32.385
32.358
32.336
32.319
32.312
32.316
32.335
32.372
32.431
32.517
32.633
32.781
32.966
33.187
33.447
33.745
34.079
34.446
34.843
35.264
35.706
36.161
36.623
37.087
37.546
37.994
38.426
38.836
39.221
39.576
39.898
40.184
40.432
40.642
40.813
40.945
41.041
41.101
41.127
41.123
41.091
41.035
40.957
40.861
40.75
40.627
40.494
40.354
40.209
40.061
39.912
39.763
39.615
39.468
39.325
39.185
39.049
38.916
38.787
38.662
38.54
38.419
38.3
38.182
38.062
37.943
37.822
37.699
37.574
37.448
37.322
37.195
37.069
36.945
36.824
36.707
36.595
36.49
36.391
36.3
36.216
36.141
36.074
36.015
35.965
35.922
35.888
35.86
35.84
35.827
35.819
35.818
35.821
35.827
35.836
35.846
35.855
35.865
35.872
35.876
35.878
35.875
35.868
35.855
35.838
35.815
35.786
35.751
35.71
35.664
35.612
35.554
35.491
35.423
35.35
35.274
35.194
35.112
35.028
34.942
34.854
34.766
34.677
34.588
34.498
34.41
34.322
34.235
34.149
34.064
33.98
33.896
33.813
33.731
33.649
33.568
33.489
33.411
33.335
33.262
33.191
33.121
33.054
32.989
32.926
32.865
32.807
32.751
32.697
32.645
32.595
32.547
32.5
32.455
32.412
32.369
32.328
32.289
32.252
32.216
32.182
32.149
32.117
32.085
32.054
32.024
31.994
31.966
31.938
31.911
31.885
31.859
31.834
31.81
31.786
31.762
31.739
31.714
31.688
31.66
31.631
31.6
31.568
31.534
31.5
31.465
31.431
31.398
31.368
31.342
31.322
31.312
31.313
31.331
31.367
31.426
31.511
31.628
31.778
31.964
32.189
32.453
32.756
33.096
33.472
33.878
34.312
34.766
35.235
35.711
36.189
36.66
37.119
37.558
37.974
38.36
38.714
39.031
39.31
39.55
39.75
39.91
40.032
40.117
40.168
40.187
40.177
40.142
40.084
40.006
39.913
39.806
39.688
39.562
39.43
39.293
39.153
39.012
38.87
38.73
38.593
38.458
38.327
38.2
38.076
37.955
37.837
37.72
37.605
37.491
37.378
37.265
37.15
37.034
36.916
36.797
36.676
36.555
36.434
36.316
36.2
36.088
35.982
35.881
35.786
35.698
35.616
35.542
35.476
35.417
35.367
35.325
35.293
35.269
35.254
35.246
35.246
35.253
35.265
35.281
35.3
35.321
35.344
35.366
35.387
35.405
35.42
35.431
35.436
35.435
35.427
35.412
35.389
35.36
35.323
35.28
35.23
35.174
35.113
35.046
34.974
34.896
34.815
34.729
34.641
34.551
34.46
34.369
34.277
34.185
34.093
34.002
33.911
33.821
33.731
33.642
33.553
33.465
33.376
33.287
33.198
33.11
33.024
32.939
32.856
32.776
32.698
32.624
32.554
32.488
32.425
32.367
32.311
32.258
32.207
32.159
32.113
32.069
32.027
31.986
31.946
31.906
31.868
31.829
31.791
31.754
31.718
31.684
31.651
31.621
31.593
31.566
31.541
31.516
31.492
31.468
31.445
31.421
31.397
31.373
31.349
31.324
31.299
31.273
31.248
31.223
31.199
31.174
31.148
31.122
31.096
31.069
31.041
31.015
30.989
30.967
30.948
30.935
30.931
30.938
30.958
30.994
31.051
31.13
31.237
31.373
31.543
31.747
31.988
32.265
32.58
32.93
33.313
33.726
34.165
34.623
35.096
35.576
36.056
36.53
36.99
37.433
37.851
38.242
38.601
38.925
39.211
39.46
39.67
39.841
39.974
40.072
40.136
40.169
40.175
40.155
40.112
40.049
39.969
39.874
39.767
39.649
39.522
39.39
39.252
39.112
38.97
38.828
38.687
38.548
38.413
38.28
38.152
38.027
37.906
37.788
37.672
37.559
37.446
37.333
37.22
37.105
36.99
36.873
36.755
36.636
36.518
36.4
36.285
36.174
36.067
35.967
35.873
35.787
35.709
35.639
35.578
35.526
35.483
35.448
35.422
35.403
35.391
35.386
35.386
35.39
35.399
35.411
35.426
35.442
35.459
35.477
35.495
35.512
35.528
35.541
35.55
35.554
35.552
35.543
35.526
35.503
35.473
35.435
35.389
35.337
35.279
35.214
35.144
35.07
34.993
34.912
34.83
34.745
34.658
34.57
34.48
34.39
34.3
34.208
34.117
34.027
33.937
33.848
33.762
33.677
33.593
33.512
33.433
33.356
33.282
33.212
33.144
33.08
33.02
32.962
32.908
32.856
32.806
32.758
32.712
32.667
32.624
32.581
32.54
32.5
32.461
32.423
32.386
32.351
32.318
32.285
32.254
32.223
32.192
32.162
32.132
32.102
32.072
32.041
32.01
31.979
31.948
31.918
31.887
31.857
31.828
31.8
31.773
31.747
31.723
31.7
31.679
31.658
31.639
31.62
31.602
31.584
31.565
31.545
31.524
31.502
31.478
31.454
31.428
31.402
31.376
31.349
31.323
31.298
31.275
31.256
31.242
31.236
31.243
31.264
31.306
31.373
31.471
31.604
31.776
31.99
32.248
32.549
32.894
33.28
33.705
34.164
34.652
35.163
35.688
36.221
36.755
37.282
37.795
38.287
38.754
39.189
39.59
39.951
40.272
40.551
40.787
40.98
41.133
41.246
41.323
41.365
41.377
41.361
41.321
41.259
41.179
41.083
40.975
40.856
40.729
40.597
40.462
40.325
40.187
40.051
39.917
39.786
39.659
39.537
39.42
39.308
39.2
39.097
38.996
38.897
38.8
38.702
38.604
38.503
38.401
38.295
38.186
38.074
37.96
37.844
37.727
37.611
37.497
37.387
37.281
37.18
37.086
36.999
36.921
36.851
36.789
36.737
36.693
36.657
36.63
36.61
36.597
36.59
36.588
36.59
36.594
36.6
36.607
36.614
36.62
36.625
36.629
36.632
36.631
36.627
36.619
36.606
36.589
36.567
36.54
36.507
36.468
36.424
36.374
36.319
36.259
36.194
36.124
36.05
35.972
35.89
35.804
35.716
35.625
35.532
35.438
35.343
35.248
35.152
35.057
34.963
34.869
34.777
34.685
34.596
34.508
34.422
34.339
34.258
34.178
34.101
34.025
33.951
33.88
33.81
33.742
33.676
33.612
33.551
33.491
33.434
33.379
33.326
33.275
33.226
33.18
33.135
33.093
33.051
33.011
32.972
32.933
32.894
32.855
32.817
32.779
32.742
32.705
32.67
32.635
32.602
32.569
32.538
32.508
32.478
32.449
32.421
32.395
32.369
32.345
32.321
32.297
32.273
32.249
32.225
32.2
32.174
32.148
32.121
32.093
32.064
32.035
32.005
31.974
31.943
31.911
31.88
31.849
31.819
31.791
31.766
31.748
31.739
31.743
31.763
31.804
31.869
31.964
32.092
32.256
32.46
32.705
32.991
33.32
33.689
34.095
34.535
35.003
35.493
35.998
36.514
37.031
37.545
38.049
38.535
38.997
39.43
39.83
40.192
40.515
40.795
41.034
41.232
41.389
41.508
41.591
41.641
41.66
41.652
41.619
41.565
41.492
41.402
41.298
41.182
41.058
40.927
40.792
40.654
40.514
40.376
40.238
40.103
39.97
39.841
39.715
39.591
39.47
39.352
39.235
39.119
39.004
38.889
38.774
38.659
38.544
38.427
38.308
38.186
38.062
37.936
37.81
37.685
37.562
37.442
37.327
37.218
37.116
37.022
36.936
36.86
36.791
36.732
36.681
36.639
36.605
36.579
36.561
36.548
36.541
36.539
36.539
36.542
36.547
36.552
36.557
36.56
36.562
36.56
36.555
36.545
36.532
36.514
36.491
36.463
36.43
36.391
36.346
36.296
36.24
36.178
36.111
36.04
35.964
35.885
35.802
35.716
35.628
35.539
35.447
35.354
35.261
35.166
35.071
34.975
34.88
34.785
34.691
34.598
34.506
34.415
34.326
34.238
34.151
34.065
33.981
33.899
33.82
33.742
33.667
33.593
33.522
33.453
33.385
33.32
33.258
33.198
33.14
33.084
33.03
32.978
32.929
32.88
32.834
32.789
32.746
32.704
32.664
32.625
32.587
32.551
32.517
32.483
32.451
32.421
32.393
32.367
32.342
32.319
32.298
32.279
32.26
32.243
32.226
32.21
32.194
32.178
32.162
32.145
32.127
32.109
32.09
32.069
32.047
32.023
31.996
31.967
31.935
31.9
31.863
31.825
31.784
31.743
31.701
31.659
31.619
31.583
31.553
31.531
31.521
31.527
31.554
31.604
31.684
31.795
31.942
32.127
32.352
32.618
32.924
33.27
33.653
34.069
34.515
34.984
35.469
35.966
36.466
36.964
37.452
37.924
38.374
38.798
39.189
39.546
39.863
40.141
40.376
40.57
40.723
40.836
40.911
40.951
40.958
40.936
40.887
40.814
40.722
40.612
40.489
40.355
40.212
40.063
39.909
39.753
39.595
39.437
39.281
39.126
38.974
38.824
38.676
38.53
38.387
38.245
38.106
37.967
37.83
37.692
37.555
37.417
37.278
37.139
36.999
36.859
36.721
36.585
36.452
36.324
36.202
36.087
35.979
35.88
35.79
35.71
35.639
35.579
35.528
35.486
35.454
35.429
35.412
35.401
35.396
35.397
35.402
35.411
35.423
35.437
35.452
35.468
35.485
35.5
35.514
35.525
35.532
35.536
35.535
35.528
35.517
35.499
35.476
35.446
35.41
35.368
35.319
35.265
35.205
35.141
35.072
34.998
34.92
34.838
34.752
34.663
34.571
34.477
34.381
34.285
34.188
34.092
33.996
33.901
33.807
33.715
33.625
33.536
33.45
33.365
33.281
33.199
33.119
33.04
32.964
32.89
32.818
32.749
32.682
32.617
32.554
32.494
32.436
32.381
32.328
32.278
32.23
32.184
32.139
32.096
32.054
32.012
31.972
31.933
31.894
31.856
31.819
31.783
31.748
31.715
31.683
31.652
31.623
31.595
31.568
31.542
31.516
31.49
31.464
31.438
31.412
31.387
31.361
31.336
31.311
31.286
31.262
31.238
31.214
31.19
31.168
31.146
31.125
31.104
31.085
31.065
31.045
31.025
31.004
30.981
30.958
30.935
30.912
30.892
30.875
30.866
30.866
30.879
30.91
30.962
31.041
31.15
31.294
31.475
31.698
31.963
32.27
32.62
33.01
33.436
33.896
34.384
34.895
35.422
35.959
36.497
37.03
37.55
38.05
38.526
38.971
39.38
39.751
40.08
40.366
40.607
40.805
40.961
41.075
41.152
41.193
41.202
41.182
41.137
41.071
40.986
40.885
40.771
40.645
40.51
40.367
40.219
40.066
39.911
39.754
39.597
39.441
39.287
39.136
38.987
38.843
38.702
38.566
38.433
38.304
38.179
38.056
37.936
37.816
37.697
37.577
37.457
37.337
37.216
37.096
36.976
36.857
36.741
36.629
36.521
36.419
36.324
36.236
36.156
36.084
36.021
35.966
35.919
35.879
35.847
35.822
35.804
35.792
35.786
35.784
35.787
35.792
35.801
35.81
35.821
35.831
35.84
35.847
35.852
35.854
35.852
35.846
35.834
35.817
35.795
35.767
35.734
35.694
35.648
35.594
35.533
35.465
35.39
35.308
35.221
35.129
35.033
34.933
34.83
34.725
34.619
34.512
34.405
34.299
34.195
34.092
33.991
33.893
33.796
33.702
33.611
33.522
33.436
33.353
33.272
33.194
33.117
33.041
32.968
32.895
32.823
32.752
32.682
32.613
32.545
32.48
32.416
32.355
32.297
32.241
32.188
32.139
32.092
32.048
32.007
31.968
31.93
31.894
31.859
31.825
31.792
31.76
31.73
31.701
31.673
31.646
31.62
31.594
31.569
31.544
31.519
31.494
31.468
31.442
31.417
31.391
31.366
31.341
31.317
31.293
31.27
31.247
31.226
31.204
31.183
31.161
31.138
31.114
31.09
31.066
31.042
31.019
30.999
30.984
30.976
30.978
30.993
31.025
31.078
31.157
31.266
31.409
31.589
31.809
32.07
32.374
32.719
33.103
33.523
33.976
34.455
34.954
35.468
35.989
36.51
37.024
37.525
38.006
38.462
38.887
39.28
39.635
39.952
40.229
40.465
40.661
40.818
40.936
41.019
41.068
41.085
41.074
41.038
40.978
40.897
40.799
40.684
40.557
40.418
40.272
40.118
39.961
39.8
39.638
39.476
39.315
39.156
38.999
38.846
38.696
38.549
38.406
38.266
38.129
37.994
37.861
37.729
37.598
37.467
37.336
37.205
37.074
36.944
36.815
36.687
36.561
36.439
36.32
36.206
36.098
35.997
35.905
35.822
35.749
35.685
35.63
35.585
35.55
35.523
35.504
35.493
35.489
35.49
35.497
35.507
35.521
35.537
35.554
35.572
35.588
35.603
35.615
35.625
35.63
35.631
35.627
35.617
35.602
35.581
35.554
35.522
35.484
35.44
35.39
35.334
35.273
35.205
35.133
35.056
34.975
34.89
34.801
34.711
34.618
34.524
34.428
34.332
34.236
34.141
34.046
33.953
33.86
33.77
33.681
33.594
33.509
33.426
33.345
33.266
33.189
33.112
33.036
32.962
32.888
32.816
32.745
32.676
32.609
32.544
32.481
32.421
32.364
32.309
32.257
32.207
32.161
32.117
32.076
32.038
32.003
31.97
31.938
31.907
31.876
31.845
31.813
31.781
31.749
31.717
31.685
31.653
31.621
31.589
31.559
31.529
31.501
31.473
31.448
31.423
31.401
31.381
31.363
31.345
31.329
31.313
31.296
31.28
31.263
31.246
31.227
31.209
31.189
31.168
31.147
31.124
31.102
31.078
31.055
31.033
31.012
30.994
30.982
30.978
30.986
31.01
31.052
31.119
31.213
31.34
31.503
31.704
31.947
32.231
32.557
32.924
33.33
33.772
34.244
34.742
35.258
35.786
36.319
36.849
37.371
37.876
38.359
38.814
39.238
39.625
39.975
40.284
40.552
40.778
40.962
41.105
41.21
41.276
41.308
41.307
41.276
41.219
41.138
41.036
40.918
40.784
40.64
40.486
40.326
40.161
39.993
39.823
39.653
39.484
39.316
39.15
38.988
38.827
38.67
38.516
38.363
38.214
38.065
37.918
37.771
37.625
37.479
37.335
37.192
37.05
36.911
36.775
36.643
36.515
36.393
36.277
36.168
36.067
35.973
35.888
35.813
35.747
35.69
35.643
35.605
35.576
35.555
35.541
35.535
35.535
35.542
35.555
35.572
35.593
35.617
35.642
35.666
35.69
35.712
35.732
35.748
35.761
35.77
35.774
35.773
35.768
35.756
35.739
35.715
35.685
35.648
35.604
35.554
35.497
35.433
35.363
35.288
35.207
35.12
35.029
34.934
34.836
34.737
34.637
34.536
34.434
34.333
34.233
34.134
34.037
33.942
33.85
33.76
33.673
33.588
33.505
33.424
33.346
33.268
33.192
33.117
33.044
32.973
32.903
32.836
32.771
32.709
32.65
32.594
32.542
32.493
32.446
32.401
32.358
32.316
32.274
32.234
32.194
32.155
32.117
32.08
32.045
32.01
31.978
31.946
31.916
31.888
31.861
31.837
31.814
31.793
31.774
31.756
31.739
31.723
31.707
31.691
31.676
31.661
31.646
31.63
31.614
31.598
31.581
31.563
31.545
31.525
31.504
31.482
31.46
31.438
31.416
31.396
31.377
31.361
31.348
31.341
31.34
31.35
31.373
31.414
31.475
31.563
31.68
31.83
32.017
32.243
32.51
32.818
33.165
33.551
33.972
34.423
34.901
35.4
35.912
36.433
36.953
37.467
37.968
38.449
38.904
39.331
39.723
40.079
40.397
40.674
40.91
41.106
41.262
41.38
41.461
41.509
41.524
41.511
41.473
41.411
41.329
41.23
41.116
40.989
40.851
40.705
40.551
40.393
40.231
40.067
39.904
39.741
39.581
39.423
39.27
39.12
38.974
38.831
38.691
38.554
38.419
38.284
38.15
38.015
37.879
37.743
37.606
37.469
37.332
37.196
37.064
36.934
36.81
36.691
36.579
36.475
36.38
36.294
36.219
36.154
36.1
36.056
36.021
35.996
35.979
35.97
35.968
35.971
35.98
35.993
36.01
36.029
36.05
36.072
36.094
36.114
36.132
36.147
36.158
36.165
36.167
36.163
36.153
36.137
36.116
36.088
36.054
36.014
35.968
35.917
35.861
35.799
35.732
35.66
35.584
35.504
35.421
35.334
35.246
35.155
35.063
34.971
34.88
34.788
34.698
34.608
34.52
34.432
34.345
34.259
34.174
34.09
34.009
33.929
33.85
33.773
33.698
33.624
33.552
33.48
33.41
33.341
33.273
33.206
33.141
33.077
33.015
32.955
32.897
32.841
32.789
32.738
32.691
32.645
32.602
32.56
32.521
32.483
32.446
32.41
32.375
32.341
32.307
32.274
32.241
32.21
32.179
32.148
32.119
32.09
32.064
32.038
32.015
31.992
31.97
31.949
31.927
31.905
31.882
31.858
31.833
31.807
31.779
31.751
31.722
31.694
31.667
31.643
31.623
31.609
31.604
31.611
31.632
31.673
31.738
31.831
31.956
32.117
32.317
32.559
32.843
33.169
33.536
33.941
34.379
34.846
35.337
35.844
36.361
36.881
37.398
37.903
38.391
38.855
39.29
39.693
40.059
40.386
40.674
40.921
41.128
41.295
41.424
41.515
41.572
41.597
41.593
41.562
41.508
41.433
41.34
41.231
41.11
40.979
40.839
40.693
40.542
40.387
40.231
40.074
39.917
39.761
39.607
39.456
39.308
39.164
39.022
38.882
38.744
38.607
38.47
38.333
38.195
38.057
37.918
37.778
37.638
37.499
37.361
37.226
37.095
36.968
36.847
36.734
36.63
36.537
36.454
36.385
36.327
36.282
36.25
36.229
36.219
36.22
36.229
36.246
36.269
36.296
36.325
36.355
36.386
36.416
36.444
36.47
36.493
36.513
36.528
36.538
36.543
36.542
36.534
36.52
36.499
36.471
36.436
36.394
36.346
36.29
36.229
36.161
36.087
36.007
35.923
35.834
35.742
35.648
35.553
35.455
35.356
35.256
35.156
35.056
34.957
34.861
34.767
34.676
34.587
34.501
34.418
34.336
34.256
34.178
34.1
34.022
33.946
33.869
33.793
33.717
33.642
33.568
33.495
33.423
33.353
33.285
33.218
33.154
33.093
33.034
32.978
32.924
32.873
32.826
32.78
32.738
32.698
32.66
32.624
32.589
32.555
32.523
32.491
32.46
32.43
32.399
32.368
32.337
32.306
32.275
32.243
32.211
32.178
32.144
32.11
32.074
32.038
32.001
31.963
31.927
31.892
31.862
31.837
31.82
31.815
31.824
31.853
31.905
31.983
32.092
32.235
32.415
32.632
32.887
33.18
33.509
33.872
34.265
34.684
35.123
35.577
36.041
36.507
36.969
37.421
37.857
38.273
38.663
39.022
39.349
39.64
39.894
40.109
40.287
40.426
40.53
40.598
40.634
40.64
40.619
40.574
40.508
40.425
40.327
40.216
40.094
39.964
39.827
39.686
39.541
39.393
39.245
39.095
38.945
38.796
38.647
38.499
38.353
38.208
38.065
37.922
37.78
37.638
37.496
37.354
37.213
37.072
36.932
36.794
36.658
36.525
36.395
36.269
36.149
36.036
35.93
35.833
35.744
35.665
35.596
35.536
35.487
35.446
35.415
35.393
35.379
35.373
35.374
35.38
35.391
35.407
35.424
35.444
35.465
35.485
35.504
35.521
35.534
35.543
35.548
35.548
35.542
35.531
35.515
35.492
35.464
35.429
35.388
35.34
35.286
35.227
35.163
35.095
35.023
34.947
34.869
34.788
34.704
34.618
34.531
34.442
34.354
34.265
34.177
34.089
34.003
33.917
33.833
33.75
33.668
33.588
33.51
33.433
33.358
33.284
33.211
33.141
33.071
33.004
32.939
32.875
32.813
32.753
32.694
32.636
32.579
32.523
32.469
32.416
32.366
32.317
32.271
32.228
32.187
32.148
32.111
32.077
32.045
32.014
31.985
31.955
31.926
31.896
31.866
31.837
31.807
31.778
31.748
31.719
31.689
31.659
31.629
31.599
31.567
31.536
31.504
31.473
31.441
31.411
