Trial 3:3back
33.927
33.918
33.91
33.904
33.899
33.897
33.896
33.895
33.894
33.893
33.892
33.89
33.887
33.886
33.886
33.889
33.897
33.911
33.932
33.958
33.989
34.027
34.07
34.119
34.176
34.241
34.316
34.4
34.494
34.597
34.709
34.828
34.954
35.084
35.215
35.347
35.477
35.604
35.727
35.846
35.959
36.066
36.167
36.26
36.346
36.425
36.495
36.556
36.608
36.65
36.683
36.707
36.724
36.734
36.739
36.739
36.735
36.727
36.716
36.703
36.686
36.667
36.644
36.619
36.591
36.562
36.533
36.504
36.476
36.448
36.421
36.395
36.367
36.339
36.308
36.275
36.24
36.203
36.164
36.124
36.084
36.046
36.008
35.972
35.937
35.904
35.873
35.843
35.814
35.787
35.76
35.735
35.711
35.69
35.672
35.657
35.645
35.636
35.631
35.629
35.631
35.636
35.644
35.654
35.664
35.675
35.685
35.693
35.7
35.705
35.708
35.708
35.705
35.698
35.686
35.669
35.647
35.621
35.591
35.558
35.524
35.489
35.454
35.42
35.387
35.354
35.322
35.29
35.26
35.23
35.202
35.175
35.15
35.125
35.102
35.078
35.055
35.031
35.005
34.977
34.946
34.913
34.877
34.838
34.796
34.752
34.706
34.659
34.611
34.563
34.516
34.47
34.425
34.381
34.337
34.296
34.258
34.224
34.194
34.169
34.147
34.129
34.114
34.103
34.094
34.087
34.082
34.077
34.073
34.069
34.066
34.063
34.059
34.055
34.05
34.044
34.037
34.031
34.024
34.018
34.01
34.002
33.991
33.98
33.967
33.952
33.936
33.918
33.9
33.883
33.868
33.855
33.846
33.84
33.838
33.842
33.851
33.867
33.892
33.927
33.971
34.028
34.096
34.178
34.274
34.382
34.502
34.631
34.768
34.909
35.055
35.203
35.351
35.497
35.638
35.773
35.902
36.024
36.138
36.244
36.341
36.428
36.506
36.575
36.636
36.689
36.735
36.774
36.807
36.834
36.855
36.871
36.882
36.887
36.886
36.881
36.871
36.859
36.845
36.83
36.813
36.794
36.774
36.753
36.73
36.707
36.682
36.655
36.626
36.595
36.563
36.529
36.493
36.455
36.414
36.372
36.328
36.282
36.236
36.19
36.144
36.1
36.058
36.018
35.981
35.945
35.913
35.883
35.856
35.831
35.808
35.786
35.768
35.753
35.742
35.734
35.729
35.726
35.726
35.726
35.726
35.725
35.724
35.721
35.716
35.71
35.701
35.692
35.682
35.672
35.662
35.649
35.635
35.618
35.6
35.579
35.556
35.531
35.503
35.475
35.447
35.419
35.392
35.364
35.335
35.304
35.271
35.236
35.199
35.159
35.118
35.076
35.033
34.991
34.95
34.912
34.876
34.841
34.807
34.775
34.745
34.715
34.685
34.654
34.622
34.59
34.56
34.533
34.509
34.488
34.47
34.454
34.439
34.424
34.411
34.398
34.385
34.371
34.357
34.342
34.327
34.311
34.295
34.279
34.263
34.247
34.23
34.213
34.197
34.182
34.169
34.156
34.143
34.131
34.118
34.105
34.09
34.073
34.055
34.034
34.01
33.985
33.959
33.931
33.904
33.875
33.846
33.818
33.791
33.768
33.747
33.73
33.717
33.708
33.704
33.704
33.71
33.722
33.741
33.768
33.803
33.847
33.903
33.97
34.049
34.141
34.244
34.358
34.482
34.615
34.755
34.902
35.052
35.205
35.359
35.513
35.667
35.817
35.963
36.103
36.234
36.357
36.471
36.576
36.67
36.753
36.826
36.89
36.944
36.989
37.027
37.058
37.082
37.099
37.11
37.116
37.116
37.111
37.102
37.091
37.076
37.057
37.034
37.008
36.981
36.952
36.922
36.892
36.863
36.834
36.807
36.781
36.757
36.734
36.712
36.689
36.665
36.639
36.612
36.584
36.554
36.522
36.487
36.45
36.41
36.369
36.325
36.28
36.234
36.186
36.138
36.09
36.044
36.001
35.962
35.927
35.896
35.871
35.852
35.838
35.829
35.823
35.82
35.819
35.82
35.822
35.825
35.829
35.832
35.834
35.835
35.835
35.832
35.828
35.821
35.811
35.798
35.78
35.759
35.734
35.705
35.674
35.639
35.601
35.562
35.521
35.48
35.439
35.398
35.358
35.32
35.283
35.248
35.216
35.186
35.158
35.133
35.11
35.088
35.066
35.044
35.021
34.996
34.969
34.941
34.909
34.877
34.842
34.807
34.771
34.734
34.698
34.663
34.629
34.595
34.562
34.529
34.497
34.464
34.431
34.397
34.362
34.327
34.293
34.26
34.229
34.2
34.174
34.15
34.128
34.108
34.089
34.07
34.051
34.03
34.008
33.984
33.958
33.931
33.903
33.875
33.849
33.825
33.803
33.783
33.764
33.748
33.734
33.721
33.71
33.699
33.689
33.681
33.674
33.668
33.666
33.667
33.672
33.681
33.695
33.716
33.745
33.782
33.828
33.884
33.949
34.024
34.108
34.202
34.306
34.419
34.539
34.667
34.802
34.943
35.089
35.239
35.389
35.538
35.684
35.826
35.963
36.094
36.218
36.334
36.441
36.541
36.631
36.712
36.783
36.845
36.898
36.942
36.979
37.007
37.028
37.042
37.049
37.051
37.046
37.036
37.021
37.002
36.98
36.957
36.931
36.904
36.875
36.843
36.811
36.776
36.74
36.702
36.662
36.621
36.577
36.532
36.487
36.442
36.397
36.352
36.307
36.262
36.216
36.171
36.125
36.078
36.032
35.985
35.939
35.893
35.85
35.81
35.774
35.739
35.703
35.661
35.616
35.568
35.52
35.475
35.437
35.409
35.393
35.389
35.396
35.414
35.44
35.473
35.51
35.55
35.59
35.628
35.662
35.692
35.717
35.736
35.749
35.756
35.758
35.754
35.744
35.728
35.708
35.684
35.657
35.627
35.595
35.562
35.528
35.493
35.459
35.426
35.392
35.36
35.328
35.296
35.264
35.233
35.202
35.17
35.139
35.107
35.073
35.038
35.001
34.964
34.926
34.887
34.847
34.806
34.765
34.724
34.683
34.642
34.601
34.56
34.52
34.482
34.447
34.414
34.386
34.36
34.337
34.316
34.296
34.277
34.259
34.239
34.218
34.197
34.175
34.154
34.134
34.116
34.098
34.082
34.066
34.052
34.038
34.024
34.011
33.997
33.983
33.967
33.952
33.937
33.923
33.911
33.901
33.892
33.885
33.881
33.881
33.885
33.894
33.91
33.94
33.985
34.046
34.123
34.212
34.313
34.421
34.534
34.649
34.764
34.88
34.994
35.107
35.218
35.328
35.436
35.543
35.649
35.754
35.858
35.959
36.057
36.15
36.24
36.323
36.401
36.473
36.537
36.595
36.645
36.689
36.726
36.756
36.78
36.798
36.811
36.816
36.816
36.81
36.799
36.785
36.767
36.746
36.72
36.692
36.66
36.625
36.587
36.545
36.5
36.451
36.401
36.35
36.3
36.251
36.204
36.158
36.113
36.068
36.024
35.979
35.935
35.89
35.845
35.801
35.76
35.721
35.685
35.652
35.623
35.597
35.575
35.556
35.541
35.527
35.516
35.505
35.496
35.489
35.484
35.482
35.481
35.483
35.486
35.489
35.493
35.497
35.499
35.499
35.497
35.494
35.489
35.484
35.48
35.477
35.474
35.472
35.47
35.466
35.461
35.455
35.445
35.433
35.416
35.396
35.372
35.345
35.314
35.28
35.241
35.199
35.155
35.11
35.063
35.016
34.97
34.924
34.879
34.835
34.792
34.752
34.714
34.68
34.648
34.619
34.591
34.565
34.538
34.512
34.485
34.456
34.427
34.396
34.365
34.333
34.302
34.271
34.242
34.213
34.185
34.158
34.132
34.108
34.085
34.063
34.042
34.024
34.009
33.996
33.986
33.978
33.971
33.964
33.959
33.954
33.951
33.947
33.943
33.938
33.931
33.924
33.915
33.904
33.892
33.879
33.868
33.857
33.85
33.848
33.852
33.861
33.878
33.902
33.935
33.978
34.032
34.097
34.174
34.264
34.365
34.478
34.602
34.733
34.87
35.013
35.157
35.301
35.443
35.583
35.718
35.849
35.974
36.093
36.203
36.306
36.399
36.484
36.558
36.623
36.679
36.726
36.766
36.798
36.824
36.845
36.859
36.868
36.871
36.867
36.858
36.843
36.823
36.8
36.773
36.745
36.715
36.686
36.657
36.629
36.601
36.573
36.544
36.515
36.486
36.456
36.426
36.394
36.361
36.326
36.288
36.249
36.208
36.165
36.121
36.076
36.031
35.986
35.942
35.898
35.857
35.817
35.781
35.748
35.72
35.697
35.679
35.666
35.656
35.649
35.644
35.639
35.637
35.635
35.633
35.63
35.627
35.623
35.617
35.61
35.602
35.592
35.581
35.569
35.555
35.541
35.526
35.512
35.498
35.485
35.471
35.456
35.44
35.423
35.403
35.382
35.358
35.333
35.306
35.28
35.255
35.231
35.208
35.186
35.164
35.143
35.122
35.1
35.076
35.051
35.024
34.995
34.966
34.936
34.906
34.876
34.847
34.818
34.788
34.758
34.728
34.699
34.671
34.643
34.617
34.592
34.57
34.551
34.534
34.519
34.505
34.492
34.479
34.466
34.453
34.439
34.424
34.407
34.389
34.369
34.348
34.327
34.305
34.282
34.258
34.232
34.206
34.18
34.155
34.132
34.111
34.092
34.076
34.062
34.049
34.037
34.026
34.015
34.005
33.994
33.985
33.979
33.976
33.978
33.983
33.993
34.01
34.033
34.064
34.105
34.156
34.218
34.291
34.375
34.47
34.575
34.689
34.811
34.94
35.073
35.21
35.348
35.487
35.626
35.764
35.9
36.031
36.158
36.279
36.395
36.503
36.603
36.695
36.779
36.854
36.922
36.982
37.033
37.077
37.113
37.142
37.164
37.178
37.186
37.188
37.184
37.175
37.162
37.145
37.124
37.1
37.073
37.045
37.017
36.987
36.958
36.929
36.902
36.876
36.851
36.826
36.801
36.776
36.751
36.725
36.698
36.668
36.636
36.601
36.564
36.525
36.484
36.444
36.403
36.361
36.32
36.278
36.237
36.199
36.163
36.13
36.099
36.071
36.045
36.022
36.003
35.988
35.976
35.968
35.961
35.956
35.953
35.952
35.953
35.954
35.952
35.943
35.927
35.904
35.876
35.845
35.814
35.784
35.756
35.73
35.709
35.691
35.676
35.664
35.654
35.645
35.635
35.626
35.614
35.6
35.582
35.56
35.535
35.507
35.476
35.444
35.409
35.373
35.335
35.297
35.259
35.221
35.185
35.15
35.117
35.085
35.055
35.028
35.003
34.979
34.956
34.933
34.909
34.885
34.86
34.836
34.812
34.787
34.764
34.74
34.717
34.694
34.671
34.647
34.622
34.596
34.569
34.542
34.514
34.487
34.463
34.439
34.417
34.397
34.377
34.358
34.338
34.317
34.294
34.27
34.245
34.219
34.193
34.168
34.144
34.121
34.099
34.079
34.061
34.045
34.033
34.023
34.018
34.017
34.022
34.033
34.052
34.077
34.109
34.149
34.195
34.25
34.315
34.389
34.471
34.563
34.662
34.77
34.886
35.009
35.138
35.274
35.413
35.556
35.7
35.845
35.989
36.13
36.267
36.396
36.516
36.627
36.727
36.816
36.895
36.963
37.019
37.067
37.105
37.135
37.156
37.17
37.177
37.178
37.173
37.162
37.148
37.13
37.11
37.09
37.069
37.049
37.029
37.01
36.992
36.974
36.958
36.941
36.924
36.906
36.886
36.866
36.843
36.819
36.791
36.762
36.73
36.695
36.66
36.623
36.584
36.544
36.503
36.461
36.418
36.374
36.331
36.289
36.247
36.205
36.164
36.124
36.087
36.053
36.024
35.999
35.978
35.961
35.949
35.94
35.935
35.932
35.931
35.931
35.932
35.935
35.938
35.942
35.945
35.946
35.946
35.942
35.937
35.928
35.916
35.901
35.882
35.86
35.833
35.804
35.773
35.741
35.707
35.672
35.637
35.601
35.566
35.533
35.5
35.468
35.437
35.407
35.379
35.353
35.328
35.303
35.28
35.257
35.235
35.214
35.193
35.173
35.152
35.13
35.106
35.08
35.052
35.024
34.995
34.966
34.937
34.908
34.879
34.853
34.827
34.803
34.781
34.761
34.741
34.723
34.704
34.686
34.667
34.649
34.632
34.615
34.6
34.585
34.572
34.56
34.547
34.533
34.517
34.501
34.484
34.466
34.449
34.431
34.414
34.398
34.381
34.365
34.348
34.329
34.31
34.288
34.267
34.245
34.224
34.205
34.19
34.179
34.174
34.175
34.183
34.2
34.225
34.261
34.307
34.363
34.432
34.514
34.608
34.715
34.833
34.961
35.098
35.241
35.39
35.542
35.695
35.846
35.994
36.136
36.272
36.4
36.52
36.632
36.735
36.828
36.91
36.981
37.043
37.095
37.139
37.176
37.207
37.232
37.254
37.271
37.286
37.296
37.303
37.304
37.301
37.293
37.281
37.264
37.244
37.221
37.194
37.166
37.137
37.106
37.074
37.041
37.006
36.968
36.928
36.885
36.841
36.795
36.749
36.703
36.658
36.614
36.571
36.53
36.491
36.454
36.418
36.382
36.349
36.318
36.289
36.263
36.241
36.221
36.204
36.189
36.176
36.165
36.155
36.147
36.144
36.148
36.159
36.174
36.193
36.213
36.233
36.248
36.257
36.259
36.252
36.238
36.215
36.186
36.151
36.112
36.07
36.027
35.984
35.941
35.899
35.858
35.819
35.781
35.745
35.709
35.675
35.642
35.609
35.577
35.544
35.511
35.477
35.442
35.406
35.37
35.333
35.297
35.26
35.224
35.186
35.149
35.112
35.075
35.04
35.007
34.977
34.949
34.923
34.899
34.877
34.855
34.835
34.815
34.796
34.777
34.757
34.738
34.719
34.7
34.682
34.664
34.645
34.627
34.608
34.588
34.567
34.545
34.522
34.5
34.477
34.454
34.431
34.41
34.389
34.37
34.352
34.333
34.315
34.298
34.282
34.267
34.251
34.236
34.22
34.203
34.186
34.168
34.15
34.134
34.121
34.11
34.103
34.102
34.108
34.121
34.144
34.175
34.218
34.272
34.339
34.417
34.508
34.61
34.722
34.843
34.971
35.104
35.24
35.378
35.517
35.655
35.789
35.921
36.047
36.167
36.281
36.386
36.483
36.57
36.647
36.713
36.769
36.815
36.852
36.881
36.902
36.919
36.935
36.95
36.963
36.975
36.983
36.988
36.987
36.98
36.967
36.95
36.928
36.903
36.876
36.848
36.82
36.792
36.762
36.731
36.699
36.666
36.631
36.595
36.558
36.52
36.48
36.438
36.395
36.352
36.309
36.265
36.221
36.177
36.135
36.094
36.055
36.019
35.986
35.957
35.931
35.908
35.888
35.872
35.859
35.849
35.84
35.83
35.82
35.81
35.8
35.789
35.778
35.767
35.755
35.743
35.732
35.719
35.706
35.692
35.676
35.658
35.638
35.617
35.595
35.572
35.548
35.524
35.498
35.472
35.443
35.414
35.383
35.35
35.316
35.28
35.245
35.21
35.176
35.145
35.116
35.09
35.065
35.041
35.019
34.996
34.973
34.949
34.923
34.896
34.867
34.837
34.806
34.775
34.745
34.716
34.689
34.663
34.639
34.615
34.593
34.571
34.55
34.53
34.51
34.49
34.471
34.452
34.433
34.414
34.396
34.377
34.359
34.342
34.324
34.306
34.287
34.267
34.246
34.224
34.201
34.176
34.151
34.125
34.099
34.073
34.046
34.02
33.995
33.971
33.948
33.928
33.911
33.897
33.886
33.879
33.876
33.875
33.878
33.883
33.89
33.898
33.907
33.916
33.925
33.934
33.945
33.957
33.972
33.991
34.015
34.045
34.082
34.127
34.181
34.243
34.314
34.394
34.482
34.579
34.684
34.796
34.915
35.038
35.165
35.293
35.422
35.55
35.674
35.795
35.911
36.022
36.127
36.226
36.319
36.404
36.482
36.553
36.616
36.67
36.716
36.755
36.787
36.812
36.83
36.843
36.852
36.856
36.857
36.854
36.846
36.836
36.822
36.806
36.788
36.77
36.752
36.733
36.716
36.698
36.681
36.665
36.648
36.631
36.613
36.593
36.57
36.545
36.517
36.487
36.455
36.421
36.385
36.347
36.31
36.272
36.234
36.196
36.158
36.119
36.079
36.04
36.002
35.966
35.934
35.906
35.88
35.858
35.839
35.822
35.808
35.797
35.787
35.778
35.77
35.765
35.76
35.757
35.754
35.751
35.748
35.743
35.736
35.727
35.714
35.698
35.677
35.653
35.627
35.599
35.569
35.539
35.508
35.476
35.444
35.412
35.378
35.344
35.309
35.272
35.234
35.195
35.156
35.118
35.08
35.043
35.008
34.973
34.939
34.907
34.876
34.845
34.816
34.786
34.758
34.73
34.704
34.68
34.656
34.634
34.614
34.594
34.576
34.56
34.545
34.531
34.517
34.503
34.489
34.475
34.461
34.446
34.431
34.417
34.402
34.388
34.374
34.361
34.35
34.338
34.325
34.311
34.294
34.277
34.259
34.24
34.221
34.202
34.183
34.165
34.148
34.13
34.113
34.094
34.075
34.055
34.036
34.017
33.999
33.982
33.966
33.949
33.933
33.916
33.9
33.884
33.868
33.853
33.838
33.823
33.809
33.796
33.783
33.772
33.762
33.754
33.751
33.754
33.765
33.785
33.816
33.857
33.908
33.97
34.043
34.125
34.217
34.316
34.421
34.533
34.649
34.769
34.894
35.023
35.153
35.283
35.412
35.538
35.661
35.778
35.89
35.995
36.094
36.186
36.27
36.346
36.413
36.473
36.523
36.564
36.597
36.621
36.638
36.65
36.657
36.66
36.658
36.652
36.643
36.63
36.615
36.597
36.577
36.554
36.531
36.507
36.484
36.462
36.442
36.423
36.407
36.392
36.377
36.362
36.347
36.33
36.31
36.287
36.26
36.229
36.194
36.157
36.116
36.073
36.029
35.984
35.938
35.893
35.85
35.807
35.767
35.73
35.695
35.664
35.637
35.615
35.597
35.584
35.574
35.568
35.564
35.561
35.559
35.557
35.556
35.555
35.554
35.554
35.554
35.554
35.553
35.551
35.546
35.539
35.528
35.513
35.496
35.476
35.454
35.43
35.406
35.381
35.357
35.334
35.31
35.286
35.26
35.232
35.204
35.175
35.146
35.117
35.087
35.058
35.029
35.0
34.972
34.944
34.916
34.887
34.858
34.83
34.803
34.777
34.751
34.725
34.698
34.671
34.643
34.614
34.586
34.557
34.527
34.496
34.465
34.434
34.403
34.371
34.34
34.309
34.279
34.251
34.224
34.2
34.179
34.161
34.145
34.132
34.121
34.113
34.107
34.105
34.104
34.106
34.109
34.113
34.119
34.125
34.131
34.136
34.138
34.136
34.13
34.119
34.105
34.086
34.064
34.04
34.015
33.991
33.968
33.947
33.928
33.912
33.896
33.881
33.866
33.853
33.839
33.826
33.812
33.797
33.782
33.765
33.748
33.732
33.717
33.704
33.693
33.685
33.682
33.684
33.693
33.709
33.734
33.767
33.81
33.863
33.926
34.001
34.086
34.181
34.285
34.398
34.517
34.643
34.772
34.904
35.036
35.168
35.298
35.426
35.552
35.675
35.793
35.905
36.01
36.108
36.198
36.279
36.351
36.413
36.467
36.513
36.552
36.584
36.612
36.633
36.65
36.66
36.665
36.664
36.659
36.648
36.633
36.612
36.588
36.562
36.534
36.506
36.479
36.453
36.428
36.403
36.38
36.357
36.334
36.31
36.285
36.257
36.228
36.198
36.166
36.135
36.102
36.069
36.036
36.004
35.972
35.941
35.911
35.881
35.851
35.822
35.793
35.765
35.739
35.715
35.692
35.671
35.653
35.636
35.621
35.608
35.596
35.586
35.578
35.571
35.567
35.563
35.561
35.56
35.559
35.558
35.558
35.559
35.56
35.559
35.553
35.54
35.518
35.489
35.456
35.422
35.389
35.358
35.33
35.306
35.287
35.272
35.261
35.252
35.244
35.237
35.229
35.219
35.207
35.191
35.172
35.151
35.126
35.1
35.072
35.043
35.015
34.987
34.96
34.933
34.906
34.88
34.854
34.828
34.801
34.774
34.746
34.718
34.69
34.662
34.636
34.611
34.586
34.56
34.534
34.506
34.477
34.449
34.42
34.393
34.366
34.341
34.317
34.295
34.274
34.254
34.234
34.215
34.196
34.178
34.16
34.143
34.127
34.112
34.099
34.086
34.076
34.067
34.06
34.054
34.05
34.046
34.043
34.041
34.038
34.034
34.027
34.018
34.007
33.995
33.984
33.974
33.967
33.963
33.966
33.976
33.993
34.018
34.052
34.095
34.147
34.208
34.278
34.358
34.448
34.547
34.656
34.771
34.893
35.018
35.146
35.273
35.399
35.521
35.639
35.749
35.854
35.952
36.044
36.128
36.205
36.273
36.331
36.38
36.419
36.449
36.471
36.486
36.494
36.497
36.495
36.49
36.483
36.475
36.465
36.453
36.441
36.429
36.416
36.403
36.39
36.377
36.364
36.351
36.338
36.325
36.311
36.297
36.282
36.266
36.247
36.226
36.204
36.181
36.157
36.132
36.104
36.073
36.041
36.008
35.975
35.942
35.908
35.875
35.84
35.805
35.772
35.74
35.711
35.686
35.664
35.645
35.629
35.615
35.604
35.596
35.589
35.585
35.582
35.58
35.58
35.581
35.581
35.581
35.579
35.574
35.567
35.557
35.543
35.527
35.508
35.486
35.462
35.438
35.413
35.389
35.365
35.341
35.318
35.294
35.27
35.247
35.223
35.199
35.175
35.15
35.124
35.097
35.07
35.042
35.014
34.983
34.952
34.919
34.887
34.856
34.826
34.798
34.772
34.75
34.729
34.711
34.696
34.682
34.669
34.655
34.641
34.626
34.609
34.591
34.572
34.551
34.528
34.504
34.478
34.452
34.424
34.397
34.369
34.34
34.311
34.283
34.254
34.227
34.201
34.175
34.151
34.128
34.108
34.09
34.076
34.063
34.054
34.047
34.041
34.038
34.036
34.034
34.032
34.03
34.028
34.024
34.019
34.013
34.006
33.999
33.991
33.981
33.971
33.958
33.946
33.932
33.917
33.901
33.884
33.867
33.852
33.838
33.825
33.814
33.804
33.795
33.787
33.783
33.785
33.797
33.818
33.847
33.884
33.928
33.981
34.042
34.113
34.193
34.284
34.384
34.494
34.613
34.74
34.874
35.013
