Trial 3:3back
39.298
39.392
39.436
39.435
39.396
39.324
39.226
39.106
38.97
38.824
38.671
38.516
38.362
38.21
38.063
37.919
37.779
37.642
37.508
37.378
37.249
37.123
36.999
36.877
36.758
36.64
36.522
36.403
36.282
36.161
36.038
35.915
35.792
35.671
35.553
35.439
35.329
35.221
35.117
35.014
34.915
34.819
34.726
34.637
34.552
34.473
34.4
34.333
34.271
34.214
34.161
34.112
34.066
34.022
33.979
33.937
33.894
33.849
33.802
33.753
33.7
33.643
33.583
33.52
33.455
33.391
33.33
33.272
33.217
33.165
33.114
33.065
33.018
32.971
32.923
32.873
32.821
32.767
32.711
32.652
32.592
32.53
32.468
32.406
32.343
32.279
32.215
32.151
32.086
32.02
31.953
31.885
31.817
31.749
31.682
31.615
31.55
31.486
31.425
31.365
31.307
31.251
31.197
31.144
31.093
31.042
30.991
30.941
30.892
30.844
30.798
30.755
30.715
30.679
30.647
30.618
30.591
30.566
30.544
30.524
30.505
30.487
30.469
30.451
30.432
30.412
30.39
30.366
30.34
30.311
30.278
30.24
30.196
30.149
30.098
30.047
29.995
29.947
29.904
29.869
29.845
29.833
29.834
29.851
29.885
29.939
30.016
30.121
30.258
30.432
30.65
30.914
31.23
31.597
32.017
32.488
33.005
33.562
34.149
34.757
35.376
35.994
36.601
37.185
37.737
38.249
38.713
39.123
39.477
39.772
40.008
40.187
40.313
40.39
40.422
40.414
40.374
40.308
40.22
40.117
40.004
39.883
39.758
39.632
39.507
39.382
39.261
39.143
39.028
38.915
38.804
38.694
38.585
38.474
38.361
38.244
38.123
37.998
37.869
37.739
37.605
37.468
37.327
37.184
37.039
36.893
36.747
36.603
36.462
36.327
36.197
36.074
35.96
35.853
35.753
35.661
35.575
35.494
35.419
35.35
35.286
35.226
35.171
35.117
35.065
35.012
34.96
34.906
34.851
34.795
34.739
34.684
34.63
34.577
34.526
34.474
34.423
34.369
34.312
34.253
34.192
34.131
34.069
34.005
33.939
33.871
33.799
33.725
33.65
33.574
33.498
33.424
33.351
33.28
33.209
33.14
33.072
33.004
32.936
32.869
32.801
32.733
32.666
32.598
32.53
32.461
32.393
32.325
32.259
32.195
32.133
32.075
32.02
31.969
31.92
31.871
31.821
31.768
31.714
31.658
31.601
31.542
31.483
31.425
31.369
31.314
31.262
31.213
31.167
31.124
31.082
31.042
31.001
30.96
30.917
30.874
30.828
30.782
30.736
30.69
30.645
30.601
30.558
30.517
30.479
30.445
30.417
30.395
30.381
30.377
30.384
30.403
30.436
30.484
30.554
30.649
30.775
30.94
31.149
31.408
31.721
32.092
32.52
33.005
33.544
34.132
34.758
35.415
36.09
36.77
37.445
38.102
38.729
39.315
39.853
40.335
40.756
41.112
41.403
41.629
41.792
41.898
41.95
41.956
41.922
41.854
41.759
41.645
41.516
41.379
41.237
41.093
40.95
40.81
40.674
40.544
40.418
40.297
40.18
40.065
39.95
39.835
39.718
39.598
39.474
39.344
39.208
39.065
38.916
38.762
38.604
38.443
38.28
38.119
37.96
37.804
37.651
37.502
37.357
37.217
37.082
36.954
36.832
36.717
36.61
36.511
36.419
36.334
36.255
36.18
36.109
36.041
35.975
35.91
35.844
35.777
35.707
35.636
35.56
35.482
35.401
35.319
35.236
35.155
35.074
34.994
34.914
34.835
34.755
34.674
34.593
34.513
34.434
34.358
34.283
34.209
34.137
34.066
33.996
33.924
33.85
33.774
33.696
33.616
33.536
33.455
33.374
33.294
33.213
33.132
33.05
32.968
32.887
32.807
32.728
32.651
32.576
32.503
32.431
32.361
32.293
32.225
32.16
32.097
32.037
31.98
31.925
31.87
31.815
31.76
31.706
31.651
31.597
31.544
31.494
31.445
31.396
31.349
31.303
31.258
31.216
31.176
31.137
31.101
31.065
31.03
30.995
30.96
30.923
30.886
30.849
30.812
30.776
30.743
30.713
30.687
30.666
30.65
30.64
30.636
30.639
30.65
30.671
30.703
30.75
30.818
30.914
31.045
31.222
31.453
31.746
32.108
32.545
33.056
33.64
34.293
35.007
35.771
36.574
37.4
38.236
39.067
39.878
40.657
41.389
42.066
42.678
43.22
43.688
44.082
44.403
44.652
44.835
44.96
45.031
45.056
45.039
44.987
44.908
44.805
44.684
44.547
44.401
44.248
44.091
43.931
43.77
43.608
43.447
43.285
43.124
42.963
42.8
42.636
42.468
42.298
42.124
41.946
41.764
41.578
41.389
41.198
41.004
40.807
40.608
40.407
40.206
40.007
39.81
39.617
39.428
39.243
39.063
38.886
38.713
38.544
38.379
38.219
38.063
37.914
37.77
37.632
37.502
37.378
37.26
37.145
37.033
36.924
36.815
36.708
36.602
36.498
36.395
36.296
36.198
36.101
36.006
35.911
35.817
35.724
35.63
35.537
35.444
35.351
35.26
35.171
35.081
34.991
34.901
34.81
34.718
34.626
34.531
34.436
34.34
34.243
34.145
34.046
33.945
33.844
33.745
33.648
33.553
33.46
33.371
33.284
33.2
33.118
33.037
32.956
32.876
32.797
32.717
32.638
32.559
32.48
32.401
32.323
32.247
32.173
32.104
32.04
31.982
31.928
31.877
31.83
31.785
31.74
31.695
31.649
31.601
31.552
31.503
31.454
31.404
31.354
31.304
31.256
31.208
31.16
31.114
31.07
31.026
30.984
30.941
30.897
30.853
30.811
30.77
30.731
30.694
30.659
30.628
30.601
30.577
30.557
30.542
30.534
30.535
30.546
30.568
30.605
30.659
30.736
30.843
30.985
31.173
31.412
31.71
32.07
32.492
32.976
33.521
34.121
34.768
35.452
36.162
36.884
37.606
38.316
39.001
39.651
40.259
40.816
41.317
41.759
42.139
42.456
42.71
42.906
43.048
43.14
43.188
43.198
43.176
43.128
43.058
42.97
42.868
42.754
42.631
42.504
42.374
42.243
42.113
41.984
41.858
41.736
41.616
41.498
41.381
41.264
41.146
41.027
40.906
40.782
40.655
40.525
40.393
40.26
40.126
39.991
39.857
39.723
39.591
39.46
39.33
39.203
39.08
38.96
38.845
38.734
38.628
38.527
38.431
38.34
38.253
38.168
38.087
38.008
37.933
37.859
37.788
37.718
37.651
37.585
37.52
37.456
37.391
37.326
37.261
37.195
37.126
37.055
36.981
36.905
36.831
36.757
36.684
36.611
36.538
36.463
36.385
36.301
36.211
36.116
36.016
35.91
35.801
35.689
35.577
35.465
35.355
35.248
35.142
35.04
34.94
34.844
34.752
34.662
34.574
34.489
34.405
34.322
34.239
34.157
34.076
33.997
33.919
33.845
33.772
33.702
33.634
33.568
33.502
33.437
33.373
33.309
33.246
33.185
33.123
33.061
33.0
32.938
32.876
32.813
32.749
32.686
32.623
32.561
32.5
32.44
32.381
32.324
32.269
32.214
32.16
32.107
32.056
32.007
31.957
31.901
31.836
31.762
31.684
31.604
31.528
31.458
31.399
31.351
31.315
31.288
31.271
31.262
31.26
31.267
31.28
31.301
31.33
31.367
31.413
31.469
31.54
31.629
31.744
31.892
32.081
32.317
32.606
32.952
33.357
33.821
34.34
34.912
35.529
36.185
36.867
37.567
38.271
38.966
39.641
40.285
40.886
41.436
41.929
42.36
42.727
43.031
43.271
43.45
43.573
43.646
43.675
43.665
43.623
43.553
43.462
43.353
43.232
43.1
42.962
42.821
42.678
42.537
42.399
42.266
42.136
42.01
41.886
41.764
41.643
41.52
41.395
41.265
41.132
40.995
40.854
40.711
40.565
40.42
40.275
40.131
39.988
39.846
39.707
39.57
39.436
39.306
39.18
39.058
38.941
38.829
38.721
38.618
38.518
38.424
38.334
38.25
38.173
38.1
38.033
37.971
37.911
37.852
37.794
37.734
37.672
37.607
37.54
37.469
37.396
37.322
37.246
37.169
37.089
37.006
36.92
36.831
36.739
36.646
36.55
36.454
36.359
36.265
36.172
36.08
35.99
35.9
35.81
35.72
35.63
35.537
35.444
35.349
35.253
35.156
35.059
34.963
34.867
34.773
34.681
34.592
34.505
34.423
34.345
34.272
34.202
34.135
34.069
34.004
33.94
33.875
33.81
33.744
33.678
33.612
33.545
33.476
33.406
33.335
33.264
33.192
33.121
33.05
32.98
32.914
32.85
32.788
32.727
32.667
32.607
32.547
32.486
32.422
32.356
32.289
32.22
32.152
32.083
32.016
31.952
31.891
31.832
31.777
31.724
31.674
31.628
31.583
31.54
31.497
31.456
31.416
31.38
31.348
31.322
31.303
31.292
31.289
31.296
31.311
31.335
31.37
31.418
31.483
31.57
31.684
31.833
32.021
32.255
32.536
32.868
33.251
33.684
34.163
34.683
35.236
35.813
36.407
37.006
37.598
38.174
38.72
39.228
39.69
40.102
40.46
40.762
41.008
41.199
41.339
41.43
41.477
41.483
41.455
41.398
41.318
41.22
41.11
40.991
40.87
40.748
40.626
40.506
40.386
40.267
40.147
40.025
39.902
39.777
39.651
39.526
39.401
39.276
39.151
39.025
38.899
38.772
38.644
38.515
38.386
38.256
38.127
37.999
37.871
37.746
37.622
37.499
37.38
37.263
37.15
37.042
36.937
36.838
36.744
36.655
36.572
36.493
36.42
36.352
36.289
36.229
36.174
36.122
36.073
36.027
35.984
35.941
35.897
35.85
35.8
35.746
35.687
35.625
35.56
35.494
35.426
35.358
35.289
35.22
35.152
35.083
35.015
34.946
34.878
34.809
34.739
34.666
34.59
34.51
34.428
34.341
34.252
34.161
34.068
33.976
33.885
33.796
33.708
33.622
33.537
33.455
33.375
33.298
33.222
33.15
33.082
33.017
32.954
32.894
32.837
32.783
32.731
32.682
32.635
32.591
32.549
32.509
32.47
32.431
32.39
32.348
32.303
32.257
32.208
32.156
32.103
32.05
31.997
31.944
31.892
31.841
31.792
31.744
31.694
31.636
31.569
31.495
31.416
31.337
31.258
31.182
31.112
31.049
30.995
30.949
30.912
30.885
30.867
30.858
30.857
30.864
30.879
30.901
30.932
30.971
31.021
31.086
31.169
31.277
31.415
31.59
31.807
32.072
32.387
32.755
33.175
33.646
34.162
34.716
35.301
35.905
36.518
37.129
37.726
38.3
38.842
39.343
39.799
40.204
40.556
40.852
41.092
41.276
41.408
41.491
41.53
41.53
41.497
41.438
41.356
41.259
41.15
41.035
40.915
40.792
40.668
40.543
40.419
40.296
40.174
40.053
39.934
39.816
39.699
39.581
39.462
39.341
39.217
39.09
38.959
38.827
38.694
38.562
38.431
38.301
38.173
38.047
37.922
37.8
37.681
37.564
37.451
37.342
37.237
37.138
37.043
36.952
36.866
36.783
36.705
36.63
36.558
36.489
36.421
36.354
36.289
36.225
36.162
36.099
36.036
35.974
35.911
35.847
35.782
35.718
35.654
35.589
35.525
35.462
35.398
35.332
35.265
35.195
35.122
35.046
34.966
34.884
34.8
34.715
34.629
34.542
34.455
34.368
34.281
34.195
34.112
34.03
33.95
33.87
33.79
33.708
33.625
33.54
33.453
33.366
33.28
33.195
33.113
33.035
32.961
32.888
32.817
32.747
32.679
32.612
32.546
32.481
32.418
32.356
32.294
32.232
32.172
32.114
32.059
32.006
31.957
31.91
31.866
31.823
31.78
31.735
31.689
31.642
31.593
31.543
31.49
31.437
31.382
31.327
31.273
31.218
31.164
31.112
31.062
31.014
30.969
30.924
30.882
30.841
30.801
30.764
30.729
30.699
30.674
30.656
30.645
30.644
30.654
30.679
30.722
30.789
30.884
31.015
31.188
31.41
31.683
32.012
32.398
32.84
33.337
33.883
34.47
35.091
35.734
36.389
37.046
37.691
38.315
38.906
39.457
39.959
40.406
40.793
41.12
41.386
41.592
41.742
41.839
41.886
41.891
41.86
41.799
41.715
41.613
41.498
41.376
41.248
41.12
40.993
40.867
40.743
40.624
40.507
40.394
40.283
40.173
40.064
39.954
39.843
39.728
39.611
39.489
39.364
39.235
39.103
38.969
38.834
38.699
38.563
38.427
38.292
38.158
38.025
37.894
37.766
37.641
37.52
37.404
37.292
37.185
37.08
36.978
36.878
36.778
36.68
36.583
36.487
36.394
36.303
36.213
36.126
36.042
35.959
35.877
35.797
35.719
35.644
35.573
35.504
35.438
35.371
35.303
35.232
35.156
35.074
34.989
34.9
34.81
34.717
34.623
34.529
34.435
34.34
34.246
34.152
34.059
33.967
33.876
33.787
33.699
33.613
33.528
33.444
33.359
33.274
33.19
33.107
33.025
32.944
32.864
32.784
32.706
32.628
32.551
32.475
32.4
32.327
32.257
32.189
32.123
32.06
31.998
31.937
31.878
31.821
31.764
31.707
31.652
31.598
31.543
31.486
31.426
31.365
31.302
31.238
31.176
31.114
31.056
31.0
30.948
30.9
30.854
30.812
30.774
30.738
30.704
30.671
30.638
30.605
30.57
30.532
30.491
30.446
30.4
30.352
30.303
30.255
30.209
30.167
30.13
30.101
30.08
30.071
30.074
30.092
30.127
30.179
30.251
30.347
30.472
30.629
30.824
31.061
31.344
31.674
32.053
32.478
32.946
33.455
33.997
34.565
35.149
35.74
36.326
36.898
37.445
37.96
38.433
38.858
39.232
39.552
39.817
40.029
40.189
40.3
40.365
40.39
40.379
40.336
40.268
40.177
40.071
39.951
39.823
39.689
39.552
39.413
39.274
39.136
39.0
38.866
38.734
38.605
38.48
38.356
38.236
38.117
38.001
37.885
37.767
37.647
37.525
37.402
37.279
37.157
37.036
36.916
36.798
36.681
36.566
36.453
36.342
36.233
36.126
36.023
35.923
35.827
35.734
35.646
35.562
35.482
35.407
35.335
35.267
35.202
35.139
35.078
35.018
34.958
34.898
34.839
34.781
34.722
34.663
34.605
34.547
34.491
34.434
34.378
34.32
34.261
34.201
34.141
34.081
34.019
33.958
33.897
33.835
33.772
33.708
33.642
33.575
33.507
33.438
33.368
33.297
33.226
33.153
33.079
33.003
32.925
32.847
32.769
32.692
32.615
32.54
32.466
32.392
32.318
32.244
32.169
32.095
32.025
31.959
31.896
31.835
31.777
31.721
31.666
31.612
31.558
31.504
31.451
31.398
31.347
31.297
31.248
31.201
31.158
31.118
31.081
31.046
31.013
30.979
30.945
30.909
30.871
30.83
30.788
30.743
30.697
30.651
30.606
30.561
30.518
30.476
30.435
30.396
30.359
30.325
30.293
30.264
30.236
30.211
30.187
30.163
30.141
30.12
30.101
30.085
30.072
30.061
30.054
30.054
30.065
30.088
30.126
30.183
30.263
30.371
30.512
30.692
30.914
31.182
31.499
31.865
32.278
32.734
33.229
33.754
34.302
34.864
35.431
35.993
36.541
37.064
37.554
38.005
38.409
38.763
39.066
39.315
39.511
39.656
39.752
39.805
39.818
39.797
39.748
39.675
39.583
39.478
39.364
39.244
39.12
38.994
38.87
38.748
38.63
38.515
38.402
38.291
38.181
38.072
37.962
37.851
37.738
37.623
37.507
37.39
37.274
37.158
37.043
36.931
36.821
36.713
36.607
36.502
36.399
36.297
36.195
36.095
35.997
35.902
35.81
35.723
35.639
35.559
35.483
35.412
35.345
35.282
35.222
35.165
35.112
35.062
35.015
34.97
34.927
34.881
34.829
34.77
34.706
34.638
34.568
34.498
34.43
34.363
34.3
34.242
34.189
34.142
34.098
34.057
34.019
33.982
33.945
33.906
33.864
33.818
33.767
33.71
33.647
33.577
33.502
33.423
33.342
33.26
33.178
33.098
33.021
32.947
32.877
32.809
32.743
32.679
32.615
32.552
32.49
32.426
32.36
32.294
32.227
32.159
32.092
32.026
31.962
31.902
31.845
31.793
31.743
31.695
31.65
31.608
31.567
31.528
31.49
31.453
31.419
31.385
31.35
31.315
31.28
31.244
31.208
31.171
31.134
31.097
31.059
31.022
30.986
30.95
30.916
30.885
30.855
30.827
30.799
30.772
30.745
30.718
30.69
30.66
30.629
30.595
30.56
30.523
30.483
30.443
30.402
30.363
30.328
30.298
30.276
30.264
30.262
30.273
30.296
30.332
30.383
30.451
30.54
30.653
30.797
30.975
31.192
31.453
31.758
32.109
32.503
32.938
33.41
33.911
34.433
34.969
35.508
36.041
36.558
37.048
37.505
37.92
38.289
38.611
38.882
39.104
39.278
39.405
39.489
39.533
39.54
39.514
39.461
39.387
39.296
39.193
39.084
38.972
38.858
38.746
38.636
38.528
38.421
38.314
38.207
38.101
37.996
37.89
37.786
37.682
37.579
37.476
37.372
37.267
37.161
37.054
36.945
36.837
36.729
36.622
36.518
36.417
36.32
36.227
36.137
36.051
35.97
35.893
35.821
35.753
35.688
35.627
35.569
35.513
35.46
35.408
35.359
35.312
35.267
35.223
35.18
35.138
35.096
35.055
35.013
34.97
34.926
34.882
34.838
34.792
34.746
34.699
34.652
34.603
34.554
34.502
34.447
34.389
34.328
34.266
34.201
34.134
34.067
34.001
33.935
33.871
33.808
33.747
33.687
33.63
33.573
33.515
33.456
33.395
33.332
33.269
33.206
33.142
33.079
33.015
32.951
32.887
32.82
32.753
32.685
32.618
32.551
32.483
32.415
32.347
32.279
32.21
32.141
32.073
32.007
31.943
31.883
31.824
31.769
31.718
31.67
31.626
31.585
31.548
31.515
31.485
31.457
31.43
31.402
31.374
31.346
31.316
31.287
31.256
31.225
31.194
31.161
31.128
31.094
31.059
31.024
30.989
30.955
30.92
30.886
30.853
30.82
30.787
30.754
30.722
30.689
30.656
30.625
30.593
30.563
30.535
30.51
30.49
30.477
30.474
30.483
30.506
30.544
30.597
30.665
30.752
30.863
31.002
31.174
31.382
31.63
31.917
32.243
32.606
33.0
33.421
33.862
34.316
34.775
35.231
35.675
36.101
36.501
36.869
37.2
37.487
37.728
37.923
38.073
38.18
38.248
38.281
38.282
38.256
38.207
38.139
38.054
37.955
37.847
37.733
37.616
37.5
37.385
37.276
37.173
37.075
36.983
36.894
36.806
36.719
36.633
36.546
36.458
36.37
36.282
36.194
36.106
36.017
35.928
35.836
35.743
35.65
35.556
35.463
35.372
35.285
35.202
35.124
35.052
34.984
34.921
34.865
34.814
34.77
34.731
34.696
34.664
34.634
34.604
34.572
34.537
34.5
34.459
34.416
34.373
34.331
34.291
34.253
34.218
34.185
34.154
34.124
34.096
34.07
34.044
34.017
33.988
33.958
33.926
33.892
33.855
33.816
33.774
33.73
33.684
33.635
33.582
33.528
33.471
33.412
33.351
33.288
33.225
33.161
33.096
33.03
32.964
32.897
32.831
32.766
32.704
32.644
32.587
32.534
32.485
32.442
32.402
32.366
32.333
32.302
32.273
32.243
32.213
32.183
32.153
32.122
32.09
32.058
32.025
31.991
31.957
31.921
31.884
31.845
31.806
31.765
31.721
31.672
31.62
31.566
31.511
31.459
31.408
31.359
31.313
31.27
31.23
31.193
31.157
31.123
31.091
31.059
31.027
30.994
30.961
30.929
30.898
30.87
30.845
30.823
30.806
30.793
30.788
30.791
30.804
30.829
30.866
30.918
30.984
31.066
31.168
31.292
31.444
31.628
31.849
32.108
32.408
32.75
33.13
33.546
33.993
34.465
34.955
35.455
35.955
36.446
36.921
37.37
37.787
38.165
38.5
38.789
39.031
39.227
39.377
39.483
39.547
39.572
39.563
39.523
39.457
39.369
39.265
39.147
39.023
38.895
38.766
38.639
38.517
38.4
38.29
38.184
38.082
37.982
37.884
37.786
37.688
37.589
37.489
37.388
37.286
37.181
37.075
36.965
36.854
36.741
36.628
36.517
36.407
36.301
36.201
36.106
36.017
35.933
35.853
35.779
35.711
35.647
35.589
35.535
35.485
35.439
35.397
35.356
35.314
35.272
35.229
35.185
35.141
35.098
35.056
35.015
34.978
34.942
34.908
34.873
34.838
34.803
34.768
34.732
34.696
34.657
34.615
34.57
34.521
34.468
34.41
34.348
34.285
34.219
34.154
34.089
34.025
33.963
33.902
33.844
33.786
33.729
33.672
33.616
33.56
33.503
33.445
33.386
33.328
33.268
33.208
33.148
33.088
33.03
32.974
32.919
32.865
32.812
32.759
32.707
32.653
32.598
32.544
32.489
32.436
32.383
32.332
32.281
32.232
32.184
32.138
32.094
32.051
32.01
31.973
31.937
31.903
31.87
31.839
31.808
31.778
31.748
31.718
31.689
31.661
31.633
31.607
31.58
31.555
31.53
31.506
31.481
31.455
31.426
31.394
31.358
31.319
31.277
31.234
31.192
31.152
31.118
31.09
31.07
31.062
31.068
31.089
31.127
31.184
31.262
31.365
31.499
31.67
31.88
32.133
32.432
32.778
33.171
33.609
34.087
34.599
35.135
35.685
36.238
36.783
37.31
37.81
38.273
38.694
39.066
39.385
39.652
39.865
40.026
40.137
40.203
40.226
40.214
40.171
40.105
40.02
39.921
39.815
39.703
39.59
39.475
39.362
39.251
39.144
39.042
38.945
38.854
38.766
38.682
38.601
38.52
38.436
38.35
38.259
38.166
38.069
37.968
37.863
37.755
37.643
37.528
37.411
37.292
37.172
37.053
36.935
36.822
36.713
36.611
36.516
36.428
36.348
36.276
36.211
36.152
36.098
36.05
36.005
35.963
35.921
35.877
35.827
35.772
35.713
35.651
35.589
35.529
35.475
35.427
35.385
35.348
35.317
35.29
35.265
35.24
35.213
35.186
35.155
35.121
35.083
35.041
34.993
34.939
34.88
34.815
34.745
34.671
34.596
34.522
34.449
34.377
34.307
34.24
34.175
34.111
34.048
33.985
33.921
33.858
33.793
33.728
