Trial 3:3back
34.998
34.982
34.969
34.96
34.954
34.952
34.954
34.959
34.966
34.973
34.98
34.986
34.991
34.995
34.998
34.999
34.999
34.997
34.994
34.991
34.987
34.983
34.981
34.979
34.977
34.973
34.966
34.957
34.946
34.933
34.919
34.903
34.885
34.866
34.846
34.822
34.797
34.771
34.745
34.718
34.691
34.663
34.636
34.609
34.583
34.558
34.533
34.508
34.484
34.459
34.433
34.406
34.379
34.353
34.327
34.302
34.278
34.254
34.23
34.208
34.186
34.165
34.145
34.125
34.104
34.081
34.056
34.03
34.003
33.976
33.949
33.922
33.896
33.871
33.847
33.824
33.802
33.782
33.764
33.747
33.733
33.72
33.707
33.694
33.68
33.666
33.651
33.636
33.621
33.605
33.591
33.576
33.563
33.552
33.544
33.54
33.541
33.547
33.561
33.583
33.614
33.654
33.704
33.763
33.831
33.908
33.992
34.082
34.181
34.286
34.399
34.519
34.643
34.772
34.903
35.034
35.163
35.288
35.408
35.52
35.624
35.72
35.805
35.881
35.946
36.0
36.044
36.077
36.099
36.112
36.118
36.117
36.111
36.103
36.093
36.083
36.073
36.064
36.056
36.051
36.047
36.045
36.044
36.041
36.035
36.027
36.013
35.994
35.969
35.939
35.904
35.864
35.821
35.775
35.729
35.683
35.638
35.595
35.555
35.518
35.485
35.456
35.431
35.41
35.393
35.378
35.366
35.356
35.346
35.337
35.329
35.321
35.313
35.306
35.301
35.297
35.296
35.298
35.302
35.308
35.316
35.326
35.336
35.346
35.355
35.362
35.369
35.372
35.371
35.366
35.357
35.342
35.324
35.302
35.279
35.257
35.235
35.215
35.197
35.179
35.163
35.148
35.134
35.12
35.106
35.092
35.076
35.058
35.036
35.01
34.981
34.949
34.916
34.882
34.846
34.811
34.778
34.747
34.719
34.693
34.669
34.646
34.625
34.603
34.583
34.564
34.547
34.533
34.52
34.508
34.495
34.482
34.468
34.451
34.431
34.41
34.387
34.362
34.335
34.305
34.274
34.241
34.207
34.172
34.136
34.099
34.062
34.026
33.991
33.958
33.928
33.901
33.877
33.854
33.833
33.814
33.796
33.779
33.763
33.748
33.735
33.725
33.719
33.717
33.721
33.733
33.753
33.782
33.819
33.864
33.917
33.979
34.052
34.134
34.227
34.33
34.44
34.558
34.68
34.806
34.933
35.061
35.19
35.318
35.443
35.564
35.679
35.787
35.887
35.978
36.061
36.133
36.196
36.249
36.29
36.322
36.347
36.364
36.377
36.383
36.385
36.383
36.377
36.367
36.353
36.337
36.319
36.3
36.281
36.262
36.242
36.222
36.202
36.182
36.161
36.141
36.121
36.102
36.084
36.066
36.048
36.029
36.008
35.985
35.961
35.934
35.906
35.876
35.846
35.817
35.789
35.762
35.737
35.715
35.696
35.679
35.666
35.657
35.653
35.652
35.653
35.654
35.655
35.654
35.65
35.643
35.632
35.618
35.603
35.587
35.571
35.556
35.542
35.531
35.522
35.516
35.512
35.51
35.51
35.512
35.515
35.52
35.529
35.541
35.553
35.562
35.565
35.56
35.547
35.525
35.494
35.454
35.409
35.36
35.31
35.261
35.214
35.17
35.13
35.093
35.06
35.029
34.999
34.97
34.941
34.913
34.885
34.856
34.826
34.795
34.763
34.732
34.7
34.67
34.642
34.616
34.592
34.571
34.553
34.539
34.528
34.519
34.512
34.504
34.496
34.487
34.475
34.461
34.445
34.426
34.406
34.384
34.359
34.334
34.307
34.279
34.251
34.224
34.197
34.172
34.149
34.126
34.103
34.081
34.059
34.038
34.017
33.997
33.979
33.962
33.946
33.932
33.92
33.91
33.902
33.895
33.89
33.89
33.897
33.912
33.938
33.975
34.023
34.083
34.154
34.236
34.329
34.432
34.544
34.665
34.793
34.926
35.06
35.195
35.328
35.458
35.584
35.704
35.818
35.924
36.023
36.115
36.2
36.278
36.348
36.412
36.469
36.518
36.561
36.598
36.629
36.655
36.676
36.692
36.703
36.709
36.709
36.704
36.694
36.679
36.661
36.64
36.615
36.588
36.557
36.524
36.489
36.453
36.416
36.381
36.346
36.313
36.282
36.253
36.226
36.201
36.179
36.16
36.143
36.127
36.112
36.098
36.083
36.069
36.054
36.04
36.028
36.016
36.005
35.995
35.985
35.977
35.97
35.964
35.959
35.956
35.955
35.955
35.954
35.953
35.951
35.949
35.946
35.943
35.938
35.932
35.924
35.915
35.903
35.889
35.873
35.856
35.838
35.821
35.804
35.788
35.775
35.764
35.755
35.748
35.742
35.736
35.73
35.722
35.712
35.699
35.682
35.661
35.635
35.605
35.571
35.533
35.493
35.452
35.41
35.37
35.333
35.3
35.271
35.244
35.221
35.199
35.177
35.156
35.134
35.109
35.083
35.054
35.021
34.985
34.946
34.904
34.861
34.818
34.776
34.737
34.702
34.67
34.644
34.621
34.602
34.585
34.57
34.556
34.541
34.525
34.507
34.486
34.463
34.437
34.41
34.384
34.358
34.333
34.311
34.291
34.273
34.257
34.244
34.232
34.219
34.206
34.19
34.172
34.151
34.128
34.103
34.078
34.054
34.033
34.015
34.002
33.994
33.995
34.003
34.022
34.05
34.089
34.138
34.197
34.264
34.341
34.427
34.522
34.625
34.736
34.852
34.974
35.101
35.232
35.366
35.502
35.637
35.772
35.906
36.035
36.16
36.277
36.387
36.487
36.577
36.654
36.718
36.771
36.812
36.843
36.866
36.882
36.894
36.901
36.904
36.904
36.902
36.898
36.894
36.889
36.882
36.875
36.864
36.851
36.835
36.815
36.792
36.767
36.74
36.711
36.68
36.648
36.613
36.577
36.541
36.504
36.468
36.433
36.4
36.367
36.334
36.3
36.267
36.233
36.201
36.172
36.145
36.122
36.103
36.087
36.074
36.063
36.055
36.052
36.052
36.057
36.064
36.074
36.085
36.097
36.109
36.119
36.128
36.134
36.137
36.136
36.132
36.124
36.114
36.101
36.085
36.068
36.048
36.028
36.006
35.984
35.962
35.941
35.924
35.909
35.896
35.885
35.875
35.864
35.853
35.841
35.827
35.811
35.793
35.772
35.749
35.724
35.695
35.662
35.627
35.588
35.547
35.504
35.461
35.419
35.378
35.338
35.301
35.268
35.237
35.21
35.185
35.162
35.14
35.12
35.101
35.081
35.058
35.032
35.003
34.97
34.934
34.895
34.854
34.814
34.775
34.738
34.703
34.673
34.646
34.624
34.604
34.587
34.571
34.555
34.537
34.516
34.491
34.461
34.427
34.39
34.35
34.312
34.277
34.247
34.223
34.204
34.187
34.173
34.16
34.149
34.138
34.125
34.111
34.095
34.078
34.059
34.041
34.024
34.012
34.006
34.008
34.021
34.046
34.084
34.136
34.202
34.281
34.37
34.47
34.577
34.69
34.806
34.923
35.041
35.156
35.269
35.378
35.482
35.582
35.678
35.769
35.855
35.937
36.013
36.083
36.145
36.198
36.239
36.268
36.284
36.288
36.276
36.25
36.209
36.154
36.086
36.006
35.915
35.818
35.715
35.608
35.501
35.401
35.315
35.244
35.186
35.139
35.101
35.07
35.04
35.011
34.979
34.942
34.901
34.856
34.808
34.757
34.706
34.655
34.606
34.561
34.521
34.485
34.456
34.433
34.417
34.408
34.405
34.409
34.419
34.437
34.46
34.489
34.521
34.555
34.59
34.626
34.66
34.694
34.725
34.754
34.781
34.806
34.827
34.846
34.863
34.877
34.889
34.899
34.906
34.912
34.917
34.92
34.923
34.925
34.928
34.93
34.932
34.933
34.933
34.933
34.933
34.933
34.933
34.932
34.93
34.927
34.923
34.917
34.906
34.887
34.86
34.826
34.788
34.749
34.709
34.672
34.64
34.612
34.59
34.574
34.564
34.558
34.555
34.555
34.555
34.555
34.555
34.553
34.548
34.542
34.532
34.52
34.505
34.488
34.469
34.451
34.432
34.412
34.392
34.371
34.35
34.329
34.308
34.287
34.265
34.244
34.223
34.204
34.185
34.17
34.157
34.146
34.139
34.134
34.132
34.133
34.136
34.139
34.141
34.141
34.138
34.132
34.121
34.107
34.091
34.075
34.062
34.053
34.048
34.051
34.063
34.084
34.116
34.158
34.213
34.279
34.358
34.446
34.545
34.652
34.766
34.884
35.006
35.131
35.258
35.388
35.521
35.655
35.79
35.925
36.061
36.195
36.325
36.451
36.57
36.681
36.781
36.87
36.946
37.008
37.055
37.088
37.107
37.112
37.106
37.089
37.065
37.036
37.005
36.974
36.944
36.917
36.893
36.872
36.853
36.836
36.82
36.804
36.788
36.768
36.746
36.72
36.689
36.654
36.614
36.57
36.524
36.476
36.426
36.376
36.328
36.282
36.241
36.205
36.175
36.15
36.13
36.114
36.1
36.086
36.073
36.061
36.049
36.036
36.022
36.004
35.983
35.958
35.931
35.902
35.872
35.843
35.815
35.789
35.763
35.737
35.711
35.686
35.661
35.636
35.611
35.587
35.563
35.54
35.517
35.493
35.469
35.447
35.425
35.404
35.384
35.366
35.349
35.333
35.319
35.306
35.292
35.279
35.265
35.249
35.233
35.215
35.198
35.181
35.163
35.146
35.128
35.108
35.086
35.063
35.039
35.015
34.991
34.97
34.95
34.931
34.913
34.895
34.878
34.862
34.847
34.833
34.82
34.809
34.798
34.788
34.779
34.772
34.764
34.756
34.747
34.736
34.723
34.709
34.695
34.68
34.663
34.645
34.626
34.606
34.584
34.56
34.535
34.509
34.484
34.459
34.435
34.413
34.393
34.376
34.362
34.354
34.352
34.358
34.371
34.392
34.42
34.455
34.495
34.54
34.591
34.648
34.711
34.78
34.856
34.937
35.025
35.117
35.213
35.314
35.417
35.523
35.629
35.735
35.84
35.942
36.041
36.133
36.219
36.295
36.361
36.413
36.454
36.483
36.502
36.511
36.512
36.506
36.495
36.481
36.464
36.446
36.428
36.413
36.401
36.391
36.384
36.378
36.371
36.364
36.353
36.338
36.318
36.291
36.259
36.22
36.177
36.13
36.082
36.034
35.986
35.939
35.895
35.852
35.814
35.781
35.752
35.728
35.71
35.698
35.689
35.685
35.684
35.685
35.686
35.688
35.69
35.691
35.691
35.692
35.694
35.696
35.697
35.7
35.703
35.707
35.714
35.722
35.731
35.742
35.754
35.765
35.776
35.783
35.788
35.787
35.781
35.769
35.75
35.725
35.695
35.66
35.623
35.583
35.543
35.504
35.466
35.43
35.396
35.363
35.332
35.302
35.273
35.244
35.214
35.183
35.15
35.115
35.077
35.039
35.0
34.963
34.924
34.883
34.84
34.795
34.749
34.704
34.659
34.617
34.578
34.541
34.507
34.475
34.445
34.418
34.393
34.37
34.35
34.332
34.315
34.298
34.282
34.264
34.245
34.225
34.203
34.178
34.152
34.124
34.096
34.069
34.041
34.014
33.987
33.962
33.938
33.916
33.898
33.886
33.88
33.883
33.894
33.912
33.937
33.971
34.013
34.064
34.126
34.197
34.279
34.372
34.475
34.586
34.705
34.831
34.963
35.099
35.238
35.379
35.521
35.664
35.806
35.945
36.08
36.21
36.332
36.447
36.551
36.646
36.73
36.804
36.869
36.925
36.973
37.012
37.043
37.067
37.082
37.089
37.089
37.082
37.069
37.053
37.033
37.01
36.985
36.958
36.93
36.9
36.87
36.84
36.809
36.777
36.743
36.707
36.669
36.63
36.588
36.544
36.498
36.45
36.403
36.358
36.316
36.278
36.246
36.221
36.202
36.189
36.18
36.174
36.171
36.17
36.17
36.169
36.167
36.163
36.156
36.146
36.132
36.115
36.094
36.072
36.049
36.026
36.002
35.981
35.961
35.943
35.927
35.913
35.9
35.887
35.873
35.858
35.84
35.819
35.797
35.772
35.744
35.712
35.68
35.649
35.619
35.591
35.563
35.536
35.509
35.483
35.455
35.427
35.397
35.366
35.335
35.301
35.266
35.23
35.192
35.153
35.112
35.069
35.025
34.979
34.933
34.888
34.845
34.805
34.769
34.737
34.707
34.681
34.657
34.634
34.612
34.59
34.565
34.539
34.51
34.48
34.448
34.413
34.377
34.341
34.305
34.269
34.234
34.2
34.168
34.137
34.108
34.079
34.051
34.024
33.997
33.971
33.947
33.926
33.91
33.9
33.899
33.906
33.922
33.95
33.99
34.043
34.11
34.19
34.283
34.389
34.506
34.633
34.77
34.916
35.072
35.238
35.41
35.587
35.768
35.95
36.132
36.31
36.484
36.651
36.809
36.957
37.093
37.217
37.328
37.427
37.514
37.589
37.652
37.705
37.747
37.779
37.803
37.818
37.826
37.827
37.823
37.813
37.798
37.777
37.75
37.718
37.681
37.641
37.597
37.551
37.504
37.457
37.409
37.362
37.316
37.273
37.231
37.19
37.149
37.107
37.065
37.023
36.98
36.937
36.895
36.853
36.813
36.773
36.733
36.694
36.657
36.622
36.59
36.561
36.534
36.511
36.489
36.468
36.448
36.427
36.406
36.385
36.363
36.342
36.323
36.307
36.294
36.283
36.274
36.268
36.263
36.26
36.257
36.253
36.249
36.244
36.238
36.23
36.22
36.205
36.185
36.16
36.131
36.096
36.058
36.018
35.977
35.934
35.891
35.848
35.804
35.76
35.717
35.675
35.634
35.596
35.56
35.526
35.492
35.456
35.42
35.381
35.34
35.297
35.253
35.208
35.165
35.123
35.083
35.046
35.012
34.981
34.953
34.927
34.903
34.88
34.857
34.833
34.807
34.778
34.745
34.71
34.673
34.636
34.599
34.564
34.533
34.505
34.481
34.463
34.452
34.448
34.45
34.454
34.459
34.461
34.462
34.459
34.454
34.446
34.437
34.431
34.429
34.434
34.451
34.481
34.528
34.593
34.677
34.779
34.901
35.041
35.198
35.371
35.558
35.757
35.965
36.181
36.401
36.624
36.846
37.066
37.284
37.496
37.701
37.895
38.079
38.249
38.406
38.548
38.675
38.786
38.882
38.961
39.025
39.074
39.108
39.129
39.138
39.136
39.126
39.107
39.081
39.048
39.008
38.963
38.913
38.859
38.803
38.744
38.685
38.626
38.567
38.51
38.456
38.404
38.355
38.308
38.265
38.221
38.176
38.13
38.082
38.033
37.983
37.935
37.887
37.841
37.797
37.755
37.713
37.672
37.631
37.593
37.557
37.524
37.493
37.464
37.436
37.411
37.388
37.366
37.346
37.327
37.31
37.294
37.278
37.261
37.243
37.225
37.205
37.183
37.16
37.135
37.108
37.079
37.049
37.018
36.986
36.955
36.924
36.893
36.861
36.829
36.795
36.76
36.724
36.686
36.647
36.605
36.561
36.514
36.465
36.414
36.362
36.309
36.256
36.202
36.148
36.094
36.04
35.988
35.936
35.887
35.841
35.797
35.754
35.712
35.671
35.631
35.593
35.555
35.518
35.481
35.444
35.407
35.369
35.33
35.291
35.253
35.215
35.179
35.145
35.111
35.078
35.046
35.016
34.987
34.96
34.933
34.909
34.885
34.861
34.836
34.81
34.782
34.752
34.719
34.684
34.649
34.616
34.586
34.561
34.541
34.53
34.527
34.532
34.548
34.573
34.609
34.656
34.716
34.789
34.875
34.974
35.086
35.212
35.354
35.509
35.68
35.865
36.064
36.277
36.5
36.733
36.975
37.222
37.471
37.72
37.964
38.2
38.425
38.636
38.829
39.002
39.153
39.281
39.386
39.466
39.521
39.552
39.561
39.551
39.525
39.485
39.435
39.38
39.323
39.266
39.21
39.158
39.111
39.071
39.037
39.008
38.983
38.962
38.944
38.927
38.91
38.892
38.871
38.845
38.813
38.772
38.724
38.668
38.605
38.538
38.467
38.394
38.321
38.248
38.178
38.111
38.048
37.99
37.936
37.888
37.846
37.81
37.78
37.757
37.74
37.728
37.721
37.717
37.715
37.713
37.71
37.704
37.696
37.683
37.668
37.649
37.626
37.6
37.571
37.538
37.501
37.461
37.419
37.376
37.333
37.291
37.248
37.204
37.159
37.113
37.068
37.023
36.977
36.932
36.887
36.841
36.795
36.748
36.701
36.655
36.609
36.565
36.522
36.478
36.433
36.388
36.342
36.295
36.248
36.2
36.152
36.103
36.054
36.003
35.953
35.903
35.853
35.803
35.753
35.704
35.655
35.607
35.56
35.514
35.47
35.426
35.383
35.339
35.294
35.25
35.206
35.164
35.124
35.086
35.049
35.012
34.976
34.939
34.902
34.865
34.828
34.793
34.758
34.724
34.689
34.656
34.625
34.596
34.568
34.543
34.521
34.499
34.477
34.455
34.432
34.409
34.387
34.369
34.354
34.343
34.338
34.338
34.343
34.355
34.375
34.404
34.443
34.493
34.555
34.63
34.72
34.823
34.941
35.072
35.215
35.37
35.535
35.709
35.891
36.079
36.269
36.461
36.649
36.832
37.008
37.176
37.334
37.482
37.618
37.743
37.856
37.956
38.042
38.115
38.175
38.222
38.257
38.281
38.294
38.298
38.295
38.286
38.273
38.258
38.241
38.223
38.206
38.188
38.169
38.148
38.126
38.102
38.076
38.048
38.017
37.983
37.946
37.906
37.862
37.814
37.761
37.704
37.644
37.581
37.516
37.451
37.387
37.327
37.271
37.22
37.174
37.133
37.099
37.072
37.051
37.037
37.028
37.024
37.022
37.02
37.016
37.01
37.001
36.988
36.969
36.946
36.918
36.887
36.855
36.822
36.789
36.759
36.731
36.706
36.684
36.664
36.646
36.629
36.614
36.598
36.581
36.561
36.537
36.508
36.474
36.434
36.389
36.34
36.289
36.235
36.181
36.126
36.073
36.021
35.972
35.926
35.882
35.84
35.8
35.762
35.724
35.686
35.646
35.606
35.563
35.519
35.472
35.424
35.375
35.325
35.275
35.226
35.178
35.129
35.08
35.029
34.976
34.925
34.878
34.835
34.796
34.761
34.727
34.696
34.665
34.635
34.605
34.575
34.545
34.515
34.482
34.448
34.412
34.373
34.334
34.294
34.254
34.213
34.175
34.137
34.101
34.066
34.032
34.0
33.969
33.939
33.909
33.88
33.852
33.825
33.8
33.774
33.75
33.725
33.702
33.68
33.66
33.645
33.635
33.631
33.633
33.641
33.657
33.682
33.717
33.763
33.823
33.895
33.981
34.08
34.191
34.313
34.447
34.591
34.746
34.91
35.082
35.262
35.446
35.634
35.822
35.999
36.157
36.296
36.416
36.52
36.609
36.687
36.759
36.827
36.892
36.954
37.015
37.073
37.128
37.179
37.225
37.265
37.299
37.329
37.352
37.368
37.378
37.38
37.376
37.365
37.347
37.324
37.296
37.265
37.231
37.196
37.16
37.122
37.085
37.047
37.008
36.968
36.926
36.884
36.843
36.801
36.76
36.721
36.683
36.648
36.615
36.585
36.556
36.531
36.508
36.489
36.473
36.459
36.447
36.436
36.424
36.41
36.393
36.373
36.349
36.323
36.294
36.264
36.234
36.205
36.179
36.156
36.136
36.119
36.108
36.1
36.096
36.096
36.1
36.106
36.112
36.116
36.118
36.116
36.108
36.093
36.069
36.037
35.996
35.948
35.895
35.838
35.779
35.72
35.661
35.603
35.546
35.491
35.437
35.386
35.337
35.289
35.242
35.195
35.147
35.097
35.047
34.996
34.945
34.895
34.847
34.801
34.756
34.714
34.675
34.638
34.602
34.566
34.529
34.492
34.454
34.415
34.375
34.335
34.295
34.254
34.214
34.174
34.135
34.097
34.06
34.026
33.993
33.962
33.934
33.907
33.881
33.857
33.833
33.809
33.787
33.764
33.74
33.715
33.69
33.666
33.644
33.624
33.605
33.587
33.568
33.548
33.526
33.504
33.48
33.456
33.43
33.404
33.378
33.354
33.335
33.321
33.314
33.316
33.328
33.35
33.382
33.425
33.48
33.547
33.625
33.717
33.82
33.937
34.065
34.204
34.352
34.507
34.669
34.834
35.002
35.169
35.332
35.491
35.642
35.785
35.919
36.041
36.15
36.245
36.326
36.393
36.447
36.489
36.522
36.546
36.561
36.57
36.572
36.569
36.56
36.548
36.532
36.515
36.496
36.476
36.455
36.431
36.405
36.377
36.347
36.317
36.285
36.251
36.215
36.177
36.139
36.102
36.065
36.03
35.995
35.961
35.927
35.894
35.86
35.827
35.795
35.763
35.73
35.697
35.664
35.629
35.595
35.56
35.525
35.492
35.46
35.432
35.407
35.384
35.365
35.35
35.339
35.332
35.327
35.324
35.324
35.325
35.327
35.328
35.328
35.328
35.325
35.321
35.315
35.307
35.3
35.292
35.283
35.274
35.263
35.25
35.235
35.215
35.192
35.164
35.133
35.099
35.063
35.025
34.984
34.944
34.903
34.864
34.827
34.793
34.761
34.732
34.704
34.676
34.648
34.619
34.588
34.556
34.521
34.484
34.443
34.401
34.357
34.312
34.266
34.222
34.179
34.14
34.105
34.074
34.046
34.02
33.997
33.973
33.948
33.92
33.891
33.858
33.822
33.785
33.746
33.71
33.675
33.645
33.618
33.596
33.577
33.559
33.542
33.524
33.504
33.48
33.454
33.423
33.39
33.356
33.321
33.288
33.258
33.23
33.206
33.185
33.166
33.149
33.132
33.116
33.101
33.085
33.068
33.05
33.032
33.015
33.0
32.989
32.982
32.983
32.991
33.007
33.033
33.07
33.117
33.177
33.252
33.34
33.44
33.552
33.674
33.806
33.944
34.086
34.23
34.375
34.517
34.655
34.788
34.917
35.042
35.162
35.277
35.384
35.484
35.575
35.656
35.728
35.789
35.842
35.887
35.925
35.955
35.979
35.997
36.009
36.015
36.018
36.016
36.01
36.001
35.988
35.972
35.952
35.93
35.904
35.876
35.846
35.813
35.779
35.743
35.708
35.671
35.634
35.596
35.556
35.514
35.47
35.424
35.376
35.329
35.284
35.241
35.2
35.162
35.126
35.092
35.059
35.029
35.002
34.979
34.959
34.943
34.93
34.919
34.91
34.904
34.901
34.9
34.901
