Trial 3:3back
34.637
34.586
34.538
34.492
34.448
34.407
34.368
34.331
34.296
34.262
34.23
34.198
34.168
34.138
34.11
34.082
34.056
34.031
34.007
33.985
33.964
33.943
33.922
33.9
33.877
33.852
33.825
33.797
33.768
33.739
33.71
33.682
33.654
33.627
33.601
33.575
33.551
33.527
33.503
33.481
33.459
33.439
33.419
33.4
33.381
33.363
33.347
33.33
33.315
33.301
33.288
33.276
33.265
33.253
33.241
33.228
33.213
33.197
33.179
33.159
33.136
33.111
33.083
33.053
33.021
32.987
32.951
32.913
32.873
32.832
32.791
32.749
32.708
32.67
32.634
32.601
32.572
32.547
32.528
32.515
32.511
32.516
32.535
32.569
32.621
32.695
32.792
32.915
33.066
33.243
33.448
33.679
33.934
34.21
34.505
34.815
35.135
35.462
35.791
36.119
36.441
36.754
37.055
37.342
37.611
37.861
38.091
38.299
38.485
38.649
38.792
38.915
39.018
39.104
39.173
39.227
39.267
39.295
39.311
39.316
39.312
39.298
39.274
39.242
39.2
39.15
39.091
39.025
38.951
38.869
38.782
38.689
38.593
38.493
38.391
38.288
38.184
38.08
37.975
37.871
37.766
37.662
37.557
37.453
37.349
37.246
37.143
37.041
36.94
36.84
36.742
36.646
36.553
36.463
36.378
36.297
36.222
36.154
36.095
36.044
36.004
35.974
35.954
35.944
35.944
35.953
35.969
35.993
36.022
36.055
36.092
36.131
36.172
36.213
36.254
36.294
36.332
36.368
36.401
36.43
36.455
36.475
36.491
36.501
36.506
36.506
36.501
36.491
36.477
36.459
36.438
36.414
36.387
36.357
36.323
36.286
36.245
36.201
36.154
36.103
36.05
35.993
35.934
35.873
35.811
35.747
35.683
35.618
35.552
35.487
35.421
35.356
35.291
35.228
35.165
35.103
35.042
34.981
34.92
34.858
34.797
34.735
34.674
34.613
34.554
34.497
34.442
34.39
34.34
34.292
34.246
34.201
34.158
34.116
34.076
34.037
33.999
33.963
33.928
33.894
33.861
33.829
33.798
33.767
33.737
33.707
33.676
33.644
33.612
33.579
33.546
33.513
33.481
33.449
33.418
33.387
33.357
33.327
33.297
33.268
33.24
33.212
33.185
33.159
33.133
33.108
33.084
33.062
33.04
33.02
33.001
32.984
32.969
32.955
32.942
32.928
32.914
32.898
32.882
32.864
32.845
32.825
32.805
32.785
32.764
32.744
32.724
32.706
32.689
32.672
32.657
32.641
32.625
32.609
32.592
32.575
32.557
32.538
32.519
32.499
32.478
32.455
32.431
32.406
32.379
32.35
32.319
32.287
32.253
32.218
32.181
32.142
32.103
32.064
32.025
31.987
31.949
31.913
31.879
31.849
31.822
31.799
31.78
31.766
31.759
31.759
31.769
31.792
31.829
31.882
31.956
32.051
32.171
32.319
32.494
32.699
32.933
33.196
33.485
33.799
34.134
34.486
34.851
35.223
35.598
35.969
36.334
36.688
37.029
37.352
37.656
37.94
38.203
38.444
38.664
38.863
39.041
39.198
39.334
39.449
39.544
39.621
39.679
39.719
39.745
39.756
39.754
39.741
39.718
39.685
39.642
39.592
39.533
39.467
39.394
39.316
39.232
39.145
39.055
38.962
38.868
38.772
38.676
38.579
38.481
38.383
38.284
38.186
38.089
37.992
37.897
37.802
37.709
37.616
37.523
37.431
37.34
37.249
37.158
37.068
36.979
36.893
36.811
36.734
36.663
36.6
36.545
36.5
36.465
36.44
36.425
36.421
36.425
36.438
36.456
36.48
36.508
36.539
36.571
36.604
36.636
36.667
36.694
36.719
36.74
36.757
36.769
36.777
36.779
36.777
36.771
36.761
36.747
36.731
36.713
36.694
36.674
36.653
36.63
36.606
36.579
36.549
36.515
36.478
36.436
36.389
36.337
36.28
36.22
36.156
36.089
36.021
35.952
35.884
35.816
35.749
35.683
35.619
35.556
35.495
35.435
35.376
35.318
35.261
35.205
35.148
35.092
35.037
34.981
34.925
34.868
34.809
34.749
34.688
34.627
34.566
34.505
34.445
34.388
34.332
34.278
34.226
34.177
34.131
34.087
34.044
34.004
33.967
33.932
33.899
33.869
33.841
33.815
33.789
33.764
33.738
33.712
33.686
33.658
33.629
33.599
33.567
33.534
33.501
33.465
33.429
33.392
33.354
33.317
33.281
33.247
33.214
33.182
33.153
33.125
33.099
33.075
33.052
33.03
33.008
32.986
32.964
32.942
32.92
32.898
32.876
32.855
32.834
32.813
32.792
32.772
32.752
32.732
32.712
32.692
32.672
32.651
32.63
32.609
32.587
32.565
32.542
32.52
32.498
32.476
32.454
32.432
32.41
32.388
32.366
32.343
32.319
32.295
32.27
32.245
32.22
32.194
32.168
32.142
32.116
32.089
32.061
32.033
32.005
31.975
31.944
31.912
31.879
31.844
31.809
31.773
31.737
31.701
31.665
31.631
31.597
31.565
31.535
31.51
31.488
31.472
31.462
31.458
31.462
31.477
31.503
31.543
31.601
31.679
31.779
31.904
32.055
32.233
32.439
32.672
32.929
33.209
33.509
33.825
34.155
34.493
34.836
35.18
35.521
35.855
36.178
36.487
36.78
37.055
37.311
37.545
37.758
37.949
38.118
38.264
38.39
38.494
38.579
38.646
38.695
38.728
38.746
38.75
38.741
38.72
38.687
38.645
38.593
38.533
38.466
38.393
38.313
38.229
38.141
38.05
37.957
37.861
37.764
37.665
37.565
37.463
37.361
37.257
37.152
37.047
36.943
36.84
36.738
36.638
36.541
36.446
36.354
36.266
36.18
36.098
36.02
35.946
35.876
35.811
35.751
35.698
35.651
35.611
35.579
35.555
35.539
35.529
35.527
35.53
35.538
35.55
35.566
35.584
35.605
35.627
35.649
35.672
35.695
35.719
35.742
35.765
35.787
35.807
35.826
35.842
35.856
35.866
35.873
35.876
35.875
35.87
35.862
35.849
35.833
35.812
35.787
35.758
35.725
35.687
35.644
35.598
35.548
35.496
35.442
35.387
35.333
35.28
35.228
35.177
35.129
35.082
35.037
34.994
34.952
34.911
34.869
34.828
34.784
34.74
34.694
34.645
34.594
34.54
34.483
34.424
34.364
34.302
34.241
34.18
34.121
34.064
34.009
33.957
33.907
33.858
33.811
33.764
33.717
33.67
33.623
33.577
33.532
33.489
33.447
33.407
33.37
33.334
33.301
33.27
33.24
33.212
33.186
33.161
33.137
33.114
33.092
33.07
33.049
33.027
33.004
32.98
32.956
32.93
32.903
32.877
32.85
32.824
32.798
32.773
32.747
32.722
32.697
32.673
32.649
32.626
32.604
32.582
32.561
32.541
32.522
32.503
32.484
32.466
32.447
32.429
32.412
32.395
32.379
32.363
32.348
32.333
32.319
32.305
32.291
32.277
32.264
32.251
32.238
32.227
32.216
32.206
32.196
32.187
32.177
32.167
32.155
32.142
32.127
32.11
32.092
32.072
32.052
32.03
32.007
31.984
31.96
31.936
31.912
31.888
31.864
31.841
31.817
31.792
31.765
31.737
31.707
31.675
31.641
31.605
31.567
31.529
31.49
31.451
31.414
31.377
31.343
31.311
31.283
31.258
31.237
31.22
31.208
31.201
31.2
31.205
31.219
31.241
31.275
31.321
31.384
31.465
31.566
31.69
31.838
32.009
32.202
32.417
32.652
32.902
33.165
33.437
33.714
33.994
34.273
34.547
34.813
35.07
35.315
35.547
35.764
35.965
36.148
36.314
36.463
36.593
36.707
36.805
36.889
36.958
37.015
37.06
37.093
37.117
37.13
37.134
37.128
37.113
37.089
37.055
37.011
36.958
36.897
36.827
36.751
36.668
36.581
36.491
36.398
36.303
36.208
36.114
36.021
35.929
35.839
35.751
35.665
35.581
35.499
35.418
35.34
35.262
35.186
35.11
35.035
34.961
34.888
34.817
34.75
34.687
34.629
34.578
34.534
34.499
34.472
34.455
34.447
34.447
34.455
34.47
34.49
34.516
34.546
34.58
34.617
34.656
34.696
34.737
34.778
34.818
34.856
34.892
34.924
34.954
34.979
35.001
35.018
35.032
35.043
35.052
35.058
35.062
35.064
35.063
35.059
35.051
35.04
35.026
35.008
34.986
34.961
34.932
34.9
34.864
34.825
34.782
34.736
34.687
34.636
34.585
34.533
34.481
34.432
34.384
34.338
34.294
34.253
34.212
34.173
34.134
34.094
34.053
34.011
33.967
33.922
33.876
33.83
33.783
33.737
33.691
33.646
33.601
33.558
33.515
33.474
33.435
33.397
33.36
33.324
33.289
33.254
33.22
33.186
33.152
33.119
33.088
33.058
33.03
33.004
32.981
32.96
32.941
32.924
32.908
32.892
32.877
32.861
32.846
32.83
32.814
32.797
32.78
32.761
32.741
32.721
32.699
32.676
32.653
32.629
32.607
32.585
32.565
32.547
32.53
32.514
32.5
32.486
32.474
32.462
32.451
32.44
32.431
32.421
32.413
32.404
32.395
32.385
32.376
32.366
32.356
32.346
32.336
32.325
32.314
32.303
32.29
32.276
32.261
32.245
32.227
32.209
32.19
32.171
32.154
32.137
32.121
32.107
32.093
32.079
32.065
32.049
32.032
32.012
31.99
31.966
31.938
31.908
31.876
31.842
31.807
31.771
31.736
31.703
31.673
31.645
31.621
31.602
31.586
31.575
31.568
31.567
31.57
31.582
31.602
31.633
31.678
31.739
31.818
31.917
32.036
32.178
32.341
32.525
32.729
32.953
33.194
33.449
33.716
33.991
34.272
34.555
34.835
35.111
35.378
35.635
35.879
36.11
36.325
36.524
36.707
36.874
37.023
37.156
37.272
37.372
37.456
37.526
37.581
37.623
37.652
37.669
37.675
37.67
37.656
37.632
37.601
37.563
37.519
37.47
37.416
37.359
37.299
37.236
37.171
37.104
37.036
36.967
36.898
36.83
36.762
36.695
36.629
36.564
36.5
36.437
36.374
36.312
36.25
36.187
36.124
36.06
35.995
35.929
35.862
35.796
35.732
35.67
35.612
35.559
35.51
35.468
35.431
35.401
35.378
35.363
35.355
35.354
35.359
35.37
35.386
35.406
35.429
35.455
35.483
35.513
35.543
35.572
35.601
35.627
35.652
35.674
35.694
35.712
35.728
35.741
35.752
35.761
35.767
35.772
35.774
35.773
35.769
35.762
35.75
35.734
35.714
35.69
35.663
35.633
35.6
35.565
35.53
35.493
35.456
35.419
35.38
35.342
35.302
35.262
35.221
35.18
35.139
35.098
35.057
35.016
34.976
34.937
34.898
34.86
34.82
34.78
34.738
34.696
34.652
34.608
34.563
34.518
34.473
34.429
34.385
34.342
34.3
34.259
34.219
34.18
34.143
34.108
34.075
34.044
34.016
33.989
33.965
33.943
33.922
33.901
33.881
33.861
33.842
33.822
33.802
33.782
33.76
33.739
33.715
33.691
33.664
33.637
33.608
33.577
33.546
33.514
33.481
33.449
33.417
33.387
33.358
33.331
33.305
33.281
33.258
33.236
33.214
33.193
33.173
33.154
33.135
33.117
33.1
33.083
33.068
33.053
33.04
33.028
33.017
33.007
32.999
32.991
32.984
32.978
32.971
32.964
32.957
32.948
32.939
32.928
32.915
32.902
32.888
32.873
32.857
32.841
32.824
32.806
32.789
32.771
32.753
32.734
32.716
32.698
32.68
32.662
32.645
32.627
32.609
32.59
32.57
32.549
32.525
32.5
32.474
32.447
32.42
32.393
32.366
32.339
32.314
32.289
32.266
32.246
32.228
32.213
32.201
32.193
32.189
32.19
32.196
32.21
32.232
32.266
32.313
32.377
32.459
32.562
32.687
32.834
33.004
33.197
33.411
33.644
33.895
34.16
34.436
34.72
35.009
35.299
35.588
35.873
36.152
36.421
36.679
36.925
37.157
37.374
37.575
37.76
37.928
38.079
38.213
38.329
38.429
38.512
38.578
38.629
38.665
38.688
38.697
38.694
38.681
38.658
38.626
38.587
38.542
38.491
38.434
38.373
38.308
38.24
38.168
38.094
38.018
37.94
37.861
37.782
37.703
37.625
37.548
37.473
37.398
37.325
37.252
37.18
37.107
37.034
36.961
36.888
36.815
36.745
36.676
36.611
36.55
36.493
36.442
36.397
36.359
36.327
36.302
36.285
36.274
36.271
36.274
36.283
36.298
36.318
36.342
36.369
36.399
36.431
36.463
36.494
36.524
36.553
36.579
36.603
36.625
36.644
36.661
36.676
36.689
36.7
36.71
36.717
36.723
36.725
36.724
36.718
36.708
36.692
36.67
36.643
36.611
36.574
36.532
36.486
36.437
36.386
36.333
36.279
36.226
36.175
36.126
36.081
36.04
36.003
35.971
35.943
35.918
35.896
35.875
35.856
35.835
35.812
35.785
35.753
35.715
35.669
35.617
35.556
35.489
35.416
35.339
35.26
35.178
35.097
35.017
34.94
34.866
34.795
34.73
34.669
34.615
34.567
34.526
34.494
34.469
34.454
34.448
34.45
34.46
34.478
34.503
34.534
34.569
34.608
34.647
34.685
34.721
34.752
34.777
34.796
34.807
34.811
34.807
34.796
34.778
34.754
34.725
34.691
34.653
34.613
34.572
34.529
34.485
34.442
34.398
34.354
34.309
34.263
34.217
34.169
34.119
34.068
34.016
33.962
33.907
33.852
33.798
33.745
33.695
33.647
33.603
33.564
33.53
33.502
33.481
33.466
33.458
33.457
33.461
33.469
33.479
33.489
33.499
33.505
33.506
33.5
33.487
33.466
33.437
33.4
33.357
33.307
33.252
33.193
33.131
33.068
33.004
32.941
32.88
32.82
32.762
32.707
32.653
32.601
32.55
32.499
32.449
32.399
32.35
32.303
32.257
32.214
32.174
32.138
32.104
32.074
32.047
32.024
32.004
31.988
31.977
31.969
31.966
31.969
31.977
31.992
32.015
32.047
32.09
32.145
32.214
32.3
32.405
32.529
32.674
32.842
33.033
33.247
33.482
33.736
34.007
34.291
34.586
34.888
35.194
35.5
35.804
36.103
36.394
36.676
36.945
37.202
37.444
37.671
37.88
38.07
38.242
38.394
38.525
38.635
38.724
38.792
38.84
38.869
38.878
38.869
38.843
38.802
38.746
38.677
38.597
38.508
38.411
38.308
38.2
38.09
37.978
37.867
37.757
37.651
37.55
37.453
37.363
37.278
37.2
37.127
37.06
36.997
36.939
36.883
36.83
36.778
36.726
36.675
36.625
36.576
36.529
36.485
36.443
36.405
36.371
36.342
36.318
36.299
36.285
36.276
36.272
36.27
36.272
36.275
36.279
36.283
36.286
36.287
36.287
36.283
36.277
36.269
36.257
36.244
36.23
36.215
36.201
36.187
36.176
36.167
36.16
36.157
36.156
36.158
36.163
36.169
36.176
36.184
36.19
36.194
36.196
36.195
36.19
36.181
36.168
36.152
36.133
36.112
36.089
36.067
36.044
36.022
36.0
35.98
35.96
35.942
35.924
35.907
35.889
35.872
35.855
35.838
35.823
35.809
35.796
35.784
35.773
35.762
35.75
35.737
35.721
35.702
35.679
35.651
35.618
35.579
35.534
35.484
35.429
35.37
35.306
35.238
35.168
35.094
35.018
34.94
34.86
34.78
34.7
34.62
34.542
34.467
34.394
34.326
34.261
34.199
34.142
34.088
34.037
33.991
33.949
33.911
33.878
33.85
33.826
33.808
33.793
33.783
33.776
33.771
33.768
33.765
33.762
33.759
33.755
33.751
33.746
33.74
33.734
33.728
33.72
33.712
33.702
33.689
33.674
33.654
33.63
33.601
33.567
33.526
33.478
33.424
33.364
33.299
33.228
33.155
33.079
33.003
32.928
32.855
32.786
32.72
32.66
32.605
32.555
32.51
32.47
32.433
32.4
32.37
32.343
32.319
32.298
32.28
32.266
32.254
32.244
32.237
32.23
32.225
32.219
32.213
32.206
32.197
32.187
32.175
32.162
32.148
32.133
32.117
32.101
32.084
32.067
32.051
32.035
32.02
32.006
31.993
31.981
31.971
31.962
31.957
31.957
31.963
31.977
32.003
32.043
32.097
32.168
32.257
32.364
32.488
32.63
32.787
32.958
33.141
33.333
33.533
33.738
33.944
34.149
34.351
34.548
34.737
34.916
35.085
35.242
35.386
35.516
35.631
35.73
35.814
35.884
35.939
35.981
36.011
36.029
36.037
36.034
36.021
36.0
35.971
35.935
35.892
35.844
35.79
35.733
35.672
35.607
35.54
35.471
35.4
35.328
35.255
35.182
35.108
35.035
34.963
34.891
34.82
34.75
34.681
34.614
34.549
34.487
34.427
34.37
34.316
34.267
34.222
34.181
34.146
34.115
34.09
34.071
34.058
34.052
34.052
34.06
34.074
34.096
34.125
34.16
34.2
34.245
34.294
34.346
34.401
34.459
34.518
34.58
34.644
34.708
34.774
34.84
34.906
34.971
35.034
35.095
35.153
35.209
35.261
35.311
35.356
35.398
35.437
35.471
35.5
35.525
35.545
35.559
35.567
35.57
35.566
35.556
35.537
35.511
35.477
35.433
35.38
35.316
35.242
35.157
35.061
34.954
34.838
34.712
34.58
34.442
34.303
34.165
34.032
33.906
33.791
33.688
33.6
33.526
33.466
33.42
33.386
33.363
33.348
33.339
33.336
33.336
33.337
33.338
33.338
33.335
33.33
33.32
33.307
33.291
33.271
33.249
33.225
33.2
33.175
33.15
33.126
33.104
33.084
33.065
33.049
33.034
33.021
33.009
32.999
32.989
32.981
32.974
32.968
32.963
32.96
32.958
32.957
32.957
32.958
32.961
32.965
32.972
32.981
32.993
33.009
33.028
33.052
33.081
33.115
33.154
33.199
33.249
33.304
33.365
33.429
33.498
33.57
33.644
33.717
33.788
33.854
33.914
33.965
34.008
34.041
34.066
34.083
34.093
34.098
34.098
34.097
34.094
34.091
34.091
34.095
34.104
34.122
34.149
34.187
34.237
34.299
34.373
34.459
34.557
34.664
34.779
34.9
35.023
35.146
35.267
35.381
35.488
35.583
35.667
35.737
35.793
35.835
35.863
35.876
35.875
35.862
35.835
35.798
35.75
35.693
35.63
35.561
35.489
35.416
35.344
35.274
35.208
35.146
35.088
35.035
34.985
34.939
34.895
34.852
34.81
34.768
34.726
34.682
34.637
34.591
34.543
34.494
34.444
34.393
34.342
34.292
34.243
34.196
34.152
34.112
34.079
34.055
34.04
34.037
34.046
34.069
34.103
34.151
34.209
34.277
34.353
34.433
34.517
34.602
34.688
34.771
34.851
34.927
34.998
35.064
35.123
35.176
35.223
35.264
35.299
35.328
35.354
35.375
35.394
35.411
35.426
35.441
35.455
35.468
35.478
35.486
35.492
35.494
35.493
35.488
35.479
35.465
35.447
35.425
35.398
35.367
35.333
35.295
35.254
35.212
35.168
35.122
35.075
35.027
34.978
34.927
34.874
34.82
34.763
34.704
34.643
34.578
34.51
34.439
34.365
34.288
34.207
34.124
34.039
33.953
33.866
33.78
33.695
33.613
33.535
33.462
33.395
33.334
33.28
33.233
33.194
33.16
33.132
33.11
33.091
33.077
33.067
33.058
33.051
33.045
33.039
33.034
33.029
33.025
33.022
33.02
33.019
33.019
33.019
33.021
33.023
33.024
33.027
33.029
33.032
33.036
33.042
33.048
33.055
33.063
33.072
33.081
33.091
33.1
33.108
33.115
33.119
33.121
33.12
33.115
33.107
33.096
33.083
33.067
33.05
33.031
33.012
32.992
32.974
32.956
32.94
32.926
32.914
32.904
32.896
32.89
32.884
32.878
32.871
32.864
32.856
32.847
32.838
32.83
32.823
32.818
32.817
32.82
32.829
32.845
32.868
32.9
32.941
32.994
33.061
33.142
33.239
33.354
33.488
33.641
33.815
34.007
34.219
34.449
34.696
34.957
35.23
35.511
35.799
36.087
36.373
36.652
36.921
37.177
37.416
37.637
37.837
38.014
38.167
38.296
38.401
38.48
38.536
38.569
38.58
38.57
38.542
38.497
38.437
38.366
38.284
38.195
38.1
38.0
37.898
37.793
37.687
37.581
37.474
37.367
37.261
37.156
37.053
36.952
36.853
36.759
36.669
36.585
36.508
36.439
36.377
36.321
36.274
36.232
36.196
36.165
36.138
36.113
36.091
36.07
36.051
36.032
36.014
35.997
35.981
35.968
35.956
35.947
35.942
35.941
35.944
35.952
35.964
35.981
36.004
36.03
36.06
36.093
36.128
36.163
36.198
36.233
36.267
36.3
36.333
36.365
36.399
36.433
36.468
36.506
36.546
36.59
36.637
36.688
36.742
36.802
36.864
36.93
36.997
37.063
37.127
37.184
37.234
37.274
37.304
37.321
37.326
37.319
37.299
37.269
37.229
37.181
37.126
37.065
37.001
36.935
36.868
36.801
36.737
36.674
36.613
36.553
36.495
36.438
36.381
36.325
36.269
36.213
36.158
36.103
36.049
35.995
35.943
35.892
35.841
35.791
35.742
35.693
35.645
35.596
35.547
35.497
35.446
35.394
35.339
35.283
35.224
35.163
35.1
35.035
34.97
34.903
34.837
34.772
34.708
34.645
34.586
34.529
34.477
34.428
34.384
34.343
34.306
34.273
34.242
34.215
34.189
34.165
34.141
34.118
34.094
34.069
34.044
34.017
33.989
33.96
33.928
33.896
33.862
33.826
33.79
33.754
33.717
33.681
33.645
33.61
33.575
33.542
33.51
33.48
33.452
33.426
33.404
33.386
33.371
33.36
33.354
33.351
33.351
33.355
33.362
33.371
33.382
33.393
33.406
33.418
33.43
33.441
33.452
33.463
33.474
33.486
33.499
33.515
33.534
33.557
33.585
33.619
33.661
33.712
33.773
33.847
33.933
34.034
34.15
34.282
34.43
34.592
34.769
34.959
35.16
35.369
35.586
35.807
36.031
36.254
36.475
36.691
36.901
37.103
37.296
37.477
37.647
37.804
37.948
38.077
38.19
38.289
38.371
38.437
38.487
38.522
38.541
38.545
38.536
38.514
38.48
38.437
38.386
38.329
38.267
38.202
38.137
38.071
38.006
37.943
37.883
37.826
37.772
37.721
37.674
37.63
