Trial 3:3back
34.609
34.547
34.488
34.43
34.375
34.321
34.268
34.217
34.167
34.119
34.073
34.03
33.99
33.952
33.916
33.881
33.848
33.815
33.783
33.751
33.719
33.687
33.655
33.623
33.591
33.559
33.527
33.495
33.464
33.433
33.403
33.374
33.346
33.319
33.292
33.268
33.244
33.222
33.201
33.181
33.163
33.145
33.128
33.111
33.095
33.078
33.061
33.044
33.026
33.007
32.986
32.965
32.942
32.917
32.892
32.865
32.838
32.812
32.785
32.76
32.736
32.715
32.698
32.688
32.685
32.694
32.717
32.759
32.822
32.911
33.026
33.173
33.35
33.561
33.804
34.079
34.383
34.715
35.069
35.443
35.831
36.229
36.63
37.029
37.42
37.798
38.158
38.495
38.806
39.087
39.336
39.553
39.737
39.888
40.006
40.093
40.15
40.178
40.181
40.16
40.119
40.061
39.987
39.902
39.807
39.706
39.599
39.49
39.379
39.268
39.158
39.05
38.945
38.842
38.742
38.645
38.551
38.46
38.372
38.288
38.207
38.129
38.053
37.98
37.909
37.839
37.769
37.698
37.627
37.554
37.479
37.402
37.325
37.247
37.168
37.09
37.014
36.939
36.869
36.803
36.743
36.691
36.646
36.609
36.581
36.561
36.549
36.544
36.545
36.551
36.562
36.575
36.591
36.607
36.623
36.638
36.65
36.658
36.662
36.662
36.657
36.647
36.632
36.613
36.589
36.561
36.529
36.494
36.455
36.412
36.366
36.317
36.265
36.209
36.149
36.086
36.02
35.95
35.878
35.803
35.726
35.648
35.569
35.489
35.41
35.33
35.252
35.174
35.098
35.023
34.95
34.879
34.809
34.741
34.675
34.61
34.548
34.488
34.43
34.373
34.319
34.267
34.216
34.168
34.121
34.076
34.033
33.992
33.952
33.914
33.876
33.839
33.804
33.769
33.736
33.704
33.673
33.642
33.611
33.582
33.553
33.524
33.497
33.47
33.444
33.418
33.394
33.37
33.347
33.324
33.301
33.278
33.254
33.231
33.207
33.184
33.16
33.137
33.113
33.089
33.064
33.039
33.013
32.986
32.959
32.93
32.9
32.868
32.836
32.802
32.768
32.733
32.698
32.663
32.629
32.596
32.565
32.537
32.514
32.498
32.49
32.494
32.513
32.55
32.609
32.693
32.805
32.947
33.121
33.327
33.566
33.835
34.133
34.458
34.806
35.172
35.551
35.938
36.327
36.713
37.09
37.454
37.798
38.12
38.415
38.682
38.919
39.124
39.297
39.437
39.545
39.622
39.669
39.687
39.679
39.647
39.594
39.521
39.433
39.331
39.219
39.098
38.971
38.841
38.708
38.576
38.444
38.315
38.188
38.065
37.945
37.828
37.715
37.604
37.496
37.39
37.286
37.183
37.081
36.981
36.881
36.782
36.684
36.587
36.491
36.397
36.304
36.212
36.123
36.036
35.952
35.872
35.797
35.727
35.663
35.605
35.554
35.509
35.473
35.444
35.423
35.409
35.403
35.402
35.407
35.416
35.43
35.446
35.463
35.481
35.499
35.516
35.532
35.544
35.554
35.56
35.563
35.561
35.554
35.542
35.525
35.502
35.473
35.439
35.399
35.353
35.301
35.244
35.182
35.116
35.047
34.975
34.901
34.826
34.75
34.674
34.597
34.52
34.443
34.365
34.288
34.213
34.138
34.065
33.993
33.924
33.855
33.789
33.724
33.661
33.599
33.538
33.479
33.42
33.363
33.307
33.253
33.201
33.151
33.102
33.055
33.011
32.968
32.928
32.892
32.857
32.826
32.797
32.77
32.744
32.721
32.698
32.677
32.657
32.638
32.62
32.602
32.584
32.567
32.55
32.534
32.518
32.503
32.487
32.472
32.458
32.443
32.428
32.414
32.399
32.384
32.368
32.351
32.335
32.318
32.3
32.283
32.266
32.249
32.234
32.222
32.215
32.213
32.221
32.241
32.276
32.328
32.402
32.499
32.624
32.777
32.962
33.179
33.428
33.707
34.015
34.35
34.707
35.083
35.471
35.867
36.266
36.662
37.049
37.422
37.777
38.109
38.414
38.692
38.938
39.153
39.334
39.483
39.599
39.684
39.739
39.766
39.768
39.748
39.707
39.648
39.575
39.488
39.392
39.287
39.176
39.061
38.942
38.821
38.7
38.578
38.457
38.337
38.22
38.105
37.993
37.884
37.777
37.672
37.57
37.469
37.369
37.269
37.17
37.071
36.972
36.873
36.774
36.676
36.579
36.483
36.39
36.299
36.212
36.129
36.051
35.979
35.914
35.855
35.804
35.761
35.727
35.7
35.682
35.671
35.668
35.671
35.679
35.693
35.71
35.73
35.752
35.773
35.794
35.813
35.831
35.845
35.857
35.867
35.873
35.875
35.873
35.866
35.854
35.837
35.813
35.784
35.748
35.708
35.662
35.611
35.555
35.495
35.432
35.367
35.299
35.229
35.158
35.085
35.012
34.94
34.867
34.795
34.723
34.652
34.582
34.513
34.445
34.378
34.311
34.246
34.181
34.117
34.054
33.992
33.931
33.871
33.812
33.755
33.699
33.646
33.595
33.547
33.501
33.458
33.418
33.38
33.345
33.313
33.281
33.252
33.223
33.194
33.166
33.138
33.109
33.081
33.052
33.024
32.996
32.968
32.941
32.914
32.887
32.861
32.835
32.81
32.784
32.76
32.736
32.713
32.691
32.671
32.652
32.636
32.62
32.605
32.591
32.578
32.564
32.55
32.536
32.52
32.503
32.484
32.463
32.44
32.416
32.39
32.363
32.336
32.31
32.286
32.268
32.256
32.253
32.263
32.289
32.334
32.402
32.497
32.621
32.777
32.968
33.193
33.454
33.75
34.077
34.435
34.818
35.223
35.643
36.073
36.507
36.939
37.363
37.773
38.165
38.534
38.874
39.183
39.457
39.695
39.897
40.061
40.189
40.281
40.34
40.368
40.368
40.343
40.294
40.225
40.139
40.039
39.927
39.805
39.677
39.543
39.405
39.266
39.127
38.988
38.851
38.716
38.585
38.457
38.334
38.215
38.099
37.988
37.88
37.775
37.673
37.573
37.475
37.377
37.279
37.182
37.083
36.984
36.884
36.783
36.683
36.583
36.486
36.392
36.302
36.218
36.14
36.071
36.01
35.958
35.915
35.88
35.854
35.835
35.824
35.82
35.822
35.829
35.84
35.855
35.872
35.89
35.907
35.924
35.94
35.953
35.965
35.973
35.978
35.98
35.978
35.972
35.962
35.947
35.927
35.9
35.869
35.83
35.787
35.737
35.682
35.622
35.558
35.49
35.417
35.342
35.264
35.184
35.102
35.02
34.937
34.853
34.77
34.687
34.604
34.522
34.44
34.358
34.278
34.198
34.12
34.044
33.969
33.898
33.829
33.762
33.698
33.637
33.579
33.523
33.47
33.42
33.371
33.324
33.279
33.234
33.191
33.149
33.107
33.067
33.028
32.99
32.953
32.919
32.885
32.853
32.822
32.791
32.761
32.732
32.704
32.677
32.65
32.624
32.598
32.573
32.548
32.523
32.498
32.473
32.449
32.424
32.4
32.375
32.35
32.324
32.298
32.272
32.247
32.221
32.196
32.172
32.15
32.132
32.119
32.114
32.118
32.137
32.172
32.227
32.306
32.412
32.548
32.714
32.912
33.143
33.406
33.7
34.023
34.371
34.741
35.128
35.527
35.933
36.339
36.74
37.131
37.505
37.857
38.184
38.482
38.748
38.981
39.18
39.344
39.474
39.57
39.634
39.667
39.671
39.65
39.605
39.54
39.458
39.36
39.25
39.13
39.002
38.868
38.73
38.591
38.451
38.312
38.174
38.04
37.908
37.78
37.654
37.532
37.412
37.294
37.177
37.062
36.948
36.835
36.723
36.611
36.5
36.39
36.28
36.171
36.065
35.96
35.859
35.761
35.669
35.584
35.505
35.433
35.37
35.314
35.267
35.228
35.198
35.177
35.164
35.16
35.162
35.171
35.185
35.203
35.225
35.25
35.277
35.304
35.332
35.36
35.386
35.41
35.432
35.451
35.465
35.475
35.48
35.48
35.474
35.462
35.445
35.422
35.393
35.359
35.32
35.275
35.225
35.171
35.112
35.05
34.985
34.918
34.848
34.776
34.703
34.628
34.552
34.476
34.399
34.322
34.245
34.168
34.09
34.013
33.937
33.862
33.789
33.717
33.648
33.581
33.517
33.455
33.396
33.339
33.285
33.233
33.184
33.138
33.093
33.051
33.011
32.972
32.934
32.898
32.863
32.829
32.796
32.764
32.734
32.704
32.676
32.65
32.626
32.604
32.583
32.564
32.546
32.529
32.512
32.496
32.48
32.464
32.448
32.431
32.414
32.397
32.38
32.362
32.345
32.328
32.311
32.293
32.276
32.258
32.238
32.218
32.197
32.175
32.154
32.132
32.111
32.092
32.074
32.059
32.048
32.043
32.046
32.061
32.089
32.136
32.204
32.298
32.42
32.573
32.759
32.981
33.237
33.529
33.855
34.212
34.598
35.007
35.434
35.875
36.323
36.771
37.214
37.646
38.062
38.455
38.822
39.158
39.461
39.728
39.958
40.15
40.306
40.425
40.51
40.562
40.584
40.578
40.546
40.493
40.42
40.331
40.227
40.111
39.985
39.852
39.714
39.572
39.428
39.284
39.141
39.0
38.86
38.724
38.592
38.462
38.337
38.216
38.098
37.984
37.873
37.765
37.659
37.554
37.452
37.351
37.25
37.151
37.052
36.954
36.857
36.761
36.667
36.576
36.489
36.405
36.326
36.253
36.186
36.126
36.073
36.028
35.99
35.961
35.938
35.923
35.914
35.912
35.915
35.924
35.936
35.952
35.97
35.99
36.011
36.032
36.052
36.071
36.088
36.103
36.113
36.119
36.119
36.114
36.103
36.086
36.064
36.037
36.005
35.969
35.928
35.883
35.835
35.782
35.727
35.667
35.604
35.538
35.469
35.397
35.324
35.249
35.173
35.096
35.019
34.941
34.863
34.786
34.709
34.634
34.559
34.486
34.413
34.341
34.269
34.198
34.128
34.06
33.993
33.928
33.865
33.803
33.743
33.685
33.628
33.574
33.522
33.473
33.426
33.383
33.342
33.304
33.27
33.238
33.208
33.18
33.154
33.129
33.105
33.081
33.058
33.034
33.009
32.982
32.955
32.926
32.897
32.868
32.839
32.811
32.783
32.756
32.729
32.703
32.678
32.652
32.627
32.602
32.577
32.551
32.525
32.499
32.473
32.447
32.422
32.399
32.378
32.361
32.348
32.343
32.346
32.361
32.391
32.439
32.508
32.602
32.725
32.878
33.064
33.285
33.54
33.829
34.152
34.504
34.883
35.283
35.702
36.131
36.567
37.003
37.432
37.85
38.25
38.626
38.976
39.294
39.579
39.827
40.038
40.212
40.35
40.452
40.52
40.557
40.566
40.548
40.507
40.446
40.367
40.274
40.169
40.054
39.932
39.804
39.673
39.54
39.406
39.273
39.14
39.009
38.88
38.754
38.632
38.513
38.398
38.286
38.178
38.073
37.971
37.869
37.769
37.669
37.568
37.468
37.366
37.265
37.163
37.062
36.963
36.865
36.772
36.682
36.598
36.52
36.449
36.385
36.329
36.281
36.241
36.208
36.183
36.165
36.154
36.148
36.148
36.152
36.16
36.17
36.183
36.197
36.213
36.229
36.243
36.256
36.266
36.273
36.277
36.276
36.271
36.262
36.248
36.229
36.205
36.176
36.142
36.103
36.061
36.014
35.964
35.911
35.854
35.794
35.731
35.665
35.596
35.524
35.45
35.374
35.297
35.219
35.141
35.064
34.988
34.913
34.839
34.767
34.697
34.628
34.56
34.494
34.43
34.366
34.304
34.243
34.183
34.124
34.065
34.008
33.952
33.898
33.845
33.795
33.748
33.703
33.662
33.625
33.59
33.557
33.525
33.496
33.467
33.44
33.412
33.384
33.356
33.327
33.297
33.267
33.236
33.206
33.175
33.146
33.117
33.09
33.064
33.04
33.017
32.996
32.975
32.955
32.936
32.917
32.898
32.88
32.86
32.84
32.819
32.796
32.771
32.745
32.718
32.69
32.662
32.635
32.609
32.588
32.571
32.563
32.566
32.584
32.618
32.675
32.755
32.864
33.005
33.179
33.388
33.633
33.913
34.227
34.573
34.947
35.345
35.762
36.192
36.629
37.068
37.501
37.923
38.328
38.711
39.068
39.393
39.685
39.941
40.159
40.339
40.481
40.586
40.656
40.693
40.698
40.676
40.628
40.558
40.469
40.363
40.242
40.111
39.97
39.822
39.67
39.514
39.357
39.199
39.042
38.887
38.735
38.587
38.442
38.301
38.165
38.034
37.908
37.786
37.667
37.553
37.441
37.332
37.224
37.119
37.014
36.91
36.807
36.705
36.605
36.506
36.411
36.32
36.234
36.154
36.082
36.017
35.961
35.914
35.877
35.85
35.831
35.822
35.822
35.829
35.843
35.863
35.888
35.916
35.947
35.98
36.013
36.046
36.077
36.106
36.132
36.154
36.172
36.185
36.193
36.194
36.19
36.18
36.163
36.141
36.113
36.078
36.038
35.992
35.94
35.884
35.823
35.759
35.692
35.622
35.549
35.475
35.399
35.321
35.242
35.161
35.081
34.999
34.919
34.838
34.759
34.681
34.605
34.53
34.457
34.385
34.315
34.247
34.181
34.117
34.053
33.991
33.93
33.87
33.812
33.756
33.701
33.648
33.597
33.547
33.499
33.452
33.407
33.363
33.321
33.281
33.243
33.206
33.172
33.139
33.108
33.08
33.053
33.027
33.002
32.977
32.954
32.931
32.909
32.888
32.868
32.849
32.83
32.813
32.797
32.783
32.769
32.756
32.744
32.731
32.718
32.703
32.688
32.671
32.653
32.635
32.614
32.593
32.571
32.548
32.524
32.5
32.476
32.453
32.431
32.412
32.396
32.385
32.381
32.386
32.405
32.439
32.493
32.571
32.676
32.811
32.98
33.184
33.424
33.699
34.008
34.349
34.72
35.114
35.529
35.959
36.397
36.837
37.273
37.699
38.11
38.499
38.863
39.197
39.498
39.765
39.994
40.187
40.342
40.46
40.543
40.592
40.61
40.6
40.563
40.504
40.425
40.328
40.217
40.095
39.963
39.824
39.679
39.531
39.381
39.23
39.08
38.933
38.789
38.649
38.514
38.383
38.256
38.133
38.013
37.896
37.781
37.668
37.557
37.445
37.333
37.222
37.11
36.998
36.887
36.777
36.668
36.561
36.458
36.36
36.267
36.18
36.101
36.031
35.969
35.918
35.877
35.846
35.824
35.812
35.809
35.813
35.824
35.839
35.859
35.882
35.906
35.931
35.957
35.982
36.005
36.025
36.043
36.057
36.066
36.072
36.073
36.069
36.06
36.045
36.026
36.0
35.969
35.933
35.89
35.842
35.789
35.731
35.669
35.602
35.531
35.457
35.38
35.3
35.218
35.135
35.05
34.965
34.88
34.796
34.714
34.633
34.554
34.477
34.403
34.331
34.261
34.193
34.127
34.061
33.997
33.934
33.872
33.812
33.754
33.697
33.642
33.59
33.539
33.49
33.443
33.399
33.356
33.316
33.278
33.242
33.208
33.176
33.146
33.118
33.092
33.066
33.042
33.019
32.997
32.977
32.957
32.939
32.921
32.904
32.887
32.871
32.854
32.837
32.82
32.803
32.785
32.767
32.75
32.732
32.714
32.696
32.677
32.658
32.639
32.618
32.596
32.572
32.546
32.519
32.49
32.461
32.433
32.407
32.385
32.369
32.362
32.367
32.387
32.425
32.485
32.571
32.685
32.832
33.012
33.228
33.48
33.767
34.087
34.437
34.813
35.209
35.621
36.043
36.469
36.893
37.309
37.711
38.094
38.454
38.786
39.088
39.356
39.59
39.787
39.948
40.074
40.165
40.223
40.25
40.247
40.217
40.163
40.087
39.994
39.884
39.763
39.631
39.491
39.345
39.196
39.045
38.894
38.742
38.592
38.444
38.299
38.156
38.017
37.882
37.751
37.624
37.5
37.38
37.261
37.145
37.029
36.915
36.802
36.689
36.577
36.467
36.359
36.254
36.152
36.055
35.963
35.878
35.799
35.729
35.669
35.617
35.577
35.546
35.526
35.516
35.516
35.524
35.54
35.562
35.59
35.622
35.657
35.695
35.734
35.772
35.81
35.847
35.88
35.91
35.935
35.955
35.97
35.98
35.983
35.981
35.973
35.96
35.94
35.915
35.884
35.848
35.807
35.76
35.709
35.653
35.593
35.53
35.465
35.398
35.329
35.259
35.188
35.116
35.043
34.97
34.897
34.824
34.752
34.681
34.61
34.54
34.47
34.401
34.333
34.266
34.2
34.136
34.073
34.011
33.952
33.894
33.839
33.787
33.736
33.688
33.642
33.598
33.557
33.518
33.481
33.446
33.413
33.381
33.35
33.32
33.291
33.262
33.234
33.207
33.18
33.154
33.129
33.107
33.086
33.067
33.049
33.031
33.013
32.995
32.975
32.955
32.934
32.913
32.892
32.872
32.852
32.834
32.816
32.8
32.784
32.767
32.752
32.736
32.721
32.707
32.696
32.688
32.688
32.696
32.718
32.756
32.814
32.896
33.007
33.15
33.327
33.541
33.792
34.081
34.407
34.767
35.157
35.574
36.012
36.465
36.928
37.392
37.852
38.302
38.735
39.145
39.529
39.883
40.203
40.487
40.734
40.943
41.114
41.247
41.343
41.405
41.435
41.435
41.408
41.358
41.287
41.197
41.091
40.972
40.843
40.705
40.561
40.413
40.262
40.11
39.958
39.808
39.66
39.516
39.374
39.237
39.103
38.972
38.845
38.722
38.602
38.485
38.371
38.259
38.15
38.042
37.935
37.829
37.724
37.62
37.518
37.417
37.317
37.22
37.126
37.036
36.951
36.873
36.803
36.741
36.687
36.644
36.61
36.585
36.569
36.561
36.561
36.567
36.578
36.594
36.613
36.635
36.657
36.679
36.7
36.719
36.734
36.746
36.754
36.757
36.756
36.749
36.737
36.719
36.697
36.668
36.633
36.592
36.545
36.493
36.436
36.374
36.308
36.238
36.165
36.089
36.01
35.929
35.845
35.76
35.673
35.585
35.496
35.407
35.316
35.226
35.136
35.047
34.959
34.873
34.788
34.706
34.625
34.545
34.468
34.392
34.317
34.245
34.174
34.106
34.04
33.977
33.915
33.857
33.8
33.747
33.696
33.648
33.602
33.558
33.518
33.479
33.443
33.408
33.375
33.343
33.312
33.281
33.251
33.221
33.192
33.163
33.135
33.107
33.08
33.053
33.026
33.0
32.974
32.948
32.923
32.898
32.874
32.851
32.828
32.805
32.783
32.76
32.738
32.715
32.693
32.67
32.647
32.626
32.606
32.59
32.579
32.576
32.585
32.609
32.65
32.714
32.804
32.923
33.074
33.26
33.482
33.741
34.036
34.365
34.727
35.116
35.53
35.961
36.405
36.856
37.306
37.751
38.183
38.597
38.988
39.352
39.685
39.982
40.243
40.466
40.649
40.795
40.903
40.975
41.014
41.021
41.0
40.954
40.884
40.794
40.687
40.567
40.436
40.295
40.149
39.997
39.842
39.686
39.53
39.376
39.224
39.075
38.93
38.788
38.65
38.517
38.388
38.263
38.141
38.022
37.905
37.79
37.676
37.562
37.448
37.334
37.221
37.108
36.997
36.888
36.78
36.676
36.576
36.481
36.391
36.308
36.232
36.164
36.105
36.055
36.014
35.983
35.96
35.945
35.938
35.937
35.943
35.953
35.968
35.986
36.007
36.029
36.052
36.073
36.094
36.111
36.124
36.133
36.135
36.131
36.121
36.105
36.083
36.055
36.022
35.983
35.938
35.889
35.834
35.774
35.71
35.642
35.57
35.495
35.417
35.337
35.255
35.171
35.087
35.001
34.915
34.828
34.742
34.657
34.572
34.489
34.407
34.327
34.249
34.172
34.097
34.023
33.951
33.88
33.81
33.742
33.675
33.609
33.545
33.483
33.423
33.364
33.307
33.253
33.199
33.148
33.098
33.05
33.003
32.959
32.917
32.876
32.836
32.798
32.761
32.726
32.691
32.658
32.625
32.593
32.562
32.531
32.501
32.472
32.443
32.415
32.387
32.36
32.332
32.304
32.277
32.249
32.221
32.193
32.165
32.137
32.108
32.079
32.05
32.02
31.989
31.959
31.93
31.903
31.88
31.864
31.857
31.863
31.886
31.93
31.998
32.094
32.221
32.381
32.577
32.809
33.077
33.381
33.718
34.086
34.48
34.897
35.329
35.773
36.221
36.667
37.105
37.528
37.931
38.308
38.655
38.968
39.245
39.483
39.681
39.84
39.96
40.042
40.089
40.102
40.084
40.04
39.972
39.883
39.777
39.657
39.525
39.384
39.236
39.084
38.928
38.772
38.615
38.461
38.308
38.159
38.013
37.87
37.73
37.593
37.456
37.32
37.184
37.047
36.908
36.768
36.627
36.484
36.339
36.194
36.047
35.9
35.754
35.609
35.467
35.329
35.196
35.068
34.947
34.833
34.727
34.63
34.54
34.46
34.387
34.323
34.266
34.216
34.173
34.135
34.102
34.073
34.047
34.023
34.001
33.98
33.96
33.939
33.919
33.898
33.876
33.852
33.827
33.798
33.767
33.733
33.695
33.652
33.605
33.554
33.497
33.437
33.373
33.306
33.237
33.165
33.093
33.019
32.945
32.87
32.796
32.722
32.648
32.575
32.503
32.431
32.36
32.289
32.218
32.148
32.077
32.007
31.938
31.87
31.803
31.738
31.675
31.613
31.554
31.498
31.444
31.393
31.345
31.299
31.256
31.215
31.177
31.14
31.106
31.074
31.045
31.017
30.991
30.966
30.943
30.921
30.9
30.88
30.86
30.841
30.823
30.806
30.791
30.777
30.764
30.753
30.743
30.735
30.728
30.722
30.715
30.709
30.703
30.696
30.689
30.68
30.669
30.657
30.644
30.63
30.616
30.603
30.591
30.581
30.576
30.577
30.589
30.615
30.658
30.723
30.814
30.933
31.085
31.273
31.498
31.762
32.065
32.406
32.781
33.189
33.625
34.084
34.561
35.049
35.541
36.033
36.516
36.984
37.433
37.855
38.249
38.608
38.932
39.217
39.463
39.67
39.838
39.969
40.064
40.126
40.157
40.16
40.136
40.09
40.023
39.94
39.842
39.733
39.615
39.491
39.362
39.23
39.098
38.965
38.834
38.704
38.577
38.453
38.333
38.216
38.102
37.991
37.883
37.777
37.672
37.569
37.466
37.363
37.259
37.153
37.045
36.936
36.826
