Trial 3:3back
36.365
36.31
36.257
36.204
36.151
36.099
36.045
35.991
35.934
35.876
35.816
35.755
35.694
35.633
35.573
35.514
35.458
35.405
35.356
35.31
35.267
35.227
35.19
35.155
35.12
35.086
35.05
35.014
34.976
34.938
34.899
34.859
34.82
34.782
34.745
34.709
34.674
34.639
34.605
34.572
34.541
34.511
34.481
34.453
34.426
34.401
34.379
34.359
34.34
34.322
34.305
34.288
34.27
34.252
34.233
34.214
34.193
34.172
34.151
34.13
34.109
34.088
34.068
34.05
34.032
34.014
33.995
33.978
33.962
33.947
33.932
33.917
33.9
33.882
33.863
33.842
33.82
33.797
33.772
33.747
33.723
33.699
33.677
33.657
33.64
33.624
33.611
33.6
33.59
33.58
33.57
33.558
33.545
33.531
33.514
33.496
33.476
33.454
33.43
33.406
33.381
33.356
33.332
33.31
33.289
33.269
33.251
33.233
33.216
33.198
33.18
33.16
33.138
33.114
33.087
33.059
33.029
32.999
32.97
32.945
32.926
32.916
32.918
32.936
32.972
33.03
33.114
33.225
33.364
33.534
33.734
33.964
34.22
34.502
34.804
35.125
35.459
35.802
36.151
36.5
36.844
37.18
37.502
37.806
38.089
38.346
38.577
38.779
38.952
39.096
39.213
39.304
39.373
39.423
39.456
39.477
39.487
39.49
39.488
39.483
39.477
39.469
39.461
39.452
39.443
39.434
39.425
39.415
39.404
39.393
39.38
39.366
39.351
39.335
39.316
39.297
39.279
39.262
39.247
39.236
39.228
39.222
39.217
39.212
39.206
39.197
39.183
39.163
39.136
39.103
39.063
39.016
38.961
38.9
38.834
38.763
38.689
38.614
38.539
38.465
38.395
38.329
38.27
38.217
38.17
38.129
38.094
38.065
38.042
38.022
38.004
37.988
37.973
37.958
37.943
37.926
37.909
37.89
37.871
37.852
37.831
37.81
37.788
37.765
37.742
37.717
37.691
37.662
37.631
37.596
37.559
37.52
37.477
37.431
37.383
37.334
37.283
37.231
37.178
37.124
37.069
37.014
36.958
36.901
36.842
36.782
36.72
36.657
36.593
36.529
36.466
36.404
36.343
36.284
36.227
36.172
36.118
36.065
36.012
35.959
35.906
35.852
35.799
35.747
35.697
35.648
35.6
35.554
35.509
35.466
35.426
35.389
35.353
35.317
35.282
35.245
35.206
35.166
35.122
35.075
35.026
34.976
34.925
34.875
34.828
34.783
34.743
34.709
34.678
34.652
34.629
34.607
34.586
34.564
34.542
34.517
34.492
34.465
34.436
34.406
34.376
34.345
34.314
34.284
34.255
34.228
34.203
34.179
34.157
34.136
34.117
34.099
34.082
34.064
34.045
34.026
34.005
33.983
33.959
33.935
33.91
33.884
33.857
33.829
33.798
33.767
33.735
33.704
33.674
33.645
33.619
33.595
33.573
33.555
33.539
33.525
33.512
33.501
33.491
33.481
33.471
33.461
33.45
33.438
33.426
33.412
33.398
33.382
33.365
33.346
33.326
33.305
33.283
33.26
33.236
33.211
33.185
33.158
33.131
33.105
33.079
33.055
33.031
33.009
32.988
32.968
32.949
32.932
32.916
32.904
32.895
32.89
32.891
32.899
32.918
32.949
32.997
33.064
33.152
33.265
33.404
33.569
33.761
33.98
34.223
34.49
34.777
35.082
35.401
35.73
36.063
36.397
36.724
37.04
37.341
37.622
37.88
38.113
38.319
38.498
38.649
38.774
38.874
38.95
39.004
39.038
39.054
39.054
39.042
39.02
38.989
38.952
38.912
38.87
38.829
38.788
38.75
38.713
38.679
38.648
38.618
38.588
38.559
38.531
38.502
38.473
38.445
38.417
38.388
38.359
38.329
38.298
38.263
38.225
38.183
38.136
38.083
38.025
37.962
37.894
37.823
37.751
37.68
37.613
37.549
37.487
37.428
37.371
37.315
37.261
37.208
37.157
37.11
37.067
37.028
36.996
36.969
36.947
36.932
36.923
36.92
36.923
36.928
36.936
36.946
36.955
36.963
36.969
36.972
36.973
36.971
36.968
36.961
36.953
36.942
36.929
36.912
36.893
36.87
36.843
36.812
36.777
36.738
36.695
36.649
36.6
36.549
36.497
36.444
36.39
36.336
36.282
36.229
36.176
36.124
36.072
36.02
35.967
35.912
35.858
35.803
35.749
35.696
35.645
35.595
35.546
35.498
35.451
35.403
35.356
35.309
35.263
35.218
35.174
35.132
35.093
35.055
35.02
34.985
34.951
34.917
34.883
34.848
34.812
34.774
34.735
34.695
34.654
34.613
34.573
34.535
34.498
34.463
34.431
34.402
34.376
34.352
34.33
34.309
34.288
34.268
34.247
34.225
34.203
34.181
34.158
34.136
34.114
34.093
34.073
34.053
34.033
34.014
33.994
33.977
33.961
33.948
33.935
33.923
33.911
33.897
33.882
33.865
33.848
33.829
33.81
33.79
33.769
33.747
33.724
33.701
33.678
33.656
33.634
33.613
33.592
33.57
33.547
33.523
33.497
33.471
33.443
33.414
33.384
33.355
33.326
33.297
33.27
33.244
33.22
33.198
33.178
33.16
33.145
33.132
33.123
33.119
33.12
33.13
33.149
33.182
33.232
33.302
33.395
33.513
33.659
33.834
34.041
34.277
34.541
34.829
35.137
35.459
35.791
36.126
36.46
36.787
37.104
37.407
37.693
37.961
38.208
38.433
38.634
38.812
38.965
39.093
39.197
39.277
39.336
39.375
39.398
39.406
39.403
39.39
39.369
39.344
39.315
39.285
39.254
39.225
39.198
39.173
39.153
39.136
39.124
39.116
39.113
39.113
39.117
39.121
39.124
39.125
39.124
39.119
39.11
39.095
39.075
39.048
39.016
38.977
38.931
38.88
38.822
38.759
38.69
38.618
38.542
38.462
38.379
38.296
38.211
38.126
38.042
37.96
37.88
37.805
37.736
37.672
37.615
37.566
37.524
37.491
37.466
37.447
37.434
37.426
37.42
37.415
37.411
37.406
37.399
37.389
37.377
37.362
37.344
37.323
37.299
37.271
37.241
37.208
37.173
37.136
37.097
37.057
37.015
36.971
36.926
36.877
36.825
36.77
36.711
36.649
36.584
36.516
36.445
36.371
36.297
36.223
36.15
36.081
36.015
35.955
35.899
35.846
35.797
35.749
35.702
35.656
35.609
35.56
35.51
35.457
35.403
35.349
35.293
35.238
35.182
35.127
35.074
35.023
34.974
34.928
34.884
34.843
34.805
34.769
34.736
34.706
34.678
34.654
34.632
34.612
34.594
34.578
34.562
34.545
34.528
34.509
34.488
34.463
34.435
34.402
34.367
34.328
34.288
34.247
34.207
34.169
34.133
34.101
34.073
34.049
34.029
34.014
34.001
33.991
33.983
33.976
33.968
33.96
33.951
33.94
33.926
33.91
33.891
33.869
33.845
33.82
33.793
33.765
33.737
33.711
33.684
33.657
33.629
33.6
33.57
33.539
33.509
33.479
33.451
33.425
33.4
33.378
33.356
33.335
33.314
33.293
33.271
33.248
33.224
33.2
33.175
33.151
33.126
33.1
33.075
33.048
33.019
32.989
32.957
32.923
32.888
32.852
32.816
32.781
32.748
32.718
32.693
32.675
32.667
32.672
32.694
32.736
32.801
32.892
33.012
33.163
33.347
33.564
33.812
34.091
34.396
34.724
35.069
35.426
35.789
36.155
36.518
36.871
37.212
37.535
37.838
38.117
38.371
38.6
38.802
38.979
39.131
39.26
39.366
39.452
39.519
39.569
39.605
39.628
39.641
39.646
39.643
39.635
39.622
39.606
39.587
39.566
39.544
39.521
39.5
39.481
39.465
39.452
39.441
39.435
39.431
39.429
39.429
39.43
39.431
39.431
39.431
39.429
39.424
39.414
39.399
39.378
39.351
39.317
39.276
39.228
39.173
39.112
39.046
38.976
38.902
38.825
38.745
38.664
38.582
38.5
38.419
38.339
38.263
38.192
38.127
38.068
38.015
37.97
37.932
37.9
37.875
37.855
37.839
37.825
37.814
37.803
37.793
37.782
37.77
37.757
37.743
37.726
37.706
37.683
37.657
37.628
37.596
37.56
37.523
37.482
37.438
37.393
37.346
37.298
37.249
37.2
37.151
37.102
37.054
37.006
36.958
36.908
36.856
36.8
36.742
36.68
36.615
36.547
36.478
36.407
36.337
36.268
36.202
36.137
36.074
36.014
35.957
35.902
35.849
35.798
35.75
35.703
35.659
35.616
35.575
35.535
35.496
35.458
35.42
35.381
35.341
35.301
35.26
35.219
35.177
35.132
35.085
35.035
34.982
34.928
34.872
34.816
34.762
34.71
34.661
34.615
34.573
34.534
34.499
34.467
34.439
34.413
34.389
34.366
34.343
34.321
34.298
34.274
34.249
34.222
34.194
34.165
34.137
34.108
34.079
34.05
34.021
33.993
33.966
33.94
33.914
33.89
33.865
33.841
33.815
33.789
33.76
33.731
33.699
33.665
33.63
33.594
33.559
33.525
33.492
33.462
33.434
33.41
33.388
33.369
33.353
33.339
33.325
33.311
33.297
33.282
33.265
33.247
33.227
33.204
33.181
33.155
33.128
33.099
33.07
33.04
33.01
32.981
32.952
32.924
32.898
32.873
32.851
32.832
32.817
32.807
32.806
32.815
32.837
32.875
32.931
33.007
33.108
33.235
33.39
33.575
33.788
34.031
34.301
34.597
34.915
35.25
35.599
35.955
36.316
36.674
37.026
37.367
37.694
38.003
38.289
38.551
38.786
38.994
39.175
39.328
39.457
39.562
39.645
39.709
39.756
39.788
39.809
39.819
39.821
39.817
39.807
39.795
39.781
39.767
39.753
39.74
39.729
39.72
39.714
39.712
39.713
39.717
39.724
39.732
39.74
39.748
39.754
39.757
39.758
39.756
39.751
39.742
39.729
39.711
39.687
39.657
39.619
39.574
39.52
39.459
39.391
39.316
39.237
39.154
39.069
38.983
38.898
38.814
38.732
38.653
38.578
38.508
38.442
38.381
38.325
38.274
38.228
38.188
38.153
38.124
38.099
38.076
38.056
38.036
38.017
37.997
37.975
37.951
37.926
37.898
37.869
37.838
37.805
37.77
37.734
37.695
37.654
37.611
37.565
37.516
37.463
37.408
37.35
37.291
37.231
37.171
37.111
37.054
37.0
36.95
36.901
36.853
36.804
36.754
36.7
36.643
36.581
36.514
36.444
36.372
36.298
36.224
36.151
36.078
36.008
35.942
35.881
35.825
35.773
35.723
35.677
35.631
35.587
35.543
35.498
35.452
35.405
35.357
35.309
35.26
35.211
35.162
35.113
35.064
35.015
34.966
34.918
34.871
34.826
34.782
34.742
34.703
34.667
34.634
34.603
34.574
34.547
34.52
34.494
34.467
34.439
34.408
34.374
34.339
34.302
34.264
34.227
34.19
34.155
34.123
34.095
34.069
34.047
34.028
34.011
33.996
33.981
33.964
33.946
33.925
33.901
33.874
33.846
33.817
33.785
33.753
33.72
33.687
33.654
33.622
33.59
33.559
33.527
33.496
33.465
33.435
33.405
33.376
33.347
33.32
33.293
33.268
33.245
33.224
33.205
33.186
33.166
33.145
33.122
33.096
33.068
33.038
33.006
32.972
32.937
32.902
32.869
32.839
32.813
32.793
32.781
32.779
32.789
32.815
32.859
32.925
33.015
33.133
33.278
33.454
33.659
33.893
34.153
34.438
34.745
35.071
35.411
35.762
36.12
36.479
36.833
37.18
37.512
37.825
38.114
38.375
38.606
38.804
38.97
39.106
39.212
39.293
39.349
39.384
39.4
39.399
39.384
39.358
39.323
39.283
39.24
39.196
39.155
39.117
39.083
39.054
39.031
39.012
38.997
38.987
38.979
38.974
38.971
38.971
38.973
38.977
38.982
38.986
38.99
38.991
38.988
38.98
38.965
38.942
38.911
38.871
38.823
38.765
38.698
38.622
38.536
38.443
38.342
38.233
38.12
38.005
37.895
37.792
37.696
37.607
37.524
37.444
37.369
37.297
37.227
37.161
37.097
37.037
36.98
36.927
36.878
36.832
36.79
36.75
36.714
36.681
36.65
36.62
36.591
36.563
36.535
36.507
36.478
36.448
36.418
36.386
36.353
36.317
36.277
36.234
36.186
36.135
36.08
36.022
35.962
35.899
35.836
35.772
35.707
35.643
35.579
35.517
35.455
35.396
35.338
35.281
35.226
35.172
35.121
35.07
35.019
34.968
34.915
34.861
34.806
34.749
34.69
34.629
34.566
34.502
34.436
34.37
34.302
34.234
34.165
34.097
34.03
33.964
33.901
33.842
33.787
33.736
33.689
33.646
33.607
33.569
33.535
33.502
33.47
33.44
33.409
33.377
33.345
33.311
33.278
33.244
33.21
33.177
33.145
33.115
33.086
33.06
33.037
33.017
33.0
32.986
32.973
32.961
32.949
32.938
32.927
32.914
32.899
32.883
32.864
32.843
32.82
32.795
32.769
32.742
32.715
32.69
32.666
32.646
32.629
32.616
32.608
32.604
32.603
32.603
32.603
32.602
32.602
32.6
32.597
32.591
32.583
32.572
32.559
32.544
32.528
32.51
32.491
32.472
32.451
32.431
32.411
32.391
32.372
32.354
32.336
32.319
32.301
32.282
32.263
32.242
32.22
32.195
32.168
32.138
32.106
32.072
32.037
32.001
31.966
31.934
31.906
31.881
31.86
31.842
31.828
31.817
31.811
31.81
31.817
31.832
31.858
31.899
31.957
32.036
32.138
32.266
32.422
32.607
32.821
33.063
33.331
33.622
33.933
34.259
34.596
34.938
35.279
35.616
35.943
36.257
36.553
36.827
37.076
37.299
37.496
37.664
37.805
37.92
38.009
38.074
38.12
38.147
38.159
38.159
38.15
38.134
38.113
38.09
38.063
38.036
38.008
37.983
37.961
37.942
37.927
37.916
37.909
37.906
37.906
37.909
37.912
37.915
37.916
37.916
37.914
37.908
37.899
37.886
37.869
37.847
37.819
37.785
37.744
37.696
37.644
37.586
37.525
37.46
37.393
37.323
37.253
37.182
37.112
37.043
36.976
36.91
36.847
36.788
36.732
36.682
36.636
36.595
36.56
36.529
36.503
36.48
36.461
36.446
36.433
36.423
36.413
36.404
36.394
36.383
36.37
36.353
36.333
36.31
36.283
36.253
36.221
36.187
36.152
36.118
36.085
36.053
36.022
35.99
35.958
35.925
35.889
35.85
35.807
35.761
35.711
35.658
35.603
35.546
35.489
35.433
35.379
35.326
35.275
35.226
35.179
35.133
35.088
35.043
34.998
34.952
34.905
34.858
34.811
34.764
34.717
34.672
34.626
34.58
34.535
34.491
34.447
34.405
34.363
34.322
34.283
34.244
34.205
34.167
34.13
34.092
34.055
34.019
33.984
33.952
33.921
33.892
33.865
33.841
33.817
33.796
33.775
33.755
33.736
33.717
33.697
33.675
33.651
33.625
33.597
33.568
33.538
33.506
33.474
33.443
33.413
33.385
33.358
33.334
33.313
33.294
33.277
33.262
33.247
33.232
33.215
33.198
33.179
33.159
33.138
33.116
33.094
33.072
33.05
33.029
33.008
32.987
32.966
32.943
32.92
32.895
32.868
32.839
32.81
32.779
32.747
32.716
32.686
32.658
32.634
32.614
32.596
32.582
32.569
32.558
32.547
32.535
32.521
32.505
32.487
32.468
32.447
32.424
32.401
32.376
32.352
32.327
32.304
32.282
32.262
32.247
32.238
32.236
32.245
32.267
32.306
32.364
32.444
32.547
32.675
32.828
33.008
33.213
33.442
33.693
33.961
34.243
34.534
34.829
35.123
35.411
35.689
35.954
36.201
36.428
36.634
36.817
36.976
37.112
37.227
37.321
37.395
37.451
37.489
37.513
37.524
37.524
37.516
37.501
37.481
37.458
37.433
37.408
37.383
37.358
37.332
37.306
37.28
37.253
37.227
37.201
37.175
37.149
37.124
37.1
37.075
37.049
37.022
36.992
36.96
36.923
36.882
36.836
36.786
36.731
36.672
36.609
36.544
36.476
36.406
36.337
36.268
36.2
36.136
36.074
36.016
35.962
35.913
35.867
35.826
35.788
35.754
35.724
35.699
35.678
35.663
35.651
35.645
35.643
35.645
35.65
35.658
35.666
35.674
35.681
35.686
35.688
35.687
35.682
35.674
35.664
35.65
35.634
35.616
35.597
35.575
35.552
35.525
35.495
35.46
35.421
35.377
35.329
35.277
35.221
35.165
35.107
35.05
34.993
34.936
34.88
34.825
34.773
34.723
34.676
34.633
34.594
34.559
34.526
34.495
34.465
34.433
34.399
34.362
34.321
34.275
34.226
34.173
34.119
34.064
34.009
33.957
33.907
33.86
33.817
33.778
33.742
33.71
33.68
33.653
33.629
33.606
33.584
33.562
33.541
33.519
33.498
33.476
33.455
33.435
33.417
33.401
33.387
33.374
33.362
33.352
33.342
33.334
33.326
33.319
33.313
33.306
33.3
33.294
33.287
33.279
33.269
33.257
33.244
33.228
33.21
33.192
33.171
33.149
33.127
33.103
33.079
33.055
33.03
33.006
32.983
32.96
32.937
32.915
32.892
32.87
32.848
32.825
32.803
32.781
32.76
32.741
32.723
32.706
32.691
32.676
32.662
32.649
32.636
32.621
32.604
32.584
32.56
32.533
32.503
32.469
32.435
32.399
32.363
32.329
32.297
32.267
32.242
32.222
32.208
32.202
32.204
32.217
32.242
32.28
32.335
32.409
32.502
32.618
32.757
32.921
33.108
33.318
33.548
33.798
34.063
34.342
34.63
34.921
35.211
35.494
35.767
36.025
36.266
36.486
36.684
36.861
37.015
37.147
37.26
37.353
37.429
37.491
37.539
37.575
37.601
37.617
37.626
37.628
37.624
37.616
37.604
37.589
37.573
37.557
37.541
37.525
37.51
37.496
37.484
37.473
37.463
37.453
37.443
37.434
37.426
37.419
37.411
37.403
37.395
37.385
37.373
37.358
37.34
37.316
37.286
37.249
37.206
37.156
37.099
37.037
36.967
36.892
36.812
36.731
36.65
36.571
36.495
36.423
36.356
36.294
36.238
36.187
36.14
36.098
36.061
36.029
36.0
35.976
35.957
35.941
35.929
35.921
35.915
35.912
35.911
35.912
35.914
35.916
35.917
35.915
35.91
35.901
35.888
35.869
35.844
35.816
35.783
35.747
35.709
35.669
35.628
35.587
35.545
35.502
35.458
35.414
35.368
35.322
35.276
35.228
35.18
35.131
35.081
35.03
34.98
34.93
34.88
34.83
34.782
34.735
34.688
34.642
34.597
34.55
34.503
34.456
34.409
34.363
34.319
34.277
34.237
34.2
34.167
34.137
34.109
34.083
34.059
34.036
34.014
33.992
33.971
33.949
33.926
33.903
33.878
33.852
33.825
33.798
33.771
33.744
33.718
33.693
33.67
33.649
33.631
33.615
33.6
33.587
33.573
33.559
33.544
33.528
33.511
33.491
33.471
33.449
33.427
33.406
33.385
33.366
33.348
33.332
33.317
33.302
33.288
33.272
33.254
33.238
33.231
33.233
33.243
33.258
33.274
33.287
33.293
33.291
33.28
33.26
33.232
33.197
33.156
33.113
33.069
33.025
32.985
32.949
32.918
32.892
32.87
32.852
32.837
32.823
32.81
32.798
32.786
32.774
32.762
32.748
32.734
32.717
32.699
32.679
32.658
32.636
32.614
32.592
32.571
32.551
32.531
32.51
32.489
32.468
32.447
32.426
32.404
32.383
32.362
32.343
32.327
32.315
32.309
32.312
32.325
32.352
32.396
32.459
32.544
32.652
32.787
32.948
33.135
33.347
33.582
33.838
34.111
34.397
34.693
34.994
35.294
35.591
35.88
36.158
36.421
36.667
36.895
37.102
37.287
37.45
37.59
37.708
37.804
37.879
37.936
37.975
37.999
38.01
38.009
38.0
37.985
37.965
37.943
37.921
37.899
37.88
37.863
37.85
37.839
37.831
37.825
37.822
37.82
37.819
37.818
37.816
37.813
37.809
37.802
37.794
37.783
37.77
37.756
37.74
37.722
37.699
37.671
37.636
37.595
37.547
37.491
37.428
37.357
37.281
37.2
37.117
37.032
36.948
36.866
36.789
36.717
36.651
36.592
36.54
36.495
36.456
36.423
36.395
36.371
36.349
36.329
36.309
36.289
36.269
36.248
36.227
36.206
36.186
36.167
36.149
36.13
36.112
36.092
36.071
36.049
36.025
35.999
35.971
35.941
35.909
35.875
35.839
35.803
35.766
35.729
35.692
35.654
35.616
35.577
35.535
35.491
35.443
35.391
35.336
35.276
35.214
35.149
35.083
35.018
34.954
34.893
34.835
34.782
34.732
34.686
34.644
34.603
34.564
34.526
34.487
34.447
34.406
34.363
34.318
34.272
34.225
34.178
34.13
34.083
34.037
33.994
33.953
33.914
33.877
33.841
33.808
33.776
33.745
33.714
33.683
33.652
33.62
33.587
33.552
33.517
33.482
33.447
33.412
33.379
33.346
33.316
33.287
33.261
33.238
33.217
33.198
33.182
33.167
33.152
33.136
33.119
33.1
33.08
33.058
33.035
33.011
32.985
32.958
32.932
32.906
32.882
32.859
32.838
32.817
32.797
32.777
32.757
32.737
32.718
32.699
32.68
32.662
32.646
32.632
32.623
32.617
32.613
32.611
32.609
32.606
32.6
32.592
32.579
32.561
32.538
32.512
32.483
32.452
32.42
32.39
32.36
32.334
32.311
32.291
32.275
32.261
32.25
32.241
32.234
32.229
32.225
32.222
32.22
32.219
32.218
32.217
32.215
32.213
32.209
32.204
32.198
32.188
32.177
32.164
32.149
32.132
32.114
32.096
32.077
32.058
32.039
32.02
32.002
31.985
31.969
31.956
31.946
31.939
31.936
31.938
31.945
31.96
31.983
32.017
32.063
32.125
32.204
32.302
32.422
32.565
32.732
32.922
33.136
33.373
33.631
33.907
34.2
34.505
34.819
35.138
35.456
35.77
36.074
36.364
36.634
36.882
37.106
37.305
37.477
37.623
37.744
37.841
37.916
37.971
38.007
38.027
38.032
38.024
38.006
37.979
37.945
37.908
37.867
37.825
37.782
37.738
37.695
37.652
37.611
37.571
37.533
37.497
37.464
37.434
37.405
37.38
37.356
37.335
37.316
37.299
37.282
37.266
37.248
37.227
37.202
37.173
