Trial 3:3back
37.78
37.694
37.608
37.522
37.439
37.361
37.289
37.223
37.165
37.113
37.068
37.028
36.993
36.961
36.933
36.907
36.882
36.859
36.837
36.815
36.794
36.772
36.75
36.727
36.702
36.676
36.648
36.619
36.588
36.556
36.523
36.489
36.453
36.417
36.378
36.336
36.29
36.241
36.189
36.133
36.073
36.01
35.945
35.877
35.809
35.741
35.674
35.608
35.545
35.484
35.424
35.365
35.307
35.248
35.188
35.126
35.062
34.996
34.928
34.857
34.785
34.712
34.64
34.569
34.499
34.431
34.365
34.301
34.24
34.181
34.125
34.071
34.021
33.974
33.931
33.891
33.855
33.822
33.791
33.762
33.735
33.708
33.683
33.658
33.634
33.609
33.585
33.56
33.533
33.506
33.476
33.443
33.408
33.371
33.333
33.295
33.257
33.219
33.182
33.146
33.11
33.076
33.042
33.009
32.976
32.943
32.911
32.879
32.849
32.819
32.792
32.766
32.742
32.718
32.697
32.677
32.663
32.656
32.659
32.676
32.708
32.76
32.835
32.935
33.062
33.219
33.405
33.621
33.866
34.139
34.436
34.754
35.09
35.439
35.795
36.154
36.51
36.859
37.197
37.519
37.822
38.104
38.363
38.598
38.808
38.992
39.153
39.292
39.411
39.51
39.592
39.657
39.707
39.743
39.765
39.776
39.776
39.767
39.75
39.729
39.704
39.677
39.649
39.622
39.597
39.574
39.554
39.537
39.523
39.51
39.497
39.483
39.465
39.441
39.411
39.373
39.325
39.268
39.202
39.127
39.043
38.952
38.854
38.751
38.644
38.534
38.421
38.307
38.194
38.082
37.973
37.867
37.766
37.67
37.58
37.496
37.42
37.351
37.291
37.239
37.195
37.157
37.126
37.099
37.076
37.055
37.035
37.013
36.989
36.961
36.929
36.893
36.853
36.809
36.762
36.713
36.66
36.606
36.55
36.492
36.432
36.37
36.307
36.242
36.176
36.107
36.037
35.964
35.889
35.813
35.735
35.655
35.575
35.494
35.412
35.331
35.25
35.171
35.095
35.021
34.95
34.881
34.814
34.745
34.677
34.609
34.542
34.475
34.41
34.347
34.286
34.228
34.171
34.118
34.066
34.017
33.969
33.921
33.872
33.822
33.773
33.723
33.673
33.626
33.582
33.54
33.502
33.467
33.435
33.407
33.381
33.357
33.334
33.311
33.287
33.261
33.233
33.203
33.17
33.134
33.098
33.06
33.021
32.981
32.942
32.902
32.861
32.817
32.772
32.726
32.68
32.635
32.593
32.553
32.518
32.486
32.458
32.433
32.411
32.391
32.375
32.361
32.351
32.346
32.348
32.361
32.388
32.431
32.495
32.584
32.7
32.846
33.023
33.23
33.468
33.735
34.027
34.342
34.676
35.024
35.38
35.74
36.099
36.452
36.795
37.125
37.439
37.735
38.012
38.267
38.501
38.712
38.9
39.066
39.211
39.336
39.442
39.531
39.603
39.662
39.708
39.743
39.767
39.783
39.791
39.794
39.794
39.79
39.785
39.779
39.774
39.77
39.768
39.768
39.77
39.772
39.773
39.772
39.765
39.751
39.73
39.699
39.659
39.61
39.55
39.48
39.4
39.311
39.214
39.11
39.001
38.889
38.775
38.66
38.544
38.428
38.313
38.199
38.088
37.979
37.875
37.775
37.681
37.592
37.51
37.434
37.366
37.304
37.248
37.197
37.151
37.107
37.065
37.024
36.983
36.943
36.901
36.858
36.813
36.765
36.716
36.665
36.612
36.559
36.503
36.445
36.385
36.322
36.258
36.191
36.124
36.058
35.992
35.927
35.862
35.797
35.731
35.665
35.597
35.526
35.453
35.379
35.304
35.228
35.151
35.074
34.997
34.921
34.845
34.769
34.692
34.615
34.538
34.462
34.386
34.312
34.242
34.176
34.113
34.055
34.0
33.949
33.901
33.856
33.814
33.773
33.734
33.696
33.659
33.621
33.585
33.549
33.515
33.483
33.452
33.424
33.396
33.369
33.343
33.317
33.291
33.264
33.236
33.207
33.177
33.148
33.119
33.091
33.066
33.041
33.016
32.991
32.965
32.936
32.904
32.869
32.831
32.79
32.748
32.706
32.664
32.622
32.583
32.544
32.506
32.469
32.432
32.396
32.359
32.323
32.288
32.256
32.226
32.198
32.173
32.15
32.128
32.109
32.093
32.081
32.075
32.079
32.095
32.13
32.186
32.269
32.383
32.529
32.71
32.927
33.178
33.461
33.772
34.109
34.466
34.837
35.219
35.604
35.987
36.363
36.727
37.077
37.406
37.713
37.996
38.253
38.484
38.691
38.873
39.033
39.173
39.294
39.398
39.488
39.564
39.627
39.678
39.718
39.747
39.767
39.778
39.782
39.779
39.771
39.759
39.745
39.73
39.714
39.698
39.682
39.664
39.645
39.623
39.599
39.569
39.534
39.493
39.446
39.394
39.335
39.269
39.197
39.118
39.034
38.943
38.847
38.746
38.639
38.528
38.414
38.296
38.176
38.056
37.936
37.816
37.7
37.588
37.48
37.378
37.282
37.193
37.11
37.035
36.966
36.904
36.848
36.796
36.747
36.701
36.656
36.613
36.569
36.525
36.48
36.434
36.385
36.333
36.28
36.225
36.167
36.106
36.043
35.977
35.91
35.842
35.773
35.703
35.632
35.562
35.49
35.418
35.345
35.271
35.196
35.12
35.042
34.963
34.883
34.803
34.723
34.644
34.565
34.488
34.41
34.334
34.258
34.183
34.109
34.035
33.964
33.894
33.825
33.758
33.692
33.628
33.566
33.505
33.444
33.383
33.324
33.264
33.206
33.148
33.092
33.038
32.985
32.933
32.882
32.832
32.785
32.741
32.698
32.657
32.619
32.581
32.545
32.511
32.477
32.444
32.411
32.377
32.343
32.308
32.273
32.239
32.206
32.173
32.142
32.111
32.081
32.05
32.02
31.989
31.957
31.925
31.891
31.857
31.822
31.786
31.75
31.713
31.676
31.639
31.602
31.565
31.529
31.494
31.46
31.43
31.402
31.376
31.354
31.334
31.318
31.307
31.303
31.308
31.326
31.361
31.416
31.495
31.602
31.74
31.91
32.113
32.346
32.607
32.892
33.198
33.52
33.854
34.194
34.538
34.879
35.213
35.538
35.85
36.147
36.427
36.688
36.929
37.148
37.346
37.52
37.672
37.8
37.904
37.984
38.044
38.085
38.11
38.122
38.122
38.113
38.097
38.076
38.053
38.029
38.005
37.983
37.963
37.946
37.931
37.917
37.903
37.89
37.876
37.861
37.843
37.821
37.793
37.757
37.714
37.662
37.602
37.533
37.455
37.371
37.28
37.185
37.087
36.989
36.892
36.797
36.705
36.618
36.534
36.455
36.38
36.31
36.245
36.185
36.129
36.078
36.03
35.987
35.948
35.912
35.88
35.851
35.825
35.803
35.784
35.767
35.752
35.739
35.725
35.711
35.695
35.677
35.656
35.631
35.6
35.564
35.523
35.477
35.426
35.371
35.313
35.252
35.19
35.127
35.065
35.004
34.945
34.886
34.829
34.772
34.716
34.661
34.606
34.552
34.499
34.446
34.393
34.341
34.29
34.237
34.184
34.13
34.073
34.014
33.954
33.892
33.83
33.768
33.706
33.645
33.585
33.525
33.467
33.411
33.358
33.309
33.265
33.226
33.192
33.161
33.134
33.11
33.089
33.069
33.052
33.035
33.02
33.005
32.991
32.977
32.962
32.944
32.922
32.895
32.864
32.829
32.792
32.752
32.712
32.672
32.632
32.593
32.556
32.522
32.491
32.462
32.435
32.41
32.387
32.364
32.341
32.319
32.298
32.278
32.258
32.238
32.22
32.202
32.185
32.169
32.157
32.148
32.144
32.149
32.163
32.191
32.236
32.301
32.39
32.505
32.647
32.816
33.013
33.234
33.478
33.74
34.016
34.303
34.597
34.894
35.19
35.483
35.77
36.048
36.316
36.57
36.807
37.027
37.228
37.407
37.566
37.703
37.821
37.918
37.998
38.06
38.107
38.141
38.163
38.175
38.18
38.177
38.168
38.154
38.136
38.114
38.089
38.064
38.037
38.011
37.986
37.961
37.937
37.915
37.893
37.871
37.846
37.818
37.784
37.743
37.692
37.632
37.561
37.482
37.393
37.298
37.197
37.092
36.986
36.88
36.776
36.676
36.581
36.494
36.414
36.343
36.28
36.225
36.179
36.139
36.106
36.078
36.054
36.033
36.012
35.991
35.967
35.943
35.917
35.89
35.862
35.834
35.806
35.778
35.749
35.721
35.691
35.66
35.628
35.593
35.557
35.517
35.475
35.431
35.383
35.334
35.282
35.23
35.176
35.122
35.068
35.012
34.956
34.9
34.843
34.786
34.728
34.669
34.61
34.55
34.49
34.431
34.371
34.312
34.252
34.191
34.13
34.068
34.007
33.946
33.887
33.828
33.769
33.711
33.653
33.595
33.537
33.48
33.424
33.37
33.317
33.267
33.22
33.176
33.136
33.098
33.061
33.025
32.99
32.958
32.927
32.899
32.873
32.85
32.83
32.812
32.795
32.779
32.763
32.747
32.731
32.713
32.693
32.672
32.648
32.622
32.593
32.563
32.53
32.496
32.459
32.422
32.383
32.344
32.306
32.268
32.23
32.192
32.155
32.12
32.087
32.055
32.025
31.997
31.97
31.945
31.92
31.898
31.878
31.86
31.846
31.837
31.837
31.846
31.868
31.905
31.96
32.035
32.133
32.256
32.404
32.578
32.777
33.002
33.249
33.516
33.8
34.098
34.406
34.72
35.036
35.35
35.658
35.955
36.239
36.507
36.757
36.989
37.202
37.395
37.569
37.722
37.856
37.971
38.068
38.147
38.21
38.257
38.292
38.316
38.332
38.34
38.344
38.344
38.342
38.34
38.338
38.336
38.335
38.335
38.334
38.332
38.327
38.319
38.306
38.288
38.264
38.233
38.195
38.151
38.1
38.044
37.983
37.917
37.847
37.775
37.7
37.622
37.542
37.461
37.377
37.293
37.207
37.12
37.033
36.947
36.863
36.782
36.704
36.632
36.565
36.503
36.446
36.396
36.35
36.311
36.277
36.246
36.22
36.196
36.17
36.137
36.094
36.043
35.985
35.921
35.855
35.789
35.725
35.666
35.614
35.568
35.529
35.497
35.47
35.447
35.426
35.406
35.384
35.358
35.327
35.289
35.243
35.19
35.131
35.066
34.996
34.923
34.848
34.773
34.697
34.623
34.549
34.478
34.409
34.342
34.276
34.212
34.15
34.089
34.03
33.972
33.915
33.859
33.805
33.753
33.703
33.656
33.611
33.567
33.523
33.48
33.435
33.391
33.346
33.302
33.258
33.216
33.175
33.135
33.098
33.062
33.027
32.992
32.958
32.924
32.889
32.856
32.823
32.793
32.765
32.74
32.716
32.693
32.669
32.646
32.623
32.6
32.577
32.555
32.534
32.514
32.495
32.477
32.458
32.439
32.418
32.395
32.369
32.342
32.314
32.284
32.254
32.224
32.193
32.161
32.13
32.1
32.072
32.045
32.02
31.996
31.972
31.948
31.922
31.896
31.868
31.838
31.808
31.777
31.746
31.715
31.686
31.658
31.632
31.606
31.581
31.558
31.536
31.516
31.5
31.486
31.477
31.473
31.475
31.486
31.508
31.544
31.599
31.675
31.776
31.904
32.06
32.246
32.461
32.703
32.97
33.259
33.566
33.889
34.223
34.567
34.915
35.264
35.61
35.947
36.271
36.577
36.862
37.124
37.362
37.573
37.756
37.912
38.042
38.146
38.228
38.289
38.332
38.36
38.377
38.385
38.387
38.386
38.383
38.379
38.376
38.373
38.371
38.37
38.37
38.37
38.369
38.368
38.366
38.361
38.354
38.342
38.326
38.304
38.277
38.245
38.206
38.162
38.113
38.06
38.003
37.943
37.881
37.815
37.748
37.679
37.607
37.533
37.456
37.377
37.297
37.215
37.132
37.05
36.97
36.895
36.825
36.763
36.707
36.658
36.616
36.58
36.548
36.521
36.495
36.47
36.446
36.421
36.395
36.367
36.336
36.304
36.269
36.233
36.196
36.157
36.118
36.077
36.034
35.991
35.946
35.9
35.853
35.804
35.753
35.7
35.645
35.587
35.526
35.463
35.398
35.33
35.261
35.192
35.122
35.054
34.987
34.922
34.859
34.798
34.738
34.679
34.621
34.562
34.504
34.446
34.387
34.327
34.266
34.205
34.145
34.086
34.028
33.971
33.915
33.86
33.805
33.751
33.697
33.644
33.591
33.539
33.488
33.438
33.39
33.344
33.3
33.261
33.224
33.191
33.16
33.133
33.107
33.083
33.06
33.038
33.017
32.996
32.975
32.953
32.93
32.907
32.882
32.856
32.83
32.801
32.771
32.74
32.706
32.672
32.639
32.605
32.572
32.54
32.508
32.476
32.445
32.414
32.382
32.349
32.315
32.28
32.243
32.205
32.166
32.126
32.085
32.044
32.001
31.959
31.919
31.88
31.843
31.808
31.775
31.745
31.717
31.693
31.674
31.662
31.659
31.667
31.689
31.727
31.784
31.863
31.966
32.094
32.248
32.43
32.639
32.874
33.133
33.413
33.713
34.028
34.354
34.686
35.019
35.348
35.669
35.978
36.273
36.549
36.805
37.04
37.253
37.441
37.605
37.747
37.865
37.962
38.04
38.1
38.144
38.174
38.193
38.201
38.202
38.197
38.189
38.178
38.166
38.154
38.141
38.13
38.119
38.108
38.096
38.082
38.067
38.05
38.031
38.008
37.983
37.952
37.917
37.877
37.83
37.777
37.718
37.653
37.582
37.506
37.426
37.341
37.254
37.165
37.074
36.982
36.892
36.804
36.72
36.64
36.565
36.495
36.43
36.369
36.314
36.262
36.215
36.172
36.133
36.096
36.063
36.031
36.001
35.971
35.942
35.912
35.881
35.848
35.814
35.778
35.74
35.702
35.664
35.627
35.591
35.556
35.523
35.492
35.461
35.428
35.392
35.352
35.306
35.254
35.196
35.133
35.066
34.995
34.921
34.845
34.77
34.695
34.622
34.552
34.484
34.418
34.355
34.294
34.236
34.179
34.124
34.07
34.016
33.963
33.912
33.862
33.814
33.768
33.724
33.682
33.64
33.597
33.554
33.509
33.463
33.416
33.368
33.32
33.273
33.229
33.189
33.153
33.121
33.094
33.07
33.048
33.028
33.009
32.991
32.974
32.957
32.94
32.925
32.91
32.897
32.884
32.872
32.86
32.848
32.835
32.822
32.809
32.796
32.784
32.772
32.758
32.742
32.722
32.698
32.671
32.642
32.61
32.577
32.542
32.508
32.473
32.439
32.406
32.375
32.345
32.318
32.294
32.273
32.254
32.239
32.227
32.217
32.211
32.206
32.205
32.206
32.214
32.23
32.259
32.301
32.362
32.444
32.551
32.684
32.844
33.031
33.244
33.482
33.742
34.022
34.317
34.626
34.943
35.266
35.588
35.907
36.216
36.514
36.796
37.059
37.302
37.524
37.722
37.896
38.046
38.173
38.277
38.36
38.423
38.468
38.495
38.506
38.504
38.49
38.466
38.434
38.396
38.355
38.312
38.27
38.229
38.19
38.155
38.124
38.097
38.073
38.05
38.027
38.001
37.971
37.934
37.89
37.839
37.779
37.711
37.634
37.552
37.463
37.371
37.276
37.181
37.087
36.997
36.913
36.834
36.761
36.696
36.636
36.582
36.534
36.491
36.453
36.419
36.389
36.364
36.342
36.324
36.31
36.298
36.289
36.282
36.275
36.27
36.264
36.259
36.252
36.244
36.233
36.218
36.198
36.172
36.141
36.103
36.06
36.013
35.964
35.913
35.862
35.811
35.763
35.716
35.67
35.626
35.581
35.537
35.491
35.444
35.394
35.342
35.288
35.231
35.173
35.112
35.05
34.986
34.921
34.856
34.792
34.729
34.668
34.609
34.552
34.495
34.44
34.385
34.331
34.277
34.224
34.171
34.12
34.072
34.025
33.982
33.942
33.905
33.871
33.838
33.807
33.776
33.745
33.715
33.684
33.655
33.628
33.601
33.575
33.55
33.525
33.499
33.473
33.447
33.419
33.39
33.359
33.328
33.296
33.263
33.229
33.196
33.164
33.132
33.101
33.071
33.042
33.014
32.988
32.963
32.937
32.91
32.882
32.852
32.821
32.79
32.76
32.732
32.706
32.684
32.667
32.655
32.65
32.652
32.665
32.691
32.734
32.796
32.882
32.994
33.133
33.3
33.495
33.717
33.964
34.234
34.523
34.83
35.15
35.48
35.815
36.151
36.482
36.805
37.116
37.412
37.69
37.946
38.179
38.386
38.566
38.719
38.848
38.953
39.036
39.1
39.147
39.179
39.2
39.211
39.213
39.211
39.204
39.195
39.183
39.17
39.153
39.135
39.114
39.092
39.069
39.046
39.025
39.005
38.984
38.963
38.94
38.914
38.884
38.85
38.809
38.76
38.703
38.638
38.563
38.479
38.388
38.292
38.193
38.091
37.988
37.886
37.787
37.692
37.603
37.52
37.443
37.372
37.306
37.245
37.188
37.135
37.086
37.039
36.996
36.956
36.921
36.888
36.857
36.828
36.8
36.772
36.744
36.715
36.686
36.656
36.624
36.592
36.558
36.524
36.488
36.451
36.411
36.368
36.321
36.269
36.212
36.15
36.083
36.011
35.937
35.861
35.786
35.711
35.638
35.569
35.502
35.438
35.376
35.315
35.254
35.193
35.131
35.066
34.999
34.931
34.861
34.79
34.72
34.65
34.581
34.514
34.448
34.383
34.318
34.253
34.188
34.123
34.06
33.998
33.937
33.878
33.82
33.766
33.714
33.665
33.617
33.571
33.527
33.486
33.446
33.408
33.374
33.342
33.312
33.284
33.258
33.233
33.21
33.188
33.166
33.145
33.123
33.1
33.076
33.05
33.021
32.991
32.96
32.928
32.895
32.863
32.83
32.798
32.766
32.734
32.701
32.668
32.634
32.6
32.567
32.533
32.502
32.472
32.445
32.421
32.399
32.379
32.36
32.342
32.325
32.308
32.292
32.278
32.265
32.255
32.249
32.25
32.262
32.289
32.334
32.401
32.494
32.615
32.766
32.949
33.162
33.406
33.678
33.974
34.292
34.626
34.973
35.328
35.688
36.047
36.402
36.748
37.081
37.396
37.691
37.962
38.209
38.429
38.623
38.79
38.93
39.045
39.138
39.211
39.267
39.308
39.336
39.355
39.366
39.371
39.371
39.368
39.362
39.355
39.347
39.337
39.327
39.315
39.303
39.291
39.279
39.267
39.254
39.241
39.227
39.211
39.191
39.165
39.13
39.088
39.036
38.976
38.907
38.832
38.749
38.66
38.566
38.468
38.368
38.266
38.165
38.066
37.97
37.877
37.788
37.702
37.62
37.541
37.466
37.395
37.328
37.266
37.207
37.152
37.102
37.057
37.016
36.979
36.945
36.915
36.886
36.857
36.827
36.795
36.761
36.723
36.681
36.636
36.586
36.532
36.475
36.414
36.35
36.285
36.218
36.152
36.087
36.022
35.958
35.894
35.832
35.769
35.706
35.643
35.578
35.511
35.443
35.372
35.3
35.228
35.155
35.082
35.01
34.938
34.868
34.798
34.727
34.655
34.582
34.507
34.432
34.356
34.28
34.207
34.137
34.072
34.011
33.954
33.901
33.852
33.804
33.758
33.712
33.667
33.62
33.574
33.526
33.479
33.432
33.386
33.342
33.301
33.261
33.222
33.185
33.147
33.108
33.068
33.026
32.981
32.934
32.886
32.837
32.79
32.744
32.703
32.665
32.631
32.6
32.573
32.547
32.523
32.499
32.474
32.45
32.426
32.403
32.379
32.356
32.334
32.312
32.29
32.266
32.24
32.213
32.183
32.152
32.118
32.083
32.048
32.012
31.977
31.941
31.907
31.873
31.841
31.812
31.787
31.77
31.763
31.769
31.791
31.834
31.899
31.99
32.109
32.259
32.44
32.652
32.894
33.164
33.459
33.776
34.11
34.457
34.812
35.17
35.527
35.877
36.218
36.544
36.854
37.144
37.411
37.656
37.876
38.071
38.242
38.387
38.508
38.605
38.681
38.737
38.776
38.8
38.812
38.815
38.812
38.803
38.793
38.781
38.768
38.756
38.744
38.731
38.718
38.703
38.687
38.669
38.651
38.631
38.611
38.589
38.565
38.539
38.51
38.477
38.44
38.398
38.35
38.295
38.233
38.163
38.085
38.001
37.911
37.819
37.725
37.631
37.538
37.45
37.366
37.287
37.213
37.146
37.086
37.033
36.986
36.946
36.91
36.88
36.855
36.833
36.814
36.797
36.781
36.764
36.745
36.722
36.695
36.664
36.628
36.588
36.543
36.495
36.442
36.388
36.332
36.277
36.224
36.174
36.126
36.078
36.03
35.981
35.929
35.874
35.816
35.754
35.689
35.62
35.549
35.476
35.401
35.325
35.247
35.17
35.092
35.016
34.941
34.87
34.803
34.74
34.68
34.623
34.567
34.514
34.46
34.408
34.355
34.302
34.248
34.195
34.141
34.087
34.034
33.982
33.929
33.877
33.823
33.769
33.716
33.664
33.614
33.567
33.524
33.485
33.45
33.419
33.392
33.367
33.346
33.325
33.304
33.282
33.261
33.24
33.219
33.198
33.177
33.156
33.134
33.111
33.088
33.064
33.035
32.999
32.954
32.903
32.847
32.787
32.728
32.672
32.619
32.572
32.531
32.496
32.469
32.447
32.428
32.413
32.398
32.383
32.365
32.344
32.322
32.3
32.277
32.256
32.239
32.226
32.221
32.224
32.237
32.264
32.308
32.373
32.462
32.579
32.726
32.903
33.111
33.349
33.613
33.902
34.213
34.54
34.88
35.227
35.575
35.921
36.26
36.587
36.9
37.194
37.468
37.721
37.951
38.158
38.341
38.502
38.64
38.758
38.855
38.934
38.995
39.038
39.066
39.081
39.083
39.075
39.059
39.038
39.013
38.985
38.957
38.93
38.904
38.88
38.86
38.843
38.827
38.811
38.793
38.771
38.744
38.711
38.672
38.625
38.571
38.51
38.442
38.367
38.287
38.203
38.115
38.025
37.933
37.84
37.746
37.652
37.557
37.464
37.372
37.283
37.197
37.114
37.036
36.963
36.896
36.835
36.781
36.734
36.694
36.658
36.627
36.598
36.571
36.545
36.52
36.496
36.471
36.446
36.42
36.39
36.357
36.32
36.279
36.234
36.186
36.133
36.078
36.02
35.96
35.9
35.841
35.782
35.725
35.668
35.611
35.554
35.495
35.433
35.368
