Trial 3:3back
34.611
34.607
34.604
34.601
34.6
34.599
34.598
34.597
34.595
34.592
34.588
34.583
34.577
34.571
34.565
34.561
34.56
34.562
34.569
34.583
34.605
34.634
34.67
34.714
34.764
34.82
34.879
34.942
35.008
35.076
35.146
35.216
35.285
35.353
35.419
35.481
35.54
35.595
35.645
35.689
35.728
35.76
35.786
35.805
35.816
35.821
35.82
35.812
35.799
35.781
35.76
35.736
35.709
35.682
35.653
35.624
35.595
35.567
35.539
35.512
35.487
35.463
35.441
35.419
35.397
35.375
35.354
35.333
35.312
35.292
35.271
35.25
35.229
35.207
35.185
35.162
35.138
35.114
35.091
35.068
35.046
35.025
35.007
34.992
34.981
34.973
34.969
34.968
34.97
34.974
34.98
34.988
34.996
35.004
35.012
35.02
35.027
35.035
35.044
35.053
35.064
35.076
35.089
35.103
35.118
35.134
35.15
35.166
35.181
35.196
35.209
35.221
35.232
35.24
35.247
35.252
35.255
35.257
35.257
35.254
35.249
35.241
35.23
35.217
35.202
35.185
35.167
35.149
35.13
35.112
35.095
35.078
35.063
35.049
35.035
35.023
35.011
34.998
34.986
34.972
34.958
34.942
34.924
34.907
34.889
34.871
34.855
34.84
34.827
34.816
34.807
34.799
34.792
34.787
34.782
34.777
34.773
34.768
34.764
34.76
34.756
34.753
34.749
34.746
34.742
34.738
34.735
34.731
34.728
34.723
34.719
34.714
34.71
34.706
34.702
34.699
34.696
34.693
34.69
34.686
34.683
34.681
34.678
34.676
34.675
34.673
34.673
34.673
34.673
34.674
34.675
34.677
34.679
34.681
34.683
34.685
34.687
34.69
34.693
34.694
34.694
34.692
34.688
34.683
34.677
34.669
34.661
34.652
34.643
34.634
34.625
34.618
34.612
34.607
34.604
34.602
34.602
34.604
34.608
34.614
34.622
34.632
34.644
34.659
34.677
34.699
34.726
34.76
34.801
34.85
34.905
34.968
35.038
35.113
35.194
35.277
35.362
35.446
35.529
35.609
35.684
35.754
35.817
35.873
35.922
35.962
35.994
36.017
36.034
36.043
36.046
36.043
36.034
36.02
36.002
35.98
35.956
35.93
35.904
35.877
35.85
35.823
35.796
35.768
35.74
35.712
35.685
35.658
35.633
35.61
35.59
35.572
35.557
35.544
35.533
35.524
35.516
35.508
35.499
35.489
35.477
35.463
35.446
35.425
35.402
35.376
35.349
35.322
35.295
35.269
35.245
35.223
35.205
35.191
35.18
35.174
35.172
35.174
35.179
35.188
35.199
35.211
35.225
35.238
35.252
35.265
35.277
35.288
35.298
35.307
35.317
35.326
35.336
35.345
35.354
35.363
35.371
35.378
35.384
35.388
35.391
35.393
35.394
35.394
35.393
35.39
35.385
35.379
35.372
35.365
35.356
35.347
35.337
35.326
35.315
35.304
35.293
35.282
35.271
35.261
35.251
35.241
35.232
35.223
35.215
35.207
35.198
35.189
35.179
35.167
35.153
35.137
35.119
35.098
35.077
35.054
35.032
35.011
34.992
34.974
34.96
34.948
34.938
34.932
34.927
34.925
34.923
34.923
34.922
34.92
34.917
34.912
34.905
34.896
34.887
34.878
34.869
34.86
34.85
34.839
34.829
34.819
34.809
34.801
34.794
34.79
34.788
34.787
34.788
34.79
34.793
34.796
34.799
34.8
34.801
34.801
34.799
34.796
34.79
34.783
34.774
34.766
34.758
34.751
34.745
34.741
34.737
34.733
34.73
34.728
34.727
34.726
34.726
34.726
34.725
34.724
34.722
34.719
34.715
34.711
34.708
34.709
34.714
34.725
34.742
34.767
34.8
34.841
34.89
34.945
35.008
35.078
35.153
35.233
35.317
35.402
35.487
35.571
35.652
35.73
35.803
35.871
35.932
35.987
36.033
36.072
36.102
36.123
36.137
36.143
36.142
36.134
36.122
36.105
36.084
36.061
36.036
36.011
35.985
35.959
35.933
35.908
35.883
35.858
35.833
35.809
35.785
35.762
35.74
35.719
35.698
35.678
35.659
35.641
35.624
35.607
35.591
35.574
35.557
35.54
35.522
35.503
35.485
35.466
35.447
35.428
35.409
35.39
35.374
35.359
35.346
35.335
35.325
35.316
35.308
35.301
35.294
35.29
35.288
35.289
35.293
35.299
35.308
35.32
35.334
35.351
35.368
35.387
35.406
35.425
35.443
35.46
35.474
35.485
35.493
35.499
35.502
35.504
35.504
35.503
35.501
35.498
35.495
35.491
35.486
35.48
35.473
35.466
35.459
35.451
35.441
35.431
35.419
35.406
35.393
35.378
35.363
35.348
35.333
35.318
35.303
35.288
35.272
35.255
35.236
35.217
35.198
35.179
35.161
35.144
35.128
35.114
35.103
35.093
35.085
35.079
35.073
35.069
35.065
35.061
35.057
35.051
35.044
35.034
35.021
35.007
34.992
34.978
34.963
34.951
34.939
34.929
34.92
34.912
34.905
34.9
34.896
34.892
34.889
34.885
34.881
34.876
34.87
34.865
34.86
34.855
34.849
34.844
34.837
34.831
34.825
34.819
34.813
34.81
34.808
34.808
34.809
34.812
34.815
34.818
34.821
34.823
34.824
34.825
34.825
34.824
34.821
34.815
34.808
34.798
34.787
34.776
34.764
34.753
34.742
34.731
34.722
34.714
34.708
34.705
34.706
34.711
34.72
34.735
34.755
34.782
34.815
34.855
34.901
34.952
35.01
35.072
35.139
35.21
35.283
35.357
35.433
35.507
35.58
35.651
35.719
35.784
35.844
35.901
35.952
35.997
36.037
36.071
36.097
36.116
36.128
36.132
36.129
36.12
36.106
36.087
36.064
36.038
36.01
35.981
35.952
35.924
35.895
35.868
35.843
35.819
35.797
35.776
35.757
35.739
35.722
35.704
35.686
35.668
35.65
35.632
35.614
35.595
35.576
35.556
35.535
35.514
35.493
35.472
35.451
35.43
35.41
35.391
35.374
35.358
35.344
35.333
35.323
35.316
35.312
35.311
35.311
35.313
35.317
35.322
35.33
35.339
35.35
35.364
35.379
35.395
35.414
35.433
35.453
35.473
35.493
35.511
35.527
35.542
35.554
35.564
35.571
35.576
35.579
35.58
35.58
35.58
35.579
35.578
35.576
35.574
35.569
35.564
35.556
35.545
35.533
35.518
35.501
35.483
35.465
35.446
35.428
35.41
35.394
35.379
35.366
35.354
35.343
35.335
35.327
35.32
35.314
35.309
35.304
35.299
35.294
35.287
35.28
35.271
35.261
35.25
35.238
35.226
35.213
35.2
35.186
35.173
35.161
35.15
35.141
35.134
35.128
35.122
35.118
35.114
35.11
35.107
35.104
35.102
35.1
35.097
35.093
35.088
35.083
35.077
35.07
35.064
35.058
35.053
35.048
35.044
35.039
35.035
35.03
35.024
35.019
35.015
35.01
35.005
35.0
34.994
34.989
34.983
34.977
34.972
34.967
34.963
34.958
34.953
34.947
34.941
34.933
34.925
34.918
34.912
34.908
34.906
34.907
34.911
34.919
34.933
34.953
34.979
35.012
35.052
35.099
35.153
35.213
35.279
35.349
35.423
35.499
35.577
35.655
35.732
35.807
35.878
35.944
36.004
36.057
36.103
36.141
36.171
36.192
36.206
36.213
36.213
36.208
36.197
36.181
36.162
36.14
36.117
36.093
36.068
36.043
36.018
35.992
35.967
35.942
35.918
35.894
35.872
35.85
35.83
35.81
35.791
35.771
35.751
35.732
35.712
35.693
35.674
35.654
35.635
35.614
35.593
35.57
35.545
35.519
35.492
35.464
35.435
35.407
35.381
35.356
35.334
35.315
35.3
35.29
35.284
35.284
35.29
35.3
35.315
35.334
35.354
35.376
35.398
35.42
35.442
35.462
35.481
35.499
35.515
35.528
35.54
35.549
35.557
35.564
35.571
35.578
35.585
35.591
35.597
35.602
35.606
35.608
35.607
35.604
35.598
35.589
35.577
35.563
35.547
35.53
35.512
35.494
35.477
35.461
35.447
35.435
35.424
35.413
35.403
35.393
35.383
35.373
35.362
35.35
35.338
35.324
35.309
35.293
35.275
35.255
35.234
35.213
35.192
35.171
35.152
35.135
35.121
35.109
35.1
35.094
35.091
35.091
35.092
35.094
35.096
35.097
35.097
35.095
35.09
35.083
35.073
35.061
35.048
35.033
35.017
35.0
34.984
34.967
34.951
34.936
34.923
34.912
34.904
34.899
34.896
34.895
34.895
34.896
34.898
34.901
34.904
34.907
34.908
34.908
34.907
34.903
34.897
34.891
34.883
34.875
34.866
34.856
34.847
34.84
34.835
34.834
34.838
34.847
34.863
34.884
34.913
34.949
34.992
35.042
35.1
35.164
35.234
35.308
35.387
35.469
35.554
35.64
35.726
35.81
35.893
35.973
36.049
36.12
36.185
36.243
36.295
36.339
36.375
36.404
36.425
36.439
36.447
36.449
36.447
36.44
36.43
36.416
36.4
36.381
36.361
36.341
36.319
36.297
36.274
36.252
36.23
36.209
36.189
36.17
36.152
36.136
36.12
36.104
36.088
36.073
36.057
36.042
36.025
36.006
35.987
35.966
35.944
35.921
35.897
35.873
35.849
35.826
35.802
35.78
35.758
35.739
35.722
35.709
35.699
35.691
35.686
35.683
35.68
35.679
35.678
35.678
35.68
35.683
35.688
35.695
35.702
35.712
35.722
35.735
35.749
35.766
35.784
35.803
35.824
35.844
35.863
35.881
35.896
35.908
35.917
35.923
35.926
35.925
35.921
35.913
35.903
35.89
35.876
35.86
35.845
35.829
35.815
35.802
35.79
35.78
35.77
35.76
35.75
35.739
35.727
35.714
35.701
35.686
35.671
35.654
35.638
35.621
35.604
35.587
35.571
35.555
35.539
35.524
35.51
35.496
35.483
35.471
35.46
35.449
35.438
35.427
35.415
35.402
35.388
35.373
35.356
35.338
35.319
35.3
35.282
35.266
35.252
35.241
35.234
35.229
35.225
35.224
35.223
35.222
35.221
35.219
35.215
35.21
35.202
35.191
35.178
35.164
35.148
35.132
35.117
35.102
35.09
35.079
35.071
35.065
35.062
35.062
35.063
35.067
35.073
35.081
35.092
35.105
35.121
35.141
35.166
35.195
35.231
35.275
35.326
35.384
35.45
35.523
35.602
35.685
35.771
35.858
35.947
36.036
36.123
36.209
36.291
36.368
36.439
36.502
36.557
36.603
36.641
36.67
36.692
36.706
36.712
36.712
36.706
36.695
36.681
36.665
36.648
36.63
36.611
36.593
36.573
36.554
36.533
36.513
36.492
36.471
36.449
36.426
36.402
36.378
36.354
36.329
36.303
36.278
36.252
36.226
36.2
36.174
36.15
36.127
36.105
36.086
36.067
36.05
36.033
36.017
36.001
35.985
35.97
35.957
35.945
35.934
35.925
35.918
35.912
35.907
35.903
35.902
35.902
35.905
35.909
35.915
35.924
35.934
35.946
35.96
35.975
35.991
36.008
36.025
36.041
36.056
36.07
36.081
36.091
36.098
36.104
36.108
36.111
36.114
36.116
36.117
36.118
36.119
36.118
36.117
36.114
36.11
36.104
36.096
36.086
36.075
36.062
36.047
36.031
36.013
35.995
35.975
35.957
35.938
35.921
35.904
35.888
35.873
35.86
35.847
35.834
35.822
35.81
35.798
35.786
35.773
35.761
35.75
35.738
35.726
35.714
35.7
35.686
35.671
35.657
35.643
35.629
35.617
35.605
35.595
35.585
35.576
35.568
35.561
35.554
35.549
35.543
35.538
35.532
35.526
35.517
35.508
35.497
35.485
35.473
35.461
35.449
35.438
35.427
35.416
35.407
35.397
35.388
35.381
35.373
35.367
35.361
35.354
35.347
35.34
35.332
35.324
35.316
35.309
35.302
35.298
35.296
35.297
35.302
35.313
35.329
35.353
35.384
35.422
35.468
35.523
35.586
35.657
35.735
35.819
35.906
35.996
36.087
36.177
36.266
36.35
36.431
36.506
36.574
36.635
36.688
36.734
36.772
36.803
36.829
36.848
36.862
36.871
36.874
36.873
36.867
36.856
36.842
36.826
36.807
36.785
36.762
36.738
36.712
36.686
36.66
36.633
36.607
36.581
36.556
36.533
36.509
36.487
36.466
36.447
36.427
36.409
36.39
36.372
36.353
36.334
36.315
36.294
36.273
36.251
36.227
36.203
36.179
36.154
36.129
36.105
36.084
36.064
36.047
36.033
36.022
36.014
36.01
36.008
36.01
36.014
36.021
36.03
36.041
36.054
36.067
36.082
36.097
36.112
36.127
36.141
36.154
36.166
36.177
36.187
36.197
36.207
36.217
36.226
36.234
36.241
36.247
36.251
36.252
36.251
36.246
36.237
36.226
36.211
36.193
36.173
36.152
36.129
36.105
36.082
36.059
36.038
36.017
35.999
35.982
35.968
35.954
35.942
35.929
35.916
35.902
35.886
35.87
35.852
35.833
35.813
35.792
35.771
35.751
35.731
35.714
35.698
35.683
35.671
35.66
35.65
35.64
35.629
35.619
35.607
35.595
35.582
35.568
35.554
35.539
35.524
35.509
35.495
35.481
35.467
35.454
35.442
35.431
35.422
35.413
35.407
35.402
35.397
35.394
35.39
35.387
35.383
35.38
35.375
35.369
35.361
35.351
35.34
35.326
35.311
35.296
35.281
35.268
35.256
35.247
35.24
35.235
35.233
35.232
35.233
35.235
35.237
35.238
35.237
35.235
35.23
35.223
35.216
35.207
35.198
35.191
35.187
35.185
35.189
35.197
35.211
35.231
35.259
35.295
35.339
35.392
35.455
35.526
35.606
35.694
35.788
35.886
35.988
36.092
36.196
36.298
36.397
36.491
36.58
36.661
36.735
36.802
36.86
36.91
36.953
36.988
37.016
37.039
37.057
37.07
37.079
37.082
37.081
37.075
37.065
37.052
37.034
37.014
36.992
36.969
36.945
36.921
36.898
36.875
36.854
36.835
36.818
36.804
36.791
36.78
36.77
36.761
36.752
36.741
36.73
36.716
36.699
36.68
36.659
36.636
36.612
36.588
36.565
36.543
36.523
36.505
36.489
36.473
36.46
36.447
36.437
36.427
36.419
36.411
36.405
36.399
36.394
36.39
36.389
36.39
36.393
36.398
36.406
36.417
36.43
36.445
36.463
36.483
36.503
36.523
36.542
36.559
36.573
36.585
36.594
36.6
36.602
36.601
36.597
36.59
36.58
36.567
36.553
36.537
36.521
36.503
36.485
36.467
36.447
36.427
36.408
36.388
36.369
36.349
36.33
36.309
36.288
36.267
36.246
36.225
36.204
36.183
36.162
36.142
36.123
36.104
36.087
36.07
36.054
36.038
36.022
36.006
35.989
35.97
35.951
35.929
35.907
35.884
35.86
35.837
35.815
35.794
35.775
35.756
35.738
35.72
35.703
35.687
35.672
35.658
35.646
35.634
35.623
35.613
35.604
35.595
35.588
35.581
35.575
35.569
35.564
35.559
35.555
35.551
35.547
35.543
35.539
35.535
35.531
35.526
35.519
35.512
35.504
35.496
35.488
35.48
35.471
35.462
35.451
35.439
35.426
35.412
35.398
35.384
35.37
35.357
35.345
35.333
35.323
35.314
35.307
35.299
35.293
35.286
35.279
35.272
35.264
35.258
35.251
35.246
35.241
35.237
35.236
35.239
35.245
35.257
35.276
35.302
35.336
35.377
35.427
35.485
35.55
35.624
35.704
35.791
35.883
35.979
36.077
36.176
36.275
36.372
36.466
36.555
36.64
36.719
36.792
36.859
36.919
36.971
37.016
37.052
37.079
37.098
37.109
37.112
37.108
37.099
37.085
37.068
37.047
37.024
36.999
36.974
36.95
36.926
36.904
36.884
36.866
36.849
36.834
36.819
36.805
36.789
36.772
36.752
36.73
36.706
36.68
36.652
36.625
36.598
36.571
36.545
36.519
36.495
36.471
36.449
36.428
36.408
36.39
36.372
36.355
36.337
36.32
36.303
36.289
36.277
36.268
36.262
36.259
36.258
36.261
36.266
36.273
36.282
36.293
36.304
36.316
36.329
36.342
36.354
36.365
36.374
36.382
36.387
36.39
36.39
36.388
36.384
36.378
36.37
36.359
36.346
36.331
36.314
36.298
36.281
36.265
36.251
36.238
36.226
36.216
36.206
36.197
36.187
36.177
36.166
36.153
36.139
36.124
36.106
36.087
36.067
36.046
36.024
36.001
35.979
35.956
35.933
35.912
35.892
35.873
35.855
35.839
35.823
35.808
35.794
35.781
35.768
35.756
35.744
35.732
35.72
35.707
35.693
35.678
35.663
35.647
35.631
35.615
35.598
35.583
35.568
35.555
35.544
35.534
35.525
35.518
35.511
35.504
35.498
35.492
35.487
35.482
35.477
35.472
35.466
35.461
35.454
35.448
35.441
35.433
35.425
35.416
35.407
35.397
35.387
35.376
35.365
35.354
35.342
35.33
35.317
35.304
35.291
35.278
35.265
35.252
35.239
35.227
35.216
35.204
35.192
35.18
35.168
35.154
35.139
35.124
35.108
35.093
35.08
35.069
35.06
35.053
35.048
35.043
35.038
35.033
35.028
35.023
35.019
35.017
35.016
35.019
35.027
35.039
35.057
35.081
35.114
35.155
35.205
35.264
35.332
35.409
35.494
35.585
35.682
35.782
35.883
35.984
36.083
36.177
36.265
36.347
36.42
36.485
36.54
36.587
36.625
36.655
36.677
36.694
36.705
36.71
36.712
36.708
36.701
36.69
36.675
36.657
36.636
36.614
36.589
36.563
36.535
36.506
36.477
36.446
36.416
36.384
36.353
36.322
36.292
36.263
36.235
36.21
36.186
36.163
36.141
36.118
36.095
36.072
36.047
36.023
35.998
35.972
35.946
35.92
35.895
35.87
35.847
35.825
35.805
35.788
35.773
35.762
35.755
35.751
35.752
35.757
35.765
35.776
35.788
35.802
35.816
35.83
35.842
35.854
35.863
35.871
35.878
35.882
35.884
35.885
35.884
35.883
35.88
35.878
35.876
35.874
35.873
35.872
35.871
35.869
35.866
35.86
35.852
35.84
35.826
35.808
35.787
35.765
35.739
35.713
35.685
35.659
35.633
35.609
35.586
35.566
35.547
35.53
35.514
35.498
35.482
35.466
35.45
35.432
35.413
35.394
35.373
35.352
35.33
35.309
35.288
35.268
35.249
35.23
35.211
35.193
35.175
35.157
35.139
35.121
35.103
35.086
35.069
35.054
35.041
35.029
35.019
35.009
35.001
34.992
34.984
34.977
34.97
34.963
34.955
34.947
34.938
34.928
34.919
34.908
34.898
34.888
34.877
34.868
34.858
34.849
34.84
34.833
34.826
34.821
34.817
34.813
34.809
34.806
34.802
34.798
34.793
34.787
34.78
34.772
34.764
34.756
34.749
34.741
34.733
34.725
34.715
34.705
34.693
34.681
34.667
34.653
34.637
34.622
34.606
34.591
34.577
34.564
34.552
34.541
34.53
34.521
34.514
34.507
34.5
34.493
34.485
34.478
34.469
34.46
34.451
34.442
34.434
34.427
34.423
34.422
34.425
34.433
34.446
34.465
34.491
34.524
34.565
34.615
34.674
34.742
34.818
34.903
34.994
35.091
35.192
35.294
35.396
35.498
35.596
35.691
35.78
35.862
35.936
36.002
36.06
36.109
36.151
36.186
36.215
36.238
36.255
36.266
36.27
36.269
36.262
36.252
36.237
36.22
36.2
36.179
36.156
36.131
36.106
36.081
36.056
36.031
36.007
35.983
35.96
35.938
35.917
35.898
35.88
35.863
35.848
35.833
35.818
35.805
35.791
35.778
35.765
35.75
35.733
35.714
35.692
35.668
35.643
35.616
35.588
35.562
35.536
35.512
35.491
35.472
35.457
35.446
35.439
35.435
35.435
35.438
35.444
35.452
35.462
35.473
35.484
35.496
35.508
35.52
35.532
35.543
35.553
35.561
35.568
35.573
35.577
35.579
35.58
35.58
35.581
35.581
35.581
35.579
35.578
35.576
35.573
35.57
35.566
35.559
35.55
35.537
35.521
35.502
35.481
35.457
35.432
35.407
35.381
35.355
35.329
35.304
35.28
35.257
35.237
35.218
35.2
35.185
35.172
35.159
35.147
35.135
35.122
35.109
35.094
35.077
35.058
35.039
35.02
35.001
34.982
34.965
34.948
34.931
34.916
34.902
34.889
34.879
34.87
34.862
34.856
34.85
34.844
34.838
34.834
34.829
34.825
34.82
34.815
34.81
34.805
34.8
34.794
34.787
34.778
34.769
34.758
34.746
34.734
34.722
34.711
34.701
34.692
34.685
34.679
34.673
34.669
34.664
34.659
34.653
34.648
34.642
34.637
34.631
34.625
34.618
34.61
34.601
34.592
34.582
34.571
34.561
34.552
34.543
34.536
34.528
34.522
34.515
34.508
34.5
34.492
34.483
34.472
34.461
34.449
34.437
34.425
34.413
34.402
34.391
34.382
34.372
34.363
34.354
34.346
34.337
34.329
34.32
34.31
34.301
34.292
34.283
34.274
34.266
34.258
34.252
34.248
34.247
34.249
34.256
34.268
34.286
34.31
34.34
34.378
34.423
34.477
34.538
34.607
34.684
34.767
34.858
34.953
35.051
35.151
35.251
35.349
35.444
35.532
35.614
35.688
35.754
35.81
35.856
35.892
35.919
35.936
35.945
35.948
35.944
35.935
35.922
35.905
35.885
35.862
35.839
35.814
35.789
35.764
35.739
35.714
35.688
35.662
35.636
35.61
35.585
35.561
35.539
35.52
35.503
35.487
35.474
35.462
35.451
35.44
35.43
35.42
35.409
35.398
35.386
35.373
35.359
35.344
35.328
35.311
35.294
35.277
35.26
35.244
35.228
35.214
35.2
35.189
35.181
35.177
35.177
35.181
35.19
35.201
35.216
35.233
35.252
35.271
35.292
35.311
35.329
35.345
35.357
35.366
35.372
35.375
35.376
35.373
35.369
35.363
35.355
35.347
35.339
35.331
35.323
35.316
35.31
35.304
35.298
35.293
35.287
35.281
35.274
35.265
35.256
35.245
35.232
35.217
35.201
35.183
35.163
35.142
35.12
35.098
35.076
35.053
35.031
35.01
34.989
34.97
34.951
34.935
34.92
34.908
34.899
34.891
34.885
34.879
34.873
34.867
34.86
34.852
34.844
34.834
34.824
34.812
34.799
34.785
