Trial 3:3back
36.84
36.835
36.83
36.824
36.818
36.811
36.801
36.789
36.772
36.75
36.723
36.691
36.654
36.614
36.569
36.522
36.472
36.419
36.364
36.309
36.252
36.194
36.136
36.076
36.015
35.953
35.889
35.824
35.759
35.695
35.632
35.572
35.516
35.463
35.415
35.371
35.329
35.29
35.252
35.214
35.174
35.133
35.089
35.044
34.998
34.951
34.904
34.858
34.814
34.771
34.732
34.695
34.66
34.627
34.595
34.562
34.528
34.492
34.454
34.415
34.374
34.332
34.289
34.248
34.207
34.168
34.13
34.095
34.061
34.027
33.995
33.961
33.928
33.895
33.862
33.827
33.792
33.756
33.72
33.686
33.653
33.622
33.594
33.571
33.55
33.533
33.517
33.502
33.487
33.47
33.451
33.429
33.405
33.381
33.356
33.329
33.302
33.275
33.248
33.223
33.2
33.18
33.161
33.145
33.13
33.116
33.102
33.091
33.083
33.078
33.08
33.089
33.109
33.141
33.186
33.247
33.326
33.424
33.544
33.686
33.849
34.033
34.237
34.457
34.692
34.938
35.192
35.451
35.712
35.974
36.232
36.483
36.724
36.953
37.168
37.365
37.545
37.707
37.852
37.98
38.092
38.191
38.276
38.348
38.407
38.453
38.487
38.507
38.516
38.513
38.501
38.48
38.453
38.421
38.385
38.348
38.311
38.276
38.242
38.211
38.182
38.155
38.13
38.107
38.083
38.06
38.035
38.008
37.98
37.949
37.915
37.878
37.838
37.794
37.747
37.697
37.644
37.589
37.534
37.478
37.423
37.368
37.313
37.258
37.203
37.147
37.091
37.037
36.986
36.938
36.896
36.858
36.827
36.802
36.783
36.768
36.756
36.745
36.735
36.724
36.712
36.698
36.681
36.661
36.64
36.618
36.595
36.572
36.548
36.522
36.495
36.465
36.432
36.394
36.353
36.307
36.257
36.205
36.149
36.092
36.032
35.972
35.912
35.851
35.791
35.732
35.675
35.619
35.565
35.513
35.462
35.413
35.366
35.32
35.275
35.231
35.186
35.141
35.094
35.045
34.995
34.943
34.889
34.833
34.774
34.714
34.654
34.595
34.538
34.483
34.432
34.383
34.336
34.291
34.246
34.203
34.161
34.119
34.077
34.036
33.995
33.956
33.919
33.886
33.855
33.83
33.808
33.79
33.776
33.763
33.752
33.741
33.729
33.715
33.697
33.676
33.651
33.623
33.592
33.56
33.527
33.495
33.463
33.433
33.404
33.377
33.351
33.325
33.3
33.274
33.246
33.217
33.186
33.152
33.115
33.076
33.034
32.991
32.948
32.905
32.864
32.826
32.792
32.763
32.738
32.716
32.696
32.677
32.659
32.641
32.622
32.602
32.58
32.557
32.534
32.514
32.499
32.492
32.498
32.519
32.558
32.617
32.696
32.795
32.916
33.058
33.219
33.397
33.59
33.794
34.007
34.227
34.451
34.679
34.907
35.135
35.363
35.587
35.806
36.017
36.217
36.405
36.579
36.737
36.877
37.0
37.105
37.193
37.265
37.322
37.365
37.394
37.411
37.416
37.411
37.398
37.376
37.349
37.316
37.28
37.242
37.203
37.167
37.132
37.101
37.07
37.041
37.013
36.985
36.956
36.927
36.897
36.866
36.837
36.808
36.78
36.752
36.724
36.696
36.667
36.636
36.602
36.565
36.523
36.477
36.428
36.376
36.322
36.269
36.217
36.168
36.125
36.086
36.054
36.028
36.006
35.987
35.97
35.954
35.939
35.924
35.909
35.895
35.881
35.869
35.859
35.85
35.842
35.835
35.827
35.819
35.81
35.8
35.787
35.772
35.754
35.735
35.713
35.688
35.661
35.631
35.598
35.561
35.521
35.478
35.432
35.384
35.336
35.287
35.239
35.191
35.143
35.095
35.048
35.0
34.952
34.904
34.856
34.807
34.758
34.709
34.659
34.609
34.559
34.508
34.458
34.411
34.367
34.327
34.292
34.26
34.231
34.203
34.175
34.146
34.116
34.084
34.051
34.016
33.979
33.94
33.9
33.859
33.819
33.782
33.747
33.716
33.689
33.667
33.648
33.632
33.617
33.603
33.589
33.573
33.553
33.531
33.503
33.472
33.436
33.398
33.357
33.315
33.275
33.237
33.202
33.171
33.145
33.123
33.104
33.088
33.074
33.06
33.046
33.03
33.012
32.99
32.965
32.936
32.906
32.875
32.844
32.815
32.787
32.762
32.74
32.72
32.703
32.687
32.674
32.661
32.649
32.637
32.626
32.615
32.607
32.603
32.606
32.62
32.647
32.689
32.748
32.827
32.926
33.046
33.187
33.347
33.526
33.721
33.929
34.147
34.37
34.595
34.819
35.04
35.255
35.462
35.661
35.849
36.026
36.191
36.343
36.481
36.605
36.715
36.81
36.892
36.959
37.013
37.054
37.084
37.103
37.112
37.112
37.105
37.091
37.071
37.048
37.022
36.994
36.967
36.941
36.916
36.894
36.876
36.86
36.848
36.837
36.827
36.818
36.809
36.798
36.784
36.766
36.746
36.723
36.699
36.673
36.646
36.617
36.585
36.551
36.513
36.472
36.426
36.377
36.325
36.27
36.215
36.161
36.108
36.059
36.013
35.973
35.939
35.91
35.887
35.869
35.854
35.842
35.832
35.822
35.812
35.803
35.793
35.783
35.773
35.763
35.755
35.747
35.739
35.732
35.723
35.713
35.7
35.684
35.664
35.64
35.613
35.582
35.549
35.514
35.479
35.443
35.407
35.371
35.336
35.301
35.265
35.228
35.191
35.153
35.114
35.074
35.032
34.99
34.948
34.905
34.862
34.818
34.773
34.726
34.677
34.629
34.579
34.531
34.483
34.437
34.395
34.357
34.324
34.296
34.268
34.234
34.193
34.147
34.099
34.05
34.004
33.96
33.919
33.881
33.846
33.814
33.786
33.761
33.74
33.723
33.709
33.7
33.693
33.69
33.689
33.691
33.695
33.699
33.703
33.705
33.705
33.699
33.689
33.673
33.653
33.63
33.605
33.579
33.553
33.528
33.504
33.482
33.462
33.442
33.424
33.405
33.387
33.367
33.345
33.322
33.297
33.27
33.242
33.212
33.183
33.154
33.126
33.099
33.075
33.053
33.034
33.018
33.005
32.997
32.995
32.998
33.009
33.027
33.055
33.094
33.144
33.208
33.286
33.378
33.486
33.61
33.749
33.904
34.073
34.256
34.451
34.656
34.87
35.088
35.308
35.526
35.74
35.946
36.142
36.325
36.494
36.65
36.791
36.918
37.033
37.135
37.227
37.308
37.378
37.438
37.486
37.522
37.547
37.561
37.566
37.562
37.553
37.539
37.521
37.5
37.478
37.455
37.431
37.408
37.385
37.364
37.345
37.328
37.313
37.301
37.291
37.281
37.271
37.26
37.247
37.231
37.21
37.185
37.154
37.12
37.081
37.039
36.994
36.947
36.898
36.849
36.801
36.752
36.704
36.656
36.608
36.56
36.511
36.463
36.416
36.37
36.328
36.29
36.256
36.227
36.202
36.179
36.159
36.138
36.117
36.094
36.071
36.046
36.02
35.993
35.966
35.94
35.915
35.891
35.868
35.845
35.823
35.801
35.779
35.754
35.727
35.698
35.665
35.63
35.591
35.549
35.505
35.459
35.412
35.366
35.32
35.273
35.227
35.181
35.134
35.087
35.041
34.995
34.951
34.909
34.87
34.832
34.797
34.762
34.728
34.695
34.661
34.627
34.593
34.558
34.523
34.489
34.455
34.422
34.391
34.363
34.337
34.315
34.295
34.277
34.259
34.242
34.223
34.201
34.176
34.147
34.114
34.077
34.037
33.995
33.951
33.907
33.862
33.819
33.777
33.737
33.698
33.66
33.624
33.586
33.548
33.508
33.465
33.419
33.369
33.318
33.264
33.21
33.155
33.103
33.053
33.007
32.966
32.93
32.901
32.879
32.863
32.853
32.846
32.842
32.838
32.834
32.827
32.818
32.805
32.79
32.771
32.75
32.728
32.707
32.689
32.678
32.675
32.681
32.699
32.73
32.774
32.832
32.904
32.991
33.092
33.207
33.335
33.475
33.625
33.784
33.952
34.127
34.308
34.494
34.683
34.872
35.061
35.246
35.425
35.596
35.755
35.902
36.035
36.152
36.255
36.342
36.415
36.474
36.523
36.561
36.59
36.611
36.624
36.63
36.629
36.622
36.608
36.59
36.568
36.541
36.512
36.481
36.447
36.412
36.377
36.342
36.308
36.277
36.248
36.22
36.193
36.165
36.138
36.109
36.079
36.049
36.017
35.985
35.953
35.921
35.889
35.857
35.826
35.796
35.767
35.738
35.711
35.686
35.663
35.642
35.625
35.61
35.597
35.588
35.582
35.578
35.576
35.575
35.573
35.57
35.565
35.557
35.547
35.534
35.52
35.505
35.491
35.476
35.463
35.449
35.436
35.423
35.409
35.394
35.377
35.357
35.333
35.306
35.276
35.243
35.208
35.17
35.131
35.093
35.057
35.023
34.992
34.964
34.938
34.913
34.889
34.864
34.837
34.807
34.774
34.738
34.699
34.659
34.617
34.575
34.534
34.493
34.453
34.415
34.377
34.341
34.305
34.27
34.235
34.199
34.161
34.122
34.082
34.04
33.996
33.952
33.908
33.865
33.824
33.784
33.747
33.712
33.682
33.654
33.63
33.607
33.586
33.564
33.542
33.517
33.49
33.461
33.43
33.396
33.359
33.32
33.279
33.238
33.197
33.158
33.122
33.091
33.064
33.04
33.019
33.001
32.985
32.969
32.955
32.94
32.925
32.907
32.886
32.861
32.833
32.803
32.772
32.74
32.709
32.68
32.654
32.631
32.611
32.595
32.584
32.577
32.575
32.578
32.585
32.598
32.616
32.641
32.675
32.719
32.773
32.84
32.922
33.019
33.133
33.263
33.409
33.568
33.739
33.919
34.106
34.296
34.487
34.676
34.859
35.034
35.198
35.349
35.488
35.612
35.723
35.822
35.91
35.987
36.055
36.115
36.167
36.211
36.247
36.276
36.297
36.311
36.318
36.32
36.316
36.307
36.296
36.283
36.268
36.255
36.243
36.234
36.229
36.225
36.223
36.222
36.221
36.22
36.217
36.211
36.201
36.188
36.171
36.149
36.123
36.094
36.064
36.033
36.002
35.972
35.942
35.914
35.885
35.856
35.827
35.798
35.768
35.738
35.709
35.682
35.656
35.632
35.61
35.588
35.568
35.548
35.529
35.512
35.495
35.478
35.463
35.448
35.435
35.425
35.418
35.414
35.413
35.412
35.411
35.407
35.399
35.386
35.368
35.346
35.319
35.289
35.256
35.222
35.187
35.152
35.119
35.089
35.061
35.036
35.012
34.989
34.965
34.94
34.913
34.884
34.851
34.817
34.781
34.743
34.703
34.664
34.624
34.586
34.548
34.51
34.474
34.437
34.4
34.361
34.319
34.273
34.223
34.171
34.117
34.061
34.004
33.948
33.894
33.842
33.794
33.751
33.712
33.679
33.651
33.626
33.604
33.585
33.566
33.548
33.529
33.507
33.484
33.459
33.432
33.404
33.375
33.345
33.315
33.285
33.257
33.231
33.209
33.189
33.172
33.157
33.142
33.127
33.11
33.09
33.066
33.038
33.006
32.971
32.932
32.893
32.854
32.817
32.781
32.749
32.72
32.693
32.67
32.648
32.629
32.612
32.596
32.58
32.564
32.547
32.53
32.511
32.493
32.475
32.46
32.449
32.443
32.446
32.457
32.48
32.516
32.565
32.627
32.704
32.794
32.898
33.015
33.143
33.282
33.429
33.583
33.741
33.901
34.061
34.222
34.381
34.537
34.689
34.835
34.974
35.103
35.222
35.329
35.423
35.504
35.571
35.625
35.665
35.694
35.712
35.723
35.727
35.726
35.723
35.72
35.717
35.715
35.714
35.712
35.71
35.707
35.702
35.695
35.686
35.675
35.664
35.651
35.639
35.628
35.617
35.607
35.598
35.589
35.58
35.569
35.557
35.543
35.527
35.508
35.485
35.459
35.431
35.4
35.366
35.33
35.293
35.255
35.216
35.178
35.142
35.107
35.076
35.047
35.022
34.998
34.975
34.954
34.933
34.914
34.896
34.879
34.864
34.85
34.837
34.824
34.81
34.795
34.779
34.762
34.745
34.726
34.707
34.687
34.666
34.643
34.619
34.594
34.568
34.542
34.517
34.491
34.466
34.441
34.416
34.39
34.365
34.339
34.312
34.285
34.257
34.227
34.196
34.164
34.131
34.098
34.065
34.033
34.001
33.968
33.935
33.902
33.868
33.834
33.799
33.763
33.726
33.689
33.652
33.615
33.579
33.544
33.512
33.481
33.453
33.426
33.4
33.375
33.349
33.323
33.296
33.267
33.238
33.208
33.178
33.148
33.12
33.093
33.068
33.046
33.027
33.011
32.997
32.985
32.974
32.964
32.953
32.94
32.925
32.907
32.887
32.865
32.843
32.819
32.795
32.771
32.748
32.725
32.703
32.683
32.664
32.647
32.632
32.617
32.603
32.588
32.573
32.555
32.536
32.516
32.494
32.471
32.446
32.42
32.393
32.366
32.339
32.312
32.287
32.265
32.244
32.227
32.211
32.199
32.19
32.183
32.178
32.175
32.174
32.175
32.178
32.183
32.19
32.201
32.216
32.239
32.27
32.311
32.364
32.43
32.508
32.6
32.705
32.822
32.951
33.09
33.236
33.387
33.54
33.695
33.848
33.997
34.14
34.276
34.402
34.519
34.627
34.723
34.809
34.883
34.945
34.997
35.038
35.069
35.092
35.107
35.115
35.117
35.114
35.106
35.096
35.083
35.07
35.058
35.047
35.039
35.033
35.03
35.028
35.026
35.024
35.02
35.015
35.008
34.999
34.99
34.979
34.968
34.958
34.948
34.94
34.933
34.927
34.922
34.917
34.91
34.901
34.889
34.873
34.854
34.83
34.802
34.771
34.739
34.706
34.674
34.645
34.621
34.602
34.588
34.58
34.577
34.579
34.584
34.591
34.601
34.611
34.621
34.629
34.634
34.635
34.632
34.626
34.617
34.606
34.593
34.579
34.564
34.549
34.533
34.516
34.498
34.479
34.459
34.437
34.413
34.387
34.36
34.331
34.301
34.272
34.244
34.217
34.192
34.169
34.147
34.126
34.105
34.084
34.062
34.04
34.015
33.989
33.962
33.934
33.905
33.874
33.844
33.814
33.784
33.756
33.73
33.707
33.685
33.666
33.649
33.634
33.621
33.61
33.598
33.587
33.575
33.563
33.55
33.536
33.521
33.504
33.486
33.468
33.45
33.433
33.416
33.4
33.385
33.371
33.356
33.341
33.324
33.307
33.289
33.269
33.247
33.225
33.201
33.178
33.154
33.132
33.112
33.094
33.078
33.065
33.054
33.045
33.038
33.032
33.025
33.017
33.007
32.993
32.977
32.958
32.938
32.915
32.891
32.867
32.844
32.822
32.801
32.784
32.769
32.758
32.75
32.744
32.741
32.74
32.741
32.741
32.742
32.741
32.739
32.736
32.733
32.73
32.726
32.723
32.722
32.723
32.726
32.732
32.744
32.763
32.79
32.828
32.877
32.938
33.012
33.098
33.194
33.3
33.413
33.533
33.659
33.789
33.922
34.056
34.191
34.325
34.456
34.585
34.711
34.831
34.946
35.053
35.151
35.239
35.316
35.381
35.433
35.474
35.502
35.521
35.531
35.533
35.528
35.518
35.506
35.491
35.474
35.457
35.441
35.427
35.413
35.401
35.39
35.38
35.371
35.364
35.357
35.351
35.346
35.341
35.335
35.328
35.32
35.311
35.3
35.289
35.277
35.265
35.254
35.242
35.231
35.22
35.21
35.199
35.188
35.177
35.165
35.151
35.135
35.117
35.097
35.077
35.056
35.035
35.017
35.002
34.99
34.982
34.976
34.973
34.972
34.971
34.971
34.971
34.969
34.966
34.96
34.952
34.942
34.932
34.921
34.912
34.902
34.892
34.883
34.872
34.86
34.846
34.831
34.813
34.794
34.775
34.757
34.738
34.721
34.705
34.689
34.668
34.642
34.611
34.579
34.547
34.517
34.488
34.462
34.439
34.417
34.397
34.378
34.361
34.344
34.327
34.311
34.294
34.276
34.258
34.24
34.222
34.204
34.188
34.173
34.159
34.145
34.132
34.117
34.101
34.082
34.062
34.041
34.018
33.994
33.971
33.948
33.927
33.907
33.89
33.876
33.864
33.853
33.843
33.834
33.823
33.811
33.796
33.779
33.758
33.735
33.708
33.68
33.651
33.621
33.591
33.562
33.534
33.508
33.484
33.462
33.444
33.429
33.416
33.405
33.395
33.385
33.374
33.362
33.348
33.334
33.318
33.3
33.28
33.259
33.237
33.215
33.195
33.177
33.162
33.149
33.139
33.131
33.124
33.117
33.108
33.099
33.088
33.077
33.064
33.049
33.034
33.017
33.0
32.983
32.966
32.95
32.936
32.923
32.911
32.9
32.889
32.878
32.866
32.854
32.842
32.83
32.817
32.804
32.791
32.781
32.775
32.774
32.782
32.799
32.827
32.869
32.926
32.998
33.087
33.192
33.315
33.454
33.607
33.771
33.943
34.12
34.299
34.476
34.648
34.815
34.974
35.124
35.265
35.395
35.515
35.623
35.72
35.804
35.877
35.938
35.988
36.028
36.057
36.079
36.093
36.102
36.108
36.109
36.108
36.105
36.101
36.096
36.09
36.083
36.077
36.071
36.066
36.062
36.057
36.054
36.052
36.051
36.052
36.055
36.059
36.065
36.072
36.078
36.084
36.086
36.086
36.082
36.077
36.07
36.062
36.053
36.044
36.033
36.021
36.006
35.989
35.969
35.946
35.922
35.896
35.871
35.847
35.825
35.806
35.791
35.78
35.773
35.772
35.774
35.779
35.788
35.799
35.812
35.825
35.836
35.845
35.85
35.851
35.848
35.84
35.828
35.813
35.795
35.776
35.757
35.737
35.718
35.699
35.68
35.661
35.641
35.62
35.596
35.572
35.545
35.514
35.481
35.446
35.409
35.372
35.336
35.302
35.27
35.239
35.209
35.179
35.149
35.119
35.088
35.056
35.023
34.988
34.952
34.915
34.878
34.84
34.804
34.768
34.735
34.704
34.674
34.646
34.619
34.592
34.564
34.537
34.509
34.481
34.453
34.425
34.395
34.366
34.337
34.309
34.282
34.258
34.235
34.215
34.197
34.181
34.166
34.151
34.138
34.124
34.11
34.097
34.083
34.068
34.053
34.036
34.018
33.999
33.979
33.959
33.939
33.919
33.898
33.876
33.854
33.832
33.81
33.789
33.769
33.75
33.732
33.716
33.702
33.689
33.676
33.665
33.654
33.643
33.631
33.618
33.603
33.586
33.569
33.55
33.53
33.51
33.49
33.469
33.449
33.429
33.41
33.392
33.377
33.363
33.353
33.346
33.344
33.348
33.359
33.379
33.409
33.449
33.501
33.567
33.646
33.74
33.848
33.97
34.105
34.252
34.41
34.576
34.749
34.926
35.103
35.278
35.448
35.61
35.762
35.903
36.032
36.149
36.256
36.352
36.439
36.517
36.587
36.649
36.704
36.751
36.79
36.822
36.846
36.864
36.877
36.885
36.89
36.894
36.898
36.902
36.907
36.915
36.924
36.936
36.948
36.961
36.974
36.985
36.994
37.0
37.003
37.004
37.002
36.998
36.992
36.985
36.977
36.967
36.955
36.939
36.921
36.9
36.875
36.849
36.822
36.793
36.765
36.739
36.717
36.698
36.684
36.674
36.669
36.667
36.667
36.669
36.671
36.673
36.675
36.677
36.678
36.678
36.677
36.674
36.671
36.668
36.664
36.66
36.655
36.65
36.644
36.637
36.629
36.62
36.611
36.6
36.588
36.575
36.561
36.548
36.535
36.521
36.507
36.493
36.477
36.46
36.442
36.423
36.403
36.383
36.364
36.345
36.326
36.308
36.289
36.27
36.251
36.23
36.208
36.184
36.157
36.128
36.095
36.057
36.017
35.974
35.93
35.887
35.845
35.805
35.768
35.734
35.703
35.673
35.646
35.621
35.596
35.573
35.549
35.525
35.501
35.476
35.451
35.425
35.399
35.374
35.348
35.323
35.298
35.273
35.249
35.227
35.204
35.181
35.158
35.135
35.111
35.088
35.066
35.045
35.025
35.008
34.993
34.98
34.967
34.954
34.941
34.928
34.915
34.901
34.887
34.872
34.855
34.836
34.815
34.793
34.77
34.746
34.722
34.697
34.672
34.647
34.622
34.597
34.573
34.55
34.529
34.509
34.489
34.47
34.45
34.43
34.409
34.386
34.363
34.339
34.315
34.292
34.268
34.246
34.224
34.203
34.183
34.164
34.146
34.127
34.109
34.091
34.072
34.055
34.039
34.026
34.017
34.013
34.016
34.028
34.051
34.085
34.133
34.196
34.274
34.369
34.479
34.603
34.743
34.895
35.059
35.234
35.419
35.61
35.806
36.004
36.201
36.395
36.581
36.76
36.929
37.085
37.229
37.36
37.477
37.581
37.672
37.753
37.822
37.883
37.934
37.978
38.014
38.042
38.063
38.079
38.088
38.093
38.094
38.093
38.092
38.091
38.092
38.095
38.101
38.109
38.118
38.127
38.136
38.144
38.151
38.157
38.161
38.163
38.163
38.162
38.159
38.153
38.146
38.137
38.126
38.113
38.099
38.084
38.068
38.051
38.034
38.016
37.998
37.979
37.959
37.938
37.917
37.896
37.875
37.854
37.833
37.814
37.797
37.783
37.772
37.764
37.759
37.758
37.76
37.765
37.77
37.775
37.779
37.783
37.785
37.786
37.785
37.783
37.778
37.772
37.763
37.75
37.734
37.714
37.69
37.663
37.633
37.6
37.565
37.528
37.489
37.449
37.408
37.368
37.329
37.292
37.257
37.224
37.193
37.163
37.134
37.104
37.075
37.045
37.016
36.988
36.959
36.93
36.901
36.871
36.838
36.804
36.767
36.73
36.691
36.653
36.617
36.581
36.548
36.515
36.484
36.454
36.423
36.39
36.357
36.321
36.285
36.247
36.207
36.167
36.126
36.087
36.049
36.014
35.982
35.954
35.929
35.907
35.887
35.867
35.848
35.828
35.808
35.787
35.764
35.74
35.715
35.69
35.665
35.642
35.62
35.602
35.585
35.57
35.557
35.545
35.532
35.517
35.502
35.484
35.466
35.445
35.421
35.395
35.365
35.333
35.298
35.262
35.223
35.184
35.146
35.109
35.075
35.042
35.013
34.986
34.962
34.941
34.922
34.903
34.882
34.86
34.837
34.812
34.785
34.757
34.728
34.7
34.672
34.645
