Trial 3:3back
36.107
36.866
37.6
38.293
38.932
39.507
40.009
40.435
40.783
41.053
41.248
41.373
41.433
41.435
41.387
41.296
41.172
41.02
40.85
40.668
40.481
40.294
40.11
39.931
39.76
39.597
39.442
39.294
39.151
39.013
38.879
38.748
38.617
38.486
38.354
38.219
38.081
37.941
37.798
37.654
37.509
37.363
37.217
37.07
36.924
36.78
36.638
36.499
36.364
36.234
36.109
35.99
35.879
35.774
35.675
35.582
35.496
35.417
35.344
35.277
35.216
35.161
35.11
35.063
35.02
34.98
34.943
34.908
34.874
34.841
34.807
34.771
34.732
34.691
34.645
34.595
34.541
34.481
34.416
34.348
34.276
34.201
34.124
34.048
33.971
33.895
33.819
33.742
33.666
33.59
33.515
33.439
33.362
33.283
33.2
33.114
33.024
32.931
32.835
32.739
32.643
32.549
32.456
32.366
32.278
32.195
32.114
32.035
31.958
31.883
31.809
31.735
31.662
31.588
31.515
31.443
31.371
31.301
31.232
31.165
31.101
31.038
30.976
30.916
30.855
30.793
30.729
30.663
30.595
30.524
30.451
30.378
30.305
30.234
30.164
30.097
30.032
29.97
29.91
29.853
29.798
29.746
29.697
29.65
29.605
29.56
29.516
29.473
29.433
29.396
29.363
29.333
29.308
29.287
29.271
29.26
29.255
29.257
29.269
29.292
29.331
29.392
29.481
29.606
29.776
30.0
30.287
30.646
31.081
31.595
32.187
32.853
33.582
34.363
35.179
36.011
36.842
37.653
38.429
39.154
39.816
40.404
40.912
41.336
41.675
41.929
42.104
42.204
42.235
42.208
42.13
42.011
41.86
41.684
41.492
41.291
41.088
40.887
40.691
40.504
40.325
40.154
39.992
39.836
39.687
39.541
39.399
39.259
39.122
38.987
38.854
38.722
38.59
38.458
38.324
38.188
38.05
37.911
37.773
37.635
37.498
37.364
37.233
37.105
36.979
36.855
36.732
36.612
36.494
36.381
36.273
36.17
36.074
35.985
35.904
35.83
35.76
35.695
35.635
35.579
35.527
35.48
35.437
35.397
35.361
35.327
35.293
35.258
35.219
35.177
35.131
35.08
35.024
34.961
34.893
34.819
34.74
34.655
34.565
34.471
34.375
34.278
34.182
34.087
33.995
33.904
33.815
33.727
33.638
33.548
33.456
33.362
33.268
33.173
33.079
32.984
32.891
32.8
32.709
32.619
32.53
32.441
32.355
32.269
32.185
32.102
32.021
31.941
31.863
31.786
31.71
31.635
31.562
31.491
31.421
31.352
31.283
31.214
31.147
31.081
31.015
30.949
30.885
30.822
30.758
30.694
30.63
30.567
30.505
30.444
30.385
30.327
30.273
30.223
30.18
30.141
30.108
30.079
30.056
30.036
30.019
30.004
29.99
29.976
29.962
29.948
29.933
29.919
29.908
29.901
29.9
29.908
29.926
29.961
30.016
30.099
30.221
30.397
30.641
30.963
31.368
31.857
32.43
33.082
33.807
34.594
35.43
36.298
37.182
38.063
38.923
39.744
40.512
41.21
41.83
42.362
42.803
43.151
43.407
43.576
43.665
43.682
43.639
43.544
43.408
43.24
43.05
42.845
42.633
42.421
42.211
42.008
41.813
41.628
41.454
41.29
41.134
40.985
40.841
40.699
40.558
40.414
40.266
40.112
39.951
39.783
39.607
39.425
39.238
39.048
38.855
38.662
38.468
38.278
38.091
37.911
37.738
37.572
37.414
37.265
37.124
36.993
36.87
36.756
36.651
36.553
36.462
36.379
36.301
36.228
36.16
36.097
36.039
35.985
35.934
35.885
35.838
35.792
35.745
35.698
35.649
35.599
35.547
35.493
35.436
35.374
35.306
35.233
35.155
35.075
34.993
34.909
34.824
34.739
34.653
34.564
34.472
34.377
34.279
34.177
34.072
33.963
33.853
33.744
33.636
33.531
33.428
33.329
33.233
33.141
33.052
32.966
32.882
32.799
32.717
32.633
32.549
32.462
32.374
32.285
32.197
32.111
32.028
31.95
31.877
31.808
31.742
31.677
31.614
31.552
31.491
31.43
31.37
31.31
31.249
31.187
31.125
31.062
30.999
30.936
30.874
30.814
30.756
30.699
30.645
30.593
30.541
30.49
30.438
30.387
30.336
30.288
30.24
30.193
30.147
30.102
30.059
30.019
29.982
29.95
29.923
29.903
29.891
29.889
29.899
29.926
29.984
30.088
30.248
30.473
30.769
31.14
31.59
32.117
32.718
33.388
34.12
34.904
35.726
36.572
37.428
38.276
39.099
39.883
40.613
41.278
41.867
42.375
42.798
43.135
43.387
43.559
43.655
43.686
43.658
43.582
43.466
43.319
43.149
42.964
42.771
42.574
42.377
42.183
41.993
41.809
41.632
41.462
41.297
41.138
40.983
40.833
40.685
40.538
40.391
40.245
40.098
39.951
39.802
39.65
39.496
39.341
39.186
39.031
38.877
38.725
38.575
38.427
38.283
38.142
38.006
37.877
37.757
37.645
37.543
37.449
37.365
37.289
37.221
37.159
37.103
37.051
37.003
36.958
36.917
36.878
36.841
36.806
36.77
36.736
36.701
36.666
36.631
36.596
36.56
36.522
36.479
36.43
36.375
36.313
36.243
36.166
36.082
35.991
35.895
35.794
35.688
35.579
35.468
35.355
35.242
35.128
35.016
34.905
34.795
34.687
34.581
34.477
34.373
34.27
34.166
34.063
33.959
33.856
33.755
33.656
33.559
33.467
33.377
33.29
33.206
33.124
33.045
32.967
32.891
32.817
32.744
32.672
32.6
32.528
32.455
32.38
32.304
32.227
32.148
32.07
31.991
31.913
31.836
31.758
31.682
31.606
31.532
31.459
31.387
31.316
31.245
31.173
31.101
31.029
30.957
30.886
30.818
30.753
30.694
30.641
30.595
30.558
30.532
30.519
30.522
30.545
30.592
30.674
30.797
30.973
31.207
31.507
31.879
32.326
32.848
33.441
34.1
34.814
35.572
36.359
37.158
37.951
38.722
39.455
40.135
40.751
41.292
41.753
42.13
42.424
42.638
42.778
42.849
42.86
42.819
42.735
42.616
42.469
42.301
42.12
41.932
41.741
41.551
41.366
41.188
41.019
40.858
40.707
40.563
40.424
40.289
40.156
40.023
39.889
39.752
39.611
39.466
39.319
39.168
39.015
38.859
38.701
38.542
38.381
38.219
38.059
37.9
37.743
37.592
37.447
37.31
37.182
37.066
36.962
36.87
36.79
36.721
36.664
36.617
36.579
36.548
36.525
36.508
36.495
36.486
36.479
36.472
36.463
36.45
36.435
36.415
36.391
36.363
36.33
36.293
36.252
36.208
36.16
36.106
36.048
35.985
35.918
35.847
35.772
35.693
35.612
35.528
35.44
35.348
35.252
35.153
35.049
34.944
34.836
34.726
34.615
34.504
34.394
34.283
34.172
34.062
33.953
33.845
33.738
33.634
33.53
33.43
33.332
33.237
33.143
33.052
32.962
32.875
32.79
32.706
32.623
32.54
32.457
32.373
32.288
32.201
32.113
32.023
31.933
31.845
31.758
31.671
31.587
31.504
31.424
31.344
31.267
31.191
31.117
31.045
30.975
30.906
30.84
30.779
30.722
30.672
30.63
30.597
30.576
30.572
30.589
30.634
30.713
30.837
31.013
31.25
31.555
31.932
32.384
32.911
33.509
34.17
34.882
35.63
36.401
37.176
37.94
38.676
39.37
40.01
40.585
41.089
41.517
41.865
42.135
42.33
42.456
42.518
42.525
42.484
42.405
42.295
42.161
42.011
41.85
41.681
41.509
41.338
41.169
41.005
40.845
40.69
40.54
40.393
40.248
40.103
39.956
39.806
39.652
39.494
39.333
39.168
39.0
38.831
38.661
38.49
38.319
38.147
37.978
37.811
37.649
37.493
37.345
37.206
37.078
36.963
36.859
36.766
36.685
36.615
36.554
36.502
36.457
36.42
36.389
36.364
36.345
36.33
36.317
36.304
36.291
36.278
36.262
36.245
36.225
36.205
36.185
36.165
36.145
36.123
36.098
36.07
36.038
36.001
35.959
35.912
35.86
35.802
35.74
35.672
35.6
35.522
35.438
35.35
35.254
35.153
35.046
34.936
34.824
34.71
34.596
34.482
34.368
34.257
34.147
34.039
33.934
33.833
33.736
33.644
33.555
33.468
33.383
33.299
33.215
33.129
33.043
32.956
32.87
32.784
32.7
32.617
32.535
32.453
32.373
32.293
32.214
32.136
32.059
31.984
31.909
31.833
31.757
31.679
31.6
31.522
31.445
31.37
31.3
31.234
31.175
31.121
31.073
31.031
30.999
30.978
30.973
30.988
31.03
31.105
31.223
31.392
31.62
31.914
32.278
32.715
33.225
33.803
34.442
35.131
35.856
36.603
37.352
38.077
38.76
39.389
39.954
40.451
40.877
41.23
41.515
41.734
41.894
41.998
42.052
42.062
42.033
41.969
41.878
41.764
41.633
41.49
41.34
41.188
41.036
40.888
40.743
40.602
40.464
40.329
40.196
40.065
39.935
39.806
39.676
39.546
39.415
39.281
39.144
39.004
38.861
38.715
38.565
38.414
38.261
38.109
37.959
37.812
37.668
37.53
37.4
37.279
37.169
37.069
36.979
36.899
36.83
36.77
36.72
36.68
36.647
36.623
36.605
36.592
36.583
36.578
36.575
36.573
36.573
36.571
36.568
36.563
36.553
36.539
36.519
36.492
36.459
36.419
36.375
36.325
36.27
36.213
36.152
36.088
36.021
35.95
35.875
35.798
35.72
35.643
35.564
35.486
35.407
35.329
35.249
35.167
35.083
34.997
34.907
34.814
34.718
34.619
34.518
34.415
34.313
34.213
34.115
34.02
33.929
33.843
33.763
33.687
33.614
33.545
33.478
33.413
33.348
33.282
33.216
33.148
33.081
33.015
32.95
32.886
32.824
32.764
32.707
32.651
32.598
32.547
32.497
32.449
32.402
32.353
32.303
32.251
32.197
32.144
32.09
32.039
31.991
31.95
31.919
31.902
31.905
31.934
31.999
32.107
32.266
32.483
32.764
33.112
33.527
34.006
34.542
35.127
35.749
36.395
37.054
37.71
38.35
38.96
39.529
40.047
40.508
40.907
41.237
41.499
41.693
41.823
41.892
41.907
41.875
41.804
41.701
41.573
41.427
41.267
41.101
40.931
40.761
40.595
40.432
40.276
40.126
39.983
39.846
39.715
39.59
39.469
39.351
39.234
39.118
39.0
38.88
38.757
38.632
38.504
38.375
38.244
38.112
37.981
37.851
37.724
37.6
37.479
37.362
37.25
37.145
37.048
36.959
36.879
36.808
36.748
36.696
36.652
36.617
36.59
36.571
36.56
36.556
36.559
36.568
36.582
36.599
36.618
36.637
36.654
36.668
36.678
36.681
36.677
36.666
36.646
36.619
36.583
36.539
36.487
36.427
36.361
36.289
36.212
36.13
36.044
35.957
35.867
35.778
35.691
35.605
35.521
35.438
35.356
35.274
35.191
35.107
35.024
34.941
34.857
34.772
34.685
34.597
34.507
34.417
34.328
34.239
34.153
34.07
33.992
33.917
33.844
33.775
33.708
33.644
33.581
33.52
33.46
33.401
33.343
33.285
33.227
33.168
33.109
33.05
32.992
32.934
32.877
32.822
32.768
32.717
32.666
32.617
32.568
32.52
32.472
32.425
32.377
32.33
32.284
32.241
32.201
32.167
32.14
32.123
32.121
32.139
32.184
32.26
32.377
32.541
32.758
33.033
33.366
33.759
34.209
34.709
35.252
35.827
36.421
37.022
37.616
38.191
38.735
39.237
39.687
40.081
40.412
40.681
40.887
41.032
41.119
41.153
41.14
41.086
40.997
40.88
40.742
40.588
40.425
40.257
40.086
39.917
39.752
39.592
39.439
39.293
39.154
39.023
38.898
38.78
38.668
38.561
38.459
38.359
38.261
38.163
38.064
37.963
37.859
37.753
37.645
37.535
37.422
37.309
37.195
37.082
36.971
36.863
36.76
36.664
36.576
36.497
36.428
36.368
36.318
36.278
36.246
36.223
36.206
36.197
36.196
36.201
36.212
36.226
36.244
36.263
36.282
36.298
36.311
36.318
36.319
36.313
36.301
36.282
36.256
36.221
36.178
36.128
36.07
36.002
35.924
35.837
35.745
35.649
35.55
35.451
35.354
35.259
35.169
35.082
34.999
34.919
34.842
34.769
34.699
34.632
34.568
34.504
34.441
34.378
34.314
34.248
34.18
34.111
34.041
33.971
33.902
33.832
33.763
33.693
33.624
33.554
33.484
33.413
33.343
33.274
33.204
33.136
33.069
33.002
32.937
32.872
32.808
32.746
32.688
32.632
32.581
32.533
32.488
32.445
32.405
32.365
32.326
32.287
32.249
32.213
32.18
32.149
32.12
32.094
32.072
32.058
32.056
32.069
32.104
32.167
32.266
32.407
32.596
32.837
33.133
33.485
33.89
34.344
34.839
35.369
35.922
36.488
37.056
37.613
38.149
38.654
39.118
39.534
39.895
40.199
40.444
40.631
40.763
40.844
40.878
40.871
40.828
40.754
40.657
40.54
40.408
40.266
40.12
39.973
39.829
39.689
39.556
39.43
39.309
39.195
39.085
38.979
38.874
38.771
38.667
38.563
38.457
38.348
38.237
38.123
38.006
37.883
37.754
37.621
37.484
37.344
37.204
37.065
36.93
36.802
36.681
36.569
36.466
36.372
36.29
36.219
36.16
36.113
36.078
36.054
36.04
36.036
36.04
36.049
36.062
36.078
36.097
36.116
36.133
36.149
36.162
36.172
36.177
36.176
36.169
36.155
36.134
36.108
36.075
36.037
35.994
35.946
35.893
35.833
35.768
35.698
35.626
35.551
35.476
35.399
35.321
35.242
35.162
35.079
34.996
34.912
34.828
34.745
34.664
34.584
34.506
34.429
34.355
34.284
34.215
34.149
34.084
34.02
33.958
33.896
33.834
33.771
33.706
33.641
33.574
33.507
33.44
33.374
33.309
33.247
33.188
33.131
33.077
33.024
32.973
32.922
32.873
32.823
32.775
32.728
32.683
32.638
32.593
32.549
32.505
32.46
32.414
32.369
32.325
32.283
32.243
32.207
32.177
32.154
32.143
32.148
32.174
32.228
32.316
32.445
32.621
32.848
33.129
33.462
33.842
34.262
34.719
35.208
35.721
36.251
36.791
37.331
37.86
38.37
38.85
39.292
39.69
40.038
40.335
40.579
40.769
40.906
40.993
41.035
41.035
40.998
40.929
40.833
40.717
40.583
40.438
40.287
40.133
39.98
39.833
39.691
39.557
39.43
39.308
39.192
39.079
38.97
38.862
38.756
38.653
38.553
38.454
38.354
38.254
38.151
38.046
37.938
37.825
37.709
37.59
37.471
37.352
37.235
37.122
37.014
36.911
36.816
36.728
36.647
36.575
36.51
36.454
36.407
36.368
36.336
36.312
36.294
36.282
36.274
36.268
36.265
36.263
36.263
36.264
36.266
36.27
36.273
36.275
36.275
36.272
36.262
36.245
36.221
36.189
36.15
36.104
36.052
35.996
35.935
35.87
35.8
35.727
35.649
35.569
35.485
35.399
35.313
35.225
35.139
35.054
34.97
34.888
34.806
34.727
34.649
34.572
34.496
34.421
34.347
34.273
34.199
34.124
34.048
33.972
33.896
33.82
33.745
33.671
33.599
33.528
33.458
33.389
33.322
33.256
33.191
33.128
33.065
33.005
32.944
32.883
32.822
32.761
32.699
32.635
32.57
32.506
32.442
32.38
32.32
32.263
32.208
32.156
32.106
32.059
32.013
31.97
31.929
31.893
31.861
31.835
31.819
31.814
31.825
31.856
31.911
31.996
32.118
32.287
32.508
32.785
33.121
33.514
33.963
34.459
34.996
35.561
36.142
36.728
37.306
37.864
38.391
38.877
39.315
39.7
40.029
40.299
40.511
40.666
40.767
40.819
40.827
40.798
40.737
40.652
40.548
40.432
40.307
40.179
40.051
39.924
39.799
39.679
39.564
39.454
39.348
39.248
39.152
39.059
38.969
38.88
38.791
38.702
38.612
38.519
38.422
38.322
38.219
38.113
38.003
37.889
37.772
37.652
37.53
37.407
37.282
37.158
37.035
36.916
36.802
36.697
36.601
36.515
36.44
36.377
36.323
36.27
36.215
36.158
36.102
36.051
36.008
35.977
35.96
35.958
35.968
35.99
36.021
36.057
36.095
36.132
36.165
36.193
36.214
36.226
36.229
36.221
36.203
36.173
36.133
36.082
36.022
35.955
35.882
35.805
35.724
35.642
35.558
35.474
35.388
35.301
35.213
35.125
35.035
34.946
34.858
34.77
34.683
34.596
34.508
34.421
34.335
34.25
34.167
34.085
34.006
33.93
33.856
33.783
33.709
33.634
33.557
33.48
33.402
33.326
33.251
33.18
33.113
33.048
32.987
32.929
32.873
32.819
32.766
32.716
32.666
32.617
32.567
32.518
32.468
32.418
32.368
32.318
32.268
32.217
32.166
32.115
32.065
32.015
31.965
31.916
31.867
31.819
31.771
31.725
31.681
31.641
31.606
31.577
31.559
31.554
31.568
31.608
31.683
31.799
31.963
32.181
32.456
32.791
33.183
33.628
34.122
34.654
35.216
35.795
36.381
36.961
37.523
38.057
38.553
39.003
39.403
39.747
40.033
40.262
40.434
40.555
40.628
40.658
40.65
40.611
40.546
40.461
40.36
40.247
40.128
40.006
39.884
39.764
39.647
39.535
39.426
39.322
39.221
39.123
39.027
38.932
38.838
38.745
38.652
38.557
38.461
38.362
38.259
38.153
38.043
37.927
37.805
37.678
37.548
37.417
37.286
37.158
37.035
36.917
36.807
36.704
36.61
36.523
36.446
36.378
36.319
36.267
36.223
36.188
36.16
36.142
36.131
36.129
36.134
36.145
36.161
36.18
36.198
36.214
36.226
36.234
36.236
36.232
36.22
36.201
36.175
36.141
36.1
36.052
35.997
35.937
35.872
35.805
35.735
35.664
35.592
35.52
35.446
35.372
35.297
35.22
35.141
35.061
34.979
34.894
34.807
34.718
34.628
34.537
34.445
34.353
34.262
34.171
34.083
33.996
33.912
33.831
33.753
33.678
33.604
33.529
33.454
33.379
33.303
33.229
33.157
33.087
33.02
32.955
32.892
32.831
32.772
32.714
32.659
32.606
32.555
32.504
32.454
32.404
32.353
32.302
32.249
32.196
32.141
32.086
32.031
31.976
31.922
31.87
31.819
31.77
31.723
31.677
31.634
31.594
31.557
31.521
31.486
31.452
31.419
31.39
31.365
31.347
31.338
31.341
31.361
31.402
31.469
31.567
31.704
31.885
32.117
32.405
32.753
33.161
33.628
34.149
34.717
35.324
35.956
36.602
37.248
37.882
38.489
39.061
39.586
40.06
40.476
40.83
41.12
41.346
41.509
41.615
41.667
41.671
41.632
41.558
41.455
41.329
41.188
41.036
40.878
40.718
40.559
40.402
40.249
40.101
39.958
39.821
39.689
39.562
39.438
39.316
39.197
39.078
38.958
38.837
38.713
38.587
38.457
38.324
38.187
38.047
37.904
37.759
37.614
37.468
37.323
37.179
37.037
36.9
36.77
36.648
36.536
36.435
36.347
36.27
36.205
36.149
36.102
36.064
36.033
36.008
35.99
35.975
35.964
35.956
35.951
35.947
35.943
35.94
35.936
35.931
35.923
35.913
35.9
35.884
35.863
35.839
35.81
35.777
35.74
35.698
35.653
35.603
35.548
35.488
35.422
35.351
35.274
35.193
35.108
35.021
34.933
34.846
34.76
34.675
34.593
34.515
34.439
34.367
34.296
34.227
34.158
34.09
34.022
33.953
33.882
33.811
33.739
33.665
33.591
33.518
33.447
33.377
33.31
33.246
33.183
33.122
33.063
33.005
32.948
32.891
32.833
32.776
32.717
32.658
32.597
32.536
32.474
32.413
32.352
32.292
32.234
32.177
32.123
32.07
32.018
31.967
31.917
31.869
31.821
31.774
31.726
31.678
31.629
31.58
31.53
31.481
31.434
31.39
31.35
31.312
31.276
31.241
31.202
31.155
31.1
31.04
30.978
30.918
30.865
30.824
30.797
30.789
30.805
30.851
30.932
31.054
31.223
31.447
31.731
32.078
32.49
32.963
33.493
34.072
34.69
35.334
35.992
36.648
37.289
37.902
38.474
38.998
39.464
39.865
40.201
40.471
40.675
40.817
40.902
40.934
40.921
40.871
40.791
40.687
40.566
40.434
40.295
40.151
40.007
39.864
39.723
39.587
39.456
39.332
39.214
39.103
38.999
38.901
38.807
38.715
38.624
38.532
38.441
38.348
38.253
38.155
38.055
37.952
37.846
37.737
37.625
37.509
37.391
37.271
37.153
37.037
36.925
36.819
36.721
36.631
36.55
36.479
36.417
36.365
36.323
36.29
36.266
36.251
36.242
36.24
36.244
36.251
36.262
36.272
36.281
36.287
36.291
36.29
36.283
36.271
36.253
36.23
36.202
36.168
36.13
36.086
36.038
35.985
35.929
35.869
35.805
35.739
35.669
35.597
35.521
35.441
35.359
35.274
35.187
35.098
35.009
34.919
34.83
34.742
34.655
34.568
34.482
34.397
34.313
34.231
34.151
34.073
33.997
33.924
33.854
33.785
33.718
33.652
33.587
33.522
33.456
33.388
33.32
33.25
33.179
33.107
33.036
32.965
32.896
32.83
32.765
32.702
32.642
32.585
32.53
32.478
32.428
32.378
32.328
32.276
32.222
32.165
32.106
32.044
31.981
31.917
31.854
31.792
31.732
31.674
31.619
31.567
31.519
31.474
31.433
31.394
31.358
31.324
31.292
31.262
31.234
31.209
31.187
31.167
31.15
31.136
31.127
31.121
31.122
31.129
31.147
31.179
31.231
31.31
31.422
31.577
31.78
32.038
32.354
32.731
33.167
33.658
34.198
34.777
35.383
36.002
36.622
37.225
37.799
38.332
38.812
39.232
39.589
39.88
40.105
40.267
40.37
40.421
40.422
40.382
40.304
40.199
40.071
39.928
39.776
39.62
39.465
39.314
39.171
39.035
38.909
38.791
38.679
38.572
38.47
38.37
38.271
38.172
38.074
37.976
37.878
37.778
37.674
37.566
37.452
37.333
37.208
37.08
36.949
36.818
36.689
36.563
36.442
36.328
36.22
36.118
36.023
35.935
35.853
35.78
35.717
35.666
35.625
35.593
35.571
35.556
35.549
35.546
35.547
35.55
35.557
