Trial 3:3back
34.714
34.676
34.644
34.617
34.596
34.581
34.571
34.567
34.567
34.572
34.58
34.592
34.605
34.619
34.634
34.65
34.666
34.682
34.697
34.711
34.723
34.734
34.743
34.751
34.756
34.759
34.761
34.76
34.758
34.754
34.749
34.742
34.734
34.723
34.711
34.697
34.681
34.663
34.644
34.622
34.599
34.573
34.547
34.518
34.488
34.457
34.425
34.392
34.359
34.325
34.291
34.257
34.225
34.192
34.161
34.131
34.101
34.073
34.046
34.02
33.995
33.97
33.945
33.92
33.895
33.87
33.846
33.822
33.798
33.774
33.752
33.729
33.708
33.688
33.668
33.649
33.632
33.616
33.6
33.585
33.57
33.555
33.539
33.522
33.504
33.485
33.465
33.444
33.423
33.402
33.381
33.36
33.339
33.319
33.299
33.281
33.264
33.25
33.241
33.236
33.238
33.249
33.27
33.306
33.356
33.424
33.511
33.618
33.745
33.893
34.059
34.243
34.441
34.651
34.87
35.094
35.319
35.543
35.761
35.971
36.17
36.355
36.524
36.675
36.808
36.921
37.014
37.089
37.145
37.183
37.206
37.213
37.207
37.187
37.156
37.115
37.064
37.005
36.939
36.867
36.791
36.712
36.632
36.553
36.474
36.398
36.323
36.252
36.184
36.119
36.059
36.002
35.948
35.897
35.849
35.803
35.757
35.713
35.67
35.627
35.584
35.542
35.5
35.458
35.416
35.373
35.329
35.283
35.237
35.191
35.145
35.101
35.059
35.02
34.984
34.952
34.924
34.9
34.88
34.865
34.853
34.845
34.84
34.838
34.84
34.844
34.85
34.859
34.87
34.882
34.896
34.911
34.927
34.942
34.958
34.973
34.987
34.999
35.009
35.016
35.02
35.022
35.02
35.016
35.009
34.999
34.987
34.972
34.956
34.937
34.916
34.893
34.869
34.843
34.816
34.789
34.76
34.732
34.703
34.675
34.646
34.617
34.589
34.56
34.531
34.502
34.474
34.444
34.415
34.386
34.356
34.327
34.298
34.269
34.24
34.212
34.184
34.156
34.13
34.104
34.08
34.057
34.036
34.015
33.995
33.975
33.955
33.935
33.916
33.896
33.877
33.859
33.842
33.826
33.811
33.797
33.784
33.771
33.759
33.746
33.733
33.72
33.707
33.693
33.679
33.664
33.649
33.633
33.617
33.602
33.587
33.573
33.564
33.559
33.561
33.573
33.597
33.637
33.695
33.774
33.875
33.997
34.142
34.308
34.493
34.695
34.91
35.135
35.367
35.601
35.835
36.064
36.285
36.495
36.692
36.872
37.035
37.178
37.302
37.405
37.488
37.551
37.594
37.62
37.63
37.626
37.608
37.58
37.542
37.495
37.442
37.383
37.32
37.255
37.188
37.12
37.05
36.98
36.91
36.84
36.77
36.702
36.634
36.568
36.503
36.442
36.382
36.326
36.272
36.22
36.171
36.123
36.078
36.033
35.989
35.946
35.904
35.863
35.821
35.781
35.741
35.702
35.664
35.627
35.592
35.557
35.523
35.49
35.46
35.432
35.407
35.383
35.362
35.342
35.324
35.308
35.293
35.281
35.272
35.265
35.262
35.261
35.263
35.268
35.274
35.283
35.292
35.303
35.314
35.324
35.333
35.341
35.347
35.35
35.352
35.35
35.347
35.341
35.332
35.321
35.307
35.291
35.273
35.253
35.232
35.208
35.182
35.155
35.127
35.098
35.069
35.039
35.01
34.98
34.95
34.919
34.887
34.854
34.819
34.784
34.748
34.712
34.676
34.641
34.607
34.574
34.543
34.514
34.486
34.458
34.432
34.407
34.382
34.357
34.331
34.305
34.278
34.249
34.22
34.19
34.161
34.131
34.103
34.074
34.047
34.021
33.996
33.973
33.951
33.931
33.913
33.896
33.88
33.865
33.85
33.835
33.821
33.806
33.79
33.774
33.758
33.741
33.725
33.71
33.697
33.685
33.676
33.673
33.677
33.69
33.715
33.754
33.81
33.884
33.977
34.09
34.223
34.376
34.547
34.734
34.935
35.148
35.368
35.593
35.819
36.042
36.26
36.468
36.664
36.846
37.012
37.159
37.286
37.394
37.482
37.549
37.598
37.629
37.644
37.645
37.634
37.611
37.58
37.542
37.497
37.446
37.39
37.33
37.266
37.199
37.129
37.058
36.986
36.913
36.841
36.77
36.701
36.634
36.57
36.508
36.449
36.393
36.339
36.287
36.237
36.189
36.142
36.096
36.051
36.007
35.964
35.921
35.878
35.835
35.792
35.748
35.704
35.66
35.617
35.575
35.536
35.498
35.464
35.433
35.406
35.384
35.367
35.354
35.346
35.342
35.341
35.344
35.349
35.358
35.369
35.383
35.398
35.415
35.433
35.452
35.472
35.492
35.512
35.531
35.548
35.564
35.576
35.586
35.591
35.593
35.59
35.583
35.572
35.557
35.54
35.52
35.498
35.476
35.451
35.425
35.398
35.368
35.337
35.304
35.271
35.239
35.206
35.175
35.144
35.113
35.082
35.05
35.018
34.986
34.953
34.921
34.888
34.856
34.824
34.792
34.762
34.731
34.701
34.672
34.642
34.613
34.583
34.554
34.526
34.498
34.471
34.444
34.418
34.393
34.368
34.345
34.323
34.303
34.285
34.267
34.251
34.235
34.22
34.205
34.191
34.177
34.163
34.15
34.136
34.121
34.107
34.092
34.077
34.062
34.047
34.032
34.017
34.003
33.99
33.98
33.975
33.975
33.983
34.001
34.03
34.074
34.135
34.214
34.312
34.43
34.568
34.724
34.897
35.084
35.282
35.489
35.701
35.914
36.126
36.332
36.53
36.718
36.893
37.053
37.197
37.324
37.433
37.523
37.594
37.646
37.682
37.701
37.706
37.697
37.677
37.646
37.607
37.56
37.506
37.448
37.385
37.319
37.25
37.18
37.109
37.037
36.965
36.894
36.823
36.754
36.684
36.616
36.547
36.478
36.411
36.344
36.279
36.215
36.153
36.093
36.034
35.977
35.922
35.869
35.818
35.769
35.722
35.677
35.634
35.594
35.557
35.523
35.492
35.466
35.443
35.424
35.409
35.397
35.389
35.384
35.383
35.385
35.391
35.401
35.413
35.428
35.445
35.465
35.486
35.509
35.532
35.556
35.579
35.601
35.622
35.642
35.659
35.673
35.683
35.691
35.695
35.696
35.694
35.69
35.683
35.674
35.663
35.65
35.634
35.617
35.597
35.575
35.551
35.525
35.496
35.466
35.435
35.402
35.367
35.331
35.293
35.254
35.215
35.176
35.137
35.098
35.06
35.022
34.985
34.948
34.913
34.878
34.844
34.81
34.777
34.743
34.709
34.676
34.642
34.608
34.575
34.541
34.508
34.474
34.44
34.406
34.372
34.336
34.301
34.264
34.227
34.189
34.15
34.111
34.072
34.034
33.997
33.961
33.927
33.894
33.863
33.834
33.808
33.783
33.762
33.745
33.733
33.729
33.734
33.751
33.784
33.835
33.905
33.996
34.109
34.243
34.396
34.567
34.754
34.952
35.158
35.369
35.582
35.793
35.999
36.197
36.385
36.558
36.717
36.859
36.983
37.089
37.175
37.243
37.293
37.326
37.343
37.345
37.333
37.309
37.273
37.228
37.175
37.114
37.047
36.975
36.899
36.82
36.739
36.657
36.575
36.495
36.416
36.34
36.266
36.195
36.127
36.06
35.994
35.929
35.864
35.801
35.738
35.676
35.615
35.556
35.498
35.441
35.387
35.334
35.281
35.229
35.178
35.127
35.077
35.027
34.979
34.933
34.889
34.847
34.809
34.773
34.742
34.714
34.691
34.673
34.658
34.649
34.643
34.642
34.645
34.652
34.662
34.674
34.688
34.704
34.719
34.735
34.75
34.763
34.775
34.785
34.792
34.797
34.799
34.799
34.797
34.791
34.783
34.771
34.755
34.736
34.714
34.688
34.658
34.626
34.591
34.553
34.513
34.472
34.428
34.383
34.337
34.29
34.244
34.197
34.152
34.108
34.065
34.024
33.985
33.947
33.91
33.875
33.84
33.806
33.772
33.739
33.706
33.672
33.639
33.605
33.571
33.536
33.501
33.467
33.433
33.399
33.367
33.335
33.305
33.276
33.249
33.224
33.2
33.177
33.156
33.136
33.117
33.098
33.079
33.06
33.04
33.021
33.001
32.981
32.96
32.938
32.917
32.897
32.879
32.864
32.854
32.852
32.86
32.88
32.915
32.967
33.039
33.131
33.245
33.382
33.541
33.72
33.917
34.13
34.356
34.591
34.831
35.073
35.313
35.547
35.772
35.986
36.186
36.371
36.537
36.685
36.812
36.919
37.006
37.072
37.119
37.148
37.16
37.157
37.141
37.113
37.074
37.026
36.971
36.91
36.844
36.774
36.703
36.63
36.556
36.484
36.412
36.341
36.272
36.205
36.14
36.077
36.018
35.962
35.91
35.861
35.815
35.773
35.734
35.698
35.664
35.632
35.6
35.568
35.536
35.503
35.468
35.432
35.393
35.354
35.313
35.272
35.231
35.19
35.15
35.112
35.076
35.044
35.015
34.99
34.97
34.955
34.944
34.938
34.934
34.934
34.936
34.94
34.946
34.953
34.96
34.969
34.978
34.987
34.996
35.004
35.012
35.019
35.026
35.032
35.037
35.042
35.045
35.047
35.046
35.044
35.038
35.03
35.019
35.005
34.988
34.969
34.948
34.926
34.902
34.878
34.853
34.829
34.804
34.779
34.753
34.727
34.7
34.671
34.643
34.614
34.584
34.555
34.525
34.495
34.466
34.436
34.407
34.378
34.35
34.323
34.297
34.272
34.247
34.223
34.2
34.178
34.156
34.135
34.115
34.095
34.075
34.055
34.035
34.014
33.993
33.972
33.95
33.928
33.907
33.885
33.862
33.839
33.816
33.792
33.768
33.745
33.724
33.704
33.689
33.68
33.679
33.69
33.714
33.756
33.817
33.898
34.002
34.128
34.275
34.444
34.632
34.837
35.056
35.285
35.523
35.765
36.007
36.246
36.478
36.699
36.908
37.1
37.275
37.431
37.567
37.684
37.782
37.861
37.922
37.966
37.994
38.006
38.004
37.99
37.965
37.93
37.886
37.835
37.777
37.714
37.647
37.577
37.505
37.432
37.358
37.284
37.212
37.141
37.073
37.008
36.945
36.886
36.829
36.775
36.724
36.674
36.627
36.581
36.537
36.495
36.453
36.412
36.372
36.332
36.293
36.254
36.215
36.175
36.134
36.093
36.051
36.009
35.968
35.927
35.888
35.85
35.815
35.783
35.755
35.731
35.711
35.695
35.683
35.676
35.673
35.675
35.68
35.688
35.698
35.71
35.723
35.737
35.751
35.764
35.776
35.785
35.793
35.798
35.801
35.803
35.801
35.798
35.792
35.783
35.772
35.76
35.745
35.728
35.709
35.688
35.666
35.641
35.614
35.586
35.555
35.523
35.49
35.455
35.419
35.383
35.347
35.31
35.273
35.237
35.202
35.166
35.131
35.095
35.059
35.022
34.985
34.948
34.912
34.876
34.841
34.806
34.772
34.74
34.709
34.679
34.651
34.624
34.598
34.572
34.548
34.523
34.498
34.473
34.446
34.42
34.393
34.366
34.339
34.312
34.285
34.257
34.231
34.206
34.181
34.158
34.135
34.114
34.095
34.079
34.067
34.061
34.063
34.074
34.097
34.136
34.191
34.265
34.36
34.476
34.614
34.773
34.952
35.149
35.361
35.584
35.816
36.053
36.291
36.528
36.759
36.983
37.197
37.397
37.582
37.751
37.902
38.035
38.148
38.241
38.314
38.368
38.403
38.421
38.424
38.414
38.39
38.356
38.313
38.261
38.202
38.138
38.069
37.996
37.92
37.842
37.762
37.683
37.603
37.524
37.446
37.37
37.295
37.223
37.153
37.085
37.02
36.957
36.896
36.837
36.778
36.72
36.662
36.603
36.543
36.483
36.423
36.363
36.302
36.242
36.183
36.125
36.069
36.016
35.965
35.918
35.875
35.835
35.801
35.771
35.747
35.728
35.714
35.705
35.701
35.7
35.702
35.707
35.714
35.724
35.735
35.747
35.761
35.776
35.791
35.806
35.82
35.833
35.844
35.851
35.856
35.857
35.854
35.848
35.84
35.829
35.815
35.799
35.782
35.762
35.74
35.717
35.691
35.665
35.637
35.608
35.577
35.545
35.511
35.475
35.438
35.399
35.36
35.32
35.28
35.24
35.201
35.164
35.128
35.093
35.059
35.026
34.994
34.962
34.931
34.899
34.868
34.835
34.803
34.769
34.735
34.701
34.666
34.631
34.596
34.56
34.524
34.489
34.455
34.422
34.391
34.361
34.334
34.308
34.283
34.258
34.234
34.209
34.184
34.159
34.133
34.108
34.084
34.062
34.043
34.029
34.022
34.024
34.038
34.066
34.11
34.173
34.257
34.363
34.49
34.639
34.809
34.997
35.2
35.417
35.644
35.878
36.114
36.35
36.581
36.804
37.016
37.214
37.395
37.559
37.705
37.83
37.936
38.023
38.09
38.139
38.17
38.187
38.189
38.179
38.158
38.126
38.086
38.037
37.981
37.918
37.849
37.774
37.696
37.614
37.531
37.446
37.362
37.28
37.199
37.12
37.045
36.972
36.902
36.836
36.773
36.712
36.655
36.599
36.544
36.49
36.435
36.381
36.325
36.268
36.211
36.153
36.095
36.038
35.98
35.924
35.869
35.815
35.764
35.716
35.671
35.631
35.594
35.563
35.538
35.518
35.504
35.495
35.491
35.492
35.497
35.504
35.515
35.528
35.542
35.557
35.572
35.585
35.597
35.608
35.616
35.621
35.623
35.622
35.618
35.61
35.598
35.583
35.565
35.545
35.522
35.498
35.473
35.446
35.419
35.391
35.362
35.331
35.3
35.267
35.233
35.197
35.16
35.121
35.08
35.039
34.997
34.956
34.915
34.875
34.834
34.794
34.755
34.715
34.676
34.638
34.599
34.562
34.525
34.488
34.451
34.415
34.38
34.346
34.313
34.281
34.25
34.219
34.189
34.16
34.132
34.105
34.078
34.053
34.028
34.003
33.978
33.953
33.928
33.903
33.877
33.85
33.824
33.798
33.772
33.747
33.723
33.7
33.678
33.658
33.64
33.627
33.619
33.619
33.628
33.649
33.684
33.737
33.81
33.903
34.019
34.157
34.317
34.498
34.699
34.918
35.15
35.393
35.643
35.895
36.146
36.392
36.63
36.856
37.068
37.264
37.441
37.597
37.733
37.848
37.942
38.014
38.068
38.102
38.12
38.122
38.11
38.086
38.052
38.009
37.959
37.903
37.842
37.778
37.712
37.643
37.573
37.502
37.43
37.358
37.287
37.215
37.145
37.075
37.008
36.942
36.879
36.817
36.758
36.702
36.648
36.597
36.549
36.502
36.456
36.411
36.367
36.321
36.275
36.228
36.18
36.132
36.082
36.033
35.985
35.937
35.89
35.844
35.8
35.759
35.72
35.683
35.649
35.619
35.592
35.568
35.548
35.532
35.52
35.511
35.507
35.506
35.509
35.514
35.521
35.529
35.536
35.543
35.549
35.553
35.555
35.555
35.553
35.549
35.542
35.532
35.521
35.508
35.493
35.477
35.46
35.441
35.42
35.397
35.371
35.343
35.314
35.282
35.249
35.215
35.179
35.143
35.105
35.066
35.026
34.986
34.945
34.904
34.863
34.822
34.781
34.742
34.702
34.664
34.627
34.591
34.557
34.522
34.489
34.455
34.422
34.388
34.354
34.319
34.285
34.25
34.216
34.183
34.152
34.122
34.094
34.067
34.041
34.015
33.991
33.966
33.942
33.917
33.892
33.866
33.84
33.813
33.786
33.759
33.734
33.71
33.687
33.665
33.645
33.626
33.61
33.598
33.59
33.588
33.595
33.614
33.647
33.697
33.766
33.855
33.966
34.098
34.251
34.425
34.616
34.824
35.045
35.276
35.513
35.754
35.994
36.23
36.459
36.677
36.882
37.072
37.245
37.399
37.534
37.649
37.746
37.824
37.883
37.926
37.951
37.961
37.957
37.939
37.909
37.869
37.821
37.765
37.704
37.638
37.57
37.499
37.428
37.356
37.285
37.214
37.145
37.078
37.013
36.949
36.887
36.827
36.769
36.712
36.657
36.603
36.551
36.499
36.447
36.396
36.345
36.294
36.243
36.191
36.138
36.086
36.034
35.983
35.932
35.882
35.834
35.787
35.742
35.699
35.659
35.622
35.587
35.556
35.528
35.503
35.481
35.463
35.447
35.434
35.425
35.418
35.415
35.413
35.414
35.417
35.422
35.427
35.433
35.438
35.443
35.447
35.451
35.452
35.452
35.449
35.444
35.436
35.425
35.412
35.396
35.379
35.359
35.337
35.314
35.289
35.263
35.237
35.209
35.181
35.152
35.122
35.092
35.062
35.031
35.0
34.968
34.935
34.9
34.864
34.827
34.788
34.747
34.706
34.664
34.623
34.583
34.543
34.504
34.466
34.43
34.396
34.363
34.333
34.304
34.276
34.249
34.222
34.195
34.168
34.14
34.112
34.084
34.055
34.026
33.997
33.967
33.937
33.907
33.878
33.849
33.821
33.794
33.768
33.744
33.721
33.699
33.678
33.658
33.638
33.619
33.6
33.581
33.562
33.543
33.524
33.506
33.488
33.472
33.458
33.448
33.443
33.446
33.459
33.486
33.528
33.587
33.667
33.766
33.888
34.031
34.195
34.379
34.581
34.799
35.029
35.267
35.509
35.752
35.993
36.227
36.451
36.663
36.861
37.042
37.205
37.349
37.473
37.578
37.664
37.73
37.778
37.81
37.825
37.824
37.81
37.784
37.746
37.698
37.642
37.58
37.513
37.441
37.367
37.291
37.214
37.136
37.06
36.985
36.911
36.84
36.77
36.703
36.638
36.575
36.514
36.454
36.396
36.34
36.285
36.232
36.181
36.131
36.082
36.034
35.987
35.94
35.894
35.848
35.803
35.759
35.715
35.673
35.632
35.593
35.556
35.523
35.494
35.467
35.445
35.426
35.41
35.397
35.388
35.382
35.378
35.378
35.379
35.381
35.385
35.388
35.393
35.397
35.401
35.405
35.41
35.414
35.418
35.422
35.425
35.428
35.43
35.43
35.428
35.424
35.418
35.409
35.396
35.381
35.364
35.344
35.322
35.298
35.273
35.246
35.217
35.187
35.155
35.122
35.088
35.054
35.019
34.983
34.947
34.911
34.875
34.839
34.804
34.769
34.734
34.7
34.667
34.634
34.602
34.57
34.539
34.508
34.477
34.447
34.416
34.386
34.355
34.323
34.292
34.26
34.229
34.199
34.169
34.14
34.112
34.086
34.061
34.037
34.014
33.992
33.971
33.95
33.93
33.911
33.891
33.871
33.85
33.828
33.806
33.783
33.76
33.738
33.716
33.694
33.674
33.656
33.641
33.63
33.623
33.623
33.632
33.652
33.685
33.732
33.797
33.879
33.981
34.103
34.244
34.405
34.582
34.776
34.982
35.198
35.422
35.649
35.877
36.101
36.319
36.526
36.719
36.895
37.054
37.193
37.312
37.412
37.491
37.551
37.592
37.615
37.622
37.614
37.592
37.559
37.515
37.462
37.402
37.336
37.264
37.189
37.112
37.032
36.952
36.871
36.79
36.71
36.632
36.555
36.481
36.41
36.34
36.273
36.208
36.145
36.084
36.024
35.966
35.908
35.851
35.794
35.738
35.682
35.627
35.572
35.518
35.464
35.412
35.362
35.314
35.269
35.226
35.187
35.151
35.118
35.088
35.061
35.039
35.021
35.007
34.997
34.993
34.992
34.996
35.003
35.014
35.026
35.04
35.056
35.071
35.087
35.103
35.119
35.134
35.147
35.158
35.168
35.174
35.177
35.175
35.17
35.16
35.147
35.13
35.111
35.089
35.064
35.039
35.012
34.984
34.956
34.927
34.896
34.865
34.833
34.8
34.767
34.732
34.697
34.66
34.623
34.586
34.549
34.512
34.475
34.44
34.405
34.371
34.339
34.308
34.278
34.248
34.219
34.191
34.162
34.133
34.104
34.074
34.043
34.012
33.981
33.95
33.918
33.887
33.856
33.826
33.798
33.771
33.745
33.72
33.697
33.674
33.651
33.629
33.609
33.589
33.57
33.552
33.533
33.515
33.497
33.478
33.46
33.441
33.423
33.406
33.391
33.378
33.371
33.371
33.38
33.401
33.437
33.491
33.563
33.657
33.771
33.908
34.065
34.242
34.437
34.647
34.868
35.099
35.334
35.572
35.807
36.037
36.258
36.468
36.664
36.844
37.006
37.149
37.272
37.375
37.459
37.524
37.572
37.602
37.617
37.618
37.605
37.579
37.542
37.496
37.441
37.38
37.313
37.242
37.168
37.092
37.015
36.938
36.863
36.789
36.718
36.649
36.582
36.518
36.457
36.399
36.343
36.288
36.234
36.18
36.128
36.076
36.024
35.973
35.924
35.875
35.827
35.78
35.733
35.688
35.642
35.598
35.554
35.51
35.468
35.427
35.387
35.35
35.315
35.284
35.255
35.228
35.204
35.183
35.163
35.147
35.133
35.123
35.116
35.114
35.115
35.121
35.129
35.141
35.155
35.17
35.185
35.199
35.212
35.223
35.232
35.237
35.238
35.236
35.229
35.22
35.206
35.19
35.172
35.151
35.13
35.106
35.082
35.056
35.03
35.002
34.972
34.941
34.909
34.876
34.842
34.808
34.773
34.738
34.703
34.668
34.632
34.597
34.562
34.527
34.493
34.459
34.426
34.394
34.363
34.334
34.306
34.278
34.251
34.225
34.197
34.17
34.141
34.113
34.084
34.055
34.026
33.996
33.968
33.94
33.914
33.89
33.867
33.846
33.826
33.806
33.786
33.766
33.746
33.725
33.704
33.683
33.662
33.641
33.619
33.598
33.576
33.553
33.531
33.508
33.486
33.465
33.447
33.432
33.422
33.42
33.427
33.446
33.48
33.531
33.603
33.696
33.811
33.948
34.106
34.283
34.479
34.689
34.912
35.144
35.382
35.622
35.862
36.097
36.325
36.543
36.747
36.937
37.11
37.265
37.401
37.516
37.61
37.684
37.738
37.774
37.794
37.799
37.789
37.768
37.737
37.696
37.648
37.593
37.532
37.468
37.401
37.332
37.262
37.192
37.122
37.053
36.986
36.92
36.857
36.796
36.738
36.682
36.629
36.577
36.527
36.478
36.429
36.381
36.333
36.284
36.234
36.184
36.134
36.084
36.035
35.986
35.938
35.892
35.846
35.803
35.76
35.719
35.68
35.641
35.605
35.571
35.539
35.51
35.483
35.459
35.439
35.422
35.407
35.397
