Trial 3:3back
33.661
33.594
33.526
33.46
33.394
33.331
33.27
33.214
33.16
33.109
33.059
33.009
32.958
32.906
32.852
32.796
32.739
32.683
32.627
32.573
32.519
32.465
32.412
32.36
32.31
32.262
32.215
32.171
32.129
32.089
32.051
32.014
31.977
31.941
31.907
31.874
31.84
31.805
31.769
31.733
31.698
31.663
31.628
31.593
31.56
31.527
31.494
31.461
31.428
31.395
31.361
31.328
31.298
31.272
31.253
31.243
31.244
31.259
31.289
31.336
31.401
31.486
31.593
31.728
31.895
32.101
32.347
32.638
32.972
33.351
33.771
34.228
34.716
35.225
35.748
36.275
36.796
37.302
37.784
38.232
38.642
39.007
39.326
39.595
39.814
39.983
40.103
40.179
40.214
40.21
40.174
40.11
40.022
39.917
39.799
39.672
39.54
39.406
39.274
39.145
39.02
38.901
38.79
38.691
38.605
38.53
38.464
38.403
38.346
38.289
38.229
38.163
38.089
38.007
37.918
37.821
37.717
37.608
37.494
37.378
37.26
37.142
37.024
36.907
36.793
36.683
36.578
36.48
36.389
36.306
36.23
36.161
36.098
36.041
35.989
35.943
35.902
35.866
35.835
35.807
35.781
35.755
35.729
35.699
35.665
35.626
35.581
35.533
35.48
35.425
35.367
35.308
35.248
35.188
35.128
35.068
35.01
34.955
34.902
34.852
34.803
34.755
34.708
34.659
34.608
34.555
34.499
34.44
34.379
34.317
34.252
34.186
34.118
34.049
33.98
33.911
33.845
33.782
33.722
33.666
33.611
33.558
33.504
33.451
33.398
33.343
33.288
33.233
33.177
33.121
33.065
33.01
32.956
32.903
32.853
32.806
32.761
32.718
32.679
32.642
32.607
32.571
32.533
32.492
32.449
32.403
32.356
32.308
32.262
32.217
32.174
32.134
32.096
32.06
32.024
31.991
31.958
31.927
31.895
31.863
31.832
31.799
31.764
31.728
31.693
31.66
31.629
31.602
31.576
31.553
31.531
31.51
31.488
31.465
31.442
31.418
31.395
31.374
31.356
31.342
31.335
31.34
31.358
31.391
31.442
31.512
31.602
31.717
31.862
32.047
32.275
32.551
32.874
33.245
33.659
34.112
34.598
35.11
35.638
36.174
36.708
37.23
37.733
38.208
38.648
39.048
39.403
39.709
39.966
40.173
40.332
40.442
40.508
40.533
40.521
40.479
40.411
40.322
40.217
40.101
39.977
39.85
39.723
39.596
39.472
39.351
39.234
39.119
39.006
38.895
38.787
38.681
38.576
38.472
38.369
38.268
38.169
38.07
37.972
37.873
37.774
37.675
37.577
37.48
37.383
37.288
37.195
37.105
37.018
36.932
36.848
36.767
36.689
36.615
36.544
36.477
36.413
36.353
36.296
36.242
36.19
36.139
36.089
36.039
35.989
35.938
35.889
35.843
35.801
35.763
35.728
35.695
35.662
35.628
35.592
35.553
35.512
35.467
35.42
35.37
35.318
35.264
35.207
35.148
35.088
35.026
34.963
34.899
34.834
34.77
34.706
34.642
34.579
34.517
34.456
34.396
34.336
34.277
34.217
34.158
34.098
34.04
33.981
33.923
33.865
33.808
33.753
33.699
33.647
33.597
33.549
33.502
33.457
33.411
33.364
33.318
33.272
33.227
33.183
33.14
33.098
33.057
33.016
32.974
32.932
32.889
32.845
32.8
32.756
32.71
32.664
32.617
32.57
32.523
32.477
32.436
32.399
32.366
32.338
32.313
32.288
32.264
32.238
32.211
32.18
32.145
32.109
32.071
32.032
31.992
31.95
31.908
31.866
31.823
31.782
31.742
31.703
31.667
31.634
31.604
31.577
31.554
31.535
31.523
31.519
31.524
31.542
31.572
31.618
31.678
31.754
31.847
31.957
32.091
32.254
32.449
32.681
32.951
33.261
33.608
33.988
34.396
34.827
35.273
35.729
36.188
36.64
37.079
37.496
37.884
38.236
38.548
38.817
39.039
39.216
39.348
39.438
39.488
39.502
39.484
39.439
39.373
39.289
39.191
39.083
38.97
38.856
38.741
38.628
38.52
38.417
38.32
38.227
38.137
38.047
37.956
37.862
37.766
37.665
37.561
37.454
37.346
37.239
37.133
37.028
36.927
36.829
36.733
36.642
36.554
36.471
36.392
36.317
36.247
36.182
36.12
36.061
36.003
35.948
35.893
35.838
35.786
35.735
35.686
35.64
35.595
35.554
35.514
35.477
35.441
35.408
35.376
35.347
35.319
35.294
35.269
35.245
35.22
35.194
35.166
35.136
35.103
35.066
35.025
34.981
34.935
34.885
34.834
34.781
34.728
34.676
34.624
34.574
34.524
34.475
34.428
34.383
34.34
34.297
34.254
34.21
34.163
34.112
34.057
34.0
33.941
33.881
33.822
33.763
33.706
33.651
33.598
33.549
33.501
33.455
33.41
33.365
33.32
33.274
33.226
33.177
33.126
33.074
33.02
32.965
32.909
32.855
32.802
32.752
32.704
32.659
32.616
32.574
32.532
32.489
32.444
32.398
32.352
32.306
32.261
32.218
32.176
32.137
32.1
32.064
32.029
31.995
31.962
31.93
31.897
31.864
31.831
31.798
31.767
31.736
31.708
31.682
31.659
31.64
31.623
31.609
31.597
31.587
31.579
31.572
31.565
31.56
31.556
31.554
31.554
31.557
31.565
31.58
31.607
31.647
31.702
31.777
31.871
31.991
32.14
32.322
32.543
32.804
33.107
33.454
33.84
34.261
34.712
35.183
35.667
36.153
36.633
37.096
37.534
37.94
38.309
38.635
38.917
39.151
39.339
39.48
39.577
39.633
39.65
39.634
39.588
39.52
39.433
39.335
39.229
39.118
39.007
38.897
38.789
38.682
38.576
38.471
38.367
38.264
38.163
38.062
37.963
37.865
37.767
37.669
37.569
37.467
37.363
37.258
37.152
37.046
36.941
36.84
36.742
36.649
36.56
36.474
36.391
36.312
36.237
36.166
36.099
36.035
35.976
35.921
35.87
35.821
35.775
35.73
35.688
35.647
35.609
35.571
35.534
35.499
35.466
35.434
35.403
35.373
35.343
35.314
35.287
35.258
35.229
35.197
35.163
35.127
35.089
35.046
35.001
34.952
34.901
34.846
34.79
34.731
34.671
34.611
34.552
34.494
34.437
34.382
34.329
34.278
34.229
34.18
34.131
34.081
34.031
33.978
33.924
33.866
33.806
33.744
33.682
33.618
33.555
33.493
33.432
33.372
33.314
33.256
33.198
33.141
33.085
33.03
32.976
32.921
32.867
32.814
32.762
32.71
32.659
32.61
32.564
32.52
32.479
32.44
32.403
32.367
32.332
32.297
32.262
32.224
32.186
32.147
32.108
32.071
32.036
32.005
31.979
31.958
31.94
31.926
31.915
31.905
31.896
31.888
31.879
31.868
31.857
31.845
31.83
31.813
31.795
31.776
31.756
31.734
31.712
31.689
31.666
31.643
31.62
31.598
31.579
31.566
31.562
31.567
31.585
31.616
31.663
31.728
31.812
31.916
32.043
32.196
32.378
32.591
32.837
33.115
33.422
33.755
34.108
34.476
34.852
35.228
35.596
35.952
36.287
36.595
36.872
37.115
37.32
37.487
37.618
37.713
37.774
37.806
37.812
37.796
37.761
37.709
37.643
37.568
37.485
37.398
37.311
37.225
37.143
37.065
36.99
36.918
36.846
36.775
36.702
36.626
36.549
36.47
36.388
36.307
36.226
36.144
36.063
35.982
35.901
35.82
35.739
35.658
35.578
35.499
35.423
35.349
35.279
35.212
35.148
35.09
35.036
34.988
34.945
34.909
34.879
34.856
34.839
34.826
34.817
34.811
34.807
34.803
34.799
34.794
34.787
34.778
34.766
34.75
34.732
34.711
34.689
34.667
34.645
34.623
34.602
34.581
34.56
34.539
34.515
34.487
34.456
34.421
34.383
34.342
34.298
34.253
34.207
34.16
34.111
34.061
34.01
33.957
33.903
33.85
33.798
33.746
33.696
33.646
33.597
33.551
33.508
33.468
33.431
33.397
33.365
33.334
33.303
33.271
33.239
33.204
33.167
33.129
33.09
33.051
33.012
32.973
32.933
32.892
32.849
32.804
32.756
32.705
32.653
32.601
32.55
32.502
32.456
32.413
32.374
32.34
32.31
32.282
32.256
32.232
32.21
32.189
32.167
32.146
32.124
32.104
32.084
32.066
32.05
32.035
32.023
32.012
32.002
31.991
31.98
31.969
31.956
31.943
31.929
31.915
31.902
31.892
31.886
31.886
31.895
31.915
31.949
31.998
32.064
32.148
32.253
32.379
32.53
32.711
32.925
33.173
33.455
33.77
34.112
34.476
34.855
35.24
35.626
36.003
36.366
36.709
37.024
37.308
37.557
37.77
37.944
38.079
38.178
38.243
38.278
38.286
38.271
38.237
38.188
38.126
38.054
37.974
37.889
37.801
37.712
37.622
37.534
37.448
37.363
37.28
37.2
37.12
37.042
36.963
36.886
36.809
36.732
36.655
36.579
36.503
36.427
36.351
36.275
36.199
36.123
36.048
35.974
35.902
35.832
35.764
35.7
35.64
35.583
35.53
35.479
35.431
35.386
35.344
35.305
35.27
35.239
35.212
35.189
35.169
35.151
35.135
35.119
35.099
35.076
35.05
35.019
34.986
34.952
34.919
34.885
34.854
34.825
34.798
34.775
34.754
34.735
34.717
34.7
34.682
34.662
34.641
34.616
34.588
34.557
34.524
34.488
34.45
34.41
34.366
34.32
34.271
34.219
34.165
34.112
34.059
34.008
33.958
33.908
33.859
33.811
33.764
33.716
33.669
33.623
33.579
33.535
33.492
33.449
33.404
33.359
33.313
33.266
33.22
33.175
33.132
33.092
33.053
33.018
32.984
32.951
32.921
32.891
32.863
32.835
32.807
32.781
32.754
32.728
32.699
32.67
32.64
32.61
32.58
32.551
32.524
32.498
32.474
32.451
32.428
32.404
32.379
32.353
32.326
32.296
32.264
32.229
32.195
32.16
32.127
32.097
32.072
32.055
32.048
32.053
32.071
32.105
32.154
32.222
32.307
32.41
32.533
32.678
32.851
33.056
33.295
33.573
33.888
34.239
34.623
35.033
35.46
35.898
36.337
36.769
37.187
37.583
37.948
38.279
38.571
38.822
39.028
39.19
39.31
39.39
39.433
39.443
39.425
39.384
39.322
39.246
39.159
39.063
38.962
38.857
38.752
38.648
38.548
38.452
38.36
38.273
38.191
38.112
38.036
37.963
37.89
37.819
37.748
37.676
37.603
37.526
37.447
37.363
37.275
37.182
37.084
36.984
36.885
36.788
36.696
36.609
36.528
36.454
36.387
36.326
36.27
36.22
36.175
36.134
36.096
36.062
36.03
36.001
35.973
35.947
35.923
35.898
35.874
35.849
35.824
35.797
35.769
35.739
35.708
35.676
35.644
35.612
35.58
35.547
35.514
35.479
35.444
35.408
35.37
35.332
35.293
35.252
35.211
35.167
35.121
35.073
35.02
34.963
34.902
34.838
34.772
34.706
34.641
34.577
34.516
34.458
34.402
34.348
34.295
34.243
34.192
34.143
34.093
34.044
33.994
33.942
33.89
33.836
33.781
33.725
33.67
33.617
33.564
33.513
33.462
33.412
33.365
33.32
33.278
33.238
33.202
33.167
33.135
33.103
33.072
33.041
33.008
32.975
32.942
32.908
32.874
32.841
32.809
32.778
32.747
32.716
32.684
32.652
32.619
32.587
32.555
32.524
32.495
32.466
32.439
32.412
32.386
32.359
32.333
32.306
32.28
32.255
32.231
32.209
32.189
32.172
32.161
32.158
32.169
32.195
32.239
32.304
32.39
32.499
32.634
32.797
32.993
33.224
33.495
33.806
34.156
34.539
34.951
35.384
35.83
36.28
36.725
37.156
37.566
37.949
38.298
38.61
38.883
39.115
39.306
39.456
39.566
39.639
39.676
39.681
39.659
39.613
39.547
39.466
39.373
39.273
39.167
39.059
38.95
38.841
38.734
38.631
38.531
38.437
38.347
38.261
38.178
38.096
38.016
37.935
37.852
37.767
37.681
37.594
37.507
37.418
37.329
37.241
37.154
37.069
36.987
36.907
36.83
36.756
36.684
36.616
36.55
36.488
36.429
36.373
36.321
36.272
36.225
36.179
36.137
36.097
36.06
36.025
35.992
35.964
35.938
35.914
35.893
35.872
35.851
35.831
35.81
35.788
35.764
35.737
35.707
35.674
35.636
35.594
35.548
35.498
35.445
35.391
35.334
35.277
35.221
35.163
35.102
35.035
34.964
34.891
34.818
34.747
34.679
34.616
34.558
34.506
34.46
34.418
34.38
34.345
34.311
34.276
34.241
34.204
34.164
34.121
34.075
34.029
33.981
33.933
33.884
33.836
33.787
33.737
33.686
33.634
33.581
33.527
33.472
33.418
33.363
33.308
33.253
33.2
33.147
33.096
33.045
32.996
32.948
32.903
32.858
32.813
32.769
32.726
32.683
32.641
32.6
32.561
32.524
32.49
32.459
32.432
32.408
32.388
32.371
32.356
32.343
32.33
32.317
32.304
32.288
32.27
32.249
32.225
32.201
32.176
32.152
32.13
32.111
32.097
32.09
32.09
32.098
32.116
32.145
32.187
32.245
32.319
32.414
32.534
32.685
32.872
33.1
33.371
33.686
34.042
34.435
34.858
35.302
35.759
36.218
36.669
37.103
37.511
37.885
38.221
38.516
38.767
38.974
39.137
39.258
39.339
39.384
39.393
39.371
39.323
39.252
39.163
39.063
38.954
38.842
38.729
38.618
38.511
38.409
38.311
38.218
38.131
38.048
37.969
37.893
37.819
37.747
37.676
37.604
37.53
37.453
37.373
37.289
37.2
37.109
37.015
36.92
36.824
36.729
36.636
36.546
36.46
36.379
36.304
36.234
36.172
36.116
36.068
36.025
35.988
35.955
35.924
35.897
35.871
35.846
35.822
35.798
35.772
35.746
35.718
35.688
35.657
35.622
35.585
35.547
35.507
35.466
35.426
35.386
35.348
35.312
35.278
35.246
35.215
35.184
35.153
35.121
35.087
35.051
35.014
34.975
34.935
34.893
34.848
34.8
34.751
34.7
34.648
34.596
34.543
34.49
34.438
34.386
34.334
34.281
34.229
34.178
34.126
34.075
34.025
33.974
33.922
33.87
33.818
33.764
33.711
33.658
33.607
33.557
33.509
33.461
33.416
33.372
33.33
33.288
33.247
33.205
33.163
33.121
33.079
33.036
32.993
32.951
32.909
32.868
32.827
32.787
32.749
32.713
32.677
32.642
32.606
32.57
32.534
32.497
32.459
32.418
32.377
32.335
32.293
32.252
32.213
32.178
32.148
32.122
32.101
32.083
32.068
32.054
32.042
32.03
32.018
32.006
31.996
31.987
31.98
31.977
31.977
31.982
31.994
32.015
32.046
32.089
32.146
32.218
32.308
32.415
32.543
32.695
32.877
33.093
33.345
33.634
33.959
34.316
34.7
35.103
35.517
35.932
36.34
36.731
37.099
37.437
37.74
38.003
38.225
38.404
38.542
38.639
38.698
38.721
38.713
38.678
38.622
38.55
38.464
38.371
38.272
38.171
38.065
37.95
37.824
37.69
37.551
37.414
37.283
37.162
37.055
36.963
36.887
36.824
36.773
36.732
36.697
36.667
36.637
36.606
36.572
36.534
36.49
36.439
36.381
36.316
36.244
36.169
36.092
36.016
35.942
35.874
35.812
35.758
35.711
35.67
35.634
35.604
35.578
35.557
35.54
35.525
35.513
35.503
35.493
35.481
35.466
35.447
35.426
35.402
35.376
35.349
35.321
35.295
35.269
35.243
35.214
35.184
35.15
35.115
35.078
35.04
35.0
34.96
34.919
34.879
34.837
34.794
34.749
34.703
34.656
34.609
34.561
34.513
34.466
34.42
34.375
34.331
34.288
34.245
34.204
34.164
34.124
34.084
34.042
34.0
33.955
33.907
33.855
33.801
33.743
33.685
33.627
33.567
33.508
33.449
33.393
33.34
33.288
33.24
33.194
33.15
33.109
33.069
33.03
32.992
32.952
32.913
32.872
32.83
32.787
32.746
32.707
32.67
32.636
32.604
32.574
32.546
32.52
32.494
32.469
32.444
32.419
32.395
32.37
32.345
32.321
32.297
32.275
32.256
32.24
32.225
32.212
32.201
32.191
32.181
32.17
32.157
32.143
32.127
32.11
32.092
32.073
32.056
32.041
32.03
32.026
32.029
32.043
32.07
32.112
32.17
32.247
32.344
32.461
32.601
32.764
32.954
33.171
33.417
33.694
33.998
34.323
34.666
35.019
35.376
35.728
36.069
36.391
36.688
36.957
37.193
37.393
37.554
37.677
37.765
37.818
37.842
37.839
37.812
37.767
37.706
37.632
37.55
37.461
37.368
37.275
37.183
37.095
37.013
36.937
36.868
36.805
36.749
36.696
36.647
36.6
36.554
36.507
36.46
36.412
36.362
36.31
36.255
36.195
36.131
36.062
35.991
35.918
35.846
35.775
35.708
35.645
35.587
35.534
35.486
35.442
35.403
35.369
35.339
35.315
35.294
35.277
35.263
35.252
35.242
35.232
35.223
35.216
35.212
35.209
35.207
35.204
35.2
35.194
35.184
35.17
35.152
35.13
35.105
35.078
35.048
35.017
34.984
34.95
34.914
34.876
34.836
34.794
34.751
34.708
34.666
34.625
34.584
34.543
34.503
34.463
34.423
34.382
34.342
34.302
34.264
34.226
34.186
34.145
34.1
34.053
34.003
33.951
33.898
33.846
33.795
33.746
33.7
33.655
33.614
33.575
33.538
33.503
33.469
33.437
33.406
33.377
33.349
33.321
33.292
33.261
33.23
33.198
33.166
33.133
33.1
33.067
33.034
33.0
32.965
32.927
32.888
32.847
32.806
32.764
32.724
32.686
32.652
32.621
32.593
32.567
32.544
32.523
32.505
32.489
32.475
32.461
32.447
32.433
32.419
32.402
32.384
32.365
32.343
32.32
32.294
32.268
32.243
32.219
32.198
32.183
32.174
32.176
32.19
32.218
32.261
32.32
32.396
32.489
32.599
32.726
32.87
33.031
33.208
33.404
33.618
33.852
34.103
34.37
34.649
34.935
35.222
35.504
35.775
36.031
36.266
36.475
36.654
36.802
36.916
36.997
37.045
37.063
37.053
37.02
36.968
36.903
36.828
36.748
36.666
36.586
36.51
36.44
36.376
36.318
36.267
36.222
36.182
36.146
36.11
36.074
36.036
35.997
35.954
35.907
35.856
35.801
35.743
35.682
35.619
35.555
35.491
35.429
35.371
35.317
35.269
35.225
35.187
35.154
35.125
35.101
35.08
35.063
35.05
35.04
35.031
35.024
35.017
35.011
35.005
35.0
34.997
34.996
34.996
34.998
35.001
35.003
35.004
35.003
34.999
34.991
34.98
34.965
34.948
34.929
34.909
34.887
34.863
34.838
34.81
34.781
34.749
34.714
34.677
34.637
34.596
34.554
34.511
34.468
34.426
34.386
34.347
34.308
34.271
34.234
34.196
34.158
34.117
34.073
34.026
33.977
33.928
33.879
33.832
33.788
33.747
33.708
33.669
33.628
33.584
33.537
33.49
33.443
33.398
33.355
33.317
33.282
33.252
33.226
33.203
33.184
33.169
33.158
33.149
33.141
33.131
33.12
33.105
33.088
33.068
33.046
33.021
32.994
32.966
32.936
32.905
32.873
32.841
32.809
32.779
32.749
32.721
32.695
32.671
32.648
32.625
32.601
32.577
32.554
32.531
32.509
32.489
32.472
32.457
32.447
32.44
32.438
32.441
32.451
32.47
32.499
32.54
32.595
32.666
32.753
32.858
32.982
33.124
33.286
33.467
33.668
33.889
34.13
34.389
34.662
34.945
35.233
35.519
35.794
36.045
36.265
36.45
36.598
36.712
36.794
36.849
36.881
36.894
36.892
36.879
36.857
36.831
36.801
36.77
36.738
36.706
36.673
36.641
36.608
36.572
36.535
36.495
36.452
36.407
36.359
36.309
36.257
36.203
36.147
36.088
36.026
35.962
35.897
35.831
35.765
35.7
35.636
35.575
35.516
35.462
35.411
35.364
35.322
35.283
35.249
35.217
35.188
35.162
35.137
35.114
35.092
35.073
35.057
35.044
35.036
35.03
35.027
35.025
35.025
35.026
35.028
35.03
35.031
35.031
35.03
35.027
35.021
35.012
35.0
34.985
34.968
34.95
34.929
34.908
34.886
34.863
34.841
34.818
34.796
34.772
34.748
34.723
34.695
34.666
34.634
34.602
34.567
34.533
34.498
34.464
34.429
34.396
34.364
34.332
34.299
34.267
34.234
34.202
34.168
34.135
34.102
34.069
34.037
34.007
33.977
33.949
33.922
33.895
33.869
33.843
33.817
33.789
33.762
33.735
33.707
33.679
33.649
33.619
33.588
33.556
33.521
33.484
33.446
33.406
33.363
33.32
33.276
33.233
33.193
33.155
33.12
33.088
33.057
33.029
33.0
32.97
32.94
32.909
32.878
32.846
32.815
32.785
32.755
32.727
32.701
32.678
32.66
32.648
32.645
32.653
32.672
32.705
32.752
32.816
32.895
32.99
33.102
33.231
33.377
33.542
33.726
33.931
34.159
34.41
34.686
34.984
35.3
35.63
35.965
36.299
36.625
36.933
37.219
37.476
37.7
37.889
38.042
38.157
38.236
38.281
38.297
38.286
38.254
38.202
38.135
38.056
37.97
37.879
37.788
37.699
37.614
37.535
37.465
37.404
37.349
37.3
37.256
37.217
37.18
37.144
37.107
37.071
37.033
36.994
36.953
36.91
36.863
36.813
36.759
36.703
36.644
36.583
36.522
36.462
36.405
36.35
36.297
36.246
36.198
36.153
36.111
36.073
36.038
36.008
35.983
35.963
35.946
35.932
35.92
35.909
35.897
35.883
35.868
35.852
35.837
35.821
35.808
35.795
35.784
35.775
35.768
35.762
35.756
35.75
35.744
35.736
35.727
35.716
35.702
35.686
35.664
35.637
35.604
35.564
35.519
35.47
35.419
35.366
35.313
35.261
35.211
35.163
35.116
35.071
35.029
34.988
34.949
34.911
34.874
34.838
34.8
34.763
34.725
34.686
34.645
34.603
34.56
34.517
34.473
34.43
34.387
34.346
34.307
34.271
34.237
34.206
34.178
34.151
34.126
34.101
34.076
34.048
34.017
33.984
33.949
33.912
33.875
33.838
33.803
33.77
33.739
33.71
33.682
33.657
33.636
33.617
33.601
