Trial 3:3back
38.066
38.012
37.961
37.914
37.871
37.833
37.799
37.769
37.741
37.714
37.687
37.659
37.631
37.603
37.577
37.55
37.524
37.499
37.475
37.451
37.427
37.402
37.377
37.349
37.32
37.289
37.256
37.22
37.182
37.14
37.096
37.049
36.999
36.945
36.888
36.829
36.769
36.709
36.649
36.591
36.534
36.481
36.433
36.391
36.354
36.324
36.301
36.283
36.27
36.263
36.26
36.259
36.261
36.264
36.268
36.271
36.274
36.275
36.275
36.275
36.273
36.268
36.262
36.253
36.242
36.229
36.212
36.191
36.166
36.136
36.1
36.061
36.018
35.971
35.922
35.87
35.815
35.76
35.704
35.649
35.593
35.538
35.482
35.427
35.372
35.316
35.259
35.201
35.141
35.08
35.02
34.96
34.901
34.842
34.784
34.727
34.672
34.619
34.567
34.516
34.468
34.422
34.378
34.336
34.296
34.258
34.224
34.192
34.164
34.14
34.12
34.105
34.093
34.085
34.081
34.08
34.082
34.087
34.094
34.102
34.111
34.122
34.134
34.147
34.161
34.175
34.188
34.2
34.208
34.213
34.214
34.21
34.201
34.188
34.17
34.149
34.125
34.098
34.069
34.041
34.013
33.985
33.957
33.929
33.901
33.875
33.85
33.827
33.804
33.783
33.763
33.744
33.728
33.713
33.7
33.688
33.679
33.673
33.674
33.682
33.701
33.732
33.778
33.842
33.928
34.036
34.17
34.33
34.517
34.73
34.964
35.215
35.477
35.745
36.014
36.278
36.532
36.769
36.988
37.185
37.359
37.512
37.642
37.75
37.837
37.904
37.954
37.987
38.007
38.013
38.007
37.991
37.967
37.936
37.9
37.859
37.814
37.769
37.723
37.678
37.635
37.593
37.555
37.52
37.487
37.457
37.427
37.397
37.368
37.34
37.315
37.29
37.267
37.245
37.224
37.205
37.187
37.171
37.156
37.141
37.124
37.105
37.083
37.057
37.029
36.996
36.958
36.917
36.872
36.823
36.771
36.716
36.659
36.6
36.54
36.48
36.419
36.36
36.302
36.246
36.193
36.143
36.097
36.057
36.025
36.0
35.981
35.966
35.955
35.946
35.94
35.935
35.93
35.923
35.913
35.9
35.885
35.867
35.849
35.829
35.809
35.789
35.768
35.746
35.722
35.696
35.667
35.634
35.597
35.556
35.512
35.466
35.418
35.371
35.322
35.275
35.227
35.18
35.134
35.088
35.044
35.0
34.957
34.912
34.866
34.821
34.776
34.734
34.695
34.657
34.623
34.591
34.561
34.533
34.506
34.48
34.454
34.427
34.399
34.368
34.335
34.299
34.263
34.228
34.195
34.164
34.136
34.11
34.086
34.066
34.049
34.038
34.032
34.031
34.034
34.041
34.053
34.07
34.089
34.111
34.135
34.157
34.176
34.191
34.201
34.205
34.203
34.193
34.175
34.149
34.115
34.076
34.032
33.985
33.938
33.892
33.848
33.805
33.765
33.727
33.69
33.655
33.624
33.594
33.566
33.538
33.509
33.48
33.452
33.424
33.397
33.372
33.347
33.322
33.295
33.269
33.244
33.222
33.206
33.198
33.2
33.215
33.248
33.302
33.381
33.489
33.628
33.798
33.998
34.227
34.481
34.756
35.048
35.35
35.655
35.957
36.249
36.524
36.78
37.013
37.221
37.402
37.555
37.679
37.774
37.843
37.89
37.915
37.922
37.911
37.887
37.852
37.809
37.761
37.711
37.659
37.608
37.558
37.51
37.465
37.423
37.384
37.349
37.316
37.285
37.255
37.225
37.195
37.165
37.135
37.105
37.077
37.051
37.026
37.003
36.981
36.959
36.937
36.915
36.893
36.871
36.849
36.826
36.802
36.775
36.745
36.711
36.672
36.628
36.578
36.523
36.461
36.392
36.318
36.24
36.16
36.08
36.002
35.926
35.855
35.79
35.732
35.681
35.641
35.609
35.586
35.57
35.56
35.555
35.554
35.556
35.56
35.567
35.576
35.586
35.598
35.612
35.627
35.64
35.651
35.657
35.659
35.657
35.65
35.638
35.621
35.598
35.571
35.539
35.503
35.463
35.42
35.373
35.323
35.27
35.213
35.152
35.085
35.012
34.936
34.856
34.776
34.696
34.616
34.537
34.461
34.39
34.325
34.267
34.217
34.173
34.137
34.106
34.081
34.061
34.045
34.031
34.02
34.011
34.004
33.999
33.996
33.992
33.987
33.981
33.975
33.967
33.957
33.943
33.927
33.908
33.887
33.866
33.845
33.823
33.801
33.779
33.758
33.738
33.72
33.703
33.687
33.671
33.656
33.643
33.63
33.619
33.609
33.6
33.591
33.581
33.57
33.557
33.542
33.524
33.503
33.48
33.454
33.426
33.398
33.371
33.346
33.325
33.311
33.308
33.319
33.346
33.392
33.461
33.554
33.674
33.821
33.995
34.193
34.415
34.657
34.915
35.184
35.46
35.736
36.007
36.27
36.519
36.75
36.96
37.146
37.306
37.439
37.545
37.628
37.694
37.744
37.781
37.806
37.818
37.818
37.807
37.783
37.749
37.703
37.647
37.583
37.511
37.432
37.348
37.261
37.174
37.09
37.009
36.933
36.863
36.802
36.747
36.7
36.659
36.622
36.589
36.56
36.533
36.506
36.477
36.447
36.416
36.384
36.35
36.315
36.277
36.236
36.192
36.147
36.099
36.048
35.994
35.935
35.873
35.809
35.743
35.675
35.609
35.545
35.486
35.431
35.383
35.342
35.308
35.282
35.262
35.25
35.245
35.246
35.252
35.262
35.275
35.292
35.312
35.333
35.355
35.377
35.398
35.417
35.432
35.444
35.45
35.452
35.447
35.436
35.419
35.395
35.365
35.327
35.282
35.232
35.177
35.119
35.059
34.997
34.933
34.87
34.807
34.744
34.681
34.618
34.556
34.495
34.437
34.381
34.327
34.274
34.224
34.176
34.13
34.087
34.045
34.004
33.963
33.921
33.879
33.837
33.794
33.749
33.704
33.659
33.615
33.571
33.527
33.486
33.447
33.413
33.382
33.356
33.334
33.317
33.304
33.298
33.297
33.302
33.312
33.326
33.343
33.361
33.379
33.395
33.41
33.421
33.43
33.434
33.436
33.434
33.428
33.419
33.408
33.396
33.381
33.363
33.342
33.315
33.284
33.249
33.208
33.159
33.1
33.036
32.969
32.904
32.843
32.79
32.746
32.715
32.699
32.701
32.72
32.76
32.821
32.908
33.021
33.165
33.339
33.544
33.78
34.045
34.335
34.644
34.968
35.297
35.626
35.948
36.255
36.544
36.812
37.054
37.269
37.456
37.614
37.744
37.845
37.921
37.973
38.004
38.016
38.011
37.991
37.958
37.915
37.865
37.811
37.753
37.694
37.634
37.575
37.519
37.465
37.413
37.364
37.316
37.271
37.228
37.188
37.152
37.118
37.087
37.059
37.034
37.011
36.991
36.973
36.957
36.943
36.929
36.914
36.897
36.878
36.856
36.829
36.797
36.759
36.715
36.667
36.614
36.557
36.495
36.43
36.362
36.291
36.22
36.148
36.075
36.002
35.927
35.853
35.78
35.71
35.645
35.586
35.534
35.489
35.45
35.419
35.394
35.376
35.365
35.359
35.357
35.358
35.362
35.367
35.375
35.385
35.397
35.41
35.422
35.433
35.441
35.446
35.449
35.447
35.44
35.426
35.404
35.375
35.338
35.295
35.246
35.191
35.131
35.068
35.003
34.937
34.872
34.805
34.738
34.669
34.598
34.526
34.451
34.374
34.295
34.215
34.136
34.06
33.986
33.915
33.849
33.788
33.737
33.699
33.671
33.653
33.642
33.637
33.635
33.635
33.634
33.631
33.626
33.617
33.606
33.593
33.578
33.563
33.548
33.532
33.518
33.504
33.494
33.485
33.48
33.475
33.472
33.468
33.464
33.458
33.452
33.444
33.436
33.426
33.415
33.402
33.388
33.371
33.351
33.33
33.306
33.283
33.26
33.238
33.216
33.193
33.169
33.145
33.122
33.1
33.078
33.056
33.034
33.015
33.001
32.994
32.999
33.02
33.059
33.121
33.213
33.337
33.496
33.689
33.917
34.177
34.466
34.778
35.107
35.445
35.785
36.12
36.445
36.753
37.039
37.299
37.529
37.727
37.893
38.027
38.129
38.201
38.247
38.27
38.273
38.259
38.23
38.192
38.146
38.096
38.044
37.99
37.936
37.883
37.83
37.778
37.727
37.678
37.63
37.583
37.538
37.495
37.454
37.416
37.382
37.35
37.323
37.299
37.278
37.259
37.241
37.223
37.206
37.188
37.167
37.142
37.112
37.077
37.037
36.992
36.942
36.887
36.827
36.764
36.697
36.626
36.551
36.472
36.39
36.305
36.219
36.133
36.047
35.964
35.885
35.812
35.747
35.69
35.642
35.602
35.57
35.545
35.527
35.515
35.507
35.503
35.502
35.505
35.511
35.519
35.528
35.539
35.551
35.564
35.578
35.592
35.606
35.619
35.629
35.635
35.637
35.633
35.623
35.608
35.587
35.559
35.525
35.485
35.439
35.385
35.323
35.253
35.175
35.089
34.998
34.903
34.806
34.71
34.615
34.525
34.438
34.356
34.277
34.203
34.135
34.07
34.01
33.953
33.899
33.85
33.805
33.764
33.728
33.695
33.666
33.642
33.624
33.611
33.602
33.596
33.591
33.587
33.584
33.58
33.575
33.569
33.562
33.554
33.546
33.539
33.532
33.525
33.517
33.508
33.5
33.492
33.484
33.475
33.465
33.453
33.441
33.429
33.416
33.401
33.383
33.363
33.342
33.32
33.297
33.274
33.249
33.222
33.193
33.164
33.135
33.108
33.083
33.06
33.04
33.023
33.01
33.003
33.001
33.007
33.024
33.056
33.107
33.182
33.283
33.416
33.581
33.781
34.015
34.281
34.576
34.894
35.228
35.572
35.918
36.26
36.589
36.899
37.182
37.436
37.659
37.848
38.005
38.13
38.225
38.292
38.333
38.353
38.353
38.337
38.308
38.269
38.223
38.171
38.116
38.059
38.0
37.941
37.883
37.826
37.772
37.722
37.674
37.631
37.591
37.553
37.516
37.482
37.449
37.417
37.386
37.355
37.325
37.296
37.268
37.242
37.218
37.194
37.171
37.148
37.126
37.103
37.077
37.047
37.012
36.97
36.922
36.866
36.802
36.733
36.657
36.578
36.496
36.414
36.329
36.243
36.155
36.068
35.984
35.905
35.832
35.767
35.712
35.669
35.638
35.618
35.61
35.611
35.621
35.639
35.664
35.692
35.721
35.749
35.771
35.788
35.799
35.805
35.805
35.798
35.784
35.765
35.74
35.711
35.677
35.639
35.599
35.557
35.512
35.463
35.411
35.357
35.301
35.244
35.186
35.126
35.065
35.002
34.939
34.875
34.81
34.743
34.674
34.602
34.53
34.457
34.386
34.316
34.249
34.184
34.124
34.069
34.02
33.976
33.937
33.902
33.871
33.843
33.816
33.79
33.763
33.736
33.708
33.681
33.654
33.628
33.602
33.576
33.549
33.524
33.501
33.479
33.459
33.44
33.42
33.4
33.383
33.369
33.359
33.352
33.348
33.346
33.346
33.35
33.356
33.365
33.374
33.383
33.391
33.396
33.398
33.393
33.383
33.366
33.342
33.314
33.279
33.239
33.194
33.146
33.096
33.046
32.998
32.953
32.91
32.87
32.836
32.81
32.795
32.793
32.807
32.839
32.894
32.976
33.089
33.236
33.421
33.643
33.901
34.194
34.515
34.86
35.222
35.593
35.966
36.332
36.685
37.018
37.327
37.608
37.858
38.077
38.262
38.413
38.531
38.617
38.674
38.706
38.717
38.71
38.689
38.658
38.619
38.574
38.526
38.474
38.419
38.361
38.301
38.238
38.173
38.105
38.034
37.962
37.889
37.817
37.747
37.68
37.617
37.557
37.503
37.454
37.41
37.372
37.337
37.304
37.27
37.234
37.196
37.156
37.113
37.066
37.016
36.962
36.904
36.844
36.78
36.713
36.643
36.569
36.492
36.412
36.329
36.245
36.16
36.077
36.0
35.928
35.865
35.809
35.762
35.724
35.697
35.68
35.672
35.672
35.679
35.691
35.707
35.725
35.744
35.763
35.779
35.794
35.808
35.819
35.828
35.836
35.84
35.842
35.839
35.832
35.819
35.801
35.776
35.744
35.704
35.658
35.605
35.546
35.481
35.412
35.341
35.267
35.19
35.109
35.024
34.937
34.847
34.756
34.663
34.57
34.477
34.387
34.302
34.221
34.147
34.077
34.013
33.954
33.901
33.854
33.812
33.775
33.743
33.714
33.69
33.67
33.652
33.636
33.622
33.609
33.597
33.587
33.578
33.569
33.56
33.551
33.542
33.533
33.524
33.516
33.506
33.497
33.488
33.48
33.471
33.462
33.451
33.438
33.423
33.408
33.392
33.377
33.361
33.345
33.328
33.311
33.293
33.273
33.252
33.229
33.205
33.18
33.154
33.128
33.102
33.076
33.053
33.035
33.025
33.03
33.054
33.101
33.178
33.287
33.435
33.622
33.851
34.117
34.415
34.739
35.081
35.434
35.788
36.136
36.471
36.785
37.075
37.338
37.57
37.771
37.942
38.085
38.199
38.285
38.343
38.372
38.376
38.356
38.314
38.255
38.182
38.1
38.014
37.928
37.844
37.763
37.687
37.616
37.551
37.49
37.435
37.384
37.336
37.292
37.251
37.211
37.174
37.138
37.104
37.073
37.045
37.02
36.995
36.971
36.945
36.917
36.886
36.851
36.811
36.763
36.71
36.651
36.585
36.515
36.441
36.362
36.279
36.193
36.105
36.017
35.929
35.842
35.757
35.674
35.597
35.525
35.46
35.402
35.353
35.311
35.278
35.253
35.237
35.229
35.228
35.235
35.246
35.26
35.274
35.288
35.301
35.314
35.327
35.338
35.349
35.358
35.365
35.371
35.375
35.374
35.368
35.355
35.336
35.31
35.276
35.235
35.186
35.13
35.068
35.002
34.93
34.852
34.771
34.687
34.6
34.513
34.424
34.332
34.238
34.141
34.043
33.945
33.848
33.753
33.66
33.57
33.484
33.405
33.333
33.269
33.213
33.163
33.119
33.082
33.053
33.03
33.015
33.007
33.004
33.007
33.016
33.029
33.047
33.067
33.089
33.11
33.13
33.147
33.162
33.172
33.177
33.178
33.176
33.169
33.16
33.145
33.126
33.103
33.075
33.045
33.012
32.977
32.939
32.898
32.854
32.811
32.769
32.73
32.694
32.663
32.638
32.619
32.608
32.608
32.62
32.648
32.694
32.764
32.861
32.991
33.158
33.364
33.61
33.895
34.216
34.568
34.942
35.331
35.724
36.115
36.495
36.856
37.193
37.5
37.774
38.012
38.213
38.376
38.504
38.599
38.665
38.705
38.723
38.722
38.705
38.674
38.634
38.585
38.53
38.47
38.407
38.341
38.275
38.208
38.143
38.08
38.021
37.966
37.914
37.863
37.813
37.765
37.719
37.673
37.626
37.578
37.528
37.476
37.425
37.376
37.328
37.282
37.238
37.195
37.153
37.113
37.074
37.035
36.994
36.951
36.903
36.851
36.793
36.731
36.664
36.592
36.517
36.44
36.361
36.283
36.208
36.138
36.073
36.014
35.962
35.917
35.879
35.85
35.829
35.817
35.811
35.813
35.821
35.835
35.855
35.877
35.899
35.92
35.938
35.954
35.966
35.974
35.976
35.973
35.964
35.949
35.929
35.904
35.874
35.84
35.802
35.759
35.71
35.656
35.597
35.532
35.461
35.384
35.299
35.207
35.11
35.01
34.907
34.806
34.705
34.607
34.511
34.416
34.324
34.235
34.148
34.065
33.986
33.912
33.841
33.776
33.717
33.665
33.62
33.582
33.552
33.529
33.511
33.497
33.487
33.479
33.474
33.469
33.466
33.464
33.46
33.456
33.451
33.446
33.441
33.436
33.427
33.416
33.401
33.383
33.363
33.34
33.315
33.287
33.256
33.222
33.188
33.156
33.128
33.104
33.086
33.072
33.061
33.053
33.045
33.038
33.031
33.024
33.019
33.018
33.022
33.035
33.06
33.103
33.17
33.266
33.394
33.559
33.759
33.996
34.268
34.571
34.898
35.243
35.6
35.96
36.317
36.663
36.993
37.3
37.579
37.828
38.045
38.227
38.377
38.495
38.583
38.643
38.677
38.69
38.685
38.665
38.635
38.597
38.552
38.503
38.452
38.4
38.347
38.295
38.243
38.19
38.137
38.084
38.032
37.981
37.93
37.88
37.831
37.784
37.74
37.699
37.661
37.625
37.591
37.56
37.53
37.5
37.469
37.437
37.403
37.367
37.329
37.289
37.245
37.197
37.146
37.09
37.028
36.962
36.89
36.812
36.728
36.64
36.547
36.452
36.358
36.266
36.178
36.095
36.02
35.954
35.899
35.857
35.826
35.807
35.797
35.796
35.802
35.814
35.831
35.851
35.874
35.898
35.924
35.949
35.973
35.995
36.014
36.029
36.041
36.047
36.047
36.039
36.024
36.0
35.97
35.933
35.889
35.84
35.785
35.726
35.663
35.595
35.522
35.444
35.363
35.278
35.189
35.097
35.002
34.904
34.806
34.707
34.609
34.512
34.418
34.326
34.237
34.152
34.073
34.0
33.932
33.871
33.817
33.77
33.731
33.7
33.676
33.658
33.648
33.644
33.646
33.654
33.665
33.678
33.69
33.701
33.709
33.715
33.717
33.714
33.706
33.693
33.677
33.657
33.633
33.606
33.575
33.539
33.499
33.454
33.407
33.357
33.307
33.257
33.211
33.169
33.134
33.107
33.092
33.088
33.096
33.119
33.159
33.222
33.309
33.426
33.573
33.756
33.973
34.226
34.509
34.819
35.151
35.499
35.856
36.214
36.567
36.908
37.229
37.525
37.794
38.03
38.232
38.401
38.537
38.641
38.714
38.761
38.785
38.789
38.776
38.75
38.715
38.672
38.624
38.573
38.518
38.461
38.401
38.341
38.28
38.22
38.16
38.102
38.045
37.992
37.942
37.894
37.847
37.801
37.756
37.711
37.668
37.624
37.58
37.535
37.49
37.444
37.398
37.352
37.307
37.261
37.215
37.167
37.116
37.062
37.005
36.943
36.876
36.803
36.725
36.643
36.557
36.471
36.386
36.304
36.224
36.149
36.08
36.019
35.966
35.921
35.885
35.855
35.831
35.812
35.799
35.79
35.784
35.78
35.778
35.778
35.781
35.785
35.791
35.799
35.807
35.815
35.821
35.822
35.819
35.81
35.792
35.767
35.734
35.692
35.643
35.59
35.534
35.474
35.41
35.344
35.274
35.202
35.129
35.054
34.979
34.901
34.823
34.744
34.668
34.594
34.523
34.456
34.392
34.331
34.273
34.217
34.161
34.105
34.05
33.995
33.942
33.89
33.839
33.79
33.742
33.697
33.655
33.616
33.582
33.55
33.521
33.492
33.466
33.44
33.415
33.388
33.36
33.33
33.299
33.265
33.23
33.194
33.159
33.127
33.1
33.082
33.074
33.078
33.097
33.133
33.191
33.274
33.384
33.525
33.697
33.902
34.14
34.407
34.7
35.013
35.34
35.674
36.009
36.339
36.657
36.957
37.236
37.49
37.718
37.918
38.089
38.232
38.349
38.44
38.507
38.552
38.576
38.583
38.573
38.548
38.511
38.463
38.407
38.345
38.278
38.208
38.138
38.067
38.0
37.936
37.876
37.82
37.768
37.718
37.67
37.624
37.579
37.536
37.495
37.454
37.416
37.379
37.344
37.311
37.278
37.244
37.208
37.167
37.121
37.069
37.011
36.946
36.873
36.793
36.704
36.609
36.51
36.411
36.312
36.214
36.119
36.029
35.945
35.871
35.805
35.748
35.698
35.656
35.623
35.598
35.582
35.573
35.571
35.574
35.583
35.596
35.611
35.63
35.65
35.671
35.692
35.709
35.723
35.732
35.738
35.74
35.737
35.73
35.717
35.698
35.674
35.646
35.614
35.577
35.533
35.485
35.43
35.372
35.311
35.249
35.184
35.119
35.052
34.985
34.917
34.852
34.788
34.726
34.666
34.606
34.547
34.487
34.425
34.362
34.297
34.231
34.164
34.097
34.03
33.964
33.899
33.838
33.781
33.729
33.68
33.634
33.59
33.549
33.511
33.476
33.443
33.412
33.383
33.356
33.331
33.308
33.287
33.269
33.252
33.238
33.228
33.222
33.221
33.226
33.237
33.259
33.296
33.35
33.426
33.528
33.661
33.826
34.026
34.259
34.523
34.813
35.122
35.445
35.774
36.103
36.425
36.733
37.024
37.293
37.538
37.755
37.944
38.103
38.233
38.335
38.411
38.461
38.488
38.495
38.482
38.454
38.412
38.361
38.303
38.241
38.178
38.115
38.052
37.99
37.93
37.872
37.817
37.762
37.707
37.653
37.598
37.546
37.496
37.448
37.402
37.359
37.318
37.281
37.247
37.215
37.184
37.153
37.12
37.083
37.04
36.992
36.938
36.879
36.815
36.745
36.67
36.591
36.509
36.426
36.342
36.256
36.171
36.088
36.009
35.935
35.869
35.811
35.762
35.723
35.696
35.68
35.676
35.681
35.697
35.72
35.751
35.784
35.82
35.855
35.886
35.912
35.932
35.945
35.953
35.954
35.949
35.938
35.922
35.901
35.873
35.84
35.801
35.757
35.71
35.659
35.603
35.544
35.481
35.416
35.351
35.286
35.221
35.156
35.09
35.024
34.958
34.891
34.824
34.755
34.685
34.614
34.542
34.47
34.398
34.327
34.258
34.193
34.131
34.074
34.021
33.973
33.929
33.89
33.856
33.826
33.802
33.78
33.763
33.749
33.739
33.732
33.728
33.725
33.724
33.722
33.72
33.716
33.709
33.7
33.686
33.667
33.643
33.614
33.582
33.547
33.512
33.48
33.453
33.436
33.43
33.44
33.468
33.518
33.595
33.7
33.835
34.001
34.197
34.422
34.673
34.945
35.233
35.531
35.833
36.134
36.428
36.713
36.981
37.229
37.454
37.654
37.828
37.977
38.106
38.217
38.313
38.392
38.453
38.494
38.513
38.513
38.494
38.457
38.405
38.339
38.264
38.183
38.099
38.014
37.928
37.846
37.767
37.695
37.629
37.569
37.517
37.472
37.433
37.398
37.367
37.337
37.309
37.281
37.253
37.224
37.192
37.158
37.121
37.084
37.045
37.004
36.962
36.917
36.87
36.821
36.769
36.713
36.654
36.592
36.527
36.459
36.39
36.32
36.252
36.188
36.13
36.08
36.037
36.002
35.975
35.957
35.946
35.942
35.941
