Trial 3:3back
36.61
36.575
36.544
36.516
36.491
36.47
36.454
36.44
36.429
36.419
36.409
36.397
36.383
36.365
36.344
36.319
36.291
36.26
36.226
36.19
36.152
36.113
36.073
36.032
35.991
35.951
35.912
35.875
35.841
35.809
35.779
35.75
35.723
35.697
35.673
35.651
35.632
35.615
35.601
35.592
35.589
35.591
35.6
35.617
35.642
35.677
35.723
35.782
35.854
35.943
36.048
36.17
36.309
36.466
36.639
36.825
37.024
37.232
37.446
37.663
37.88
38.094
38.303
38.502
38.691
38.866
39.028
39.175
39.307
39.423
39.524
39.611
39.685
39.746
39.797
39.839
39.872
39.899
39.92
39.938
39.953
39.966
39.978
39.991
40.004
40.016
40.028
40.04
40.05
40.06
40.068
40.075
40.079
40.082
40.082
40.078
40.071
40.062
40.051
40.038
40.023
40.005
39.986
39.964
39.94
39.914
39.885
39.854
39.821
39.785
39.748
39.709
39.669
39.629
39.59
39.551
39.512
39.474
39.436
39.399
39.362
39.326
39.291
39.259
39.23
39.205
39.183
39.165
39.151
39.14
39.132
39.127
39.123
39.118
39.113
39.104
39.092
39.076
39.056
39.03
39.0
38.966
38.927
38.884
38.838
38.789
38.738
38.688
38.643
38.608
38.578
38.55
38.52
38.487
38.45
38.411
38.369
38.323
38.273
38.222
38.169
38.115
38.061
38.006
37.952
37.898
37.846
37.795
37.747
37.699
37.652
37.605
37.559
37.511
37.463
37.415
37.366
37.317
37.269
37.222
37.175
37.13
37.086
37.044
37.004
36.965
36.929
36.893
36.858
36.823
36.786
36.748
36.706
36.662
36.615
36.565
36.511
36.455
36.399
36.342
36.288
36.236
36.188
36.144
36.104
36.07
36.04
36.014
35.991
35.97
35.95
35.93
35.908
35.883
35.855
35.824
35.789
35.752
35.714
35.676
35.638
35.602
35.565
35.529
35.493
35.458
35.422
35.387
35.352
35.318
35.283
35.25
35.217
35.186
35.156
35.128
35.101
35.076
35.052
35.029
35.006
34.983
34.959
34.934
34.907
34.877
34.845
34.809
34.771
34.731
34.69
34.649
34.607
34.566
34.526
34.486
34.447
34.409
34.372
34.337
34.303
34.271
34.241
34.212
34.185
34.157
34.128
34.098
34.067
34.033
33.997
33.96
33.921
33.883
33.845
33.809
33.775
33.745
33.721
33.701
33.688
33.684
33.689
33.707
33.738
33.786
33.85
33.933
34.035
34.156
34.295
34.452
34.624
34.809
35.005
35.208
35.415
35.623
35.83
36.032
36.229
36.418
36.597
36.765
36.921
37.063
37.192
37.308
37.411
37.503
37.583
37.652
37.712
37.763
37.806
37.844
37.876
37.902
37.923
37.939
37.951
37.959
37.964
37.967
37.967
37.966
37.964
37.96
37.955
37.949
37.944
37.938
37.933
37.929
37.926
37.923
37.922
37.921
37.921
37.92
37.92
37.917
37.913
37.906
37.897
37.885
37.869
37.85
37.827
37.798
37.764
37.725
37.682
37.636
37.588
37.539
37.49
37.443
37.398
37.356
37.318
37.285
37.255
37.229
37.207
37.188
37.173
37.16
37.149
37.14
37.131
37.122
37.11
37.097
37.081
37.062
37.04
37.014
36.986
36.954
36.92
36.884
36.846
36.805
36.763
36.719
36.674
36.629
36.584
36.54
36.497
36.456
36.419
36.384
36.352
36.321
36.293
36.265
36.238
36.211
36.182
36.153
36.123
36.091
36.056
36.019
35.98
35.94
35.898
35.855
35.811
35.767
35.723
35.679
35.637
35.595
35.554
35.514
35.476
35.44
35.406
35.376
35.349
35.325
35.303
35.283
35.264
35.246
35.227
35.206
35.184
35.16
35.132
35.102
35.069
35.034
34.997
34.957
34.916
34.872
34.827
34.782
34.739
34.698
34.66
34.625
34.594
34.565
34.539
34.514
34.49
34.467
34.443
34.418
34.392
34.363
34.332
34.298
34.262
34.224
34.184
34.143
34.102
34.061
34.023
33.986
33.952
33.92
33.891
33.866
33.844
33.824
33.806
33.789
33.773
33.757
33.74
33.722
33.704
33.687
33.67
33.655
33.643
33.632
33.623
33.615
33.606
33.596
33.584
33.569
33.551
33.529
33.504
33.475
33.443
33.407
33.37
33.33
33.29
33.249
33.209
33.171
33.134
33.101
33.071
33.045
33.025
33.013
33.008
33.013
33.028
33.054
33.091
33.14
33.203
33.279
33.371
33.477
33.597
33.731
33.878
34.038
34.208
34.387
34.578
34.783
35.003
35.235
35.473
35.709
35.938
36.155
36.356
36.536
36.692
36.825
36.935
37.023
37.093
37.147
37.187
37.216
37.234
37.243
37.245
37.241
37.235
37.228
37.221
37.216
37.212
37.21
37.211
37.214
37.219
37.228
37.239
37.254
37.272
37.292
37.314
37.337
37.362
37.387
37.412
37.436
37.457
37.474
37.488
37.497
37.5
37.498
37.49
37.476
37.456
37.428
37.395
37.356
37.313
37.267
37.219
37.171
37.125
37.08
37.04
37.003
36.971
36.943
36.918
36.897
36.879
36.863
36.847
36.834
36.822
36.811
36.8
36.788
36.775
36.76
36.743
36.723
36.701
36.678
36.655
36.631
36.608
36.585
36.561
36.538
36.515
36.492
36.469
36.446
36.423
36.402
36.381
36.361
36.341
36.321
36.301
36.279
36.256
36.231
36.203
36.173
36.14
36.104
36.065
36.024
35.981
35.938
35.895
35.853
35.813
35.775
35.739
35.705
35.673
35.643
35.614
35.586
35.558
35.53
35.503
35.475
35.447
35.418
35.389
35.358
35.326
35.293
35.259
35.222
35.183
35.141
35.096
35.048
34.998
34.947
34.895
34.845
34.797
34.751
34.708
34.668
34.631
34.597
34.565
34.535
34.509
34.485
34.464
34.445
34.429
34.414
34.401
34.387
34.374
34.359
34.342
34.322
34.3
34.274
34.246
34.214
34.179
34.143
34.106
34.068
34.031
33.995
33.96
33.928
33.897
33.868
33.841
33.817
33.794
33.773
33.755
33.74
33.726
33.714
33.704
33.694
33.685
33.675
33.664
33.652
33.639
33.624
33.608
33.59
33.569
33.546
33.521
33.494
33.465
33.435
33.405
33.374
33.342
33.31
33.28
33.25
33.223
33.199
33.178
33.159
33.142
33.127
33.113
33.102
33.091
33.081
33.072
33.063
33.053
33.043
33.034
33.025
33.018
33.014
33.013
33.019
33.031
33.053
33.084
33.127
33.182
33.25
33.33
33.425
33.534
33.658
33.797
33.95
34.116
34.293
34.481
34.678
34.881
35.088
35.298
35.508
35.716
35.92
36.118
36.309
36.49
36.659
36.815
36.956
37.084
37.197
37.297
37.385
37.463
37.531
37.59
37.643
37.689
37.731
37.768
37.801
37.83
37.857
37.881
37.904
37.925
37.946
37.965
37.983
37.999
38.014
38.028
38.04
38.05
38.059
38.067
38.074
38.079
38.082
38.082
38.081
38.077
38.071
38.062
38.052
38.039
38.026
38.01
37.992
37.971
37.947
37.92
37.889
37.857
37.821
37.783
37.742
37.7
37.657
37.615
37.575
37.536
37.501
37.469
37.44
37.416
37.396
37.38
37.369
37.362
37.357
37.354
37.352
37.35
37.346
37.34
37.331
37.319
37.303
37.284
37.261
37.234
37.204
37.171
37.136
37.099
37.06
37.019
36.978
36.934
36.888
36.841
36.793
36.744
36.697
36.65
36.606
36.562
36.52
36.479
36.439
36.398
36.357
36.314
36.27
36.225
36.176
36.126
36.074
36.022
35.969
35.916
35.864
35.813
35.763
35.715
35.67
35.627
35.587
35.55
35.516
35.485
35.455
35.429
35.403
35.378
35.354
35.329
35.302
35.273
35.242
35.207
35.17
35.13
35.089
35.046
35.004
34.963
34.924
34.886
34.852
34.821
34.794
34.768
34.743
34.72
34.697
34.675
34.653
34.632
34.61
34.589
34.568
34.545
34.521
34.495
34.467
34.436
34.401
34.364
34.323
34.28
34.234
34.187
34.139
34.092
34.044
33.997
33.952
33.909
33.868
33.832
33.801
33.775
33.753
33.735
33.72
33.707
33.697
33.688
33.679
33.672
33.664
33.655
33.645
33.634
33.621
33.607
33.591
33.573
33.553
33.532
33.509
33.482
33.452
33.418
33.38
33.34
33.297
33.252
33.207
33.162
33.12
33.081
33.047
33.018
32.993
32.973
32.958
32.948
32.941
32.938
32.939
32.942
32.948
32.954
32.96
32.966
32.969
32.972
32.974
32.977
32.981
32.989
33.002
33.021
33.05
33.091
33.146
33.218
33.308
33.418
33.549
33.7
33.872
34.062
34.269
34.489
34.722
34.964
35.213
35.464
35.716
35.964
36.205
36.436
36.655
36.858
37.044
37.211
37.358
37.487
37.598
37.692
37.771
37.834
37.885
37.926
37.956
37.979
37.997
38.012
38.025
38.038
38.052
38.066
38.081
38.096
38.113
38.129
38.145
38.16
38.175
38.187
38.198
38.207
38.213
38.217
38.217
38.211
38.2
38.183
38.16
38.131
38.098
38.062
38.022
37.981
37.94
37.9
37.861
37.825
37.791
37.761
37.733
37.708
37.686
37.665
37.646
37.627
37.608
37.589
37.568
37.547
37.526
37.504
37.482
37.461
37.441
37.423
37.405
37.388
37.371
37.356
37.34
37.325
37.31
37.295
37.279
37.263
37.246
37.228
37.209
37.189
37.167
37.143
37.117
37.088
37.054
37.016
36.974
36.929
36.879
36.827
36.772
36.716
36.658
36.601
36.545
36.491
36.438
36.388
36.34
36.292
36.243
36.194
36.145
36.095
36.046
35.997
35.95
35.905
35.862
35.821
35.781
35.743
35.704
35.666
35.626
35.586
35.546
35.505
35.463
35.421
35.379
35.338
35.298
35.26
35.224
35.19
35.159
35.131
35.106
35.082
35.059
35.038
35.018
34.998
34.977
34.955
34.932
34.905
34.874
34.838
34.796
34.749
34.698
34.643
34.586
34.528
34.47
34.414
34.361
34.311
34.267
34.227
34.193
34.163
34.138
34.113
34.085
34.056
34.031
34.014
34.005
34.005
34.019
34.045
34.081
34.122
34.161
34.194
34.216
34.226
34.222
34.207
34.18
34.141
34.091
34.031
33.962
33.887
33.809
33.728
33.648
33.571
33.497
33.43
33.369
33.316
33.271
33.234
33.204
33.181
33.165
33.154
33.149
33.147
33.148
33.149
33.149
33.149
33.148
33.144
33.139
33.132
33.122
33.112
33.103
33.096
33.093
33.099
33.115
33.145
33.192
33.256
33.341
33.446
33.573
33.722
33.893
34.085
34.299
34.531
34.78
35.042
35.314
35.591
35.87
36.145
36.413
36.671
36.917
37.147
37.359
37.55
37.721
37.872
38.003
38.117
38.214
38.297
38.368
38.428
38.478
38.519
38.553
38.581
38.603
38.62
38.633
38.643
38.65
38.655
38.657
38.658
38.658
38.656
38.653
38.649
38.642
38.634
38.623
38.61
38.594
38.576
38.557
38.537
38.516
38.495
38.472
38.448
38.423
38.398
38.372
38.344
38.315
38.284
38.252
38.217
38.18
38.141
38.099
38.056
38.011
37.965
37.918
37.872
37.828
37.786
37.747
37.709
37.674
37.641
37.61
37.581
37.554
37.529
37.507
37.487
37.47
37.454
37.441
37.428
37.416
37.405
37.393
37.38
37.365
37.347
37.325
37.3
37.27
37.236
37.197
37.155
37.11
37.063
37.013
36.961
36.908
36.853
36.797
36.741
36.685
36.63
36.577
36.526
36.478
36.432
36.388
36.347
36.307
36.269
36.233
36.197
36.16
36.124
36.087
36.049
36.009
35.967
35.922
35.875
35.826
35.775
35.721
35.666
35.608
35.549
35.49
35.43
35.37
35.311
35.254
35.199
35.148
35.101
35.057
35.017
34.98
34.945
34.912
34.879
34.847
34.815
34.783
34.751
34.721
34.69
34.66
34.63
34.6
34.571
34.542
34.513
34.483
34.452
34.421
34.39
34.359
34.327
34.296
34.264
34.232
34.201
34.171
34.14
34.108
34.075
34.04
34.004
33.969
33.933
33.898
33.864
33.831
33.799
33.769
33.74
33.712
33.686
33.661
33.638
33.617
33.596
33.575
33.554
33.532
33.511
33.49
33.469
33.446
33.424
33.4
33.377
33.353
33.329
33.304
33.276
33.246
33.214
33.179
33.141
33.103
33.065
33.027
32.992
32.96
32.931
32.905
32.883
32.863
32.847
32.834
32.826
32.822
32.824
32.834
32.852
32.881
32.923
32.98
33.051
33.14
33.248
33.375
33.524
33.693
33.882
34.089
34.315
34.557
34.813
35.081
35.357
35.638
35.919
36.198
36.471
36.734
36.986
37.223
37.445
37.649
37.835
38.001
38.148
38.277
38.39
38.486
38.568
38.637
38.693
38.74
38.777
38.806
38.829
38.845
38.857
38.864
38.867
38.866
38.863
38.857
38.848
38.837
38.825
38.811
38.796
38.781
38.765
38.75
38.735
38.72
38.706
38.692
38.677
38.661
38.645
38.627
38.607
38.587
38.566
38.543
38.515
38.484
38.45
38.412
38.37
38.325
38.278
38.228
38.177
38.126
38.076
38.027
37.979
37.932
37.887
37.844
37.803
37.766
37.733
37.704
37.679
37.659
37.643
37.63
37.619
37.609
37.601
37.593
37.583
37.573
37.559
37.543
37.522
37.496
37.465
37.429
37.388
37.344
37.297
37.247
37.195
37.141
37.086
37.029
36.971
36.912
36.852
36.793
36.735
36.68
36.626
36.577
36.53
36.488
36.449
36.414
36.381
36.349
36.317
36.284
36.251
36.217
36.18
36.14
36.098
36.052
36.003
35.952
35.896
35.837
35.774
35.71
35.645
35.578
35.512
35.446
35.382
35.321
35.263
35.21
35.16
35.114
35.07
35.03
34.991
34.954
34.918
34.883
34.848
34.813
34.78
34.746
34.713
34.679
34.645
34.611
34.578
34.544
34.512
34.479
34.448
34.417
34.387
34.358
34.328
34.298
34.266
34.234
34.201
34.167
34.13
34.092
34.052
34.012
33.971
33.931
33.891
33.853
33.819
33.788
33.76
33.736
33.714
33.694
33.676
33.659
33.643
33.627
33.609
33.589
33.567
33.543
33.517
33.488
33.457
33.422
33.384
33.345
33.305
33.265
33.225
33.185
33.146
33.108
33.071
33.036
33.004
32.976
32.953
32.937
32.929
32.928
32.935
32.951
32.977
33.014
33.064
33.128
33.206
33.3
33.409
33.536
33.681
33.844
34.025
34.223
34.437
34.665
34.905
35.154
35.409
35.665
35.921
36.173
36.418
36.653
36.878
37.088
37.284
37.462
37.622
37.764
37.888
37.995
38.087
38.164
38.228
38.28
38.322
38.355
38.38
38.397
38.409
38.414
38.416
38.415
38.413
38.409
38.405
38.4
38.395
38.39
38.385
38.381
38.377
38.373
38.368
38.362
38.353
38.34
38.323
38.3
38.271
38.237
38.197
38.152
38.103
38.052
38.001
37.948
37.896
37.843
37.789
37.736
37.682
37.628
37.574
37.521
37.467
37.413
37.36
37.308
37.258
37.208
37.16
37.114
37.072
37.034
36.999
36.968
36.941
36.916
36.893
36.872
36.852
36.833
36.815
36.798
36.781
36.764
36.747
36.729
36.71
36.689
36.666
36.641
36.615
36.587
36.558
36.527
36.496
36.462
36.427
36.389
36.347
36.301
36.252
36.2
36.145
36.088
36.027
35.963
35.896
35.828
35.761
35.695
35.629
35.565
35.501
35.438
35.376
35.316
35.259
35.205
35.155
35.107
35.062
35.021
34.982
34.945
34.91
34.875
34.84
34.803
34.766
34.727
34.686
34.644
34.6
34.554
34.506
34.456
34.405
34.354
34.303
34.252
34.202
34.153
34.105
34.059
34.013
33.968
33.924
33.88
33.837
33.793
33.748
33.704
33.661
33.618
33.576
33.536
33.498
33.461
33.426
33.393
33.362
33.332
33.304
33.278
33.251
33.225
33.2
33.174
33.148
33.121
33.093
33.064
33.035
33.006
32.976
32.948
32.92
32.894
32.869
32.847
32.826
32.806
32.788
32.77
32.753
32.737
32.722
32.706
32.691
32.673
32.654
32.632
32.605
32.575
32.541
32.505
32.466
32.425
32.384
32.344
32.305
32.269
32.237
32.21
32.19
32.176
32.171
32.175
32.189
32.215
32.252
32.303
32.367
32.447
32.543
32.655
32.783
32.927
33.086
33.261
33.45
33.651
33.866
34.09
34.323
34.562
34.806
35.051
35.295
35.536
35.774
36.007
36.233
36.452
36.661
36.859
37.046
37.218
37.377
37.52
37.649
37.761
37.858
37.939
38.006
38.058
38.098
38.126
38.143
38.152
38.154
38.149
38.139
38.125
38.108
38.089
38.069
38.05
38.031
38.015
38.0
37.989
37.982
37.977
37.975
37.974
37.974
37.971
37.966
37.956
37.94
37.918
37.89
37.857
37.817
37.772
37.721
37.666
37.608
37.546
37.484
37.421
37.36
37.3
37.244
37.191
37.143
37.1
37.06
37.026
36.996
36.972
36.953
36.938
36.928
36.92
36.916
36.912
36.909
36.906
36.903
36.899
36.893
36.887
36.879
36.868
36.854
36.836
36.814
36.787
36.757
36.723
36.687
36.649
36.61
36.569
36.528
36.486
36.443
36.4
36.358
36.316
36.274
36.229
36.183
36.132
36.079
36.022
35.963
35.903
35.842
35.78
35.72
35.66
35.602
35.546
35.491
35.437
35.385
35.335
35.287
35.241
35.199
35.159
35.122
35.088
35.055
35.024
34.994
34.964
34.933
34.902
34.868
34.832
34.794
34.753
34.71
34.666
34.619
34.57
34.521
34.47
34.418
34.366
34.316
34.267
34.222
34.18
34.141
34.105
34.072
34.041
34.011
33.982
33.954
33.926
33.898
33.87
33.844
33.818
33.792
33.767
33.743
33.72
33.697
33.674
33.652
33.63
33.606
33.583
33.558
33.531
33.502
33.47
33.435
33.396
33.354
33.309
33.264
33.219
33.176
33.135
33.096
33.061
33.029
33.0
32.973
32.948
32.925
32.901
32.879
32.857
32.836
32.815
32.795
32.776
32.759
32.744
32.733
32.726
32.723
32.726
32.734
32.75
32.772
32.802
32.841
32.89
32.951
33.027
33.118
33.225
33.349
33.49
33.65
33.829
34.024
34.236
34.463
34.704
34.955
35.215
35.48
35.748
36.016
36.28
36.537
36.787
37.024
37.249
37.458
37.649
37.823
37.977
38.112
38.228
38.325
38.405
38.469
38.517
38.553
38.576
38.59
38.595
38.593
38.585
38.574
38.561
38.547
38.532
38.519
38.508
38.499
38.491
38.485
38.48
38.474
38.468
38.459
38.447
38.431
38.409
38.383
38.351
38.314
38.274
38.231
38.185
38.137
38.088
38.038
37.989
37.94
37.892
37.846
37.801
37.758
37.719
37.682
37.649
37.62
37.595
37.573
37.553
37.535
37.518
37.502
37.486
37.468
37.449
37.427
37.402
37.375
37.347
37.317
37.285
37.252
37.219
37.187
37.154
37.122
37.09
37.058
37.026
36.994
36.962
36.929
36.895
36.86
36.825
36.788
36.749
36.709
36.667
36.623
36.577
36.529
36.48
36.429
36.377
36.324
36.27
36.217
36.164
36.111
36.057
36.004
35.951
35.898
35.845
35.792
35.74
35.69
35.641
35.594
35.548
35.505
35.461
35.417
35.373
35.328
35.281
35.234
35.185
35.134
35.083
35.033
34.983
34.936
34.89
34.846
34.806
34.768
34.733
34.698
34.665
34.631
34.597
34.563
34.527
34.49
34.451
34.41
34.367
34.323
34.277
34.23
34.184
34.138
34.094
34.052
34.014
33.979
33.947
33.919
33.895
33.875
33.857
33.842
33.827
33.813
33.798
33.781
33.764
33.743
33.718
33.69
33.657
33.62
33.582
33.542
33.502
33.462
33.423
33.386
33.35
33.317
33.288
33.262
33.24
33.222
33.208
33.197
33.189
33.181
33.174
33.165
33.153
33.14
33.125
33.109
33.094
33.082
33.075
33.078
33.093
33.124
33.172
33.242
33.334
33.45
33.592
33.76
33.954
34.167
34.391
34.624
34.864
35.11
35.36
35.613
35.868
36.124
36.379
36.632
36.882
37.128
37.368
37.599
37.819
38.025
38.217
38.392
38.547
38.681
38.793
38.883
38.952
39.001
39.034
39.052
39.058
39.055
39.046
39.034
39.021
39.009
38.999
38.99
38.983
38.977
38.971
38.965
38.958
38.95
38.941
38.931
38.919
38.905
38.888
38.867
38.842
38.811
38.774
38.73
38.679
38.624
38.564
38.502
38.44
38.379
38.322
38.268
38.22
38.176
38.137
38.104
38.074
38.049
38.027
38.007
37.988
37.971
37.953
37.934
37.915
37.894
37.873
37.851
37.829
37.805
37.779
37.75
37.718
37.683
37.645
37.605
37.563
37.52
37.475
37.431
37.387
37.344
37.3
37.256
37.21
37.161
37.109
37.055
36.997
36.937
36.875
36.812
36.75
36.687
36.624
36.563
36.503
36.443
36.385
36.328
36.272
36.217
36.164
36.113
36.063
36.014
35.967
35.919
35.871
35.821
35.769
35.714
35.657
35.597
35.535
35.469
35.401
35.331
35.259
35.186
35.114
35.044
34.977
34.914
34.855
34.802
34.754
34.712
34.676
34.645
34.619
34.597
34.578
34.56
34.541
34.522
34.499
34.474
34.447
34.418
34.386
34.351
34.312
34.269
34.224
34.176
34.126
34.075
34.024
33.973
33.924
33.877
33.831
33.787
33.745
33.706
33.668
33.631
33.594
33.559
33.523
33.487
33.451
33.414
33.377
33.34
33.302
33.263
33.224
33.184
33.145
33.107
33.071
33.036
33.002
32.969
32.937
32.906
32.874
32.843
32.81
32.776
32.741
32.705
32.671
32.639
32.611
32.592
32.582
32.585
32.602
32.637
32.693
32.77
32.872
32.999
33.151
33.326
33.524
33.742
33.976
34.224
34.482
34.747
35.015
35.285
35.551
35.811
36.062
36.299
36.521
36.726
36.913
37.083
37.233
37.365
37.479
37.576
37.656
37.723
37.778
37.824
37.861
37.89
37.913
37.93
37.941
37.948
37.951
37.95
37.949
37.947
37.945
