Trial 3:3back
35.046
34.988
34.932
34.877
34.822
34.767
34.713
34.66
34.609
34.561
34.515
34.473
34.433
34.395
34.358
34.321
34.284
34.246
34.209
34.172
34.136
34.103
34.073
34.046
34.021
33.999
33.978
33.96
33.943
33.929
33.918
33.91
33.903
33.897
33.892
33.887
33.881
33.873
33.863
33.851
33.837
33.821
33.803
33.783
33.763
33.741
33.719
33.698
33.677
33.658
33.639
33.621
33.605
33.59
33.576
33.562
33.549
33.534
33.519
33.502
33.484
33.462
33.437
33.408
33.375
33.338
33.298
33.255
33.212
33.168
33.125
33.083
33.042
33.003
32.965
32.928
32.892
32.858
32.825
32.795
32.768
32.746
32.73
32.723
32.727
32.745
32.779
32.833
32.908
33.007
33.13
33.277
33.447
33.638
33.849
34.076
34.318
34.574
34.84
35.114
35.393
35.674
35.953
36.227
36.492
36.746
36.986
37.209
37.414
37.599
37.763
37.904
38.023
38.121
38.197
38.255
38.296
38.323
38.338
38.343
38.338
38.326
38.307
38.283
38.252
38.216
38.173
38.126
38.073
38.017
37.956
37.894
37.832
37.77
37.709
37.648
37.587
37.525
37.461
37.392
37.32
37.242
37.16
37.072
36.979
36.883
36.784
36.683
36.581
36.478
36.376
36.275
36.177
36.085
36.0
35.923
35.856
35.799
35.753
35.716
35.688
35.669
35.656
35.648
35.645
35.644
35.648
35.655
35.664
35.676
35.689
35.704
35.72
35.737
35.754
35.772
35.79
35.805
35.818
35.827
35.832
35.833
35.83
35.823
35.81
35.793
35.772
35.746
35.716
35.682
35.644
35.605
35.563
35.521
35.478
35.434
35.387
35.337
35.283
35.226
35.164
35.099
35.031
34.959
34.885
34.81
34.733
34.655
34.578
34.502
34.427
34.355
34.285
34.219
34.156
34.096
34.038
33.982
33.928
33.876
33.825
33.775
33.724
33.672
33.62
33.568
33.516
33.465
33.416
33.371
33.336
33.31
33.294
33.284
33.278
33.274
33.269
33.262
33.25
33.233
33.211
33.184
33.153
33.118
33.082
33.044
33.006
32.97
32.936
32.904
32.877
32.853
32.833
32.816
32.8
32.786
32.773
32.761
32.749
32.737
32.725
32.713
32.702
32.689
32.677
32.665
32.653
32.641
32.63
32.621
32.613
32.606
32.601
32.595
32.588
32.578
32.563
32.542
32.515
32.483
32.446
32.405
32.362
32.318
32.273
32.228
32.183
32.138
32.094
32.052
32.014
31.981
31.954
31.933
31.92
31.915
31.918
31.932
31.96
32.003
32.066
32.151
32.259
32.393
32.552
32.735
32.941
33.167
33.412
33.672
33.946
34.23
34.523
34.819
35.116
35.41
35.697
35.973
36.236
36.483
36.712
36.922
37.112
37.283
37.434
37.566
37.68
37.776
37.856
37.921
37.972
38.01
38.034
38.047
38.048
38.038
38.02
37.994
37.963
37.926
37.887
37.845
37.803
37.76
37.717
37.673
37.626
37.577
37.524
37.468
37.408
37.343
37.274
37.199
37.12
37.038
36.954
36.87
36.785
36.702
36.619
36.538
36.458
36.38
36.304
36.231
36.161
36.096
36.036
35.984
35.939
35.9
35.867
35.84
35.818
35.801
35.791
35.786
35.788
35.794
35.804
35.817
35.833
35.851
35.871
35.893
35.915
35.937
35.958
35.976
35.992
36.003
36.009
36.01
36.007
36.0
35.989
35.976
35.96
35.941
35.918
35.891
35.86
35.825
35.786
35.745
35.701
35.655
35.607
35.559
35.508
35.455
35.4
35.342
35.282
35.22
35.159
35.098
35.037
34.978
34.92
34.865
34.811
34.76
34.711
34.665
34.62
34.578
34.536
34.495
34.454
34.413
34.371
34.327
34.282
34.237
34.193
34.148
34.105
34.063
34.021
33.981
33.943
33.905
33.87
33.836
33.805
33.775
33.746
33.719
33.693
33.667
33.641
33.617
33.593
33.57
33.549
33.53
33.512
33.495
33.479
33.464
33.449
33.435
33.423
33.412
33.403
33.395
33.389
33.382
33.374
33.365
33.355
33.344
33.333
33.323
33.312
33.299
33.286
33.27
33.251
33.23
33.206
33.181
33.154
33.127
33.1
33.072
33.044
33.014
32.983
32.951
32.917
32.882
32.847
32.814
32.782
32.751
32.719
32.686
32.651
32.614
32.576
32.536
32.497
32.457
32.417
32.378
32.34
32.302
32.266
32.234
32.206
32.187
32.178
32.183
32.206
32.25
32.318
32.41
32.529
32.675
32.847
33.047
33.273
33.524
33.797
34.088
34.393
34.708
35.026
35.343
35.653
35.953
36.239
36.508
36.757
36.987
37.195
37.381
37.547
37.691
37.817
37.926
38.02
38.1
38.165
38.217
38.254
38.276
38.285
38.28
38.261
38.231
38.189
38.138
38.08
38.015
37.946
37.874
37.799
37.722
37.645
37.566
37.486
37.405
37.323
37.239
37.152
37.065
36.975
36.885
36.795
36.704
36.613
36.523
36.433
36.344
36.257
36.169
36.083
35.997
35.915
35.838
35.767
35.702
35.643
35.59
35.544
35.507
35.479
35.46
35.45
35.447
35.451
35.462
35.477
35.497
35.519
35.545
35.573
35.602
35.632
35.662
35.69
35.716
35.739
35.759
35.775
35.788
35.798
35.804
35.807
35.807
35.802
35.793
35.78
35.764
35.743
35.719
35.691
35.66
35.627
35.59
35.55
35.506
35.458
35.406
35.348
35.287
35.221
35.152
35.082
35.01
34.937
34.866
34.797
34.73
34.665
34.604
34.544
34.486
34.429
34.373
34.317
34.262
34.208
34.155
34.104
34.054
34.005
33.955
33.906
33.856
33.805
33.754
33.704
33.655
33.61
33.568
33.53
33.496
33.466
33.44
33.418
33.401
33.387
33.379
33.374
33.373
33.377
33.383
33.389
33.396
33.401
33.404
33.404
33.401
33.395
33.387
33.378
33.368
33.358
33.347
33.337
33.328
33.321
33.317
33.317
33.321
33.327
33.334
33.343
33.352
33.359
33.364
33.365
33.362
33.355
33.345
33.33
33.312
33.29
33.263
33.232
33.196
33.156
33.113
33.069
33.023
32.977
32.931
32.888
32.846
32.805
32.767
32.73
32.695
32.661
32.628
32.596
32.567
32.54
32.516
32.497
32.485
32.481
32.488
32.509
32.547
32.602
32.678
32.777
32.898
33.043
33.212
33.405
33.62
33.855
34.107
34.374
34.651
34.935
35.222
35.506
35.785
36.056
36.317
36.565
36.799
37.018
37.218
37.399
37.56
37.702
37.824
37.928
38.015
38.083
38.135
38.172
38.194
38.202
38.199
38.185
38.162
38.131
38.093
38.046
37.992
37.929
37.86
37.783
37.702
37.616
37.527
37.436
37.343
37.25
37.155
37.058
36.96
36.86
36.757
36.654
36.55
36.444
36.339
36.232
36.125
36.017
35.91
35.805
35.702
35.605
35.514
35.431
35.356
35.291
35.236
35.193
35.163
35.144
35.137
35.142
35.157
35.182
35.214
35.251
35.292
35.335
35.38
35.426
35.472
35.518
35.562
35.604
35.644
35.68
35.713
35.742
35.767
35.787
35.801
35.811
35.816
35.815
35.809
35.796
35.776
35.749
35.716
35.676
35.633
35.587
35.539
35.49
35.439
35.388
35.337
35.284
35.232
35.178
35.123
35.068
35.01
34.951
34.889
34.825
34.757
34.687
34.616
34.546
34.479
34.414
34.352
34.291
34.231
34.172
34.113
34.059
34.01
33.966
33.927
33.891
33.857
33.824
33.791
33.756
33.72
33.681
33.643
33.606
33.57
33.535
33.5
33.466
33.433
33.401
33.371
33.342
33.316
33.293
33.273
33.256
33.241
33.227
33.215
33.205
33.196
33.189
33.184
33.181
33.18
33.181
33.182
33.182
33.181
33.178
33.173
33.167
33.16
33.151
33.142
33.131
33.119
33.103
33.085
33.063
33.039
33.012
32.984
32.955
32.925
32.895
32.865
32.834
32.803
32.773
32.742
32.713
32.687
32.663
32.645
32.631
32.623
32.622
32.628
32.646
32.676
32.723
32.792
32.884
33.003
33.151
33.329
33.536
33.769
34.027
34.306
34.601
34.91
35.226
35.546
35.865
36.18
36.486
36.78
37.059
37.321
37.566
37.794
38.003
38.193
38.363
38.513
38.641
38.747
38.832
38.897
38.944
38.973
38.987
38.985
38.972
38.947
38.913
38.871
38.823
38.77
38.712
38.65
38.584
38.514
38.442
38.366
38.288
38.21
38.132
38.056
37.983
37.913
37.846
37.78
37.714
37.646
37.576
37.504
37.428
37.348
37.265
37.179
37.091
37.001
36.911
36.822
36.736
36.655
36.579
36.511
36.451
36.398
36.352
36.314
36.283
36.259
36.243
36.235
36.235
36.241
36.251
36.264
36.278
36.291
36.304
36.317
36.329
36.342
36.356
36.372
36.392
36.414
36.436
36.457
36.476
36.491
36.5
36.503
36.499
36.487
36.466
36.439
36.405
36.369
36.334
36.302
36.273
36.246
36.219
36.189
36.153
36.11
36.058
35.996
35.926
35.848
35.763
35.675
35.583
35.489
35.393
35.297
35.201
35.107
35.017
34.93
34.848
34.772
34.7
34.633
34.571
34.514
34.461
34.41
34.363
34.317
34.272
34.229
34.186
34.143
34.099
34.054
34.007
33.961
33.916
33.872
33.83
33.792
33.757
33.727
33.701
33.681
33.665
33.653
33.646
33.644
33.644
33.647
33.651
33.655
33.657
33.658
33.657
33.654
33.648
33.642
33.636
33.628
33.62
33.61
33.596
33.58
33.561
33.54
33.517
33.494
33.471
33.448
33.425
33.401
33.377
33.354
33.331
33.309
33.288
33.267
33.245
33.223
33.198
33.17
33.139
33.106
33.071
33.035
33.0
32.968
32.941
32.922
32.912
32.913
32.929
32.961
33.013
33.089
33.192
33.323
33.483
33.673
33.889
34.129
34.391
34.67
34.963
35.265
35.572
35.878
36.179
36.472
36.755
37.024
37.279
37.518
37.74
37.945
38.132
38.301
38.451
38.581
38.69
38.779
38.85
38.902
38.938
38.959
38.966
38.961
38.945
38.919
38.885
38.845
38.8
38.75
38.697
38.641
38.582
38.521
38.457
38.39
38.321
38.251
38.18
38.109
38.04
37.971
37.902
37.833
37.763
37.691
37.617
37.54
37.46
37.377
37.29
37.202
37.113
37.023
36.932
36.843
36.757
36.676
36.602
36.535
36.478
36.43
36.392
36.363
36.345
36.337
36.338
36.348
36.365
36.388
36.415
36.443
36.471
36.497
36.518
36.534
36.547
36.555
36.559
36.56
36.557
36.55
36.54
36.526
36.509
36.488
36.465
36.44
36.413
36.385
36.355
36.323
36.288
36.252
36.214
36.174
36.132
36.089
36.043
35.994
35.942
35.886
35.826
35.764
35.698
35.63
35.561
35.491
35.419
35.346
35.27
35.192
35.112
35.031
34.95
34.871
34.796
34.725
34.659
34.599
34.543
34.492
34.445
34.402
34.362
34.326
34.292
34.26
34.23
34.201
34.173
34.144
34.113
34.081
34.048
34.014
33.981
33.95
33.921
33.894
33.869
33.846
33.824
33.803
33.783
33.765
33.751
33.74
33.733
33.728
33.725
33.723
33.721
33.719
33.716
33.71
33.702
33.693
33.683
33.674
33.665
33.655
33.646
33.635
33.622
33.608
33.59
33.569
33.545
33.518
33.489
33.457
33.423
33.388
33.351
33.313
33.274
33.235
33.194
33.154
33.113
33.072
33.032
32.993
32.954
32.918
32.883
32.851
32.822
32.798
32.781
32.774
32.778
32.797
32.832
32.887
32.964
33.065
33.191
33.343
33.519
33.718
33.938
34.177
34.434
34.703
34.982
35.27
35.563
35.857
36.148
36.431
36.704
36.963
37.207
37.432
37.639
37.825
37.991
38.136
38.26
38.364
38.449
38.517
38.568
38.604
38.624
38.631
38.625
38.606
38.577
38.539
38.494
38.443
38.387
38.328
38.267
38.204
38.14
38.074
38.008
37.941
37.874
37.805
37.735
37.664
37.591
37.516
37.437
37.355
37.268
37.178
37.084
36.989
36.891
36.793
36.695
36.598
36.504
36.415
36.333
36.26
36.196
36.143
36.101
36.068
36.045
36.028
36.019
36.016
36.018
36.026
36.039
36.057
36.078
36.102
36.128
36.156
36.184
36.212
36.24
36.267
36.292
36.316
36.339
36.36
36.378
36.394
36.407
36.416
36.422
36.425
36.424
36.418
36.407
36.391
36.369
36.343
36.312
36.277
36.239
36.198
36.154
36.106
36.055
36.0
35.941
35.88
35.815
35.749
35.682
35.616
35.549
35.483
35.417
35.352
35.289
35.227
35.167
35.11
35.055
35.003
34.954
34.907
34.861
34.816
34.771
34.727
34.685
34.644
34.605
34.568
34.532
34.497
34.463
34.43
34.399
34.37
34.345
34.323
34.304
34.288
34.274
34.261
34.25
34.24
34.23
34.221
34.213
34.205
34.197
34.189
34.18
34.167
34.151
34.131
34.108
34.082
34.055
34.028
34.001
33.975
33.95
33.926
33.902
33.878
33.854
33.829
33.804
33.778
33.75
33.722
33.691
33.66
33.627
33.594
33.562
33.532
33.506
33.486
33.473
33.471
33.48
33.503
33.541
33.595
33.669
33.763
33.88
34.02
34.183
34.368
34.574
34.798
35.037
35.287
35.547
35.811
36.075
36.336
36.59
36.835
37.067
37.286
37.489
37.676
37.848
38.006
38.148
38.276
38.388
38.486
38.568
38.635
38.687
38.725
38.748
38.758
38.756
38.743
38.72
38.689
38.65
38.604
38.553
38.498
38.441
38.383
38.323
38.26
38.196
38.129
38.059
37.987
37.913
37.837
37.758
37.677
37.594
37.509
37.422
37.332
37.241
37.148
37.055
36.963
36.873
36.785
36.7
36.62
36.547
36.481
36.422
36.37
36.324
36.285
36.252
36.226
36.204
36.188
36.177
36.173
36.174
36.181
36.195
36.213
36.234
36.257
36.278
36.299
36.317
36.333
36.348
36.36
36.37
36.379
36.386
36.391
36.393
36.392
36.386
36.375
36.359
36.338
36.313
36.283
36.249
36.209
36.164
36.114
36.061
36.005
35.946
35.885
35.823
35.76
35.698
35.638
35.58
35.524
35.472
35.422
35.376
35.331
35.289
35.248
35.207
35.165
35.122
35.078
35.033
34.987
34.941
34.894
34.849
34.804
34.759
34.714
34.669
34.625
34.582
34.54
34.501
34.465
34.432
34.401
34.372
34.345
34.318
34.292
34.267
34.241
34.216
34.19
34.164
34.139
34.113
34.086
34.059
34.032
34.004
33.978
33.951
33.924
33.894
33.864
33.834
33.806
33.781
33.758
33.741
33.727
33.718
33.711
33.705
33.697
33.687
33.673
33.655
33.635
33.61
33.583
33.552
33.518
33.48
33.44
33.397
33.353
33.31
33.269
33.232
33.198
33.171
33.15
33.138
33.137
33.147
33.173
33.217
33.28
33.366
33.477
33.612
33.771
33.955
34.159
34.382
34.622
34.875
35.14
35.414
35.694
35.978
36.262
36.542
36.814
37.076
37.325
37.559
37.776
37.974
38.153
38.311
38.447
38.561
38.653
38.726
38.783
38.825
38.857
38.88
38.895
38.902
38.903
38.897
38.884
38.865
38.84
38.809
38.773
38.734
38.691
38.646
38.598
38.547
38.496
38.444
38.392
38.341
38.29
38.238
38.185
38.132
38.076
38.019
37.959
37.898
37.834
37.768
37.7
37.629
37.555
37.478
37.398
37.316
37.235
37.156
37.08
37.008
36.943
36.883
36.831
36.785
36.747
36.715
36.69
36.671
36.658
36.65
36.645
36.643
36.643
36.643
36.645
36.647
36.651
36.657
36.663
36.667
36.669
36.667
36.658
36.644
36.624
36.601
36.574
36.545
36.515
36.486
36.456
36.426
36.394
36.361
36.325
36.286
36.244
36.198
36.15
36.099
36.045
35.99
35.931
35.869
35.804
35.736
35.666
35.593
35.519
35.444
35.368
35.293
35.221
35.151
35.086
35.025
34.97
34.918
34.871
34.826
34.782
34.74
34.698
34.657
34.617
34.578
34.541
34.506
34.471
34.436
34.4
34.365
34.329
34.294
34.261
34.229
34.2
34.174
34.15
34.129
34.11
34.091
34.073
34.054
34.036
34.019
34.002
33.985
33.97
33.956
33.941
33.928
33.914
33.9
33.887
33.874
33.861
33.847
33.834
33.82
33.806
33.791
33.775
33.756
33.734
33.709
33.68
33.648
33.613
33.575
33.535
33.493
33.452
33.41
33.368
33.328
33.288
33.249
33.21
33.173
33.139
33.107
33.08
33.058
33.043
33.036
33.039
33.053
33.08
33.124
33.185
33.268
33.373
33.503
33.657
33.835
34.035
34.255
34.494
34.75
35.018
35.296
35.581
35.868
36.155
36.438
36.712
36.975
37.222
37.452
37.663
37.853
38.022
38.171
38.3
38.409
38.499
38.573
38.63
38.675
38.707
38.729
38.742
38.748
38.746
38.737
38.72
38.696
38.664
38.626
38.582
38.532
38.478
38.42
38.361
38.302
38.243
38.185
38.128
38.07
38.012
37.95
37.884
37.814
37.739
37.659
37.575
37.488
37.399
37.308
37.219
37.132
37.049
36.97
36.895
36.825
36.76
36.699
36.643
36.592
36.547
36.507
36.472
36.443
36.418
36.397
36.379
36.364
36.352
36.344
36.339
36.337
36.338
36.342
36.347
36.354
36.363
36.371
36.38
36.386
36.39
36.389
36.38
36.362
36.335
36.3
36.26
36.216
36.17
36.125
36.081
36.041
36.003
35.967
35.934
35.902
35.871
35.841
35.811
35.779
35.744
35.707
35.665
35.618
35.566
35.507
35.443
35.374
35.302
35.228
35.154
35.079
35.006
34.934
34.866
34.8
34.739
34.681
34.627
34.578
34.531
34.487
34.444
34.403
34.362
34.32
34.279
34.238
34.198
34.158
34.119
34.081
34.043
34.007
33.972
33.938
33.906
33.878
33.853
33.832
33.815
33.801
33.787
33.774
33.76
33.746
33.732
33.718
33.706
33.694
33.683
33.671
33.659
33.645
33.63
33.614
33.598
33.581
33.565
33.548
33.531
33.513
33.495
33.477
33.459
33.442
33.424
33.408
33.393
33.379
33.365
33.35
33.334
33.316
33.296
33.272
33.244
33.213
33.178
33.14
33.098
33.051
32.999
32.943
32.884
32.823
32.764
32.707
32.654
32.609
32.573
32.547
32.533
32.533
32.549
32.584
32.64
32.72
32.825
32.957
33.114
33.296
33.501
33.727
33.971
34.231
34.504
34.786
35.075
35.367
35.658
35.945
36.223
36.49
36.743
36.981
37.202
37.406
37.592
37.758
37.905
38.033
38.141
38.233
38.307
38.366
38.409
38.438
38.453
38.456
38.447
38.428
38.4
38.365
38.323
38.276
38.224
38.169
38.111
38.049
37.984
37.916
37.844
37.772
37.699
37.628
37.558
37.488
37.418
37.347
37.274
37.199
37.121
37.042
36.962
36.881
36.8
36.719
36.637
36.556
36.474
36.394
36.315
36.24
36.17
36.107
36.052
36.004
35.966
35.936
35.914
35.901
35.895
35.896
35.904
35.917
35.936
35.959
35.984
36.01
36.036
36.06
36.083
36.105
36.125
36.143
36.16
36.173
36.183
36.19
36.193
36.193
36.19
36.185
36.176
36.164
36.147
36.125
36.097
36.064
36.026
35.984
35.937
35.887
35.834
35.778
35.721
35.661
35.598
35.533
35.466
35.398
35.329
35.261
35.193
35.126
35.06
34.994
34.929
34.865
34.802
34.74
34.679
34.62
34.561
34.504
34.45
34.397
34.347
34.299
34.254
34.213
34.176
34.143
34.113
34.087
34.064
34.043
34.026
34.012
34.0
33.989
33.981
33.973
33.965
33.957
33.949
33.94
33.931
33.922
33.913
33.905
33.897
33.889
33.88
33.871
33.86
33.848
33.835
33.822
33.809
33.795
33.783
33.77
33.759
33.749
33.739
33.728
33.714
33.697
33.676
33.652
33.624
33.593
33.558
33.52
33.48
33.437
33.393
33.348
33.302
33.258
33.214
33.172
33.132
33.093
33.058
33.025
32.997
32.976
32.965
32.963
32.973
32.996
33.033
33.086
33.159
33.254
33.374
33.52
33.692
33.888
34.106
34.343
34.595
34.859
35.131
35.406
35.683
35.956
36.223
36.48
36.725
36.956
37.172
37.37
37.549
37.71
37.852
37.977
38.085
38.176
38.252
38.312
38.357
38.387
38.405
38.411
38.405
38.388
38.361
38.326
38.284
38.236
38.184
38.128
38.069
38.007
37.945
37.881
37.816
37.751
37.684
37.616
37.546
37.474
37.4
37.322
37.242
37.159
37.072
36.982
36.89
36.796
36.7
36.604
36.507
36.413
36.321
36.233
36.151
36.074
36.004
35.94
35.884
35.836
35.795
35.764
35.74
35.725
35.718
35.719
35.727
35.74
35.757
35.778
35.801
35.826
35.851
35.876
35.899
35.92
35.938
35.954
35.969
35.983
35.995
36.005
36.013
36.016
36.016
36.009
35.997
35.979
35.955
35.926
35.892
35.855
35.813
35.769
35.72
35.668
35.613
35.555
35.496
35.436
35.376
35.315
35.254
35.192
35.127
35.061
34.993
34.923
34.853
34.783
34.714
34.647
34.583
34.522
34.462
34.404
34.347
34.291
34.235
34.181
34.129
34.08
34.032
33.986
33.941
33.896
33.852
33.808
33.765
33.725
33.687
33.652
33.62
33.591
33.566
33.545
33.526
33.51
33.496
33.485
33.475
33.468
33.463
33.458
33.455
33.45
33.446
33.44
33.433
33.424
33.413
33.402
33.39
33.377
33.363
33.349
33.333
33.318
33.301
33.285
33.271
33.258
33.248
33.239
33.232
33.224
33.216
33.206
33.194
33.179
33.16
33.138
33.111
33.077
33.037
32.991
32.942
32.889
32.836
32.783
32.73
32.679
32.631
32.585
32.543
32.505
32.475
32.454
32.446
32.455
32.484
32.535
32.612
32.716
32.85
33.013
33.205
33.427
33.674
33.946
34.239
34.547
34.867
35.192
35.517
35.838
36.149
36.449
36.735
37.005
37.256
37.49
37.703
37.897
38.07
38.224
38.357
38.471
38.566
38.642
38.702
38.745
38.773
