Trial 3:3back
35.444
35.437
35.433
35.43
35.428
35.426
35.424
35.42
35.414
35.405
35.393
35.378
35.359
35.336
35.311
35.286
35.261
35.236
35.213
35.192
35.173
35.158
35.147
35.141
35.14
35.143
35.151
35.161
35.175
35.19
35.206
35.223
35.24
35.256
35.271
35.283
35.292
35.298
35.299
35.297
35.29
35.28
35.267
35.252
35.234
35.215
35.193
35.171
35.148
35.126
35.106
35.086
35.069
35.054
35.04
35.029
35.018
35.009
35.002
34.997
34.993
34.989
34.984
34.977
34.967
34.956
34.942
34.925
34.905
34.883
34.858
34.83
34.8
34.769
34.736
34.704
34.675
34.648
34.624
34.604
34.587
34.574
34.565
34.56
34.559
34.562
34.568
34.575
34.583
34.591
34.596
34.6
34.601
34.601
34.604
34.611
34.621
34.635
34.648
34.66
34.669
34.673
34.672
34.666
34.655
34.641
34.625
34.609
34.598
34.593
34.596
34.61
34.637
34.677
34.73
34.795
34.87
34.954
35.045
35.141
35.238
35.335
35.429
35.516
35.596
35.666
35.727
35.778
35.819
35.85
35.87
35.882
35.884
35.879
35.867
35.85
35.829
35.806
35.782
35.756
35.73
35.705
35.681
35.659
35.638
35.619
35.6
35.582
35.564
35.547
35.529
35.511
35.492
35.472
35.452
35.43
35.407
35.383
35.359
35.336
35.314
35.294
35.277
35.263
35.255
35.251
35.252
35.256
35.264
35.273
35.284
35.296
35.308
35.319
35.327
35.332
35.335
35.335
35.333
35.33
35.324
35.318
35.311
35.304
35.296
35.287
35.28
35.273
35.268
35.263
35.26
35.258
35.257
35.257
35.258
35.257
35.256
35.254
35.251
35.246
35.24
35.232
35.222
35.21
35.197
35.182
35.164
35.143
35.12
35.094
35.066
35.037
35.007
34.976
34.947
34.92
34.895
34.872
34.853
34.835
34.821
34.81
34.803
34.798
34.796
34.797
34.799
34.803
34.807
34.811
34.812
34.812
34.808
34.801
34.79
34.775
34.756
34.734
34.711
34.687
34.663
34.639
34.616
34.595
34.575
34.558
34.545
34.537
34.532
34.532
34.536
34.542
34.552
34.564
34.58
34.599
34.622
34.648
34.678
34.712
34.751
34.794
34.843
34.896
34.954
35.017
35.084
35.154
35.225
35.298
35.37
35.442
35.511
35.578
35.642
35.702
35.756
35.805
35.848
35.884
35.914
35.937
35.955
35.965
35.969
35.965
35.954
35.936
35.912
35.883
35.85
35.813
35.774
35.733
35.69
35.648
35.607
35.569
35.535
35.504
35.478
35.454
35.434
35.417
35.403
35.393
35.386
35.381
35.38
35.379
35.38
35.381
35.381
35.379
35.376
35.37
35.362
35.351
35.337
35.32
35.302
35.283
35.265
35.249
35.237
35.227
35.222
35.22
35.222
35.227
35.236
35.248
35.263
35.281
35.301
35.322
35.343
35.362
35.38
35.395
35.406
35.414
35.417
35.415
35.409
35.398
35.383
35.363
35.34
35.313
35.285
35.254
35.223
35.191
35.159
35.129
35.101
35.076
35.054
35.035
35.019
35.006
34.996
34.987
34.979
34.973
34.968
34.963
34.958
34.953
34.947
34.939
34.93
34.919
34.906
34.89
34.871
34.851
34.828
34.805
34.78
34.756
34.733
34.712
34.693
34.675
34.661
34.648
34.638
34.631
34.626
34.624
34.624
34.626
34.629
34.632
34.635
34.636
34.636
34.636
34.635
34.635
34.636
34.639
34.646
34.655
34.67
34.691
34.719
34.755
34.801
34.855
34.918
34.989
35.069
35.155
35.246
35.342
35.44
35.537
35.63
35.718
35.797
35.867
35.926
35.973
36.008
36.031
36.041
36.041
36.031
36.012
35.985
35.953
35.916
35.876
35.834
35.791
35.748
35.706
35.668
35.634
35.604
35.579
35.558
35.542
35.53
35.522
35.516
35.512
35.51
35.509
35.508
35.507
35.503
35.498
35.49
35.479
35.465
35.448
35.428
35.406
35.382
35.357
35.332
35.307
35.284
35.264
35.249
35.238
35.233
35.232
35.236
35.245
35.257
35.272
35.291
35.31
35.33
35.35
35.367
35.381
35.392
35.4
35.404
35.404
35.4
35.39
35.375
35.355
35.333
35.308
35.281
35.255
35.229
35.204
35.182
35.161
35.143
35.128
35.114
35.101
35.09
35.079
35.07
35.062
35.054
35.047
35.039
35.03
35.02
35.009
34.996
34.982
34.965
34.945
34.923
34.9
34.874
34.848
34.822
34.796
34.77
34.747
34.725
34.707
34.692
34.68
34.672
34.666
34.661
34.659
34.657
34.656
34.655
34.654
34.652
34.649
34.644
34.637
34.628
34.617
34.604
34.589
34.573
34.557
34.539
34.522
34.505
34.489
34.476
34.463
34.449
34.434
34.421
34.412
34.409
34.418
34.439
34.476
34.529
34.598
34.679
34.773
34.875
34.983
35.094
35.206
35.314
35.418
35.514
35.6
35.677
35.743
35.798
35.843
35.878
35.904
35.922
35.933
35.936
35.933
35.925
35.912
35.897
35.879
35.859
35.84
35.82
35.8
35.779
35.759
35.74
35.72
35.701
35.682
35.662
35.641
35.619
35.595
35.57
35.544
35.517
35.489
35.461
35.434
35.408
35.384
35.362
35.343
35.328
35.314
35.304
35.296
35.289
35.285
35.283
35.282
35.283
35.285
35.288
35.291
35.293
35.295
35.295
35.293
35.288
35.282
35.272
35.26
35.247
35.234
35.221
35.211
35.203
35.199
35.198
35.199
35.203
35.208
35.214
35.222
35.229
35.235
35.24
35.243
35.244
35.241
35.236
35.228
35.218
35.207
35.193
35.177
35.159
35.137
35.112
35.085
35.055
35.025
34.994
34.965
34.937
34.91
34.887
34.866
34.849
34.835
34.826
34.819
34.814
34.81
34.807
34.805
34.802
34.799
34.796
34.791
34.785
34.777
34.766
34.752
34.736
34.719
34.699
34.678
34.656
34.633
34.61
34.587
34.566
34.548
34.532
34.519
34.51
34.504
34.501
34.502
34.504
34.51
34.517
34.526
34.536
34.546
34.557
34.569
34.583
34.599
34.62
34.644
34.674
34.71
34.752
34.8
34.853
34.913
34.978
35.048
35.124
35.202
35.283
35.363
35.441
35.516
35.586
35.649
35.706
35.755
35.797
35.83
35.854
35.869
35.874
35.87
35.858
35.839
35.813
35.781
35.743
35.702
35.66
35.618
35.577
35.537
35.501
35.469
35.44
35.416
35.396
35.38
35.367
35.357
35.348
35.34
35.334
35.329
35.325
35.322
35.318
35.314
35.309
35.301
35.292
35.282
35.272
35.261
35.249
35.237
35.225
35.214
35.203
35.192
35.181
35.173
35.166
35.162
35.16
35.16
35.162
35.167
35.173
35.182
35.193
35.206
35.22
35.234
35.247
35.258
35.265
35.269
35.268
35.264
35.256
35.243
35.226
35.206
35.184
35.159
35.135
35.111
35.088
35.066
35.047
35.028
35.011
34.996
34.982
34.969
34.958
34.948
34.938
34.928
34.918
34.907
34.895
34.883
34.869
34.851
34.827
34.795
34.755
34.711
34.664
34.619
34.578
34.542
34.511
34.486
34.467
34.455
34.448
34.447
34.451
34.461
34.474
34.492
34.51
34.529
34.547
34.564
34.578
34.589
34.596
34.599
34.598
34.594
34.585
34.573
34.557
34.538
34.516
34.493
34.469
34.445
34.422
34.402
34.386
34.376
34.373
34.377
34.389
34.411
34.443
34.485
34.536
34.597
34.667
34.745
34.829
34.917
35.007
35.097
35.186
35.272
35.354
35.43
35.498
35.558
35.61
35.652
35.684
35.708
35.723
35.731
35.732
35.726
35.715
35.699
35.679
35.657
35.635
35.614
35.595
35.578
35.563
35.551
35.542
35.535
35.53
35.526
35.52
35.513
35.503
35.488
35.468
35.444
35.415
35.384
35.35
35.316
35.281
35.247
35.216
35.187
35.16
35.138
35.119
35.104
35.094
35.088
35.086
35.087
35.09
35.096
35.104
35.112
35.121
35.13
35.139
35.146
35.152
35.157
35.16
35.16
35.159
35.156
35.151
35.144
35.136
35.126
35.117
35.108
35.1
35.092
35.086
35.08
35.076
35.072
35.068
35.066
35.064
35.063
35.062
35.059
35.054
35.046
35.035
35.022
35.005
34.986
34.963
34.937
34.909
34.879
34.848
34.817
34.788
34.761
34.736
34.716
34.699
34.685
34.674
34.666
34.661
34.658
34.656
34.653
34.652
34.652
34.652
34.652
34.652
34.651
34.648
34.643
34.635
34.624
34.61
34.591
34.569
34.546
34.521
34.496
34.47
34.446
34.424
34.404
34.387
34.374
34.365
34.36
34.359
34.361
34.365
34.372
34.382
34.394
34.409
34.425
34.443
34.463
34.484
34.509
34.536
34.568
34.604
34.645
34.691
34.741
34.795
34.853
34.914
34.979
35.045
35.113
35.182
35.249
35.314
35.376
35.433
35.485
35.531
35.571
35.604
35.63
35.65
35.661
35.665
35.662
35.651
35.635
35.614
35.587
35.557
35.522
35.486
35.448
35.411
35.374
35.338
35.304
35.273
35.243
35.216
35.19
35.166
35.143
35.122
35.103
35.086
35.072
35.061
35.051
35.044
35.038
35.034
35.031
35.029
35.027
35.025
35.022
35.017
35.011
35.004
34.997
34.989
34.982
34.974
34.967
34.962
34.958
34.958
34.961
34.968
34.977
34.988
35.001
35.015
35.03
35.044
35.058
35.071
35.082
35.09
35.095
35.096
35.095
35.09
35.083
35.072
35.058
35.041
35.021
34.998
34.973
34.947
34.92
34.893
34.869
34.846
34.825
34.807
34.791
34.778
34.767
34.758
34.752
34.748
34.745
34.744
34.742
34.74
34.738
34.735
34.733
34.729
34.723
34.713
34.7
34.683
34.663
34.639
34.614
34.587
34.56
34.533
34.507
34.483
34.462
34.445
34.431
34.421
34.415
34.411
34.409
34.41
34.412
34.417
34.423
34.431
34.44
34.448
34.455
34.461
34.465
34.467
34.468
34.467
34.468
34.469
34.474
34.483
34.499
34.523
34.556
34.599
34.652
34.716
34.787
34.866
34.95
35.038
35.127
35.217
35.304
35.389
35.468
35.54
35.602
35.654
35.695
35.725
35.744
35.753
35.752
35.742
35.724
35.7
35.67
35.637
35.602
35.568
35.534
35.502
35.471
35.442
35.416
35.392
35.371
35.353
35.337
35.324
35.313
35.303
35.295
35.288
35.282
35.275
35.266
35.255
35.241
35.225
35.205
35.184
35.16
35.136
35.112
35.088
35.066
35.047
35.031
35.018
35.01
35.005
35.006
35.012
35.023
35.04
35.062
35.087
35.115
35.144
35.173
35.201
35.226
35.248
35.264
35.275
35.279
35.277
35.27
35.258
35.241
35.222
35.201
35.179
35.158
35.137
35.119
35.103
35.089
35.077
35.067
35.059
35.052
35.046
35.042
35.038
35.033
35.028
35.021
35.012
35.001
34.988
34.973
34.957
34.938
34.918
34.896
34.873
34.849
34.825
34.802
34.78
34.759
34.739
34.721
34.704
34.689
34.675
34.662
34.651
34.641
34.633
34.626
34.621
34.617
34.614
34.611
34.608
34.603
34.598
34.59
34.58
34.567
34.551
34.533
34.512
34.49
34.467
34.443
34.417
34.385
34.349
34.311
34.277
34.249
34.232
34.229
34.241
34.269
34.315
34.38
34.461
34.559
34.669
34.787
34.909
35.032
35.152
35.265
35.37
35.464
35.545
35.614
35.669
35.709
35.737
35.752
35.757
35.753
35.741
35.722
35.7
35.674
35.647
35.618
35.59
35.563
35.539
35.518
35.5
35.485
35.472
35.46
35.449
35.438
35.427
35.416
35.404
35.39
35.375
35.357
35.337
35.315
35.291
35.266
35.241
35.217
35.193
35.17
35.148
35.127
35.108
35.093
35.081
35.074
35.071
35.072
35.078
35.088
35.101
35.118
35.136
35.155
35.173
35.189
35.203
35.214
35.221
35.225
35.225
35.222
35.216
35.206
35.194
35.18
35.166
35.153
35.141
35.131
35.122
35.116
35.112
35.11
35.111
35.113
35.116
35.119
35.121
35.121
35.119
35.114
35.106
35.094
35.079
35.062
35.042
35.021
34.998
34.974
34.948
34.921
34.893
34.866
34.842
34.819
34.8
34.783
34.768
34.756
34.746
34.739
34.734
34.732
34.73
34.728
34.726
34.722
34.718
34.712
34.704
34.695
34.685
34.672
34.657
34.639
34.619
34.597
34.575
34.553
34.532
34.512
34.493
34.477
34.463
34.452
34.445
34.441
34.442
34.447
34.457
34.47
34.487
34.507
34.532
34.56
34.593
34.63
34.673
34.72
34.772
34.828
34.888
34.953
35.021
35.092
35.165
35.238
35.311
35.38
35.445
35.505
35.559
35.607
35.65
35.687
35.719
35.744
35.765
35.779
35.789
35.794
35.794
35.79
35.781
35.768
35.75
35.728
35.703
35.674
35.642
35.607
35.57
35.53
35.49
35.451
35.413
35.377
35.345
35.316
35.291
35.27
35.251
35.236
35.223
35.213
35.205
35.198
35.194
35.191
35.189
35.188
35.189
35.19
35.191
35.192
35.193
35.193
35.192
35.189
35.183
35.177
35.17
35.164
35.159
35.154
35.152
35.15
35.151
35.153
35.157
35.163
35.17
35.178
35.187
35.195
35.204
35.213
35.22
35.226
35.23
35.231
35.228
35.223
35.214
35.202
35.187
35.169
35.148
35.124
35.098
35.07
35.042
35.014
34.987
34.962
34.939
34.918
34.9
34.884
34.871
34.861
34.854
34.847
34.842
34.838
34.833
34.828
34.823
34.817
34.811
34.804
34.796
34.785
34.771
34.754
34.734
34.711
34.685
34.656
34.621
34.581
34.538
34.493
34.451
34.412
34.38
34.356
34.339
34.33
34.329
34.335
34.346
34.361
34.381
34.403
34.427
34.451
34.473
34.494
34.514
34.532
34.55
34.568
34.588
34.612
34.641
34.674
34.712
34.756
34.806
34.864
34.929
35.0
35.077
35.158
35.241
35.324
35.406
35.485
35.56
35.63
35.693
35.748
35.794
35.83
35.857
35.874
35.882
35.881
35.871
35.852
35.825
35.791
35.751
35.708
35.664
35.619
35.576
35.536
35.501
35.469
35.442
35.42
35.403
35.39
35.382
35.377
35.375
35.375
35.376
35.377
35.377
35.375
35.37
35.363
35.352
35.337
35.319
35.296
35.271
35.246
35.221
35.197
35.176
35.156
35.14
35.127
35.119
35.114
35.114
35.119
35.127
35.138
35.151
35.166
35.182
35.198
35.215
35.233
35.249
35.264
35.276
35.285
35.292
35.296
35.297
35.296
35.291
35.283
35.272
35.258
35.241
35.221
35.2
35.179
35.158
35.137
35.117
35.098
35.081
35.066
35.053
35.041
35.03
35.02
35.011
35.001
34.991
34.981
34.971
34.961
34.95
34.938
34.926
34.913
34.897
34.881
34.863
34.844
34.824
34.802
34.781
34.759
34.737
34.716
34.696
34.677
34.66
34.645
34.633
34.622
34.613
34.606
34.6
34.595
34.592
34.589
34.585
34.58
34.572
34.562
34.549
34.535
34.519
34.504
34.49
34.475
34.462
34.451
34.444
34.443
34.45
34.466
34.491
34.527
34.572
34.628
34.693
34.766
34.847
34.932
35.02
35.109
35.196
35.279
35.358
35.43
35.495
35.551
35.598
35.636
35.665
35.684
35.695
35.696
35.689
35.676
35.658
35.636
35.612
35.586
35.559
35.533
35.507
35.483
35.461
35.441
35.423
35.407
35.393
35.381
35.37
35.361
35.353
35.344
35.334
35.322
35.307
35.289
35.268
35.244
35.218
35.19
35.161
35.132
35.104
35.078
35.055
35.036
35.02
35.008
35.0
34.996
34.995
34.998
35.005
35.015
35.028
35.044
35.062
35.08
35.097
35.112
35.127
35.14
35.151
35.16
35.165
35.168
35.167
35.163
35.158
35.151
35.142
35.133
35.123
35.113
35.103
35.093
35.083
35.074
35.066
35.059
35.053
35.047
35.042
35.036
35.028
35.019
35.007
34.993
34.978
34.959
34.939
34.917
34.893
34.868
34.842
34.816
34.79
34.766
34.742
34.72
34.699
34.68
34.664
34.649
34.637
34.627
34.619
34.613
34.608
34.606
34.604
34.604
34.605
34.605
34.604
34.601
34.595
34.587
34.577
34.564
34.548
34.53
34.509
34.488
34.465
34.443
34.423
34.405
34.391
34.379
34.371
34.368
34.369
34.375
34.387
34.405
34.43
34.461
34.499
34.544
34.596
34.655
34.718
34.786
34.858
34.933
35.009
35.085
35.161
35.235
35.304
35.369
35.43
35.485
35.536
35.582
35.621
35.655
35.683
35.706
35.725
35.739
35.748
35.753
35.753
35.748
35.739
35.726
35.71
35.691
35.669
35.645
35.619
35.59
35.56
35.53
35.498
35.467
35.434
35.402
35.369
35.335
35.303
35.272
35.243
35.216
35.194
35.174
35.159
35.146
35.137
35.131
35.128
35.127
35.128
35.131
35.136
35.141
35.147
35.154
35.16
35.167
35.173
35.179
35.184
35.186
35.186
35.185
35.183
35.182
35.182
35.183
35.187
35.193
35.2
35.208
35.217
35.226
35.234
35.241
35.248
35.254
35.257
35.26
35.26
35.259
35.256
35.251
35.243
35.233
35.22
35.204
35.185
35.164
35.141
35.115
35.088
35.06
35.032
35.004
34.978
34.954
34.932
34.913
34.897
34.884
34.875
34.868
34.865
34.865
34.867
34.87
34.872
34.874
34.874
34.872
34.867
34.859
34.849
34.836
34.82
34.802
34.781
34.76
34.738
34.717
34.697
34.679
34.665
34.653
34.643
34.636
34.631
34.629
34.631
34.638
34.65
34.667
34.69
34.718
34.752
34.793
34.839
34.891
34.95
35.014
35.081
35.151
35.222
35.294
35.365
35.436
35.506
35.574
35.639
35.7
35.756
35.807
35.852
35.892
35.923
35.944
35.955
35.956
35.95
35.939
35.925
35.909
35.893
35.877
35.859
35.84
35.82
35.8
35.779
35.757
35.734
35.712
35.689
35.666
35.644
35.622
35.601
35.58
35.561
35.543
35.527
35.512
35.499
35.488
35.478
35.47
35.465
35.463
35.463
35.464
35.468
35.471
35.476
35.48
35.485
35.489
35.492
35.495
35.496
35.497
35.497
35.496
35.494
35.492
35.489
35.486
35.482
35.478
35.475
35.472
35.471
35.471
35.472
35.474
35.477
35.48
35.483
35.485
35.487
35.487
35.485
35.479
35.472
35.462
35.45
35.438
35.424
35.41
35.393
35.376
35.357
35.338
35.318
35.297
35.278
35.259
35.241
35.225
35.21
35.197
35.185
35.175
35.165
35.156
35.148
35.14
35.132
35.124
35.115
35.105
35.095
35.085
35.075
35.063
35.05
35.033
35.012
34.989
34.963
34.936
34.908
34.881
34.856
34.833
34.813
34.796
34.784
34.777
34.774
34.777
34.784
34.796
34.814
34.837
34.868
34.904
34.948
34.997
35.052
35.113
35.18
35.251
35.326
35.403
35.481
35.559
35.636
35.711
35.784
35.853
35.918
35.978
36.034
36.083
36.127
36.165
36.197
36.223
36.245
36.261
36.272
36.278
36.279
36.276
36.267
36.254
36.237
36.217
36.194
36.169
36.143
36.116
36.086
36.056
36.026
35.996
35.966
35.938
35.911
35.885
35.862
35.841
35.823
35.807
35.792
35.778
35.765
35.753
35.741
35.731
35.722
35.715
35.71
35.707
35.704
35.701
35.697
35.694
35.69
35.685
35.678
35.669
35.658
35.644
35.63
35.617
35.604
35.592
35.583
35.576
35.572
35.57
35.571
35.574
35.579
35.587
35.596
35.605
35.614
35.621
35.626
35.63
35.631
35.63
35.626
35.62
35.61
35.598
35.581
35.56
35.536
35.51
35.482
35.453
35.422
35.39
35.358
35.326
35.294
35.264
35.237
35.213
35.193
35.177
35.166
35.158
35.153
35.15
35.149
35.15
35.15
35.149
35.146
35.139
35.13
35.119
35.104
35.087
35.067
35.044
35.02
34.995
34.97
34.946
34.923
34.902
34.884
34.868
34.854
34.842
34.833
34.827
34.825
34.826
34.83
34.837
34.848
34.863
34.882
34.904
34.927
34.947
34.964
34.981
34.999
35.021
35.051
35.091
35.143
35.206
35.281
35.365
35.455
35.551
35.649
35.748
35.844
35.937
36.024
36.103
36.175
36.237
36.289
36.33
36.362
36.384
36.397
36.402
36.399
36.389
36.373
36.353
36.329
36.303
36.273
36.241
36.207
36.172
36.137
36.104
36.072
36.042
36.016
35.992
35.971
35.953
35.937
35.924
35.914
35.907
35.902
35.899
35.896
35.894
35.891
35.889
35.885
35.88
35.875
35.868
35.861
35.853
35.845
35.836
35.827
35.817
35.808
35.799
35.791
35.782
35.775
35.769
35.764
35.762
35.763
35.764
35.767
35.77
35.773
35.777
35.782
35.787
35.794
35.802
35.81
35.818
35.825
35.829
35.832
35.831
35.827
35.819
35.806
35.788
35.765
35.739
35.711
35.681
35.649
35.617
35.584
35.552
35.522
35.493
35.467
35.445
35.426
35.41
35.398
35.389
35.381
35.373
35.366
35.359
35.351
35.341
35.33
35.316
35.301
35.283
35.261
35.237
35.211
35.183
35.155
35.125
35.095
35.065
35.035
35.007
34.98
34.958
34.938
34.923
34.911
34.903
34.899
34.897
34.896
34.896
34.896
34.895
34.891
34.885
34.876
34.864
34.85
34.834
34.817
34.801
34.786
34.773
34.763
34.758
34.757
34.763
34.778
34.802
34.837
34.884
34.943
35.013
35.095
35.186
35.285
35.39
35.499
35.61
35.72
35.827
35.928
36.021
36.104
36.175
36.235
36.282
36.317
36.34
36.351
36.351
36.341
36.323
36.299
36.27
36.238
36.204
36.17
36.137
36.107
36.079
36.055
36.034
36.017
36.002
35.991
35.983
35.979
35.978
35.98
35.982
35.985
35.986
35.984
35.98
35.972
35.96
35.943
35.924
35.901
35.875
35.847
35.818
35.787
35.756
35.727
35.699
35.675
35.655
35.639
35.628
35.621
35.619
35.623
35.631
35.643
35.659
35.678
35.697
