Trial 3:3back
33.687
33.659
33.631
33.606
33.582
33.56
33.539
33.519
33.5
33.482
33.464
33.446
33.428
33.41
33.392
33.373
33.354
33.335
33.316
33.296
33.277
33.258
33.24
33.223
33.207
33.191
33.176
33.162
33.148
33.136
33.125
33.116
33.11
33.108
33.111
33.121
33.14
33.169
33.213
33.271
33.347
33.441
33.554
33.687
33.837
34.005
34.187
34.381
34.584
34.794
35.005
35.216
35.422
35.62
35.807
35.981
36.14
36.281
36.405
36.51
36.597
36.666
36.717
36.752
36.772
36.778
36.772
36.754
36.727
36.692
36.649
36.6
36.546
36.487
36.425
36.361
36.296
36.231
36.166
36.101
36.038
35.976
35.915
35.856
35.8
35.746
35.694
35.646
35.599
35.556
35.516
35.477
35.441
35.406
35.372
35.34
35.307
35.274
35.24
35.206
35.171
35.137
35.103
35.071
35.04
35.01
34.982
34.954
34.928
34.904
34.883
34.864
34.849
34.837
34.828
34.822
34.819
34.82
34.822
34.827
34.832
34.838
34.844
34.85
34.855
34.861
34.866
34.871
34.876
34.882
34.888
34.894
34.9
34.905
34.909
34.912
34.913
34.911
34.906
34.899
34.889
34.876
34.859
34.839
34.816
34.791
34.765
34.737
34.709
34.68
34.65
34.621
34.591
34.562
34.533
34.505
34.476
34.449
34.422
34.395
34.369
34.343
34.317
34.292
34.266
34.24
34.213
34.186
34.159
34.133
34.106
34.081
34.056
34.032
34.008
33.984
33.96
33.936
33.91
33.884
33.857
33.831
33.804
33.778
33.753
33.728
33.705
33.683
33.662
33.643
33.624
33.607
33.59
33.575
33.559
33.544
33.529
33.514
33.499
33.485
33.471
33.46
33.451
33.446
33.449
33.46
33.484
33.521
33.575
33.646
33.734
33.841
33.966
34.108
34.266
34.438
34.62
34.81
35.005
35.201
35.394
35.582
35.761
35.929
36.082
36.22
36.341
36.444
36.528
36.594
36.642
36.672
36.687
36.688
36.676
36.653
36.621
36.58
36.533
36.481
36.426
36.367
36.307
36.246
36.185
36.124
36.064
36.005
35.948
35.892
35.838
35.785
35.733
35.683
35.634
35.588
35.544
35.502
35.463
35.427
35.394
35.362
35.333
35.304
35.275
35.246
35.217
35.186
35.153
35.12
35.085
35.048
35.012
34.976
34.941
34.908
34.878
34.85
34.826
34.804
34.785
34.768
34.753
34.741
34.732
34.724
34.719
34.716
34.714
34.713
34.713
34.714
34.715
34.718
34.722
34.728
34.734
34.741
34.749
34.755
34.761
34.765
34.767
34.767
34.763
34.755
34.744
34.73
34.712
34.692
34.668
34.643
34.616
34.588
34.559
34.53
34.501
34.472
34.444
34.415
34.387
34.359
34.332
34.306
34.28
34.254
34.228
34.203
34.178
34.152
34.126
34.1
34.072
34.045
34.018
33.991
33.965
33.94
33.916
33.893
33.872
33.852
33.834
33.816
33.8
33.785
33.771
33.756
33.743
33.729
33.715
33.701
33.686
33.669
33.651
33.632
33.613
33.592
33.571
33.55
33.53
33.51
33.491
33.473
33.456
33.441
33.427
33.414
33.405
33.398
33.396
33.4
33.412
33.433
33.465
33.51
33.57
33.646
33.737
33.845
33.968
34.107
34.259
34.424
34.597
34.778
34.962
35.147
35.33
35.507
35.676
35.834
35.98
36.113
36.23
36.33
36.414
36.48
36.529
36.561
36.578
36.581
36.571
36.551
36.521
36.482
36.437
36.386
36.331
36.272
36.211
36.147
36.082
36.016
35.95
35.884
35.819
35.755
35.693
35.632
35.572
35.514
35.458
35.403
35.35
35.3
35.253
35.208
35.166
35.126
35.089
35.053
35.018
34.984
34.952
34.919
34.887
34.855
34.823
34.791
34.76
34.729
34.699
34.671
34.646
34.623
34.604
34.588
34.575
34.567
34.561
34.559
34.559
34.561
34.565
34.57
34.577
34.585
34.595
34.606
34.617
34.627
34.638
34.648
34.658
34.667
34.675
34.683
34.691
34.697
34.701
34.703
34.702
34.699
34.693
34.685
34.676
34.665
34.652
34.638
34.622
34.604
34.583
34.562
34.538
34.513
34.487
34.461
34.434
34.407
34.379
34.351
34.323
34.294
34.265
34.235
34.206
34.177
34.149
34.122
34.097
34.074
34.053
34.034
34.017
34.0
33.985
33.969
33.954
33.938
33.921
33.904
33.886
33.868
33.851
33.834
33.818
33.802
33.786
33.77
33.754
33.737
33.72
33.703
33.685
33.666
33.647
33.627
33.607
33.588
33.571
33.554
33.539
33.527
33.516
33.507
33.503
33.504
33.511
33.528
33.555
33.595
33.65
33.72
33.808
33.912
34.033
34.17
34.322
34.487
34.661
34.841
35.025
35.208
35.388
35.562
35.727
35.88
36.02
36.145
36.254
36.346
36.42
36.478
36.519
36.545
36.557
36.556
36.543
36.52
36.487
36.448
36.402
36.35
36.294
36.235
36.173
36.108
36.041
35.974
35.906
35.838
35.77
35.703
35.636
35.571
35.508
35.447
35.389
35.333
35.28
35.229
35.182
35.137
35.095
35.056
35.019
34.984
34.95
34.917
34.885
34.853
34.821
34.79
34.759
34.728
34.699
34.671
34.645
34.621
34.599
34.58
34.564
34.552
34.543
34.537
34.536
34.539
34.545
34.556
34.569
34.584
34.601
34.62
34.639
34.658
34.677
34.695
34.712
34.727
34.74
34.751
34.759
34.766
34.77
34.773
34.773
34.771
34.766
34.76
34.751
34.739
34.725
34.708
34.689
34.668
34.645
34.621
34.595
34.57
34.544
34.517
34.49
34.463
34.436
34.408
34.381
34.355
34.33
34.305
34.282
34.259
34.236
34.213
34.19
34.167
34.144
34.121
34.098
34.075
34.053
34.031
34.01
33.989
33.97
33.953
33.937
33.922
33.909
33.897
33.885
33.873
33.86
33.847
33.834
33.819
33.803
33.787
33.77
33.753
33.735
33.719
33.702
33.686
33.669
33.652
33.635
33.618
33.601
33.585
33.57
33.557
33.547
33.54
33.54
33.547
33.564
33.593
33.637
33.697
33.775
33.871
33.986
34.119
34.269
34.433
34.609
34.794
34.986
35.181
35.376
35.569
35.758
35.94
36.113
36.276
36.426
36.562
36.682
36.786
36.872
36.941
36.994
37.03
37.051
37.059
37.054
37.038
37.012
36.979
36.94
36.895
36.845
36.791
36.734
36.675
36.615
36.554
36.494
36.435
36.377
36.321
36.267
36.216
36.166
36.119
36.074
36.032
35.991
35.952
35.914
35.877
35.84
35.803
35.767
35.73
35.694
35.658
35.624
35.59
35.558
35.526
35.494
35.464
35.434
35.405
35.377
35.352
35.329
35.308
35.291
35.277
35.267
35.26
35.257
35.257
35.259
35.263
35.268
35.273
35.278
35.283
35.288
35.293
35.298
35.305
35.313
35.323
35.335
35.347
35.36
35.372
35.384
35.393
35.4
35.405
35.406
35.404
35.399
35.391
35.38
35.367
35.35
35.331
35.31
35.286
35.261
35.235
35.209
35.182
35.156
35.131
35.106
35.081
35.056
35.031
35.004
34.977
34.948
34.917
34.886
34.853
34.821
34.788
34.757
34.727
34.7
34.674
34.65
34.627
34.605
34.584
34.562
34.54
34.517
34.495
34.472
34.449
34.427
34.406
34.386
34.367
34.349
34.333
34.319
34.305
34.292
34.28
34.267
34.253
34.239
34.223
34.207
34.189
34.172
34.154
34.136
34.12
34.104
34.09
34.077
34.064
34.052
34.04
34.027
34.014
34.001
33.99
33.981
33.976
33.976
33.985
34.004
34.036
34.084
34.149
34.232
34.336
34.46
34.603
34.763
34.94
35.13
35.33
35.536
35.747
35.959
36.168
36.373
36.57
36.757
36.933
37.096
37.245
37.379
37.497
37.599
37.685
37.756
37.813
37.856
37.885
37.902
37.906
37.899
37.88
37.852
37.815
37.771
37.721
37.666
37.606
37.545
37.481
37.417
37.354
37.291
37.231
37.173
37.12
37.07
37.024
36.982
36.942
36.905
36.869
36.835
36.801
36.768
36.734
36.7
36.666
36.632
36.598
36.565
36.53
36.496
36.461
36.426
36.39
36.354
36.317
36.28
36.243
36.208
36.174
36.142
36.114
36.09
36.069
36.053
36.041
36.032
36.027
36.025
36.026
36.028
36.033
36.04
36.049
36.059
36.071
36.084
36.096
36.109
36.122
36.133
36.143
36.151
36.156
36.158
36.158
36.155
36.149
36.141
36.131
36.118
36.103
36.085
36.066
36.045
36.022
35.996
35.968
35.939
35.907
35.874
35.839
35.802
35.764
35.725
35.684
35.644
35.604
35.564
35.525
35.486
35.449
35.414
35.379
35.345
35.312
35.279
35.247
35.214
35.18
35.147
35.114
35.081
35.05
35.019
34.989
34.96
34.932
34.904
34.876
34.849
34.822
34.795
34.768
34.74
34.711
34.682
34.651
34.62
34.588
34.557
34.526
34.497
34.469
34.443
34.419
34.398
34.378
34.361
34.345
34.329
34.314
34.299
34.283
34.266
34.248
34.23
34.213
34.197
34.184
34.176
34.174
34.181
34.198
34.229
34.275
34.338
34.421
34.524
34.648
34.792
34.955
35.135
35.33
35.536
35.751
35.972
36.195
36.418
36.637
36.85
37.056
37.25
37.432
37.601
37.754
37.892
38.013
38.117
38.204
38.273
38.326
38.361
38.381
38.386
38.378
38.358
38.327
38.287
38.239
38.185
38.126
38.063
37.996
37.929
37.86
37.792
37.724
37.656
37.59
37.527
37.465
37.406
37.349
37.295
37.243
37.194
37.148
37.104
37.061
37.021
36.98
36.94
36.9
36.859
36.817
36.774
36.73
36.685
36.64
36.595
36.551
36.508
36.469
36.432
36.399
36.369
36.342
36.319
36.299
36.282
36.267
36.255
36.246
36.238
36.234
36.231
36.231
36.232
36.236
36.242
36.25
36.26
36.271
36.283
36.296
36.309
36.321
36.333
36.343
36.35
36.356
36.359
36.36
36.358
36.354
36.347
36.338
36.326
36.31
36.291
36.27
36.245
36.217
36.186
36.153
36.117
36.08
36.041
36.001
35.961
35.92
35.878
35.837
35.797
35.756
35.716
35.677
35.637
35.597
35.557
35.517
35.478
35.439
35.4
35.362
35.324
35.287
35.249
35.212
35.174
35.137
35.1
35.063
35.028
34.993
34.959
34.926
34.893
34.861
34.828
34.795
34.761
34.727
34.693
34.659
34.626
34.595
34.564
34.535
34.507
34.479
34.452
34.423
34.395
34.367
34.339
34.314
34.291
34.271
34.257
34.249
34.249
34.259
34.281
34.318
34.372
34.445
34.537
34.65
34.784
34.938
35.111
35.301
35.506
35.722
35.947
36.178
36.411
36.642
36.87
37.089
37.299
37.496
37.678
37.845
37.996
38.128
38.243
38.338
38.416
38.475
38.516
38.541
38.552
38.549
38.533
38.507
38.472
38.43
38.381
38.327
38.268
38.206
38.141
38.074
38.006
37.938
37.87
37.802
37.735
37.67
37.606
37.543
37.481
37.42
37.359
37.298
37.238
37.178
37.118
37.058
36.997
36.935
36.873
36.809
36.744
36.679
36.615
36.552
36.49
36.431
36.375
36.322
36.274
36.23
36.191
36.156
36.127
36.103
36.084
36.069
36.06
36.056
36.056
36.06
36.068
36.079
36.094
36.112
36.131
36.152
36.173
36.193
36.212
36.229
36.244
36.257
36.267
36.275
36.281
36.284
36.284
36.281
36.274
36.263
36.249
36.23
36.207
36.181
36.151
36.118
36.084
36.048
36.012
35.975
35.938
35.901
35.865
35.829
35.793
35.757
35.72
35.683
35.645
35.607
35.568
35.528
35.488
35.446
35.403
35.359
35.314
35.269
35.224
35.179
35.134
35.091
35.047
35.005
34.963
34.921
34.88
34.84
34.8
34.761
34.722
34.686
34.651
34.617
34.584
34.552
34.52
34.488
34.457
34.426
34.395
34.364
34.333
34.302
34.271
34.24
34.21
34.181
34.153
34.129
34.11
34.098
34.096
34.107
34.133
34.177
34.24
34.325
34.433
34.564
34.717
34.89
35.082
35.292
35.515
35.751
35.995
36.242
36.49
36.734
36.971
37.198
37.412
37.611
37.793
37.957
38.103
38.229
38.336
38.425
38.496
38.551
38.589
38.613
38.622
38.618
38.601
38.573
38.535
38.487
38.432
38.37
38.302
38.23
38.153
38.074
37.993
37.912
37.831
37.751
37.673
37.596
37.522
37.449
37.378
37.309
37.242
37.176
37.112
37.049
36.986
36.925
36.863
36.801
36.739
36.675
36.61
36.545
36.478
36.412
36.346
36.283
36.222
36.164
36.112
36.064
36.022
35.987
35.958
35.935
35.918
35.905
35.897
35.893
35.892
35.894
35.898
35.903
35.91
35.918
35.926
35.936
35.947
35.958
35.969
35.981
35.992
36.002
36.011
36.017
36.021
36.021
36.018
36.011
36.001
35.987
35.97
35.951
35.929
35.906
35.88
35.852
35.822
35.79
35.755
35.718
35.679
35.638
35.596
35.552
35.507
35.461
35.413
35.366
35.318
35.27
35.223
35.175
35.128
35.081
35.035
34.99
34.946
34.903
34.861
34.82
34.78
34.74
34.701
34.662
34.623
34.584
34.546
34.508
34.47
34.433
34.396
34.36
34.324
34.288
34.253
34.219
34.186
34.155
34.124
34.095
34.066
34.038
34.012
33.986
33.961
33.936
33.912
33.889
33.866
33.845
33.825
33.808
33.796
33.79
33.793
33.808
33.838
33.884
33.949
34.035
34.143
34.276
34.432
34.611
34.812
35.033
35.272
35.524
35.788
36.058
36.331
36.604
36.872
37.132
37.382
37.618
37.838
38.042
38.226
38.39
38.534
38.657
38.761
38.845
38.909
38.955
38.984
38.996
38.993
38.978
38.95
38.913
38.867
38.814
38.756
38.692
38.626
38.556
38.486
38.415
38.345
38.275
38.204
38.134
38.064
37.994
37.926
37.858
37.793
37.729
37.666
37.606
37.546
37.488
37.431
37.374
37.317
37.258
37.199
37.138
37.076
37.014
36.951
36.887
36.824
36.761
36.701
36.643
36.589
36.539
36.493
36.453
36.417
36.387
36.361
36.339
36.322
36.308
36.297
36.29
36.284
36.281
36.28
36.282
36.285
36.29
36.296
36.302
36.309
36.314
36.319
36.322
36.323
36.322
36.319
36.315
36.308
36.297
36.284
36.268
36.249
36.226
36.201
36.173
36.143
36.111
36.077
36.04
36.001
35.961
35.919
35.876
35.833
35.788
35.743
35.697
35.651
35.606
35.561
35.516
35.471
35.425
35.38
35.333
35.286
35.239
35.191
35.143
35.096
35.048
35.002
34.955
34.91
34.865
34.82
34.776
34.733
34.69
34.647
34.604
34.563
34.522
34.483
34.445
34.41
34.377
34.345
34.315
34.285
34.256
34.228
34.199
34.171
34.142
34.113
34.084
34.054
34.023
33.993
33.963
33.934
33.907
33.883
33.864
33.852
33.849
33.857
33.879
33.917
33.975
34.054
34.157
34.283
34.435
34.61
34.809
35.029
35.268
35.522
35.788
36.062
36.34
36.619
36.894
37.162
37.419
37.663
37.89
38.1
38.289
38.459
38.607
38.735
38.843
38.931
39.0
39.051
39.084
39.1
39.101
39.088
39.061
39.023
38.975
38.919
38.855
38.786
38.712
38.635
38.555
38.475
38.394
38.313
38.234
38.157
38.081
38.007
37.935
37.865
37.797
37.73
37.664
37.6
37.537
37.476
37.416
37.355
37.294
37.233
37.171
37.109
37.046
36.982
36.919
36.856
36.793
36.732
36.673
36.615
36.561
36.509
36.46
36.415
36.373
36.336
36.304
36.275
36.252
36.233
36.219
36.21
36.205
36.203
36.204
36.207
36.212
36.216
36.22
36.223
36.224
36.223
36.221
36.215
36.208
36.199
36.188
36.174
36.159
36.141
36.122
36.101
36.077
36.052
36.025
35.997
35.966
35.934
35.898
35.859
35.818
35.774
35.728
35.681
35.633
35.584
35.535
35.486
35.438
35.39
35.344
35.298
35.252
35.207
35.162
35.117
35.071
35.024
34.976
34.928
34.88
34.832
34.784
34.736
34.689
34.643
34.597
34.554
34.511
34.471
34.431
34.394
34.357
34.321
34.286
34.25
34.214
34.179
34.144
34.109
34.075
34.042
34.01
33.978
33.947
33.916
33.886
33.856
33.827
33.798
33.771
33.745
33.723
33.705
33.695
33.694
33.706
33.733
33.778
33.843
33.93
34.041
34.175
34.333
34.513
34.714
34.934
35.17
35.419
35.679
35.944
36.212
36.478
36.74
36.993
37.234
37.459
37.668
37.857
38.026
38.174
38.301
38.409
38.496
38.563
38.613
38.644
38.658
38.656
38.639
38.608
38.565
38.512
38.452
38.384
38.311
38.235
38.155
38.074
37.992
37.911
37.83
37.75
37.673
37.597
37.523
37.45
37.379
37.309
37.24
37.172
37.104
37.036
36.968
36.9
36.832
36.763
36.694
36.624
36.555
36.485
36.416
36.347
36.279
36.212
36.148
36.085
36.024
35.967
35.913
35.863
35.818
35.779
35.745
35.718
35.696
35.681
35.671
35.666
35.665
35.668
35.674
35.683
35.694
35.706
35.718
35.729
35.739
35.746
35.751
35.753
35.752
35.748
35.74
35.73
35.717
35.703
35.688
35.671
35.653
35.634
35.612
35.589
35.563
35.535
35.503
35.469
35.431
35.39
35.347
35.303
35.256
35.207
35.158
35.107
35.055
35.003
34.952
34.9
34.849
34.799
34.749
34.7
34.651
34.603
34.555
34.508
34.462
34.417
34.373
34.33
34.288
34.247
34.206
34.166
34.126
34.086
34.046
34.007
33.969
33.932
33.896
33.861
33.825
33.789
33.753
33.717
33.682
33.647
33.613
33.58
33.548
33.518
33.488
33.459
33.43
33.402
33.374
33.347
33.322
33.3
33.283
33.273
33.272
33.284
33.311
33.355
33.417
33.5
33.604
33.73
33.878
34.046
34.233
34.439
34.659
34.893
35.138
35.389
35.644
35.899
36.15
36.393
36.625
36.844
37.047
37.231
37.395
37.539
37.661
37.761
37.84
37.898
37.934
37.951
37.951
37.934
37.904
37.863
37.811
37.752
37.686
37.615
37.54
37.461
37.38
37.296
37.212
37.127
37.041
36.956
36.871
36.788
36.706
36.625
36.546
36.469
36.393
36.32
36.247
36.176
36.106
36.038
35.969
35.902
35.833
35.765
35.697
35.63
35.565
35.502
35.441
35.384
35.331
35.282
35.237
35.197
35.162
35.132
35.107
35.087
35.071
35.06
35.054
35.051
35.053
35.057
35.065
35.076
35.088
35.102
35.117
35.131
35.146
35.16
35.173
35.184
35.193
35.2
35.204
35.205
35.203
35.198
35.189
35.177
35.16
35.14
35.117
35.091
35.061
35.03
34.996
34.961
34.924
34.886
34.848
34.81
34.772
34.734
34.694
34.655
34.614
34.572
34.53
34.487
34.445
34.402
34.36
34.318
34.276
34.234
34.193
34.153
34.113
34.074
34.036
33.997
33.957
33.915
33.873
33.829
33.785
33.741
33.696
33.652
33.609
33.568
33.529
33.492
33.458
33.426
33.397
33.369
33.343
33.319
33.295
33.273
33.251
33.23
33.21
33.19
33.17
33.149
33.128
33.105
33.083
33.06
33.039
33.018
32.998
32.981
32.967
32.96
32.961
32.971
32.994
33.031
33.085
33.158
33.252
33.369
33.508
33.67
33.853
34.057
34.279
34.516
34.767
35.026
35.29
35.556
35.82
36.077
36.324
36.559
36.779
36.983
37.168
37.333
37.479
37.603
37.707
37.79
37.853
37.897
37.924
37.935
37.933
37.918
37.893
37.858
37.815
37.765
37.708
37.647
37.581
37.511
37.439
37.365
37.289
37.212
37.135
37.058
36.983
36.909
36.838
36.768
36.701
36.635
36.572
36.51
36.449
36.39
36.331
36.272
36.213
36.155
36.096
36.037
35.979
35.921
35.863
35.808
35.754
35.702
35.653
35.606
35.562
35.521
35.484
35.45
35.419
35.392
35.368
35.348
35.333
35.32
35.311
35.305
35.302
35.301
35.303
35.307
35.313
35.32
35.329
35.34
35.351
35.363
35.373
35.383
35.39
35.395
35.396
35.394
35.388
35.378
35.364
35.348
35.328
35.305
35.28
35.253
35.223
35.191
35.157
35.122
35.085
35.047
35.007
34.966
34.924
34.881
34.837
34.793
34.749
34.705
34.66
34.616
34.572
34.528
34.486
34.443
34.402
34.362
34.322
34.282
34.243
34.203
34.164
34.125
34.086
34.048
34.01
33.973
33.935
33.898
33.861
33.825
33.788
33.752
33.715
33.68
33.645
33.612
33.581
33.552
33.526
33.502
33.479
33.458
33.438
33.418
33.398
33.378
33.358
33.337
33.315
33.293
33.27
33.247
33.224
33.2
33.177
33.154
33.132
33.11
33.089
33.069
33.05
33.035
33.022
33.014
33.011
33.016
33.031
33.057
33.099
33.158
33.236
33.337
33.46
33.605
33.774
33.963
34.173
34.401
34.643
34.898
35.16
35.426
35.692
35.954
36.21
36.455
36.687
36.904
37.104
37.286
37.448
37.59
37.712
37.813
37.895
37.957
38.002
38.029
38.041
38.038
38.022
37.994
37.955
37.907
37.85
37.787
37.719
37.647
37.572
37.497
37.42
37.344
37.268
37.193
37.12
37.047
36.976
36.907
36.84
36.775
36.713
36.653
36.594
36.537
36.482
36.428
36.375
36.323
36.272
36.22
36.169
36.117
36.064
36.01
35.955
35.899
35.844
35.79
35.739
35.692
35.648
35.609
35.574
35.543
35.516
35.493
35.473
35.455
35.44
35.427
35.417
35.41
35.406
35.405
35.405
35.408
35.412
35.416
35.422
35.427
35.432
35.437
35.44
35.442
35.442
35.441
35.437
35.431
35.422
35.41
35.395
35.377
35.355
35.33
35.302
35.271
35.238
35.203
35.167
35.13
35.091
35.052
35.013
34.974
34.934
34.893
34.853
34.812
34.771
34.729
34.686
34.643
34.599
34.556
34.513
34.47
34.426
34.382
34.338
34.293
34.248
34.203
34.16
34.117
