Trial 3:3back
37.934
37.871
37.808
37.746
37.684
37.623
37.563
37.505
37.447
37.389
37.334
37.28
37.228
37.178
37.132
37.086
37.041
36.995
36.948
36.899
36.849
36.799
36.747
36.695
36.642
36.59
36.541
36.494
36.452
36.416
36.386
36.363
36.346
36.333
36.326
36.321
36.318
36.315
36.31
36.302
36.291
36.276
36.257
36.236
36.212
36.186
36.159
36.131
36.102
36.071
36.037
36.002
35.965
35.926
35.883
35.837
35.787
35.734
35.678
35.62
35.561
35.503
35.447
35.393
35.34
35.29
35.242
35.197
35.153
35.112
35.071
35.031
34.991
34.954
34.925
34.91
34.91
34.922
34.942
34.965
34.986
35.001
35.006
34.998
34.976
34.939
34.888
34.825
34.753
34.673
34.587
34.5
34.412
34.326
34.244
34.165
34.091
34.024
33.963
33.908
33.858
33.813
33.773
33.738
33.708
33.682
33.659
33.638
33.62
33.603
33.587
33.572
33.559
33.547
33.537
33.527
33.517
33.506
33.495
33.482
33.467
33.451
33.432
33.411
33.387
33.36
33.331
33.3
33.269
33.239
33.21
33.183
33.158
33.136
33.118
33.106
33.1
33.102
33.115
33.139
33.174
33.222
33.282
33.354
33.439
33.537
33.647
33.771
33.91
34.065
34.236
34.422
34.622
34.836
35.062
35.299
35.546
35.801
36.061
36.321
36.577
36.825
37.058
37.273
37.466
37.635
37.778
37.895
37.986
38.052
38.093
38.112
38.108
38.085
38.046
37.994
37.932
37.864
37.792
37.719
37.646
37.576
37.51
37.448
37.391
37.339
37.293
37.252
37.216
37.181
37.148
37.113
37.076
37.036
36.993
36.946
36.896
36.844
36.79
36.735
36.679
36.625
36.573
36.523
36.477
36.435
36.397
36.364
36.336
36.31
36.286
36.262
36.239
36.216
36.193
36.169
36.145
36.122
36.099
36.076
36.054
36.035
36.017
36.001
35.984
35.967
35.949
35.928
35.904
35.877
35.847
35.814
35.778
35.741
35.703
35.666
35.629
35.593
35.557
35.521
35.486
35.449
35.412
35.374
35.335
35.295
35.253
35.209
35.163
35.116
35.07
35.024
34.98
34.937
34.895
34.855
34.816
34.78
34.744
34.71
34.678
34.647
34.618
34.59
34.563
34.537
34.512
34.486
34.459
34.43
34.399
34.366
34.331
34.293
34.253
34.21
34.165
34.12
34.074
34.027
33.982
33.938
33.896
33.854
33.814
33.773
33.734
33.697
33.662
33.63
33.6
33.575
33.554
33.537
33.523
33.512
33.503
33.496
33.489
33.483
33.476
33.469
33.46
33.448
33.433
33.416
33.397
33.377
33.355
33.331
33.305
33.277
33.249
33.219
33.191
33.164
33.141
33.124
33.115
33.115
33.126
33.15
33.188
33.242
33.312
33.399
33.503
33.625
33.763
33.917
34.086
34.268
34.463
34.667
34.879
35.097
35.318
35.541
35.764
35.985
36.203
36.416
36.622
36.818
37.003
37.172
37.325
37.46
37.576
37.672
37.749
37.807
37.845
37.865
37.868
37.854
37.825
37.782
37.728
37.667
37.6
37.529
37.458
37.387
37.318
37.253
37.191
37.135
37.082
37.033
36.988
36.944
36.9
36.855
36.81
36.766
36.722
36.68
36.639
36.6
36.563
36.528
36.494
36.462
36.43
36.399
36.368
36.338
36.308
36.279
36.25
36.222
36.196
36.169
36.143
36.119
36.098
36.081
36.067
36.056
36.047
36.039
36.031
36.022
36.009
35.995
35.978
35.959
35.938
35.916
35.893
35.87
35.845
35.82
35.794
35.766
35.737
35.71
35.683
35.658
35.634
35.608
35.582
35.555
35.526
35.496
35.465
35.433
35.401
35.37
35.339
35.308
35.28
35.253
35.228
35.206
35.185
35.168
35.153
35.14
35.128
35.115
35.101
35.087
35.077
35.074
35.076
35.081
35.086
35.089
35.086
35.075
35.055
35.025
34.987
34.941
34.887
34.827
34.761
34.692
34.619
34.544
34.468
34.391
34.316
34.242
34.17
34.099
34.032
33.969
33.91
33.857
33.809
33.765
33.724
33.685
33.646
33.607
33.567
33.525
33.482
33.437
33.391
33.344
33.296
33.247
33.198
33.148
33.097
33.045
32.994
32.942
32.892
32.843
32.796
32.754
32.716
32.685
32.662
32.646
32.639
32.642
32.656
32.681
32.717
32.766
32.829
32.905
32.995
33.1
33.218
33.349
33.491
33.644
33.805
33.972
34.146
34.324
34.504
34.687
34.871
35.055
35.238
35.416
35.589
35.757
35.921
36.082
36.241
36.396
36.546
36.69
36.826
36.951
37.063
37.16
37.241
37.305
37.353
37.384
37.4
37.401
37.39
37.368
37.338
37.3
37.257
37.21
37.16
37.11
37.058
37.008
36.959
36.913
36.871
36.831
36.794
36.759
36.726
36.693
36.661
36.627
36.592
36.555
36.515
36.471
36.426
36.378
36.33
36.281
36.233
36.186
36.141
36.098
36.057
36.018
35.981
35.946
35.914
35.886
35.861
35.838
35.817
35.797
35.776
35.754
35.731
35.704
35.675
35.645
35.616
35.586
35.557
35.528
35.499
35.47
35.441
35.411
35.381
35.351
35.323
35.296
35.269
35.24
35.209
35.178
35.145
35.112
35.076
35.04
35.002
34.962
34.921
34.878
34.833
34.787
34.741
34.695
34.652
34.61
34.572
34.538
34.507
34.478
34.45
34.423
34.395
34.368
34.339
34.309
34.277
34.244
34.21
34.177
34.145
34.115
34.086
34.059
34.031
34.003
33.974
33.945
33.917
33.891
33.866
33.845
33.825
33.807
33.79
33.774
33.757
33.739
33.719
33.698
33.673
33.645
33.615
33.583
33.55
33.516
33.482
33.448
33.417
33.388
33.361
33.335
33.31
33.287
33.266
33.246
33.229
33.212
33.197
33.183
33.171
33.16
33.15
33.141
33.134
33.128
33.125
33.124
33.127
33.135
33.15
33.172
33.203
33.242
33.292
33.354
33.428
33.515
33.617
33.734
33.869
34.021
34.193
34.384
34.597
34.831
35.085
35.357
35.643
35.938
36.236
36.531
36.817
37.087
37.337
37.562
37.759
37.926
38.062
38.166
38.239
38.283
38.302
38.297
38.271
38.23
38.176
38.114
38.045
37.972
37.897
37.823
37.75
37.682
37.617
37.557
37.501
37.449
37.399
37.351
37.302
37.254
37.204
37.152
37.097
37.039
36.977
36.912
36.845
36.777
36.709
36.641
36.574
36.508
36.445
36.381
36.317
36.253
36.191
36.13
36.074
36.02
35.971
35.926
35.886
35.851
35.82
35.794
35.773
35.756
35.743
35.731
35.721
35.713
35.705
35.697
35.689
35.68
35.67
35.659
35.648
35.635
35.621
35.604
35.586
35.565
35.542
35.518
35.492
35.466
35.438
35.408
35.375
35.341
35.305
35.268
35.229
35.188
35.145
35.1
35.053
35.004
34.955
34.904
34.852
34.8
34.747
34.695
34.642
34.591
34.541
34.494
34.449
34.408
34.369
34.334
34.302
34.272
34.242
34.212
34.182
34.151
34.121
34.091
34.062
34.033
34.004
33.975
33.946
33.916
33.886
33.857
33.829
33.803
33.777
33.751
33.725
33.698
33.67
33.64
33.609
33.578
33.547
33.516
33.484
33.451
33.419
33.386
33.355
33.324
33.296
33.272
33.25
33.23
33.211
33.192
33.173
33.154
33.136
33.117
33.099
33.084
33.07
33.06
33.053
33.05
33.055
33.069
33.093
33.128
33.174
33.23
33.3
33.384
33.482
33.597
33.73
33.882
34.052
34.242
34.452
34.681
34.929
35.196
35.481
35.78
36.088
36.401
36.711
37.011
37.294
37.553
37.784
37.984
38.152
38.286
38.388
38.46
38.505
38.524
38.521
38.498
38.456
38.401
38.336
38.264
38.188
38.112
38.038
37.966
37.899
37.835
37.773
37.714
37.657
37.601
37.547
37.494
37.44
37.386
37.332
37.275
37.217
37.159
37.099
37.04
36.981
36.923
36.866
36.812
36.762
36.713
36.667
36.623
36.581
36.54
36.5
36.46
36.42
36.38
36.339
36.299
36.259
36.219
36.182
36.147
36.117
36.091
36.069
36.051
36.036
36.024
36.012
36.0
35.986
35.971
35.953
35.935
35.914
35.892
35.868
35.846
35.824
35.803
35.783
35.764
35.745
35.724
35.701
35.673
35.641
35.602
35.559
35.51
35.456
35.397
35.335
35.271
35.206
35.141
35.076
35.012
34.95
34.89
34.834
34.781
34.73
34.68
34.631
34.583
34.535
34.488
34.442
34.399
34.359
34.321
34.286
34.252
34.222
34.193
34.166
34.141
34.118
34.097
34.078
34.061
34.045
34.03
34.014
33.997
33.978
33.956
33.931
33.901
33.868
33.831
33.79
33.746
33.7
33.652
33.605
33.558
33.513
33.471
33.433
33.4
33.372
33.347
33.326
33.309
33.295
33.285
33.278
33.272
33.267
33.262
33.257
33.249
33.239
33.227
33.213
33.198
33.183
33.168
33.157
33.149
33.147
33.152
33.164
33.187
33.221
33.268
33.329
33.403
33.491
33.593
33.707
33.836
33.978
34.134
34.304
34.488
34.685
34.893
35.111
35.338
35.572
35.813
36.057
36.303
36.545
36.781
37.007
37.216
37.406
37.574
37.719
37.841
37.94
38.016
38.07
38.102
38.114
38.107
38.081
38.04
37.984
37.917
37.842
37.762
37.68
37.599
37.52
37.445
37.374
37.308
37.246
37.189
37.136
37.087
37.04
36.996
36.951
36.907
36.861
36.811
36.76
36.706
36.652
36.599
36.546
36.494
36.443
36.393
36.345
36.297
36.251
36.206
36.164
36.123
36.086
36.051
36.019
35.989
35.962
35.937
35.914
35.893
35.874
35.857
35.84
35.817
35.785
35.745
35.7
35.652
35.603
35.557
35.516
35.48
35.452
35.431
35.416
35.404
35.396
35.39
35.385
35.379
35.371
35.36
35.345
35.326
35.301
35.273
35.24
35.204
35.167
35.129
35.091
35.052
35.013
34.973
34.931
34.889
34.844
34.799
34.753
34.705
34.657
34.609
34.56
34.513
34.468
34.425
34.385
34.347
34.312
34.279
34.249
34.22
34.194
34.168
34.144
34.121
34.098
34.075
34.053
34.03
34.006
33.979
33.949
33.915
33.878
33.837
33.792
33.743
33.692
33.641
33.589
33.539
33.492
33.449
33.41
33.376
33.348
33.326
33.309
33.298
33.293
33.292
33.295
33.3
33.307
33.314
33.319
33.322
33.321
33.316
33.307
33.293
33.274
33.251
33.222
33.191
33.158
33.126
33.094
33.067
33.044
33.029
33.023
33.029
33.049
33.084
33.137
33.208
33.296
33.403
33.527
33.669
33.828
34.005
34.198
34.41
34.64
34.891
35.164
35.461
35.781
36.122
36.478
36.844
37.21
37.57
37.914
38.234
38.524
38.778
38.99
39.16
39.286
39.371
39.415
39.423
39.399
39.349
39.278
39.189
39.09
38.983
38.874
38.765
38.659
38.556
38.458
38.364
38.275
38.189
38.106
38.026
37.947
37.871
37.798
37.725
37.654
37.582
37.508
37.431
37.352
37.271
37.19
37.109
37.03
36.953
36.877
36.802
36.727
36.655
36.584
36.517
36.453
36.395
36.342
36.295
36.253
36.215
36.178
36.144
36.111
36.08
36.05
36.021
35.993
35.966
35.94
35.913
35.886
35.859
35.834
35.81
35.788
35.765
35.743
35.719
35.693
35.666
35.637
35.605
35.57
35.534
35.496
35.457
35.417
35.376
35.335
35.293
35.251
35.208
35.165
35.124
35.084
35.045
35.006
34.968
34.93
34.893
34.856
34.818
34.782
34.747
34.712
34.676
34.64
34.603
34.566
34.53
34.494
34.46
34.427
34.395
34.365
34.336
34.31
34.285
34.263
34.242
34.221
34.2
34.177
34.152
34.122
34.089
34.051
34.01
33.967
33.922
33.878
33.834
33.792
33.752
33.714
33.68
33.648
33.619
33.592
33.568
33.545
33.524
33.504
33.485
33.465
33.444
33.42
33.394
33.365
33.334
33.3
33.264
33.226
33.186
33.146
33.105
33.066
33.027
32.99
32.953
32.917
32.883
32.85
32.819
32.79
32.765
32.745
32.73
32.72
32.716
32.718
32.727
32.743
32.765
32.795
32.834
32.881
32.939
33.007
33.087
33.18
33.287
33.407
33.541
33.689
33.852
34.029
34.224
34.436
34.667
34.92
35.192
35.482
35.784
36.096
36.411
36.724
37.025
37.306
37.56
37.78
37.963
38.106
38.209
38.274
38.302
38.298
38.267
38.215
38.145
38.062
37.971
37.876
37.781
37.688
37.6
37.518
37.443
37.376
37.317
37.264
37.217
37.176
37.139
37.105
37.073
37.042
37.011
36.979
36.945
36.91
36.872
36.831
36.786
36.739
36.69
36.637
36.582
36.525
36.466
36.407
36.348
36.29
36.235
36.184
36.137
36.095
36.057
36.023
35.992
35.963
35.935
35.906
35.877
35.848
35.818
35.788
35.759
35.73
35.703
35.678
35.655
35.633
35.611
35.592
35.573
35.554
35.534
35.512
35.486
35.458
35.426
35.392
35.356
35.32
35.285
35.252
35.22
35.187
35.153
35.117
35.078
35.038
34.994
34.948
34.901
34.853
34.803
34.754
34.705
34.657
34.611
34.568
34.528
34.489
34.451
34.415
34.38
34.346
34.314
34.283
34.253
34.224
34.196
34.166
34.136
34.103
34.069
34.032
33.995
33.957
33.919
33.882
33.846
33.809
33.772
33.735
33.698
33.661
33.625
33.59
33.555
33.523
33.491
33.46
33.43
33.402
33.377
33.355
33.337
33.321
33.306
33.29
33.275
33.258
33.239
33.219
33.2
33.181
33.162
33.144
33.125
33.106
33.089
33.072
33.057
33.043
33.031
33.019
33.007
32.996
32.982
32.967
32.951
32.933
32.913
32.89
32.866
32.839
32.812
32.785
32.759
32.737
32.722
32.715
32.718
32.732
32.76
32.801
32.858
32.929
33.016
33.117
33.232
33.36
33.499
33.649
33.808
33.975
34.151
34.333
34.52
34.713
34.908
35.106
35.305
35.504
35.702
35.896
36.086
36.269
36.442
36.605
36.753
36.884
36.998
37.092
37.166
37.218
37.249
37.262
37.257
37.235
37.2
37.153
37.097
37.034
36.966
36.895
36.822
36.75
36.679
36.61
36.545
36.483
36.425
36.37
36.318
36.27
36.224
36.178
36.134
36.091
36.047
35.994
35.929
35.852
35.766
35.677
35.587
35.504
35.431
35.372
35.329
35.3
35.285
35.282
35.287
35.299
35.314
35.33
35.345
35.358
35.369
35.375
35.376
35.372
35.364
35.349
35.33
35.306
35.277
35.243
35.206
35.167
35.126
35.087
35.049
35.015
34.985
34.96
34.939
34.923
34.912
34.904
34.899
34.894
34.889
34.883
34.876
34.867
34.856
34.841
34.823
34.801
34.776
34.747
34.713
34.675
34.635
34.591
34.545
34.498
34.449
34.402
34.355
34.311
34.269
34.23
34.194
34.162
34.133
34.105
34.078
34.052
34.025
33.998
33.97
33.941
33.909
33.877
33.844
33.811
33.777
33.745
33.717
33.691
33.67
33.651
33.635
33.62
33.605
33.59
33.573
33.555
33.538
33.521
33.502
33.482
33.46
33.436
33.41
33.382
33.353
33.323
33.292
33.263
33.235
33.208
33.183
33.16
33.14
33.121
33.104
33.088
33.072
33.056
33.039
33.02
33.0
32.98
32.962
32.947
32.936
32.93
32.929
32.935
32.949
32.97
33.0
33.039
33.089
33.151
33.225
33.312
33.413
33.526
33.653
33.791
33.941
34.101
34.272
34.45
34.634
34.822
35.012
35.203
35.396
35.589
35.782
35.974
36.163
36.349
36.529
36.7
36.86
37.005
37.134
37.243
37.331
37.396
37.439
37.461
37.462
37.444
37.408
37.357
37.294
37.224
37.149
37.072
36.994
36.918
36.845
36.774
36.706
36.64
36.576
36.514
36.451
36.389
36.328
36.266
36.203
36.141
36.08
36.02
35.961
35.905
35.852
35.803
35.757
35.715
35.676
35.641
35.61
35.582
35.558
35.538
35.521
35.508
35.497
35.487
35.479
35.471
35.463
35.455
35.447
35.438
35.429
35.419
35.409
35.397
35.384
35.369
35.353
35.334
35.313
35.29
35.263
35.232
35.199
35.163
35.124
35.084
35.044
35.004
34.965
34.928
34.894
34.863
34.835
34.811
34.788
34.767
34.749
34.733
34.719
34.704
34.689
34.673
34.655
34.636
34.615
34.592
34.567
34.54
34.511
34.479
34.444
34.406
34.366
34.322
34.277
34.229
34.181
34.132
34.085
34.04
33.998
33.958
33.92
33.885
33.852
33.82
33.791
33.763
33.739
33.716
33.696
33.677
33.658
33.642
33.626
33.612
33.6
33.587
33.576
33.563
33.55
33.537
33.523
33.508
33.493
33.478
33.461
33.442
33.419
33.395
33.368
33.339
33.309
33.279
33.249
33.222
33.196
33.172
33.149
33.129
33.11
33.096
33.084
33.077
33.075
33.078
33.088
33.108
33.143
33.193
33.26
33.342
33.436
33.539
33.65
33.769
33.895
34.026
34.164
34.31
34.466
34.635
34.816
35.011
35.221
35.446
35.686
35.939
36.2
36.466
36.733
36.994
37.244
37.477
37.688
37.872
38.027
38.152
38.248
38.314
38.353
38.367
38.36
38.333
38.291
38.235
38.168
38.092
38.012
37.928
37.843
37.761
37.683
37.61
37.541
37.476
37.416
37.36
37.309
37.261
37.217
37.174
37.132
37.091
37.049
37.003
36.953
36.899
36.842
36.783
36.721
36.659
36.597
36.537
36.48
36.425
36.374
36.328
36.286
36.25
36.218
36.189
36.163
36.139
36.117
36.094
36.07
36.042
36.014
35.986
35.96
35.938
35.919
35.904
35.892
35.881
35.871
35.861
35.849
35.836
35.822
35.805
35.784
35.76
35.732
35.703
35.671
35.639
35.605
35.572
35.539
35.507
35.475
35.443
35.412
35.382
35.351
35.321
35.29
35.256
35.221
35.183
35.141
35.095
35.046
34.994
34.94
34.884
34.827
34.77
34.713
34.657
34.603
34.553
34.506
34.465
34.43
34.4
34.373
34.35
34.327
34.306
34.285
34.263
34.241
34.218
34.195
34.172
34.149
34.126
34.104
34.082
34.06
34.037
34.012
33.987
33.959
33.93
33.9
33.867
33.833
33.798
33.762
33.724
33.683
33.639
33.591
33.543
33.495
33.451
33.413
33.381
33.357
33.343
33.336
33.337
33.344
33.356
33.37
33.384
33.398
33.409
33.418
33.425
33.429
33.431
33.432
33.435
33.439
33.447
33.46
33.479
33.507
33.545
33.597
33.662
33.745
33.846
33.967
34.109
34.271
34.454
34.655
34.876
35.114
35.367
35.631
35.905
36.186
36.469
36.748
37.02
37.278
37.518
37.737
37.931
38.097
38.233
38.34
38.417
38.465
38.486
38.483
38.459
38.416
38.357
38.285
38.201
38.11
38.015
37.92
37.828
37.74
37.661
37.589
37.524
37.467
37.414
37.365
37.319
37.276
37.233
37.189
37.142
37.092
37.04
36.983
36.923
36.86
36.796
36.732
36.67
36.611
36.556
36.503
36.453
36.406
36.362
36.32
36.281
36.245
36.212
36.182
36.155
36.13
36.109
36.091
36.075
36.062
36.051
36.042
36.032
36.023
36.012
35.998
35.981
35.96
35.938
35.914
35.888
35.862
35.836
35.809
35.783
35.755
35.725
35.694
35.661
35.626
35.59
35.553
35.515
35.475
35.434
35.392
35.347
35.301
35.256
35.213
35.172
35.132
35.093
35.054
35.014
34.976
34.937
34.9
34.863
34.828
34.794
34.761
34.728
34.695
34.662
34.63
34.598
34.567
34.537
34.507
34.477
34.447
34.414
34.38
34.345
34.31
34.274
34.238
34.202
34.167
34.131
34.095
34.059
34.021
33.984
33.948
33.914
33.88
33.849
33.819
33.792
33.768
33.747
33.729
33.713
33.699
33.686
33.674
33.661
33.649
33.636
33.623
33.61
33.596
33.579
33.561
33.54
33.517
33.492
33.466
33.44
33.418
33.399
33.385
33.376
33.374
33.379
33.392
33.413
33.444
33.485
33.539
33.605
33.686
33.781
33.892
34.017
34.158
34.312
34.48
34.658
34.846
35.041
35.24
35.44
35.639
35.834
36.025
36.208
36.383
36.548
36.7
36.84
36.968
37.083
37.185
37.277
37.356
37.425
37.481
37.525
37.557
37.576
37.583
37.579
37.563
37.536
37.498
37.452
37.398
37.337
37.27
37.199
37.126
37.051
36.975
36.898
36.821
36.746
36.673
36.605
36.541
36.482
36.427
36.377
36.331
36.288
36.247
36.207
36.167
36.128
36.089
36.05
36.014
35.979
35.948
35.92
35.895
35.873
35.856
35.841
35.831
35.825
35.822
35.822
35.824
35.827
35.827
35.825
35.819
35.811
35.8
35.786
35.771
35.755
35.737
35.719
35.7
35.681
35.661
35.642
35.624
35.605
35.584
35.562
35.537
35.508
35.476
35.441
35.406
35.373
35.343
35.316
35.292
35.27
35.251
35.233
35.217
35.201
35.186
35.17
35.154
35.136
35.117
35.097
35.076
35.053
35.031
35.008
34.987
34.967
34.947
34.929
34.911
34.892
34.873
34.855
34.839
34.824
34.811
34.798
34.787
34.775
34.765
34.754
34.742
34.729
34.715
34.698
34.677
34.652
34.623
34.59
34.557
34.522
34.486
34.45
34.415
34.38
34.346
34.311
34.276
34.241
34.206
34.17
34.135
34.1
34.065
34.032
34.0
33.967
33.936
33.906
33.878
33.854
33.834
33.819
33.811
33.81
33.818
33.838
33.869
33.915
33.978
34.058
34.157
34.274
34.41
34.567
34.747
34.953
35.188
35.455
35.754
36.083
36.437
36.811
37.195
37.58
37.958
38.318
38.653
38.955
39.219
39.439
39.613
39.741
39.823
39.86
39.858
39.82
39.753
39.663
39.555
39.436
39.311
39.184
39.059
38.937
38.821
38.711
38.608
38.511
38.42
38.334
38.251
38.172
38.094
38.017
37.939
37.861
37.782
37.702
37.622
37.54
37.458
37.375
37.293
37.21
37.127
37.044
36.961
