Trial 3:3back
33.401
33.372
33.343
33.314
33.286
33.258
33.233
33.211
33.196
33.19
33.196
33.217
33.258
33.323
33.415
33.536
33.69
33.875
34.09
34.33
34.59
34.866
35.151
35.438
35.723
35.999
36.264
36.51
36.736
36.936
37.112
37.262
37.386
37.487
37.565
37.623
37.664
37.689
37.702
37.705
37.701
37.692
37.679
37.663
37.644
37.625
37.605
37.586
37.566
37.546
37.525
37.504
37.482
37.457
37.431
37.402
37.372
37.34
37.305
37.27
37.235
37.203
37.174
37.148
37.128
37.111
37.098
37.085
37.071
37.053
37.028
36.993
36.947
36.89
36.821
36.742
36.654
36.559
36.459
36.356
36.251
36.147
36.048
35.954
35.868
35.791
35.724
35.667
35.622
35.586
35.56
35.542
35.531
35.527
35.529
35.534
35.543
35.555
35.57
35.586
35.602
35.618
35.634
35.648
35.658
35.666
35.669
35.669
35.664
35.655
35.639
35.617
35.589
35.555
35.514
35.467
35.415
35.358
35.297
35.234
35.17
35.106
35.042
34.979
34.918
34.859
34.801
34.744
34.688
34.633
34.579
34.526
34.474
34.422
34.371
34.323
34.276
34.232
34.191
34.154
34.121
34.09
34.062
34.036
34.01
33.986
33.963
33.94
33.916
33.892
33.867
33.839
33.808
33.775
33.739
33.702
33.663
33.623
33.582
33.542
33.5
33.459
33.419
33.381
33.346
33.312
33.281
33.251
33.225
33.202
33.184
33.173
33.171
33.182
33.211
33.26
33.334
33.435
33.566
33.729
33.922
34.144
34.391
34.661
34.946
35.242
35.541
35.838
36.125
36.397
36.65
36.881
37.088
37.269
37.424
37.554
37.657
37.737
37.793
37.828
37.846
37.848
37.838
37.819
37.796
37.769
37.741
37.713
37.686
37.661
37.638
37.617
37.596
37.576
37.556
37.535
37.512
37.486
37.457
37.423
37.386
37.344
37.3
37.255
37.21
37.167
37.128
37.093
37.061
37.033
37.01
36.989
36.969
36.948
36.924
36.897
36.864
36.826
36.78
36.725
36.662
36.591
36.513
36.43
36.343
36.253
36.162
36.072
35.984
35.9
35.821
35.748
35.684
35.627
35.579
35.54
35.509
35.487
35.473
35.466
35.466
35.472
35.485
35.505
35.529
35.558
35.588
35.619
35.646
35.669
35.686
35.695
35.696
35.688
35.673
35.649
35.618
35.579
35.533
35.482
35.426
35.367
35.307
35.246
35.185
35.125
35.065
35.005
34.945
34.884
34.822
34.76
34.697
34.634
34.571
34.509
34.447
34.388
34.332
34.279
34.229
34.183
34.143
34.106
34.073
34.042
34.012
33.984
33.955
33.927
33.897
33.868
33.838
33.809
33.78
33.751
33.719
33.687
33.655
33.625
33.597
33.573
33.551
33.531
33.509
33.486
33.461
33.435
33.408
33.38
33.353
33.326
33.298
33.27
33.24
33.21
33.178
33.145
33.109
33.07
33.031
32.99
32.951
32.914
32.883
32.861
32.852
32.86
32.89
32.948
33.039
33.166
33.333
33.539
33.783
34.06
34.366
34.692
35.03
35.371
35.709
36.034
36.341
36.626
36.884
37.113
37.311
37.479
37.617
37.725
37.805
37.861
37.894
37.909
37.908
37.895
37.872
37.84
37.804
37.764
37.721
37.679
37.639
37.603
37.57
37.541
37.518
37.499
37.483
37.471
37.459
37.448
37.436
37.422
37.405
37.384
37.358
37.328
37.294
37.254
37.212
37.168
37.122
37.075
37.029
36.985
36.943
36.902
36.862
36.823
36.783
36.741
36.696
36.646
36.59
36.529
36.462
36.391
36.316
36.24
36.164
36.09
36.02
35.957
35.899
35.849
35.805
35.768
35.737
35.71
35.687
35.668
35.652
35.638
35.625
35.612
35.6
35.589
35.577
35.566
35.555
35.546
35.54
35.537
35.539
35.543
35.551
35.558
35.563
35.564
35.56
35.551
35.534
35.51
35.479
35.442
35.399
35.35
35.295
35.236
35.173
35.106
35.035
34.962
34.885
34.807
34.726
34.645
34.563
34.483
34.406
34.333
34.264
34.201
34.144
34.093
34.048
34.009
33.975
33.946
33.921
33.899
33.879
33.861
33.843
33.825
33.807
33.79
33.772
33.755
33.738
33.723
33.709
33.697
33.686
33.678
33.67
33.662
33.653
33.643
33.631
33.614
33.592
33.564
33.532
33.496
33.457
33.417
33.377
33.339
33.303
33.268
33.234
33.201
33.171
33.144
33.121
33.103
33.091
33.088
33.096
33.122
33.169
33.243
33.348
33.487
33.66
33.868
34.106
34.37
34.656
34.959
35.271
35.588
35.906
36.221
36.527
36.817
37.081
37.313
37.509
37.669
37.791
37.881
37.94
37.973
37.984
37.976
37.953
37.918
37.873
37.821
37.764
37.705
37.644
37.583
37.522
37.462
37.405
37.35
37.296
37.246
37.199
37.158
37.122
37.091
37.066
37.046
37.03
37.016
37.003
36.99
36.975
36.957
36.935
36.907
36.873
36.833
36.786
36.731
36.669
36.6
36.526
36.447
36.365
36.283
36.202
36.123
36.046
35.974
35.905
35.839
35.778
35.721
35.67
35.626
35.587
35.555
35.528
35.507
35.492
35.48
35.47
35.461
35.454
35.447
35.439
35.43
35.419
35.408
35.395
35.381
35.365
35.349
35.332
35.316
35.3
35.284
35.269
35.253
35.236
35.22
35.203
35.187
35.17
35.152
35.132
35.108
35.08
35.045
35.005
34.96
34.912
34.862
34.81
34.757
34.703
34.65
34.596
34.543
34.491
34.439
34.387
34.334
34.281
34.225
34.165
34.104
34.042
33.98
33.918
33.858
33.801
33.747
33.696
33.649
33.604
33.561
33.52
33.481
33.443
33.407
33.371
33.335
33.299
33.265
33.232
33.202
33.174
33.15
33.129
33.114
33.103
33.098
33.098
33.105
33.123
33.155
33.202
33.268
33.354
33.465
33.602
33.767
33.959
34.177
34.419
34.68
34.955
35.238
35.522
35.8
36.067
36.316
36.544
36.747
36.923
37.07
37.19
37.281
37.348
37.39
37.413
37.419
37.414
37.399
37.38
37.359
37.339
37.319
37.3
37.281
37.263
37.244
37.224
37.202
37.176
37.146
37.113
37.077
37.037
36.996
36.952
36.907
36.861
36.814
36.767
36.72
36.674
36.628
36.584
36.54
36.497
36.454
36.412
36.371
36.329
36.288
36.248
36.207
36.166
36.123
36.078
36.03
35.979
35.926
35.87
35.814
35.757
35.7
35.644
35.588
35.532
35.478
35.425
35.375
35.329
35.288
35.251
35.22
35.194
35.174
35.162
35.16
35.168
35.186
35.21
35.238
35.266
35.292
35.313
35.326
35.331
35.327
35.314
35.291
35.26
35.224
35.182
35.138
35.092
35.044
34.997
34.952
34.909
34.868
34.83
34.795
34.76
34.726
34.69
34.652
34.612
34.568
34.521
34.472
34.421
34.369
34.315
34.26
34.204
34.148
34.09
34.03
33.969
33.908
33.847
33.787
33.728
33.67
33.615
33.564
33.518
33.478
33.442
33.41
33.382
33.356
33.332
33.308
33.285
33.26
33.235
33.208
33.18
33.152
33.125
33.101
33.083
33.074
33.077
33.093
33.127
33.18
33.257
33.359
33.489
33.645
33.829
34.04
34.273
34.524
34.789
35.062
35.338
35.611
35.875
36.126
36.362
36.58
36.777
36.949
37.096
37.218
37.313
37.384
37.434
37.465
37.482
37.486
37.481
37.467
37.448
37.425
37.399
37.37
37.341
37.312
37.284
37.258
37.234
37.211
37.187
37.162
37.134
37.104
37.072
37.037
37.0
36.962
36.924
36.886
36.848
36.809
36.771
36.734
36.697
36.66
36.623
36.587
36.551
36.516
36.48
36.442
36.403
36.359
36.312
36.262
36.209
36.153
36.097
36.04
35.984
35.929
35.874
35.82
35.766
35.713
35.662
35.611
35.563
35.515
35.471
35.43
35.393
35.36
35.331
35.308
35.292
35.282
35.278
35.279
35.284
35.293
35.302
35.312
35.322
35.331
35.338
35.342
35.342
35.339
35.33
35.317
35.297
35.273
35.246
35.216
35.183
35.149
35.114
35.077
35.037
34.993
34.945
34.893
34.837
34.776
34.711
34.644
34.576
34.506
34.435
34.364
34.295
34.23
34.169
34.112
34.059
34.009
33.963
33.919
33.877
33.837
33.799
33.764
33.729
33.695
33.661
33.627
33.594
33.562
33.53
33.5
33.473
33.448
33.424
33.403
33.383
33.362
33.34
33.317
33.292
33.266
33.238
33.208
33.179
33.15
33.123
33.1
33.083
33.072
33.068
33.072
33.089
33.12
33.168
33.237
33.33
33.449
33.597
33.773
33.975
34.202
34.451
34.717
34.994
35.277
35.559
35.835
36.098
36.342
36.563
36.759
36.929
37.076
37.205
37.319
37.421
37.508
37.58
37.633
37.669
37.688
37.691
37.679
37.657
37.626
37.589
37.55
37.508
37.467
37.426
37.385
37.345
37.307
37.271
37.236
37.204
37.174
37.147
37.121
37.097
37.074
37.053
37.032
37.011
36.991
36.971
36.95
36.928
36.903
36.875
36.843
36.806
36.765
36.718
36.668
36.614
36.557
36.497
36.435
36.371
36.306
36.24
36.173
36.106
36.04
35.975
35.912
35.851
35.791
35.734
35.679
35.628
35.58
35.536
35.499
35.467
35.442
35.421
35.407
35.397
35.391
35.388
35.387
35.39
35.394
35.399
35.404
35.408
35.411
35.412
35.411
35.407
35.401
35.392
35.381
35.366
35.346
35.323
35.295
35.261
35.22
35.173
35.119
35.058
34.989
34.914
34.834
34.75
34.665
34.578
34.494
34.414
34.338
34.269
34.205
34.146
34.094
34.045
34.001
33.961
33.925
33.892
33.864
33.839
33.817
33.799
33.785
33.773
33.763
33.756
33.749
33.743
33.737
33.727
33.714
33.698
33.678
33.654
33.628
33.598
33.567
33.535
33.504
33.475
33.449
33.425
33.405
33.386
33.369
33.352
33.334
33.313
33.29
33.264
33.235
33.205
33.174
33.143
33.115
33.09
33.071
33.062
33.064
33.08
33.113
33.165
33.24
33.339
33.464
33.616
33.796
34.0
34.227
34.471
34.73
34.998
35.269
35.538
35.798
36.045
36.277
36.489
36.68
36.849
36.995
37.119
37.22
37.299
37.359
37.4
37.425
37.435
37.433
37.422
37.402
37.375
37.344
37.309
37.271
37.232
37.191
37.149
37.108
37.068
37.028
36.989
36.951
36.916
36.881
36.848
36.817
36.788
36.761
36.738
36.717
36.699
36.685
36.675
36.666
36.658
36.649
36.638
36.622
36.601
36.573
36.538
36.496
36.448
36.392
36.332
36.265
36.195
36.121
36.047
35.974
35.903
35.834
35.768
35.705
35.646
35.591
35.539
35.491
35.451
35.417
35.39
35.371
35.358
35.35
35.346
35.347
35.351
35.359
35.37
35.384
35.399
35.415
35.43
35.443
35.451
35.457
35.459
35.457
35.451
35.44
35.425
35.406
35.383
35.356
35.324
35.29
35.252
35.212
35.167
35.117
35.063
35.006
34.946
34.881
34.814
34.745
34.676
34.606
34.538
34.472
34.408
34.348
34.293
34.242
34.196
34.155
34.12
34.089
34.062
34.04
34.019
34.0
33.982
33.965
33.949
33.933
33.918
33.903
33.889
33.874
33.86
33.845
33.829
33.809
33.788
33.765
33.739
33.709
33.675
33.639
33.602
33.564
33.527
33.49
33.455
33.421
33.388
33.356
33.326
33.297
33.269
33.244
33.223
33.209
33.203
33.208
33.227
33.266
33.329
33.417
33.534
33.679
33.852
34.053
34.276
34.517
34.77
35.031
35.295
35.555
35.806
36.043
36.261
36.459
36.633
36.782
36.906
37.006
37.082
37.137
37.173
37.191
37.193
37.182
37.16
37.13
37.093
37.05
37.003
36.953
36.901
36.849
36.795
36.742
36.69
36.641
36.596
36.554
36.517
36.486
36.463
36.447
36.437
36.432
36.43
36.429
36.427
36.423
36.415
36.401
36.383
36.36
36.331
36.296
36.256
36.21
36.158
36.102
36.043
35.979
35.914
35.846
35.778
35.708
35.637
35.567
35.498
35.432
35.371
35.313
35.262
35.218
35.182
35.152
35.13
35.114
35.107
35.107
35.114
35.128
35.146
35.166
35.188
35.209
35.227
35.243
35.254
35.261
35.265
35.266
35.263
35.257
35.248
35.236
35.222
35.204
35.181
35.152
35.119
35.082
35.04
34.995
34.946
34.896
34.846
34.795
34.745
34.698
34.657
34.624
34.597
34.576
34.556
34.534
34.509
34.479
34.442
34.398
34.347
34.292
34.234
34.173
34.113
34.054
33.998
33.945
33.896
33.85
33.809
33.77
33.733
33.699
33.668
33.638
33.609
33.58
33.551
33.521
33.49
33.459
33.428
33.396
33.364
33.332
33.301
33.271
33.241
33.213
33.186
33.162
33.142
33.126
33.117
33.118
33.131
33.161
33.211
33.286
33.387
33.515
33.669
33.849
34.051
34.273
34.51
34.756
35.008
35.26
35.507
35.744
35.966
36.171
36.357
36.522
36.666
36.788
36.891
36.974
37.04
37.088
37.121
37.139
37.143
37.134
37.114
37.087
37.053
37.013
36.969
36.921
36.869
36.817
36.763
36.711
36.662
36.617
36.575
36.537
36.505
36.477
36.454
36.434
36.419
36.406
36.396
36.385
36.373
36.358
36.341
36.321
36.298
36.273
36.244
36.214
36.181
36.146
36.109
36.068
36.024
35.976
35.922
35.865
35.804
35.739
35.672
35.605
35.538
35.473
35.411
35.353
35.301
35.255
35.217
35.188
35.168
35.159
35.16
35.17
35.186
35.209
35.236
35.265
35.296
35.327
35.358
35.388
35.414
35.437
35.456
35.469
35.476
35.478
35.474
35.463
35.445
35.42
35.387
35.348
35.303
35.252
35.198
35.14
35.08
35.018
34.955
34.89
34.825
34.759
34.694
34.63
34.569
34.509
34.45
34.392
34.336
34.281
34.227
34.176
34.127
34.083
34.042
34.004
33.97
33.939
33.913
33.89
33.87
33.855
33.844
33.837
33.832
33.83
33.828
33.826
33.823
33.819
33.813
33.805
33.795
33.782
33.767
33.749
33.729
33.708
33.685
33.662
33.637
33.611
33.585
33.559
33.532
33.506
33.48
33.457
33.438
33.425
33.42
33.426
33.446
33.483
33.541
33.622
33.728
33.861
34.018
34.199
34.4
34.619
34.851
35.091
35.335
35.578
35.816
36.045
36.259
36.457
36.635
36.793
36.929
37.043
37.138
37.214
37.271
37.313
37.341
37.354
37.354
37.345
37.334
37.323
37.314
37.307
37.298
37.283
37.262
37.232
37.194
37.15
37.099
37.045
36.986
36.927
36.867
36.809
36.754
36.699
36.647
36.597
36.55
36.507
36.469
36.437
36.411
36.392
36.378
36.368
36.362
36.356
36.348
36.337
36.32
36.297
36.267
36.229
36.183
36.13
36.072
36.008
35.941
35.872
35.802
35.733
35.665
35.601
35.54
35.483
35.43
35.384
35.343
35.309
35.28
35.258
35.242
35.23
35.222
35.218
35.218
35.221
35.228
35.239
35.252
35.269
35.287
35.304
35.319
35.332
35.34
35.344
35.343
35.337
35.327
35.312
35.293
35.268
35.24
35.208
35.172
35.132
35.089
35.043
34.992
34.937
34.877
34.815
34.75
34.683
34.616
34.548
34.48
34.413
34.348
34.284
34.224
34.169
34.118
34.072
34.03
33.992
33.957
33.925
33.894
33.865
33.836
33.808
33.779
33.751
33.722
33.692
33.662
33.633
33.606
33.581
33.559
33.541
33.528
33.518
33.51
33.504
33.499
33.493
33.487
33.478
33.467
33.455
33.439
33.422
33.403
33.383
33.365
33.347
33.331
33.317
33.303
33.289
33.273
33.255
33.236
33.217
33.2
33.186
33.18
33.182
33.198
33.232
33.288
33.37
33.48
33.621
33.792
33.993
34.219
34.465
34.728
35.0
35.277
35.55
35.814
36.064
36.294
36.502
36.683
36.839
36.967
37.07
37.15
37.208
37.25
37.276
37.29
37.294
37.29
37.28
37.265
37.246
37.224
37.202
37.18
37.159
37.14
37.124
37.109
37.095
37.08
37.064
37.048
37.029
37.007
36.983
36.955
36.925
36.893
36.856
36.817
36.775
36.732
36.688
36.646
36.605
36.567
36.531
36.498
36.468
36.44
36.413
36.387
36.36
36.333
36.306
36.277
36.248
36.217
36.184
36.149
36.109
36.066
36.018
35.969
35.918
35.866
35.814
35.761
35.71
35.66
35.612
35.565
35.521
35.48
35.442
35.408
35.377
35.35
35.328
35.311
35.3
35.296
35.299
35.306
35.318
35.331
35.346
35.359
35.369
35.375
35.377
35.373
35.364
35.348
35.326
35.297
35.261
35.217
35.166
35.109
35.048
34.984
34.917
34.847
34.775
34.7
34.623
34.546
34.47
34.396
34.323
34.255
34.19
34.128
34.07
34.014
33.963
33.915
33.869
33.825
33.783
33.742
33.702
33.662
33.624
33.586
33.55
33.515
33.481
33.45
33.421
33.395
33.372
33.354
33.341
33.333
33.328
33.326
33.324
33.322
33.318
33.312
33.305
33.293
33.279
33.262
33.244
33.225
33.205
33.185
33.164
33.144
33.123
33.103
33.082
33.06
33.036
33.01
32.984
32.958
32.934
32.911
32.894
32.884
32.886
32.904
32.943
33.008
33.101
33.225
33.381
33.568
33.784
34.023
34.281
34.553
34.833
35.114
35.39
35.657
35.91
36.146
36.359
36.549
36.714
36.856
36.975
37.07
37.143
37.196
37.231
37.249
37.252
37.243
37.222
37.192
37.154
37.11
37.062
37.011
36.959
36.907
36.855
36.805
36.756
36.71
36.667
36.626
36.589
36.554
36.52
36.488
36.457
36.426
36.395
36.365
36.335
36.305
36.275
36.246
36.217
36.188
36.158
36.126
36.092
36.055
36.014
35.971
35.924
35.874
35.82
35.761
35.698
35.632
35.563
35.493
35.423
35.355
35.291
35.231
35.177
35.129
35.086
35.05
35.02
34.996
34.978
34.964
34.957
34.957
34.961
34.97
34.984
35.001
35.021
35.042
35.064
35.087
35.107
35.124
35.137
35.146
35.15
35.15
35.146
35.139
35.128
35.112
35.093
35.068
35.039
35.006
34.97
34.929
34.885
34.837
34.786
34.731
34.673
34.609
34.542
34.471
34.398
34.322
34.245
34.167
34.09
34.015
33.943
33.873
33.806
33.745
33.689
33.64
33.597
33.559
33.526
33.498
33.473
33.451
33.433
33.417
33.402
33.389
33.376
33.365
33.354
33.345
33.335
33.326
33.318
33.309
33.299
33.287
33.272
33.255
33.236
33.214
33.19
33.163
33.136
33.11
33.087
33.068
33.058
33.06
33.078
33.117
33.179
33.268
33.386
33.534
33.712
33.919
34.151
34.405
34.676
34.957
35.242
35.524
35.797
36.057
36.297
36.517
36.714
36.888
37.037
37.161
37.261
37.338
37.395
37.431
37.45
37.455
37.448
37.433
37.411
37.385
37.357
37.327
37.296
37.265
37.234
37.204
37.173
37.142
37.109
37.074
37.038
36.999
36.957
36.913
36.867
36.819
36.771
36.722
36.675
36.629
36.586
36.546
36.51
36.476
36.444
36.413
36.383
36.353
36.322
36.289
36.252
36.21
36.164
36.112
36.055
35.993
35.928
35.862
35.794
35.727
35.661
35.597
35.533
35.47
35.409
35.351
35.297
35.246
35.199
35.156
35.118
35.086
35.059
35.038
35.023
35.016
35.015
35.02
35.03
35.044
35.06
35.077
35.094
35.11
35.124
35.135
35.143
35.145
35.144
35.138
35.128
35.113
35.096
35.075
35.053
35.028
35.003
34.974
34.942
34.905
34.863
34.814
34.76
34.701
34.637
34.569
34.496
34.42
34.342
34.262
34.183
34.105
34.03
33.959
33.892
33.83
33.77
33.715
33.664
33.616
33.57
33.528
33.489
33.453
33.42
33.389
33.36
33.335
33.312
33.291
33.27
33.249
33.227
33.203
33.177
33.15
33.121
33.092
33.063
33.034
33.004
32.973
32.943
32.916
32.896
32.884
32.885
32.901
32.936
32.993
33.075
33.187
33.331
33.508
33.717
33.958
34.226
34.518
34.826
35.143
35.461
35.776
36.08
36.369
36.638
36.884
37.102
37.291
37.448
37.573
37.667
37.732
37.77
37.784
37.778
37.757
37.723
37.682
37.635
37.586
37.539
37.494
37.453
37.417
37.387
37.362
37.341
37.324
37.309
37.296
37.283
37.269
37.253
37.235
37.214
37.19
37.161
37.13
37.096
37.059
37.02
36.977
36.933
36.887
36.838
36.785
36.729
36.67
36.607
36.54
36.47
36.399
36.326
36.255
36.185
36.119
36.057
35.999
35.945
35.895
35.85
35.81
35.775
35.745
35.719
35.695
35.673
35.651
35.629
35.608
35.588
35.571
35.557
35.546
35.539
35.534
35.531
35.53
35.529
35.527
35.524
35.519
35.512
35.501
35.487
35.471
35.451
35.429
35.403
35.374
35.342
35.309
35.274
35.238
35.201
35.163
35.123
35.082
35.039
34.995
34.949
34.901
34.85
34.796
34.74
34.682
34.621
34.559
34.496
34.435
34.374
34.315
34.257
34.2
34.144
34.09
34.036
33.983
33.929
33.876
33.823
33.772
33.721
33.672
33.625
33.581
33.538
33.499
33.461
33.425
33.391
33.357
33.326
33.297
33.27
33.244
33.219
33.195
33.172
33.15
33.13
33.11
33.09
33.07
33.049
33.028
33.005
32.981
32.956
32.931
32.907
32.884
32.865
32.852
32.847
32.856
32.882
32.93
33.005
33.112
33.252
33.427
33.636
33.878
34.149
34.446
34.762
35.091
35.426
35.759
36.081
36.387
36.673
36.935
37.171
37.381
37.562
37.711
37.829
37.917
37.976
38.011
38.022
38.013
37.988
37.949
37.901
37.848
37.793
37.737
37.683
37.631
37.583
37.539
37.498
37.461
37.429
37.401
37.378
37.36
37.345
37.332
37.319
37.306
37.292
37.274
37.253
37.229
37.201
37.171
37.137
37.1
37.06
37.017
36.971
36.922
36.868
36.811
36.751
36.687
36.619
