Trial 3:3back
34.634
34.63
34.625
34.62
34.613
34.604
34.593
34.578
34.561
34.54
34.517
34.494
34.47
34.447
34.427
34.408
34.391
34.378
34.369
34.363
34.36
34.361
34.363
34.366
34.369
34.373
34.376
34.378
34.379
34.379
34.378
34.376
34.373
34.369
34.366
34.363
34.361
34.359
34.356
34.354
34.352
34.348
34.343
34.335
34.326
34.317
34.307
34.298
34.289
34.281
34.272
34.264
34.255
34.246
34.236
34.224
34.211
34.196
34.179
34.162
34.145
34.13
34.116
34.104
34.096
34.091
34.091
34.096
34.107
34.123
34.147
34.178
34.218
34.267
34.327
34.399
34.484
34.582
34.693
34.818
34.954
35.103
35.261
35.428
35.602
35.779
35.956
36.131
36.3
36.459
36.606
36.737
36.851
36.946
37.023
37.083
37.125
37.15
37.162
37.161
37.149
37.129
37.103
37.072
37.037
36.999
36.959
36.916
36.872
36.825
36.777
36.729
36.681
36.633
36.587
36.543
36.502
36.465
36.432
36.403
36.378
36.359
36.343
36.331
36.322
36.314
36.307
36.299
36.29
36.279
36.267
36.253
36.237
36.218
36.197
36.172
36.146
36.117
36.088
36.059
36.03
36.004
35.98
35.959
35.94
35.925
35.912
35.901
35.893
35.887
35.883
35.881
35.879
35.879
35.879
35.879
35.88
35.881
35.882
35.884
35.886
35.889
35.894
35.898
35.902
35.905
35.907
35.908
35.908
35.906
35.902
35.897
35.891
35.883
35.874
35.865
35.854
35.842
35.828
35.811
35.791
35.768
35.741
35.71
35.677
35.642
35.606
35.57
35.534
35.5
35.467
35.436
35.407
35.381
35.356
35.333
35.312
35.291
35.27
35.249
35.227
35.204
35.18
35.154
35.128
35.101
35.077
35.055
35.037
35.023
35.014
35.009
35.007
35.007
35.009
35.012
35.013
35.013
35.01
35.007
35.002
34.997
34.99
34.984
34.977
34.97
34.963
34.956
34.948
34.941
34.932
34.922
34.912
34.902
34.891
34.88
34.87
34.861
34.853
34.846
34.84
34.835
34.829
34.824
34.818
34.811
34.805
34.799
34.792
34.786
34.779
34.771
34.763
34.754
34.745
34.736
34.727
34.718
34.708
34.699
34.688
34.676
34.663
34.648
34.632
34.616
34.601
34.585
34.57
34.555
34.541
34.528
34.517
34.509
34.503
34.5
34.501
34.505
34.51
34.516
34.52
34.523
34.523
34.52
34.514
34.504
34.491
34.477
34.461
34.445
34.43
34.416
34.405
34.396
34.391
34.389
34.388
34.39
34.392
34.395
34.396
34.396
34.393
34.389
34.383
34.375
34.364
34.35
34.335
34.317
34.298
34.279
34.259
34.236
34.213
34.189
34.167
34.146
34.129
34.115
34.106
34.1
34.099
34.101
34.106
34.114
34.123
34.135
34.146
34.157
34.167
34.176
34.183
34.189
34.195
34.202
34.212
34.225
34.243
34.268
34.302
34.348
34.406
34.478
34.562
34.658
34.766
34.886
35.016
35.155
35.302
35.455
35.612
35.77
35.928
36.083
36.233
36.376
36.509
36.63
36.737
36.829
36.904
36.962
37.002
37.027
37.035
37.028
37.008
36.976
36.934
36.885
36.831
36.775
36.72
36.666
36.617
36.572
36.531
36.494
36.459
36.427
36.396
36.365
36.334
36.301
36.268
36.234
36.2
36.167
36.135
36.105
36.078
36.053
36.03
36.01
35.99
35.972
35.954
35.935
35.915
35.894
35.872
35.848
35.824
35.799
35.774
35.749
35.726
35.704
35.684
35.667
35.653
35.642
35.633
35.628
35.627
35.63
35.638
35.649
35.664
35.683
35.703
35.724
35.744
35.762
35.779
35.792
35.803
35.811
35.815
35.816
35.813
35.808
35.801
35.793
35.783
35.771
35.759
35.746
35.735
35.724
35.714
35.705
35.695
35.684
35.671
35.657
35.64
35.621
35.598
35.572
35.543
35.513
35.48
35.446
35.411
35.375
35.338
35.302
35.266
35.232
35.198
35.167
35.138
35.111
35.088
35.069
35.053
35.042
35.034
35.03
35.028
35.028
35.028
35.029
35.03
35.03
35.03
35.028
35.023
35.016
35.006
34.994
34.981
34.967
34.952
34.938
34.925
34.913
34.902
34.892
34.883
34.874
34.865
34.857
34.849
34.84
34.83
34.82
34.808
34.796
34.783
34.769
34.755
34.742
34.73
34.718
34.706
34.696
34.686
34.678
34.67
34.663
34.657
34.652
34.647
34.643
34.638
34.633
34.627
34.622
34.617
34.611
34.605
34.599
34.592
34.584
34.576
34.568
34.559
34.551
34.543
34.534
34.525
34.517
34.51
34.504
34.5
34.496
34.493
34.489
34.484
34.478
34.471
34.463
34.454
34.444
34.434
34.423
34.413
34.403
34.396
34.39
34.386
34.384
34.383
34.384
34.386
34.387
34.387
34.386
34.382
34.376
34.367
34.356
34.343
34.329
34.313
34.296
34.276
34.256
34.235
34.216
34.2
34.188
34.18
34.178
34.18
34.185
34.195
34.207
34.219
34.231
34.241
34.248
34.251
34.25
34.246
34.237
34.225
34.21
34.194
34.177
34.16
34.144
34.128
34.114
34.101
34.088
34.077
34.07
34.065
34.066
34.073
34.086
34.107
34.137
34.178
34.229
34.292
34.366
34.452
34.551
34.662
34.785
34.918
35.06
35.212
35.371
35.536
35.707
35.881
36.055
36.227
36.395
36.556
36.707
36.847
36.971
37.079
37.169
37.241
37.294
37.328
37.343
37.341
37.324
37.295
37.255
37.208
37.155
37.098
37.04
36.981
36.923
36.866
36.811
36.76
36.713
36.671
36.633
36.601
36.573
36.548
36.526
36.506
36.489
36.472
36.456
36.44
36.423
36.406
36.387
36.368
36.347
36.326
36.305
36.284
36.265
36.246
36.228
36.212
36.198
36.185
36.173
36.161
36.15
36.139
36.127
36.114
36.099
36.083
36.065
36.046
36.029
36.012
35.997
35.984
35.973
35.965
35.959
35.957
35.957
35.96
35.965
35.971
35.98
35.99
36.0
36.011
36.021
36.03
36.038
36.044
36.048
36.049
36.047
36.04
36.03
36.016
35.999
35.977
35.954
35.928
35.9
35.871
35.84
35.81
35.779
35.748
35.718
35.688
35.659
35.63
35.602
35.574
35.546
35.519
35.492
35.464
35.436
35.407
35.379
35.352
35.326
35.302
35.28
35.26
35.241
35.225
35.211
35.2
35.191
35.184
35.179
35.175
35.173
35.171
35.169
35.168
35.166
35.164
35.16
35.154
35.145
35.135
35.122
35.108
35.094
35.08
35.068
35.056
35.048
35.042
35.038
35.036
35.034
35.033
35.03
35.025
35.018
35.007
34.993
34.976
34.955
34.931
34.905
34.879
34.854
34.832
34.813
34.796
34.783
34.773
34.766
34.762
34.761
34.761
34.762
34.763
34.763
34.763
34.761
34.758
34.753
34.746
34.738
34.729
34.72
34.709
34.698
34.686
34.675
34.663
34.653
34.642
34.633
34.624
34.616
34.609
34.602
34.596
34.591
34.586
34.581
34.576
34.572
34.568
34.564
34.562
34.559
34.556
34.553
34.549
34.544
34.54
34.535
34.53
34.525
34.521
34.518
34.514
34.511
34.506
34.5
34.492
34.483
34.473
34.463
34.451
34.439
34.428
34.417
34.407
34.397
34.389
34.383
34.379
34.377
34.375
34.375
34.373
34.371
34.366
34.36
34.352
34.343
34.332
34.32
34.307
34.292
34.275
34.257
34.238
34.22
34.203
34.188
34.174
34.163
34.154
34.148
34.144
34.143
34.145
34.151
34.161
34.177
34.201
34.233
34.275
34.328
34.391
34.467
34.556
34.659
34.775
34.903
35.042
35.192
35.352
35.518
35.688
35.862
36.035
36.207
36.375
36.536
36.689
36.828
36.954
37.063
37.154
37.228
37.284
37.323
37.346
37.355
37.35
37.335
37.31
37.277
37.237
37.192
37.143
37.092
37.039
36.986
36.934
36.883
36.835
36.79
36.749
36.712
36.679
36.65
36.624
36.602
36.583
36.567
36.551
36.536
36.521
36.505
36.487
36.467
36.446
36.422
36.398
36.373
36.347
36.322
36.296
36.271
36.247
36.223
36.2
36.176
36.152
36.127
36.102
36.077
36.052
36.029
36.008
35.992
35.982
35.978
35.98
35.987
35.998
36.012
36.026
36.039
36.05
36.058
36.064
36.065
36.064
36.058
36.049
36.038
36.027
36.015
36.004
35.994
35.985
35.978
35.972
35.967
35.963
35.96
35.958
35.955
35.952
35.947
35.938
35.927
35.912
35.894
35.871
35.845
35.816
35.785
35.75
35.714
35.677
35.64
35.604
35.568
35.534
35.503
35.475
35.45
35.428
35.408
35.391
35.375
35.359
35.345
35.33
35.317
35.304
35.292
35.28
35.269
35.259
35.25
35.242
35.234
35.226
35.216
35.206
35.193
35.18
35.166
35.15
35.133
35.116
35.099
35.083
35.068
35.055
35.044
35.035
35.029
35.024
35.022
35.022
35.023
35.025
35.027
35.029
35.029
35.029
35.025
35.019
35.01
34.997
34.982
34.966
34.949
34.932
34.917
34.902
34.89
34.88
34.873
34.869
34.868
34.869
34.873
34.877
34.881
34.884
34.886
34.885
34.881
34.874
34.865
34.853
34.839
34.823
34.806
34.788
34.77
34.753
34.737
34.723
34.71
34.699
34.688
34.678
34.669
34.661
34.654
34.649
34.644
34.64
34.637
34.635
34.633
34.632
34.631
34.629
34.626
34.623
34.618
34.613
34.606
34.598
34.59
34.58
34.569
34.558
34.545
34.533
34.521
34.51
34.5
34.49
34.481
34.471
34.46
34.45
34.439
34.429
34.419
34.41
34.401
34.394
34.386
34.379
34.371
34.364
34.357
34.35
34.343
34.336
34.329
34.322
34.315
34.309
34.302
34.297
34.293
34.293
34.299
34.312
34.334
34.368
34.415
34.476
34.551
34.642
34.747
34.866
34.998
35.14
35.294
35.458
35.63
35.807
35.983
36.156
36.321
36.476
36.619
36.748
36.861
36.957
37.037
37.101
37.151
37.185
37.207
37.215
37.212
37.2
37.178
37.148
37.112
37.07
37.026
36.979
36.931
36.882
36.833
36.785
36.737
36.69
36.643
36.597
36.551
36.507
36.465
36.427
36.393
36.363
36.336
36.313
36.292
36.273
36.256
36.239
36.222
36.204
36.184
36.163
36.14
36.116
36.091
36.065
36.039
36.013
35.987
35.961
35.936
35.912
35.89
35.871
35.856
35.845
35.838
35.836
35.838
35.844
35.854
35.867
35.884
35.903
35.924
35.944
35.965
35.985
36.003
36.019
36.031
36.04
36.044
36.044
36.041
36.035
36.026
36.015
36.002
35.988
35.973
35.958
35.941
35.924
35.906
35.886
35.864
35.84
35.812
35.783
35.755
35.731
35.712
35.695
35.682
35.67
35.658
35.647
35.635
35.622
35.607
35.589
35.568
35.542
35.513
35.479
35.443
35.405
35.365
35.324
35.283
35.244
35.209
35.176
35.147
35.123
35.103
35.088
35.078
35.072
35.071
35.075
35.083
35.096
35.111
35.126
35.14
35.152
35.159
35.162
35.159
35.152
35.14
35.124
35.104
35.081
35.056
35.03
35.004
34.979
34.956
34.935
34.916
34.899
34.885
34.873
34.863
34.854
34.848
34.842
34.838
34.834
34.83
34.828
34.825
34.824
34.824
34.824
34.823
34.822
34.819
34.815
34.809
34.8
34.789
34.777
34.762
34.747
34.73
34.712
34.693
34.675
34.657
34.641
34.626
34.613
34.602
34.594
34.589
34.587
34.588
34.591
34.597
34.604
34.612
34.62
34.628
34.634
34.639
34.641
34.641
34.638
34.631
34.621
34.608
34.592
34.574
34.555
34.536
34.518
34.502
34.489
34.48
34.474
34.471
34.47
34.472
34.476
34.481
34.486
34.49
34.493
34.495
34.495
34.492
34.487
34.48
34.472
34.463
34.452
34.44
34.425
34.409
34.392
34.373
34.353
34.332
34.312
34.292
34.273
34.255
34.239
34.225
34.213
34.203
34.195
34.189
34.184
34.182
34.183
34.188
34.198
34.215
34.241
34.276
34.321
34.38
34.452
34.54
34.642
34.761
34.9
35.058
35.232
35.418
35.612
35.809
36.005
36.195
36.376
36.545
36.699
36.837
36.956
37.056
37.139
37.205
37.255
37.29
37.312
37.322
37.322
37.312
37.294
37.267
37.233
37.193
37.148
37.099
37.047
36.993
36.94
36.889
36.842
36.799
36.762
36.728
36.697
36.669
36.642
36.618
36.595
36.574
36.554
36.536
36.518
36.501
36.484
36.469
36.456
36.444
36.433
36.423
36.415
36.407
36.398
36.389
36.378
36.364
36.348
36.328
36.307
36.283
36.258
36.232
36.206
36.18
36.156
36.133
36.112
36.092
36.076
36.064
36.058
36.056
36.06
36.069
36.083
36.102
36.123
36.145
36.168
36.19
36.209
36.225
36.236
36.243
36.245
36.241
36.234
36.223
36.211
36.197
36.181
36.165
36.149
36.132
36.114
36.096
36.077
36.058
36.04
36.021
36.001
35.981
35.961
35.939
35.918
35.897
35.875
35.855
35.836
35.817
35.798
35.778
35.758
35.736
35.713
35.687
35.659
35.628
35.597
35.566
35.535
35.506
35.48
35.458
35.44
35.427
35.42
35.416
35.416
35.418
35.42
35.419
35.416
35.409
35.399
35.385
35.367
35.346
35.323
35.301
35.28
35.261
35.246
35.234
35.226
35.221
35.221
35.223
35.226
35.23
35.234
35.237
35.238
35.236
35.232
35.225
35.215
35.203
35.19
35.176
35.164
35.153
35.143
35.133
35.122
35.111
35.098
35.085
35.072
35.059
35.045
35.032
35.02
35.009
34.998
34.989
34.982
34.976
34.971
34.967
34.964
34.962
34.96
34.958
34.955
34.95
34.943
34.936
34.928
34.919
34.91
34.901
34.892
34.884
34.877
34.87
34.862
34.854
34.846
34.837
34.827
34.818
34.809
34.801
34.795
34.789
34.784
34.78
34.777
34.774
34.771
34.768
34.764
34.759
34.753
34.743
34.731
34.716
34.698
34.679
34.659
34.639
34.62
34.603
34.588
34.575
34.566
34.559
34.556
34.553
34.551
34.549
34.546
34.544
34.543
34.543
34.548
34.557
34.572
34.597
34.633
34.681
34.744
34.821
34.914
35.023
35.147
35.286
35.439
35.601
35.772
35.949
36.127
36.304
36.474
36.635
36.784
36.919
37.038
37.142
37.23
37.301
37.357
37.398
37.424
37.439
37.442
37.436
37.422
37.402
37.377
37.347
37.313
37.277
37.24
37.201
37.163
37.125
37.089
37.054
37.02
36.989
36.96
36.933
36.909
36.887
36.868
36.85
36.834
36.819
36.805
36.791
36.776
36.76
36.742
36.723
36.702
36.679
36.655
36.629
36.602
36.575
36.548
36.522
36.495
36.469
36.442
36.414
36.386
36.357
36.328
36.301
36.275
36.252
36.233
36.218
36.208
36.204
36.204
36.208
36.216
36.227
36.238
36.25
36.261
36.271
36.277
36.278
36.274
36.264
36.249
36.23
36.21
36.19
36.172
36.158
36.146
36.138
36.132
36.129
36.126
36.123
36.119
36.112
36.103
36.09
36.073
36.053
36.029
36.001
35.972
35.94
35.908
35.875
35.842
35.81
35.778
35.749
35.721
35.695
35.669
35.644
35.62
35.596
35.574
35.553
35.534
35.517
35.502
35.487
35.473
35.459
35.446
35.433
35.421
35.408
35.396
35.384
35.373
35.362
35.352
35.342
35.332
35.321
35.309
35.297
35.284
35.271
35.257
35.242
35.228
35.213
35.198
35.183
35.17
35.157
35.145
35.135
35.125
35.117
35.109
35.1
35.091
35.081
35.069
35.055
35.04
35.024
35.008
34.993
34.978
34.964
34.952
34.942
34.934
34.928
34.925
34.924
34.925
34.927
34.931
34.934
34.935
34.934
34.929
34.92
34.907
34.891
34.873
34.854
34.834
34.815
34.797
34.781
34.767
34.755
34.747
34.74
34.737
34.736
34.737
34.738
34.74
34.74
34.738
34.732
34.724
34.714
34.701
34.686
34.671
34.655
34.638
34.622
34.607
34.593
34.582
34.573
34.566
34.561
34.558
34.556
34.554
34.551
34.548
34.544
34.539
34.533
34.527
34.519
34.51
34.5
34.489
34.478
34.466
34.454
34.441
34.428
34.415
34.403
34.391
34.381
34.373
34.369
34.369
34.374
34.386
34.404
34.43
34.464
34.507
34.559
34.621
34.692
34.773
34.865
34.968
35.083
35.209
35.346
35.493
35.649
35.811
35.978
36.146
36.313
36.475
36.627
36.768
36.894
37.005
37.098
37.175
37.235
37.279
37.308
37.325
37.33
37.325
37.312
37.293
37.268
37.239
37.206
37.17
37.129
37.079
37.021
36.956
36.886
36.816
36.748
36.686
36.633
36.59
36.557
36.535
36.523
36.521
36.526
36.536
36.549
36.562
36.573
36.58
36.582
36.578
36.568
36.551
36.529
36.502
36.47
36.434
36.397
36.359
36.322
36.285
36.251
36.219
36.191
36.165
36.144
36.126
36.112
36.102
36.097
36.095
36.097
36.102
36.11
36.121
36.133
36.145
36.158
36.169
36.181
36.192
36.203
36.214
36.223
36.23
36.236
36.24
36.242
36.241
36.235
36.226
36.213
36.196
36.176
36.155
36.131
36.107
36.082
36.056
36.029
36.0
35.971
35.941
35.909
35.877
35.845
35.813
35.783
35.754
35.727
35.702
35.68
35.661
35.645
35.631
35.619
35.61
35.601
35.594
35.587
35.578
35.566
35.551
35.534
35.513
35.488
35.461
35.43
35.392
35.348
35.3
35.251
35.205
35.164
35.13
35.105
35.089
35.082
35.084
35.093
35.106
35.121
35.137
35.153
35.166
35.176
35.183
35.185
35.182
35.176
35.166
35.153
35.14
35.126
35.112
35.099
35.086
35.074
35.064
35.055
35.049
35.044
35.041
35.04
35.038
35.037
35.034
35.03
35.024
35.016
35.007
34.995
34.982
34.968
34.953
34.937
34.921
34.906
34.891
34.876
34.861
34.848
34.835
34.823
34.813
34.804
34.795
34.785
34.775
34.763
34.751
34.739
34.726
34.713
34.702
34.691
34.683
34.677
34.673
34.671
34.67
34.671
34.67
34.67
34.667
34.663
34.657
34.649
34.638
34.625
34.612
34.598
34.586
34.574
34.564
34.556
34.55
34.546
34.543
34.541
34.54
34.539
34.537
34.532
34.526
34.518
34.507
34.494
34.48
34.463
34.446
34.43
34.414
34.4
34.387
34.377
34.369
34.364
34.363
34.364
34.369
34.377
34.389
34.404
34.423
34.447
34.476
34.512
34.555
34.608
34.67
34.744
34.829
34.926
35.035
35.154
35.285
35.426
35.576
35.732
35.894
36.057
36.22
36.38
36.534
36.68
36.815
36.937
37.044
37.135
37.208
37.263
37.299
37.318
37.32
37.309
37.285
37.252
37.211
37.164
37.115
37.064
37.014
36.965
36.919
36.876
36.837
36.802
36.77
36.742
36.718
36.698
36.68
36.665
36.652
36.64
36.63
36.618
36.605
36.589
36.57
36.548
36.523
36.495
36.465
36.433
36.4
36.369
36.338
36.308
36.278
36.25
36.222
36.195
36.169
36.143
36.116
36.091
36.066
36.042
36.02
36.002
35.988
35.978
35.973
35.974
35.98
35.992
36.009
36.03
36.054
36.08
36.105
36.13
36.153
36.172
36.186
36.195
36.199
36.197
36.19
36.179
36.165
36.148
36.129
36.109
36.087
36.065
36.044
36.022
36.001
35.98
35.959
35.938
35.916
35.893
35.869
35.842
35.814
35.784
35.752
35.719
35.686
35.652
35.619
35.587
35.557
35.529
35.503
35.481
35.463
35.448
35.437
35.429
35.422
35.418
35.414
35.41
35.406
35.4
35.392
35.382
35.369
35.352
35.333
35.311
35.288
35.263
35.239
35.215
35.193
35.174
35.158
35.144
35.132
35.121
35.112
35.102
35.092
35.081
35.07
35.059
35.047
35.035
35.023
35.013
35.003
34.995
34.987
34.981
34.974
34.969
34.965
34.959
34.954
34.947
34.939
34.93
34.918
34.904
34.889
34.873
34.855
34.838
34.822
34.808
34.797
34.789
34.785
34.784
34.787
34.792
34.799
34.806
34.811
34.815
34.817
34.816
34.813
34.806
34.797
34.785
34.771
34.755
34.737
34.72
34.703
34.688
34.674
34.663
34.652
34.644
34.637
34.631
34.625
34.62
34.614
34.608
34.601
34.592
34.583
34.573
34.562
34.551
34.539
34.526
34.514
34.502
34.492
34.482
34.472
34.462
34.453
34.444
34.434
34.424
34.415
34.405
34.395
34.386
34.379
34.374
34.372
34.374
34.381
34.393
34.413
34.443
34.482
34.533
34.594
34.665
34.746
34.836
34.937
35.049
35.17
35.302
35.442
35.589
35.742
35.896
36.051
36.202
36.346
36.481
36.605
36.717
36.815
36.899
36.969
37.026
37.068
37.098
37.115
37.12
37.114
37.098
37.073
37.039
36.998
36.951
36.899
36.845
36.79
36.736
36.685
36.638
36.596
36.56
36.53
36.505
36.483
36.464
36.447
36.43
36.413
36.397
36.379
36.36
36.34
36.318
36.295
36.27
36.245
36.219
36.193
36.166
36.139
36.111
36.083
36.055
36.026
35.996
35.968
35.942
35.919
35.9
35.885
35.874
35.867
35.865
35.866
35.872
35.88
35.889
35.898
35.907
35.915
35.923
35.928
35.932
35.935
35.937
35.937
35.936
35.936
35.935
35.933
35.93
35.927
35.921
35.915
35.908
35.899
35.888
35.875
35.859
35.842
35.821
35.798
35.773
35.747
35.72
35.691
35.661
35.63
35.598
35.564
35.531
35.499
35.469
35.441
35.417
35.396
35.378
35.363
35.348
35.334
35.32
35.304
35.287
35.267
35.245
35.221
35.195
35.169
35.141
35.115
35.09
35.069
35.051
35.039
35.031
35.025
35.019
35.012
35.002
34.991
34.977
34.963
34.947
34.93
34.913
34.896
34.878
34.861
34.843
34.827
34.811
34.796
34.783
34.771
34.762
34.755
34.752
34.75
34.751
34.754
34.758
34.762
34.765
34.768
34.769
