Trial 3:3back
36.419
36.391
36.364
36.339
36.315
36.291
36.267
36.243
36.218
36.192
36.165
36.139
36.112
36.086
36.061
36.039
36.019
36.003
35.992
35.985
35.982
35.983
35.989
35.999
36.012
36.028
36.047
36.068
36.09
36.114
36.138
36.162
36.185
36.209
36.231
36.253
36.274
36.293
36.31
36.325
36.337
36.346
36.352
36.356
36.356
36.354
36.349
36.342
36.334
36.324
36.312
36.301
36.289
36.277
36.264
36.252
36.238
36.223
36.206
36.186
36.163
36.137
36.107
36.074
36.038
35.999
35.959
35.916
35.873
35.828
35.782
35.735
35.687
35.638
35.588
35.538
35.488
35.438
35.39
35.342
35.296
35.252
35.21
35.172
35.136
35.105
35.079
35.058
35.044
35.036
35.035
35.043
35.06
35.087
35.124
35.172
35.231
35.301
35.381
35.47
35.566
35.669
35.776
35.887
35.999
36.111
36.221
36.327
36.428
36.52
36.604
36.678
36.74
36.792
36.831
36.86
36.878
36.887
36.887
36.879
36.865
36.845
36.821
36.794
36.765
36.735
36.704
36.674
36.645
36.617
36.592
36.57
36.55
36.533
36.519
36.507
36.496
36.487
36.477
36.467
36.457
36.445
36.432
36.418
36.404
36.388
36.372
36.355
36.338
36.321
36.303
36.285
36.268
36.25
36.234
36.218
36.203
36.189
36.177
36.167
36.159
36.154
36.152
36.153
36.158
36.166
36.177
36.191
36.206
36.223
36.24
36.258
36.274
36.289
36.302
36.312
36.319
36.324
36.327
36.327
36.325
36.32
36.313
36.304
36.294
36.283
36.271
36.259
36.247
36.237
36.227
36.218
36.21
36.203
36.197
36.192
36.188
36.185
36.182
36.18
36.177
36.173
36.167
36.16
36.152
36.141
36.128
36.113
36.096
36.077
36.056
36.033
36.008
35.982
35.954
35.925
35.894
35.862
35.829
35.796
35.763
35.73
35.697
35.665
35.634
35.603
35.574
35.545
35.518
35.492
35.468
35.447
35.429
35.415
35.405
35.401
35.404
35.413
35.431
35.458
35.495
35.543
35.602
35.673
35.755
35.847
35.948
36.057
36.173
36.293
36.415
36.537
36.658
36.775
36.884
36.986
37.077
37.157
37.224
37.278
37.319
37.348
37.365
37.372
37.37
37.36
37.342
37.318
37.29
37.258
37.223
37.187
37.151
37.116
37.082
37.05
37.021
36.996
36.974
36.956
36.94
36.928
36.917
36.909
36.902
36.895
36.889
36.882
36.875
36.867
36.857
36.847
36.834
36.82
36.805
36.789
36.771
36.753
36.735
36.716
36.698
36.682
36.666
36.652
36.641
36.631
36.624
36.62
36.619
36.62
36.624
36.63
36.636
36.643
36.65
36.655
36.659
36.661
36.662
36.66
36.656
36.65
36.641
36.631
36.62
36.607
36.592
36.577
36.56
36.542
36.522
36.502
36.481
36.458
36.433
36.408
36.38
36.352
36.322
36.29
36.257
36.223
36.189
36.154
36.118
36.083
36.047
36.01
35.973
35.935
35.896
35.856
35.815
35.772
35.729
35.684
35.639
35.594
35.55
35.507
35.466
35.426
35.387
35.35
35.314
35.279
35.245
35.212
35.18
35.148
35.116
35.084
35.053
35.023
34.995
34.97
34.948
34.93
34.917
34.908
34.904
34.907
34.916
34.931
34.954
34.983
35.021
35.067
35.123
35.187
35.261
35.345
35.438
35.541
35.653
35.773
35.901
36.034
36.173
36.314
36.456
36.598
36.735
36.868
36.994
37.111
37.218
37.313
37.396
37.465
37.52
37.561
37.588
37.602
37.603
37.593
37.573
37.544
37.509
37.47
37.427
37.383
37.34
37.3
37.262
37.23
37.203
37.182
37.167
37.158
37.155
37.156
37.16
37.165
37.171
37.176
37.179
37.179
37.175
37.167
37.154
37.135
37.112
37.085
37.053
37.019
36.981
36.942
36.902
36.862
36.823
36.785
36.748
36.714
36.682
36.654
36.629
36.608
36.591
36.578
36.568
36.56
36.554
36.55
36.548
36.546
36.545
36.544
36.543
36.542
36.54
36.536
36.532
36.525
36.517
36.507
36.496
36.483
36.469
36.456
36.442
36.43
36.418
36.408
36.399
36.391
36.384
36.377
36.369
36.36
36.35
36.337
36.322
36.304
36.283
36.259
36.234
36.207
36.178
36.149
36.118
36.087
36.055
36.024
35.992
35.96
35.928
35.896
35.865
35.835
35.805
35.775
35.746
35.716
35.686
35.654
35.622
35.588
35.554
35.518
35.481
35.442
35.403
35.363
35.323
35.282
35.241
35.2
35.16
35.121
35.084
35.049
35.018
34.991
34.968
34.952
34.942
34.94
34.946
34.963
34.992
35.034
35.089
35.158
35.24
35.335
35.442
35.559
35.685
35.817
35.954
36.094
36.234
36.373
36.507
36.635
36.754
36.864
36.962
37.048
37.122
37.183
37.232
37.267
37.29
37.302
37.304
37.296
37.28
37.258
37.231
37.199
37.165
37.129
37.092
37.056
37.02
36.985
36.95
36.917
36.886
36.855
36.826
36.799
36.772
36.746
36.72
36.694
36.669
36.643
36.618
36.594
36.569
36.544
36.52
36.496
36.473
36.45
36.429
36.408
36.389
36.371
36.354
36.338
36.324
36.311
36.3
36.292
36.285
36.28
36.277
36.276
36.277
36.281
36.286
36.293
36.301
36.31
36.32
36.33
36.339
36.347
36.353
36.358
36.36
36.36
36.357
36.35
36.34
36.326
36.31
36.29
36.269
36.246
36.223
36.199
36.177
36.156
36.136
36.117
36.098
36.079
36.059
36.038
36.015
35.991
35.965
35.937
35.907
35.876
35.843
35.81
35.775
35.741
35.706
35.672
35.638
35.604
35.571
35.54
35.509
35.479
35.451
35.423
35.396
35.371
35.346
35.321
35.296
35.271
35.246
35.219
35.191
35.161
35.131
35.1
35.068
35.037
35.006
34.978
34.952
34.93
34.913
34.902
34.898
34.901
34.914
34.937
34.972
35.018
35.076
35.146
35.228
35.322
35.424
35.534
35.65
35.77
35.89
36.008
36.123
36.233
36.336
36.431
36.515
36.59
36.653
36.705
36.746
36.776
36.796
36.806
36.808
36.802
36.79
36.772
36.751
36.726
36.699
36.67
36.641
36.612
36.583
36.556
36.529
36.504
36.479
36.456
36.433
36.41
36.388
36.366
36.345
36.324
36.303
36.282
36.261
36.24
36.217
36.194
36.17
36.145
36.119
36.092
36.066
36.04
36.015
35.99
35.967
35.946
35.926
35.907
35.89
35.875
35.862
35.852
35.845
35.841
35.841
35.844
35.85
35.858
35.868
35.879
35.891
35.902
35.912
35.92
35.925
35.928
35.927
35.923
35.914
35.902
35.887
35.869
35.85
35.828
35.806
35.784
35.761
35.739
35.716
35.694
35.671
35.648
35.623
35.598
35.57
35.542
35.511
35.48
35.449
35.417
35.385
35.354
35.323
35.294
35.265
35.238
35.212
35.187
35.162
35.138
35.115
35.093
35.07
35.047
35.024
35.0
34.975
34.948
34.92
34.891
34.861
34.83
34.8
34.77
34.741
34.714
34.688
34.666
34.647
34.632
34.622
34.617
34.619
34.629
34.648
34.677
34.717
34.767
34.829
34.901
34.985
35.078
35.18
35.289
35.404
35.523
35.645
35.766
35.885
36.0
36.111
36.214
36.31
36.397
36.473
36.539
36.593
36.636
36.667
36.687
36.696
36.696
36.688
36.673
36.652
36.627
36.599
36.57
36.54
36.511
36.483
36.456
36.431
36.409
36.389
36.37
36.352
36.335
36.319
36.302
36.284
36.266
36.246
36.225
36.203
36.179
36.154
36.129
36.103
36.077
36.05
36.024
35.999
35.974
35.949
35.925
35.902
35.879
35.857
35.836
35.816
35.798
35.78
35.765
35.752
35.741
35.733
35.727
35.723
35.721
35.72
35.72
35.721
35.723
35.726
35.729
35.731
35.734
35.735
35.736
35.735
35.733
35.729
35.723
35.715
35.706
35.694
35.681
35.667
35.651
35.634
35.616
35.597
35.576
35.555
35.532
35.508
35.482
35.454
35.425
35.395
35.365
35.333
35.302
35.27
35.239
35.208
35.179
35.15
35.123
35.098
35.075
35.054
35.035
35.018
35.003
34.989
34.975
34.963
34.95
34.936
34.922
34.906
34.89
34.872
34.853
34.833
34.811
34.788
34.765
34.742
34.719
34.698
34.68
34.664
34.653
34.647
34.646
34.653
34.669
34.695
34.733
34.783
34.847
34.924
35.014
35.116
35.23
35.353
35.483
35.618
35.755
35.89
36.022
36.147
36.263
36.369
36.464
36.546
36.615
36.67
36.713
36.742
36.76
36.768
36.765
36.755
36.739
36.717
36.692
36.664
36.635
36.606
36.578
36.552
36.527
36.504
36.482
36.463
36.445
36.429
36.414
36.401
36.388
36.375
36.362
36.348
36.334
36.318
36.302
36.284
36.265
36.246
36.225
36.204
36.183
36.161
36.138
36.115
36.091
36.066
36.04
36.015
35.991
35.967
35.945
35.923
35.903
35.885
35.869
35.856
35.844
35.835
35.828
35.824
35.822
35.822
35.825
35.831
35.837
35.846
35.854
35.862
35.868
35.872
35.872
35.869
35.863
35.852
35.838
35.821
35.8
35.777
35.751
35.725
35.697
35.669
35.64
35.611
35.583
35.555
35.527
35.5
35.474
35.45
35.428
35.407
35.387
35.368
35.35
35.332
35.313
35.293
35.272
35.25
35.227
35.203
35.178
35.153
35.129
35.104
35.081
35.059
35.038
35.019
35.002
34.987
34.973
34.96
34.948
34.936
34.923
34.91
34.895
34.879
34.86
34.839
34.816
34.793
34.769
34.745
34.723
34.704
34.687
34.674
34.666
34.663
34.667
34.678
34.697
34.726
34.765
34.816
34.877
34.95
35.035
35.132
35.239
35.354
35.476
35.602
35.73
35.857
35.981
36.1
36.211
36.313
36.405
36.486
36.554
36.61
36.652
36.681
36.697
36.703
36.699
36.687
36.67
36.648
36.623
36.596
36.568
36.54
36.512
36.485
36.459
36.435
36.411
36.39
36.369
36.351
36.334
36.318
36.304
36.29
36.276
36.263
36.249
36.236
36.222
36.208
36.193
36.178
36.161
36.144
36.125
36.106
36.085
36.064
36.043
36.022
36.001
35.98
35.96
35.94
35.922
35.904
35.889
35.874
35.861
35.849
35.839
35.83
35.822
35.814
35.808
35.802
35.797
35.791
35.785
35.779
35.773
35.766
35.759
35.751
35.743
35.734
35.725
35.717
35.709
35.701
35.694
35.687
35.679
35.671
35.661
35.649
35.635
35.619
35.6
35.578
35.553
35.526
35.498
35.468
35.436
35.404
35.372
35.341
35.31
35.28
35.252
35.224
35.198
35.172
35.148
35.125
35.104
35.085
35.066
35.049
35.032
35.015
34.999
34.981
34.964
34.945
34.926
34.907
34.888
34.869
34.85
34.832
34.815
34.797
34.78
34.763
34.746
34.728
34.711
34.693
34.675
34.656
34.637
34.618
34.597
34.577
34.557
34.537
34.518
34.501
34.485
34.471
34.46
34.453
34.451
34.454
34.466
34.486
34.516
34.556
34.608
34.672
34.747
34.833
34.929
35.035
35.147
35.264
35.385
35.506
35.626
35.742
35.853
35.956
36.05
36.134
36.207
36.267
36.316
36.352
36.375
36.387
36.389
36.381
36.366
36.345
36.32
36.292
36.263
36.234
36.205
36.178
36.152
36.129
36.107
36.087
36.068
36.049
36.031
36.013
35.994
35.976
35.957
35.938
35.919
35.9
35.881
35.862
35.843
35.825
35.805
35.785
35.763
35.741
35.718
35.695
35.671
35.646
35.622
35.599
35.576
35.555
35.535
35.518
35.502
35.49
35.48
35.472
35.467
35.464
35.464
35.464
35.466
35.468
35.47
35.472
35.473
35.473
35.472
35.47
35.465
35.459
35.451
35.442
35.43
35.417
35.402
35.386
35.369
35.352
35.334
35.315
35.296
35.277
35.258
35.239
35.22
35.203
35.186
35.169
35.154
35.138
35.122
35.106
35.089
35.07
35.05
35.029
35.006
34.981
34.955
34.927
34.899
34.87
34.841
34.814
34.787
34.762
34.739
34.718
34.698
34.679
34.662
34.646
34.631
34.617
34.602
34.587
34.572
34.556
34.539
34.521
34.502
34.482
34.46
34.438
34.416
34.393
34.371
34.351
34.332
34.315
34.299
34.284
34.271
34.259
34.247
34.236
34.225
34.214
34.203
34.191
34.179
34.167
34.153
34.138
34.122
34.105
34.087
34.069
34.051
34.033
34.017
34.002
33.989
33.98
33.976
33.978
33.989
34.008
34.038
34.079
34.132
34.197
34.274
34.363
34.462
34.57
34.686
34.808
34.934
35.061
35.187
35.31
35.427
35.535
35.634
35.72
35.794
35.853
35.898
35.93
35.948
35.954
35.95
35.937
35.916
35.89
35.86
35.828
35.794
35.761
35.728
35.697
35.669
35.643
35.621
35.603
35.587
35.575
35.564
35.555
35.547
35.539
35.531
35.523
35.514
35.504
35.492
35.479
35.463
35.446
35.427
35.405
35.381
35.356
35.331
35.305
35.28
35.256
35.234
35.212
35.193
35.174
35.156
35.14
35.125
35.111
35.1
35.091
35.085
35.082
35.081
35.083
35.085
35.09
35.094
35.1
35.104
35.108
35.11
35.11
35.109
35.105
35.1
35.093
35.085
35.075
35.065
35.055
35.046
35.037
35.03
35.022
35.016
35.009
35.002
34.995
34.988
34.98
34.972
34.962
34.951
34.938
34.924
34.906
34.887
34.865
34.841
34.816
34.789
34.762
34.734
34.707
34.68
34.655
34.631
34.61
34.591
34.573
34.559
34.546
34.536
34.527
34.52
34.513
34.506
34.499
34.491
34.482
34.471
34.459
34.446
34.431
34.416
34.401
34.385
34.369
34.353
34.337
34.321
34.305
34.289
34.274
34.259
34.245
34.232
34.22
34.208
34.195
34.183
34.172
34.161
34.151
34.142
34.133
34.125
34.117
34.11
34.105
34.102
34.103
34.108
34.12
34.139
34.167
34.205
34.254
34.313
34.383
34.464
34.554
34.653
34.759
34.87
34.985
35.1
35.214
35.325
35.431
35.529
35.619
35.698
35.766
35.823
35.868
35.901
35.922
35.932
35.932
35.923
35.906
35.882
35.854
35.822
35.788
35.753
35.718
35.684
35.652
35.622
35.594
35.569
35.546
35.527
35.51
35.495
35.483
35.472
35.464
35.456
35.449
35.442
35.434
35.426
35.417
35.405
35.392
35.377
35.36
35.341
35.322
35.301
35.28
35.258
35.237
35.216
35.195
35.174
35.154
35.135
35.118
35.101
35.087
35.075
35.066
35.06
35.056
35.055
35.055
35.058
35.062
35.068
35.074
35.082
35.089
35.095
35.101
35.105
35.108
35.108
35.107
35.104
35.099
35.091
35.081
35.069
35.056
35.041
35.026
35.01
34.994
34.977
34.961
34.945
34.93
34.915
34.901
34.887
34.874
34.861
34.848
34.834
34.821
34.807
34.792
34.778
34.763
34.747
34.731
34.714
34.696
34.677
34.658
34.638
34.618
34.597
34.577
34.557
34.537
34.517
34.498
34.479
34.46
34.443
34.428
34.415
34.403
34.394
34.386
34.379
34.373
34.367
34.36
34.352
34.343
34.333
34.32
34.307
34.291
34.275
34.257
34.24
34.223
34.208
34.195
34.184
34.175
34.169
34.167
34.168
34.174
34.186
34.205
34.231
34.266
34.31
34.364
34.427
34.5
34.581
34.67
34.764
34.864
34.965
35.068
35.168
35.265
35.356
35.44
35.516
35.582
35.638
35.683
35.718
35.742
35.758
35.765
35.765
35.759
35.747
35.732
35.714
35.694
35.672
35.65
35.628
35.605
35.582
35.559
35.536
35.512
35.487
35.463
35.438
35.414
35.39
35.367
35.345
35.324
35.303
35.283
35.263
35.244
35.224
35.205
35.186
35.167
35.149
35.13
35.112
35.093
35.074
35.055
35.035
35.015
34.994
34.974
34.956
34.938
34.923
34.91
34.899
34.891
34.886
34.884
34.884
34.886
34.888
34.891
34.894
34.897
34.899
34.901
34.903
34.904
34.904
34.903
34.9
34.896
34.89
34.883
34.875
34.867
34.857
34.847
34.835
34.822
34.808
34.792
34.775
34.756
34.735
34.714
34.691
34.668
34.644
34.619
34.595
34.572
34.55
34.53
34.51
34.492
34.476
34.461
34.447
34.434
34.422
34.411
34.401
34.392
34.382
34.372
34.361
34.35
34.338
34.324
34.31
34.296
34.281
34.266
34.25
34.234
34.217
34.2
34.183
34.165
34.147
34.128
34.108
34.089
34.07
34.052
34.034
34.018
34.003
33.99
33.978
33.968
33.96
33.955
33.954
33.956
33.964
33.979
34.0
34.03
34.067
34.114
34.171
34.236
34.311
34.393
34.482
34.575
34.671
34.768
34.864
34.958
35.047
35.13
35.206
35.274
35.332
35.38
35.418
35.445
35.462
35.47
35.47
35.463
35.45
35.433
35.411
35.387
35.362
35.336
35.31
35.285
35.26
35.237
35.214
35.193
35.173
35.155
35.138
35.121
35.105
35.089
35.073
35.057
35.04
35.023
35.005
34.987
34.969
34.949
34.93
34.91
34.89
34.87
34.85
34.831
34.811
34.791
34.771
34.752
34.732
34.714
34.697
34.682
34.671
34.662
34.658
34.657
34.66
34.667
34.676
34.686
34.696
34.707
34.716
34.725
34.732
34.737
34.741
34.743
34.743
34.741
34.739
34.734
34.728
34.722
34.714
34.705
34.695
34.684
34.673
34.66
34.647
34.633
34.619
34.603
34.587
34.57
34.552
34.534
34.515
34.496
34.477
34.457
34.437
34.416
34.396
34.375
34.354
34.333
34.312
34.291
34.27
34.25
34.231
34.213
34.196
34.179
34.165
34.151
34.14
34.13
34.121
34.114
34.109
34.104
34.101
34.098
34.095
34.091
34.087
34.081
34.074
34.064
34.052
34.037
34.021
34.003
33.983
33.962
33.941
33.919
33.898
33.877
33.859
33.843
33.83
33.822
33.817
33.819
33.826
33.841
33.863
33.895
33.935
33.985
34.046
34.116
34.197
34.288
34.387
34.492
34.604
34.719
34.835
34.952
35.065
35.174
35.277
35.371
35.455
35.528
35.589
35.637
35.673
35.697
35.711
35.715
35.711
35.701
35.686
35.668
35.646
35.623
35.598
35.573
35.549
35.526
35.504
35.484
35.466
35.449
35.434
35.421
35.408
35.397
35.386
35.375
35.363
35.351
35.338
35.324
35.31
35.295
35.28
35.264
35.248
35.231
35.213
35.194
35.176
35.158
35.14
35.123
35.105
35.087
35.07
35.052
35.036
35.02
35.005
34.992
34.98
34.97
34.962
34.956
34.951
34.947
34.945
34.944
34.945
34.948
34.953
34.959
34.966
34.973
34.981
34.988
34.994
34.999
35.003
35.005
35.006
35.004
35.001
34.996
34.99
34.982
34.972
34.96
34.946
34.931
34.913
34.894
34.874
34.853
34.831
34.809
34.787
34.765
34.744
34.724
34.703
34.682
34.662
34.643
34.624
34.606
34.589
34.574
34.56
34.547
34.535
34.524
34.514
34.504
34.494
34.483
34.472
34.461
34.45
34.437
34.424
34.411
34.397
34.382
34.368
34.354
34.34
34.329
34.318
34.308
34.299
34.29
34.28
34.268
34.255
34.241
34.225
34.209
34.193
34.177
34.163
34.151
34.14
34.13
34.121
34.113
34.107
34.103
34.103
34.107
34.117
34.133
34.157
34.189
34.231
34.282
34.343
34.414
34.495
34.585
34.683
34.787
34.895
35.005
35.116
35.226
35.331
35.432
35.524
35.607
35.68
35.741
35.792
35.83
35.857
35.874
35.88
35.878
35.868
35.853
35.832
35.807
35.78
35.75
35.72
35.689
35.66
35.633
35.608
35.585
35.565
35.547
35.529
35.513
35.497
35.482
35.466
35.45
35.434
35.418
35.403
35.389
35.376
35.364
35.352
35.341
35.329
35.318
35.305
35.291
35.274
35.256
35.236
35.214
35.192
35.169
35.146
35.123
35.101
35.081
35.062
35.046
35.031
35.019
35.01
35.004
35.002
35.003
35.008
35.016
35.027
35.039
35.053
35.067
35.082
35.095
35.108
35.118
35.126
35.131
35.134
35.133
35.129
35.122
35.111
35.098
35.082
35.063
35.043
35.022
35.0
34.978
34.956
34.935
34.915
34.895
34.877
34.859
34.843
34.828
34.813
34.8
34.787
34.776
34.764
34.753
34.741
34.729
34.717
34.703
34.689
34.674
34.658
34.641
34.623
34.604
34.585
34.565
34.545
34.525
34.506
34.488
34.471
34.455
34.44
34.427
34.415
34.403
34.391
34.379
34.367
34.354
34.341
34.327
34.313
34.299
34.285
34.271
34.257
34.243
34.23
34.219
34.21
34.204
34.202
34.207
34.218
34.237
34.265
34.303
34.352
34.411
34.48
34.559
34.647
34.743
34.847
34.956
35.069
35.185
35.3
35.414
35.524
35.628
35.725
35.814
35.893
35.961
36.017
36.063
36.097
36.119
36.131
36.133
36.127
36.112
36.09
36.064
36.034
36.003
35.97
35.938
35.907
35.878
35.851
35.826
35.804
35.785
35.768
35.754
35.743
35.733
35.724
35.715
35.707
35.698
35.688
35.678
35.665
35.651
35.636
35.618
35.598
35.577
35.554
35.53
35.504
35.479
35.453
35.428
35.403
35.381
35.36
35.342
35.327
35.313
35.302
35.294
35.287
35.283
35.28
35.28
35.28
35.282
35.284
35.287
35.29
35.293
35.295
35.296
35.297
35.297
35.297
35.297
35.297
35.297
35.296
35.294
35.291
35.287
35.281
35.273
35.262
35.249
35.233
35.215
35.194
35.172
35.148
35.123
35.098
35.072
35.047
35.023
35.0
34.978
34.958
34.94
34.924
34.909
34.896
34.883
34.87
34.858
34.847
34.836
34.826
34.815
34.805
34.793
34.78
34.767
34.753
34.738
34.723
34.707
34.691
34.675
34.659
34.643
34.628
34.613
34.598
34.583
34.569
34.555
34.541
34.528
34.515
34.502
34.49
34.478
34.466
34.455
34.445
34.436
34.429
34.423
34.42
34.42
34.424
34.433
34.449
34.472
34.504
