Trial 3:3back
38.713
38.635
38.549
38.459
38.364
38.266
38.168
38.071
37.976
37.884
37.797
37.717
37.644
37.579
37.523
37.476
37.437
37.406
37.382
37.361
37.345
37.329
37.315
37.299
37.283
37.264
37.244
37.222
37.199
37.174
37.147
37.12
37.09
37.059
37.026
36.992
36.957
36.921
36.885
36.847
36.808
36.767
36.723
36.675
36.623
36.568
36.51
36.447
36.38
36.31
36.238
36.165
36.09
36.017
35.944
35.873
35.805
35.74
35.678
35.619
35.563
35.509
35.456
35.404
35.352
35.3
35.248
35.196
35.145
35.095
35.047
35.001
34.956
34.912
34.869
34.826
34.782
34.737
34.691
34.644
34.596
34.547
34.498
34.447
34.395
34.344
34.295
34.248
34.204
34.162
34.123
34.085
34.05
34.016
33.983
33.949
33.916
33.882
33.849
33.816
33.785
33.754
33.726
33.702
33.68
33.661
33.644
33.63
33.618
33.606
33.595
33.582
33.569
33.553
33.536
33.517
33.499
33.482
33.467
33.452
33.436
33.418
33.397
33.374
33.347
33.318
33.287
33.254
33.22
33.185
33.149
33.113
33.077
33.042
33.007
32.973
32.942
32.913
32.888
32.867
32.848
32.833
32.82
32.808
32.799
32.789
32.78
32.77
32.759
32.744
32.727
32.705
32.68
32.65
32.618
32.584
32.548
32.513
32.478
32.444
32.413
32.384
32.358
32.334
32.312
32.292
32.273
32.256
32.239
32.224
32.209
32.195
32.185
32.179
32.181
32.194
32.222
32.269
32.34
32.439
32.568
32.731
32.93
33.165
33.436
33.739
34.071
34.427
34.801
35.188
35.582
35.976
36.364
36.74
37.099
37.439
37.755
38.046
38.31
38.545
38.752
38.931
39.082
39.207
39.307
39.385
39.442
39.482
39.505
39.514
39.51
39.497
39.474
39.445
39.411
39.371
39.33
39.287
39.245
39.205
39.169
39.136
39.109
39.087
39.07
39.058
39.05
39.046
39.044
39.043
39.042
39.041
39.036
39.028
39.015
38.995
38.968
38.933
38.889
38.836
38.773
38.702
38.624
38.54
38.447
38.345
38.235
38.121
38.007
37.898
37.796
37.704
37.623
37.555
37.498
37.451
37.414
37.384
37.36
37.34
37.323
37.308
37.293
37.279
37.264
37.247
37.23
37.21
37.189
37.165
37.14
37.113
37.085
37.056
37.025
36.994
36.964
36.936
36.909
36.883
36.856
36.829
36.799
36.767
36.732
36.692
36.648
36.598
36.544
36.486
36.426
36.363
36.299
36.235
36.171
36.108
36.046
35.985
35.923
35.862
35.8
35.738
35.675
35.612
35.548
35.485
35.423
35.363
35.306
35.251
35.197
35.143
35.091
35.039
34.988
34.936
34.883
34.829
34.772
34.714
34.656
34.6
34.547
34.498
34.453
34.412
34.375
34.34
34.308
34.277
34.246
34.215
34.182
34.148
34.112
34.074
34.035
33.994
33.953
33.911
33.871
33.832
33.796
33.763
33.732
33.704
33.678
33.652
33.625
33.596
33.565
33.533
33.498
33.461
33.423
33.385
33.348
33.311
33.276
33.242
33.21
33.18
33.152
33.126
33.102
33.079
33.058
33.038
33.018
33.0
32.982
32.964
32.946
32.929
32.912
32.897
32.883
32.874
32.873
32.881
32.895
32.912
32.931
32.949
32.963
32.972
32.974
32.968
32.955
32.933
32.903
32.867
32.825
32.779
32.73
32.68
32.63
32.581
32.535
32.493
32.456
32.425
32.399
32.378
32.362
32.349
32.339
32.33
32.321
32.313
32.303
32.292
32.279
32.265
32.25
32.236
32.221
32.206
32.192
32.179
32.168
32.157
32.148
32.14
32.132
32.123
32.114
32.104
32.094
32.082
32.07
32.057
32.046
32.037
32.032
32.032
32.038
32.053
32.08
32.121
32.179
32.259
32.365
32.503
32.676
32.886
33.132
33.413
33.726
34.067
34.43
34.811
35.204
35.602
35.999
36.39
36.768
37.128
37.466
37.779
38.063
38.319
38.544
38.741
38.91
39.053
39.172
39.269
39.346
39.403
39.443
39.467
39.478
39.477
39.466
39.448
39.424
39.395
39.364
39.329
39.293
39.255
39.217
39.178
39.14
39.102
39.067
39.033
39.001
38.971
38.944
38.918
38.894
38.869
38.844
38.818
38.79
38.757
38.719
38.675
38.627
38.575
38.519
38.458
38.393
38.324
38.25
38.173
38.093
38.01
37.926
37.843
37.762
37.684
37.612
37.546
37.486
37.432
37.383
37.339
37.301
37.267
37.237
37.212
37.192
37.177
37.167
37.161
37.16
37.162
37.169
37.179
37.191
37.201
37.208
37.21
37.206
37.196
37.179
37.156
37.127
37.092
37.052
37.007
36.958
36.904
36.846
36.785
36.722
36.657
36.592
36.527
36.461
36.396
36.331
36.266
36.2
36.134
36.067
36.0
35.933
35.864
35.795
35.724
35.654
35.584
35.516
35.451
35.387
35.327
35.27
35.216
35.165
35.117
35.071
35.026
34.981
34.937
34.893
34.848
34.803
34.757
34.712
34.667
34.622
34.577
34.533
34.488
34.443
34.398
34.352
34.308
34.265
34.224
34.183
34.143
34.102
34.061
34.019
33.978
33.937
33.899
33.862
33.829
33.798
33.771
33.745
33.722
33.699
33.676
33.652
33.629
33.604
33.579
33.553
33.526
33.498
33.471
33.445
33.419
33.395
33.372
33.35
33.33
33.31
33.29
33.27
33.25
33.229
33.207
33.184
33.16
33.136
33.111
33.085
33.061
33.036
33.013
32.99
32.969
32.948
32.929
32.91
32.891
32.872
32.852
32.829
32.805
32.779
32.752
32.725
32.701
32.678
32.658
32.642
32.63
32.62
32.613
32.607
32.599
32.589
32.576
32.559
32.538
32.513
32.485
32.454
32.421
32.387
32.354
32.321
32.291
32.262
32.238
32.218
32.203
32.191
32.183
32.178
32.176
32.179
32.186
32.199
32.218
32.245
32.284
32.338
32.41
32.504
32.623
32.77
32.95
33.162
33.408
33.688
34.0
34.341
34.708
35.094
35.495
35.903
36.314
36.721
37.119
37.503
37.869
38.213
38.531
38.821
39.081
39.309
39.506
39.67
39.804
39.909
39.989
40.047
40.084
40.102
40.105
40.096
40.075
40.047
40.013
39.976
39.936
39.898
39.861
39.825
39.791
39.757
39.726
39.697
39.671
39.646
39.624
39.604
39.586
39.571
39.561
39.554
39.55
39.546
39.541
39.533
39.519
39.497
39.466
39.426
39.378
39.32
39.254
39.18
39.099
39.011
38.919
38.822
38.722
38.62
38.517
38.414
38.314
38.218
38.126
38.041
37.963
37.891
37.827
37.768
37.716
37.669
37.627
37.589
37.555
37.525
37.497
37.471
37.446
37.421
37.395
37.369
37.341
37.312
37.282
37.249
37.214
37.177
37.138
37.096
37.051
37.004
36.954
36.901
36.845
36.785
36.723
36.658
36.591
36.523
36.453
36.383
36.311
36.238
36.164
36.091
36.02
35.95
35.882
35.818
35.757
35.698
35.641
35.585
35.53
35.476
35.421
35.366
35.309
35.251
35.193
35.134
35.076
35.02
34.965
34.911
34.86
34.812
34.765
34.72
34.675
34.631
34.586
34.54
34.493
34.444
34.394
34.344
34.293
34.243
34.194
34.146
34.1
34.055
34.012
33.972
33.933
33.894
33.856
33.817
33.78
33.744
33.709
33.676
33.646
33.619
33.595
33.573
33.552
33.532
33.513
33.493
33.472
33.45
33.427
33.403
33.377
33.351
33.323
33.293
33.263
33.231
33.2
33.168
33.137
33.105
33.074
33.044
33.015
32.987
32.961
32.935
32.909
32.884
32.859
32.833
32.807
32.782
32.758
32.737
32.718
32.699
32.681
32.664
32.646
32.628
32.609
32.588
32.565
32.54
32.513
32.485
32.454
32.421
32.388
32.355
32.323
32.294
32.268
32.246
32.227
32.212
32.201
32.193
32.187
32.182
32.177
32.172
32.165
32.154
32.14
32.121
32.098
32.072
32.043
32.013
31.982
31.951
31.922
31.895
31.869
31.846
31.826
31.809
31.797
31.79
31.788
31.793
31.806
31.829
31.863
31.912
31.979
32.068
32.181
32.324
32.5
32.711
32.957
33.24
33.557
33.908
34.287
34.689
35.107
35.535
35.964
36.389
36.803
37.2
37.576
37.928
38.253
38.55
38.816
39.051
39.253
39.422
39.561
39.672
39.755
39.813
39.85
39.868
39.872
39.864
39.847
39.823
39.793
39.759
39.722
39.684
39.645
39.606
39.569
39.533
39.501
39.471
39.445
39.422
39.401
39.382
39.365
39.349
39.334
39.319
39.302
39.284
39.263
39.238
39.209
39.176
39.137
39.093
39.043
38.986
38.923
38.853
38.777
38.694
38.607
38.517
38.425
38.334
38.244
38.157
38.074
37.996
37.923
37.856
37.794
37.738
37.687
37.642
37.601
37.565
37.532
37.503
37.476
37.452
37.429
37.406
37.383
37.36
37.337
37.315
37.293
37.271
37.248
37.226
37.204
37.181
37.158
37.133
37.107
37.078
37.047
37.014
36.978
36.939
36.897
36.852
36.803
36.75
36.694
36.633
36.57
36.505
36.44
36.374
36.308
36.244
36.182
36.121
36.062
36.003
35.945
35.887
35.828
35.768
35.706
35.644
35.581
35.518
35.455
35.393
35.331
35.27
35.211
35.152
35.096
35.042
34.989
34.938
34.887
34.837
34.788
34.74
34.694
34.648
34.603
34.559
34.517
34.475
34.435
34.396
34.357
34.318
34.28
34.242
34.203
34.163
34.12
34.077
34.031
33.985
33.939
33.893
33.848
33.806
33.768
33.733
33.701
33.672
33.645
33.62
33.597
33.572
33.546
33.521
33.498
33.479
33.464
33.45
33.437
33.425
33.411
33.396
33.377
33.355
33.33
33.3
33.267
33.229
33.188
33.144
33.098
33.049
33.0
32.951
32.902
32.854
32.809
32.766
32.727
32.69
32.657
32.626
32.597
32.571
32.547
32.526
32.508
32.49
32.473
32.455
32.435
32.412
32.385
32.353
32.317
32.278
32.236
32.193
32.15
32.108
32.07
32.035
32.005
31.979
31.957
31.94
31.927
31.916
31.908
31.9
31.893
31.885
31.876
31.866
31.856
31.853
31.857
31.868
31.884
31.903
31.922
31.939
31.952
31.959
31.96
31.953
31.94
31.92
31.895
31.866
31.836
31.805
31.775
31.746
31.721
31.699
31.682
31.67
31.662
31.658
31.658
31.661
31.669
31.68
31.698
31.726
31.766
31.822
31.9
32.002
32.134
32.297
32.495
32.727
32.993
33.293
33.623
33.98
34.36
34.757
35.164
35.577
35.99
36.396
36.788
37.162
37.513
37.836
38.129
38.39
38.618
38.813
38.975
39.106
39.206
39.279
39.327
39.353
39.359
39.351
39.331
39.305
39.273
39.237
39.198
39.158
39.117
39.077
39.038
39.0
38.965
38.931
38.9
38.872
38.846
38.824
38.802
38.781
38.76
38.739
38.717
38.694
38.672
38.65
38.628
38.607
38.587
38.566
38.544
38.521
38.494
38.465
38.431
38.392
38.35
38.304
38.256
38.206
38.155
38.103
38.05
37.999
37.95
37.903
37.857
37.811
37.765
37.719
37.675
37.632
37.591
37.552
37.514
37.48
37.447
37.417
37.387
37.358
37.331
37.304
37.278
37.253
37.229
37.206
37.184
37.164
37.146
37.128
37.109
37.087
37.062
37.033
36.998
36.958
36.913
36.864
36.813
36.763
36.715
36.67
36.63
36.594
36.562
36.534
36.508
36.483
36.459
36.433
36.406
36.378
36.348
36.316
36.281
36.243
36.203
36.16
36.114
36.064
36.011
35.955
35.895
35.833
35.769
35.703
35.636
35.57
35.504
35.439
35.376
35.313
35.252
35.191
35.132
35.073
35.015
34.957
34.898
34.839
34.779
34.721
34.663
34.606
34.549
34.494
34.441
34.389
34.339
34.291
34.245
34.201
34.158
34.115
34.072
34.028
33.983
33.936
33.886
33.834
33.782
33.731
33.682
33.636
33.594
33.557
33.526
33.499
33.477
33.459
33.444
33.43
33.416
33.401
33.384
33.364
33.34
33.312
33.279
33.244
33.207
33.168
33.13
33.093
33.058
33.026
32.995
32.965
32.936
32.907
32.879
32.85
32.82
32.789
32.757
32.724
32.691
32.657
32.624
32.592
32.561
32.531
32.504
32.479
32.456
32.434
32.413
32.392
32.372
32.351
32.329
32.306
32.281
32.257
32.233
32.209
32.186
32.164
32.143
32.125
32.108
32.092
32.076
32.058
32.037
32.013
31.986
31.957
31.926
31.896
31.868
31.843
31.824
31.813
31.813
31.827
31.857
31.907
31.98
32.078
32.203
32.358
32.543
32.759
33.005
33.281
33.584
33.912
34.262
34.629
35.009
35.396
35.787
36.175
36.556
36.924
37.274
37.601
37.903
38.176
38.421
38.635
38.821
38.978
39.108
39.213
39.296
39.359
39.402
39.43
39.443
39.445
39.437
39.422
39.4
39.374
39.345
39.314
39.282
39.249
39.215
39.18
39.145
39.111
39.078
39.046
39.017
38.992
38.97
38.952
38.938
38.926
38.916
38.905
38.892
38.877
38.857
38.833
38.803
38.765
38.72
38.666
38.602
38.528
38.443
38.348
38.245
38.136
38.022
37.908
37.795
37.687
37.585
37.491
37.405
37.326
37.255
37.191
37.133
37.082
37.036
36.994
36.956
36.921
36.889
36.86
36.834
36.809
36.786
36.763
36.74
36.717
36.693
36.668
36.643
36.618
36.593
36.569
36.545
36.52
36.495
36.467
36.438
36.405
36.369
36.329
36.286
36.239
36.186
36.13
36.071
36.01
35.948
35.885
35.821
35.756
35.69
35.624
35.558
35.494
35.43
35.368
35.307
35.247
35.189
35.133
35.078
35.025
34.973
34.921
34.868
34.815
34.761
34.704
34.644
34.582
34.516
34.448
34.378
34.307
34.235
34.164
34.094
34.026
33.96
33.897
33.836
33.778
33.723
33.67
33.619
33.569
33.521
33.474
33.428
33.383
33.337
33.292
33.248
33.205
33.163
33.124
33.087
33.053
33.022
32.995
32.972
32.951
32.932
32.915
32.899
32.883
32.867
32.851
32.834
32.816
32.797
32.777
32.758
32.738
32.72
32.703
32.688
32.675
32.663
32.652
32.641
32.63
32.619
32.605
32.59
32.572
32.553
32.533
32.514
32.495
32.477
32.46
32.444
32.429
32.414
32.4
32.386
32.37
32.354
32.336
32.315
32.293
32.267
32.24
32.212
32.183
32.154
32.126
32.099
32.074
32.052
32.034
32.019
32.007
31.997
31.989
31.984
31.98
31.977
31.974
31.97
31.963
31.953
31.939
31.921
31.9
31.876
31.849
31.821
31.793
31.765
31.739
31.716
31.699
31.689
31.688
31.698
31.721
31.761
31.818
31.895
31.995
32.12
32.273
32.456
32.671
32.917
33.193
33.496
33.823
34.169
34.531
34.901
35.277
35.651
36.019
36.376
36.717
37.038
37.337
37.612
37.861
38.084
38.28
38.45
38.595
38.715
38.811
38.884
38.936
38.968
38.983
38.984
38.974
38.954
38.926
38.892
38.853
38.809
38.763
38.714
38.664
38.614
38.565
38.518
38.474
38.435
38.399
38.368
38.339
38.312
38.287
38.263
38.238
38.213
38.186
38.155
38.122
38.084
38.041
37.993
37.939
37.88
37.815
37.744
37.669
37.589
37.506
37.42
37.332
37.244
37.156
37.072
36.992
36.919
36.854
36.797
36.75
36.712
36.681
36.657
36.638
36.624
36.613
36.603
36.596
36.59
36.585
36.579
36.573
36.565
36.557
36.548
36.538
36.528
36.516
36.502
36.486
36.467
36.446
36.421
36.393
36.363
36.33
36.294
36.255
36.214
36.17
36.123
36.075
36.027
35.977
35.926
35.874
35.82
35.767
35.713
35.659
35.604
35.549
35.492
35.435
35.378
35.319
35.26
35.201
35.142
35.085
35.029
34.974
34.919
34.865
34.813
34.76
34.707
34.653
34.598
34.543
34.487
34.431
34.376
34.32
34.266
34.215
34.166
34.121
34.079
34.041
34.005
33.973
33.943
33.914
33.887
33.86
33.833
33.805
33.778
33.75
33.721
33.692
33.663
33.634
33.606
33.578
33.549
33.521
33.492
33.462
33.432
33.4
33.367
33.333
33.301
33.269
33.24
33.213
33.188
33.166
33.147
33.131
33.118
33.106
33.095
33.085
33.074
33.062
33.049
33.035
33.021
33.005
32.99
32.975
32.96
32.946
32.934
32.924
32.916
32.909
32.903
32.897
32.891
32.883
32.875
32.862
32.845
32.823
32.797
32.768
32.737
32.703
32.668
32.634
32.6
32.569
32.542
32.519
32.5
32.485
32.474
32.465
32.458
32.452
32.448
32.446
32.444
32.444
32.446
32.452
32.466
32.491
32.53
32.588
32.668
32.773
32.906
33.068
33.26
33.482
33.731
34.006
34.303
34.619
34.95
35.292
35.641
35.993
36.343
36.685
37.014
37.325
37.614
37.877
38.113
38.32
38.498
38.645
38.764
38.856
38.924
38.97
38.996
39.006
39.001
38.985
38.96
38.928
38.891
38.85
38.806
38.761
38.714
38.668
38.623
38.579
38.535
38.493
38.452
38.41
38.369
38.327
38.285
38.241
38.197
38.152
38.105
38.056
38.005
37.951
37.894
37.834
37.769
37.7
37.625
37.546
37.463
37.376
37.286
37.194
37.1
37.008
36.917
36.829
36.744
36.665
36.593
36.53
36.474
36.428
36.39
36.359
36.335
36.317
36.304
36.294
36.286
36.28
36.274
36.268
36.26
36.252
36.241
36.229
36.215
36.2
36.183
36.165
36.147
36.126
36.105
36.083
36.059
36.034
36.006
35.976
35.942
35.906
35.866
35.823
35.778
35.73
35.678
35.624
35.568
35.509
35.447
35.384
35.319
35.254
35.188
35.122
35.057
34.994
34.933
34.875
34.82
34.766
34.713
34.66
34.609
34.558
34.506
34.455
34.403
34.351
34.3
34.251
34.203
34.157
34.114
34.073
34.034
33.996
33.959
33.923
33.887
33.851
33.814
33.778
33.742
33.707
33.674
33.643
33.615
33.589
33.565
33.544
33.525
33.507
33.491
33.473
33.454
33.432
33.406
33.376
33.341
33.302
33.258
33.205
33.143
33.071
32.994
32.914
32.837
32.767
32.706
32.657
32.621
32.597
32.585
32.583
32.588
32.599
32.612
32.626
32.639
32.649
32.656
32.66
32.658
32.653
32.643
32.63
32.615
32.597
32.577
32.554
32.529
32.501
32.471
32.439
32.405
32.371
32.336
32.301
32.268
32.236
32.206
32.18
32.157
32.139
32.126
32.117
32.114
32.119
32.133
32.157
32.193
32.245
32.316
32.408
32.525
32.668
32.841
33.044
33.277
33.541
33.834
34.152
34.492
34.85
35.22
35.595
35.969
36.337
36.691
37.029
37.344
37.635
37.899
38.133
38.337
38.511
38.657
38.776
38.87
38.942
38.994
39.029
39.05
39.06
39.061
39.056
39.046
39.033
39.019
39.003
38.986
38.969
38.95
38.931
38.912
38.892
38.871
38.849
38.827
38.805
38.783
38.761
38.739
38.716
38.693
38.67
38.646
38.621
38.594
38.564
38.531
38.494
38.453
38.407
38.356
38.298
38.234
38.163
38.086
38.003
37.916
37.824
37.73
37.635
37.541
37.449
37.361
37.279
37.203
37.135
37.075
37.023
36.978
36.94
36.907
36.88
36.857
36.837
36.818
36.801
36.784
36.767
36.75
36.731
36.711
36.69
36.668
36.646
36.623
36.6
36.575
36.549
36.521
36.491
36.458
36.423
36.386
36.347
36.306
36.264
36.22
36.174
36.125
36.075
36.021
35.964
35.902
35.838
35.77
35.7
35.63
35.56
35.49
35.422
35.356
35.294
35.235
35.179
35.124
35.071
35.018
34.966
34.912
34.858
34.802
34.745
34.688
34.632
34.577
34.524
34.473
34.424
34.378
34.334
34.292
34.251
34.21
34.17
34.131
34.093
34.059
34.027
33.999
33.972
33.947
33.923
33.899
33.874
33.847
33.818
33.787
33.752
33.714
33.674
33.632
33.589
33.547
33.505
33.465
33.428
33.395
33.366
33.342
33.323
33.308
33.297
33.288
33.281
33.274
33.266
33.257
33.245
33.231
33.214
33.196
33.176
33.156
33.136
33.117
33.1
33.083
33.066
33.049
33.032
33.013
32.994
32.973
32.951
32.928
32.905
32.883
32.861
32.84
32.818
32.797
32.777
32.756
32.735
32.712
32.687
32.661
32.635
32.609
32.583
32.558
32.535
32.514
32.498
32.486
32.481
32.483
32.494
32.515
32.548
32.596
32.661
32.744
32.85
32.981
33.139
33.325
33.542
33.788
34.063
34.364
34.688
35.031
35.386
35.75
36.115
36.476
36.828
37.165
37.483
37.778
38.046
38.287
38.5
38.685
38.845
38.978
39.087
39.173
39.238
39.284
39.314
39.329
39.332
39.324
39.309
39.288
39.262
39.233
39.203
39.172
39.142
39.115
39.089
39.065
39.044
39.025
39.008
38.992
38.976
38.96
38.945
38.931
38.917
38.903
38.888
38.871
38.853
38.832
38.809
38.781
38.748
38.71
38.663
38.609
38.546
38.473
38.391
38.3
38.202
38.099
37.992
37.885
37.778
37.673
37.574
37.482
37.397
37.32
37.25
37.188
37.133
37.085
37.044
37.009
36.979
36.954
36.934
36.917
36.902
36.889
36.876
36.861
36.845
36.826
36.803
36.778
36.751
36.722
36.691
36.66
36.628
36.595
36.561
36.526
36.488
36.448
36.405
36.359
36.311
36.26
36.208
36.154
36.1
36.046
35.992
35.939
35.886
35.834
35.782
35.73
35.677
35.623
35.567
35.509
35.451
35.39
35.33
35.269
35.209
35.15
35.091
35.034
34.978
34.923
34.868
34.814
34.759
34.704
34.65
34.597
34.546
34.497
34.451
34.408
34.368
34.332
34.299
34.271
34.246
34.222
34.2
34.178
34.154
34.128
34.1
34.069
34.037
34.002
33.966
33.93
33.893
33.856
33.82
33.784
33.75
33.717
33.685
33.655
33.625
33.596
33.567
33.539
33.511
33.483
33.456
33.429
33.403
33.378
33.353
33.329
