Trial 3:3back
41.072
41.062
41.015
40.937
40.833
40.708
40.565
40.41
40.248
40.08
39.91
39.739
39.569
39.398
39.229
39.061
38.895
38.731
38.57
38.412
38.256
38.102
37.951
37.802
37.656
37.512
37.37
37.229
37.088
36.947
36.806
36.664
36.523
36.38
36.238
36.096
35.954
35.812
35.672
35.535
35.403
35.275
35.154
35.041
34.937
34.843
34.759
34.685
34.622
34.57
34.529
34.5
34.481
34.473
34.474
34.483
34.5
34.522
34.548
34.578
34.61
34.642
34.673
34.702
34.728
34.749
34.766
34.78
34.789
34.796
34.799
34.799
34.795
34.787
34.776
34.761
34.742
34.72
34.694
34.663
34.627
34.585
34.538
34.485
34.429
34.367
34.302
34.234
34.164
34.092
34.02
33.946
33.871
33.796
33.72
33.643
33.566
33.491
33.416
33.343
33.272
33.201
33.131
33.061
32.99
32.919
32.848
32.776
32.706
32.638
32.573
32.51
32.449
32.391
32.334
32.277
32.221
32.167
32.113
32.061
32.011
31.962
31.915
31.87
31.826
31.783
31.741
31.699
31.658
31.618
31.579
31.543
31.51
31.482
31.46
31.444
31.438
31.443
31.463
31.502
31.564
31.655
31.781
31.949
32.162
32.425
32.74
33.108
33.528
33.994
34.502
35.042
35.607
36.185
36.767
37.342
37.9
38.432
38.928
39.382
39.787
40.14
40.437
40.679
40.866
40.999
41.08
41.115
41.106
41.058
40.976
40.866
40.732
40.579
40.412
40.234
40.05
39.86
39.669
39.477
39.287
39.1
38.917
38.738
38.564
38.393
38.226
38.062
37.901
37.741
37.582
37.424
37.267
37.11
36.953
36.797
36.642
36.487
36.332
36.178
36.023
35.869
35.716
35.565
35.416
35.272
35.132
34.998
34.872
34.76
34.663
34.582
34.518
34.467
34.428
34.399
34.379
34.366
34.36
34.359
34.361
34.368
34.379
34.393
34.411
34.432
34.457
34.485
34.514
34.546
34.578
34.61
34.642
34.673
34.7
34.722
34.739
34.752
34.759
34.762
34.761
34.754
34.743
34.727
34.706
34.679
34.647
34.609
34.566
34.516
34.46
34.4
34.336
34.268
34.197
34.122
34.045
33.964
33.882
33.798
33.714
33.631
33.549
33.47
33.393
33.319
33.248
33.181
33.119
33.059
33.002
32.947
32.893
32.84
32.787
32.734
32.679
32.623
32.565
32.505
32.445
32.384
32.323
32.264
32.205
32.149
32.095
32.043
31.993
31.945
31.897
31.852
31.808
31.766
31.726
31.688
31.654
31.624
31.598
31.576
31.559
31.549
31.546
31.552
31.569
31.601
31.655
31.734
31.844
31.992
32.182
32.42
32.706
33.042
33.428
33.861
34.335
34.846
35.384
35.94
36.506
37.072
37.628
38.163
38.669
39.138
39.564
39.941
40.265
40.533
40.744
40.898
40.997
41.044
41.043
40.998
40.915
40.801
40.66
40.498
40.322
40.137
39.946
39.753
39.56
39.369
39.181
38.996
38.814
38.633
38.453
38.274
38.094
37.914
37.734
37.553
37.373
37.193
37.014
36.835
36.658
36.482
36.307
36.135
35.964
35.795
35.629
35.466
35.306
35.151
35.001
34.858
34.722
34.594
34.477
34.372
34.28
34.2
34.134
34.082
34.043
34.016
34.001
33.998
34.007
34.025
34.052
34.088
34.132
34.182
34.236
34.294
34.354
34.413
34.47
34.525
34.577
34.625
34.669
34.707
34.739
34.767
34.788
34.803
34.81
34.808
34.798
34.78
34.753
34.72
34.682
34.64
34.595
34.549
34.501
34.452
34.403
34.352
34.299
34.243
34.185
34.124
34.06
33.995
33.927
33.859
33.788
33.717
33.645
33.57
33.495
33.419
33.343
33.266
33.188
33.111
33.034
32.959
32.885
32.813
32.743
32.676
32.612
32.549
32.488
32.429
32.373
32.318
32.265
32.214
32.165
32.119
32.075
32.032
31.992
31.954
31.918
31.884
31.853
31.824
31.801
31.783
31.774
31.775
31.792
31.828
31.887
31.975
32.097
32.258
32.464
32.718
33.022
33.377
33.782
34.234
34.728
35.256
35.809
36.379
36.955
37.527
38.083
38.614
39.11
39.562
39.966
40.316
40.611
40.849
41.032
41.161
41.239
41.269
41.255
41.204
41.119
41.008
40.874
40.722
40.557
40.382
40.2
40.013
39.825
39.637
39.451
39.268
39.088
38.911
38.738
38.567
38.399
38.232
38.066
37.9
37.734
37.566
37.396
37.225
37.052
36.879
36.708
36.539
36.373
36.211
36.052
35.897
35.746
35.599
35.456
35.317
35.182
35.052
34.926
34.808
34.698
34.596
34.504
34.422
34.351
34.293
34.248
34.215
34.194
34.184
34.184
34.193
34.209
34.231
34.26
34.293
34.33
34.371
34.415
34.461
34.509
34.555
34.598
34.638
34.672
34.699
34.719
34.732
34.738
34.738
34.731
34.719
34.701
34.677
34.647
34.612
34.571
34.524
34.473
34.417
34.358
34.296
34.233
34.17
34.106
34.041
33.974
33.906
33.837
33.767
33.695
33.623
33.55
33.477
33.405
33.334
33.264
33.197
33.131
33.066
33.002
32.938
32.873
32.808
32.743
32.678
32.612
32.546
32.481
32.415
32.351
32.286
32.222
32.158
32.096
32.036
31.978
31.924
31.875
31.83
31.79
31.755
31.724
31.698
31.676
31.659
31.65
31.652
31.668
31.705
31.767
31.858
31.985
32.152
32.364
32.625
32.936
33.299
33.711
34.171
34.674
35.213
35.781
36.37
36.969
37.567
38.153
38.716
39.247
39.736
40.176
40.561
40.889
41.155
41.361
41.507
41.595
41.631
41.619
41.568
41.482
41.368
41.232
41.079
40.915
40.743
40.567
40.388
40.21
40.033
39.858
39.685
39.515
39.346
39.181
39.018
38.857
38.697
38.538
38.379
38.22
38.061
37.902
37.742
37.583
37.424
37.265
37.107
36.951
36.796
36.643
36.49
36.338
36.186
36.036
35.888
35.742
35.601
35.465
35.336
35.214
35.101
34.997
34.902
34.818
34.744
34.68
34.625
34.579
34.542
34.514
34.494
34.482
34.477
34.481
34.49
34.506
34.526
34.55
34.577
34.607
34.638
34.67
34.703
34.735
34.766
34.794
34.819
34.838
34.851
34.857
34.856
34.848
34.832
34.81
34.781
34.743
34.697
34.645
34.587
34.523
34.456
34.386
34.313
34.239
34.164
34.09
34.016
33.942
33.87
33.797
33.724
33.652
33.58
33.509
33.438
33.368
33.299
33.23
33.16
33.091
33.021
32.95
32.879
32.808
32.737
32.667
32.6
32.535
32.473
32.413
32.354
32.298
32.242
32.189
32.137
32.085
32.035
31.985
31.937
31.889
31.844
31.8
31.76
31.722
31.687
31.656
31.629
31.607
31.593
31.589
31.599
31.626
31.676
31.755
31.866
32.016
32.21
32.451
32.744
33.089
33.485
33.932
34.423
34.955
35.518
36.103
36.703
37.305
37.901
38.479
39.031
39.546
40.019
40.441
40.809
41.119
41.37
41.562
41.697
41.777
41.808
41.793
41.739
41.649
41.53
41.385
41.221
41.042
40.852
40.654
40.451
40.246
40.041
39.839
39.639
39.445
39.254
39.07
38.89
38.715
38.543
38.375
38.208
38.043
37.878
37.712
37.546
37.38
37.216
37.051
36.887
36.724
36.563
36.403
36.246
36.089
35.935
35.782
35.631
35.484
35.341
35.205
35.076
34.956
34.845
34.744
34.653
34.572
34.5
34.437
34.383
34.336
34.298
34.268
34.248
34.236
34.234
34.241
34.256
34.277
34.303
34.333
34.367
34.402
34.439
34.477
34.514
34.551
34.585
34.616
34.643
34.665
34.681
34.69
34.692
34.685
34.671
34.649
34.621
34.587
34.547
34.503
34.455
34.404
34.349
34.292
34.231
34.169
34.104
34.037
33.969
33.9
33.83
33.758
33.685
33.61
33.533
33.454
33.372
33.289
33.206
33.123
33.04
32.96
32.881
32.806
32.734
32.665
32.599
32.536
32.475
32.417
32.362
32.308
32.256
32.206
32.157
32.11
32.064
32.021
31.979
31.937
31.896
31.854
31.812
31.77
31.729
31.688
31.648
31.61
31.576
31.546
31.524
31.51
31.508
31.522
31.556
31.615
31.706
31.832
32.001
32.216
32.482
32.8
33.171
33.594
34.067
34.584
35.137
35.717
36.314
36.916
37.513
38.094
38.648
39.165
39.638
40.058
40.421
40.724
40.966
41.147
41.271
41.341
41.363
41.342
41.283
41.192
41.074
40.935
40.778
40.61
40.433
40.25
40.064
39.874
39.684
39.493
39.305
39.118
38.935
38.757
38.582
38.413
38.247
38.084
37.923
37.763
37.604
37.444
37.284
37.122
36.961
36.798
36.636
36.474
36.314
36.156
36.0
35.848
35.698
35.552
35.409
35.271
35.138
35.01
34.891
34.781
34.681
34.591
34.511
34.442
34.384
34.337
34.3
34.272
34.255
34.248
34.25
34.26
34.278
34.303
34.334
34.37
34.409
34.449
34.491
34.532
34.57
34.606
34.639
34.669
34.695
34.716
34.732
34.743
34.749
34.749
34.743
34.729
34.709
34.683
34.65
34.611
34.567
34.519
34.467
34.414
34.357
34.299
34.238
34.176
34.112
34.045
33.976
33.905
33.834
33.761
33.687
33.613
33.538
33.464
33.391
33.319
33.247
33.175
33.103
33.032
32.961
32.891
32.824
32.76
32.699
32.64
32.584
32.529
32.475
32.421
32.367
32.314
32.261
32.211
32.161
32.113
32.066
32.019
31.972
31.925
31.88
31.838
31.804
31.779
31.768
31.774
31.802
31.857
31.945
32.069
32.234
32.444
32.704
33.015
33.378
33.79
34.25
34.75
35.285
35.844
36.419
36.997
37.569
38.123
38.65
39.141
39.588
39.986
40.329
40.615
40.844
41.015
41.133
41.199
41.218
41.193
41.13
41.034
40.91
40.764
40.599
40.421
40.233
40.039
39.842
39.644
39.447
39.254
39.064
38.878
38.695
38.513
38.333
38.154
37.976
37.799
37.622
37.446
37.272
37.098
36.925
36.752
36.579
36.407
36.234
36.06
35.888
35.716
35.546
35.38
35.219
35.064
34.916
34.777
34.648
34.529
34.423
34.329
34.249
34.183
34.129
34.088
34.059
34.042
34.034
34.036
34.046
34.065
34.091
34.123
34.16
34.203
34.249
34.299
34.352
34.405
34.459
34.512
34.563
34.611
34.654
34.693
34.725
34.749
34.766
34.774
34.775
34.768
34.753
34.731
34.701
34.664
34.622
34.575
34.525
34.473
34.419
34.364
34.308
34.252
34.195
34.139
34.082
34.023
33.962
33.899
33.833
33.766
33.698
33.629
33.559
33.488
33.416
33.344
33.271
33.2
33.129
33.059
32.99
32.922
32.855
32.79
32.725
32.66
32.597
32.534
32.473
32.413
32.356
32.302
32.25
32.201
32.154
32.11
32.072
32.04
32.019
32.013
32.025
32.061
32.126
32.224
32.36
32.538
32.761
33.031
33.351
33.719
34.135
34.593
35.089
35.616
36.165
36.726
37.289
37.844
38.38
38.889
39.36
39.788
40.167
40.492
40.762
40.975
41.133
41.239
41.295
41.306
41.276
41.21
41.112
40.988
40.843
40.682
40.509
40.328
40.144
39.959
39.776
39.594
39.414
39.235
39.057
38.88
38.704
38.528
38.354
38.18
38.007
37.835
37.664
37.494
37.326
37.16
36.996
36.833
36.671
36.51
36.347
36.184
36.02
35.857
35.696
35.538
35.384
35.237
35.099
34.971
34.852
34.745
34.648
34.563
34.488
34.424
34.371
34.327
34.295
34.273
34.262
34.26
34.267
34.283
34.305
34.334
34.366
34.401
34.436
34.471
34.505
34.538
34.569
34.599
34.626
34.651
34.671
34.687
34.697
34.703
34.702
34.696
34.683
34.664
34.64
34.609
34.573
34.533
34.49
34.444
34.395
34.343
34.288
34.232
34.175
34.116
34.058
34.0
33.942
33.884
33.827
33.769
33.711
33.651
33.589
33.524
33.455
33.384
33.311
33.236
33.159
33.082
33.005
32.929
32.855
32.783
32.712
32.644
32.578
32.513
32.451
32.39
32.331
32.274
32.219
32.164
32.112
32.063
32.019
31.98
31.949
31.928
31.92
31.928
31.957
32.011
32.096
32.216
32.376
32.58
32.831
33.133
33.485
33.888
34.338
34.83
35.356
35.909
36.48
37.058
37.632
38.193
38.73
39.234
39.697
40.112
40.475
40.783
41.035
41.231
41.371
41.458
41.497
41.491
41.447
41.369
41.263
41.135
40.989
40.83
40.661
40.486
40.305
40.123
39.94
39.757
39.575
39.394
39.217
39.043
38.871
38.702
38.537
38.375
38.217
38.06
37.906
37.752
37.599
37.448
37.297
37.146
36.996
36.845
36.694
36.542
36.389
36.237
36.085
35.936
35.79
35.648
35.512
35.382
35.258
35.142
35.032
34.929
34.835
34.748
34.67
34.602
34.545
34.5
34.468
34.447
34.438
34.44
34.451
34.469
34.493
34.521
34.551
34.583
34.615
34.647
34.678
34.709
34.738
34.765
34.789
34.808
34.822
34.829
34.83
34.823
34.808
34.786
34.757
34.722
34.682
34.638
34.592
34.543
34.492
34.44
34.386
34.33
34.272
34.212
34.149
34.085
34.019
33.952
33.885
33.818
33.751
33.685
33.62
33.556
33.49
33.423
33.354
33.283
33.209
33.135
33.059
32.984
32.91
32.837
32.766
32.695
32.627
32.559
32.491
32.424
32.357
32.293
32.231
32.172
32.115
32.062
32.014
31.969
31.93
31.896
31.871
31.857
31.858
31.878
31.922
31.994
32.102
32.249
32.442
32.683
32.975
33.319
33.716
34.162
34.654
35.183
35.742
36.322
36.911
37.498
38.072
38.622
39.14
39.617
40.044
40.418
40.734
40.991
41.188
41.327
41.412
41.446
41.435
41.385
41.301
41.188
41.054
40.901
40.736
40.56
40.378
40.193
40.008
39.825
39.644
39.466
39.292
39.121
38.955
38.79
38.626
38.463
38.299
38.134
37.968
37.801
37.635
37.47
37.306
37.142
36.979
36.816
36.655
36.495
36.336
36.177
36.019
35.861
35.705
35.551
35.401
35.255
35.116
34.984
34.861
34.747
34.644
34.551
34.469
34.397
34.336
34.285
34.245
34.216
34.197
34.188
34.188
34.196
34.212
34.234
34.261
34.293
34.331
34.373
34.416
34.46
34.503
34.543
34.58
34.611
34.635
34.652
34.662
34.663
34.655
34.641
34.62
34.594
34.563
34.528
34.49
34.448
34.403
34.356
34.307
34.255
34.201
34.145
34.086
34.024
33.959
33.892
33.821
33.748
33.672
33.595
33.519
33.442
33.367
33.293
33.22
33.149
33.078
33.008
32.94
32.873
32.808
32.745
32.684
32.625
32.568
32.512
32.456
32.4
32.343
32.286
32.229
32.174
32.121
32.07
32.021
31.972
31.924
31.877
31.83
31.786
31.746
31.712
31.685
31.668
31.665
31.677
31.708
31.763
31.845
31.961
32.115
32.313
32.559
32.857
33.209
33.613
34.066
34.564
35.098
35.659
36.238
36.824
37.405
37.969
38.506
39.008
39.466
39.875
40.23
40.53
40.773
40.96
41.094
41.176
41.213
41.207
41.163
41.087
40.981
40.852
40.704
40.54
40.363
40.178
39.988
39.796
39.602
39.408
39.215
39.025
38.837
38.652
38.469
38.288
38.11
37.935
37.762
37.591
37.421
37.252
37.083
36.913
36.742
36.569
36.395
36.221
36.048
35.876
35.709
35.546
35.39
35.242
35.102
34.969
34.845
34.73
34.624
34.527
34.441
34.366
34.302
34.25
34.21
34.181
34.163
34.156
34.159
34.171
34.19
34.215
34.246
34.281
34.319
34.361
34.406
34.452
34.5
34.547
34.592
34.634
34.672
34.704
34.73
34.749
34.761
34.767
34.767
34.76
34.747
34.728
34.704
34.674
34.639
34.598
34.555
34.51
34.466
34.422
34.378
34.332
34.285
34.235
34.181
34.124
34.062
33.997
33.926
33.852
33.774
33.693
33.609
33.524
33.438
33.351
33.265
33.18
33.096
33.016
32.938
32.863
32.791
32.722
32.655
32.592
32.534
32.478
32.426
32.376
32.329
32.285
32.243
32.202
32.161
32.12
32.079
32.039
32.0
31.965
31.934
31.91
31.897
31.896
31.914
31.953
32.021
32.122
32.261
32.445
32.677
32.961
33.297
33.685
34.122
34.602
35.118
35.661
36.223
36.791
37.357
37.91
38.44
38.937
39.392
39.8
40.156
40.457
40.702
40.892
41.029
41.116
41.156
41.153
41.112
41.036
40.929
40.797
40.644
40.475
40.294
40.105
39.913
39.719
39.526
39.336
39.15
38.969
38.793
38.621
38.453
38.287
38.123
37.959
37.797
37.634
37.471
37.308
37.144
36.979
36.813
36.646
36.478
36.31
36.141
35.974
35.809
35.648
35.492
35.341
35.197
35.06
34.932
34.813
34.703
34.603
34.515
34.438
34.372
34.319
34.277
34.247
34.228
34.22
34.221
34.23
34.246
34.268
34.295
34.327
34.363
34.403
34.445
34.489
34.533
34.575
34.616
34.653
34.684
34.709
34.727
34.738
34.742
34.74
34.733
34.722
34.707
34.689
34.666
34.64
34.609
34.575
34.536
34.492
34.442
34.386
34.327
34.265
34.201
34.136
34.071
34.005
33.939
33.872
33.805
33.738
33.671
33.604
33.538
33.471
33.404
33.338
33.27
33.201
33.132
33.061
32.99
32.918
32.845
32.773
32.702
32.632
32.565
32.502
32.442
32.386
32.333
32.284
32.237
32.192
32.15
32.109
32.071
32.036
32.006
31.983
31.969
31.966
31.977
32.006
32.057
32.137
32.251
32.405
32.605
32.855
33.157
33.511
33.916
34.368
34.862
35.389
35.94
36.504
37.071
37.63
38.172
38.686
39.166
39.605
39.997
40.339
40.629
40.864
41.046
41.176
41.257
41.291
41.282
41.234
41.151
41.04
40.905
40.751
40.582
40.404
40.219
40.032
39.845
39.659
39.476
39.297
39.122
38.95
38.782
38.617
38.455
38.296
38.139
37.982
37.827
37.673
37.519
37.365
37.211
37.055
36.898
36.74
36.581
36.422
36.264
36.106
35.95
35.796
35.646
35.5
35.361
35.228
35.103
34.986
34.876
34.776
34.684
34.601
34.527
34.464
34.41
34.366
34.331
34.305
34.289
34.282
34.284
34.294
34.312
34.339
34.373
34.412
34.456
34.502
34.549
34.595
34.638
34.677
34.711
34.738
34.759
34.771
34.775
34.77
34.758
34.738
34.712
34.68
34.644
34.605
34.564
34.52
34.474
34.427
34.378
34.327
34.274
34.217
34.157
34.095
34.03
33.963
33.894
33.823
33.751
33.678
33.604
33.53
33.456
33.383
33.31
33.238
33.166
33.095
33.025
32.954
32.884
32.813
32.742
32.671
32.602
32.534
32.467
32.403
32.339
32.277
32.216
32.154
32.094
32.035
31.978
31.925
31.877
31.836
31.805
31.784
31.778
31.789
31.821
31.879
31.967
32.091
32.257
32.467
32.726
33.035
33.392
33.794
34.239
34.721
35.231
35.762
36.305
36.851
37.391
37.916
38.417
38.888
39.321
39.711
40.055
40.348
40.59
40.779
40.917
41.006
41.049
41.052
41.017
40.949
40.852
40.731
40.588
40.43
40.259
40.079
39.893
39.705
39.518
39.332
39.15
38.972
38.799
38.63
38.466
38.307
38.152
37.999
37.85
37.702
37.555
37.408
37.261
37.113
36.964
36.814
36.664
36.513
36.362
36.212
36.062
35.912
35.763
35.615
35.468
35.325
35.186
35.053
34.929
34.814
34.711
34.618
34.537
34.467
34.409
34.362
34.324
34.294
34.272
34.256
34.247
34.244
34.248
34.259
34.277
34.299
34.325
34.353
34.383
34.413
34.442
34.469
34.494
34.517
34.536
34.552
34.564
34.572
34.575
34.574
34.569
34.561
34.548
34.533
34.512
34.487
34.456
34.419
34.376
34.329
34.277
34.221
34.162
34.1
34.036
33.97
33.902
33.832
33.761
33.689
33.616
33.542
33.469
33.397
33.326
33.256
33.189
33.122
33.057
32.993
32.931
32.869
32.809
32.751
32.693
32.635
32.578
32.521
32.465
32.409
32.354
32.299
32.244
32.191
32.14
32.092
32.046
32.005
31.969
31.94
31.92
31.913
31.921
31.951
32.007
32.092
32.212
32.373
32.578
32.829
33.13
33.479
33.874
34.314
34.791
35.298
35.828
36.371
36.917
37.454
37.973
38.464
38.919
39.332
39.699
40.016
40.282
40.496
40.657
40.768
40.83
40.846
40.822
40.763
40.673
40.558
40.422
40.27
40.106
39.934
39.756
39.576
39.395
39.214
39.035
38.857
38.681
38.506
38.334
38.164
37.996
37.83
37.666
37.503
37.343
37.183
37.025
36.869
36.715
36.563
36.412
36.261
36.112
35.963
35.816
35.67
35.525
35.383
35.244
35.11
34.981
34.86
34.747
34.644
34.549
34.465
34.39
34.325
34.27
34.224
34.187
34.159
34.14
34.131
34.132
34.144
34.165
34.195
34.23
34.271
34.313
34.357
34.399
34.439
34.477
34.512
34.543
34.571
34.595
34.615
34.63
34.639
34.642
34.638
34.627
34.61
34.586
34.555
34.519
34.478
34.433
34.385
34.334
34.28
34.225
34.166
34.105
34.042
33.977
33.909
33.84
33.769
33.697
33.626
33.556
33.486
33.417
33.35
33.283
33.216
33.15
33.084
33.018
32.952
32.886
32.82
32.754
32.69
32.628
32.568
32.508
32.45
32.392
32.334
32.278
32.222
32.169
32.118
32.072
32.029
31.993
31.963
31.943
31.934
31.941
31.967
32.017
32.096
32.211
32.366
32.563
32.807
33.097
33.434
33.814
34.235
34.691
35.176
35.684
36.205
36.731
37.253
37.762
38.25
38.707
39.127
39.505
39.837
40.119
40.351
40.531
40.661
40.744
40.784
40.785
40.751
40.687
40.598
40.488
40.362
40.222
40.072
39.915
39.754
39.59
39.424
39.255
39.087
38.919
38.752
38.586
38.42
38.257
38.095
37.934
37.775
37.616
37.458
37.302
37.146
36.99
