Trial 3:3back
36.695
36.921
37.132
37.329
37.507
37.667
37.806
37.924
38.021
38.098
38.157
38.199
38.226
38.239
38.239
38.227
38.207
38.179
38.146
38.109
38.07
38.031
37.992
37.954
37.916
37.878
37.838
37.797
37.753
37.707
37.656
37.6
37.538
37.471
37.396
37.316
37.23
37.141
37.048
36.953
36.857
36.76
36.665
36.571
36.481
36.394
36.311
36.234
36.161
36.094
36.031
35.972
35.917
35.865
35.815
35.769
35.724
35.682
35.642
35.605
35.57
35.539
35.511
35.488
35.47
35.456
35.445
35.438
35.432
35.428
35.425
35.421
35.418
35.413
35.406
35.395
35.379
35.358
35.332
35.3
35.265
35.227
35.187
35.147
35.107
35.067
35.027
34.987
34.949
34.912
34.877
34.844
34.813
34.781
34.749
34.715
34.681
34.645
34.609
34.57
34.53
34.488
34.443
34.395
34.345
34.293
34.239
34.183
34.127
34.069
34.01
33.952
33.894
33.838
33.785
33.734
33.685
33.637
33.591
33.546
33.505
33.466
33.431
33.399
33.368
33.339
33.309
33.279
33.248
33.217
33.185
33.152
33.117
33.08
33.043
33.005
32.969
32.937
32.911
32.893
32.884
32.886
32.901
32.931
32.979
33.046
33.135
33.245
33.376
33.527
33.696
33.881
34.082
34.297
34.524
34.76
35.003
35.247
35.49
35.728
35.956
36.175
36.38
36.572
36.748
36.907
37.049
37.172
37.277
37.364
37.433
37.487
37.527
37.554
37.569
37.575
37.571
37.558
37.536
37.508
37.475
37.438
37.398
37.358
37.315
37.272
37.225
37.176
37.123
37.067
37.009
36.948
36.886
36.823
36.757
36.69
36.621
36.552
36.483
36.417
36.353
36.292
36.235
36.18
36.128
36.078
36.031
35.987
35.946
35.909
35.875
35.843
35.812
35.784
35.756
35.731
35.708
35.688
35.671
35.657
35.646
35.637
35.631
35.625
35.622
35.62
35.619
35.62
35.621
35.623
35.623
35.622
35.619
35.613
35.606
35.599
35.59
35.582
35.572
35.562
35.552
35.542
35.534
35.527
35.522
35.518
35.515
35.513
35.511
35.509
35.508
35.506
35.503
35.499
35.491
35.48
35.464
35.441
35.413
35.38
35.341
35.298
35.251
35.201
35.149
35.096
35.044
34.994
34.948
34.904
34.863
34.822
34.781
34.739
34.697
34.654
34.612
34.568
34.523
34.476
34.426
34.373
34.318
34.261
34.204
34.147
34.09
34.035
33.983
33.934
33.89
33.852
33.821
33.798
33.785
33.783
33.794
33.819
33.859
33.917
33.993
34.087
34.197
34.323
34.462
34.613
34.774
34.944
35.121
35.303
35.488
35.671
35.85
36.021
36.184
36.337
36.479
36.612
36.734
36.844
36.943
37.027
37.098
37.154
37.197
37.227
37.247
37.257
37.257
37.248
37.23
37.205
37.172
37.134
37.09
37.043
36.993
36.942
36.888
36.833
36.776
36.718
36.657
36.596
36.533
36.47
36.407
36.341
36.274
36.202
36.127
36.047
35.964
35.879
35.793
35.705
35.616
35.526
35.438
35.351
35.267
35.188
35.116
35.05
34.991
34.939
34.896
34.859
34.83
34.81
34.798
34.793
34.793
34.798
34.805
34.814
34.823
34.832
34.84
34.846
34.849
34.851
34.85
34.848
34.844
34.84
34.836
34.834
34.831
34.828
34.825
34.821
34.818
34.815
34.812
34.808
34.803
34.795
34.783
34.768
34.75
34.73
34.708
34.684
34.659
34.631
34.6
34.567
34.531
34.493
34.454
34.414
34.374
34.335
34.297
34.259
34.221
34.184
34.147
34.11
34.073
34.036
33.999
33.959
33.919
33.878
33.836
33.793
33.75
33.705
33.66
33.614
33.568
33.524
33.482
33.443
33.408
33.377
33.351
33.33
33.317
33.314
33.324
33.35
33.395
33.459
33.543
33.647
33.771
33.914
34.076
34.255
34.451
34.66
34.878
35.101
35.325
35.546
35.761
35.966
36.161
36.345
36.517
36.676
36.821
36.951
37.066
37.167
37.256
37.332
37.397
37.453
37.499
37.536
37.565
37.585
37.596
37.601
37.599
37.593
37.582
37.566
37.546
37.52
37.487
37.447
37.399
37.345
37.285
37.22
37.152
37.081
37.008
36.932
36.855
36.775
36.693
36.611
36.528
36.447
36.366
36.288
36.21
36.134
36.06
35.987
35.917
35.849
35.783
35.719
35.657
35.597
35.539
35.484
35.432
35.384
35.342
35.304
35.271
35.243
35.219
35.199
35.182
35.169
35.161
35.156
35.155
35.156
35.159
35.161
35.163
35.163
35.161
35.157
35.15
35.14
35.126
35.107
35.085
35.059
35.031
35.001
34.969
34.937
34.904
34.87
34.836
34.801
34.767
34.733
34.699
34.664
34.628
34.589
34.549
34.506
34.461
34.414
34.365
34.314
34.26
34.204
34.146
34.085
34.023
33.959
33.895
33.83
33.764
33.696
33.629
33.561
33.494
33.429
33.367
33.308
33.252
33.2
33.149
33.102
33.059
33.02
32.988
32.963
32.947
32.942
32.95
32.974
33.016
33.08
33.166
33.276
33.411
33.568
33.748
33.947
34.166
34.4
34.648
34.907
35.171
35.437
35.701
35.958
36.205
36.439
36.658
36.859
37.043
37.208
37.353
37.479
37.586
37.674
37.745
37.801
37.843
37.874
37.895
37.908
37.914
37.913
37.904
37.889
37.868
37.841
37.81
37.773
37.733
37.689
37.641
37.589
37.532
37.471
37.407
37.339
37.271
37.202
37.133
37.064
36.995
36.925
36.853
36.779
36.702
36.622
36.542
36.462
36.383
36.304
36.225
36.147
36.07
35.994
35.921
35.851
35.784
35.722
35.663
35.608
35.557
35.51
35.469
35.432
35.402
35.378
35.36
35.348
35.34
35.335
35.332
35.33
35.328
35.324
35.319
35.311
35.301
35.287
35.271
35.251
35.23
35.208
35.185
35.161
35.136
35.11
35.083
35.055
35.026
34.997
34.969
34.94
34.913
34.887
34.861
34.835
34.809
34.782
34.754
34.725
34.693
34.658
34.62
34.578
34.534
34.486
34.436
34.386
34.336
34.286
34.235
34.185
34.134
34.085
34.038
33.994
33.951
33.91
33.869
33.827
33.784
33.74
33.694
33.648
33.602
33.556
33.512
33.468
33.427
33.392
33.364
33.348
33.345
33.361
33.395
33.451
33.531
33.635
33.765
33.92
34.101
34.306
34.533
34.778
35.036
35.303
35.574
35.846
36.116
36.38
36.635
36.879
37.109
37.321
37.514
37.685
37.834
37.962
38.069
38.157
38.226
38.278
38.314
38.333
38.336
38.324
38.3
38.265
38.222
38.174
38.121
38.066
38.01
37.953
37.896
37.841
37.787
37.736
37.687
37.641
37.598
37.556
37.514
37.471
37.425
37.376
37.323
37.266
37.206
37.142
37.075
37.007
36.937
36.865
36.791
36.716
36.641
36.566
36.493
36.422
36.355
36.293
36.236
36.183
36.136
36.095
36.058
36.026
35.998
35.974
35.953
35.932
35.912
35.891
35.87
35.85
35.829
35.809
35.79
35.771
35.752
35.733
35.715
35.696
35.678
35.662
35.647
35.634
35.622
35.612
35.603
35.593
35.584
35.574
35.563
35.551
35.537
35.52
35.501
35.477
35.451
35.421
35.388
35.353
35.315
35.275
35.233
35.188
35.14
35.092
35.042
34.992
34.941
34.888
34.833
34.775
34.715
34.653
34.59
34.528
34.466
34.404
34.342
34.281
34.219
34.158
34.098
34.04
33.985
33.931
33.879
33.828
33.778
33.727
33.676
33.626
33.576
33.527
33.479
33.43
33.382
33.337
33.297
33.264
33.243
33.236
33.246
33.277
33.33
33.409
33.515
33.651
33.816
34.008
34.226
34.467
34.726
35.0
35.286
35.578
35.872
36.164
36.45
36.725
36.985
37.227
37.447
37.646
37.821
37.973
38.103
38.211
38.299
38.369
38.423
38.46
38.483
38.491
38.485
38.468
38.44
38.404
38.361
38.311
38.256
38.195
38.129
38.057
37.982
37.905
37.827
37.749
37.672
37.595
37.518
37.44
37.361
37.281
37.201
37.12
37.038
36.956
36.874
36.792
36.708
36.623
36.538
36.454
36.373
36.295
36.221
36.152
36.087
36.027
35.973
35.923
35.879
35.839
35.803
35.771
35.741
35.711
35.681
35.651
35.62
35.59
35.561
35.533
35.508
35.486
35.465
35.447
35.43
35.416
35.405
35.397
35.393
35.394
35.397
35.404
35.413
35.422
35.432
35.439
35.444
35.445
35.441
35.433
35.419
35.399
35.375
35.346
35.314
35.281
35.247
35.213
35.178
35.141
35.103
35.062
35.019
34.973
34.926
34.877
34.828
34.777
34.724
34.669
34.613
34.555
34.496
34.436
34.376
34.316
34.257
34.199
34.143
34.087
34.033
33.98
33.928
33.876
33.826
33.775
33.723
33.67
33.616
33.562
33.507
33.451
33.395
33.337
33.28
33.223
33.169
33.118
33.072
33.03
32.995
32.968
32.95
32.944
32.953
32.977
33.021
33.085
33.169
33.275
33.403
33.554
33.726
33.92
34.135
34.367
34.615
34.874
35.14
35.409
35.676
35.938
36.192
36.435
36.666
36.882
37.081
37.261
37.42
37.557
37.673
37.77
37.851
37.916
37.968
38.006
38.032
38.046
38.049
38.042
38.025
37.999
37.966
37.928
37.883
37.833
37.776
37.714
37.646
37.573
37.496
37.416
37.334
37.253
37.173
37.093
37.014
36.936
36.859
36.781
36.703
36.626
36.549
36.471
36.394
36.316
36.237
36.157
36.076
35.994
35.912
35.83
35.748
35.667
35.588
35.511
35.437
35.366
35.299
35.237
35.181
35.13
35.085
35.045
35.009
34.978
34.951
34.929
34.911
34.898
34.89
34.886
34.886
34.888
34.892
34.898
34.905
34.913
34.921
34.929
34.935
34.938
34.938
34.934
34.927
34.915
34.9
34.882
34.858
34.83
34.797
34.759
34.717
34.671
34.621
34.57
34.517
34.463
34.407
34.35
34.293
34.236
34.18
34.126
34.073
34.021
33.97
33.919
33.868
33.817
33.766
33.714
33.663
33.612
33.561
33.51
33.459
33.409
33.359
33.31
33.261
33.213
33.166
33.12
33.075
33.033
32.995
32.96
32.929
32.9
32.874
32.849
32.825
32.802
32.78
32.758
32.735
32.713
32.69
32.667
32.647
32.631
32.623
32.626
32.642
32.676
32.729
32.804
32.901
33.023
33.169
33.339
33.531
33.744
33.973
34.216
34.468
34.727
34.988
35.248
35.502
35.748
35.982
36.203
36.407
36.593
36.759
36.905
37.033
37.143
37.238
37.319
37.386
37.44
37.481
37.51
37.527
37.532
37.528
37.516
37.496
37.47
37.436
37.396
37.35
37.298
37.241
37.181
37.119
37.057
36.996
36.937
36.88
36.824
36.769
36.714
36.659
36.603
36.548
36.492
36.435
36.375
36.311
36.243
36.173
36.099
36.026
35.953
35.883
35.817
35.756
35.698
35.643
35.592
35.546
35.503
35.465
35.43
35.398
35.366
35.333
35.3
35.266
35.232
35.199
35.167
35.136
35.106
35.075
35.044
35.012
34.98
34.948
34.918
34.89
34.864
34.84
34.817
34.796
34.778
34.761
34.746
34.733
34.722
34.712
34.701
34.688
34.673
34.656
34.635
34.611
34.584
34.554
34.521
34.484
34.443
34.399
34.353
34.305
34.256
34.206
34.155
34.102
34.049
33.996
33.943
33.889
33.836
33.783
33.729
33.676
33.623
33.57
33.518
33.469
33.422
33.378
33.336
33.294
33.253
33.213
33.174
33.138
33.104
33.073
33.043
33.012
32.978
32.941
32.899
32.853
32.804
32.753
32.699
32.644
32.589
32.538
32.492
32.457
32.434
32.427
32.439
32.472
32.527
32.607
32.713
32.847
33.007
33.193
33.403
33.632
33.878
34.136
34.404
34.677
34.953
35.227
35.495
35.752
35.994
36.218
36.422
36.603
36.763
36.9
37.018
37.115
37.194
37.255
37.299
37.329
37.344
37.348
37.343
37.329
37.309
37.285
37.256
37.224
37.186
37.145
37.099
37.048
36.995
36.938
36.877
36.813
36.744
36.67
36.591
36.507
36.418
36.327
36.232
36.136
36.038
35.939
35.839
35.739
35.639
35.541
35.445
35.352
35.262
35.177
35.097
35.022
34.952
34.887
34.826
34.771
34.72
34.673
34.63
34.589
34.551
34.514
34.478
34.445
34.414
34.387
34.364
34.344
34.327
34.313
34.303
34.296
34.294
34.297
34.305
34.316
34.33
34.345
34.36
34.374
34.387
34.398
34.407
34.412
34.413
34.41
34.403
34.39
34.371
34.347
34.318
34.285
34.247
34.205
34.162
34.118
34.074
34.031
33.99
33.954
33.921
33.891
33.863
33.837
33.813
33.789
33.766
33.744
33.722
33.698
33.674
33.647
33.619
33.589
33.558
33.526
33.492
33.457
33.419
33.38
33.338
33.294
33.249
33.204
33.16
33.118
33.076
33.036
32.996
32.958
32.922
32.887
32.853
32.819
32.784
32.749
32.714
32.679
32.645
32.614
32.586
32.564
32.548
32.542
32.548
32.57
32.612
32.677
32.766
32.882
33.025
33.194
33.39
33.61
33.853
34.117
34.399
34.695
34.999
35.305
35.609
35.904
36.186
36.452
36.697
36.921
37.122
37.298
37.45
37.576
37.676
37.751
37.802
37.832
37.844
37.841
37.825
37.799
37.765
37.726
37.682
37.633
37.581
37.525
37.467
37.406
37.343
37.278
37.21
37.139
37.064
36.986
36.904
36.819
36.732
36.643
36.553
36.463
36.372
36.28
36.188
36.094
36.001
35.907
35.815
35.724
35.634
35.546
35.459
35.374
35.291
35.211
35.134
35.061
34.992
34.928
34.869
34.815
34.765
34.72
34.68
34.647
34.619
34.598
34.582
34.57
34.56
34.553
34.547
34.542
34.538
34.536
34.536
34.538
34.539
34.542
34.544
34.545
34.547
34.549
34.55
34.55
34.547
34.54
34.529
34.514
34.496
34.474
34.451
34.425
34.398
34.368
34.336
34.304
34.27
34.235
34.199
34.162
34.125
34.087
34.047
34.006
33.963
33.919
33.874
33.827
33.778
33.727
33.674
33.618
33.562
33.505
33.449
33.395
33.344
33.295
33.25
33.207
33.167
33.129
33.095
33.062
33.031
33.001
32.969
32.938
32.905
32.871
32.837
32.802
32.766
32.728
32.688
32.647
32.605
32.566
32.531
32.5
32.475
32.458
32.45
32.455
32.475
32.513
32.571
32.653
32.76
32.891
33.047
33.227
33.429
33.653
33.894
34.15
34.419
34.696
34.976
35.256
35.531
35.8
36.057
36.301
36.529
36.739
36.928
37.096
37.241
37.362
37.459
37.533
37.584
37.616
37.63
37.628
37.612
37.582
37.541
37.49
37.431
37.366
37.298
37.228
37.158
37.089
37.021
36.953
36.884
36.814
36.743
36.671
36.599
36.526
36.452
36.378
36.301
36.224
36.145
36.065
35.986
35.907
35.83
35.755
35.683
35.615
35.548
35.483
35.421
35.361
35.304
35.249
35.197
35.146
35.096
35.047
34.998
34.95
34.905
34.862
34.824
34.791
34.764
34.742
34.726
34.715
34.71
34.709
34.714
34.723
34.736
34.751
34.767
34.782
34.796
34.808
34.819
34.828
34.834
34.839
34.842
34.842
34.839
34.834
34.828
34.822
34.817
34.814
34.811
34.809
34.805
34.799
34.789
34.778
34.764
34.748
34.73
34.71
34.688
34.662
34.632
34.599
34.562
34.523
34.482
34.44
34.396
34.352
34.308
34.263
34.22
34.178
34.14
34.105
34.074
34.045
34.018
33.992
33.967
33.943
33.919
33.895
33.871
33.846
33.818
33.787
33.753
33.715
33.674
33.631
33.586
33.541
33.497
33.456
33.421
33.396
33.384
33.388
33.411
33.455
33.521
33.61
33.721
33.855
34.01
34.187
34.382
34.595
34.82
35.055
35.296
35.538
35.777
36.012
36.238
36.453
36.656
36.843
37.013
37.164
37.295
37.405
37.494
37.563
37.612
37.644
37.66
37.663
37.654
37.633
37.602
37.56
37.509
37.45
37.383
37.31
37.231
37.148
37.062
36.972
36.878
36.78
36.68
36.577
36.471
36.364
36.256
36.148
36.041
35.934
35.827
35.719
35.611
35.504
35.398
35.295
35.195
35.098
35.005
34.914
34.826
34.741
34.659
34.58
34.505
34.435
34.369
34.309
34.252
34.2
34.154
34.115
34.082
34.056
34.036
34.022
34.015
34.013
34.016
34.025
34.039
34.057
34.079
34.103
34.128
34.153
34.178
34.202
34.225
34.247
34.268
34.286
34.302
34.313
34.321
34.323
34.322
34.318
34.31
34.3
34.286
34.269
34.249
34.225
34.199
34.17
34.142
34.113
34.085
34.056
34.027
33.998
33.969
33.941
33.914
33.89
33.867
33.846
33.824
33.802
33.778
33.753
33.726
33.698
33.67
33.641
33.61
33.576
33.541
33.502
33.462
33.42
33.376
33.331
33.286
33.242
33.2
33.162
33.13
33.106
33.09
33.086
33.095
33.12
33.163
33.227
33.312
33.422
33.557
33.717
33.9
34.106
34.33
34.571
34.826
35.091
35.363
35.639
35.917
36.191
36.46
36.722
36.972
37.209
37.43
37.634
37.819
37.985
38.132
38.259
38.366
38.453
38.521
38.57
38.602
38.617
38.616
38.602
38.577
38.543
38.5
38.451
38.395
38.335
38.27
38.201
38.13
38.057
37.984
37.91
37.837
37.764
37.692
37.619
37.545
37.469
37.39
37.31
37.229
37.148
37.067
36.985
36.905
36.824
36.743
36.661
36.579
36.498
36.419
36.343
36.27
36.203
36.14
36.083
36.03
35.982
35.939
35.901
35.868
35.842
35.82
35.804
35.792
35.783
35.774
35.767
35.759
35.753
35.747
35.742
35.739
35.735
35.73
35.724
35.715
35.703
35.69
35.675
35.661
35.647
35.633
35.619
35.605
35.59
35.574
35.558
35.543
35.528
35.514
35.499
35.482
35.463
35.442
35.416
35.388
35.356
35.324
35.289
35.253
35.216
35.176
35.135
35.092
35.049
35.006
34.964
34.923
34.883
34.842
34.802
34.76
34.717
34.673
34.629
34.586
34.543
34.501
34.458
34.414
34.368
34.32
34.272
34.223
34.175
34.127
34.078
34.029
33.98
33.932
33.886
33.846
33.815
33.796
33.792
33.807
33.841
33.9
33.984
34.095
34.235
34.402
34.595
34.811
35.048
35.302
35.568
35.844
36.124
36.405
36.682
36.952
37.212
37.458
37.688
37.899
38.09
38.259
38.408
38.536
38.644
38.734
38.807
38.864
38.907
38.937
38.956
38.962
38.958
38.943
38.92
38.888
38.851
38.807
38.759
38.708
38.653
38.595
38.534
38.471
38.405
38.337
38.269
38.199
38.13
38.058
37.986
37.91
37.832
37.751
37.668
37.582
37.494
37.404
37.312
37.218
37.122
37.025
36.926
36.829
36.733
36.641
36.553
36.471
36.394
36.323
36.258
36.199
36.147
36.1
36.061
36.029
36.003
35.983
35.967
35.953
35.942
35.932
35.922
35.913
35.905
35.896
35.886
35.875
35.861
35.844
35.824
35.8
35.774
35.746
35.716
35.686
35.655
35.624
35.591
35.556
35.521
35.486
35.452
35.419
35.388
35.356
35.325
35.293
35.26
35.227
35.193
35.157
35.121
35.083
35.044
35.003
34.96
34.915
34.868
34.821
34.773
34.726
34.679
34.633
34.588
34.542
34.495
34.449
34.401
34.354
34.308
34.263
34.218
34.173
34.127
34.08
34.031
33.981
33.93
33.878
33.827
33.775
33.722
33.669
33.618
33.57
33.528
33.494
33.471
33.46
33.465
33.489
33.533
33.6
33.693
33.812
33.958
34.13
34.327
34.546
34.783
35.038
35.306
35.585
35.871
36.16
36.449
36.734
37.009
37.271
37.517
37.744
37.951
38.137
38.302
38.446
38.568
38.67
38.751
38.814
38.858
38.886
38.898
38.895
38.879
38.854
38.821
38.782
38.739
38.692
38.644
38.594
38.544
38.494
38.444
38.394
38.346
38.3
38.254
38.21
38.166
38.121
38.073
38.021
37.963
37.901
37.833
37.76
37.682
37.599
37.512
37.422
37.328
37.232
37.133
37.034
36.937
36.841
36.75
36.663
36.581
36.505
36.433
36.365
36.301
36.24
36.183
36.13
36.081
36.034
35.991
35.952
35.915
35.881
35.849
35.82
35.796
35.776
35.761
35.75
35.742
35.736
35.73
35.725
35.718
35.71
35.702
35.692
35.681
35.669
35.654
35.636
35.617
35.596
35.574
35.553
35.532
35.513
35.494
35.474
35.453
35.429
35.402
35.371
35.335
35.297
35.254
35.208
35.158
35.102
35.042
34.978
34.912
34.843
34.775
34.707
34.639
34.572
34.506
34.438
34.371
34.303
34.236
34.17
34.106
34.044
33.982
33.922
33.862
33.803
33.745
33.689
33.635
33.583
33.534
33.486
33.44
33.395
33.351
33.309
33.27
33.235
33.204
33.18
33.162
33.153
33.155
33.171
33.201
33.249
33.317
33.407
33.519
33.654
33.81
33.986
34.182
34.397
34.629
34.876
35.134
35.4
35.67
35.938
36.2
36.452
36.693
36.917
37.125
37.314
37.484
37.632
37.758
37.86
37.94
37.998
38.037
38.059
38.065
38.058
38.039
38.009
37.97
37.922
37.867
37.805
37.74
37.672
37.605
37.538
37.473
37.41
37.349
37.29
37.232
37.174
37.118
37.062
37.008
36.954
36.9
36.845
36.788
36.729
36.667
36.6
36.529
36.453
36.375
36.293
36.208
36.12
36.029
35.936
35.841
35.747
35.655
35.568
35.488
35.415
35.35
35.294
35.246
35.206
35.173
35.147
35.128
35.115
35.108
35.104
35.101
35.098
35.095
35.09
35.085
35.078
35.07
35.06
35.048
35.032
35.012
34.988
34.961
34.932
34.902
34.871
34.839
34.808
34.777
34.746
34.716
34.686
34.657
34.629
34.603
34.579
34.555
34.532
34.509
34.485
34.462
34.439
34.415
34.391
34.364
34.335
34.303
34.267
34.227
34.185
34.141
34.096
34.05
34.002
