Trial 3:3back
34.076
34.036
33.997
33.96
33.925
33.891
33.859
33.828
33.797
33.767
33.737
33.707
33.678
33.649
33.621
33.594
33.567
33.541
33.515
33.489
33.463
33.437
33.412
33.387
33.363
33.338
33.314
33.29
33.268
33.246
33.225
33.204
33.184
33.163
33.143
33.122
33.102
33.082
33.064
33.048
33.035
33.025
33.021
33.024
33.036
33.06
33.097
33.15
33.221
33.31
33.42
33.552
33.704
33.878
34.07
34.279
34.503
34.739
34.983
35.233
35.483
35.733
35.977
36.213
36.437
36.648
36.843
37.02
37.179
37.317
37.435
37.533
37.611
37.67
37.711
37.735
37.744
37.739
37.723
37.696
37.659
37.614
37.562
37.505
37.443
37.378
37.309
37.239
37.166
37.091
37.016
36.94
36.864
36.789
36.715
36.643
36.572
36.503
36.436
36.37
36.306
36.243
36.183
36.123
36.066
36.01
35.956
35.902
35.85
35.798
35.746
35.694
35.644
35.594
35.545
35.498
35.453
35.41
35.37
35.332
35.298
35.267
35.241
35.218
35.2
35.187
35.177
35.172
35.171
35.174
35.18
35.188
35.198
35.21
35.222
35.233
35.243
35.251
35.257
35.26
35.26
35.258
35.254
35.247
35.238
35.227
35.214
35.199
35.182
35.165
35.146
35.126
35.104
35.081
35.057
35.031
35.005
34.976
34.946
34.914
34.88
34.844
34.805
34.765
34.723
34.68
34.636
34.592
34.548
34.504
34.46
34.416
34.372
34.329
34.286
34.245
34.205
34.166
34.128
34.091
34.056
34.02
33.986
33.952
33.918
33.884
33.851
33.819
33.786
33.755
33.723
33.693
33.663
33.634
33.604
33.575
33.545
33.515
33.485
33.455
33.425
33.397
33.37
33.344
33.32
33.297
33.276
33.256
33.238
33.222
33.206
33.192
33.178
33.163
33.147
33.13
33.111
33.091
33.071
33.05
33.03
33.013
32.999
32.991
32.991
33.001
33.023
33.061
33.115
33.188
33.282
33.399
33.537
33.696
33.876
34.073
34.286
34.511
34.744
34.984
35.226
35.469
35.708
35.942
36.166
36.38
36.58
36.764
36.932
37.081
37.212
37.322
37.413
37.484
37.535
37.568
37.584
37.585
37.572
37.548
37.511
37.465
37.411
37.349
37.28
37.207
37.129
37.048
36.965
36.881
36.796
36.712
36.628
36.546
36.466
36.388
36.312
36.239
36.168
36.1
36.035
35.971
35.909
35.848
35.788
35.728
35.668
35.608
35.547
35.487
35.428
35.37
35.314
35.26
35.209
35.16
35.115
35.074
35.036
35.003
34.975
34.952
34.933
34.92
34.911
34.908
34.909
34.915
34.925
34.939
34.957
34.977
34.999
35.023
35.047
35.072
35.096
35.119
35.14
35.158
35.174
35.185
35.193
35.197
35.197
35.193
35.185
35.174
35.16
35.142
35.121
35.097
35.07
35.041
35.008
34.973
34.936
34.898
34.859
34.82
34.78
34.74
34.701
34.661
34.622
34.583
34.543
34.504
34.464
34.424
34.384
34.344
34.304
34.264
34.224
34.184
34.144
34.104
34.064
34.025
33.986
33.949
33.913
33.878
33.844
33.811
33.78
33.751
33.723
33.697
33.671
33.646
33.622
33.597
33.573
33.549
33.524
33.499
33.473
33.446
33.419
33.391
33.364
33.336
33.31
33.285
33.261
33.237
33.214
33.191
33.169
33.149
33.131
33.117
33.109
33.107
33.115
33.134
33.168
33.219
33.289
33.379
33.491
33.624
33.778
33.952
34.144
34.353
34.576
34.81
35.052
35.3
35.551
35.8
36.044
36.282
36.508
36.722
36.92
37.101
37.262
37.403
37.524
37.623
37.701
37.758
37.797
37.818
37.823
37.813
37.79
37.757
37.715
37.664
37.608
37.546
37.479
37.409
37.335
37.258
37.179
37.099
37.018
36.937
36.856
36.776
36.697
36.619
36.544
36.47
36.4
36.332
36.266
36.203
36.143
36.084
36.027
35.971
35.914
35.856
35.798
35.738
35.679
35.62
35.562
35.506
35.452
35.401
35.353
35.308
35.268
35.232
35.201
35.175
35.153
35.137
35.124
35.117
35.113
35.113
35.117
35.124
35.134
35.146
35.162
35.18
35.2
35.221
35.242
35.262
35.28
35.296
35.307
35.315
35.318
35.317
35.312
35.302
35.289
35.272
35.252
35.23
35.206
35.18
35.152
35.123
35.093
35.062
35.031
34.998
34.964
34.929
34.893
34.856
34.817
34.778
34.737
34.695
34.652
34.61
34.567
34.524
34.482
34.44
34.398
34.356
34.315
34.274
34.234
34.195
34.158
34.121
34.085
34.05
34.014
33.979
33.944
33.909
33.874
33.84
33.806
33.775
33.745
33.717
33.691
33.667
33.645
33.625
33.604
33.583
33.561
33.538
33.514
33.488
33.46
33.432
33.402
33.372
33.342
33.312
33.283
33.256
33.23
33.206
33.184
33.164
33.147
33.133
33.123
33.117
33.118
33.126
33.145
33.176
33.221
33.284
33.365
33.467
33.592
33.74
33.911
34.105
34.32
34.555
34.806
35.07
35.344
35.623
35.903
36.181
36.453
36.714
36.962
37.195
37.411
37.609
37.787
37.946
38.084
38.203
38.302
38.381
38.441
38.484
38.511
38.523
38.523
38.51
38.488
38.457
38.419
38.375
38.325
38.27
38.211
38.147
38.08
38.01
37.938
37.863
37.787
37.71
37.632
37.556
37.48
37.407
37.336
37.266
37.199
37.133
37.07
37.008
36.949
36.893
36.839
36.787
36.737
36.688
36.64
36.59
36.54
36.489
36.437
36.384
36.331
36.278
36.227
36.178
36.132
36.089
36.052
36.019
35.992
35.969
35.951
35.938
35.93
35.924
35.921
35.92
35.92
35.921
35.922
35.924
35.926
35.929
35.931
35.934
35.937
35.939
35.941
35.942
35.941
35.939
35.934
35.926
35.916
35.902
35.884
35.864
35.84
35.814
35.784
35.752
35.718
35.682
35.646
35.608
35.568
35.527
35.485
35.44
35.393
35.344
35.294
35.242
35.19
35.137
35.086
35.035
34.985
34.936
34.888
34.841
34.796
34.751
34.706
34.663
34.62
34.578
34.537
34.496
34.455
34.415
34.376
34.338
34.3
34.264
34.23
34.196
34.163
34.131
34.099
34.066
34.034
34.0
33.967
33.934
33.901
33.868
33.835
33.802
33.77
33.738
33.707
33.677
33.648
33.621
33.595
33.569
33.545
33.522
33.5
33.479
33.458
33.44
33.425
33.413
33.407
33.409
33.42
33.445
33.485
33.544
33.623
33.726
33.854
34.006
34.183
34.384
34.606
34.848
35.106
35.376
35.656
35.941
36.228
36.511
36.788
37.056
37.31
37.55
37.771
37.973
38.155
38.314
38.451
38.567
38.66
38.733
38.786
38.82
38.836
38.836
38.82
38.791
38.749
38.697
38.637
38.569
38.497
38.42
38.341
38.262
38.182
38.103
38.025
37.948
37.872
37.798
37.725
37.654
37.584
37.515
37.449
37.385
37.323
37.263
37.204
37.146
37.088
37.032
36.975
36.919
36.862
36.805
36.746
36.686
36.626
36.564
36.502
36.44
36.378
36.318
36.261
36.207
36.158
36.114
36.074
36.039
36.009
35.984
35.964
35.948
35.936
35.929
35.924
35.922
35.923
35.925
35.929
35.934
35.939
35.945
35.951
35.956
35.96
35.963
35.963
35.962
35.958
35.951
35.942
35.931
35.917
35.901
35.883
35.862
35.839
35.812
35.782
35.749
35.713
35.675
35.635
35.594
35.552
35.509
35.465
35.42
35.375
35.329
35.283
35.235
35.186
35.135
35.082
35.028
34.973
34.916
34.859
34.803
34.748
34.694
34.64
34.589
34.54
34.494
34.451
34.41
34.372
34.335
34.299
34.263
34.227
34.191
34.154
34.117
34.08
34.042
34.004
33.965
33.926
33.886
33.847
33.809
33.772
33.736
33.701
33.668
33.636
33.604
33.573
33.541
33.51
33.48
33.451
33.423
33.395
33.369
33.344
33.319
33.296
33.273
33.251
33.231
33.215
33.203
33.198
33.202
33.217
33.244
33.286
33.346
33.424
33.522
33.642
33.783
33.947
34.133
34.339
34.564
34.806
35.061
35.328
35.602
35.881
36.16
36.436
36.706
36.965
37.212
37.443
37.655
37.848
38.019
38.168
38.294
38.398
38.48
38.54
38.581
38.604
38.609
38.598
38.573
38.535
38.485
38.425
38.354
38.276
38.192
38.103
38.012
37.92
37.827
37.734
37.643
37.554
37.466
37.38
37.296
37.214
37.134
37.055
36.977
36.901
36.827
36.753
36.68
36.608
36.537
36.467
36.398
36.33
36.262
36.195
36.129
36.065
36.001
35.94
35.881
35.825
35.773
35.724
35.681
35.642
35.608
35.58
35.556
35.539
35.526
35.52
35.518
35.521
35.528
35.538
35.55
35.563
35.578
35.593
35.608
35.623
35.637
35.649
35.66
35.67
35.677
35.683
35.687
35.689
35.688
35.684
35.676
35.666
35.652
35.634
35.613
35.589
35.561
35.53
35.496
35.459
35.419
35.378
35.334
35.289
35.243
35.197
35.15
35.103
35.056
35.008
34.961
34.913
34.866
34.818
34.77
34.722
34.674
34.626
34.577
34.529
34.481
34.433
34.387
34.341
34.298
34.256
34.216
34.176
34.137
34.099
34.061
34.023
33.985
33.946
33.907
33.867
33.827
33.787
33.748
33.709
33.672
33.637
33.604
33.572
33.542
33.513
33.485
33.457
33.428
33.401
33.374
33.348
33.323
33.299
33.277
33.257
33.24
33.227
33.221
33.223
33.238
33.267
33.313
33.379
33.467
33.58
33.716
33.878
34.062
34.269
34.496
34.739
34.997
35.264
35.536
35.811
36.082
36.347
36.603
36.845
37.072
37.281
37.47
37.637
37.782
37.905
38.006
38.084
38.142
38.181
38.202
38.208
38.199
38.178
38.144
38.099
38.044
37.98
37.908
37.83
37.747
37.66
37.57
37.478
37.385
37.291
37.197
37.103
37.011
36.922
36.835
36.75
36.669
36.591
36.516
36.443
36.373
36.304
36.236
36.168
36.1
36.031
35.961
35.892
35.822
35.754
35.687
35.622
35.56
35.502
35.446
35.395
35.349
35.307
35.272
35.241
35.216
35.197
35.182
35.173
35.169
35.17
35.176
35.187
35.2
35.215
35.233
35.251
35.27
35.289
35.307
35.324
35.339
35.351
35.361
35.368
35.372
35.373
35.372
35.368
35.361
35.35
35.336
35.317
35.295
35.268
35.236
35.201
35.164
35.123
35.082
35.039
34.996
34.954
34.911
34.868
34.825
34.782
34.739
34.696
34.653
34.611
34.569
34.528
34.486
34.444
34.401
34.358
34.314
34.269
34.223
34.177
34.132
34.087
34.044
34.001
33.959
33.918
33.878
33.839
33.801
33.765
33.73
33.697
33.665
33.634
33.604
33.575
33.546
33.518
33.49
33.462
33.435
33.408
33.38
33.353
33.325
33.296
33.267
33.238
33.208
33.179
33.15
33.121
33.093
33.068
33.047
33.032
33.025
33.029
33.046
33.079
33.131
33.204
33.3
33.421
33.567
33.738
33.933
34.151
34.39
34.647
34.92
35.204
35.496
35.791
36.086
36.378
36.662
36.935
37.195
37.439
37.664
37.87
38.054
38.216
38.357
38.477
38.575
38.653
38.713
38.753
38.777
38.785
38.778
38.758
38.726
38.682
38.63
38.568
38.5
38.426
38.346
38.263
38.177
38.09
38.002
37.914
37.828
37.744
37.662
37.585
37.511
37.441
37.375
37.312
37.253
37.196
37.14
37.084
37.029
36.972
36.915
36.856
36.795
36.734
36.671
36.608
36.544
36.478
36.412
36.346
36.28
36.216
36.155
36.097
36.043
35.995
35.952
35.915
35.885
35.86
35.841
35.827
35.818
35.814
35.815
35.819
35.826
35.836
35.848
35.861
35.874
35.884
35.893
35.898
35.9
35.898
35.891
35.881
35.867
35.849
35.829
35.806
35.781
35.754
35.725
35.693
35.659
35.625
35.589
35.553
35.518
35.482
35.446
35.41
35.374
35.338
35.301
35.263
35.225
35.185
35.144
35.102
35.058
35.014
34.97
34.925
34.882
34.838
34.796
34.754
34.712
34.669
34.626
34.583
34.538
34.493
34.448
34.402
34.356
34.31
34.266
34.223
34.181
34.141
34.102
34.065
34.028
33.992
33.957
33.922
33.888
33.854
33.821
33.788
33.757
33.727
33.698
33.668
33.638
33.609
33.578
33.548
33.517
33.487
33.456
33.427
33.398
33.371
33.347
33.325
33.309
33.299
33.297
33.305
33.326
33.361
33.415
33.489
33.586
33.708
33.855
34.029
34.227
34.45
34.694
34.957
35.235
35.525
35.821
36.121
36.419
36.713
36.999
37.272
37.532
37.774
37.998
38.201
38.382
38.541
38.677
38.793
38.887
38.96
39.015
39.051
39.071
39.075
39.065
39.042
39.007
38.962
38.907
38.845
38.776
38.702
38.624
38.543
38.459
38.372
38.285
38.195
38.106
38.016
37.928
37.841
37.757
37.676
37.598
37.524
37.452
37.384
37.317
37.253
37.19
37.129
37.069
37.01
36.952
36.895
36.839
36.784
36.73
36.678
36.626
36.576
36.528
36.482
36.437
36.395
36.354
36.315
36.279
36.246
36.216
36.19
36.168
36.149
36.135
36.125
36.118
36.114
36.114
36.117
36.122
36.129
36.137
36.144
36.151
36.156
36.159
36.16
36.158
36.154
36.146
36.135
36.122
36.106
36.088
36.068
36.045
36.021
35.993
35.961
35.926
35.887
35.846
35.801
35.753
35.702
35.65
35.596
35.54
35.483
35.425
35.367
35.31
35.253
35.198
35.145
35.094
35.044
34.995
34.948
34.901
34.856
34.811
34.766
34.722
34.678
34.633
34.589
34.545
34.499
34.454
34.408
34.362
34.317
34.271
34.226
34.181
34.136
34.093
34.052
34.012
33.974
33.937
33.901
33.867
33.834
33.802
33.77
33.739
33.708
33.676
33.643
33.609
33.575
33.54
33.504
33.469
33.433
33.399
33.367
33.337
33.309
33.284
33.264
33.25
33.244
33.247
33.263
33.293
33.339
33.404
33.489
33.597
33.727
33.881
34.059
34.26
34.483
34.725
34.985
35.258
35.54
35.829
36.12
36.409
36.693
36.969
37.234
37.485
37.72
37.937
38.136
38.314
38.471
38.605
38.717
38.808
38.877
38.925
38.955
38.967
38.963
38.944
38.911
38.868
38.815
38.754
38.686
38.613
38.536
38.454
38.371
38.285
38.197
38.109
38.02
37.931
37.844
37.757
37.673
37.592
37.513
37.437
37.364
37.292
37.22
37.15
37.08
37.01
36.941
36.871
36.801
36.733
36.664
36.597
36.531
36.465
36.401
36.34
36.28
36.223
36.169
36.118
36.069
36.024
35.983
35.947
35.916
35.891
35.872
35.857
35.847
35.84
35.836
35.834
35.833
35.834
35.835
35.837
35.839
35.842
35.846
35.849
35.852
35.855
35.856
35.855
35.852
35.847
35.839
35.829
35.815
35.8
35.781
35.76
35.737
35.712
35.686
35.659
35.631
35.602
35.571
35.538
35.504
35.469
35.431
35.391
35.349
35.305
35.259
35.212
35.164
35.115
35.067
35.019
34.972
34.926
34.882
34.839
34.797
34.756
34.717
34.678
34.639
34.6
34.56
34.519
34.476
34.432
34.386
34.338
34.288
34.236
34.183
34.13
34.078
34.027
33.978
33.932
33.888
33.847
33.809
33.773
33.74
33.708
33.678
33.649
33.621
33.593
33.566
33.54
33.513
33.487
33.461
33.436
33.413
33.393
33.379
33.373
33.378
33.396
33.43
33.483
33.556
33.652
33.772
33.917
34.086
34.279
34.493
34.728
34.978
35.241
35.513
35.788
36.064
36.336
36.601
36.856
37.098
37.325
37.535
37.727
37.899
38.051
38.182
38.292
38.38
38.446
38.491
38.516
38.521
38.507
38.476
38.429
38.369
38.298
38.219
38.133
38.043
37.949
37.854
37.757
37.661
37.565
37.47
37.377
37.285
37.195
37.105
37.017
36.93
36.843
36.757
36.673
36.589
36.507
36.427
36.349
36.273
36.199
36.127
36.056
35.988
35.922
35.859
35.799
35.741
35.687
35.636
35.588
35.543
35.502
35.466
35.434
35.408
35.387
35.372
35.363
35.359
35.359
35.364
35.374
35.387
35.402
35.421
35.441
35.462
35.484
35.506
35.526
35.545
35.561
35.575
35.586
35.594
35.599
35.6
35.598
35.592
35.582
35.569
35.552
35.531
35.507
35.48
35.45
35.417
35.383
35.347
35.308
35.268
35.226
35.183
35.139
35.095
35.049
35.003
34.956
34.907
34.856
34.804
34.75
34.695
34.638
34.581
34.524
34.468
34.413
34.359
34.307
34.256
34.206
34.158
34.111
34.066
34.023
33.981
33.939
33.899
33.86
33.821
33.783
33.747
33.712
33.678
33.645
33.612
33.579
33.546
33.512
33.479
33.444
33.41
33.374
33.338
33.303
33.267
33.234
33.204
33.179
33.161
33.152
33.156
33.175
33.213
33.271
33.352
33.457
33.588
33.743
33.923
34.125
34.348
34.59
34.846
35.114
35.389
35.668
35.947
36.222
36.49
36.747
36.991
37.218
37.427
37.617
37.785
37.931
38.055
38.157
38.237
38.295
38.334
38.354
38.357
38.344
38.317
38.279
38.23
38.172
38.108
38.037
37.962
37.883
37.801
37.717
37.633
37.547
37.462
37.377
37.294
37.211
37.13
37.05
36.971
36.894
36.817
36.742
36.667
36.592
36.516
36.441
36.365
36.289
36.213
36.137
36.061
35.986
35.912
35.839
35.769
35.701
35.638
35.579
35.526
35.478
35.435
35.398
35.367
35.341
35.319
35.303
35.291
35.284
35.282
35.285
35.291
35.301
35.313
35.328
35.345
35.362
35.379
35.395
35.41
35.423
35.433
35.441
35.446
35.449
35.45
35.447
35.441
35.432
35.42
35.405
35.387
35.366
35.342
35.313
35.282
35.247
35.209
35.169
35.127
35.083
35.038
34.992
34.946
34.899
34.851
34.804
34.758
34.711
34.664
34.617
34.571
34.525
34.481
34.437
34.393
34.351
34.31
34.27
34.23
34.19
34.151
34.111
34.072
34.032
33.992
33.951
33.909
33.866
33.823
33.779
33.735
33.691
33.647
33.605
33.563
33.523
33.484
33.447
33.41
33.374
33.34
33.307
33.275
33.245
33.217
33.191
33.167
33.145
33.125
33.11
33.099
33.096
33.101
33.119
33.153
33.204
33.277
33.374
33.497
33.645
33.82
34.019
34.242
34.485
34.745
35.018
35.3
35.588
35.876
36.162
36.441
36.71
36.966
37.207
37.428
37.63
37.81
37.968
38.104
38.217
38.309
38.379
38.431
38.464
38.482
38.484
38.472
38.449
38.414
38.37
38.317
38.257
38.191
38.12
38.046
37.969
37.891
37.812
37.733
37.655
37.579
37.505
37.434
37.365
37.299
37.236
37.175
37.116
37.058
37.002
36.947
36.892
36.838
36.783
36.729
36.675
36.62
36.565
36.509
36.453
36.396
36.341
36.286
36.233
36.181
36.131
36.082
36.036
35.992
35.95
35.911
35.873
35.838
35.805
35.775
35.748
35.724
35.702
35.683
35.665
35.648
35.633
35.618
35.605
35.592
35.581
35.57
35.56
35.551
35.541
35.532
35.522
35.512
35.502
35.492
35.481
35.471
35.46
35.449
35.437
35.424
35.411
35.398
35.384
35.371
35.358
35.345
35.332
35.318
35.303
35.287
35.268
35.247
35.223
35.197
35.168
35.136
35.102
35.067
35.03
34.993
34.954
34.916
34.877
34.838
34.798
34.757
34.715
34.671
34.626
34.58
34.533
34.486
34.438
34.391
34.345
34.299
34.253
34.209
34.165
34.12
34.076
34.032
33.987
33.941
33.894
33.847
33.8
33.751
33.703
33.654
33.604
33.556
33.507
33.46
33.414
33.371
33.334
33.303
33.283
33.276
33.283
33.309
33.355
33.424
33.516
33.632
33.774
33.939
34.128
34.339
34.569
34.816
35.074
35.341
35.613
35.885
36.154
36.416
36.668
36.908
37.133
37.341
37.53
37.699
37.848
37.975
38.08
38.163
38.226
38.268
38.293
38.3
38.291
38.269
38.236
38.194
38.144
38.09
38.03
37.968
37.902
37.835
37.767
37.698
37.627
37.557
37.486
37.414
37.343
37.271
37.2
37.129
37.058
36.988
36.919
36.851
36.783
36.716
36.65
36.584
36.519
36.454
36.389
36.324
36.258
36.192
36.126
36.058
35.991
35.923
35.857
35.792
35.729
35.669
35.612
35.559
35.51
35.466
35.427
35.392
35.362
35.336
35.315
35.297
35.283
35.271
35.261
35.253
35.247
35.243
35.239
35.237
35.235
35.233
35.231
35.228
35.224
35.22
35.214
35.207
35.199
35.19
35.179
35.166
35.151
35.133
35.112
35.088
35.06
35.028
34.993
34.955
34.913
34.868
34.82
34.769
34.716
34.661
34.606
34.551
34.495
34.44
34.387
34.334
34.283
34.233
34.185
34.139
34.095
34.053
34.013
33.974
33.936
33.897
33.859
33.821
33.782
33.744
33.706
33.669
33.633
33.598
33.564
33.53
33.499
33.468
33.439
33.411
33.385
33.359
33.334
33.31
33.286
33.262
33.237
33.213
33.189
33.165
33.14
33.115
33.09
33.064
33.039
33.014
32.991
32.971
32.956
32.946
32.946
32.956
32.98
33.02
33.079
33.159
33.26
33.384
33.529
33.695
33.879
34.08
34.294
34.518
34.748
34.981
35.214
35.443
35.665
35.877
36.077
36.262
36.431
36.581
36.713
36.825
36.918
36.991
37.045
37.082
37.102
37.106
37.097
37.075
37.042
37.0
36.95
36.893
36.828
36.759
36.685
36.606
36.524
36.44
36.354
36.268
36.183
36.1
36.019
35.942
35.867
35.796
35.728
35.662
35.6
35.539
35.48
35.423
35.366
35.31
35.254
35.198
35.141
35.083
35.023
34.964
34.903
34.843
34.782
34.723
34.664
34.608
34.554
34.504
34.459
34.42
34.385
34.356
34.333
34.315
34.302
34.294
34.291
34.293
34.3
34.311
34.327
34.347
34.369
34.393
34.417
34.442
34.465
34.488
34.508
