Trial 3:3back
32.673
32.663
32.654
32.645
32.638
32.635
32.638
32.65
32.675
32.715
32.773
32.851
32.952
33.075
33.222
33.391
33.58
33.788
34.011
34.245
34.486
34.731
34.977
35.22
35.455
35.68
35.893
36.091
36.271
36.433
36.575
36.697
36.799
36.88
36.943
36.988
37.017
37.032
37.035
37.029
37.016
36.997
36.975
36.951
36.926
36.901
36.876
36.853
36.831
36.812
36.793
36.775
36.758
36.741
36.725
36.71
36.695
36.681
36.666
36.65
36.633
36.612
36.588
36.56
36.527
36.49
36.449
36.404
36.355
36.303
36.249
36.195
36.14
36.086
36.032
35.981
35.931
35.885
35.841
35.799
35.761
35.726
35.695
35.666
35.641
35.617
35.596
35.577
35.559
35.543
35.528
35.514
35.501
35.488
35.474
35.46
35.446
35.432
35.419
35.404
35.39
35.374
35.358
35.339
35.319
35.296
35.272
35.246
35.219
35.191
35.162
35.131
35.099
35.065
35.029
34.99
34.948
34.905
34.861
34.815
34.769
34.723
34.678
34.633
34.589
34.546
34.505
34.464
34.425
34.387
34.35
34.314
34.278
34.243
34.208
34.172
34.137
34.102
34.067
34.032
33.996
33.961
33.926
33.892
33.858
33.824
33.792
33.762
33.733
33.705
33.678
33.651
33.626
33.603
33.583
33.565
33.549
33.535
33.521
33.507
33.492
33.476
33.46
33.444
33.428
33.412
33.398
33.384
33.372
33.36
33.348
33.337
33.325
33.314
33.301
33.288
33.273
33.259
33.245
33.231
33.217
33.204
33.191
33.178
33.166
33.155
33.143
33.131
33.118
33.103
33.085
33.067
33.047
33.028
33.008
32.989
32.971
32.954
32.94
32.93
32.927
32.933
32.952
32.986
33.036
33.105
33.197
33.313
33.453
33.617
33.804
34.011
34.237
34.476
34.725
34.981
35.239
35.495
35.747
35.99
36.221
36.437
36.636
36.815
36.973
37.111
37.229
37.327
37.407
37.47
37.517
37.551
37.573
37.587
37.592
37.59
37.584
37.573
37.559
37.542
37.523
37.502
37.478
37.453
37.426
37.398
37.369
37.338
37.308
37.278
37.249
37.22
37.193
37.166
37.139
37.112
37.083
37.052
37.017
36.979
36.939
36.894
36.846
36.796
36.742
36.687
36.629
36.57
36.511
36.451
36.393
36.336
36.282
36.23
36.181
36.137
36.097
36.061
36.03
36.004
35.981
35.958
35.933
35.905
35.875
35.845
35.816
35.789
35.767
35.75
35.739
35.735
35.735
35.739
35.745
35.752
35.759
35.764
35.765
35.763
35.754
35.74
35.72
35.694
35.663
35.626
35.586
35.542
35.495
35.446
35.395
35.343
35.292
35.242
35.194
35.148
35.105
35.064
35.025
34.988
34.951
34.915
34.879
34.842
34.804
34.764
34.724
34.683
34.642
34.601
34.561
34.522
34.482
34.441
34.4
34.359
34.318
34.28
34.243
34.208
34.176
34.145
34.115
34.086
34.057
34.028
34.0
33.973
33.946
33.921
33.896
33.872
33.85
33.827
33.806
33.784
33.763
33.741
33.719
33.697
33.675
33.654
33.633
33.613
33.594
33.576
33.559
33.542
33.525
33.507
33.489
33.469
33.449
33.428
33.406
33.382
33.357
33.331
33.303
33.275
33.246
33.217
33.188
33.16
33.131
33.102
33.074
33.045
33.018
32.991
32.963
32.935
32.907
32.878
32.849
32.821
32.796
32.774
32.758
32.749
32.748
32.759
32.783
32.825
32.888
32.973
33.084
33.222
33.387
33.579
33.795
34.034
34.291
34.562
34.845
35.133
35.423
35.709
35.987
36.252
36.501
36.729
36.936
37.118
37.275
37.407
37.515
37.598
37.66
37.702
37.728
37.739
37.739
37.728
37.71
37.687
37.658
37.625
37.59
37.555
37.52
37.487
37.454
37.423
37.394
37.366
37.34
37.317
37.296
37.276
37.258
37.24
37.22
37.197
37.171
37.142
37.109
37.072
37.031
36.986
36.937
36.885
36.829
36.77
36.708
36.644
36.578
36.513
36.449
36.387
36.329
36.276
36.229
36.188
36.153
36.124
36.1
36.083
36.07
36.06
36.052
36.046
36.042
36.039
36.038
36.037
36.036
36.036
36.035
36.033
36.03
36.027
36.022
36.016
36.007
35.995
35.98
35.963
35.943
35.922
35.899
35.875
35.849
35.821
35.791
35.76
35.726
35.692
35.656
35.621
35.586
35.55
35.513
35.475
35.435
35.394
35.352
35.307
35.262
35.216
35.169
35.124
35.079
35.036
34.995
34.956
34.919
34.883
34.848
34.813
34.779
34.745
34.711
34.678
34.644
34.612
34.581
34.55
34.52
34.49
34.461
34.433
34.406
34.379
34.352
34.325
34.299
34.272
34.246
34.221
34.196
34.172
34.146
34.121
34.095
34.07
34.045
34.021
33.997
33.974
33.952
33.931
33.909
33.888
33.867
33.847
33.828
33.809
33.792
33.775
33.76
33.745
33.73
33.715
33.7
33.686
33.672
33.657
33.642
33.627
33.615
33.606
33.603
33.609
33.625
33.655
33.701
33.767
33.853
33.962
34.094
34.248
34.424
34.62
34.834
35.064
35.306
35.555
35.808
36.061
36.309
36.55
36.781
36.999
37.201
37.387
37.554
37.7
37.819
37.913
37.981
38.028
38.057
38.073
38.077
38.074
38.067
38.056
38.044
38.031
38.017
38.003
37.989
37.974
37.959
37.942
37.926
37.908
37.889
37.869
37.849
37.827
37.805
37.782
37.758
37.73
37.7
37.665
37.626
37.584
37.537
37.487
37.433
37.374
37.313
37.248
37.181
37.113
37.046
36.98
36.917
36.857
36.801
36.75
36.703
36.662
36.626
36.595
36.57
36.551
36.536
36.527
36.521
36.518
36.515
36.512
36.51
36.508
36.506
36.504
36.5
36.496
36.49
36.481
36.469
36.454
36.435
36.412
36.387
36.358
36.327
36.293
36.257
36.219
36.181
36.142
36.102
36.062
36.021
35.977
35.931
35.884
35.835
35.785
35.732
35.678
35.621
35.564
35.507
35.45
35.393
35.337
35.282
35.227
35.173
35.118
35.065
35.012
34.962
34.914
34.87
34.828
34.789
34.752
34.717
34.684
34.652
34.62
34.588
34.556
34.524
34.49
34.455
34.42
34.386
34.354
34.323
34.293
34.265
34.239
34.213
34.189
34.166
34.144
34.122
34.101
34.078
34.053
34.026
33.997
33.966
33.937
33.908
33.882
33.858
33.837
33.819
33.805
33.795
33.788
33.784
33.78
33.775
33.77
33.764
33.756
33.746
33.735
33.722
33.708
33.69
33.671
33.651
33.63
33.61
33.589
33.571
33.555
33.543
33.537
33.538
33.549
33.574
33.616
33.679
33.764
33.873
34.008
34.169
34.356
34.568
34.801
35.054
35.322
35.601
35.885
36.171
36.453
36.729
36.995
37.246
37.482
37.699
37.896
38.075
38.234
38.374
38.497
38.601
38.688
38.76
38.818
38.864
38.9
38.926
38.945
38.958
38.966
38.969
38.968
38.965
38.959
38.949
38.937
38.921
38.903
38.883
38.863
38.843
38.826
38.81
38.797
38.786
38.775
38.765
38.754
38.74
38.724
38.703
38.678
38.646
38.609
38.564
38.511
38.452
38.386
38.315
38.239
38.161
38.081
38.001
37.921
37.843
37.766
37.694
37.627
37.566
37.512
37.464
37.423
37.388
37.358
37.334
37.312
37.294
37.277
37.262
37.249
37.236
37.223
37.21
37.196
37.18
37.161
37.141
37.117
37.09
37.059
37.023
36.985
36.942
36.898
36.853
36.808
36.765
36.721
36.678
36.635
36.591
36.546
36.5
36.453
36.404
36.354
36.302
36.249
36.195
36.14
36.086
36.032
35.978
35.925
35.871
35.817
35.761
35.705
35.649
35.593
35.538
35.484
35.431
35.381
35.331
35.283
35.236
35.191
35.147
35.105
35.064
35.024
34.986
34.95
34.916
34.883
34.85
34.818
34.786
34.753
34.72
34.687
34.654
34.622
34.59
34.559
34.529
34.5
34.471
34.442
34.415
34.389
34.362
34.336
34.309
34.281
34.251
34.216
34.173
34.127
34.077
34.027
33.978
33.929
33.884
33.841
33.803
33.771
33.743
33.721
33.704
33.69
33.679
33.669
33.659
33.649
33.638
33.626
33.613
33.598
33.582
33.566
33.552
33.541
33.537
33.542
33.559
33.592
33.643
33.715
33.812
33.935
34.085
34.263
34.467
34.695
34.945
35.212
35.493
35.784
36.082
36.382
36.679
36.969
37.246
37.51
37.756
37.983
38.19
38.376
38.541
38.685
38.807
38.908
38.987
39.045
39.084
39.105
39.111
39.104
39.087
39.062
39.034
39.005
38.977
38.95
38.927
38.91
38.898
38.892
38.889
38.891
38.895
38.902
38.91
38.917
38.923
38.927
38.927
38.923
38.912
38.894
38.867
38.83
38.783
38.727
38.664
38.593
38.515
38.433
38.347
38.259
38.169
38.079
37.991
37.906
37.827
37.754
37.687
37.626
37.571
37.521
37.477
37.437
37.399
37.363
37.329
37.295
37.261
37.226
37.19
37.152
37.114
37.075
37.035
36.994
36.953
36.912
36.872
36.831
36.788
36.746
36.703
36.66
36.618
36.576
36.533
36.488
36.441
36.396
36.355
36.319
36.286
36.255
36.224
36.191
36.154
36.11
36.061
36.005
35.943
35.875
35.801
35.723
35.641
35.558
35.475
35.392
35.313
35.237
35.164
35.096
35.032
34.972
34.916
34.864
34.815
34.77
34.726
34.685
34.646
34.609
34.574
34.54
34.506
34.472
34.437
34.4
34.362
34.322
34.281
34.239
34.198
34.159
34.123
34.089
34.056
34.027
33.999
33.974
33.951
33.929
33.908
33.889
33.869
33.849
33.829
33.808
33.786
33.763
33.739
33.713
33.686
33.658
33.63
33.602
33.577
33.554
33.533
33.513
33.493
33.472
33.448
33.423
33.396
33.367
33.336
33.304
33.271
33.236
33.201
33.166
33.134
33.103
33.074
33.049
33.028
33.011
33.001
32.997
33.003
33.023
33.058
33.111
33.185
33.283
33.406
33.554
33.727
33.924
34.144
34.383
34.64
34.91
35.191
35.477
35.763
36.047
36.324
36.591
36.844
37.081
37.301
37.503
37.686
37.85
37.993
38.115
38.217
38.3
38.365
38.412
38.444
38.463
38.469
38.465
38.452
38.432
38.407
38.378
38.347
38.315
38.284
38.254
38.226
38.2
38.177
38.156
38.138
38.121
38.105
38.088
38.071
38.051
38.027
37.999
37.966
37.927
37.882
37.832
37.776
37.715
37.649
37.578
37.502
37.422
37.339
37.256
37.174
37.094
37.017
36.943
36.874
36.811
36.754
36.705
36.663
36.628
36.6
36.579
36.564
36.553
36.547
36.543
36.541
36.54
36.538
36.534
36.528
36.517
36.502
36.483
36.458
36.429
36.396
36.359
36.32
36.279
36.236
36.192
36.147
36.1
36.053
36.003
35.952
35.899
35.843
35.786
35.727
35.667
35.606
35.546
35.488
35.433
35.38
35.33
35.282
35.236
35.193
35.151
35.111
35.071
35.033
34.994
34.955
34.914
34.873
34.831
34.788
34.743
34.697
34.649
34.599
34.549
34.498
34.448
34.4
34.352
34.307
34.263
34.221
34.181
34.141
34.104
34.067
34.033
34.0
33.969
33.939
33.911
33.885
33.86
33.837
33.814
33.793
33.773
33.752
33.731
33.709
33.685
33.66
33.634
33.606
33.578
33.549
33.52
33.491
33.464
33.436
33.41
33.384
33.361
33.338
33.316
33.293
33.269
33.242
33.214
33.184
33.152
33.12
33.087
33.053
33.02
32.987
32.953
32.92
32.888
32.858
32.83
32.805
32.785
32.77
32.761
32.759
32.767
32.785
32.816
32.863
32.929
33.017
33.128
33.262
33.42
33.602
33.806
34.031
34.274
34.531
34.8
35.077
35.357
35.635
35.909
36.173
36.424
36.66
36.879
37.077
37.255
37.412
37.549
37.666
37.762
37.838
37.897
37.939
37.968
37.985
37.991
37.989
37.982
37.972
37.96
37.949
37.939
37.931
37.927
37.928
37.933
37.943
37.955
37.968
37.982
37.994
38.001
38.003
37.998
37.987
37.969
37.945
37.915
37.879
37.837
37.79
37.738
37.681
37.62
37.554
37.484
37.41
37.334
37.255
37.175
37.097
37.021
36.948
36.88
36.817
36.759
36.706
36.659
36.617
36.578
36.544
36.511
36.481
36.453
36.425
36.397
36.369
36.34
36.311
36.28
36.249
36.216
36.181
36.145
36.108
36.069
36.029
35.989
35.95
35.912
35.875
35.839
35.804
35.77
35.735
35.7
35.663
35.624
35.582
35.537
35.489
35.438
35.383
35.325
35.265
35.203
35.14
35.077
35.015
34.954
34.896
34.84
34.788
34.739
34.693
34.65
34.61
34.572
34.535
34.496
34.457
34.417
34.374
34.33
34.285
34.239
34.193
34.148
34.104
34.061
34.019
33.978
33.939
33.9
33.862
33.826
33.791
33.757
33.724
33.691
33.657
33.623
33.589
33.554
33.521
33.49
33.46
33.432
33.407
33.384
33.363
33.343
33.324
33.305
33.285
33.265
33.245
33.225
33.204
33.185
33.165
33.146
33.127
33.11
33.093
33.078
33.062
33.046
33.029
33.01
32.989
32.966
32.941
32.913
32.884
32.854
32.823
32.793
32.763
32.735
32.709
32.686
32.664
32.645
32.626
32.608
32.591
32.574
32.558
32.542
32.527
32.514
32.501
32.491
32.484
32.481
32.484
32.496
32.519
32.557
32.613
32.688
32.786
32.909
33.059
33.235
33.435
33.658
33.899
34.157
34.426
34.701
34.978
35.253
35.522
35.779
36.021
36.247
36.453
36.639
36.804
36.948
37.071
37.175
37.259
37.326
37.377
37.415
37.443
37.461
37.473
37.478
37.478
37.474
37.467
37.459
37.451
37.443
37.437
37.431
37.426
37.42
37.414
37.406
37.395
37.382
37.366
37.346
37.324
37.3
37.272
37.242
37.211
37.176
37.139
37.1
37.058
37.014
36.967
36.919
36.87
36.819
36.766
36.711
36.656
36.599
36.543
36.486
36.431
36.378
36.328
36.28
36.236
36.195
36.157
36.121
36.087
36.055
36.024
35.995
35.967
35.94
35.915
35.89
35.865
35.841
35.817
35.793
35.768
35.742
35.716
35.689
35.661
35.633
35.604
35.573
35.541
35.508
35.472
35.434
35.392
35.347
35.299
35.248
35.194
35.139
35.082
35.025
34.968
34.911
34.854
34.799
34.745
34.694
34.645
34.598
34.554
34.512
34.472
34.433
34.395
34.357
34.318
34.278
34.236
34.194
34.15
34.105
34.061
34.016
33.972
33.93
33.888
33.847
33.806
33.768
33.731
33.695
33.662
33.63
33.6
33.572
33.546
33.521
33.496
33.471
33.447
33.421
33.395
33.368
33.34
33.314
33.29
33.268
33.249
33.232
33.216
33.201
33.187
33.172
33.158
33.143
33.127
33.11
33.093
33.074
33.055
33.036
33.017
32.997
32.977
32.956
32.935
32.913
32.891
32.87
32.85
32.83
32.811
32.794
32.777
32.762
32.747
32.733
32.719
32.705
32.692
32.679
32.666
32.655
32.643
32.633
32.623
32.614
32.609
32.608
32.615
32.632
32.663
32.709
32.773
32.857
32.963
33.091
33.242
33.416
33.609
33.822
34.048
34.286
34.531
34.781
35.031
35.279
35.521
35.753
35.973
36.178
36.367
36.538
36.69
36.823
36.938
37.035
37.114
37.178
37.228
37.264
37.289
37.304
37.31
37.309
37.302
37.29
37.275
37.259
37.24
37.22
37.198
37.174
37.15
37.125
37.101
37.078
37.055
37.035
37.016
36.998
36.98
36.96
36.939
36.915
36.887
36.855
36.818
36.777
36.732
36.684
36.633
36.58
36.525
36.47
36.415
36.362
36.31
36.262
36.217
36.176
36.141
36.11
36.084
36.061
36.042
36.026
36.012
35.999
35.988
35.978
35.969
35.962
35.954
35.946
35.938
35.93
35.92
35.909
35.896
35.881
35.864
35.843
35.82
35.793
35.763
35.731
35.696
35.659
35.621
35.581
35.54
35.498
35.456
35.412
35.367
35.322
35.275
35.227
35.177
35.127
35.076
35.026
34.976
34.927
34.877
34.828
34.779
34.73
34.682
34.635
34.59
34.547
34.504
34.464
34.424
34.387
34.352
34.318
34.285
34.252
34.219
34.185
34.152
34.119
34.088
34.059
34.032
34.007
33.983
33.96
33.938
33.917
33.895
33.872
33.85
33.827
33.805
33.782
33.759
33.737
33.715
33.692
33.668
33.644
33.621
33.598
33.576
33.554
33.533
33.514
33.495
33.476
33.458
33.439
33.42
33.4
33.378
33.355
33.332
33.307
33.283
33.26
33.236
33.214
33.194
33.174
33.154
33.135
33.118
33.101
33.085
33.068
33.05
33.033
33.017
33.002
32.99
32.982
32.981
32.989
33.008
33.04
33.09
33.16
33.252
33.367
33.505
33.664
33.845
34.044
34.26
34.489
34.729
34.976
35.225
35.474
35.718
35.955
36.183
36.4
36.604
36.794
36.969
37.128
37.271
37.398
37.509
37.605
37.684
37.749
37.801
37.84
37.868
37.886
37.894
37.893
37.885
37.873
37.857
37.838
37.819
37.799
37.78
37.761
37.743
37.726
37.71
37.697
37.687
37.683
37.689
37.707
37.734
37.767
37.8
37.83
37.851
37.86
37.855
37.835
37.798
37.745
37.677
37.598
37.508
37.412
37.311
37.209
37.109
37.012
36.92
36.835
36.756
36.686
36.624
36.572
36.528
36.492
36.463
36.44
36.423
36.41
36.4
36.392
36.385
36.379
36.37
36.358
36.343
36.324
36.302
36.277
36.249
36.217
36.183
36.146
36.106
36.064
36.021
35.976
35.93
35.883
35.834
35.783
35.73
35.676
35.622
35.567
35.512
35.456
35.401
35.346
35.292
35.239
35.188
35.14
35.094
35.052
35.011
34.971
34.931
34.89
34.848
34.803
34.757
34.709
34.661
34.611
34.56
34.508
34.455
34.403
34.352
34.301
34.251
34.203
34.156
34.112
34.072
34.034
34.0
33.969
33.941
33.914
33.89
33.867
33.846
33.826
33.806
33.786
33.765
33.745
33.724
33.702
33.682
33.662
33.642
33.621
33.601
33.579
33.558
33.537
33.517
33.497
33.478
33.461
33.443
33.425
33.406
33.385
33.364
33.341
33.318
33.292
33.266
33.238
33.209
33.179
33.149
33.12
33.091
33.062
33.033
33.004
32.975
32.946
32.917
32.887
32.857
32.827
32.797
32.767
32.74
32.714
32.69
32.671
32.659
32.658
32.67
32.698
32.744
32.811
32.898
33.01
33.145
33.305
33.488
33.695
33.922
34.168
34.429
34.699
34.976
35.255
35.535
35.809
36.075
36.329
36.568
36.791
36.996
37.181
37.346
37.492
37.619
37.728
37.819
37.894
37.954
38.0
38.035
38.06
38.077
38.088
38.094
38.098
38.101
38.105
38.11
38.117
38.127
38.141
38.157
38.174
38.192
38.209
38.223
38.232
38.236
38.234
38.224
38.206
38.179
38.143
38.101
38.052
37.999
37.943
37.885
37.824
37.764
37.703
37.643
37.584
37.525
37.469
37.412
37.356
37.301
37.245
37.191
37.138
37.086
37.036
36.986
36.938
36.891
36.846
36.802
36.761
36.723
36.688
36.655
36.623
36.593
36.565
36.539
36.515
36.491
36.467
36.441
36.414
36.385
36.355
36.322
36.288
36.252
36.215
36.177
36.136
36.094
36.051
36.008
35.965
35.921
35.876
35.829
35.782
35.734
35.685
35.635
35.585
35.535
35.483
35.43
35.374
35.318
35.26
35.203
35.144
35.086
35.027
34.968
34.909
34.85
34.792
34.736
34.682
34.628
34.576
34.524
34.474
34.424
34.375
34.328
34.283
34.241
34.199
34.159
34.119
34.079
34.039
33.998
33.957
33.914
33.871
33.828
33.788
33.75
33.714
33.68
33.648
33.618
33.588
33.559
33.531
33.505
33.48
33.457
33.435
33.413
33.391
33.369
33.346
33.322
33.298
33.273
33.249
33.225
33.202
33.179
33.157
33.134
33.11
33.085
33.059
33.032
33.004
32.975
32.946
32.916
32.887
32.857
32.828
32.799
32.771
32.743
32.716
32.689
32.664
32.638
32.613
32.587
32.563
32.539
32.515
32.492
32.47
32.452
32.44
32.437
32.446
32.469
32.512
32.575
32.664
32.779
32.922
33.093
33.292
33.515
33.761
34.025
34.304
34.594
34.89
35.187
35.482
35.771
36.049
36.314
36.562
36.792
37.003
37.194
37.366
37.518
37.651
37.765
37.861
37.942
38.007
38.06
38.101
38.131
38.153
38.166
38.173
38.174
38.171
38.163
38.153
38.14
38.126
38.112
38.097
38.082
38.068
38.054
38.04
38.028
38.016
38.004
37.992
37.979
37.965
37.949
37.931
37.91
37.885
37.856
37.823
37.785
37.742
37.693
37.64
37.582
37.52
37.453
37.383
37.31
37.235
37.16
37.084
37.011
36.94
36.874
36.811
36.754
36.702
36.654
36.612
36.575
36.542
36.512
36.486
36.462
36.441
36.421
36.403
36.386
36.369
36.353
36.336
36.317
36.295
36.27
36.24
36.206
36.168
36.127
36.082
36.036
35.988
35.938
35.886
35.834
35.78
35.726
35.671
35.614
35.558
35.501
35.444
35.386
35.327
35.266
35.205
35.144
35.082
35.021
34.962
34.905
34.85
34.797
34.747
34.701
34.657
34.617
34.579
34.542
34.508
34.473
34.438
34.402
34.365
34.326
34.286
34.244
34.201
34.158
34.114
34.071
34.029
33.987
33.946
33.906
33.868
33.833
33.801
33.772
33.746
33.724
33.703
33.685
33.667
33.65
33.632
33.612
33.592
33.57
33.547
33.524
33.501
33.479
33.458
33.436
33.414
33.391
33.368
33.345
33.323
33.302
33.281
33.261
33.242
33.222
33.202
33.181
33.159
33.136
33.111
33.084
33.055
33.024
32.993
32.963
32.935
32.91
32.89
32.876
32.87
32.876
32.894
32.928
32.98
33.051
33.143
33.257
33.396
33.558
33.743
33.952
34.181
34.428
34.689
34.962
35.242
35.526
35.811
