Trial 3:3back
35.852
35.785
35.717
35.649
35.58
35.513
35.448
35.387
35.33
35.278
35.23
35.187
35.146
35.107
35.07
35.034
34.999
34.966
34.934
34.902
34.87
34.837
34.804
34.771
34.737
34.703
34.669
34.636
34.603
34.57
34.538
34.507
34.478
34.451
34.426
34.403
34.381
34.361
34.343
34.324
34.307
34.29
34.275
34.26
34.246
34.232
34.219
34.204
34.189
34.172
34.153
34.132
34.109
34.084
34.059
34.034
34.01
33.986
33.964
33.941
33.917
33.893
33.869
33.844
33.819
33.793
33.766
33.74
33.713
33.686
33.66
33.634
33.608
33.584
33.561
33.538
33.515
33.492
33.469
33.446
33.423
33.404
33.389
33.381
33.382
33.395
33.422
33.465
33.526
33.606
33.706
33.828
33.971
34.135
34.318
34.52
34.737
34.966
35.204
35.448
35.694
35.943
36.197
36.455
36.711
36.959
37.194
37.411
37.605
37.775
37.917
38.03
38.115
38.174
38.21
38.227
38.227
38.214
38.191
38.161
38.127
38.09
38.054
38.021
37.991
37.965
37.942
37.922
37.903
37.885
37.866
37.847
37.826
37.803
37.778
37.75
37.72
37.687
37.651
37.613
37.573
37.53
37.485
37.436
37.383
37.326
37.266
37.202
37.135
37.067
36.997
36.926
36.857
36.789
36.724
36.661
36.604
36.551
36.503
36.458
36.417
36.378
36.343
36.309
36.278
36.248
36.22
36.193
36.169
36.147
36.129
36.113
36.1
36.089
36.08
36.073
36.065
36.057
36.048
36.036
36.021
36.003
35.98
35.953
35.922
35.888
35.851
35.812
35.77
35.726
35.679
35.631
35.581
35.531
35.482
35.431
35.381
35.331
35.281
35.233
35.187
35.144
35.103
35.064
35.024
34.985
34.945
34.904
34.864
34.823
34.784
34.746
34.708
34.67
34.633
34.598
34.566
34.536
34.509
34.483
34.458
34.432
34.406
34.38
34.353
34.327
34.303
34.279
34.257
34.234
34.212
34.191
34.171
34.155
34.14
34.127
34.115
34.101
34.088
34.074
34.06
34.048
34.036
34.025
34.015
34.005
33.994
33.981
33.965
33.947
33.927
33.905
33.882
33.858
33.835
33.811
33.788
33.766
33.746
33.726
33.709
33.693
33.679
33.666
33.654
33.641
33.627
33.611
33.594
33.574
33.552
33.528
33.502
33.473
33.444
33.413
33.381
33.349
33.318
33.288
33.262
33.242
33.231
33.232
33.247
33.28
33.333
33.41
33.511
33.639
33.792
33.968
34.165
34.381
34.614
34.861
35.118
35.381
35.646
35.91
36.168
36.418
36.657
36.883
37.092
37.285
37.459
37.613
37.749
37.867
37.967
38.051
38.118
38.171
38.21
38.237
38.254
38.26
38.257
38.246
38.228
38.205
38.179
38.15
38.121
38.092
38.063
38.034
38.004
37.972
37.94
37.907
37.872
37.836
37.796
37.753
37.707
37.658
37.607
37.554
37.501
37.446
37.39
37.332
37.273
37.213
37.152
37.092
37.032
36.974
36.916
36.861
36.808
36.758
36.711
36.669
36.631
36.597
36.567
36.539
36.515
36.495
36.479
36.465
36.453
36.443
36.432
36.421
36.41
36.397
36.384
36.369
36.352
36.332
36.308
36.282
36.252
36.22
36.185
36.148
36.109
36.067
36.023
35.979
35.933
35.887
35.839
35.79
35.74
35.689
35.637
35.586
35.535
35.485
35.436
35.387
35.34
35.293
35.247
35.203
35.16
35.118
35.077
35.037
34.996
34.956
34.915
34.875
34.834
34.794
34.754
34.716
34.679
34.644
34.611
34.581
34.553
34.526
34.501
34.477
34.453
34.429
34.404
34.381
34.357
34.334
34.31
34.285
34.259
34.233
34.207
34.181
34.155
34.13
34.106
34.083
34.062
34.043
34.027
34.014
34.002
33.991
33.98
33.968
33.955
33.94
33.924
33.907
33.891
33.873
33.856
33.838
33.82
33.802
33.783
33.765
33.747
33.727
33.705
33.682
33.658
33.632
33.605
33.578
33.549
33.521
33.493
33.466
33.438
33.408
33.379
33.348
33.318
33.287
33.255
33.223
33.191
33.161
33.134
33.112
33.094
33.084
33.083
33.092
33.115
33.155
33.214
33.296
33.404
33.538
33.7
33.888
34.1
34.335
34.59
34.859
35.14
35.427
35.716
36.004
36.286
36.561
36.826
37.079
37.317
37.54
37.746
37.935
38.108
38.265
38.405
38.527
38.633
38.723
38.798
38.858
38.903
38.933
38.949
38.954
38.95
38.938
38.922
38.901
38.877
38.849
38.819
38.789
38.759
38.729
38.698
38.667
38.636
38.606
38.576
38.547
38.517
38.485
38.451
38.415
38.375
38.332
38.286
38.238
38.184
38.125
38.061
37.993
37.922
37.849
37.776
37.701
37.626
37.552
37.479
37.409
37.341
37.277
37.215
37.156
37.1
37.048
37.0
36.956
36.915
36.879
36.845
36.812
36.779
36.745
36.711
36.678
36.646
36.615
36.587
36.561
36.538
36.517
36.498
36.479
36.46
36.44
36.417
36.392
36.363
36.331
36.294
36.254
36.21
36.161
36.11
36.054
35.995
35.934
35.871
35.806
35.742
35.679
35.617
35.558
35.502
35.45
35.4
35.353
35.308
35.263
35.22
35.177
35.134
35.09
35.047
35.003
34.959
34.915
34.871
34.828
34.786
34.746
34.707
34.671
34.636
34.603
34.571
34.54
34.511
34.484
34.459
34.436
34.413
34.387
34.357
34.324
34.29
34.257
34.226
34.2
34.178
34.161
34.147
34.135
34.125
34.117
34.11
34.103
34.097
34.09
34.083
34.074
34.062
34.049
34.033
34.016
33.996
33.975
33.951
33.926
33.898
33.87
33.841
33.812
33.783
33.756
33.73
33.704
33.678
33.653
33.627
33.602
33.577
33.554
33.532
33.512
33.494
33.476
33.459
33.441
33.423
33.404
33.384
33.364
33.343
33.32
33.295
33.269
33.242
33.212
33.178
33.141
33.101
33.062
33.028
33.003
32.991
32.997
33.025
33.079
33.163
33.276
33.419
33.59
33.789
34.014
34.263
34.532
34.817
35.115
35.421
35.73
36.038
36.342
36.637
36.921
37.19
37.443
37.677
37.89
38.083
38.256
38.408
38.54
38.651
38.742
38.816
38.872
38.913
38.941
38.956
38.96
38.956
38.946
38.931
38.912
38.89
38.866
38.841
38.814
38.788
38.762
38.737
38.714
38.692
38.67
38.648
38.627
38.607
38.585
38.561
38.535
38.506
38.473
38.435
38.393
38.345
38.291
38.231
38.164
38.091
38.013
37.932
37.847
37.759
37.669
37.578
37.488
37.4
37.315
37.233
37.157
37.085
37.018
36.957
36.902
36.853
36.81
36.772
36.738
36.706
36.678
36.652
36.627
36.605
36.583
36.561
36.539
36.516
36.492
36.466
36.439
36.41
36.379
36.347
36.313
36.278
36.242
36.204
36.163
36.119
36.074
36.025
35.974
35.92
35.863
35.804
35.743
35.683
35.623
35.565
35.509
35.456
35.404
35.354
35.307
35.262
35.218
35.176
35.134
35.091
35.048
35.003
34.956
34.91
34.863
34.817
34.771
34.725
34.679
34.634
34.59
34.548
34.509
34.473
34.441
34.411
34.384
34.358
34.333
34.308
34.283
34.258
34.234
34.209
34.183
34.157
34.13
34.103
34.077
34.051
34.026
34.002
33.979
33.957
33.936
33.916
33.896
33.877
33.859
33.839
33.819
33.797
33.774
33.749
33.725
33.702
33.68
33.66
33.641
33.624
33.608
33.591
33.573
33.555
33.536
33.515
33.494
33.471
33.447
33.423
33.398
33.375
33.351
33.328
33.305
33.282
33.26
33.24
33.22
33.204
33.189
33.175
33.163
33.151
33.138
33.123
33.106
33.088
33.067
33.044
33.019
32.993
32.965
32.937
32.91
32.885
32.86
32.835
32.813
32.794
32.779
32.769
32.768
32.777
32.8
32.839
32.899
32.98
33.086
33.218
33.378
33.565
33.778
34.015
34.273
34.549
34.837
35.134
35.436
35.738
36.037
36.328
36.608
36.875
37.126
37.359
37.571
37.763
37.934
38.085
38.216
38.328
38.422
38.5
38.563
38.613
38.649
38.673
38.686
38.69
38.686
38.676
38.661
38.642
38.621
38.599
38.577
38.555
38.533
38.512
38.492
38.471
38.449
38.427
38.403
38.378
38.352
38.324
38.293
38.259
38.221
38.179
38.133
38.081
38.023
37.959
37.888
37.811
37.729
37.644
37.559
37.472
37.387
37.303
37.223
37.148
37.079
37.015
36.956
36.902
36.851
36.805
36.763
36.727
36.697
36.673
36.654
36.64
36.628
36.619
36.609
36.599
36.587
36.572
36.555
36.536
36.513
36.487
36.459
36.429
36.396
36.36
36.321
36.28
36.237
36.192
36.145
36.099
36.052
36.004
35.957
35.91
35.862
35.814
35.765
35.716
35.667
35.617
35.567
35.517
35.466
35.414
35.362
35.308
35.252
35.196
35.138
35.078
35.018
34.959
34.901
34.846
34.795
34.749
34.708
34.671
34.638
34.61
34.588
34.571
34.561
34.555
34.552
34.548
34.543
34.534
34.521
34.502
34.478
34.448
34.413
34.374
34.331
34.288
34.244
34.201
34.161
34.125
34.094
34.067
34.045
34.026
34.011
33.997
33.984
33.971
33.956
33.94
33.922
33.903
33.884
33.864
33.844
33.824
33.804
33.785
33.767
33.751
33.734
33.718
33.701
33.682
33.662
33.64
33.617
33.595
33.572
33.55
33.528
33.504
33.479
33.453
33.427
33.401
33.376
33.352
33.328
33.304
33.278
33.252
33.225
33.198
33.173
33.149
33.128
33.107
33.087
33.066
33.044
33.022
33.0
32.978
32.957
32.936
32.917
32.899
32.887
32.881
32.886
32.903
32.936
32.987
33.059
33.154
33.274
33.42
33.593
33.795
34.024
34.278
34.552
34.843
35.145
35.455
35.766
36.075
36.377
36.67
36.949
37.214
37.461
37.688
37.893
38.077
38.238
38.378
38.495
38.59
38.667
38.726
38.77
38.799
38.816
38.822
38.821
38.812
38.797
38.778
38.756
38.731
38.705
38.678
38.651
38.624
38.597
38.569
38.539
38.507
38.473
38.436
38.398
38.359
38.319
38.277
38.234
38.188
38.139
38.086
38.029
37.969
37.905
37.837
37.766
37.691
37.615
37.536
37.455
37.373
37.291
37.207
37.125
37.045
36.97
36.9
36.836
36.778
36.727
36.683
36.644
36.611
36.582
36.557
36.536
36.518
36.502
36.486
36.47
36.454
36.437
36.418
36.397
36.376
36.353
36.328
36.301
36.274
36.245
36.214
36.181
36.147
36.11
36.072
36.031
35.987
35.942
35.895
35.846
35.794
35.741
35.686
35.627
35.567
35.505
35.441
35.377
35.313
35.249
35.188
35.128
35.07
35.014
34.961
34.909
34.859
34.811
34.765
34.722
34.681
34.643
34.607
34.573
34.542
34.513
34.485
34.457
34.428
34.397
34.365
34.333
34.299
34.266
34.233
34.201
34.17
34.141
34.113
34.087
34.063
34.041
34.02
34.0
33.981
33.963
33.945
33.928
33.912
33.898
33.885
33.873
33.859
33.843
33.825
33.804
33.782
33.76
33.737
33.713
33.689
33.664
33.638
33.611
33.585
33.558
33.532
33.505
33.479
33.451
33.424
33.397
33.372
33.348
33.325
33.304
33.284
33.266
33.249
33.234
33.22
33.208
33.196
33.182
33.165
33.146
33.125
33.101
33.076
33.05
33.025
33.001
32.978
32.954
32.931
32.908
32.885
32.862
32.841
32.82
32.802
32.785
32.772
32.761
32.753
32.747
32.742
32.738
32.733
32.726
32.718
32.709
32.701
32.695
32.694
32.702
32.723
32.762
32.823
32.908
33.02
33.16
33.33
33.529
33.756
34.009
34.284
34.579
34.889
35.208
35.532
35.858
36.181
36.497
36.802
37.094
37.368
37.624
37.86
38.074
38.266
38.435
38.584
38.711
38.82
38.911
38.986
39.046
39.093
39.127
39.151
39.164
39.17
39.168
39.16
39.147
39.128
39.107
39.084
39.059
39.034
39.006
38.979
38.951
38.923
38.896
38.871
38.845
38.82
38.795
38.77
38.745
38.719
38.692
38.662
38.628
38.589
38.544
38.492
38.433
38.365
38.288
38.203
38.111
38.015
37.915
37.814
37.712
37.613
37.516
37.425
37.34
37.262
37.192
37.13
37.075
37.026
36.981
36.941
36.905
36.872
36.841
36.813
36.785
36.757
36.729
36.7
36.67
36.638
36.605
36.571
36.534
36.497
36.458
36.418
36.376
36.334
36.29
36.244
36.196
36.148
36.099
36.049
35.999
35.947
35.894
35.84
35.786
35.731
35.677
35.623
35.569
35.514
35.459
35.405
35.352
35.3
35.251
35.203
35.157
35.111
35.066
35.021
34.976
34.931
34.887
34.842
34.797
34.751
34.704
34.659
34.615
34.572
34.531
34.491
34.453
34.417
34.382
34.35
34.32
34.292
34.263
34.235
34.206
34.178
34.15
34.124
34.101
34.08
34.06
34.042
34.023
34.004
33.986
33.966
33.947
33.926
33.905
33.882
33.858
33.833
33.808
33.783
33.759
33.736
33.713
33.69
33.666
33.643
33.619
33.597
33.576
33.555
33.534
33.512
33.49
33.467
33.448
33.439
33.44
33.45
33.466
33.484
33.499
33.51
33.513
33.508
33.492
33.466
33.431
33.388
33.339
33.285
33.228
33.171
33.113
33.058
33.007
32.96
32.92
32.886
32.859
32.837
32.819
32.805
32.793
32.784
32.775
32.768
32.76
32.752
32.744
32.734
32.725
32.714
32.703
32.691
32.677
32.661
32.644
32.625
32.606
32.589
32.577
32.571
32.575
32.591
32.622
32.672
32.744
32.841
32.963
33.112
33.288
33.492
33.721
33.977
34.255
34.553
34.866
35.189
35.515
35.84
36.158
36.467
36.762
37.04
37.298
37.535
37.752
37.948
38.123
38.278
38.412
38.526
38.623
38.703
38.768
38.82
38.86
38.888
38.906
38.915
38.919
38.917
38.911
38.9
38.885
38.867
38.847
38.825
38.802
38.777
38.75
38.722
38.694
38.665
38.638
38.611
38.582
38.552
38.52
38.486
38.449
38.408
38.363
38.311
38.254
38.19
38.12
38.046
37.967
37.884
37.797
37.708
37.618
37.528
37.442
37.358
37.277
37.202
37.132
37.07
37.014
36.966
36.925
36.889
36.858
36.83
36.804
36.779
36.754
36.73
36.705
36.679
36.651
36.622
36.591
36.559
36.526
36.495
36.465
36.436
36.407
36.378
36.348
36.318
36.287
36.254
36.22
36.183
36.143
36.101
36.054
36.003
35.948
35.89
35.83
35.769
35.707
35.645
35.585
35.526
35.469
35.414
35.36
35.308
35.257
35.207
35.158
35.111
35.064
35.02
34.977
34.937
34.897
34.858
34.819
34.78
34.74
34.701
34.662
34.626
34.59
34.557
34.525
34.496
34.469
34.444
34.42
34.396
34.373
34.349
34.325
34.299
34.272
34.245
34.217
34.188
34.16
34.131
34.101
34.072
34.044
34.017
33.992
33.968
33.945
33.924
33.903
33.881
33.859
33.837
33.815
33.793
33.772
33.752
33.732
33.713
33.696
33.68
33.664
33.649
33.634
33.618
33.601
33.584
33.567
33.55
33.532
33.515
33.498
33.482
33.467
33.451
33.435
33.419
33.4
33.381
33.361
33.34
33.317
33.293
33.268
33.241
33.213
33.185
33.158
33.131
33.105
33.081
33.059
33.038
33.019
33.002
32.988
32.976
32.967
32.958
32.949
32.94
32.928
32.914
32.899
32.883
32.866
32.849
32.833
32.819
32.808
32.803
32.807
32.823
32.856
32.908
32.98
33.076
33.196
33.344
33.519
33.722
33.951
34.203
34.474
34.761
35.059
35.363
35.67
35.976
36.276
36.567
36.844
37.106
37.35
37.574
37.777
37.956
38.114
38.249
38.365
38.46
38.538
38.599
38.644
38.673
38.689
38.693
38.687
38.674
38.653
38.627
38.595
38.56
38.521
38.482
38.441
38.4
38.358
38.317
38.274
38.231
38.188
38.145
38.1
38.054
38.006
37.956
37.902
37.845
37.784
37.719
37.651
37.578
37.502
37.424
37.345
37.265
37.187
37.109
37.033
36.959
36.887
36.819
36.755
36.696
36.641
36.591
36.547
36.508
36.473
36.444
36.42
36.4
36.382
36.365
36.351
36.338
36.326
36.315
36.304
36.293
36.28
36.265
36.249
36.231
36.213
36.194
36.174
36.151
36.125
36.095
36.059
36.019
35.976
35.929
35.88
35.828
35.774
35.719
35.663
35.607
35.551
35.496
35.441
35.384
35.327
35.27
35.213
35.157
35.102
35.048
34.994
34.939
34.885
34.83
34.776
34.725
34.675
34.629
34.586
34.546
34.509
34.474
34.442
34.411
34.38
34.35
34.321
34.292
34.263
34.236
34.21
34.185
34.161
34.14
34.121
34.103
34.087
34.073
34.058
34.044
34.028
34.012
33.993
33.974
33.953
33.93
33.907
33.882
33.858
33.835
33.812
33.792
33.773
33.755
33.737
33.72
33.703
33.686
33.669
33.652
33.633
33.613
33.591
33.567
33.541
33.514
33.486
33.458
33.43
33.404
33.379
33.354
33.331
33.309
33.287
33.267
33.247
33.228
33.209
33.189
33.169
33.148
33.127
33.106
33.086
33.065
33.044
33.023
33.002
32.98
32.96
32.94
32.922
32.906
32.89
32.874
32.856
32.837
32.817
32.794
32.771
32.747
32.723
32.698
32.675
32.653
32.634
32.622
32.619
32.631
32.66
32.711
32.784
32.882
33.005
33.156
33.335
33.542
33.775
34.035
34.318
34.62
34.938
35.266
35.599
35.932
36.261
36.582
36.89
37.183
37.46
37.718
37.955
38.171
38.364
38.535
38.686
38.816
38.928
39.022
39.101
39.164
39.213
39.249
39.275
39.291
39.298
39.297
39.291
39.278
39.261
39.241
39.219
39.197
39.174
39.152
39.131
39.109
39.089
39.068
39.047
39.025
39.001
38.976
38.949
38.921
38.891
38.859
38.824
38.786
38.741
38.691
38.635
38.573
38.506
38.434
38.358
38.276
38.19
38.101
38.009
37.916
37.822
37.729
37.639
37.554
37.475
37.401
37.334
37.273
37.217
37.167
37.122
37.08
37.043
37.009
36.977
36.948
36.922
36.896
36.87
36.844
36.816
36.787
36.755
36.721
36.684
36.644
36.602
36.558
36.513
36.467
36.421
36.374
36.325
36.276
36.226
36.175
36.124
36.074
36.024
35.974
35.922
35.87
35.818
35.765
35.71
35.655
35.597
35.539
35.479
35.419
35.36
35.302
35.246
35.192
35.14
35.091
35.045
35.001
34.959
34.918
34.876
34.834
34.791
34.749
34.707
34.666
34.625
34.583
34.542
34.5
34.458
34.418
34.379
34.343
34.308
34.274
34.242
34.211
34.182
34.154
34.129
34.106
34.085
34.064
34.043
34.022
34.002
33.983
33.965
33.948
33.931
33.912
33.893
33.874
33.855
33.837
33.82
33.805
33.79
33.777
33.765
33.754
33.743
33.734
33.725
33.716
33.705
33.693
33.679
33.663
33.645
33.626
33.607
33.584
33.554
33.515
33.468
33.416
33.361
33.306
33.254
33.206
33.163
33.126
33.096
33.072
33.053
33.04
33.031
33.024
33.02
33.015
33.011
33.006
32.999
32.99
32.979
32.967
32.954
32.941
32.93
32.921
32.915
32.914
32.921
32.939
32.971
33.022
33.094
33.19
33.314
33.466
33.647
33.855
34.089
34.346
34.624
34.918
35.223
35.534
35.849
36.162
36.468
36.763
37.044
37.308
37.553
37.778
37.98
38.161
38.319
38.456
38.572
38.668
38.745
38.806
38.852
38.884
38.905
38.915
38.916
38.91
38.897
38.877
38.853
38.825
38.796
38.765
38.734
38.704
38.674
38.646
38.619
38.593
38.568
38.544
38.52
38.495
38.47
38.443
38.413
38.38
38.341
38.297
38.247
38.192
38.132
38.064
37.991
37.912
37.828
37.741
37.651
37.559
37.466
37.373
37.283
37.195
37.112
37.033
36.959
36.891
36.828
36.771
36.72
36.676
36.637
36.604
36.576
36.551
36.529
36.511
36.496
36.482
36.468
36.453
36.434
36.413
36.389
36.363
36.335
36.306
36.275
36.242
36.206
36.168
36.128
36.087
36.046
36.003
35.959
35.913
35.865
35.817
35.768
35.718
35.668
35.616
35.564
35.513
35.462
35.412
35.362
35.312
35.263
35.214
35.166
35.12
35.075
35.032
34.991
34.949
34.908
34.865
34.822
34.778
34.734
34.69
34.647
34.605
34.562
34.521
34.481
34.443
34.407
34.372
34.338
34.305
34.273
34.243
34.214
34.187
34.161
34.135
34.11
34.084
34.058
34.033
34.009
33.987
33.968
33.951
33.936
33.921
33.909
33.898
33.887
33.876
33.864
33.85
33.834
33.818
33.799
33.78
33.759
33.737
33.713
33.687
33.661
33.635
33.609
33.584
33.56
33.536
33.512
33.488
33.464
33.441
33.419
33.397
33.374
33.35
33.326
33.301
33.277
33.254
33.232
33.21
33.189
33.169
33.15
33.132
33.114
33.096
33.078
33.059
33.039
33.019
33.0
32.981
32.967
32.958
32.958
32.969
32.994
33.037
33.1
33.186
33.297
33.436
33.603
33.796
34.014
34.253
34.511
34.782
35.064
35.352
35.642
35.929
36.209
36.48
36.738
36.979
37.203
37.408
37.593
37.758
37.905
38.032
38.142
38.234
38.308
38.367
38.41
38.44
38.457
38.463
38.46
38.449
38.431
38.406
38.376
38.341
38.303
38.261
38.218
38.172
38.126
38.082
38.039
37.998
37.959
37.922
37.884
37.846
37.806
37.762
37.715
37.663
37.607
37.545
37.477
37.404
37.327
37.246
37.162
37.076
36.988
36.901
36.815
36.732
36.653
36.579
36.512
36.45
36.394
36.344
36.301
36.264
36.234
36.21
36.191
36.176
36.165
36.158
36.155
36.154
36.153
36.152
36.148
36.14
36.129
36.114
36.095
36.072
36.044
36.013
35.979
35.943
35.906
35.868
35.83
35.79
35.749
35.706
35.661
35.616
35.57
35.522
35.472
35.421
35.368
