Trial 3:3back
36.033
35.931
35.831
35.733
35.638
35.548
35.462
35.384
35.314
35.254
35.202
35.161
35.131
35.111
35.101
35.102
35.113
35.133
35.162
35.2
35.245
35.297
35.354
35.416
35.48
35.546
35.613
35.679
35.744
35.805
35.862
35.912
35.957
35.995
36.024
36.044
36.055
36.055
36.045
36.025
35.995
35.956
35.909
35.853
35.79
35.721
35.645
35.565
35.482
35.397
35.311
35.226
35.142
35.059
34.977
34.896
34.815
34.735
34.658
34.583
34.51
34.438
34.369
34.3
34.234
34.169
34.106
34.046
33.989
33.936
33.886
33.837
33.791
33.747
33.704
33.664
33.626
33.59
33.557
33.528
33.501
33.477
33.456
33.437
33.42
33.404
33.389
33.373
33.358
33.343
33.327
33.311
33.295
33.278
33.261
33.243
33.226
33.209
33.193
33.178
33.164
33.15
33.136
33.121
33.105
33.088
33.069
33.048
33.027
33.004
32.981
32.958
32.935
32.914
32.895
32.88
32.87
32.869
32.877
32.899
32.936
32.993
33.073
33.178
33.313
33.477
33.673
33.9
34.158
34.446
34.761
35.098
35.452
35.817
36.186
36.552
36.91
37.254
37.579
37.882
38.159
38.407
38.624
38.81
38.962
39.082
39.17
39.227
39.253
39.252
39.225
39.175
39.105
39.018
38.916
38.803
38.68
38.549
38.412
38.271
38.127
37.982
37.837
37.693
37.55
37.408
37.267
37.129
36.992
36.857
36.723
36.591
36.46
36.331
36.205
36.08
35.959
35.84
35.724
35.611
35.503
35.398
35.299
35.207
35.121
35.045
34.977
34.921
34.874
34.839
34.814
34.799
34.794
34.801
34.819
34.848
34.887
34.937
34.994
35.059
35.128
35.202
35.276
35.351
35.424
35.494
35.561
35.623
35.678
35.727
35.768
35.801
35.826
35.843
35.853
35.853
35.845
35.827
35.799
35.761
35.716
35.662
35.602
35.535
35.463
35.386
35.304
35.22
35.133
35.047
34.96
34.873
34.786
34.7
34.615
34.532
34.449
34.369
34.291
34.215
34.141
34.07
34.003
33.939
33.879
33.823
33.77
33.72
33.673
33.629
33.587
33.547
33.509
33.473
33.438
33.405
33.373
33.341
33.31
33.279
33.25
33.221
33.193
33.167
33.141
33.118
33.094
33.071
33.048
33.024
33.002
32.98
32.96
32.939
32.919
32.899
32.88
32.86
32.84
32.82
32.801
32.783
32.767
32.753
32.741
32.732
32.727
32.727
32.734
32.749
32.775
32.814
32.869
32.946
33.047
33.175
33.333
33.522
33.745
34.0
34.287
34.602
34.941
35.3
35.672
36.049
36.426
36.794
37.148
37.482
37.791
38.072
38.322
38.538
38.719
38.866
38.979
39.06
39.111
39.134
39.13
39.103
39.054
38.989
38.917
38.842
38.766
38.687
38.6
38.504
38.397
38.276
38.142
37.995
37.836
37.666
37.489
37.306
37.119
36.933
36.748
36.568
36.394
36.227
36.067
35.916
35.773
35.638
35.513
35.396
35.286
35.183
35.086
34.996
34.911
34.835
34.766
34.704
34.651
34.606
34.571
34.545
34.53
34.524
34.53
34.545
34.571
34.605
34.649
34.701
34.76
34.826
34.898
34.976
35.056
35.138
35.219
35.298
35.373
35.442
35.504
35.557
35.601
35.635
35.657
35.668
35.668
35.657
35.636
35.606
35.568
35.521
35.466
35.405
35.338
35.267
35.191
35.112
35.031
34.949
34.866
34.783
34.7
34.616
34.532
34.449
34.366
34.285
34.206
34.13
34.056
33.985
33.916
33.849
33.784
33.723
33.665
33.611
33.561
33.514
33.47
33.429
33.389
33.352
33.315
33.28
33.246
33.215
33.186
33.157
33.131
33.105
33.079
33.054
33.03
33.007
32.986
32.966
32.947
32.927
32.908
32.888
32.868
32.847
32.827
32.808
32.79
32.773
32.756
32.741
32.725
32.71
32.696
32.682
32.67
32.661
32.654
32.653
32.658
32.672
32.698
32.738
32.796
32.874
32.977
33.109
33.272
33.47
33.704
33.973
34.275
34.606
34.961
35.335
35.722
36.113
36.504
36.885
37.252
37.598
37.916
38.203
38.457
38.676
38.858
39.003
39.113
39.187
39.229
39.24
39.224
39.181
39.117
39.031
38.929
38.811
38.681
38.54
38.392
38.236
38.076
37.911
37.744
37.575
37.406
37.238
37.072
36.91
36.751
36.597
36.448
36.303
36.162
36.024
35.89
35.757
35.629
35.503
35.38
35.261
35.145
35.033
34.923
34.816
34.714
34.62
34.534
34.459
34.395
34.343
34.304
34.277
34.261
34.259
34.269
34.292
34.326
34.372
34.427
34.49
34.56
34.636
34.717
34.802
34.89
34.979
35.066
35.15
35.227
35.298
35.359
35.411
35.452
35.483
35.502
35.511
35.509
35.496
35.472
35.439
35.397
35.349
35.295
35.236
35.172
35.104
35.033
34.958
34.88
34.799
34.716
34.632
34.547
34.462
34.377
34.293
34.213
34.139
34.073
34.013
33.958
33.907
33.859
33.811
33.763
33.712
33.659
33.603
33.545
33.486
33.427
33.367
33.309
33.252
33.198
33.148
33.101
33.058
33.02
32.985
32.954
32.926
32.903
32.883
32.866
32.85
32.834
32.818
32.802
32.785
32.766
32.748
32.73
32.712
32.695
32.679
32.664
32.65
32.636
32.623
32.61
32.598
32.588
32.581
32.577
32.577
32.58
32.587
32.599
32.617
32.644
32.681
32.732
32.801
32.889
33.002
33.141
33.309
33.51
33.744
34.012
34.313
34.642
34.996
35.368
35.752
36.142
36.529
36.908
37.269
37.608
37.919
38.198
38.442
38.65
38.82
38.952
39.047
39.107
39.133
39.127
39.093
39.033
38.952
38.853
38.74
38.615
38.48
38.339
38.193
38.043
37.891
37.738
37.587
37.439
37.295
37.154
37.017
36.881
36.748
36.615
36.484
36.354
36.224
36.094
35.964
35.833
35.702
35.572
35.444
35.319
35.198
35.083
34.975
34.874
34.782
34.7
34.628
34.568
34.521
34.487
34.467
34.458
34.462
34.476
34.501
34.537
34.583
34.64
34.708
34.784
34.867
34.957
35.05
35.145
35.241
35.336
35.429
35.516
35.596
35.668
35.731
35.784
35.826
35.858
35.878
35.888
35.886
35.873
35.85
35.818
35.777
35.727
35.671
35.61
35.545
35.477
35.406
35.331
35.254
35.175
35.094
35.012
34.929
34.846
34.764
34.684
34.605
34.527
34.451
34.376
34.302
34.229
34.158
34.089
34.022
33.956
33.894
33.833
33.776
33.721
33.67
33.622
33.578
33.536
33.495
33.455
33.416
33.379
33.343
33.311
33.282
33.256
33.235
33.217
33.203
33.191
33.181
33.172
33.162
33.152
33.14
33.126
33.112
33.097
33.082
33.066
33.05
33.035
33.019
33.004
32.989
32.975
32.965
32.96
32.961
32.97
32.989
33.018
33.063
33.124
33.207
33.316
33.453
33.621
33.823
34.058
34.327
34.626
34.954
35.305
35.675
36.056
36.441
36.822
37.192
37.544
37.873
38.174
38.444
38.68
38.88
39.043
39.171
39.264
39.325
39.357
39.363
39.344
39.304
39.244
39.167
39.074
38.968
38.85
38.722
38.585
38.441
38.292
38.137
37.98
37.821
37.662
37.504
37.348
37.194
37.043
36.895
36.75
36.609
36.471
36.338
36.208
36.083
35.961
35.843
35.727
35.614
35.505
35.4
35.3
35.205
35.115
35.03
34.951
34.879
34.816
34.761
34.718
34.686
34.667
34.661
34.669
34.691
34.724
34.769
34.824
34.89
34.964
35.045
35.131
35.22
35.31
35.399
35.485
35.567
35.644
35.712
35.771
35.821
35.861
35.89
35.908
35.916
35.912
35.898
35.873
35.84
35.797
35.745
35.684
35.616
35.542
35.463
35.38
35.294
35.205
35.113
35.021
34.93
34.84
34.752
34.668
34.587
34.508
34.432
34.358
34.286
34.216
34.148
34.082
34.017
33.954
33.893
33.834
33.777
33.723
33.672
33.625
33.58
33.538
33.499
33.464
33.431
33.4
33.372
33.345
33.319
33.294
33.269
33.246
33.224
33.205
33.187
33.172
33.158
33.145
33.133
33.121
33.107
33.092
33.074
33.054
33.033
33.013
32.995
32.978
32.963
32.948
32.935
32.923
32.913
32.904
32.899
32.898
32.902
32.914
32.935
32.97
33.021
33.093
33.19
33.317
33.476
33.672
33.903
34.17
34.47
34.801
35.158
35.536
35.928
36.327
36.722
37.104
37.468
37.807
38.118
38.398
38.645
38.858
39.036
39.181
39.292
39.37
39.419
39.439
39.434
39.407
39.359
39.292
39.208
39.109
38.998
38.877
38.747
38.61
38.468
38.321
38.172
38.022
37.873
37.725
37.578
37.434
37.292
37.154
37.02
36.891
36.766
36.646
36.529
36.415
36.303
36.191
36.079
35.966
35.853
35.741
35.632
35.525
35.424
35.328
35.24
35.159
35.087
35.026
34.977
34.939
34.914
34.902
34.901
34.913
34.937
34.971
35.014
35.066
35.123
35.184
35.247
35.311
35.376
35.44
35.504
35.567
35.628
35.686
35.741
35.791
35.834
35.87
35.897
35.915
35.923
35.923
35.913
35.893
35.865
35.827
35.78
35.726
35.664
35.595
35.521
35.443
35.362
35.279
35.195
35.11
35.025
34.94
34.856
34.772
34.689
34.607
34.526
34.448
34.372
34.298
34.227
34.159
34.093
34.029
33.969
33.911
33.857
33.806
33.76
33.717
33.676
33.636
33.598
33.56
33.524
33.488
33.453
33.42
33.387
33.355
33.324
33.294
33.267
33.244
33.224
33.207
33.193
33.181
33.17
33.161
33.151
33.142
33.132
33.121
33.109
33.096
33.082
33.066
33.049
33.031
33.011
32.99
32.97
32.95
32.932
32.915
32.901
32.89
32.883
32.882
32.889
32.906
32.938
32.99
33.066
33.168
33.301
33.466
33.666
33.9
34.169
34.47
34.801
35.157
35.533
35.922
36.317
36.708
37.09
37.457
37.803
38.123
38.411
38.666
38.885
39.067
39.214
39.326
39.405
39.453
39.472
39.465
39.435
39.384
39.316
39.231
39.133
39.023
38.902
38.771
38.632
38.487
38.337
38.186
38.033
37.881
37.728
37.577
37.428
37.281
37.137
36.999
36.864
36.734
36.608
36.486
36.367
36.25
36.137
36.026
35.916
35.809
35.703
35.601
35.502
35.406
35.316
35.231
35.154
35.086
35.028
34.983
34.95
34.931
34.926
34.933
34.954
34.988
35.033
35.088
35.152
35.224
35.301
35.383
35.468
35.554
35.64
35.724
35.801
35.871
35.932
35.983
36.022
36.05
36.067
36.074
36.07
36.056
36.034
36.002
35.962
35.915
35.862
35.804
35.742
35.676
35.608
35.537
35.463
35.386
35.307
35.225
35.143
35.059
34.975
34.891
34.808
34.726
34.646
34.567
34.49
34.415
34.343
34.274
34.209
34.147
34.089
34.032
33.977
33.922
33.868
33.814
33.762
33.712
33.664
33.62
33.579
33.544
33.512
33.484
33.459
33.435
33.413
33.394
33.376
33.359
33.343
33.327
33.311
33.294
33.275
33.256
33.236
33.218
33.199
33.181
33.163
33.144
33.127
33.112
33.099
33.088
33.078
33.069
33.058
33.045
33.028
33.009
32.986
32.962
32.936
32.91
32.887
32.867
32.854
32.848
32.852
32.869
32.901
32.952
33.025
33.124
33.252
33.414
33.61
33.844
34.114
34.418
34.754
35.116
35.498
35.893
36.294
36.692
37.08
37.45
37.795
38.111
38.394
38.64
38.848
39.017
39.148
39.241
39.3
39.327
39.325
39.297
39.247
39.176
39.089
38.986
38.871
38.746
38.614
38.475
38.332
38.185
38.036
37.885
37.734
37.583
37.433
37.284
37.136
36.991
36.848
36.709
36.573
36.439
36.309
36.182
36.058
35.937
35.819
35.705
35.594
35.488
35.384
35.285
35.189
35.099
35.016
34.939
34.871
34.811
34.761
34.72
34.69
34.669
34.659
34.66
34.672
34.696
34.731
34.777
34.833
34.898
34.971
35.049
35.133
35.22
35.309
35.397
35.482
35.561
35.634
35.698
35.753
35.799
35.834
35.858
35.871
35.872
35.861
35.839
35.806
35.763
35.711
35.651
35.584
35.511
35.434
35.352
35.268
35.181
35.093
35.005
34.916
34.829
34.742
34.656
34.572
34.489
34.409
34.33
34.255
34.182
34.111
34.043
33.978
33.914
33.853
33.794
33.738
33.684
33.632
33.582
33.534
33.488
33.444
33.401
33.361
33.323
33.29
33.265
33.25
33.245
33.247
33.252
33.257
33.262
33.264
33.262
33.257
33.247
33.232
33.212
33.186
33.157
33.125
33.091
33.057
33.024
32.993
32.964
32.938
32.914
32.893
32.874
32.859
32.845
32.834
32.825
32.818
32.814
32.812
32.811
32.81
32.811
32.813
32.817
32.822
32.832
32.848
32.873
32.911
32.965
33.04
33.137
33.262
33.415
33.6
33.819
34.072
34.358
34.674
35.015
35.376
35.751
36.133
36.516
36.891
37.252
37.592
37.908
38.194
38.446
38.662
38.84
38.981
39.085
39.153
39.189
39.192
39.168
39.117
39.044
38.952
38.845
38.723
38.59
38.449
38.301
38.148
37.992
37.833
37.673
37.513
37.356
37.201
37.05
36.902
36.757
36.616
36.477
36.342
36.211
36.083
35.959
35.839
35.722
35.608
35.496
35.386
35.279
35.174
35.073
34.976
34.884
34.797
34.716
34.642
34.578
34.524
34.482
34.452
34.435
34.431
34.44
34.462
34.496
34.543
34.601
34.67
34.747
34.83
34.918
35.01
35.103
35.197
35.291
35.382
35.468
35.549
35.621
35.683
35.734
35.772
35.797
35.81
35.809
35.797
35.774
35.74
35.696
35.644
35.585
35.521
35.453
35.38
35.304
35.226
35.145
35.062
34.978
34.894
34.811
34.729
34.65
34.574
34.5
34.428
34.357
34.289
34.222
34.157
34.094
34.033
33.973
33.915
33.857
33.8
33.744
33.689
33.636
33.586
33.537
33.491
33.448
33.408
33.371
33.337
33.305
33.275
33.247
33.222
33.199
33.179
33.161
33.144
33.128
33.113
33.098
33.083
33.067
33.05
33.034
33.017
32.999
32.982
32.964
32.947
32.93
32.913
32.896
32.879
32.862
32.846
32.832
32.82
32.81
32.803
32.799
32.797
32.797
32.802
32.811
32.827
32.851
32.887
32.937
33.004
33.091
33.198
33.329
33.485
33.67
33.885
34.129
34.402
34.702
35.025
35.365
35.718
36.076
36.435
36.788
37.129
37.452
37.752
38.025
38.268
38.477
38.652
38.791
38.896
38.966
39.003
39.008
38.985
38.935
38.863
38.772
38.665
38.544
38.413
38.273
38.127
37.977
37.826
37.673
37.519
37.366
37.214
37.063
36.914
36.766
36.619
36.474
36.331
36.19
36.051
35.913
35.776
35.64
35.504
35.369
35.236
35.106
34.98
34.859
34.745
34.638
34.539
34.45
34.373
34.312
34.267
34.239
34.227
34.231
34.249
34.28
34.323
34.378
34.442
34.516
34.596
34.683
34.775
34.87
34.967
35.064
35.159
35.253
35.344
35.43
35.51
35.583
35.648
35.704
35.75
35.785
35.811
35.826
35.832
35.829
35.817
35.797
35.769
35.732
35.685
35.631
35.568
35.499
35.423
35.342
35.257
35.168
35.076
34.982
34.888
34.793
34.699
34.607
34.518
34.433
34.353
34.277
34.205
34.137
34.074
34.014
33.96
33.91
33.864
33.822
33.782
33.745
33.709
33.674
33.639
33.603
33.568
33.532
33.496
33.461
33.428
33.395
33.364
33.334
33.305
33.278
33.253
33.23
33.208
33.188
33.17
33.152
33.134
33.116
33.098
33.08
33.061
33.043
33.025
33.008
32.991
32.977
32.963
32.952
32.944
32.939
32.938
32.942
32.952
32.97
32.997
33.037
33.092
33.166
33.263
33.386
33.54
33.726
33.946
34.2
34.486
34.802
35.145
35.509
35.889
36.279
36.669
37.054
37.426
37.778
38.107
38.407
38.675
38.911
39.115
39.286
39.426
39.534
39.612
39.66
39.679
39.671
39.638
39.584
39.51
39.419
39.314
39.197
39.071
38.94
38.805
38.667
38.528
38.388
38.248
38.109
37.971
37.834
37.699
37.565
37.433
37.301
37.17
37.041
36.912
36.784
36.657
36.53
36.405
36.282
36.161
36.041
35.923
35.808
35.698
35.593
35.494
35.403
35.321
35.247
35.184
35.131
35.09
35.062
35.046
35.043
35.053
35.074
35.107
35.151
35.204
35.266
35.333
35.407
35.484
35.563
35.643
35.721
35.795
35.864
35.927
35.983
36.031
36.072
36.106
36.131
36.147
36.154
36.15
36.136
36.111
36.076
36.032
35.98
35.921
35.855
35.785
35.71
35.631
35.55
35.467
35.384
35.3
35.216
35.131
35.044
34.957
34.87
34.783
34.697
34.613
34.533
34.455
34.381
34.311
34.245
34.183
34.125
34.07
34.019
33.972
33.928
33.887
33.847
33.809
33.772
33.735
33.699
33.663
33.629
33.597
33.565
33.536
33.507
33.48
33.454
33.429
33.406
33.384
33.364
33.347
33.331
33.317
33.304
33.291
33.277
33.261
33.244
33.226
33.208
33.19
33.172
33.154
33.136
33.12
33.104
33.092
33.083
33.078
33.077
33.084
33.098
33.124
33.165
33.223
33.304
33.412
33.549
33.721
33.929
34.174
34.457
34.776
35.127
35.503
35.899
36.307
36.719
37.128
37.527
37.908
38.267
38.599
38.9
39.168
39.401
39.599
39.762
39.891
39.987
40.051
40.087
40.096
40.082
40.047
39.993
39.924
39.843
39.75
39.648
39.539
39.424
39.304
39.179
39.051
38.921
38.79
38.66
38.532
38.405
38.28
38.158
38.039
37.924
37.81
37.699
37.59
37.483
37.375
37.267
37.159
37.049
36.939
36.829
36.72
36.615
36.513
36.415
36.322
36.233
36.15
36.074
36.004
35.943
35.892
35.852
35.822
35.803
35.794
35.794
35.801
35.815
35.836
35.862
35.893
35.927
35.966
36.007
36.052
36.097
36.142
36.187
36.23
36.269
36.304
36.334
36.357
36.372
36.379
36.377
36.367
36.349
36.323
36.289
36.247
36.197
36.139
36.075
36.005
35.931
35.854
35.775
35.695
35.614
35.53
35.446
35.361
35.275
35.19
35.105
35.022
34.94
34.86
34.781
34.705
34.631
34.56
34.493
34.428
34.367
34.308
34.253
34.201
34.151
34.103
34.057
34.014
33.973
33.934
33.896
33.858
33.821
33.783
33.746
33.709
33.672
33.636
33.601
33.568
33.536
33.506
33.477
33.45
33.425
33.401
33.378
33.358
33.339
33.324
33.31
33.297
33.285
33.273
33.261
33.247
33.232
33.216
33.197
33.177
33.154
33.131
33.108
33.087
33.068
33.054
33.046
33.046
33.056
33.079
33.119
33.178
33.26
33.37
33.511
33.685
33.895
34.14
34.42
34.733
35.075
35.443
35.83
36.23
36.636
37.042
37.441
37.828
38.196
38.541
38.859
39.146
39.399
39.617
39.8
39.946
40.058
40.137
40.185
40.203
40.195
40.162
40.109
40.037
39.951
39.852
39.744
39.63
39.512
39.39
39.267
39.145
39.024
38.904
38.785
38.668
38.552
38.434
38.308
38.172
38.026
37.876
37.724
37.574
37.429
37.293
37.168
37.053
36.949
36.854
36.768
36.689
36.617
36.55
36.487
36.427
36.367
36.309
36.252
36.196
36.142
36.09
36.043
36.0
35.963
35.934
35.914
35.904
35.903
35.913
35.932
35.96
35.993
36.032
36.074
36.117
36.161
36.205
36.246
36.284
36.318
36.347
36.371
36.388
36.399
36.402
36.398
36.386
36.366
36.337
36.301
36.257
36.206
36.148
36.083
36.011
35.934
35.853
35.768
35.681
35.592
35.503
35.414
35.326
35.24
35.154
35.07
34.988
34.908
34.829
34.75
34.673
34.598
34.525
34.454
34.388
34.325
34.267
34.213
34.16
34.108
34.057
34.006
33.956
33.907
33.859
33.813
33.769
33.727
33.687
33.649
33.612
33.578
33.546
33.515
33.486
33.458
33.432
33.407
33.385
33.365
33.347
33.33
33.315
33.299
33.284
33.27
33.255
33.24
33.225
33.208
33.19
33.171
33.151
33.131
33.111
33.091
33.071
33.052
33.033
33.014
32.997
32.981
32.967
32.954
32.944
32.938
32.938
32.945
32.96
32.987
33.027
33.087
33.169
33.279
33.421
33.599
33.813
34.064
34.352
34.673
35.023
35.398
35.79
36.193
36.598
37.0
37.39
37.763
38.113
38.437
38.729
38.987
39.21
39.398
39.551
39.671
39.758
39.816
39.846
39.851
39.834
39.798
39.743
39.673
39.59
39.495
39.391
39.278
39.158
39.033
38.903
38.77
38.633
38.495
38.355
38.216
38.08
37.947
37.819
37.696
37.58
37.47
37.365
37.264
37.164
37.066
36.968
36.869
36.771
36.673
36.574
36.476
36.378
36.28
36.184
36.09
36.0
35.916
35.839
35.772
35.714
35.667
35.631
35.606
35.59
35.584
35.589
35.602
35.625
35.657
35.696
35.741
35.791
35.844
35.899
35.954
36.008
36.059
36.107
36.149
36.186
36.215
36.236
36.25
36.254
36.25
36.238
36.217
36.189
36.154
36.111
36.061
36.005
35.943
35.876
35.804
35.729
35.65
35.57
35.487
35.402
35.317
35.231
35.145
35.06
34.976
34.894
34.815
34.737
34.66
34.583
34.508
34.433
34.361
34.29
34.223
34.158
34.095
34.035
33.977
33.922
33.871
33.824
33.781
33.74
33.701
33.665
33.63
33.595
33.562
33.529
33.498
33.468
33.44
33.413
33.387
33.362
33.336
33.31
33.283
33.258
33.234
33.212
33.192
33.173
33.156
33.14
33.125
33.11
33.094
33.078
33.061
33.043
33.025
33.006
32.987
32.968
32.948
32.928
32.907
32.886
32.864
32.841
32.819
32.797
32.777
32.759
32.745
32.733
32.723
32.716
32.712
32.712
32.718
32.732
32.758
32.801
32.862
32.949
33.063
33.21
33.391
33.609
