Trial 3:3back
33.962
33.951
33.939
33.927
33.915
33.905
33.895
33.887
33.879
33.872
33.863
33.853
33.841
33.827
33.812
33.793
33.773
33.751
33.727
33.703
33.678
33.653
33.626
33.598
33.567
33.535
33.503
33.47
33.436
33.404
33.372
33.34
33.309
33.277
33.245
33.212
33.178
33.143
33.108
33.073
33.039
33.005
32.973
32.941
32.911
32.881
32.852
32.824
32.798
32.772
32.747
32.722
32.697
32.673
32.648
32.623
32.6
32.577
32.557
32.54
32.529
32.524
32.529
32.546
32.574
32.616
32.671
32.741
32.825
32.925
33.039
33.165
33.303
33.449
33.602
33.761
33.921
34.082
34.241
34.395
34.541
34.679
34.807
34.924
35.029
35.12
35.198
35.262
35.31
35.345
35.365
35.373
35.371
35.361
35.345
35.325
35.303
35.28
35.256
35.23
35.202
35.173
35.141
35.106
35.07
35.033
34.994
34.955
34.914
34.871
34.827
34.782
34.735
34.687
34.639
34.59
34.543
34.496
34.45
34.405
34.359
34.314
34.269
34.224
34.179
34.134
34.091
34.05
34.011
33.975
33.941
33.911
33.883
33.859
33.838
33.82
33.805
33.792
33.782
33.775
33.77
33.767
33.766
33.767
33.768
33.77
33.771
33.77
33.767
33.761
33.751
33.74
33.726
33.711
33.696
33.681
33.667
33.654
33.64
33.625
33.61
33.594
33.577
33.56
33.544
33.529
33.514
33.5
33.486
33.472
33.456
33.439
33.42
33.4
33.377
33.354
33.33
33.305
33.28
33.255
33.231
33.207
33.183
33.16
33.138
33.115
33.094
33.074
33.055
33.037
33.021
33.006
32.991
32.977
32.963
32.95
32.936
32.921
32.906
32.89
32.873
32.856
32.838
32.822
32.808
32.799
32.795
32.798
32.81
32.832
32.864
32.907
32.962
33.027
33.103
33.19
33.286
33.392
33.507
33.628
33.755
33.884
34.013
34.14
34.263
34.38
34.489
34.591
34.685
34.771
34.848
34.917
34.978
35.031
35.075
35.112
35.142
35.164
35.18
35.189
35.193
35.192
35.186
35.175
35.158
35.136
35.11
35.08
35.048
35.013
34.977
34.939
34.9
34.86
34.82
34.778
34.737
34.695
34.653
34.611
34.57
34.53
34.492
34.455
34.42
34.386
34.353
34.32
34.286
34.252
34.219
34.185
34.153
34.121
34.091
34.064
34.038
34.016
33.996
33.98
33.966
33.954
33.944
33.936
33.931
33.928
33.928
33.929
33.932
33.935
33.939
33.942
33.945
33.946
33.945
33.942
33.937
33.929
33.92
33.912
33.903
33.894
33.884
33.873
33.863
33.852
33.841
33.829
33.817
33.804
33.791
33.779
33.768
33.758
33.747
33.736
33.724
33.71
33.696
33.681
33.667
33.652
33.638
33.623
33.607
33.591
33.574
33.556
33.537
33.518
33.497
33.476
33.455
33.435
33.416
33.399
33.382
33.365
33.348
33.329
33.31
33.289
33.267
33.243
33.219
33.195
33.173
33.154
33.138
33.127
33.122
33.124
33.134
33.155
33.188
33.234
33.293
33.364
33.448
33.542
33.647
33.761
33.884
34.013
34.149
34.288
34.429
34.571
34.71
34.845
34.974
35.093
35.202
35.298
35.381
35.45
35.508
35.555
35.592
35.62
35.64
35.654
35.662
35.666
35.666
35.661
35.653
35.641
35.627
35.611
35.593
35.573
35.551
35.528
35.504
35.478
35.451
35.422
35.392
35.36
35.326
35.29
35.253
35.215
35.175
35.136
35.097
35.059
35.022
34.986
34.951
34.917
34.883
34.849
34.817
34.787
34.759
34.733
34.709
34.688
34.668
34.649
34.631
34.615
34.6
34.585
34.571
34.557
34.546
34.535
34.526
34.517
34.51
34.504
34.498
34.494
34.491
34.49
34.489
34.489
34.49
34.491
34.491
34.49
34.488
34.483
34.476
34.466
34.454
34.439
34.424
34.409
34.395
34.38
34.365
34.349
34.332
34.316
34.299
34.281
34.263
34.245
34.227
34.21
34.194
34.179
34.165
34.152
34.139
34.125
34.112
34.097
34.083
34.068
34.053
34.038
34.023
34.007
33.99
33.972
33.952
33.929
33.904
33.876
33.846
33.814
33.784
33.755
33.728
33.703
33.682
33.666
33.654
33.648
33.649
33.656
33.671
33.695
33.728
33.772
33.826
33.891
33.966
34.051
34.146
34.251
34.364
34.486
34.615
34.75
34.889
35.029
35.168
35.304
35.433
35.554
35.665
35.764
35.853
35.93
35.996
36.051
36.096
36.132
36.158
36.177
36.187
36.189
36.185
36.174
36.159
36.14
36.118
36.094
36.069
36.041
36.012
35.982
35.951
35.918
35.886
35.853
35.82
35.786
35.753
35.72
35.687
35.655
35.623
35.591
35.559
35.527
35.493
35.458
35.422
35.383
35.343
35.302
35.26
35.218
35.177
35.138
35.101
35.068
35.037
35.011
34.988
34.968
34.95
34.935
34.922
34.912
34.905
34.901
34.9
34.901
34.903
34.907
34.911
34.914
34.914
34.911
34.905
34.898
34.889
34.88
34.872
34.862
34.853
34.843
34.832
34.82
34.807
34.792
34.775
34.758
34.739
34.72
34.7
34.68
34.659
34.639
34.618
34.598
34.579
34.56
34.542
34.525
34.508
34.491
34.474
34.455
34.436
34.417
34.398
34.379
34.359
34.34
34.322
34.303
34.285
34.266
34.245
34.222
34.197
34.171
34.144
34.117
34.09
34.064
34.038
34.014
33.991
33.968
33.946
33.925
33.903
33.88
33.857
33.832
33.807
33.782
33.757
33.735
33.715
33.698
33.687
33.683
33.686
33.698
33.721
33.755
33.802
33.863
33.939
34.028
34.132
34.247
34.373
34.508
34.649
34.795
34.943
35.09
35.236
35.378
35.515
35.646
35.768
35.881
35.983
36.075
36.157
36.227
36.285
36.332
36.368
36.394
36.412
36.423
36.426
36.424
36.415
36.402
36.384
36.363
36.34
36.317
36.293
36.269
36.244
36.218
36.191
36.162
36.133
36.103
36.073
36.042
36.01
35.977
35.942
35.906
35.866
35.825
35.781
35.736
35.689
35.642
35.595
35.549
35.504
35.461
35.42
35.381
35.343
35.306
35.272
35.242
35.215
35.191
35.171
35.154
35.139
35.125
35.114
35.104
35.097
35.091
35.085
35.081
35.077
35.073
35.07
35.067
35.065
35.062
35.059
35.055
35.051
35.046
35.041
35.035
35.028
35.021
35.013
35.004
34.995
34.985
34.973
34.961
34.948
34.935
34.923
34.912
34.902
34.892
34.883
34.872
34.859
34.843
34.825
34.805
34.783
34.759
34.736
34.713
34.691
34.671
34.652
34.635
34.617
34.598
34.577
34.556
34.533
34.511
34.488
34.466
34.445
34.425
34.405
34.386
34.366
34.346
34.325
34.302
34.278
34.253
34.227
34.2
34.173
34.147
34.121
34.095
34.068
34.04
34.012
33.985
33.96
33.937
33.917
33.9
33.887
33.879
33.876
33.88
33.891
33.911
33.943
33.989
34.049
34.124
34.216
34.323
34.444
34.575
34.715
34.861
35.01
35.161
35.311
35.46
35.605
35.744
35.876
35.999
36.113
36.218
36.312
36.394
36.466
36.526
36.577
36.617
36.649
36.673
36.689
36.698
36.701
36.697
36.689
36.675
36.656
36.634
36.608
36.578
36.545
36.508
36.47
36.431
36.393
36.355
36.318
36.284
36.25
36.216
36.182
36.148
36.112
36.074
36.035
35.994
35.951
35.907
35.862
35.818
35.775
35.733
35.692
35.652
35.614
35.577
35.542
35.509
35.48
35.454
35.432
35.414
35.4
35.388
35.379
35.372
35.367
35.362
35.358
35.355
35.351
35.347
35.343
35.339
35.333
35.326
35.317
35.307
35.295
35.281
35.266
35.252
35.239
35.227
35.216
35.206
35.198
35.19
35.184
35.178
35.172
35.164
35.154
35.143
35.131
35.119
35.107
35.094
35.081
35.068
35.054
35.039
35.022
35.003
34.981
34.956
34.929
34.901
34.872
34.844
34.817
34.792
34.769
34.747
34.725
34.704
34.683
34.661
34.638
34.614
34.59
34.566
34.542
34.518
34.496
34.473
34.45
34.427
34.403
34.379
34.354
34.329
34.304
34.28
34.257
34.235
34.213
34.191
34.168
34.143
34.117
34.091
34.065
34.04
34.018
34.001
33.99
33.988
33.997
34.016
34.047
34.091
34.148
34.221
34.309
34.412
34.53
34.661
34.803
34.954
35.111
35.272
35.433
35.593
35.749
35.898
36.038
36.168
36.286
36.393
36.488
36.57
36.641
36.7
36.747
36.784
36.81
36.828
36.838
36.842
36.839
36.832
36.819
36.803
36.783
36.761
36.738
36.713
36.686
36.659
36.63
36.598
36.564
36.525
36.483
36.439
36.393
36.345
36.297
36.249
36.203
36.157
36.111
36.065
36.019
35.973
35.925
35.877
35.829
35.782
35.737
35.695
35.656
35.62
35.586
35.555
35.525
35.498
35.473
35.451
35.432
35.418
35.408
35.402
35.401
35.403
35.409
35.417
35.425
35.434
35.443
35.451
35.457
35.462
35.464
35.465
35.462
35.457
35.451
35.443
35.434
35.424
35.413
35.4
35.387
35.372
35.357
35.341
35.326
35.311
35.297
35.285
35.275
35.265
35.256
35.246
35.234
35.219
35.202
35.183
35.162
35.139
35.117
35.095
35.074
35.053
35.031
35.008
34.983
34.956
34.928
34.9
34.871
34.843
34.816
34.789
34.761
34.733
34.705
34.675
34.645
34.612
34.58
34.547
34.516
34.488
34.462
34.441
34.421
34.403
34.387
34.371
34.355
34.338
34.321
34.303
34.284
34.264
34.245
34.228
34.215
34.205
34.201
34.205
34.219
34.245
34.285
34.34
34.413
34.504
34.611
34.733
34.871
35.02
35.178
35.343
35.51
35.678
35.844
36.006
36.162
36.311
36.452
36.582
36.701
36.808
36.903
36.985
37.055
37.112
37.158
37.194
37.219
37.235
37.242
37.242
37.236
37.224
37.21
37.192
37.173
37.152
37.13
37.106
37.081
37.053
37.023
36.99
36.956
36.92
36.882
36.843
36.801
36.757
36.71
36.662
36.611
36.558
36.503
36.447
36.389
36.332
36.276
36.222
36.17
36.121
36.074
36.03
35.989
35.952
35.92
35.892
35.869
35.849
35.833
35.82
35.809
35.801
35.794
35.789
35.786
35.784
35.783
35.781
35.779
35.776
35.77
35.761
35.752
35.741
35.73
35.719
35.708
35.699
35.689
35.679
35.668
35.656
35.644
35.631
35.617
35.603
35.59
35.575
35.559
35.541
35.523
35.503
35.484
35.465
35.447
35.43
35.413
35.394
35.373
35.352
35.328
35.302
35.273
35.243
35.21
35.177
35.142
35.108
35.075
35.042
35.01
34.979
34.95
34.921
34.893
34.866
34.839
34.813
34.788
34.763
34.739
34.716
34.693
34.67
34.646
34.622
34.598
34.573
34.546
34.518
34.49
34.461
34.429
34.397
34.364
34.331
34.3
34.273
34.252
34.239
34.235
34.243
34.263
34.298
34.35
34.418
34.504
34.608
34.73
34.868
35.021
35.187
35.363
35.546
35.734
35.923
36.11
36.293
36.471
36.64
36.799
36.948
37.086
37.213
37.328
37.432
37.523
37.601
37.667
37.721
37.763
37.796
37.819
37.834
37.841
37.842
37.836
37.825
37.809
37.788
37.761
37.73
37.692
37.651
37.605
37.557
37.506
37.454
37.401
37.347
37.294
37.24
37.186
37.133
37.08
37.027
36.973
36.918
36.862
36.804
36.747
36.69
36.634
36.582
36.532
36.485
36.442
36.402
36.366
36.332
36.302
36.275
36.248
36.222
36.195
36.168
36.142
36.117
36.094
36.072
36.053
36.035
36.02
36.006
35.994
35.984
35.976
35.968
35.963
35.958
35.954
35.951
35.949
35.947
35.946
35.944
35.941
35.935
35.927
35.916
35.903
35.887
35.87
35.852
35.832
35.812
35.791
35.77
35.748
35.726
35.702
35.676
35.648
35.617
35.584
35.55
35.515
35.48
35.444
35.409
35.374
35.339
35.306
35.273
35.241
35.209
35.177
35.144
35.111
35.079
35.046
35.013
34.982
34.951
34.922
34.892
34.862
34.833
34.804
34.774
34.744
34.714
34.684
34.653
34.622
34.592
34.561
34.531
34.5
34.469
34.438
34.407
34.378
34.354
34.337
34.33
34.335
34.354
34.389
34.442
34.513
34.604
34.713
34.841
34.985
35.144
35.314
35.495
35.684
35.878
36.075
36.271
36.466
36.656
36.84
37.015
37.181
37.336
37.479
37.61
37.727
37.831
37.922
38.001
38.068
38.124
38.168
38.202
38.223
38.233
38.232
38.221
38.202
38.175
38.143
38.106
38.065
38.023
37.978
37.932
37.884
37.835
37.785
37.735
37.685
37.634
37.581
37.525
37.467
37.405
37.342
37.277
37.211
37.142
37.072
37.002
36.933
36.865
36.799
36.736
36.675
36.616
36.561
36.51
36.463
36.42
36.383
36.351
36.323
36.299
36.279
36.263
36.25
36.241
36.235
36.231
36.229
36.228
36.228
36.228
36.229
36.229
36.229
36.227
36.224
36.217
36.208
36.195
36.18
36.163
36.145
36.128
36.112
36.097
36.083
36.07
36.057
36.042
36.025
36.005
35.982
35.958
35.932
35.905
35.878
35.852
35.827
35.802
35.777
35.751
35.723
35.694
35.664
35.632
35.599
35.566
35.532
35.498
35.464
35.43
35.395
35.361
35.326
35.29
35.254
35.217
35.179
35.141
35.103
35.065
35.025
34.986
34.945
34.906
34.868
34.832
34.798
34.765
34.731
34.698
34.664
34.63
34.595
34.56
34.526
34.493
34.463
34.436
34.414
34.398
34.391
34.393
34.407
34.435
34.478
34.54
34.62
34.721
34.842
34.982
35.139
35.311
35.493
35.685
35.881
36.082
36.284
36.486
36.686
36.881
37.07
37.252
37.425
37.586
37.735
37.87
37.991
38.094
38.181
38.251
38.305
38.345
38.37
38.382
38.383
38.374
38.357
38.332
38.301
38.266
38.226
38.183
38.137
38.088
38.035
37.981
37.924
37.865
37.804
37.743
37.681
37.617
37.552
37.484
37.416
37.346
37.275
37.204
37.132
37.06
36.988
36.916
36.845
36.776
36.711
36.65
36.595
36.546
36.503
36.464
36.429
36.398
36.37
36.344
36.319
36.297
36.277
36.259
36.244
36.231
36.219
36.21
36.203
36.196
36.189
36.182
36.175
36.168
36.161
36.153
36.145
36.135
36.124
36.111
36.098
36.085
36.073
36.06
36.049
36.038
36.028
36.017
36.006
35.994
35.981
35.966
35.949
35.929
35.907
35.883
35.857
35.828
35.798
35.765
35.732
35.696
35.661
35.626
35.591
35.557
35.522
35.486
35.449
35.41
35.368
35.324
35.28
35.235
35.191
35.149
35.108
35.069
35.032
34.995
34.96
34.925
34.89
34.853
34.817
34.78
34.745
34.71
34.676
34.643
34.61
34.576
34.542
34.506
34.47
34.433
34.396
34.361
34.33
34.304
34.288
34.283
34.292
34.317
34.359
34.419
34.498
34.597
34.716
34.855
35.012
35.186
35.374
35.575
35.785
36.001
36.22
36.44
36.658
36.87
37.075
37.269
37.451
37.619
37.773
37.912
38.037
38.147
38.241
38.321
38.385
38.435
38.471
38.493
38.504
38.502
38.49
38.467
38.435
38.396
38.351
38.301
38.246
38.189
38.129
38.068
38.006
37.941
37.876
37.809
37.74
37.67
37.597
37.522
37.445
37.367
37.287
37.207
37.128
37.051
36.975
36.901
36.83
36.76
36.693
36.627
36.564
36.504
36.449
36.399
36.355
36.317
36.285
36.259
36.238
36.22
36.206
36.195
36.186
36.178
36.172
36.168
36.165
36.163
36.16
36.157
36.154
36.149
36.144
36.139
36.133
36.126
36.118
36.11
36.102
36.094
36.083
36.071
36.057
36.041
36.022
35.998
35.971
35.941
35.91
35.877
35.844
35.812
35.78
35.75
35.721
35.693
35.668
35.645
35.622
35.598
35.574
35.548
35.52
35.491
35.461
35.43
35.4
35.369
35.339
35.31
35.28
35.25
35.218
35.185
35.15
35.114
35.077
35.039
35.001
34.964
34.927
34.889
34.851
34.814
34.776
34.74
34.704
34.668
34.632
34.597
34.562
34.529
34.498
34.47
34.445
34.425
34.411
34.405
34.408
34.424
34.455
34.505
34.575
34.665
34.776
34.909
35.062
35.235
35.426
35.632
35.85
36.078
36.313
36.55
36.788
37.023
37.252
37.474
37.687
37.887
38.072
38.243
38.398
38.537
38.659
38.765
38.856
38.931
38.993
39.04
39.073
39.094
39.103
39.101
39.089
39.069
39.042
39.009
38.971
38.927
38.877
38.824
38.766
38.703
38.636
38.566
38.492
38.417
38.339
38.261
38.182
38.105
38.03
37.956
37.885
37.817
37.75
37.683
37.617
37.551
37.485
37.421
37.357
37.294
37.233
37.177
37.125
37.078
37.034
36.994
36.958
36.925
36.897
36.872
36.852
36.837
36.825
36.817
36.812
36.809
36.807
36.805
36.803
36.801
36.798
36.794
36.789
36.783
36.776
36.769
36.76
36.751
36.74
36.729
36.715
36.701
36.686
36.669
36.652
36.635
36.615
36.595
36.573
36.549
36.522
36.495
36.466
36.435
36.402
36.368
36.333
36.296
36.258
36.219
36.179
36.138
36.095
36.051
36.006
35.96
35.914
35.868
35.823
35.777
35.731
35.685
35.64
35.596
35.554
35.514
35.474
35.436
35.398
35.361
35.324
35.287
35.249
35.211
35.172
35.133
35.093
35.054
35.014
34.973
34.932
34.89
34.847
34.806
34.768
34.735
34.711
34.697
34.697
34.711
34.744
34.797
34.871
34.967
35.087
35.23
35.395
35.582
35.789
36.012
36.25
36.497
36.752
37.011
37.269
37.522
37.766
37.999
38.217
38.419
38.603
38.767
38.911
39.035
39.139
39.222
39.287
39.335
39.368
39.388
39.395
39.39
39.375
39.351
39.32
39.282
39.239
39.192
39.141
39.087
39.029
38.967
38.902
38.834
38.763
38.688
38.611
38.531
38.45
38.369
38.289
38.209
38.129
38.049
37.968
37.888
37.807
37.726
37.644
37.564
37.485
37.409
37.337
37.27
37.208
37.152
37.1
37.052
37.007
36.965
36.926
36.891
36.859
36.83
36.806
36.785
36.767
36.753
36.742
36.734
36.727
36.721
36.716
36.711
36.705
36.699
36.692
36.684
36.675
36.664
36.651
36.636
36.62
36.603
36.583
36.562
36.539
36.515
36.487
36.458
36.427
36.395
36.362
36.329
36.295
36.26
36.224
36.187
36.147
36.107
36.065
36.021
35.976
35.931
35.885
35.84
35.796
35.755
35.715
35.677
35.64
35.604
35.569
35.533
35.497
35.461
35.423
35.383
35.341
35.296
35.248
35.197
35.145
35.091
35.035
34.979
34.922
34.866
34.811
34.758
34.707
34.657
34.609
34.561
34.516
34.473
34.432
34.395
34.365
34.342
34.329
34.33
34.346
34.38
34.434
34.51
34.608
34.729
34.873
35.037
35.221
35.423
35.641
35.87
36.107
36.349
36.59
36.829
37.061
37.286
37.501
37.704
37.892
38.064
38.217
38.352
38.468
38.567
38.647
38.711
38.757
38.79
38.808
38.814
38.809
38.794
38.771
38.742
38.705
38.664
38.618
38.567
38.512
38.452
38.389
38.322
38.252
38.181
38.107
38.032
37.956
37.88
37.803
37.726
37.647
37.568
37.486
37.403
37.317
37.232
37.145
37.061
36.978
36.899
36.823
36.751
36.683
36.618
36.557
36.5
36.448
36.4
36.356
36.315
36.277
36.242
36.212
36.185
36.164
36.147
36.136
36.13
36.128
36.13
36.134
36.139
36.144
36.147
36.149
36.148
36.144
36.139
36.131
36.121
36.11
36.096
36.078
36.057
36.033
36.006
35.975
35.943
35.911
35.879
35.847
35.816
35.786
35.757
35.729
35.699
35.668
35.635
35.599
35.561
35.52
35.479
35.437
35.394
35.351
35.307
35.263
35.219
35.174
35.129
35.084
35.039
34.995
34.95
34.905
34.86
34.816
34.772
34.728
34.685
34.641
34.596
34.551
34.505
34.461
34.416
34.373
34.329
34.286
34.241
34.196
34.152
34.108
34.064
34.02
33.977
33.936
33.898
33.865
33.84
33.825
33.822
33.835
33.867
33.92
33.997
34.099
34.227
34.381
34.559
34.76
34.98
35.215
35.462
35.716
35.974
36.23
36.481
36.724
36.955
37.17
37.368
37.549
37.711
37.855
37.98
38.087
38.177
38.25
38.307
38.347
38.373
38.385
38.384
38.371
38.346
38.312
38.27
38.221
38.168
38.111
38.05
37.988
37.924
37.857
37.788
37.716
37.642
37.564
37.483
37.399
37.313
37.225
37.135
37.045
36.956
36.868
36.78
36.692
36.607
36.523
36.442
36.365
36.293
36.225
36.163
36.104
36.05
36.0
35.955
35.914
35.878
35.847
35.821
35.799
35.781
35.765
35.749
35.734
35.719
35.705
35.692
35.68
35.671
35.665
35.661
35.66
35.662
35.664
35.667
35.669
35.67
35.668
35.665
35.66
35.654
35.648
35.639
35.628
35.615
35.599
35.579
35.557
35.53
35.501
35.47
35.435
35.4
35.363
35.326
35.288
35.251
35.214
35.177
35.139
35.102
35.065
35.028
34.992
34.955
34.919
34.882
34.844
34.806
34.766
34.725
34.682
34.637
34.591
34.543
34.493
34.442
34.389
34.337
34.286
34.236
34.187
34.14
34.094
34.051
34.01
33.97
33.933
33.898
33.864
33.831
33.799
33.767
33.735
33.704
33.675
33.65
33.631
33.621
33.624
33.641
33.676
33.73
33.806
33.904
34.025
34.167
34.332
34.515
34.716
34.932
35.16
35.395
35.636
35.878
36.117
36.349
36.572
36.782
36.978
37.156
37.317
37.459
37.58
37.682
37.765
37.829
37.877
37.91
37.931
37.941
37.941
37.932
37.915
37.89
37.858
37.819
37.775
37.724
37.667
37.605
37.537
37.467
37.393
37.318
37.242
37.168
37.094
37.022
36.95
36.878
36.806
36.732
36.656
36.578
