Trial 3:3back
36.243
36.273
36.305
36.34
36.377
36.414
36.453
36.492
36.53
36.566
36.599
36.629
36.653
36.673
36.687
36.694
36.697
36.693
36.685
36.673
36.656
36.634
36.606
36.573
36.535
36.491
36.443
36.392
36.338
36.28
36.22
36.158
36.095
36.033
35.971
35.91
35.85
35.792
35.734
35.677
35.62
35.563
35.507
35.452
35.398
35.346
35.294
35.242
35.191
35.141
35.091
35.04
34.989
34.936
34.883
34.831
34.777
34.725
34.673
34.622
34.575
34.529
34.485
34.443
34.405
34.371
34.34
34.313
34.289
34.27
34.253
34.237
34.222
34.206
34.19
34.174
34.158
34.142
34.126
34.11
34.094
34.079
34.067
34.057
34.048
34.04
34.034
34.029
34.025
34.022
34.019
34.017
34.015
34.013
34.012
34.01
34.007
34.003
33.998
33.993
33.987
33.981
33.974
33.966
33.957
33.947
33.937
33.925
33.914
33.903
33.893
33.883
33.872
33.86
33.846
33.831
33.815
33.797
33.776
33.753
33.728
33.702
33.674
33.647
33.619
33.592
33.564
33.537
33.511
33.484
33.458
33.432
33.406
33.381
33.355
33.329
33.303
33.275
33.248
33.22
33.192
33.164
33.135
33.107
33.079
33.054
33.031
33.009
32.99
32.973
32.957
32.942
32.925
32.907
32.888
32.866
32.843
32.82
32.796
32.772
32.748
32.722
32.697
32.672
32.647
32.622
32.599
32.578
32.558
32.54
32.525
32.513
32.505
32.5
32.5
32.504
32.513
32.528
32.551
32.584
32.63
32.693
32.779
32.892
33.039
33.225
33.454
33.728
34.049
34.413
34.817
35.254
35.717
36.196
36.683
37.167
37.638
38.089
38.512
38.9
39.248
39.552
39.81
40.023
40.191
40.316
40.4
40.445
40.457
40.437
40.392
40.324
40.238
40.137
40.023
39.9
39.772
39.641
39.51
39.381
39.255
39.132
39.014
38.9
38.791
38.687
38.587
38.491
38.4
38.313
38.232
38.157
38.088
38.026
37.97
37.921
37.88
37.845
37.816
37.791
37.77
37.751
37.732
37.712
37.689
37.663
37.633
37.599
37.561
37.518
37.471
37.419
37.364
37.305
37.244
37.181
37.119
37.058
37.001
36.949
36.903
36.862
36.828
36.8
36.779
36.765
36.757
36.757
36.763
36.773
36.788
36.805
36.824
36.845
36.867
36.89
36.914
36.939
36.964
36.988
37.009
37.028
37.043
37.053
37.057
37.056
37.048
37.033
37.011
36.982
36.948
36.907
36.861
36.809
36.752
36.691
36.626
36.558
36.489
36.417
36.344
36.271
36.197
36.123
36.051
35.979
35.909
35.84
35.773
35.707
35.641
35.576
35.511
35.447
35.383
35.319
35.256
35.192
35.129
35.067
35.007
34.951
34.899
34.85
34.805
34.763
34.723
34.686
34.653
34.623
34.595
34.57
34.547
34.524
34.503
34.482
34.464
34.447
34.432
34.419
34.408
34.398
34.388
34.378
34.367
34.358
34.349
34.34
34.333
34.326
34.318
34.309
34.299
34.289
34.279
34.269
34.258
34.248
34.238
34.228
34.218
34.208
34.197
34.186
34.173
34.16
34.145
34.128
34.109
34.088
34.065
34.042
34.017
33.992
33.964
33.934
33.901
33.864
33.824
33.781
33.737
33.692
33.646
33.602
33.56
33.521
33.486
33.452
33.421
33.39
33.361
33.333
33.304
33.276
33.247
33.218
33.188
33.158
33.126
33.094
33.059
33.023
32.986
32.949
32.912
32.875
32.839
32.803
32.767
32.732
32.699
32.666
32.635
32.605
32.577
32.551
32.527
32.505
32.487
32.47
32.456
32.444
32.434
32.427
32.423
32.42
32.419
32.419
32.42
32.423
32.425
32.427
32.427
32.426
32.424
32.419
32.412
32.402
32.39
32.377
32.363
32.348
32.33
32.308
32.283
32.255
32.227
32.199
32.173
32.15
32.131
32.116
32.105
32.096
32.091
32.088
32.088
32.091
32.096
32.104
32.118
32.138
32.168
32.21
32.27
32.352
32.461
32.604
32.787
33.014
33.287
33.606
33.969
34.371
34.804
35.261
35.732
36.205
36.67
37.117
37.536
37.921
38.266
38.565
38.818
39.023
39.18
39.292
39.363
39.397
39.397
39.369
39.318
39.248
39.163
39.067
38.962
38.852
38.738
38.621
38.503
38.385
38.27
38.157
38.048
37.942
37.84
37.743
37.649
37.561
37.476
37.396
37.322
37.254
37.19
37.132
37.079
37.031
36.989
36.952
36.92
36.893
36.869
36.848
36.829
36.811
36.791
36.769
36.745
36.717
36.686
36.649
36.607
36.56
36.507
36.451
36.391
36.329
36.267
36.206
36.148
36.093
36.041
35.995
35.955
35.923
35.9
35.886
35.881
35.883
35.892
35.906
35.924
35.945
35.97
35.996
36.023
36.049
36.074
36.096
36.117
36.135
36.148
36.157
36.16
36.159
36.152
36.141
36.125
36.106
36.083
36.057
36.027
35.994
35.956
35.915
35.87
35.821
35.769
35.714
35.656
35.597
35.537
35.478
35.418
35.358
35.299
35.24
35.181
35.124
35.067
35.011
34.957
34.905
34.855
34.808
34.763
34.721
34.681
34.643
34.607
34.573
34.541
34.511
34.484
34.46
34.438
34.419
34.402
34.387
34.373
34.36
34.348
34.338
34.327
34.316
34.305
34.292
34.279
34.265
34.251
34.235
34.219
34.203
34.186
34.169
34.151
34.134
34.116
34.099
34.082
34.066
34.051
34.036
34.023
34.01
33.997
33.984
33.97
33.956
33.942
33.926
33.91
33.892
33.874
33.855
33.836
33.816
33.796
33.776
33.757
33.74
33.725
33.711
33.698
33.686
33.676
33.666
33.656
33.645
33.634
33.623
33.61
33.596
33.58
33.562
33.542
33.52
33.496
33.471
33.445
33.419
33.393
33.366
33.339
33.312
33.285
33.261
33.238
33.218
33.198
33.179
33.16
33.142
33.122
33.104
33.086
33.07
33.056
33.042
33.031
33.021
33.013
33.007
33.002
32.999
32.995
32.992
32.989
32.985
32.981
32.976
32.968
32.958
32.945
32.929
32.909
32.885
32.858
32.827
32.794
32.759
32.724
32.689
32.654
32.62
32.586
32.553
32.52
32.489
32.458
32.43
32.405
32.383
32.365
32.352
32.343
32.34
32.345
32.359
32.386
32.429
32.491
32.576
32.689
32.835
33.018
33.24
33.504
33.807
34.146
34.516
34.908
35.317
35.733
36.147
36.553
36.941
37.307
37.643
37.948
38.215
38.443
38.631
38.78
38.891
38.965
39.006
39.017
39.001
38.962
38.901
38.823
38.731
38.628
38.518
38.403
38.286
38.169
38.054
37.942
37.834
37.732
37.636
37.546
37.461
37.381
37.305
37.233
37.164
37.098
37.035
36.974
36.914
36.857
36.802
36.751
36.704
36.659
36.618
36.579
36.543
36.509
36.474
36.44
36.404
36.367
36.329
36.288
36.244
36.198
36.149
36.099
36.049
35.997
35.946
35.895
35.846
35.799
35.757
35.72
35.689
35.665
35.648
35.635
35.628
35.627
35.632
35.644
35.662
35.686
35.716
35.75
35.786
35.823
35.859
35.895
35.929
35.959
35.986
36.008
36.026
36.038
36.046
36.048
36.043
36.033
36.018
35.998
35.974
35.946
35.915
35.882
35.847
35.811
35.774
35.736
35.696
35.654
35.611
35.565
35.518
35.469
35.419
35.368
35.316
35.264
35.211
35.157
35.103
35.048
34.991
34.933
34.875
34.816
34.759
34.703
34.649
34.597
34.547
34.5
34.456
34.416
34.379
34.344
34.311
34.281
34.254
34.229
34.208
34.188
34.171
34.156
34.14
34.124
34.108
34.093
34.077
34.062
34.047
34.033
34.02
34.008
33.997
33.987
33.978
33.971
33.964
33.958
33.954
33.949
33.945
33.94
33.934
33.926
33.917
33.905
33.891
33.875
33.858
33.84
33.822
33.805
33.787
33.771
33.756
33.742
33.729
33.717
33.705
33.694
33.683
33.67
33.656
33.641
33.624
33.607
33.587
33.566
33.543
33.518
33.495
33.479
33.469
33.464
33.462
33.459
33.454
33.445
33.431
33.412
33.386
33.354
33.317
33.276
33.232
33.186
33.139
33.093
33.049
33.007
32.969
32.935
32.903
32.874
32.846
32.82
32.796
32.774
32.755
32.736
32.717
32.699
32.68
32.662
32.644
32.626
32.607
32.588
32.569
32.549
32.529
32.509
32.49
32.471
32.454
32.438
32.423
32.41
32.398
32.388
32.379
32.372
32.366
32.361
32.358
32.356
32.355
32.353
32.352
32.351
32.349
32.347
32.343
32.338
32.331
32.321
32.309
32.292
32.273
32.251
32.226
32.199
32.17
32.139
32.108
32.078
32.05
32.025
32.003
31.985
31.972
31.965
31.963
31.968
31.982
32.006
32.041
32.091
32.159
32.248
32.363
32.509
32.689
32.907
33.165
33.461
33.794
34.158
34.548
34.955
35.371
35.787
36.194
36.585
36.951
37.287
37.587
37.848
38.069
38.248
38.388
38.489
38.555
38.588
38.593
38.573
38.533
38.474
38.403
38.32
38.228
38.13
38.026
37.919
37.811
37.703
37.594
37.486
37.379
37.276
37.175
37.079
36.986
36.898
36.815
36.738
36.667
36.603
36.546
36.496
36.454
36.418
36.389
36.365
36.346
36.33
36.317
36.305
36.293
36.28
36.265
36.247
36.224
36.195
36.161
36.123
36.079
36.03
35.977
35.92
35.861
35.801
35.743
35.686
35.634
35.586
35.543
35.506
35.476
35.454
35.442
35.437
35.441
35.452
35.47
35.495
35.526
35.563
35.603
35.646
35.691
35.735
35.78
35.823
35.867
35.912
35.956
35.998
36.034
36.064
36.085
36.095
36.095
36.084
36.063
36.032
35.992
35.944
35.889
35.829
35.766
35.702
35.637
35.574
35.511
35.451
35.394
35.339
35.288
35.24
35.196
35.154
35.114
35.076
35.041
35.007
34.975
34.944
34.915
34.887
34.86
34.833
34.805
34.778
34.749
34.72
34.691
34.661
34.63
34.599
34.567
34.534
34.5
34.468
34.435
34.404
34.373
34.343
34.314
34.287
34.261
34.238
34.219
34.201
34.187
34.174
34.166
34.159
34.156
34.154
34.154
34.154
34.154
34.154
34.152
34.148
34.143
34.138
34.133
34.13
34.127
34.126
34.125
34.124
34.122
34.121
34.119
34.116
34.111
34.103
34.093
34.079
34.064
34.048
34.031
34.014
33.997
33.981
33.965
33.95
33.935
33.92
33.904
33.89
33.876
33.862
33.847
33.832
33.816
33.799
33.781
33.763
33.743
33.722
33.7
33.678
33.655
33.632
33.609
33.587
33.566
33.545
33.524
33.503
33.482
33.461
33.44
33.418
33.395
33.372
33.35
33.329
33.309
33.292
33.278
33.268
33.262
33.259
33.259
33.261
33.263
33.265
33.267
33.267
33.265
33.261
33.255
33.247
33.237
33.224
33.209
33.19
33.17
33.147
33.123
33.098
33.072
33.046
33.02
32.995
32.97
32.946
32.923
32.902
32.881
32.862
32.845
32.83
32.817
32.807
32.801
32.801
32.805
32.817
32.836
32.865
32.906
32.962
33.038
33.14
33.271
33.437
33.638
33.876
34.15
34.451
34.77
35.101
35.439
35.777
36.112
36.44
36.756
37.056
37.337
37.596
37.83
38.036
38.215
38.364
38.485
38.577
38.642
38.682
38.698
38.693
38.668
38.626
38.568
38.496
38.413
38.322
38.223
38.121
38.016
37.911
37.808
37.709
37.612
37.52
37.432
37.348
37.269
37.194
37.123
37.057
36.995
36.938
36.885
36.837
36.793
36.752
36.714
36.68
36.65
36.622
36.596
36.571
36.546
36.521
36.496
36.468
36.436
36.401
36.361
36.319
36.274
36.227
36.18
36.132
36.084
36.037
35.992
35.95
35.913
35.881
35.855
35.837
35.825
35.821
35.824
35.834
35.85
35.872
35.898
35.927
35.957
35.988
36.019
36.051
36.082
36.111
36.137
36.16
36.18
36.195
36.206
36.212
36.213
36.209
36.202
36.191
36.177
36.159
36.138
36.115
36.09
36.063
36.033
36.0
35.964
35.924
35.881
35.835
35.786
35.734
35.68
35.623
35.565
35.505
35.445
35.386
35.328
35.271
35.215
35.16
35.108
35.058
35.011
34.968
34.929
34.894
34.863
34.834
34.807
34.781
34.754
34.727
34.698
34.668
34.639
34.609
34.58
34.551
34.521
34.491
34.46
34.43
34.4
34.371
34.342
34.314
34.288
34.264
34.243
34.226
34.213
34.203
34.195
34.19
34.187
34.186
34.185
34.184
34.183
34.181
34.179
34.176
34.171
34.164
34.156
34.147
34.136
34.122
34.108
34.092
34.075
34.056
34.038
34.02
34.002
33.985
33.968
33.953
33.937
33.921
33.905
33.887
33.867
33.846
33.823
33.799
33.775
33.752
33.729
33.709
33.69
33.673
33.658
33.645
33.634
33.624
33.614
33.604
33.594
33.582
33.569
33.553
33.535
33.514
33.493
33.471
33.448
33.425
33.402
33.379
33.357
33.334
33.311
33.289
33.268
33.25
33.233
33.218
33.206
33.196
33.186
33.178
33.169
33.16
33.15
33.139
33.127
33.113
33.099
33.084
33.068
33.053
33.038
33.024
33.01
32.998
32.987
32.977
32.967
32.957
32.947
32.937
32.925
32.913
32.901
32.889
32.877
32.864
32.848
32.83
32.81
32.788
32.765
32.741
32.715
32.687
32.659
32.63
32.601
32.572
32.543
32.515
32.49
32.468
32.451
32.439
32.433
32.433
32.442
32.461
32.492
32.54
32.609
32.702
32.826
32.983
33.177
33.409
33.678
33.983
34.319
34.68
35.059
35.447
35.837
36.219
36.585
36.929
37.244
37.526
37.772
37.98
38.15
38.282
38.377
38.438
38.467
38.467
38.443
38.399
38.34
38.267
38.185
38.096
38.002
37.904
37.805
37.704
37.604
37.505
37.408
37.314
37.221
37.131
37.045
36.963
36.885
36.813
36.746
36.683
36.625
36.572
36.524
36.479
36.439
36.402
36.369
36.339
36.31
36.284
36.259
36.236
36.213
36.189
36.164
36.137
36.107
36.074
36.036
35.995
35.95
35.901
35.85
35.798
35.744
35.692
35.641
35.592
35.546
35.504
35.466
35.433
35.406
35.386
35.373
35.366
35.366
35.371
35.381
35.395
35.413
35.434
35.457
35.484
35.511
35.538
35.564
35.588
35.609
35.627
35.642
35.655
35.664
35.671
35.673
35.673
35.668
35.66
35.648
35.631
35.61
35.585
35.556
35.524
35.488
35.448
35.406
35.361
35.314
35.265
35.215
35.164
35.11
35.056
35.002
34.948
34.895
34.843
34.792
34.742
34.694
34.649
34.605
34.565
34.527
34.493
34.461
34.432
34.404
34.377
34.351
34.325
34.298
34.271
34.242
34.213
34.184
34.155
34.126
34.098
34.072
34.048
34.026
34.006
33.988
33.972
33.958
33.947
33.939
33.933
33.929
33.928
33.928
33.93
33.933
33.937
33.942
33.946
33.95
33.952
33.953
33.951
33.947
33.942
33.937
33.931
33.926
33.919
33.912
33.905
33.897
33.889
33.88
33.872
33.863
33.854
33.844
33.833
33.823
33.812
33.801
33.792
33.783
33.775
33.767
33.761
33.756
33.752
33.749
33.746
33.745
33.745
33.745
33.745
33.743
33.739
33.734
33.726
33.72
33.715
33.712
33.71
33.709
33.708
33.705
33.699
33.69
33.678
33.662
33.642
33.618
33.592
33.565
33.535
33.506
33.478
33.453
33.43
33.41
33.393
33.38
33.37
33.364
33.36
33.358
33.358
33.36
33.363
33.364
33.364
33.363
33.359
33.353
33.345
33.334
33.321
33.307
33.291
33.273
33.254
33.233
33.21
33.187
33.162
33.136
33.111
33.085
33.06
33.038
33.017
33.0
32.984
32.972
32.961
32.953
32.948
32.946
32.948
32.954
32.964
32.98
33.002
33.03
33.068
33.119
33.188
33.278
33.395
33.542
33.72
33.931
34.174
34.445
34.74
35.054
35.38
35.713
36.044
36.367
36.676
36.965
37.229
37.465
37.672
37.847
37.992
38.105
38.189
38.245
38.275
38.281
38.265
38.23
38.178
38.113
38.036
37.95
37.857
37.757
37.653
37.546
37.438
37.331
37.226
37.123
37.022
36.926
36.834
36.746
36.663
36.585
36.513
36.448
36.389
36.336
36.289
36.247
36.21
36.178
36.151
36.126
36.102
36.079
36.055
36.029
36.003
35.975
35.945
35.913
35.878
35.841
35.801
35.759
35.716
35.67
35.624
35.577
35.532
35.49
35.451
35.416
35.388
35.365
35.349
35.339
35.337
35.341
35.352
35.369
35.391
35.419
35.45
35.486
35.525
35.567
35.61
35.653
35.694
35.734
35.771
35.805
35.834
35.857
35.875
35.886
35.891
35.89
35.883
35.869
35.85
35.827
35.799
35.767
35.731
35.693
35.647
35.589
35.522
35.447
35.37
35.292
35.218
35.149
35.087
35.033
34.987
34.949
34.918
34.894
34.875
34.859
34.846
34.835
34.824
34.813
34.801
34.787
34.771
34.752
34.73
34.706
34.68
34.653
34.625
34.597
34.57
34.545
34.521
34.498
34.477
34.457
34.438
34.419
34.402
34.385
34.369
34.353
34.338
34.324
34.313
34.304
34.299
34.296
34.295
34.295
34.297
34.298
34.3
34.302
34.305
34.308
34.312
34.315
34.317
34.319
34.32
34.322
34.323
34.325
34.325
34.325
34.323
34.321
34.317
34.312
34.305
34.297
34.289
34.28
34.27
34.261
34.251
34.242
34.235
34.23
34.226
34.223
34.22
34.216
34.212
34.207
34.2
34.192
34.183
34.172
34.16
34.148
34.135
34.122
34.109
34.097
34.084
34.069
34.05
34.027
33.998
33.964
33.925
33.882
33.836
33.786
33.735
33.682
33.627
33.571
33.517
33.464
33.415
33.369
33.328
33.291
33.259
33.232
33.209
33.188
33.169
33.151
33.134
33.118
33.103
33.087
33.07
33.05
33.028
33.005
32.981
32.956
32.933
32.91
32.888
32.867
32.846
32.827
32.807
32.787
32.767
32.746
32.726
32.705
32.684
32.662
32.638
32.614
32.59
32.565
32.54
32.515
32.49
32.467
32.444
32.423
32.403
32.384
32.368
32.354
32.343
32.334
32.329
32.326
32.327
32.331
32.342
32.359
32.387
32.426
32.481
32.554
32.649
32.77
32.921
33.105
33.322
33.573
33.854
34.163
34.493
34.84
35.196
35.557
35.914
36.26
36.589
36.894
37.173
37.42
37.632
37.809
37.949
38.054
38.125
38.163
38.171
38.155
38.117
38.06
37.988
37.904
37.809
37.706
37.599
37.489
37.379
37.269
37.161
37.057
36.957
36.863
36.774
36.693
36.617
36.547
36.481
36.419
36.361
36.307
36.256
36.208
36.163
36.121
36.082
36.046
36.013
35.981
35.951
35.922
35.894
35.866
35.837
35.809
35.779
35.749
35.717
35.685
35.652
35.619
35.585
35.549
35.511
35.472
35.432
35.392
35.354
35.317
35.283
35.254
35.229
35.21
35.196
35.187
35.183
35.184
35.19
35.201
35.216
35.234
35.256
35.28
35.305
35.332
35.359
35.387
35.415
35.443
35.469
35.492
35.51
35.523
35.531
35.533
35.53
35.521
35.507
35.489
35.466
35.44
35.41
35.377
35.342
35.305
35.267
35.227
35.186
35.143
35.101
35.06
35.02
34.981
34.944
34.908
34.874
34.839
34.803
34.767
34.73
34.693
34.655
34.616
34.576
34.535
34.494
34.455
34.418
34.384
34.354
34.328
34.306
34.287
34.273
34.261
34.251
34.242
34.235
34.229
34.223
34.216
34.207
34.196
34.183
34.169
34.156
34.142
34.129
34.117
34.105
34.094
34.083
34.074
34.066
34.059
34.053
34.047
34.043
34.04
34.038
34.037
34.036
34.036
34.036
34.035
34.034
34.032
34.031
34.029
34.026
34.024
34.022
34.019
34.014
34.008
34.002
33.996
33.99
33.984
33.98
33.976
33.972
33.969
33.966
33.962
33.956
33.948
33.938
33.926
33.913
33.898
33.883
33.868
33.854
33.842
33.831
33.821
33.812
33.802
33.791
33.781
33.77
33.759
33.748
33.737
33.726
33.717
33.708
33.699
33.688
33.677
33.665
33.652
33.639
33.626
33.613
33.6
33.585
33.569
33.553
33.536
33.52
33.504
33.489
33.474
33.461
33.447
33.435
33.425
33.417
33.41
33.406
33.402
33.397
33.392
33.386
33.378
33.368
33.358
33.347
33.335
33.322
33.309
33.295
33.279
33.264
33.248
33.233
33.217
33.201
33.184
33.168
33.152
33.137
33.123
33.109
33.097
33.086
33.076
33.069
33.064
33.062
33.065
33.073
33.087
33.11
33.144
33.191
33.254
33.338
33.447
33.585
33.753
33.953
34.185
34.445
34.731
35.037
35.358
35.688
36.018
36.343
36.655
36.949
37.222
37.469
37.688
37.877
38.037
38.166
38.266
38.337
38.382
38.401
38.397
38.374
38.335
38.281
38.214
38.137
38.053
37.963
37.87
37.774
37.676
37.579
37.484
37.391
37.302
37.216
37.133
37.051
36.971
36.892
36.817
36.744
36.675
36.61
36.548
36.49
36.437
36.387
36.341
36.3
36.264
36.233
36.207
36.183
36.164
36.147
36.132
36.117
36.102
36.085
36.065
36.04
36.012
35.98
35.945
35.907
35.869
35.83
35.793
35.758
35.725
35.695
35.67
35.65
35.635
35.626
35.622
35.624
35.63
35.641
35.655
35.672
35.692
35.715
35.741
35.768
35.798
35.829
35.86
35.89
35.917
35.942
35.962
35.977
35.988
35.995
35.997
35.995
35.988
35.976
35.96
35.941
35.919
35.894
35.867
35.838
35.808
35.775
35.742
35.707
35.671
35.634
35.596
35.558
35.519
35.478
35.437
35.396
35.353
35.31
35.265
35.221
35.176
35.131
35.087
35.044
35.003
34.965
34.929
34.896
34.863
34.831
34.8
34.769
34.739
34.711
34.686
34.662
34.639
34.618
34.598
34.579
34.56
34.543
34.527
34.513
34.5
34.488
34.477
34.467
34.458
34.451
34.445
34.441
34.438
