Trial 3:3back
35.662
35.656
35.662
35.678
35.701
35.729
35.761
35.794
35.827
35.857
35.882
35.904
35.921
35.933
35.939
35.938
35.932
35.919
35.901
35.877
35.847
35.812
35.773
35.729
35.681
35.63
35.574
35.514
35.449
35.379
35.303
35.221
35.133
35.04
34.943
34.843
34.741
34.638
34.535
34.432
34.33
34.231
34.132
34.035
33.941
33.849
33.762
33.679
33.599
33.522
33.448
33.376
33.306
33.237
33.169
33.101
33.034
32.969
32.904
32.839
32.774
32.71
32.647
32.586
32.525
32.463
32.401
32.338
32.275
32.212
32.148
32.085
32.024
31.964
31.908
31.855
31.806
31.758
31.714
31.673
31.635
31.601
31.57
31.542
31.517
31.494
31.474
31.456
31.441
31.427
31.417
31.408
31.403
31.4
31.399
31.398
31.397
31.397
31.397
31.397
31.397
31.397
31.395
31.393
31.391
31.39
31.39
31.391
31.393
31.396
31.401
31.406
31.412
31.419
31.426
31.434
31.443
31.452
31.461
31.469
31.475
31.479
31.482
31.482
31.48
31.474
31.467
31.457
31.446
31.437
31.43
31.43
31.441
31.468
31.516
31.592
31.703
31.858
32.064
32.328
32.653
33.041
33.49
33.997
34.553
35.149
35.773
36.412
37.054
37.683
38.288
38.857
39.381
39.851
40.264
40.615
40.906
41.136
41.308
41.425
41.492
41.515
41.5
41.452
41.376
41.278
41.162
41.03
40.887
40.736
40.58
40.42
40.258
40.096
39.933
39.772
39.612
39.454
39.3
39.148
39.0
38.856
38.714
38.575
38.438
38.302
38.168
38.034
37.9
37.766
37.634
37.502
37.373
37.247
37.125
37.007
36.891
36.777
36.663
36.549
36.437
36.325
36.215
36.106
35.998
35.894
35.795
35.702
35.615
35.536
35.464
35.402
35.349
35.307
35.275
35.253
35.239
35.235
35.243
35.264
35.296
35.338
35.387
35.442
35.499
35.558
35.616
35.67
35.718
35.759
35.792
35.816
35.832
35.84
35.842
35.837
35.827
35.812
35.791
35.766
35.737
35.702
35.661
35.616
35.565
35.511
35.452
35.389
35.32
35.247
35.168
35.086
35.001
34.912
34.821
34.729
34.635
34.541
34.447
34.355
34.265
34.177
34.092
34.011
33.936
33.865
33.798
33.735
33.675
33.617
33.561
33.505
33.449
33.394
33.339
33.282
33.224
33.164
33.101
33.037
32.971
32.904
32.835
32.766
32.697
32.628
32.559
32.49
32.421
32.353
32.287
32.222
32.158
32.096
32.036
31.98
31.926
31.875
31.826
31.78
31.739
31.702
31.67
31.641
31.617
31.599
31.587
31.581
31.581
31.587
31.596
31.61
31.626
31.644
31.661
31.678
31.694
31.708
31.719
31.728
31.733
31.736
31.736
31.736
31.734
31.73
31.724
31.718
31.711
31.704
31.698
31.693
31.688
31.685
31.681
31.677
31.673
31.669
31.666
31.665
31.668
31.681
31.706
31.751
31.821
31.923
32.064
32.252
32.493
32.791
33.148
33.563
34.031
34.547
35.102
35.687
36.29
36.899
37.502
38.086
38.641
39.158
39.628
40.048
40.412
40.719
40.967
41.157
41.284
41.352
41.366
41.332
41.261
41.162
41.043
40.912
40.775
40.639
40.507
40.38
40.261
40.147
40.036
39.928
39.819
39.707
39.592
39.472
39.348
39.219
39.086
38.951
38.814
38.676
38.54
38.405
38.271
38.139
38.007
37.874
37.742
37.61
37.48
37.35
37.222
37.096
36.971
36.85
36.732
36.616
36.503
36.392
36.283
36.176
36.072
35.972
35.876
35.787
35.704
35.63
35.565
35.511
35.469
35.438
35.419
35.41
35.409
35.416
35.431
35.451
35.477
35.507
35.541
35.579
35.619
35.661
35.703
35.742
35.778
35.808
35.831
35.846
35.853
35.853
35.846
35.833
35.813
35.787
35.755
35.717
35.674
35.624
35.569
35.507
35.44
35.367
35.289
35.207
35.121
35.032
34.94
34.848
34.757
34.666
34.577
34.488
34.401
34.316
34.234
34.154
34.075
33.997
33.919
33.842
33.765
33.69
33.616
33.544
33.473
33.404
33.337
33.271
33.206
33.143
33.082
33.023
32.966
32.909
32.855
32.802
32.751
32.7
32.65
32.599
32.548
32.496
32.443
32.39
32.338
32.285
32.232
32.18
32.128
32.077
32.029
31.982
31.938
31.896
31.856
31.817
31.781
31.746
31.712
31.679
31.647
31.616
31.588
31.563
31.54
31.52
31.502
31.487
31.476
31.468
31.463
31.463
31.464
31.468
31.472
31.477
31.481
31.484
31.487
31.489
31.491
31.493
31.494
31.495
31.496
31.497
31.498
31.499
31.499
31.496
31.492
31.485
31.477
31.468
31.458
31.449
31.441
31.432
31.424
31.416
31.409
31.404
31.401
31.402
31.409
31.423
31.451
31.497
31.57
31.678
31.832
32.04
32.313
32.655
33.069
33.552
34.1
34.702
35.35
36.029
36.726
37.428
38.12
38.788
39.421
40.008
40.542
41.015
41.426
41.773
42.056
42.277
42.44
42.548
42.606
42.621
42.598
42.544
42.464
42.364
42.248
42.119
41.98
41.834
41.684
41.531
41.38
41.232
41.087
40.946
40.809
40.674
40.541
40.41
40.28
40.15
40.02
39.89
39.761
39.631
39.502
39.375
39.251
39.132
39.017
38.905
38.797
38.691
38.585
38.48
38.373
38.263
38.15
38.032
37.91
37.787
37.663
37.539
37.418
37.299
37.185
37.076
36.973
36.876
36.786
36.703
36.627
36.559
36.499
36.448
36.405
36.37
36.343
36.324
36.311
36.305
36.305
36.31
36.319
36.332
36.345
36.359
36.373
36.385
36.395
36.402
36.405
36.404
36.399
36.39
36.376
36.358
36.333
36.303
36.265
36.222
36.172
36.117
36.058
35.995
35.928
35.86
35.79
35.718
35.646
35.572
35.496
35.419
35.34
35.26
35.179
35.096
35.011
34.924
34.837
34.749
34.661
34.573
34.484
34.395
34.306
34.218
34.131
34.045
33.96
33.875
33.792
33.709
33.628
33.549
33.471
33.395
33.321
33.249
33.179
33.111
33.045
32.982
32.924
32.87
32.82
32.773
32.729
32.688
32.648
32.611
32.574
32.537
32.5
32.461
32.421
32.381
32.34
32.3
32.261
32.222
32.184
32.146
32.108
32.07
32.031
31.993
31.955
31.92
31.885
31.852
31.821
31.791
31.765
31.741
31.719
31.701
31.685
31.671
31.66
31.651
31.644
31.638
31.634
31.63
31.627
31.624
31.623
31.624
31.627
31.632
31.638
31.646
31.655
31.664
31.672
31.679
31.683
31.686
31.686
31.683
31.678
31.671
31.663
31.653
31.643
31.634
31.627
31.626
31.635
31.658
31.698
31.761
31.855
31.989
32.173
32.414
32.718
33.09
33.532
34.042
34.612
35.235
35.898
36.587
37.289
37.987
38.669
39.321
39.932
40.492
40.995
41.435
41.808
42.113
42.35
42.523
42.635
42.692
42.7
42.664
42.591
42.49
42.367
42.227
42.077
41.921
41.762
41.604
41.449
41.296
41.145
40.996
40.847
40.699
40.548
40.392
40.23
40.063
39.892
39.72
39.55
39.385
39.226
39.073
38.929
38.792
38.662
38.54
38.424
38.313
38.207
38.103
38.0
37.898
37.796
37.692
37.586
37.478
37.366
37.251
37.134
37.016
36.897
36.777
36.657
36.539
36.424
36.314
36.211
36.116
36.031
35.957
35.894
35.842
35.801
35.768
35.744
35.726
35.716
35.711
35.712
35.719
35.73
35.745
35.764
35.786
35.809
35.832
35.854
35.874
35.892
35.905
35.912
35.914
35.909
35.9
35.884
35.861
35.832
35.795
35.753
35.703
35.648
35.586
35.517
35.442
35.36
35.273
35.182
35.088
34.992
34.896
34.797
34.69
34.574
34.453
34.33
34.208
34.091
33.981
33.882
33.795
33.719
33.656
33.603
33.558
33.521
33.489
33.46
33.431
33.401
33.368
33.332
33.292
33.247
33.198
33.145
33.087
33.027
32.965
32.902
32.838
32.771
32.704
32.637
32.572
32.509
32.449
32.392
32.337
32.286
32.238
32.192
32.149
32.109
32.073
32.039
32.009
31.981
31.953
31.926
31.9
31.874
31.849
31.823
31.798
31.774
31.751
31.73
31.71
31.692
31.675
31.66
31.647
31.635
31.624
31.614
31.604
31.594
31.585
31.576
31.569
31.564
31.559
31.554
31.55
31.545
31.538
31.531
31.522
31.513
31.506
31.503
31.503
31.503
31.501
31.495
31.485
31.469
31.447
31.418
31.383
31.343
31.299
31.255
31.211
31.17
31.136
31.112
31.103
31.114
31.15
31.221
31.336
31.506
31.742
32.05
32.435
32.897
33.435
34.041
34.705
35.414
36.154
36.908
37.66
38.395
39.097
39.754
40.354
40.889
41.355
41.747
42.066
42.313
42.491
42.605
42.663
42.672
42.639
42.571
42.475
42.357
42.22
42.07
41.911
41.745
41.575
41.403
41.231
41.06
40.889
40.72
40.554
40.389
40.227
40.066
39.906
39.745
39.583
39.42
39.257
39.094
38.932
38.772
38.615
38.462
38.314
38.172
38.034
37.9
37.768
37.638
37.508
37.376
37.242
37.107
36.971
36.835
36.701
36.571
36.444
36.324
36.211
36.106
36.009
35.921
35.84
35.768
35.705
35.653
35.61
35.577
35.554
35.542
35.541
35.551
35.57
35.597
35.63
35.667
35.706
35.746
35.784
35.82
35.853
35.882
35.906
35.927
35.944
35.957
35.965
35.968
35.965
35.955
35.939
35.915
35.885
35.849
35.806
35.756
35.699
35.637
35.571
35.499
35.423
35.343
35.258
35.171
35.081
34.988
34.894
34.797
34.7
34.603
34.507
34.413
34.322
34.233
34.146
34.063
33.984
33.908
33.835
33.765
33.697
33.632
33.568
33.506
33.444
33.383
33.323
33.261
33.2
33.138
33.075
33.012
32.948
32.884
32.821
32.758
32.696
32.636
32.578
32.522
32.469
32.419
32.372
32.328
32.288
32.252
32.221
32.195
32.173
32.154
32.137
32.122
32.109
32.097
32.087
32.076
32.064
32.053
32.042
32.031
32.019
32.007
31.993
31.98
31.966
31.953
31.94
31.927
31.916
31.907
31.898
31.891
31.882
31.872
31.861
31.849
31.835
31.819
31.8
31.78
31.758
31.736
31.712
31.686
31.66
31.633
31.609
31.59
31.578
31.576
31.589
31.623
31.682
31.775
31.911
32.099
32.348
32.662
33.047
33.5
34.019
34.597
35.227
35.895
36.587
37.29
37.989
38.669
39.317
39.921
40.47
40.957
41.376
41.725
42.005
42.217
42.367
42.46
42.504
42.506
42.472
42.409
42.322
42.218
42.101
41.974
41.84
41.698
41.549
41.393
41.232
41.066
40.895
40.72
40.543
40.364
40.186
40.011
39.838
39.669
39.505
39.347
39.196
39.051
38.914
38.782
38.656
38.535
38.418
38.301
38.185
38.067
37.947
37.826
37.703
37.578
37.452
37.324
37.195
37.065
36.935
36.805
36.678
36.553
36.432
36.317
36.208
36.109
36.02
35.943
35.879
35.826
35.784
35.752
35.728
35.714
35.707
35.707
35.714
35.727
35.745
35.768
35.795
35.823
35.852
35.88
35.908
35.933
35.956
35.973
35.985
35.992
35.993
35.989
35.98
35.964
35.943
35.917
35.886
35.851
35.81
35.763
35.711
35.654
35.59
35.521
35.446
35.368
35.286
35.202
35.114
35.025
34.934
34.842
34.75
34.659
34.568
34.476
34.384
34.294
34.205
34.117
34.033
33.951
33.872
33.797
33.724
33.652
33.581
33.509
33.438
33.368
33.299
33.231
33.163
33.096
33.029
32.963
32.898
32.833
32.769
32.707
32.647
32.589
32.534
32.482
32.433
32.386
32.342
32.3
32.261
32.224
32.189
32.154
32.118
32.081
32.042
32.001
31.959
31.916
31.873
31.83
31.788
31.747
31.706
31.669
31.635
31.605
31.58
31.558
31.539
31.524
31.511
31.5
31.489
31.48
31.47
31.462
31.453
31.444
31.436
31.43
31.427
31.425
31.426
31.427
31.429
31.431
31.434
31.436
31.438
31.44
31.44
31.438
31.435
31.429
31.421
31.413
31.406
31.4
31.399
31.404
31.418
31.445
31.489
31.554
31.649
31.781
31.959
32.19
32.484
32.845
33.277
33.778
34.345
34.968
35.638
36.343
37.069
37.802
38.529
39.233
39.904
40.53
41.101
41.611
42.053
42.425
42.727
42.959
43.124
43.227
43.274
43.272
43.23
43.156
43.058
42.941
42.812
42.674
42.531
42.385
42.239
42.092
41.947
41.802
41.658
41.513
41.368
41.221
41.073
40.923
40.772
40.62
40.467
40.316
40.166
40.018
39.874
39.733
39.597
39.464
39.336
39.211
39.088
38.967
38.846
38.723
38.599
38.474
38.347
38.218
38.087
37.957
37.829
37.704
37.582
37.462
37.347
37.235
37.129
37.028
36.933
36.845
36.762
36.687
36.618
36.556
36.501
36.454
36.414
36.381
36.356
36.337
36.324
36.315
36.309
36.306
36.303
36.3
36.297
36.294
36.29
36.285
36.278
36.269
36.257
36.242
36.226
36.207
36.185
36.157
36.123
36.084
36.04
35.991
35.938
35.881
35.82
35.756
35.69
35.623
35.552
35.479
35.402
35.322
35.239
35.154
35.067
34.979
34.891
34.804
34.718
34.633
34.55
34.467
34.385
34.302
34.219
34.136
34.054
33.973
33.894
33.818
33.745
33.674
33.606
33.54
33.475
33.411
33.347
33.283
33.22
33.157
33.096
33.035
32.976
32.918
32.863
32.81
32.757
32.705
32.653
32.601
32.55
32.499
32.448
32.399
32.352
32.306
32.262
32.219
32.178
32.139
32.101
32.066
32.031
31.999
31.964
31.923
31.874
31.819
31.761
31.704
31.65
31.604
31.566
31.538
31.52
31.511
31.511
31.519
31.533
31.552
31.573
31.596
31.619
31.642
31.662
31.678
31.69
31.697
31.699
31.696
31.69
31.679
31.666
31.65
31.632
31.612
31.591
31.57
31.549
31.53
31.515
31.505
31.502
31.511
31.536
31.582
31.654
31.761
31.911
32.112
32.373
32.7
33.096
33.562
34.093
34.682
35.319
35.992
36.688
37.392
38.091
38.773
39.428
40.045
40.615
41.132
41.592
41.99
42.326
42.599
42.81
42.961
43.057
43.102
43.101
43.061
42.987
42.888
42.769
42.635
42.491
42.34
42.184
42.026
41.867
41.709
41.552
41.396
41.242
41.088
40.932
40.775
40.615
40.453
40.292
40.131
39.972
39.816
39.665
39.518
39.378
39.243
39.115
38.993
38.874
38.76
38.647
38.535
38.423
38.31
38.194
38.077
37.958
37.837
37.717
37.597
37.48
37.365
37.253
37.146
37.043
36.946
36.858
36.778
36.71
36.652
36.607
36.575
36.555
36.548
36.549
36.558
36.571
36.59
36.611
36.635
36.66
36.685
36.708
36.729
36.749
36.766
36.779
36.789
36.794
36.795
36.792
36.786
36.776
36.761
36.743
36.719
36.691
36.657
36.618
36.574
36.524
36.468
36.407
36.338
36.26
36.17
36.066
35.95
35.825
35.698
35.571
35.45
35.338
35.236
35.144
35.061
34.986
34.918
34.855
34.796
34.738
34.681
34.623
34.564
34.504
34.441
34.376
34.31
34.241
34.17
34.096
34.02
33.942
33.862
33.783
33.703
33.625
33.548
33.472
33.399
33.327
33.256
33.186
33.118
33.051
32.985
32.92
32.856
32.795
32.736
32.678
32.622
32.566
32.513
32.46
32.408
32.357
32.307
32.258
32.212
32.169
32.129
32.092
32.058
32.027
32.0
31.976
31.955
31.938
31.925
31.916
31.91
31.906
31.903
31.901
31.899
31.897
31.895
31.892
31.888
31.883
31.876
31.868
31.859
31.849
31.837
31.825
31.813
31.801
31.789
31.776
31.763
31.752
31.742
31.736
31.733
31.735
31.744
31.761
31.79
31.835
31.903
32.002
32.138
32.32
32.557
32.854
33.215
33.641
34.129
34.676
35.272
35.909
36.575
37.256
37.941
38.616
39.268
39.887
40.462
40.989
41.463
41.879
42.236
42.533
42.77
42.95
43.075
43.151
43.182
43.174
43.131
43.06
42.965
42.851
42.723
42.583
42.436
42.285
42.131
41.975
41.818
41.661
41.502
41.341
41.178
41.011
40.841
40.668
40.494
40.321
40.15
39.983
39.823
39.67
39.526
39.389
39.257
39.13
39.006
38.883
38.76
38.635
38.506
38.371
38.229
38.082
37.931
37.777
37.624
37.472
37.324
37.181
37.047
36.922
36.809
36.708
36.621
36.547
36.488
36.441
36.407
36.386
36.377
36.378
36.386
36.401
36.421
36.443
36.467
36.49
36.511
36.53
36.545
36.558
36.568
36.575
36.576
36.572
36.562
36.545
36.522
36.493
36.457
36.416
36.371
36.323
36.273
36.221
36.166
36.109
36.049
35.987
35.923
35.855
35.783
35.708
35.629
35.547
35.46
35.371
35.279
35.186
35.091
34.994
34.897
34.799
34.701
34.603
34.505
34.408
34.311
34.218
34.129
34.045
33.966
33.892
33.82
33.751
33.682
33.613
33.544
33.474
33.405
33.338
33.273
33.21
33.15
33.094
33.041
32.991
32.943
32.894
32.846
32.796
32.746
32.696
32.645
32.595
32.544
32.493
32.442
32.391
32.339
32.287
32.236
32.186
32.137
32.09
32.045
32.002
31.962
31.923
31.885
31.849
31.813
31.778
31.744
31.71
31.678
31.649
31.622
31.597
31.575
31.555
31.536
31.52
31.505
31.492
31.481
31.471
31.462
31.454
31.447
31.44
31.433
31.427
31.421
31.416
31.411
31.406
31.401
31.397
31.393
31.39
31.387
31.384
31.38
31.375
31.368
31.359
31.35
31.34
31.33
31.322
31.317
31.316
31.322
31.338
31.371
31.427
31.514
31.64
31.814
32.047
32.346
32.717
33.164
33.683
34.271
34.919
35.616
36.348
37.1
37.856
38.598
39.314
39.988
40.613
41.179
41.683
42.122
42.494
42.802
43.047
43.233
43.363
43.445
43.482
43.481
43.445
43.378
43.284
43.167
43.032
42.883
42.723
42.556
42.385
42.212
42.039
41.869
41.702
41.539
41.381
41.227
41.078
40.932
40.789
40.647
40.506
40.365
40.225
40.083
39.94
39.796
39.65
39.503
39.356
39.21
39.066
38.923
38.782
38.643
38.507
38.373
38.24
38.11
37.983
37.857
37.733
37.614
37.498
37.388
37.285
37.188
37.098
37.015
36.94
36.872
36.813
36.761
36.717
36.68
36.652
36.631
36.618
36.611
36.611
36.616
36.626
36.641
36.66
36.68
36.702
36.722
36.739
36.752
36.758
36.757
36.748
36.73
36.704
36.67
36.629
36.58
36.525
36.463
36.394
36.321
36.242
36.16
36.077
35.993
35.908
35.822
35.735
35.647
35.559
35.471
35.381
35.291
35.2
35.107
35.014
34.92
34.826
34.73
34.633
34.535
34.437
34.34
34.243
34.146
34.05
33.955
33.861
33.768
33.674
33.581
33.489
33.399
33.31
33.223
33.138
33.054
32.973
32.894
32.819
32.748
32.679
32.614
32.552
32.493
32.437
32.386
32.338
32.293
32.252
32.212
32.174
32.137
32.1
32.061
32.021
31.98
31.938
31.896
31.853
31.81
31.768
31.728
31.691
31.656
31.623
31.593
31.565
31.54
31.517
31.497
31.48
31.466
31.455
31.447
31.44
31.435
31.429
31.423
31.415
31.407
31.396
31.384
31.371
31.358
31.344
31.33
31.316
31.301
31.286
31.271
31.257
31.243
31.231
31.219
31.208
31.198
31.188
31.177
31.164
31.15
31.135
31.12
31.105
31.089
31.073
31.057
31.043
31.029
31.019
31.013
31.015
31.028
31.056
31.104
31.179
31.291
31.449
31.662
31.939
32.285
32.701
33.187
33.741
34.354
35.017
35.717
36.441
37.176
37.909
38.625
39.312
39.959
40.557
41.097
41.573
41.982
42.322
42.592
42.795
42.936
43.02
43.053
43.042
42.993
42.915
42.815
42.697
42.568
42.431
42.29
42.145
41.999
41.851
41.701
41.548
41.393
41.237
41.081
40.924
40.766
40.608
40.449
40.291
40.136
39.983
39.834
39.688
39.546
39.41
39.278
39.15
39.025
38.901
38.776
38.649
38.521
38.39
38.256
38.121
37.984
37.847
37.71
37.574
37.442
37.312
37.188
37.069
36.957
36.854
36.761
36.679
36.609
36.551
36.504
36.467
36.438
36.418
36.405
36.4
36.399
36.403
36.41
36.421
36.435
36.45
36.467
36.483
36.499
36.513
36.524
36.533
36.537
36.536
36.528
36.514
36.493
36.465
36.429
36.387
36.338
36.282
36.221
36.154
36.081
36.003
35.92
35.833
35.742
35.65
35.556
35.461
35.365
35.266
35.166
35.063
34.96
34.856
34.752
34.647
34.542
34.438
34.336
34.235
34.138
34.043
33.953
33.867
33.785
33.707
33.632
33.56
33.492
33.428
33.366
33.308
33.251
33.196
33.141
33.086
33.03
32.972
32.914
32.855
32.797
32.74
32.686
32.635
32.585
32.537
32.491
32.446
32.405
32.367
32.333
32.304
32.279
32.258
32.239
32.223
32.21
32.197
32.186
32.173
32.16
32.146
32.131
32.116
32.102
32.09
32.079
32.071
32.063
32.056
32.047
32.038
32.028
32.016
32.004
31.991
31.977
31.964
31.951
31.938
31.924
31.911
31.898
31.884
31.869
31.853
31.835
31.816
31.796
31.776
31.754
31.733
31.71
31.688
31.666
31.646
31.629
31.618
31.616
31.627
31.655
31.706
31.786
31.902
32.064
32.28
32.554
32.893
33.299
33.77
34.304
34.893
35.527
36.196
36.886
37.583
38.275
38.947
39.586
40.183
40.728
41.215
41.638
41.997
42.29
42.522
42.695
42.815
42.888
42.918
42.912
42.874
42.81
42.725
42.623
42.506
42.376
42.235
42.085
41.926
41.762
41.592
41.419
41.244
41.07
40.896
40.724
40.555
40.39
40.229
40.074
39.923
39.777
39.633
39.493
39.354
39.218
39.082
38.946
38.808
38.667
38.525
