Trial 3:3back
33.167
33.145
33.126
33.108
33.091
33.075
33.06
33.046
33.032
33.017
33.0
32.983
32.963
32.943
32.921
32.898
32.876
32.856
32.838
32.824
32.812
32.803
32.797
32.794
32.793
32.795
32.801
32.813
32.831
32.859
32.898
32.948
33.012
33.088
33.178
33.282
33.399
33.527
33.665
33.813
33.97
34.135
34.306
34.481
34.656
34.831
35.001
35.164
35.32
35.466
35.602
35.728
35.842
35.944
36.036
36.116
36.187
36.247
36.3
36.345
36.382
36.413
36.438
36.458
36.473
36.484
36.493
36.5
36.506
36.512
36.518
36.524
36.53
36.535
36.539
36.543
36.545
36.547
36.546
36.543
36.537
36.529
36.518
36.504
36.487
36.466
36.441
36.413
36.379
36.342
36.301
36.258
36.213
36.167
36.12
36.075
36.032
35.992
35.956
35.926
35.901
35.882
35.869
35.861
35.858
35.858
35.861
35.865
35.87
35.875
35.878
35.879
35.878
35.873
35.865
35.855
35.841
35.823
35.801
35.775
35.747
35.716
35.684
35.65
35.616
35.58
35.543
35.505
35.465
35.425
35.385
35.345
35.306
35.268
35.232
35.196
35.162
35.13
35.098
35.069
35.04
35.012
34.985
34.959
34.935
34.911
34.887
34.865
34.843
34.822
34.801
34.781
34.762
34.742
34.722
34.7
34.677
34.652
34.625
34.597
34.569
34.54
34.513
34.486
34.462
34.439
34.417
34.397
34.377
34.359
34.343
34.328
34.314
34.302
34.29
34.277
34.263
34.247
34.228
34.206
34.181
34.153
34.124
34.092
34.06
34.027
33.996
33.967
33.942
33.92
33.901
33.886
33.874
33.864
33.856
33.849
33.84
33.831
33.822
33.812
33.802
33.792
33.782
33.774
33.766
33.759
33.751
33.742
33.732
33.72
33.708
33.694
33.68
33.666
33.65
33.633
33.615
33.597
33.578
33.558
33.536
33.513
33.487
33.461
33.435
33.408
33.38
33.352
33.322
33.29
33.258
33.226
33.194
33.164
33.137
33.114
33.096
33.084
33.079
33.083
33.098
33.126
33.169
33.229
33.308
33.406
33.524
33.659
33.812
33.979
34.157
34.344
34.536
34.729
34.92
35.107
35.287
35.459
35.621
35.774
35.918
36.051
36.174
36.287
36.39
36.481
36.564
36.636
36.699
36.753
36.796
36.83
36.854
36.871
36.881
36.886
36.886
36.883
36.877
36.87
36.861
36.852
36.842
36.833
36.823
36.815
36.807
36.799
36.794
36.79
36.787
36.786
36.785
36.783
36.78
36.774
36.766
36.753
36.736
36.714
36.686
36.652
36.613
36.57
36.524
36.477
36.429
36.381
36.334
36.289
36.245
36.205
36.168
36.135
36.106
36.082
36.063
36.048
36.036
36.029
36.025
36.022
36.022
36.023
36.026
36.029
36.032
36.034
36.033
36.029
36.023
36.014
36.002
35.988
35.97
35.951
35.928
35.904
35.879
35.851
35.822
35.791
35.759
35.727
35.693
35.657
35.62
35.581
35.541
35.5
35.46
35.42
35.382
35.345
35.309
35.274
35.241
35.208
35.177
35.148
35.12
35.094
35.068
35.043
35.019
34.996
34.974
34.952
34.929
34.906
34.881
34.853
34.823
34.79
34.754
34.717
34.68
34.642
34.605
34.569
34.536
34.504
34.475
34.446
34.419
34.392
34.366
34.34
34.315
34.291
34.267
34.246
34.227
34.209
34.193
34.178
34.165
34.151
34.139
34.127
34.115
34.103
34.092
34.08
34.067
34.054
34.041
34.028
34.015
34.003
33.992
33.982
33.973
33.964
33.955
33.947
33.937
33.925
33.911
33.894
33.876
33.855
33.832
33.807
33.781
33.754
33.728
33.703
33.679
33.658
33.638
33.62
33.603
33.587
33.571
33.553
33.535
33.515
33.495
33.475
33.456
33.439
33.425
33.416
33.414
33.424
33.447
33.486
33.543
33.619
33.715
33.829
33.961
34.108
34.269
34.442
34.622
34.809
34.997
35.184
35.367
35.546
35.72
35.887
36.048
36.202
36.349
36.489
36.62
36.741
36.852
36.952
37.04
37.117
37.184
37.242
37.291
37.333
37.369
37.399
37.426
37.449
37.47
37.488
37.504
37.519
37.531
37.542
37.552
37.561
37.57
37.579
37.588
37.597
37.604
37.61
37.613
37.615
37.614
37.611
37.605
37.596
37.582
37.564
37.541
37.513
37.481
37.445
37.406
37.364
37.319
37.273
37.226
37.178
37.13
37.083
37.036
36.991
36.948
36.909
36.872
36.839
36.809
36.781
36.756
36.733
36.71
36.687
36.662
36.636
36.608
36.578
36.547
36.516
36.485
36.457
36.43
36.404
36.381
36.358
36.337
36.316
36.297
36.279
36.263
36.247
36.231
36.216
36.2
36.183
36.165
36.147
36.128
36.109
36.089
36.068
36.044
36.018
35.989
35.955
35.919
35.88
35.839
35.796
35.752
35.706
35.659
35.611
35.563
35.513
35.463
35.414
35.367
35.321
35.277
35.235
35.194
35.155
35.117
35.08
35.044
35.009
34.977
34.946
34.917
34.89
34.866
34.843
34.823
34.803
34.785
34.768
34.751
34.735
34.719
34.703
34.686
34.668
34.649
34.629
34.607
34.584
34.559
34.532
34.503
34.473
34.443
34.414
34.387
34.361
34.339
34.32
34.304
34.292
34.283
34.275
34.268
34.262
34.256
34.249
34.24
34.229
34.216
34.201
34.182
34.161
34.136
34.109
34.079
34.049
34.018
33.987
33.957
33.929
33.902
33.878
33.856
33.836
33.818
33.8
33.784
33.767
33.75
33.73
33.706
33.679
33.648
33.614
33.579
33.545
33.514
33.487
33.468
33.456
33.455
33.467
33.492
33.533
33.59
33.664
33.756
33.865
33.989
34.129
34.281
34.444
34.617
34.797
34.983
35.174
35.368
35.564
35.759
35.951
36.138
36.319
36.492
36.655
36.808
36.949
37.077
37.193
37.296
37.388
37.468
37.538
37.598
37.649
37.692
37.727
37.757
37.782
37.802
37.818
37.829
37.836
37.84
37.84
37.838
37.833
37.826
37.819
37.811
37.802
37.792
37.782
37.77
37.757
37.743
37.728
37.71
37.691
37.669
37.644
37.614
37.581
37.543
37.5
37.452
37.4
37.346
37.288
37.229
37.17
37.11
37.053
36.997
36.945
36.895
36.849
36.807
36.769
36.734
36.702
36.673
36.645
36.62
36.595
36.567
36.535
36.5
36.463
36.425
36.391
36.361
36.336
36.318
36.305
36.298
36.295
36.295
36.296
36.298
36.299
36.297
36.292
36.283
36.27
36.252
36.23
36.205
36.177
36.148
36.116
36.084
36.049
36.012
35.973
35.93
35.884
35.836
35.785
35.733
35.681
35.629
35.576
35.525
35.475
35.425
35.375
35.326
35.277
35.228
35.179
35.132
35.087
35.044
35.002
34.964
34.928
34.894
34.864
34.836
34.812
34.789
34.768
34.747
34.727
34.706
34.685
34.663
34.64
34.615
34.59
34.564
34.538
34.513
34.487
34.463
34.442
34.422
34.405
34.39
34.377
34.366
34.355
34.344
34.333
34.32
34.306
34.29
34.272
34.251
34.228
34.203
34.177
34.148
34.119
34.088
34.058
34.029
34.002
33.976
33.951
33.927
33.905
33.884
33.862
33.841
33.819
33.797
33.775
33.753
33.733
33.713
33.693
33.674
33.656
33.637
33.62
33.604
33.588
33.574
33.56
33.548
33.535
33.521
33.507
33.492
33.477
33.461
33.446
33.432
33.419
33.408
33.398
33.389
33.381
33.374
33.368
33.364
33.364
33.369
33.38
33.401
33.434
33.479
33.54
33.617
33.712
33.826
33.958
34.108
34.275
34.455
34.647
34.848
35.053
35.26
35.468
35.674
35.876
36.072
36.26
36.438
36.606
36.764
36.91
37.046
37.17
37.284
37.387
37.478
37.557
37.623
37.678
37.723
37.759
37.788
37.811
37.828
37.842
37.851
37.858
37.862
37.863
37.863
37.861
37.856
37.85
37.841
37.83
37.819
37.808
37.795
37.782
37.766
37.748
37.727
37.704
37.677
37.648
37.616
37.58
37.54
37.496
37.449
37.399
37.346
37.293
37.238
37.183
37.127
37.07
37.012
36.956
36.901
36.848
36.798
36.751
36.708
36.67
36.636
36.608
36.585
36.566
36.551
36.54
36.533
36.528
36.526
36.524
36.522
36.52
36.516
36.512
36.506
36.499
36.493
36.493
36.496
36.503
36.509
36.512
36.508
36.495
36.473
36.44
36.397
36.344
36.282
36.213
36.138
36.06
35.98
35.9
35.824
35.752
35.685
35.623
35.568
35.519
35.475
35.436
35.401
35.369
35.339
35.31
35.282
35.254
35.226
35.198
35.169
35.14
35.111
35.082
35.052
35.023
34.992
34.96
34.927
34.892
34.855
34.819
34.782
34.746
34.711
34.677
34.646
34.618
34.591
34.567
34.545
34.526
34.508
34.492
34.476
34.461
34.446
34.43
34.413
34.395
34.377
34.36
34.345
34.333
34.322
34.312
34.302
34.293
34.282
34.271
34.257
34.242
34.225
34.207
34.187
34.165
34.142
34.117
34.091
34.064
34.036
34.008
33.98
33.952
33.924
33.896
33.868
33.839
33.81
33.781
33.752
33.724
33.697
33.673
33.651
33.633
33.618
33.605
33.596
33.59
33.585
33.583
33.582
33.58
33.579
33.577
33.574
33.569
33.56
33.549
33.535
33.519
33.501
33.481
33.461
33.44
33.421
33.402
33.384
33.367
33.35
33.335
33.322
33.314
33.31
33.315
33.329
33.354
33.392
33.444
33.51
33.593
33.691
33.806
33.937
34.083
34.244
34.418
34.602
34.796
34.995
35.197
35.399
35.601
35.8
35.993
36.178
36.355
36.522
36.677
36.823
36.958
37.084
37.2
37.308
37.407
37.497
37.58
37.654
37.721
37.779
37.829
37.87
37.902
37.924
37.936
37.941
37.938
37.93
37.915
37.895
37.871
37.844
37.814
37.784
37.753
37.723
37.695
37.669
37.644
37.62
37.597
37.573
37.548
37.521
37.49
37.455
37.413
37.366
37.312
37.252
37.189
37.123
37.056
36.989
36.924
36.861
36.802
36.746
36.696
36.649
36.608
36.572
36.543
36.518
36.5
36.486
36.475
36.467
36.462
36.457
36.454
36.45
36.446
36.441
36.432
36.42
36.404
36.386
36.365
36.341
36.315
36.287
36.257
36.226
36.194
36.161
36.129
36.097
36.063
36.027
35.987
35.945
35.901
35.855
35.809
35.764
35.72
35.678
35.64
35.604
35.571
35.541
35.513
35.487
35.462
35.438
35.414
35.388
35.36
35.329
35.295
35.256
35.214
35.169
35.122
35.073
35.022
34.97
34.918
34.866
34.815
34.765
34.717
34.671
34.627
34.585
34.547
34.511
34.478
34.448
34.421
34.398
34.378
34.363
34.352
34.344
34.339
34.335
34.331
34.329
34.326
34.323
34.319
34.314
34.309
34.301
34.292
34.281
34.268
34.255
34.242
34.228
34.215
34.203
34.191
34.179
34.168
34.156
34.144
34.131
34.117
34.102
34.085
34.065
34.042
34.016
33.988
33.956
33.922
33.886
33.849
33.813
33.777
33.743
33.71
33.679
33.649
33.62
33.593
33.567
33.545
33.525
33.509
33.497
33.489
33.483
33.48
33.477
33.474
33.47
33.465
33.459
33.451
33.441
33.428
33.414
33.398
33.38
33.36
33.34
33.319
33.297
33.275
33.254
33.234
33.216
33.2
33.188
33.18
33.18
33.189
33.209
33.243
33.293
33.36
33.445
33.548
33.67
33.809
33.965
34.137
34.324
34.523
34.732
34.948
35.169
35.392
35.616
35.837
36.055
36.266
36.47
36.665
36.85
37.025
37.189
37.342
37.483
37.614
37.732
37.839
37.933
38.014
38.08
38.133
38.172
38.198
38.212
38.214
38.206
38.19
38.166
38.137
38.107
38.076
38.047
38.021
38.0
37.983
37.97
37.962
37.959
37.96
37.963
37.968
37.973
37.975
37.973
37.964
37.948
37.924
37.891
37.849
37.797
37.736
37.669
37.596
37.52
37.441
37.363
37.287
37.213
37.144
37.079
37.018
36.963
36.913
36.87
36.834
36.803
36.779
36.759
36.744
36.733
36.725
36.719
36.713
36.706
36.698
36.686
36.671
36.652
36.629
36.6
36.569
36.535
36.5
36.463
36.426
36.391
36.357
36.324
36.293
36.263
36.233
36.203
36.172
36.138
36.103
36.065
36.026
35.987
35.948
35.909
35.873
35.838
35.804
35.771
35.737
35.703
35.667
35.629
35.588
35.544
35.497
35.447
35.395
35.34
35.286
35.231
35.178
35.127
35.079
35.034
34.991
34.951
34.914
34.88
34.848
34.819
34.792
34.768
34.745
34.725
34.706
34.689
34.674
34.66
34.648
34.637
34.627
34.617
34.605
34.592
34.577
34.559
34.54
34.518
34.49
34.455
34.415
34.371
34.325
34.278
34.234
34.191
34.152
34.117
34.086
34.058
34.033
34.01
33.987
33.965
33.944
33.923
33.903
33.883
33.864
33.847
33.83
33.815
33.8
33.785
33.772
33.759
33.747
33.736
33.726
33.717
33.709
33.701
33.693
33.684
33.676
33.667
33.658
33.649
33.64
33.632
33.625
33.618
33.611
33.604
33.596
33.586
33.574
33.56
33.544
33.527
33.507
33.486
33.464
33.441
33.418
33.396
33.376
33.357
33.341
33.327
33.315
33.307
33.301
33.3
33.303
33.312
33.329
33.355
33.394
33.447
33.516
33.602
33.706
33.829
33.972
34.134
34.313
34.508
34.715
34.931
35.153
35.378
35.605
35.83
36.051
36.265
36.471
36.666
36.849
37.018
37.173
37.312
37.439
37.556
37.664
37.762
37.849
37.924
37.984
38.031
38.065
38.086
38.096
38.096
38.087
38.07
38.048
38.021
37.991
37.96
37.929
37.9
37.874
37.85
37.829
37.812
37.797
37.785
37.773
37.762
37.749
37.733
37.713
37.689
37.66
37.625
37.584
37.538
37.487
37.431
37.372
37.31
37.247
37.185
37.124
37.065
37.009
36.956
36.906
36.862
36.822
36.789
36.762
36.74
36.722
36.706
36.691
36.676
36.659
36.639
36.618
36.594
36.568
36.54
36.511
36.483
36.455
36.429
36.406
36.386
36.367
36.351
36.335
36.321
36.308
36.295
36.282
36.269
36.257
36.245
36.233
36.218
36.201
36.18
36.156
36.128
36.097
36.061
36.02
35.976
35.927
35.875
35.82
35.762
35.706
35.655
35.611
35.574
35.543
35.514
35.485
35.454
35.42
35.382
35.34
35.293
35.243
35.189
35.132
35.074
35.015
34.956
34.899
34.844
34.792
34.746
34.705
34.67
34.64
34.615
34.595
34.579
34.566
34.556
34.546
34.537
34.527
34.515
34.503
34.489
34.473
34.457
34.439
34.421
34.402
34.382
34.361
34.34
34.318
34.294
34.269
34.244
34.217
34.189
34.159
34.127
34.095
34.062
34.03
34.001
33.976
33.954
33.935
33.918
33.903
33.89
33.878
33.865
33.853
33.84
33.826
33.814
33.803
33.792
33.782
33.773
33.763
33.752
33.74
33.728
33.715
33.702
33.687
33.671
33.655
33.637
33.617
33.596
33.573
33.549
33.523
33.496
33.468
33.439
33.409
33.38
33.35
33.322
33.297
33.274
33.256
33.245
33.242
33.25
33.269
33.301
33.349
33.415
33.498
33.602
33.725
33.869
34.033
34.216
34.417
34.633
34.863
35.103
35.351
35.604
35.858
36.109
36.354
36.592
36.818
37.032
37.232
37.417
37.586
37.738
37.872
37.99
38.092
38.178
38.249
38.307
38.352
38.386
38.41
38.427
38.437
38.443
38.445
38.447
38.447
38.447
38.446
38.444
38.44
38.434
38.426
38.415
38.401
38.383
38.361
38.335
38.305
38.272
38.236
38.197
38.155
38.11
38.062
38.012
37.96
37.907
37.854
37.801
37.749
37.697
37.645
37.593
37.541
37.49
37.438
37.387
37.338
37.29
37.245
37.203
37.164
37.128
37.096
37.066
37.04
37.016
36.992
36.969
36.944
36.918
36.89
36.859
36.827
36.793
36.759
36.722
36.685
36.647
36.61
36.573
36.539
36.505
36.473
36.442
36.41
36.379
36.346
36.313
36.278
36.242
36.206
36.168
36.128
36.086
36.043
35.996
35.947
35.896
35.843
35.79
35.737
35.684
35.631
35.579
35.527
35.478
35.431
35.387
35.345
35.306
35.27
35.236
35.204
35.173
35.144
35.115
35.088
35.061
35.033
35.006
34.978
34.95
34.922
34.893
34.864
34.836
34.808
34.781
34.754
34.727
34.698
34.669
34.638
34.605
34.572
34.538
34.504
34.471
34.439
34.408
34.379
34.353
34.329
34.308
34.288
34.271
34.256
34.242
34.227
34.213
34.199
34.185
34.171
34.157
34.144
34.132
34.12
34.11
34.1
34.091
34.081
34.072
34.062
34.051
34.038
34.023
34.007
33.989
33.969
33.949
33.927
33.906
33.884
33.861
33.838
33.816
33.795
33.774
33.753
33.732
33.711
33.691
33.67
33.651
33.633
33.614
33.594
33.573
33.55
33.526
33.501
33.476
33.451
33.425
33.401
33.377
33.353
33.329
33.306
33.283
33.261
33.242
33.225
33.211
33.202
33.198
33.201
33.213
33.236
33.272
33.325
33.397
33.491
33.607
33.747
33.909
34.093
34.296
34.515
34.749
34.994
35.246
35.504
35.762
36.017
36.266
36.507
36.737
36.955
37.161
37.352
37.53
37.693
37.843
37.978
38.098
38.202
38.292
38.367
38.428
38.478
38.517
38.546
38.566
38.577
38.581
38.577
38.567
38.55
38.527
38.501
38.472
38.441
38.409
38.377
38.345
38.315
38.286
38.26
38.235
38.212
38.192
38.174
38.158
38.144
38.13
38.116
38.101
38.083
38.063
38.038
38.007
37.968
37.922
37.867
37.803
37.733
37.656
37.574
37.489
37.404
37.319
37.235
37.155
37.079
37.01
36.946
36.891
36.843
36.803
36.77
36.745
36.726
36.714
36.708
36.706
36.707
36.709
36.711
36.712
36.71
36.703
36.693
36.677
36.656
36.63
36.599
36.563
36.522
36.477
36.429
36.378
36.325
36.272
36.217
36.163
36.109
36.055
36.002
35.952
35.904
35.859
35.817
35.778
35.742
35.708
35.674
35.641
35.606
35.57
35.532
35.492
35.451
35.407
35.362
35.314
35.266
35.217
35.167
35.117
35.068
35.019
34.969
34.919
34.87
34.82
34.771
34.724
34.678
34.635
34.595
34.558
34.525
34.495
34.469
34.445
34.424
34.405
34.388
34.371
34.355
34.339
34.323
34.307
34.291
34.275
34.261
34.248
34.236
34.225
34.214
34.203
34.191
34.181
34.171
34.161
34.151
34.14
34.128
34.112
34.093
34.07
34.043
34.012
33.979
33.944
33.908
33.871
33.835
33.799
33.766
33.734
33.705
33.679
33.654
33.632
33.61
33.591
33.573
33.557
33.541
33.527
33.513
33.5
33.488
33.475
33.464
33.453
33.443
33.434
33.425
33.419
33.413
33.408
33.403
33.398
33.393
33.388
33.383
33.378
33.371
33.364
33.355
33.345
33.333
33.321
33.307
33.294
33.28
33.268
33.257
33.247
33.24
33.237
33.238
33.246
33.263
33.292
33.334
33.393
33.47
33.566
33.683
33.82
33.978
34.154
34.349
34.56
34.786
35.022
35.266
35.515
35.764
36.012
36.255
36.492
36.722
36.941
37.148
37.342
37.522
37.686
37.835
37.967
38.082
38.182
38.266
38.335
38.39
38.431
38.461
38.481
38.49
38.491
38.483
38.467
38.445
38.416
38.382
38.344
38.304
38.264
38.225
38.188
38.153
38.122
38.094
38.07
38.048
38.028
38.007
37.986
37.962
37.936
37.907
37.875
37.838
37.795
37.748
37.695
37.638
37.578
37.516
37.454
37.393
37.333
37.276
37.221
37.169
37.121
37.076
37.034
36.996
36.962
36.93
36.9
36.872
36.846
36.821
36.798
36.777
36.757
36.739
36.722
36.705
36.688
36.671
36.653
36.634
36.614
36.592
36.569
36.543
36.514
36.482
36.447
36.41
36.371
36.332
36.292
36.251
36.209
36.167
36.122
36.076
36.028
35.98
35.93
35.878
35.826
35.773
35.719
35.664
35.61
35.557
35.505
35.455
35.407
35.361
35.316
35.271
35.226
35.182
35.139
35.096
35.056
35.018
34.983
34.951
34.922
34.895
34.871
34.849
34.83
34.812
34.796
34.78
34.766
34.751
34.737
34.723
34.709
34.695
34.682
34.67
34.659
34.649
34.639
34.628
34.615
34.599
34.58
34.558
34.532
34.505
34.476
34.446
34.414
34.381
34.348
34.315
34.283
34.253
34.226
34.201
34.179
34.16
34.141
34.123
34.105
34.086
34.066
34.044
34.022
33.999
33.976
33.953
33.929
33.907
33.885
33.864
33.844
33.826
33.811
33.796
33.782
33.767
33.751
33.735
33.717
33.7
33.683
33.667
33.651
33.636
33.622
33.611
33.61
33.62
33.639
33.664
33.69
33.715
33.736
33.749
33.754
33.749
33.733
33.707
33.671
33.627
33.577
33.525
33.474
33.426
33.387
33.36
33.349
33.357
33.387
33.44
33.518
33.621
33.75
33.904
34.082
34.279
34.494
34.723
34.962
35.208
35.458
35.71
35.959
36.204
36.442
36.671
36.888
37.091
37.28
37.452
37.607
37.743
37.862
37.962
38.046
38.115
38.168
38.208
38.236
38.254
38.262
38.261
38.252
38.238
38.219
38.197
38.174
38.149
38.125
38.101
38.077
38.055
38.033
38.012
37.989
37.965
37.939
37.909
37.875
37.839
37.799
37.756
37.71
37.661
37.609
37.554
37.494
37.432
37.367
37.301
37.233
37.165
37.098
37.033
36.971
36.912
36.858
36.81
36.768
36.732
36.702
36.677
36.654
36.634
36.615
36.596
36.577
36.557
36.537
36.516
36.495
36.473
36.45
36.427
36.405
36.383
36.36
36.337
36.313
36.288
36.262
36.234
36.204
36.174
36.143
36.114
36.085
36.057
36.029
36.0
35.97
35.938
35.905
35.869
35.831
35.792
35.752
35.709
35.665
35.619
35.571
35.523
35.475
35.427
35.379
35.331
