Trial 3:3back
35.284
35.237
35.189
35.143
35.098
35.054
35.012
34.971
34.93
34.89
34.85
34.81
34.77
34.73
34.69
34.652
34.615
34.58
34.547
34.516
34.487
34.459
34.432
34.406
34.381
34.357
34.336
34.316
34.297
34.279
34.262
34.245
34.23
34.215
34.201
34.188
34.175
34.162
34.148
34.132
34.113
34.092
34.069
34.044
34.018
33.992
33.967
33.943
33.92
33.899
33.88
33.862
33.845
33.83
33.817
33.804
33.792
33.781
33.77
33.759
33.748
33.736
33.723
33.71
33.697
33.684
33.671
33.658
33.645
33.633
33.621
33.609
33.596
33.583
33.569
33.555
33.541
33.527
33.513
33.5
33.489
33.478
33.467
33.456
33.444
33.43
33.414
33.396
33.375
33.35
33.322
33.292
33.26
33.226
33.192
33.16
33.13
33.102
33.077
33.055
33.038
33.026
33.022
33.028
33.047
33.082
33.134
33.208
33.304
33.424
33.568
33.735
33.927
34.142
34.377
34.631
34.899
35.177
35.462
35.747
36.03
36.307
36.574
36.828
37.068
37.29
37.493
37.676
37.84
37.985
38.112
38.223
38.318
38.399
38.466
38.521
38.566
38.601
38.628
38.649
38.666
38.678
38.688
38.695
38.701
38.704
38.703
38.697
38.687
38.671
38.65
38.626
38.599
38.57
38.541
38.51
38.478
38.445
38.411
38.374
38.334
38.291
38.246
38.199
38.15
38.098
38.044
37.988
37.933
37.877
37.821
37.766
37.711
37.655
37.598
37.54
37.483
37.426
37.371
37.317
37.265
37.216
37.168
37.122
37.078
37.036
36.996
36.958
36.922
36.889
36.859
36.831
36.807
36.785
36.765
36.747
36.728
36.709
36.688
36.666
36.641
36.613
36.582
36.547
36.509
36.467
36.42
36.369
36.313
36.254
36.191
36.127
36.061
35.996
35.93
35.866
35.802
35.74
35.679
35.62
35.564
35.512
35.464
35.42
35.382
35.346
35.314
35.285
35.257
35.231
35.206
35.183
35.159
35.136
35.112
35.087
35.061
35.034
35.008
34.981
34.955
34.929
34.902
34.874
34.845
34.815
34.784
34.751
34.717
34.681
34.644
34.605
34.566
34.526
34.486
34.449
34.413
34.381
34.352
34.325
34.301
34.279
34.257
34.236
34.215
34.195
34.176
34.157
34.141
34.126
34.112
34.099
34.086
34.074
34.063
34.053
34.043
34.034
34.025
34.017
34.008
33.998
33.988
33.976
33.961
33.945
33.927
33.905
33.881
33.854
33.824
33.791
33.757
33.723
33.689
33.655
33.624
33.594
33.566
33.539
33.514
33.489
33.465
33.44
33.413
33.386
33.358
33.33
33.303
33.277
33.254
33.233
33.214
33.197
33.183
33.171
33.161
33.152
33.144
33.137
33.129
33.122
33.115
33.11
33.108
33.113
33.128
33.155
33.198
33.26
33.344
33.45
33.58
33.734
33.91
34.107
34.321
34.551
34.793
35.043
35.3
35.558
35.815
36.068
36.314
36.55
36.774
36.985
37.181
37.361
37.524
37.669
37.798
37.911
38.008
38.092
38.163
38.224
38.276
38.321
38.36
38.393
38.42
38.44
38.452
38.457
38.455
38.445
38.43
38.409
38.384
38.354
38.32
38.284
38.247
38.209
38.171
38.134
38.098
38.063
38.029
37.997
37.967
37.937
37.908
37.878
37.847
37.813
37.775
37.734
37.687
37.636
37.58
37.519
37.453
37.384
37.31
37.232
37.152
37.071
36.99
36.912
36.838
36.768
36.705
36.648
36.599
36.558
36.526
36.503
36.488
36.481
36.48
36.483
36.489
36.495
36.501
36.504
36.503
36.499
36.489
36.475
36.456
36.432
36.402
36.37
36.334
36.295
36.252
36.208
36.16
36.111
36.061
36.01
35.959
35.907
35.855
35.803
35.75
35.697
35.643
35.59
35.536
35.483
35.433
35.384
35.337
35.293
35.25
35.208
35.165
35.122
35.079
35.035
34.992
34.949
34.907
34.865
34.826
34.788
34.751
34.714
34.679
34.643
34.608
34.572
34.537
34.501
34.464
34.427
34.391
34.356
34.323
34.293
34.266
34.246
34.234
34.23
34.232
34.238
34.247
34.256
34.264
34.27
34.273
34.271
34.264
34.252
34.235
34.214
34.189
34.162
34.135
34.107
34.081
34.057
34.033
34.01
33.987
33.964
33.941
33.917
33.893
33.868
33.841
33.815
33.787
33.757
33.726
33.694
33.663
33.631
33.6
33.57
33.542
33.514
33.488
33.463
33.438
33.413
33.388
33.364
33.341
33.32
33.301
33.285
33.272
33.261
33.252
33.245
33.238
33.231
33.224
33.216
33.208
33.2
33.192
33.184
33.179
33.178
33.184
33.2
33.228
33.273
33.336
33.421
33.528
33.659
33.813
33.989
34.186
34.401
34.632
34.876
35.129
35.389
35.651
35.912
36.169
36.417
36.656
36.881
37.093
37.288
37.466
37.625
37.765
37.885
37.985
38.066
38.131
38.181
38.218
38.242
38.256
38.261
38.258
38.248
38.235
38.217
38.197
38.177
38.154
38.13
38.106
38.082
38.057
38.032
38.006
37.978
37.948
37.915
37.88
37.842
37.803
37.761
37.718
37.673
37.626
37.578
37.528
37.476
37.422
37.367
37.309
37.25
37.189
37.127
37.062
36.996
36.929
36.86
36.791
36.723
36.657
36.595
36.536
36.483
36.437
36.397
36.364
36.339
36.319
36.305
36.295
36.288
36.283
36.278
36.274
36.271
36.268
36.266
36.263
36.26
36.255
36.248
36.238
36.224
36.205
36.181
36.151
36.116
36.075
36.028
35.977
35.921
35.862
35.801
35.739
35.678
35.619
35.563
35.508
35.455
35.404
35.354
35.306
35.26
35.216
35.175
35.136
35.1
35.066
35.033
35.002
34.971
34.942
34.912
34.882
34.854
34.826
34.799
34.773
34.747
34.721
34.694
34.666
34.64
34.613
34.587
34.56
34.531
34.501
34.47
34.438
34.402
34.366
34.328
34.29
34.252
34.214
34.179
34.147
34.116
34.089
34.065
34.044
34.027
34.013
34.002
33.994
33.987
33.981
33.974
33.966
33.958
33.948
33.937
33.924
33.912
33.898
33.884
33.869
33.852
33.834
33.816
33.799
33.783
33.769
33.757
33.745
33.733
33.719
33.702
33.681
33.658
33.632
33.603
33.574
33.543
33.512
33.481
33.451
33.421
33.393
33.367
33.342
33.318
33.295
33.272
33.249
33.225
33.2
33.174
33.147
33.121
33.098
33.08
33.07
33.071
33.085
33.116
33.165
33.236
33.329
33.446
33.588
33.754
33.945
34.16
34.396
34.65
34.918
35.197
35.483
35.773
36.063
36.349
36.628
36.896
37.151
37.39
37.61
37.811
37.991
38.15
38.287
38.404
38.501
38.582
38.647
38.699
38.741
38.774
38.799
38.817
38.829
38.836
38.839
38.839
38.835
38.828
38.818
38.806
38.79
38.772
38.75
38.724
38.694
38.66
38.622
38.58
38.535
38.488
38.44
38.392
38.344
38.297
38.252
38.208
38.164
38.122
38.08
38.038
37.994
37.95
37.904
37.856
37.807
37.755
37.701
37.645
37.587
37.526
37.462
37.396
37.329
37.261
37.193
37.128
37.066
37.008
36.957
36.912
36.871
36.835
36.804
36.776
36.751
36.728
36.708
36.689
36.669
36.649
36.627
36.605
36.582
36.559
36.536
36.512
36.487
36.461
36.433
36.403
36.369
36.332
36.29
36.244
36.195
36.143
36.088
36.03
35.972
35.914
35.857
35.803
35.751
35.701
35.654
35.608
35.564
35.52
35.478
35.436
35.396
35.356
35.316
35.277
35.238
35.199
35.159
35.12
35.081
35.042
35.003
34.964
34.926
34.887
34.849
34.81
34.771
34.732
34.693
34.656
34.619
34.584
34.55
34.519
34.488
34.459
34.431
34.404
34.376
34.348
34.32
34.293
34.267
34.244
34.223
34.205
34.19
34.179
34.17
34.164
34.161
34.161
34.163
34.165
34.167
34.168
34.167
34.166
34.162
34.157
34.149
34.139
34.125
34.109
34.089
34.067
34.042
34.016
33.987
33.956
33.922
33.886
33.848
33.808
33.767
33.726
33.685
33.644
33.605
33.566
33.528
33.49
33.454
33.419
33.387
33.36
33.337
33.32
33.308
33.303
33.305
33.316
33.336
33.369
33.415
33.477
33.557
33.658
33.78
33.926
34.095
34.287
34.499
34.73
34.977
35.237
35.505
35.778
36.051
36.321
36.584
36.839
37.082
37.313
37.529
37.729
37.913
38.078
38.225
38.353
38.462
38.553
38.627
38.686
38.732
38.766
38.79
38.804
38.809
38.807
38.798
38.783
38.761
38.736
38.708
38.68
38.653
38.626
38.602
38.579
38.558
38.537
38.517
38.495
38.473
38.448
38.422
38.393
38.361
38.326
38.286
38.242
38.193
38.138
38.077
38.009
37.936
37.857
37.774
37.687
37.597
37.506
37.417
37.33
37.248
37.17
37.098
37.031
36.972
36.92
36.874
36.835
36.802
36.774
36.75
36.73
36.714
36.701
36.69
36.681
36.671
36.66
36.646
36.628
36.606
36.579
36.547
36.511
36.472
36.43
36.386
36.342
36.297
36.254
36.213
36.172
36.133
36.093
36.053
36.011
35.968
35.923
35.877
35.83
35.783
35.735
35.689
35.642
35.597
35.552
35.508
35.464
35.421
35.377
35.332
35.287
35.239
35.19
35.139
35.087
35.034
34.98
34.927
34.875
34.824
34.775
34.727
34.682
34.639
34.598
34.56
34.524
34.49
34.458
34.426
34.396
34.368
34.342
34.316
34.293
34.271
34.251
34.232
34.213
34.195
34.177
34.16
34.144
34.127
34.112
34.098
34.084
34.071
34.059
34.048
34.038
34.029
34.02
34.012
34.004
33.997
33.989
33.98
33.968
33.954
33.937
33.916
33.894
33.869
33.844
33.817
33.79
33.763
33.733
33.703
33.67
33.636
33.6
33.564
33.528
33.493
33.459
33.426
33.395
33.365
33.336
33.307
33.278
33.251
33.225
33.202
33.181
33.166
33.155
33.151
33.155
33.166
33.187
33.22
33.267
33.328
33.407
33.505
33.622
33.759
33.915
34.091
34.285
34.496
34.723
34.963
35.212
35.469
35.727
35.984
36.237
36.482
36.717
36.94
37.15
37.345
37.523
37.685
37.83
37.958
38.07
38.167
38.25
38.318
38.373
38.416
38.448
38.469
38.481
38.485
38.481
38.47
38.453
38.432
38.406
38.379
38.35
38.322
38.295
38.268
38.244
38.22
38.198
38.177
38.157
38.137
38.116
38.094
38.068
38.036
37.997
37.951
37.897
37.835
37.766
37.69
37.607
37.518
37.425
37.328
37.23
37.132
37.036
36.942
36.852
36.768
36.692
36.623
36.564
36.515
36.476
36.448
36.429
36.418
36.413
36.413
36.416
36.423
36.43
36.437
36.442
36.443
36.44
36.432
36.419
36.401
36.38
36.354
36.325
36.292
36.255
36.215
36.172
36.126
36.077
36.027
35.974
35.921
35.867
35.813
35.759
35.707
35.656
35.606
35.559
35.513
35.467
35.423
35.378
35.334
35.288
35.242
35.195
35.149
35.104
35.059
35.016
34.973
34.931
34.89
34.848
34.806
34.764
34.723
34.682
34.641
34.6
34.56
34.522
34.486
34.453
34.423
34.397
34.374
34.353
34.333
34.315
34.297
34.279
34.261
34.244
34.227
34.211
34.197
34.185
34.174
34.165
34.158
34.151
34.145
34.14
34.134
34.129
34.122
34.114
34.104
34.092
34.076
34.058
34.037
34.014
33.99
33.967
33.943
33.919
33.895
33.871
33.846
33.822
33.797
33.773
33.749
33.727
33.705
33.683
33.663
33.643
33.626
33.611
33.598
33.586
33.576
33.567
33.56
33.553
33.546
33.538
33.53
33.521
33.512
33.502
33.493
33.485
33.479
33.476
33.479
33.49
33.511
33.546
33.597
33.667
33.758
33.871
34.005
34.159
34.332
34.522
34.726
34.942
35.167
35.4
35.637
35.874
36.111
36.342
36.567
36.782
36.986
37.178
37.355
37.518
37.666
37.799
37.917
38.021
38.111
38.188
38.252
38.305
38.345
38.375
38.394
38.404
38.405
38.398
38.382
38.359
38.329
38.293
38.253
38.21
38.166
38.121
38.076
38.03
37.984
37.939
37.894
37.851
37.807
37.764
37.719
37.671
37.621
37.566
37.507
37.444
37.377
37.306
37.232
37.156
37.078
37.002
36.928
36.858
36.791
36.73
36.676
36.627
36.586
36.551
36.523
36.501
36.485
36.473
36.465
36.459
36.454
36.448
36.442
36.433
36.423
36.411
36.395
36.376
36.352
36.324
36.291
36.255
36.216
36.176
36.135
36.093
36.051
36.01
35.969
35.931
35.894
35.859
35.826
35.795
35.764
35.733
35.701
35.668
35.633
35.594
35.553
35.509
35.462
35.413
35.36
35.305
35.247
35.187
35.125
35.062
34.999
34.937
34.876
34.816
34.759
34.705
34.655
34.608
34.566
34.528
34.494
34.465
34.439
34.416
34.396
34.378
34.363
34.351
34.34
34.331
34.323
34.317
34.311
34.306
34.303
34.3
34.297
34.296
34.295
34.294
34.293
34.292
34.29
34.286
34.279
34.269
34.256
34.238
34.218
34.194
34.167
34.138
34.107
34.074
34.041
34.007
33.974
33.942
33.911
33.882
33.853
33.825
33.799
33.774
33.751
33.729
33.709
33.688
33.668
33.648
33.628
33.607
33.586
33.564
33.542
33.52
33.498
33.477
33.457
33.437
33.418
33.397
33.376
33.354
33.333
33.311
33.292
33.276
33.267
33.264
33.266
33.273
33.286
33.305
33.334
33.373
33.425
33.492
33.577
33.68
33.805
33.951
34.12
34.312
34.525
34.757
35.005
35.265
35.535
35.809
36.084
36.356
36.622
36.88
37.126
37.359
37.577
37.78
37.966
38.135
38.287
38.421
38.538
38.638
38.721
38.789
38.841
38.879
38.905
38.919
38.923
38.919
38.908
38.891
38.87
38.844
38.817
38.789
38.761
38.734
38.71
38.688
38.669
38.653
38.637
38.622
38.605
38.585
38.561
38.534
38.503
38.467
38.426
38.379
38.328
38.272
38.212
38.149
38.084
38.016
37.946
37.875
37.802
37.729
37.655
37.582
37.51
37.439
37.371
37.304
37.239
37.174
37.111
37.048
36.987
36.928
36.871
36.816
36.765
36.718
36.675
36.638
36.608
36.583
36.564
36.55
36.539
36.529
36.52
36.511
36.502
36.49
36.477
36.46
36.44
36.416
36.387
36.352
36.312
36.267
36.216
36.16
36.1
36.035
35.966
35.894
35.82
35.745
35.671
35.598
35.528
35.462
35.4
35.341
35.286
35.235
35.187
35.143
35.101
35.063
35.028
34.995
34.964
34.934
34.905
34.878
34.851
34.827
34.803
34.78
34.756
34.728
34.698
34.665
34.63
34.595
34.562
34.529
34.499
34.471
34.445
34.42
34.396
34.371
34.347
34.323
34.299
34.276
34.252
34.228
34.204
34.18
34.155
34.131
34.107
34.085
34.065
34.046
34.03
34.015
34.001
33.988
33.976
33.965
33.954
33.944
33.934
33.924
33.912
33.899
33.884
33.867
33.848
33.828
33.807
33.784
33.76
33.735
33.709
33.683
33.657
33.631
33.604
33.576
33.547
33.517
33.485
33.453
33.419
33.384
33.347
33.311
33.276
33.243
33.212
33.184
33.159
33.136
33.117
33.102
33.09
33.082
33.079
33.082
33.092
33.109
33.136
33.174
33.225
33.291
33.375
33.48
33.607
33.758
33.933
34.132
34.354
34.595
34.853
35.124
35.403
35.686
35.968
36.244
36.509
36.759
36.993
37.209
37.404
37.58
37.735
37.872
37.992
38.095
38.183
38.259
38.325
38.383
38.435
38.481
38.522
38.56
38.594
38.623
38.648
38.668
38.682
38.691
38.693
38.689
38.678
38.662
38.642
38.619
38.593
38.564
38.533
38.499
38.463
38.425
38.384
38.343
38.301
38.258
38.213
38.167
38.118
38.065
38.01
37.95
37.887
37.819
37.747
37.673
37.597
37.522
37.449
37.377
37.309
37.244
37.182
37.123
37.068
37.017
36.97
36.926
36.886
36.848
36.813
36.78
36.747
36.714
36.68
36.647
36.612
36.577
36.54
36.5
36.459
36.414
36.367
36.318
36.267
36.215
36.162
36.11
36.059
36.009
35.961
35.915
35.87
35.828
35.788
35.75
35.713
35.678
35.643
35.608
35.573
35.539
35.504
35.469
35.432
35.393
35.352
35.31
35.265
35.219
35.172
35.125
35.077
35.03
34.983
34.936
34.89
34.845
34.799
34.754
34.71
34.667
34.625
34.584
34.545
34.507
34.471
34.438
34.408
34.381
34.356
34.335
34.315
34.298
34.283
34.27
34.258
34.247
34.236
34.226
34.216
34.205
34.193
34.18
34.165
34.149
34.131
34.112
34.093
34.073
34.054
34.035
34.015
33.994
33.971
33.946
33.917
33.886
33.851
33.813
33.774
33.733
33.692
33.65
33.609
33.569
33.531
33.497
33.465
33.438
33.414
33.393
33.374
33.358
33.343
33.329
33.316
33.303
33.289
33.276
33.262
33.248
33.234
33.219
33.205
33.189
33.175
33.162
33.15
33.141
33.133
33.125
33.118
33.109
33.098
33.086
33.073
33.058
33.039
33.018
32.994
32.968
32.939
32.911
32.883
32.86
32.841
32.83
32.828
32.837
32.86
32.898
32.954
33.029
33.125
33.243
33.384
33.546
33.73
33.934
34.156
34.394
34.646
34.908
35.178
35.452
35.727
35.999
36.265
36.522
36.767
36.997
37.21
37.406
37.584
37.743
37.884
38.006
38.11
38.197
38.268
38.326
38.37
38.404
38.428
38.444
38.454
38.458
38.457
38.452
38.444
38.432
38.416
38.397
38.375
38.35
38.322
38.292
38.26
38.225
38.187
38.146
38.104
38.06
38.016
37.972
37.927
37.881
37.835
37.787
37.739
37.69
37.638
37.586
37.531
37.474
37.415
37.354
37.292
37.228
37.163
37.098
37.031
36.964
36.896
36.828
36.761
36.693
36.628
36.564
36.505
36.452
36.404
36.36
36.32
36.282
36.245
36.208
36.173
36.138
36.103
36.069
36.037
36.006
35.978
35.952
35.927
35.905
35.883
35.864
35.844
35.823
35.801
35.775
35.747
35.715
35.679
35.639
35.594
35.545
35.492
35.436
35.376
35.314
35.249
35.183
35.116
35.047
34.979
34.911
34.846
34.784
34.726
34.673
34.623
34.578
34.537
34.499
34.463
34.428
34.392
34.349
34.299
34.242
34.18
34.117
34.056
34.001
33.954
33.915
33.887
33.869
33.861
33.859
33.864
33.872
33.881
33.89
33.898
33.903
33.906
33.905
33.902
33.896
33.886
33.873
33.857
33.838
33.817
33.793
33.766
33.738
33.711
33.684
33.657
33.631
33.605
33.58
33.557
33.535
33.514
33.495
33.477
33.461
33.446
33.431
33.417
33.401
33.384
33.366
33.346
33.325
33.305
33.284
33.265
33.247
33.231
33.217
33.204
33.193
33.181
33.17
33.156
33.141
33.123
33.103
33.08
33.055
33.027
32.997
32.964
32.931
32.898
32.866
32.834
32.802
32.771
32.741
32.712
32.684
32.658
32.635
32.615
32.598
32.585
32.576
32.57
32.567
32.567
32.572
32.581
32.597
32.621
32.656
32.704
32.771
32.858
32.969
33.106
33.268
33.456
33.669
33.902
34.153
34.418
34.691
34.97
35.249
35.526
35.798
36.061
36.313
36.551
36.774
36.978
37.165
37.333
37.481
37.61
37.721
37.814
37.888
37.946
37.991
38.022
38.043
38.054
38.059
38.057
38.052
38.044
38.034
38.022
38.008
37.993
37.977
37.958
37.939
37.92
37.9
37.881
37.862
37.842
37.821
37.797
37.77
37.74
37.705
37.668
37.627
37.583
37.536
37.486
37.433
37.377
37.319
37.257
37.194
37.129
37.061
36.993
36.923
36.852
36.782
36.713
36.646
36.583
36.522
36.464
36.411
36.361
36.316
36.277
36.243
36.215
36.192
36.175
36.162
36.152
36.145
36.139
36.135
36.131
36.127
36.12
36.109
36.094
36.075
36.05
36.022
35.988
35.952
35.911
35.868
35.823
35.776
35.728
35.68
35.631
35.583
35.535
35.488
35.442
35.397
35.353
35.309
35.268
35.227
35.188
35.15
35.113
35.077
35.041
35.005
34.97
34.934
34.898
34.861
34.824
34.786
34.748
34.708
34.669
34.63
34.591
34.553
34.517
34.482
34.448
34.416
34.384
34.351
34.317
34.283
34.248
34.214
34.18
34.148
34.117
34.086
34.058
34.033
34.011
33.992
33.976
33.964
33.954
33.946
33.938
33.931
33.923
33.913
33.902
33.888
33.873
33.857
33.839
33.822
33.805
33.789
33.772
33.755
33.737
33.72
33.702
33.685
33.668
33.65
33.633
33.616
33.598
33.581
33.564
33.546
33.527
33.508
33.487
33.466
33.443
33.419
33.394
33.368
33.341
33.315
33.289
33.263
33.238
33.214
33.189
33.164
33.139
33.113
33.087
33.06
33.035
33.009
32.985
32.961
32.939
32.918
32.899
32.882
32.868
32.858
32.852
32.851
32.857
32.872
32.897
32.937
32.994
33.071
33.169
33.289
33.434
33.602
33.792
34.004
34.234
34.481
34.741
35.009
35.282
35.556
35.827
36.092
36.346
36.589
36.817
37.03
37.227
37.406
37.567
37.707
37.827
37.928
38.008
38.07
38.114
38.144
38.159
38.163
38.157
38.143
38.122
38.096
38.065
38.031
37.994
37.958
37.923
37.891
37.863
37.84
37.822
37.808
37.797
37.788
37.78
37.771
37.76
37.745
37.724
37.697
37.661
37.616
37.561
37.497
37.423
37.342
37.255
37.164
37.07
36.976
36.883
36.793
36.709
36.633
36.566
36.509
36.46
36.421
36.39
36.366
36.347
36.332
36.317
36.302
36.287
36.27
36.252
36.233
36.213
36.192
36.172
36.152
36.133
36.113
36.094
36.074
36.052
36.03
36.005
35.978
35.949
35.918
35.884
35.848
35.81
35.771
35.731
35.69
35.647
35.603
35.558
35.511
35.462
35.41
35.357
35.303
35.249
35.194
35.14
35.087
35.036
34.987
