Trial 3:3back
36.104
36.055
36.01
35.967
35.928
35.891
35.858
35.828
35.801
35.779
35.761
35.748
35.741
35.74
35.747
35.761
35.783
35.812
35.847
35.885
35.925
35.967
36.008
36.047
36.085
36.121
36.154
36.185
36.212
36.235
36.255
36.27
36.281
36.288
36.29
36.29
36.286
36.278
36.268
36.254
36.238
36.217
36.194
36.168
36.14
36.111
36.081
36.05
36.018
35.984
35.949
35.913
35.875
35.835
35.796
35.756
35.718
35.681
35.646
35.613
35.582
35.552
35.524
35.498
35.473
35.451
35.43
35.412
35.395
35.378
35.36
35.339
35.316
35.289
35.261
35.231
35.201
35.172
35.144
35.118
35.093
35.069
35.046
35.027
35.01
34.997
34.99
34.987
34.99
34.998
35.01
35.024
35.041
35.06
35.081
35.105
35.13
35.158
35.188
35.218
35.25
35.28
35.31
35.338
35.365
35.39
35.413
35.433
35.45
35.461
35.467
35.468
35.465
35.46
35.452
35.444
35.435
35.425
35.417
35.409
35.402
35.394
35.387
35.379
35.372
35.365
35.357
35.349
35.34
35.33
35.319
35.306
35.293
35.279
35.263
35.246
35.227
35.205
35.181
35.156
35.128
35.098
35.067
35.035
35.002
34.97
34.938
34.907
34.877
34.847
34.819
34.791
34.765
34.739
34.713
34.687
34.662
34.638
34.614
34.59
34.566
34.544
34.521
34.499
34.476
34.452
34.427
34.398
34.367
34.332
34.294
34.255
34.215
34.177
34.143
34.115
34.096
34.089
34.098
34.126
34.176
34.248
34.343
34.464
34.611
34.785
34.986
35.211
35.457
35.722
36.0
36.287
36.578
36.867
37.149
37.421
37.677
37.917
38.137
38.336
38.514
38.67
38.802
38.911
38.998
39.062
39.106
39.131
39.14
39.135
39.119
39.093
39.059
39.018
38.973
38.925
38.875
38.823
38.771
38.72
38.672
38.627
38.586
38.549
38.517
38.489
38.466
38.445
38.427
38.409
38.391
38.373
38.353
38.333
38.311
38.287
38.26
38.23
38.196
38.158
38.115
38.067
38.015
37.957
37.896
37.832
37.766
37.699
37.631
37.565
37.5
37.436
37.373
37.31
37.248
37.188
37.131
37.078
37.031
36.991
36.957
36.931
36.911
36.899
36.892
36.892
36.897
36.907
36.92
36.936
36.953
36.971
36.988
37.002
37.014
37.023
37.029
37.032
37.034
37.033
37.03
37.024
37.014
37.001
36.982
36.958
36.93
36.898
36.862
36.824
36.783
36.741
36.698
36.653
36.607
36.559
36.511
36.464
36.416
36.369
36.322
36.277
36.233
36.189
36.147
36.104
36.062
36.018
35.972
35.925
35.876
35.826
35.775
35.724
35.67
35.616
35.56
35.504
35.448
35.394
35.34
35.288
35.238
35.191
35.146
35.104
35.064
35.027
34.994
34.963
34.934
34.909
34.886
34.865
34.844
34.824
34.802
34.78
34.757
34.734
34.709
34.684
34.659
34.635
34.61
34.585
34.561
34.536
34.512
34.488
34.465
34.442
34.42
34.398
34.376
34.353
34.331
34.307
34.282
34.256
34.228
34.199
34.171
34.143
34.116
34.091
34.066
34.042
34.018
33.993
33.967
33.938
33.908
33.877
33.845
33.814
33.783
33.752
33.722
33.694
33.67
33.65
33.634
33.623
33.616
33.612
33.611
33.611
33.612
33.613
33.613
33.611
33.605
33.595
33.582
33.566
33.548
33.529
33.508
33.487
33.466
33.446
33.427
33.41
33.397
33.39
33.388
33.391
33.401
33.415
33.433
33.454
33.477
33.503
33.53
33.561
33.596
33.636
33.683
33.74
33.81
33.895
33.998
34.12
34.263
34.427
34.612
34.817
35.037
35.269
35.509
35.753
35.996
36.234
36.464
36.682
36.886
37.072
37.238
37.382
37.503
37.6
37.673
37.724
37.754
37.765
37.76
37.743
37.716
37.681
37.639
37.591
37.539
37.482
37.422
37.359
37.294
37.227
37.16
37.093
37.027
36.963
36.901
36.842
36.787
36.734
36.684
36.637
36.592
36.551
36.513
36.478
36.443
36.408
36.372
36.332
36.289
36.243
36.194
36.143
36.092
36.041
35.991
35.942
35.893
35.844
35.795
35.746
35.698
35.651
35.606
35.565
35.527
35.494
35.464
35.438
35.417
35.401
35.389
35.382
35.38
35.383
35.391
35.403
35.417
35.435
35.455
35.478
35.503
35.53
35.558
35.583
35.606
35.626
35.642
35.654
35.664
35.672
35.678
35.681
35.683
35.683
35.681
35.678
35.674
35.669
35.662
35.653
35.641
35.626
35.606
35.582
35.553
35.52
35.483
35.444
35.404
35.362
35.32
35.278
35.235
35.192
35.149
35.105
35.062
35.019
34.976
34.933
34.89
34.848
34.806
34.766
34.727
34.689
34.652
34.616
34.581
34.546
34.511
34.477
34.442
34.407
34.373
34.339
34.305
34.272
34.239
34.206
34.175
34.146
34.119
34.093
34.069
34.048
34.028
34.013
34.007
34.011
34.022
34.04
34.06
34.081
34.099
34.111
34.117
34.115
34.106
34.088
34.065
34.036
34.003
33.967
33.931
33.894
33.857
33.82
33.784
33.749
33.716
33.684
33.655
33.628
33.604
33.582
33.563
33.547
33.534
33.522
33.513
33.504
33.496
33.487
33.478
33.468
33.459
33.449
33.439
33.428
33.415
33.399
33.38
33.356
33.328
33.297
33.264
33.231
33.199
33.167
33.137
33.108
33.08
33.055
33.032
33.013
32.997
32.984
32.974
32.967
32.96
32.954
32.946
32.938
32.93
32.92
32.91
32.899
32.888
32.878
32.868
32.86
32.856
32.858
32.87
32.894
32.935
32.995
33.077
33.181
33.307
33.457
33.629
33.822
34.035
34.266
34.511
34.765
35.024
35.282
35.533
35.772
35.996
36.2
36.382
36.542
36.678
36.791
36.88
36.948
36.994
37.02
37.029
37.022
37.002
36.971
36.931
36.885
36.834
36.78
36.725
36.67
36.616
36.562
36.511
36.462
36.417
36.375
36.336
36.3
36.268
36.239
36.214
36.193
36.175
36.16
36.148
36.138
36.13
36.122
36.114
36.105
36.097
36.088
36.08
36.073
36.065
36.057
36.048
36.037
36.022
36.003
35.98
35.953
35.921
35.885
35.845
35.804
35.762
35.721
35.682
35.646
35.614
35.586
35.562
35.544
35.53
35.522
35.519
35.521
35.527
35.538
35.553
35.572
35.595
35.622
35.652
35.685
35.719
35.753
35.786
35.815
35.841
35.861
35.877
35.887
35.891
35.889
35.881
35.866
35.846
35.822
35.793
35.761
35.727
35.691
35.653
35.614
35.573
35.53
35.487
35.443
35.399
35.355
35.312
35.271
35.232
35.193
35.155
35.117
35.08
35.043
35.007
34.971
34.936
34.901
34.866
34.832
34.8
34.77
34.742
34.716
34.691
34.667
34.643
34.619
34.595
34.571
34.547
34.524
34.502
34.483
34.465
34.448
34.433
34.418
34.403
34.387
34.371
34.354
34.336
34.317
34.298
34.279
34.259
34.239
34.22
34.2
34.18
34.161
34.141
34.12
34.098
34.075
34.05
34.026
34.0
33.976
33.951
33.928
33.905
33.881
33.858
33.834
33.81
33.785
33.76
33.735
33.711
33.686
33.661
33.633
33.604
33.572
33.537
33.499
33.458
33.417
33.375
33.334
33.294
33.254
33.217
33.183
33.152
33.125
33.102
33.084
33.069
33.057
33.047
33.037
33.027
33.017
33.008
32.999
32.99
32.983
32.975
32.966
32.955
32.942
32.927
32.911
32.893
32.874
32.853
32.832
32.81
32.788
32.768
32.75
32.736
32.724
32.716
32.712
32.712
32.715
32.721
32.731
32.745
32.765
32.79
32.823
32.864
32.917
32.983
33.065
33.165
33.287
33.431
33.598
33.786
33.994
34.22
34.461
34.713
34.973
35.237
35.5
35.758
36.006
36.242
36.463
36.666
36.849
37.011
37.152
37.271
37.368
37.445
37.501
37.538
37.557
37.558
37.545
37.517
37.478
37.427
37.368
37.303
37.234
37.163
37.093
37.025
36.961
36.9
36.844
36.793
36.748
36.71
36.677
36.649
36.625
36.606
36.59
36.576
36.565
36.556
36.547
36.538
36.528
36.517
36.503
36.486
36.464
36.436
36.403
36.364
36.32
36.271
36.218
36.162
36.105
36.047
35.991
35.937
35.887
35.84
35.798
35.759
35.723
35.69
35.66
35.633
35.609
35.587
35.569
35.554
35.543
35.535
35.531
35.531
35.534
35.54
35.549
35.559
35.571
35.584
35.596
35.607
35.618
35.629
35.639
35.65
35.66
35.669
35.678
35.686
35.691
35.694
35.694
35.69
35.684
35.674
35.662
35.646
35.628
35.608
35.584
35.558
35.529
35.497
35.463
35.426
35.387
35.346
35.305
35.263
35.221
35.18
35.14
35.101
35.064
35.028
34.994
34.962
34.933
34.904
34.875
34.846
34.816
34.784
34.751
34.717
34.681
34.646
34.612
34.577
34.541
34.505
34.469
34.433
34.399
34.366
34.336
34.308
34.282
34.257
34.235
34.215
34.197
34.181
34.167
34.155
34.144
34.134
34.125
34.115
34.103
34.089
34.073
34.054
34.032
34.009
33.984
33.957
33.93
33.901
33.873
33.844
33.814
33.786
33.757
33.731
33.706
33.682
33.658
33.635
33.612
33.588
33.564
33.54
33.515
33.49
33.464
33.438
33.409
33.378
33.346
33.313
33.278
33.244
33.211
33.178
33.146
33.116
33.089
33.065
33.045
33.03
33.019
33.01
33.004
33.0
32.997
32.994
32.993
32.994
32.999
33.011
33.031
33.063
33.109
33.17
33.249
33.347
33.464
33.601
33.755
33.926
34.111
34.306
34.51
34.72
34.93
35.139
35.342
35.537
35.719
35.888
36.04
36.175
36.291
36.388
36.466
36.525
36.566
36.591
36.599
36.593
36.575
36.546
36.509
36.465
36.416
36.363
36.309
36.253
36.198
36.144
36.092
36.043
35.997
35.954
35.915
35.879
35.847
35.819
35.794
35.772
35.753
35.738
35.724
35.712
35.701
35.69
35.679
35.669
35.658
35.648
35.638
35.628
35.62
35.612
35.607
35.602
35.599
35.595
35.592
35.588
35.585
35.581
35.579
35.579
35.582
35.589
35.601
35.617
35.639
35.666
35.7
35.738
35.781
35.826
35.874
35.924
35.974
36.024
36.075
36.125
36.175
36.224
36.27
36.312
36.35
36.382
36.406
36.423
36.434
36.438
36.437
36.432
36.421
36.408
36.39
36.37
36.347
36.322
36.294
36.264
36.233
36.201
36.17
36.141
36.114
36.091
36.072
36.058
36.047
36.041
36.038
36.039
36.043
36.05
36.06
36.072
36.082
36.091
36.095
36.098
36.105
36.116
36.132
36.15
36.167
36.18
36.185
36.18
36.163
36.133
36.091
36.037
35.973
35.902
35.826
35.747
35.667
35.588
35.511
35.436
35.365
35.298
35.238
35.185
35.14
35.102
35.071
35.045
35.024
35.007
34.992
34.978
34.966
34.956
34.947
34.938
34.927
34.915
34.9
34.882
34.861
34.835
34.807
34.775
34.741
34.705
34.666
34.624
34.58
34.532
34.482
34.431
34.38
34.331
34.284
34.24
34.199
34.163
34.132
34.104
34.081
34.063
34.051
34.045
34.043
34.046
34.053
34.063
34.076
34.092
34.109
34.127
34.146
34.165
34.182
34.197
34.208
34.217
34.222
34.224
34.223
34.218
34.211
34.203
34.194
34.187
34.182
34.181
34.188
34.203
34.231
34.273
34.332
34.41
34.508
34.629
34.771
34.932
35.111
35.305
35.508
35.718
35.93
36.14
36.344
36.538
36.718
36.881
37.025
37.149
37.251
37.33
37.387
37.423
37.439
37.437
37.418
37.383
37.336
37.277
37.21
37.137
37.059
36.978
36.895
36.811
36.727
36.641
36.556
36.47
36.385
36.301
36.218
36.137
36.058
35.982
35.907
35.835
35.765
35.698
35.633
35.57
35.51
35.452
35.396
35.341
35.286
35.229
35.171
35.11
35.045
34.976
34.902
34.826
34.747
34.667
34.587
34.507
34.428
34.35
34.274
34.2
34.13
34.067
34.01
33.96
33.917
33.88
33.851
33.828
33.81
33.797
33.788
33.784
33.784
33.787
33.792
33.799
33.807
33.816
33.825
33.836
33.847
33.859
33.87
33.881
33.89
33.898
33.904
33.908
33.91
33.912
33.913
33.913
33.912
33.91
33.906
33.901
33.894
33.885
33.874
33.859
33.841
33.82
33.796
33.769
33.739
33.708
33.676
33.644
33.612
33.582
33.553
33.526
33.501
33.478
33.457
33.438
33.423
33.41
33.4
33.392
33.385
33.376
33.366
33.353
33.338
33.321
33.303
33.284
33.267
33.25
33.234
33.219
33.203
33.189
33.176
33.165
33.157
33.152
33.151
33.154
33.159
33.168
33.18
33.195
33.213
33.233
33.254
33.274
33.294
33.311
33.327
33.341
33.353
33.363
33.371
33.376
33.379
33.38
33.381
33.381
33.383
33.385
33.39
33.397
33.407
33.419
33.432
33.445
33.459
33.47
33.48
33.487
33.492
33.494
33.493
33.49
33.483
33.475
33.464
33.45
33.433
33.414
33.393
33.371
33.348
33.325
33.3
33.276
33.253
33.23
33.208
33.187
33.167
33.147
33.128
33.109
33.091
33.073
33.056
33.038
33.02
33.001
32.983
32.964
32.945
32.926
32.907
32.889
32.871
32.855
32.84
32.83
32.824
32.826
32.839
32.865
32.907
32.966
33.044
33.142
33.26
33.398
33.554
33.728
33.916
34.115
34.323
34.535
34.746
34.952
35.148
35.33
35.495
35.642
35.77
35.877
35.964
36.032
36.082
36.113
36.128
36.128
36.115
36.089
36.054
36.01
35.96
35.907
35.851
35.795
35.739
35.684
35.63
35.577
35.526
35.478
35.431
35.386
35.345
35.308
35.274
35.245
35.219
35.197
35.178
35.161
35.146
35.133
35.12
35.109
35.097
35.084
35.071
35.057
35.042
35.026
35.008
34.989
34.97
34.95
34.931
34.913
34.895
34.879
34.863
34.848
34.834
34.822
34.811
34.802
34.796
34.794
34.796
34.8
34.808
34.817
34.829
34.846
34.868
34.896
34.927
34.96
34.993
35.025
35.054
35.08
35.101
35.117
35.129
35.137
35.142
35.143
35.141
35.137
35.131
35.123
35.113
35.101
35.089
35.075
35.062
35.049
35.036
35.024
35.011
34.996
34.98
34.961
34.94
34.916
34.889
34.861
34.83
34.797
34.763
34.728
34.694
34.66
34.628
34.597
34.569
34.543
34.52
34.499
34.48
34.462
34.444
34.426
34.409
34.393
34.377
34.363
34.35
34.337
34.324
34.312
34.3
34.289
34.279
34.271
34.264
34.259
34.255
34.255
34.257
34.261
34.265
34.27
34.273
34.274
34.274
34.271
34.267
34.26
34.253
34.245
34.237
34.227
34.217
34.206
34.195
34.184
34.174
34.165
34.158
34.153
34.15
34.149
34.15
34.152
34.155
34.158
34.161
34.162
34.163
34.161
34.158
34.152
34.143
34.132
34.119
34.104
34.086
34.067
34.046
34.026
34.005
33.984
33.964
33.943
33.922
33.9
33.879
33.858
33.838
33.819
33.801
33.782
33.764
33.746
33.728
33.709
33.691
33.672
33.655
33.64
33.628
33.619
33.614
33.614
33.619
33.63
33.651
33.683
33.732
33.798
33.886
33.996
34.13
34.287
34.463
34.657
34.865
35.084
35.309
35.536
35.762
35.98
36.188
36.38
36.554
36.707
36.838
36.946
37.031
37.094
37.135
37.157
37.16
37.146
37.118
37.078
37.029
36.972
36.91
36.845
36.78
36.716
36.654
36.594
36.537
36.485
36.435
36.388
36.344
36.302
36.262
36.225
36.191
36.161
36.133
36.107
36.084
36.062
36.041
36.021
36.001
35.983
35.964
35.946
35.928
35.908
35.886
35.862
35.835
35.804
35.769
35.732
35.691
35.649
35.606
35.561
35.516
35.471
35.427
35.386
35.349
35.315
35.287
35.265
35.249
35.238
35.233
35.233
35.237
35.243
35.252
35.262
35.271
35.28
35.288
35.295
35.3
35.305
35.308
35.309
35.309
35.307
35.304
35.301
35.298
35.294
35.289
35.283
35.274
35.261
35.245
35.225
35.203
35.178
35.153
35.128
35.103
35.078
35.052
35.026
34.999
34.972
34.944
34.915
34.887
34.858
34.828
34.799
34.77
34.741
34.714
34.69
34.667
34.646
34.628
34.611
34.596
34.581
34.566
34.551
34.534
34.516
34.498
34.478
34.458
34.437
34.416
34.395
34.373
34.351
34.328
34.306
34.283
34.261
34.241
34.223
34.205
34.19
34.175
34.16
34.147
34.135
34.125
34.116
34.11
34.105
34.102
34.102
34.103
34.105
34.107
34.11
34.112
34.113
34.113
34.112
34.108
34.103
34.096
34.088
34.079
34.068
34.055
34.04
34.024
34.006
33.987
33.969
33.95
33.931
33.912
33.894
33.877
33.861
33.847
33.835
33.825
33.816
33.81
33.805
33.801
33.798
33.796
33.793
33.791
33.788
33.785
33.782
33.777
33.77
33.76
33.748
33.732
33.712
33.687
33.66
33.629
33.596
33.562
33.527
33.493
33.458
33.423
33.387
33.351
33.315
33.279
33.242
33.205
33.168
33.131
33.095
33.06
33.026
32.994
32.964
32.935
32.91
32.889
32.874
32.865
32.866
32.877
32.902
32.942
33.0
33.079
33.181
33.308
33.458
33.631
33.824
34.034
34.257
34.49
34.729
34.968
35.204
35.433
35.651
35.853
36.036
36.197
36.333
36.444
36.529
36.591
36.63
36.649
36.649
36.634
36.604
36.562
36.51
36.457
36.41
36.371
36.339
36.314
36.292
36.271
36.248
36.221
36.187
36.146
36.096
36.039
35.977
35.911
35.843
35.776
35.712
35.652
35.598
35.549
35.506
35.469
35.438
35.414
35.397
35.384
35.375
35.37
35.364
35.358
35.349
35.337
35.322
35.304
35.282
35.257
35.228
35.198
35.167
35.135
35.103
35.073
35.044
35.018
34.996
34.976
34.96
34.948
34.939
34.933
34.931
34.933
34.938
34.947
34.96
34.976
34.996
35.021
35.048
35.078
35.111
35.144
35.178
35.212
35.248
35.285
35.324
35.366
35.409
35.452
35.495
35.537
35.577
35.615
35.649
35.681
35.709
35.734
35.756
35.774
35.789
35.8
35.806
35.809
35.807
35.801
35.789
35.772
35.749
35.72
35.686
35.647
35.601
35.551
35.495
35.436
35.374
35.309
35.244
35.18
35.117
35.055
34.996
34.938
34.884
34.833
34.786
34.742
34.702
34.666
34.635
34.607
34.582
34.559
34.538
34.518
34.498
34.479
34.461
34.444
34.427
34.412
34.399
34.389
34.382
34.377
34.376
34.378
34.383
34.391
34.403
34.419
34.438
34.46
34.483
34.508
34.532
34.555
34.576
34.594
34.608
34.618
34.623
34.624
34.621
34.615
34.606
34.595
34.581
34.566
34.548
34.53
34.511
34.491
34.472
34.454
34.437
34.42
34.403
34.385
34.366
34.346
34.324
34.301
34.277
34.253
34.227
34.2
34.171
34.142
34.111
34.081
34.051
34.022
33.995
33.97
33.948
33.927
33.906
33.886
33.866
33.845
33.825
33.804
33.784
33.765
33.746
33.728
33.711
33.695
33.681
33.671
33.665
33.665
33.671
33.684
33.704
33.734
33.773
33.826
33.894
33.979
34.082
34.205
34.345
34.503
34.674
34.858
35.05
35.248
35.449
35.649
35.846
36.035
36.214
36.38
36.53
36.663
36.776
36.87
36.945
37.0
37.039
37.061
37.07
37.065
37.048
37.02
36.981
36.935
36.881
36.823
36.762
36.699
36.636
36.573
36.512
36.453
36.395
36.337
36.28
36.224
36.169
36.116
36.066
36.018
35.972
35.928
35.885
35.844
35.804
35.765
35.726
35.688
35.65
35.613
35.577
35.54
35.505
35.471
35.438
35.406
35.376
35.346
35.318
35.29
35.262
35.235
35.209
35.186
35.166
35.15
35.137
35.127
35.123
35.123
35.128
35.139
35.154
35.174
35.196
35.22
35.244
35.268
35.291
35.311
35.329
35.343
35.355
35.363
35.368
35.37
35.369
35.365
35.359
35.351
35.341
35.328
35.313
35.296
35.277
35.256
35.232
35.206
35.178
35.147
35.114
35.079
35.044
35.008
34.973
34.937
34.901
34.865
34.829
34.795
34.761
34.73
34.7
34.673
34.648
34.625
34.602
34.581
34.559
34.537
34.514
34.491
34.468
34.445
34.422
34.4
34.379
34.359
34.34
34.322
34.303
34.286
34.27
34.255
34.242
34.23
34.219
34.208
34.197
34.185
34.174
34.162
34.152
34.142
34.133
34.126
34.122
34.121
34.123
34.129
34.138
34.149
34.162
34.174
34.186
34.197
34.206
34.212
34.216
34.216
34.215
34.211
34.205
34.199
34.193
34.188
34.186
34.186
34.189
34.195
34.203
34.212
34.221
34.231
34.242
34.254
34.266
34.277
34.288
34.298
34.305
34.309
34.31
34.309
34.304
34.298
34.291
34.282
34.273
34.263
34.252
34.241
34.229
34.218
34.207
34.198
34.19
34.183
34.176
34.169
34.163
34.158
34.155
34.155
34.159
34.169
34.186
34.211
34.245
34.288
34.343
34.411
34.495
34.597
34.72
34.865
35.03
35.213
35.413
35.623
35.841
36.062
36.283
36.499
36.708
36.905
37.087
37.25
37.391
37.509
37.602
37.669
37.712
37.731
37.73
37.709
37.673
37.626
37.569
37.505
37.437
37.367
37.296
37.226
37.158
37.092
37.029
36.972
36.921
36.876
36.838
36.806
36.779
36.756
36.737
36.721
36.708
36.698
36.692
36.688
36.686
36.686
36.688
36.69
36.692
36.694
36.695
36.695
36.694
36.691
36.688
36.683
36.677
36.668
36.658
36.646
36.632
36.616
36.598
36.579
36.559
36.541
36.524
36.511
36.502
36.496
36.494
36.495
36.5
36.507
36.516
36.526
36.535
36.54
36.541
36.535
36.52
36.495
36.458
36.408
36.344
36.266
36.175
36.071
35.956
35.834
35.708
35.58
35.455
35.335
35.223
35.119
