Trial 3:3back
38.071
37.926
37.782
37.638
37.497
37.357
37.221
37.087
36.955
36.825
36.696
36.569
36.443
36.32
36.199
36.081
35.966
35.854
35.745
35.64
35.538
35.442
35.353
35.271
35.198
35.134
35.08
35.038
35.006
34.987
34.979
34.984
35.002
35.033
35.074
35.126
35.185
35.25
35.32
35.391
35.464
35.536
35.607
35.675
35.74
35.8
35.856
35.907
35.952
35.99
36.02
36.04
36.05
36.05
36.038
36.017
35.985
35.943
35.892
35.832
35.763
35.687
35.605
35.518
35.427
35.331
35.232
35.131
35.029
34.927
34.826
34.726
34.628
34.53
34.434
34.339
34.246
34.156
34.069
33.986
33.908
33.835
33.767
33.704
33.645
33.59
33.54
33.493
33.449
33.407
33.367
33.328
33.291
33.254
33.22
33.188
33.158
33.128
33.099
33.071
33.043
33.016
32.99
32.964
32.941
32.92
32.901
32.885
32.872
32.861
32.852
32.845
32.837
32.83
32.822
32.813
32.804
32.793
32.78
32.766
32.75
32.733
32.715
32.697
32.679
32.662
32.645
32.628
32.612
32.596
32.581
32.566
32.553
32.542
32.533
32.527
32.524
32.526
32.534
32.551
32.58
32.625
32.688
32.775
32.888
33.033
33.213
33.43
33.687
33.982
34.316
34.685
35.083
35.506
35.945
36.393
36.839
37.276
37.695
38.09
38.456
38.786
39.078
39.33
39.541
39.712
39.843
39.937
39.996
40.024
40.024
39.998
39.949
39.881
39.795
39.696
39.584
39.463
39.333
39.195
39.052
38.903
38.753
38.6
38.447
38.296
38.146
37.999
37.855
37.715
37.579
37.448
37.322
37.206
37.104
37.015
36.934
36.856
36.778
36.695
36.605
36.504
36.393
36.272
36.144
36.009
35.872
35.736
35.605
35.482
35.371
35.273
35.192
35.127
35.08
35.05
35.038
35.041
35.059
35.092
35.136
35.192
35.256
35.327
35.403
35.482
35.56
35.637
35.711
35.781
35.845
35.904
35.958
36.006
36.047
36.081
36.106
36.122
36.129
36.124
36.11
36.086
36.052
36.01
35.96
35.902
35.837
35.766
35.689
35.608
35.524
35.438
35.351
35.263
35.174
35.085
34.997
34.908
34.82
34.732
34.642
34.552
34.462
34.372
34.284
34.198
34.115
34.037
33.963
33.893
33.827
33.766
33.708
33.653
33.601
33.551
33.504
33.459
33.416
33.374
33.332
33.292
33.256
33.228
33.211
33.204
33.203
33.206
33.209
33.211
33.208
33.201
33.186
33.164
33.138
33.107
33.074
33.04
33.006
32.971
32.938
32.907
32.878
32.851
32.828
32.807
32.789
32.773
32.758
32.745
32.734
32.724
32.713
32.703
32.69
32.675
32.658
32.639
32.619
32.6
32.581
32.563
32.548
32.537
32.531
32.532
32.542
32.562
32.596
32.647
32.716
32.809
32.928
33.078
33.262
33.483
33.742
34.039
34.372
34.738
35.131
35.546
35.974
36.409
36.842
37.266
37.674
38.06
38.419
38.745
39.035
39.286
39.497
39.667
39.798
39.891
39.948
39.973
39.969
39.939
39.887
39.815
39.727
39.625
39.513
39.391
39.262
39.127
38.989
38.847
38.704
38.561
38.417
38.273
38.129
37.986
37.845
37.706
37.569
37.434
37.302
37.173
37.045
36.92
36.798
36.677
36.557
36.439
36.322
36.209
36.098
35.99
35.886
35.786
35.693
35.606
35.527
35.456
35.393
35.338
35.292
35.256
35.231
35.216
35.213
35.221
35.24
35.268
35.307
35.354
35.41
35.473
35.541
35.612
35.685
35.758
35.828
35.895
35.957
36.014
36.064
36.107
36.142
36.169
36.186
36.195
36.195
36.188
36.172
36.147
36.114
36.071
36.02
35.962
35.897
35.825
35.748
35.665
35.576
35.483
35.385
35.285
35.184
35.083
34.981
34.881
34.781
34.682
34.586
34.493
34.404
34.319
34.239
34.163
34.089
34.017
33.947
33.879
33.814
33.752
33.695
33.641
33.591
33.545
33.503
33.463
33.426
33.392
33.361
33.331
33.303
33.275
33.249
33.224
33.199
33.176
33.155
33.135
33.117
33.101
33.085
33.069
33.054
33.039
33.024
33.011
32.997
32.984
32.972
32.961
32.95
32.939
32.927
32.916
32.903
32.89
32.876
32.861
32.845
32.828
32.809
32.79
32.769
32.748
32.728
32.707
32.688
32.668
32.649
32.631
32.617
32.606
32.602
32.605
32.619
32.645
32.686
32.743
32.822
32.924
33.055
33.216
33.41
33.639
33.906
34.208
34.543
34.908
35.298
35.708
36.128
36.55
36.967
37.371
37.756
38.116
38.447
38.746
39.009
39.236
39.426
39.58
39.698
39.782
39.833
39.853
39.845
39.811
39.755
39.68
39.589
39.484
39.369
39.245
39.115
38.98
38.84
38.696
38.548
38.398
38.246
38.094
37.942
37.791
37.642
37.496
37.353
37.213
37.076
36.943
36.813
36.686
36.562
36.44
36.321
36.204
36.089
35.976
35.866
35.759
35.656
35.558
35.466
35.381
35.303
35.235
35.177
35.131
35.098
35.077
35.068
35.072
35.086
35.111
35.145
35.187
35.237
35.294
35.359
35.429
35.503
35.58
35.658
35.734
35.808
35.879
35.945
36.005
36.055
36.096
36.126
36.146
36.155
36.153
36.14
36.116
36.082
36.039
35.988
35.931
35.869
35.805
35.737
35.666
35.591
35.514
35.433
35.351
35.266
35.181
35.096
35.011
34.926
34.84
34.754
34.668
34.581
34.495
34.409
34.324
34.239
34.155
34.073
33.994
33.919
33.846
33.776
33.708
33.642
33.58
33.522
33.468
33.418
33.373
33.333
33.297
33.266
33.238
33.213
33.191
33.17
33.151
33.133
33.116
33.101
33.087
33.074
33.062
33.049
33.037
33.024
33.011
32.997
32.984
32.97
32.957
32.946
32.935
32.925
32.916
32.908
32.9
32.893
32.886
32.879
32.871
32.863
32.853
32.842
32.83
32.816
32.803
32.789
32.775
32.761
32.746
32.732
32.72
32.71
32.705
32.707
32.717
32.741
32.781
32.842
32.926
33.039
33.182
33.359
33.571
33.821
34.107
34.429
34.783
35.165
35.569
35.987
36.412
36.836
37.252
37.652
38.031
38.382
38.699
38.98
39.222
39.423
39.584
39.705
39.787
39.833
39.846
39.829
39.787
39.723
39.641
39.544
39.435
39.317
39.192
39.061
38.927
38.791
38.655
38.518
38.383
38.248
38.114
37.979
37.845
37.71
37.574
37.438
37.301
37.164
37.027
36.891
36.755
36.619
36.486
36.354
36.225
36.099
35.977
35.86
35.747
35.639
35.535
35.438
35.348
35.268
35.197
35.137
35.087
35.05
35.025
35.013
35.014
35.028
35.055
35.094
35.143
35.201
35.267
35.341
35.42
35.504
35.589
35.675
35.759
35.839
35.914
35.983
36.043
36.094
36.134
36.164
36.185
36.196
36.197
36.189
36.172
36.145
36.108
36.061
36.005
35.94
35.868
35.79
35.708
35.623
35.535
35.446
35.355
35.264
35.174
35.084
34.996
34.91
34.824
34.738
34.654
34.571
34.49
34.41
34.332
34.257
34.184
34.113
34.045
33.978
33.913
33.851
33.792
33.736
33.682
33.632
33.586
33.543
33.502
33.464
33.429
33.395
33.364
33.334
33.307
33.282
33.257
33.234
33.211
33.19
33.17
33.152
33.136
33.121
33.107
33.093
33.079
33.065
33.051
33.036
33.022
33.008
32.994
32.982
32.971
32.961
32.952
32.943
32.936
32.928
32.921
32.913
32.906
32.897
32.887
32.875
32.862
32.848
32.833
32.817
32.801
32.785
32.771
32.761
32.757
32.761
32.776
32.804
32.847
32.906
32.985
33.087
33.217
33.377
33.57
33.8
34.066
34.368
34.703
35.067
35.455
35.861
36.275
36.689
37.097
37.492
37.866
38.214
38.532
38.817
39.066
39.278
39.453
39.591
39.692
39.754
39.781
39.773
39.737
39.677
39.598
39.505
39.4
39.286
39.167
39.044
38.917
38.788
38.657
38.525
38.392
38.259
38.126
37.994
37.861
37.729
37.596
37.465
37.333
37.202
37.07
36.938
36.807
36.676
36.546
36.416
36.287
36.159
36.031
35.906
35.785
35.668
35.556
35.452
35.355
35.268
35.192
35.128
35.077
35.037
35.011
34.997
34.996
35.009
35.033
35.071
35.119
35.179
35.247
35.324
35.408
35.495
35.585
35.675
35.764
35.849
35.93
36.004
36.069
36.126
36.173
36.209
36.233
36.246
36.247
36.237
36.217
36.186
36.146
36.097
36.04
35.976
35.905
35.829
35.748
35.664
35.578
35.49
35.402
35.314
35.225
35.137
35.049
34.961
34.873
34.786
34.697
34.609
34.521
34.433
34.347
34.263
34.182
34.104
34.029
33.958
33.892
33.829
33.77
33.715
33.662
33.613
33.565
33.52
33.477
33.438
33.402
33.369
33.34
33.315
33.293
33.274
33.259
33.246
33.237
33.228
33.221
33.214
33.205
33.196
33.186
33.175
33.16
33.143
33.124
33.103
33.08
33.056
33.031
33.004
32.979
32.954
32.931
32.91
32.891
32.873
32.857
32.841
32.825
32.81
32.794
32.779
32.763
32.748
32.733
32.718
32.703
32.69
32.678
32.671
32.67
32.678
32.698
32.731
32.781
32.85
32.94
33.056
33.202
33.38
33.595
33.847
34.135
34.459
34.813
35.194
35.596
36.013
36.436
36.856
37.267
37.659
38.026
38.364
38.668
38.935
39.162
39.347
39.49
39.593
39.658
39.689
39.688
39.657
39.6
39.521
39.422
39.309
39.183
39.048
38.905
38.756
38.603
38.449
38.294
38.14
37.987
37.835
37.684
37.536
37.389
37.245
37.104
36.965
36.828
36.694
36.561
36.429
36.296
36.162
36.027
35.891
35.756
35.622
35.491
35.364
35.243
35.13
35.027
34.935
34.854
34.786
34.731
34.689
34.661
34.647
34.646
34.657
34.68
34.715
34.762
34.819
34.886
34.963
35.047
35.139
35.235
35.332
35.428
35.522
35.613
35.699
35.781
35.857
35.926
35.988
36.041
36.084
36.117
36.139
36.148
36.146
36.134
36.111
36.078
36.036
35.984
35.921
35.848
35.765
35.675
35.58
35.48
35.378
35.273
35.167
35.062
34.959
34.86
34.766
34.678
34.594
34.515
34.438
34.363
34.29
34.218
34.148
34.08
34.014
33.95
33.887
33.825
33.766
33.71
33.657
33.608
33.563
33.522
33.485
33.451
33.42
33.392
33.367
33.344
33.324
33.307
33.292
33.279
33.267
33.257
33.246
33.236
33.226
33.216
33.206
33.196
33.187
33.176
33.165
33.151
33.136
33.119
33.101
33.084
33.067
33.051
33.035
33.02
33.005
32.991
32.977
32.965
32.953
32.943
32.934
32.925
32.917
32.91
32.902
32.895
32.889
32.885
32.882
32.883
32.889
32.901
32.924
32.96
33.013
33.085
33.182
33.306
33.461
33.648
33.869
34.125
34.414
34.735
35.083
35.454
35.841
36.236
36.634
37.026
37.406
37.766
38.102
38.406
38.674
38.904
39.094
39.245
39.357
39.433
39.475
39.487
39.472
39.434
39.376
39.3
39.209
39.105
38.99
38.867
38.737
38.602
38.464
38.323
38.18
38.036
37.891
37.747
37.603
37.459
37.317
37.175
37.035
36.896
36.759
36.622
36.486
36.351
36.217
36.085
35.954
35.826
35.7
35.578
35.461
35.349
35.246
35.151
35.066
34.99
34.925
34.87
34.827
34.794
34.773
34.763
34.765
34.779
34.804
34.84
34.887
34.945
35.015
35.095
35.183
35.278
35.378
35.479
35.581
35.682
35.781
35.874
35.96
36.038
36.107
36.165
36.213
36.249
36.274
36.288
36.291
36.283
36.263
36.233
36.192
36.141
36.081
36.013
35.939
35.859
35.775
35.688
35.6
35.512
35.426
35.34
35.254
35.169
35.083
34.998
34.914
34.83
34.748
34.667
34.589
34.512
34.438
34.367
34.299
34.234
34.171
34.113
34.057
34.003
33.953
33.905
33.86
33.818
33.779
33.742
33.707
33.674
33.643
33.613
33.584
33.557
33.531
33.505
33.481
33.459
33.439
33.421
33.403
33.387
33.372
33.356
33.341
33.328
33.315
33.303
33.292
33.282
33.271
33.259
33.248
33.235
33.222
33.208
33.193
33.177
33.161
33.145
33.131
33.12
33.115
33.117
33.127
33.147
33.178
33.221
33.279
33.355
33.452
33.574
33.723
33.902
34.113
34.357
34.634
34.942
35.278
35.639
36.019
36.411
36.809
37.206
37.594
37.966
38.316
38.639
38.931
39.188
39.409
39.593
39.74
39.846
39.907
39.924
39.903
39.85
39.773
39.678
39.573
39.463
39.35
39.238
39.13
39.025
38.925
38.827
38.732
38.638
38.543
38.446
38.347
38.244
38.137
38.025
37.908
37.786
37.66
37.529
37.394
37.256
37.117
36.977
36.836
36.695
36.554
36.413
36.276
36.144
36.018
35.902
35.795
35.698
35.614
35.543
35.485
35.442
35.414
35.4
35.399
35.41
35.432
35.463
35.503
35.55
35.604
35.663
35.726
35.792
35.859
35.928
35.997
36.066
36.133
36.196
36.256
36.309
36.357
36.398
36.431
36.456
36.474
36.482
36.48
36.469
36.447
36.416
36.376
36.327
36.271
36.208
36.137
36.059
35.975
35.886
35.793
35.697
35.599
35.501
35.401
35.302
35.203
35.106
35.012
34.92
34.832
34.746
34.664
34.585
34.508
34.435
34.365
34.299
34.237
34.179
34.124
34.072
34.023
33.975
33.931
33.888
33.848
33.811
33.776
33.743
33.712
33.683
33.654
33.627
33.6
33.574
33.548
33.524
33.5
33.478
33.457
33.436
33.415
33.393
33.373
33.353
33.334
33.316
33.298
33.28
33.262
33.243
33.224
33.204
33.184
33.163
33.141
33.119
33.097
33.074
33.052
33.032
33.015
33.003
32.998
33.002
33.016
33.042
33.083
33.142
33.226
33.337
33.48
33.656
33.868
34.116
34.399
34.716
35.063
35.435
35.825
36.229
36.637
37.045
37.446
37.832
38.198
38.538
38.85
39.128
39.373
39.583
39.759
39.901
40.011
40.089
40.139
40.161
40.16
40.137
40.095
40.036
39.962
39.874
39.775
39.666
39.55
39.428
39.302
39.173
39.043
38.913
38.782
38.652
38.522
38.394
38.267
38.142
38.018
37.897
37.778
37.661
37.547
37.435
37.323
37.212
37.1
36.988
36.875
36.762
36.65
36.542
36.437
36.337
36.244
36.157
36.079
36.009
35.947
35.895
35.852
35.819
35.796
35.782
35.779
35.785
35.801
35.827
35.86
35.901
35.948
36.0
36.056
36.115
36.176
36.237
36.297
36.354
36.407
36.454
36.494
36.529
36.556
36.575
36.585
36.585
36.574
36.554
36.523
36.483
36.435
36.377
36.312
36.239
36.16
36.076
35.989
35.899
35.809
35.716
35.622
35.526
35.429
35.331
35.235
35.141
35.05
34.961
34.875
34.792
34.712
34.634
34.558
34.485
34.415
34.346
34.28
34.216
34.153
34.093
34.034
33.978
33.925
33.873
33.824
33.777
33.732
33.689
33.648
33.611
33.576
33.546
33.519
33.495
33.474
33.456
33.44
33.425
33.412
33.4
33.387
33.375
33.363
33.352
33.348
33.35
33.359
33.371
33.383
33.394
33.4
33.399
33.39
33.371
33.343
33.307
33.264
33.216
33.165
33.113
33.061
33.01
32.963
32.92
32.884
32.856
32.841
32.839
32.855
32.891
32.949
33.033
33.146
33.291
33.471
33.688
33.941
34.231
34.554
34.907
35.284
35.682
36.093
36.51
36.926
37.333
37.726
38.099
38.446
38.763
39.047
39.296
39.508
39.684
39.824
39.93
40.005
40.05
40.068
40.062
40.034
39.988
39.926
39.852
39.767
39.672
39.569
39.461
39.348
39.231
39.111
38.987
38.861
38.731
38.599
38.464
38.328
38.192
38.057
37.924
37.793
37.664
37.538
37.415
37.295
37.179
37.067
36.957
36.848
36.742
36.637
36.534
36.435
36.339
36.248
36.161
36.081
36.007
35.939
35.879
35.826
35.781
35.745
35.719
35.703
35.698
35.704
35.72
35.745
35.778
35.82
35.87
35.924
35.983
36.044
36.105
36.166
36.224
36.279
36.327
36.369
36.402
36.426
36.441
36.447
36.445
36.435
36.418
36.393
36.36
36.319
36.271
36.217
36.157
36.092
36.021
35.944
35.861
35.772
35.68
35.584
35.485
35.386
35.287
35.189
35.092
34.996
34.904
34.814
34.728
34.645
34.565
34.49
34.418
34.349
34.283
34.22
34.16
34.103
34.049
33.997
33.946
33.896
33.848
33.801
33.755
33.711
33.669
33.63
33.593
33.559
33.526
33.495
33.465
33.437
33.411
33.386
33.363
33.341
33.32
33.299
33.278
33.258
33.237
33.217
33.198
33.179
33.161
33.143
33.127
33.11
33.093
33.076
33.059
33.043
33.026
33.01
32.994
32.978
32.961
32.944
32.927
32.909
32.892
32.874
32.857
32.841
32.826
32.814
32.807
32.807
32.817
32.842
32.883
32.946
33.033
33.148
33.296
33.479
33.7
33.958
34.253
34.581
34.937
35.318
35.715
36.123
36.534
36.941
37.335
37.71
38.062
38.386
38.678
38.938
39.164
39.355
39.511
39.634
39.727
39.79
39.827
39.839
39.83
39.799
39.75
39.685
39.607
39.517
39.418
39.311
39.196
39.076
38.95
38.819
38.685
38.548
38.409
38.268
38.128
37.989
37.852
37.717
37.587
37.46
37.336
37.216
37.098
36.982
36.868
36.755
36.645
36.536
36.429
36.324
36.221
36.12
36.024
35.932
35.846
35.767
35.695
35.632
35.578
35.534
35.5
35.476
35.463
35.461
35.469
35.488
35.517
35.554
35.597
35.647
35.702
35.762
35.826
35.892
35.957
36.021
36.081
36.137
36.187
36.231
36.267
36.294
36.31
36.316
36.31
36.294
36.268
36.231
36.186
36.132
36.07
36.001
35.927
35.849
35.77
35.688
35.605
35.52
35.433
35.346
35.258
35.171
35.084
34.999
34.915
34.831
34.747
34.664
34.58
34.498
34.416
34.336
34.258
34.183
34.11
34.04
33.974
33.911
33.852
33.797
33.744
33.695
33.649
33.606
33.564
33.524
33.486
33.45
33.417
33.385
33.356
33.328
33.301
33.276
33.252
33.231
33.211
33.192
33.175
33.159
33.142
33.127
33.111
33.096
33.08
33.065
33.051
33.038
33.025
33.014
33.002
32.99
32.977
32.963
32.95
32.936
32.922
32.907
32.891
32.874
32.854
32.833
32.809
32.785
32.761
32.737
32.714
32.692
32.672
32.655
32.641
32.634
32.636
32.649
32.677
32.723
32.791
32.882
33.001
33.151
33.336
33.557
33.816
34.112
34.443
34.805
35.192
35.599
36.019
36.444
36.866
37.278
37.672
38.042
38.383
38.691
38.962
39.196
39.392
39.549
39.67
39.756
39.81
39.834
39.831
39.804
39.756
39.689
39.604
39.504
39.391
39.268
39.137
39.0
38.859
38.717
38.573
38.429
38.287
38.148
38.01
37.875
37.742
37.613
37.487
37.362
37.24
37.119
36.999
36.879
36.76
36.641
36.524
36.408
36.293
36.182
36.074
35.969
35.867
35.77
35.677
35.591
35.511
35.44
35.379
35.327
35.287
35.258
35.241
35.237
35.246
35.266
35.298
35.34
35.391
35.45
35.516
35.588
35.663
35.741
35.819
35.896
35.969
36.037
36.099
36.153
36.198
36.232
36.255
36.266
36.266
36.258
36.241
36.216
36.183
36.141
36.092
36.033
35.966
35.891
35.81
35.722
35.63
35.534
35.434
35.333
35.23
35.127
35.026
34.926
34.828
34.733
34.638
34.546
34.455
34.367
34.282
34.2
34.123
34.049
33.979
33.913
33.849
33.789
33.732
33.678
33.628
33.58
33.535
33.492
33.451
33.411
33.373
33.335
33.299
33.265
33.233
33.204
33.177
33.153
33.133
33.115
33.099
33.086
33.075
33.066
33.058
33.052
33.046
33.04
33.035
33.029
33.022
33.015
33.008
33.0
32.991
32.981
32.968
32.953
32.935
32.915
32.893
32.871
32.849
32.827
32.805
32.783
32.761
32.738
32.715
32.691
32.668
32.645
32.623
32.604
32.587
32.573
32.563
32.559
32.561
32.569
32.586
32.614
32.653
32.71
32.787
32.89
33.021
33.185
33.386
33.624
33.9
34.212
34.558
34.934
35.333
35.749
36.174
36.602
37.026
37.438
37.83
38.196
38.53
38.828
39.087
39.305
39.482
39.619
39.716
39.777
39.804
39.8
39.77
39.716
39.643
39.553
39.45
39.337
39.217
39.09
38.958
38.822
38.683
38.543
38.402
38.261
38.121
37.98
37.841
37.703
37.567
37.433
37.301
37.171
37.044
36.918
36.793
36.669
36.545
36.421
36.299
36.177
36.058
35.94
35.824
35.712
35.605
35.505
35.413
35.33
35.258
35.197
35.146
35.106
35.077
35.06
35.054
35.059
35.075
35.1
35.135
35.18
35.232
35.293
35.36
35.433
35.509
35.587
35.665
35.74
35.812
35.879
35.94
35.994
36.038
36.072
36.096
36.109
36.111
36.102
36.083
36.053
36.013
35.963
35.903
35.834
35.757
35.675
35.587
35.496
35.403
35.309
35.214
35.119
35.025
34.932
34.841
34.751
34.662
34.574
34.488
34.405
34.324
34.245
34.168
34.094
34.021
33.951
33.882
33.814
33.748
33.683
33.621
33.562
33.506
33.453
33.404
33.36
33.321
33.286
33.255
33.228
33.202
33.178
33.156
33.135
33.116
33.097
33.078
33.06
33.042
33.024
33.005
32.988
32.97
32.952
32.934
32.917
32.9
32.884
32.869
32.855
32.841
32.827
32.814
32.802
32.791
32.782
32.775
32.768
32.763
32.758
32.755
32.752
32.748
32.744
32.737
32.728
32.715
32.699
32.679
32.657
32.634
32.609
32.584
32.559
32.536
32.516
32.499
32.486
32.48
32.482
32.496
32.523
32.566
32.626
32.706
32.81
32.942
33.106
33.306
33.543
33.82
34.135
34.486
34.868
35.276
35.704
36.142
