Trial 3:3back
39.424
39.41
39.39
39.366
39.338
39.306
39.272
39.235
39.196
39.155
39.114
39.073
39.032
38.99
38.949
38.908
38.866
38.824
38.778
38.728
38.675
38.62
38.564
38.506
38.445
38.381
38.313
38.242
38.168
38.092
38.013
37.934
37.853
37.771
37.689
37.609
37.531
37.455
37.381
37.31
37.242
37.178
37.118
37.063
37.013
36.967
36.926
36.889
36.856
36.827
36.8
36.775
36.751
36.727
36.702
36.675
36.648
36.618
36.588
36.557
36.525
36.492
36.457
36.421
36.384
36.346
36.305
36.262
36.217
36.171
36.122
36.07
36.017
35.962
35.906
35.849
35.791
35.732
35.672
35.612
35.552
35.492
35.432
35.372
35.313
35.254
35.195
35.137
35.08
35.024
34.97
34.918
34.868
34.822
34.777
34.735
34.697
34.661
34.629
34.601
34.576
34.553
34.532
34.511
34.492
34.472
34.452
34.432
34.41
34.387
34.363
34.339
34.314
34.289
34.263
34.237
34.21
34.183
34.156
34.129
34.102
34.074
34.047
34.019
33.991
33.964
33.936
33.909
33.883
33.858
33.833
33.81
33.787
33.765
33.742
33.719
33.695
33.672
33.648
33.625
33.601
33.579
33.557
33.537
33.519
33.502
33.486
33.472
33.459
33.446
33.434
33.421
33.407
33.39
33.37
33.348
33.322
33.293
33.262
33.229
33.194
33.158
33.122
33.085
33.05
33.017
32.986
32.956
32.929
32.904
32.881
32.861
32.843
32.826
32.81
32.796
32.782
32.769
32.759
32.75
32.746
32.747
32.756
32.775
32.808
32.858
32.928
33.021
33.138
33.281
33.452
33.649
33.874
34.125
34.398
34.691
35.0
35.319
35.644
35.968
36.288
36.6
36.898
37.181
37.446
37.689
37.911
38.11
38.287
38.442
38.578
38.695
38.794
38.875
38.939
38.988
39.023
39.046
39.057
39.059
39.052
39.038
39.017
38.99
38.958
38.921
38.881
38.841
38.8
38.76
38.72
38.68
38.641
38.603
38.565
38.528
38.491
38.455
38.418
38.38
38.34
38.297
38.249
38.197
38.14
38.078
38.011
37.939
37.86
37.777
37.691
37.602
37.513
37.423
37.335
37.249
37.166
37.086
37.009
36.935
36.866
36.802
36.743
36.69
36.643
36.602
36.566
36.535
36.508
36.484
36.462
36.441
36.422
36.409
36.403
36.403
36.406
36.409
36.41
36.405
36.392
36.371
36.341
36.302
36.255
36.199
36.136
36.068
35.996
35.924
35.85
35.777
35.705
35.634
35.567
35.503
35.442
35.383
35.327
35.272
35.219
35.168
35.118
35.07
35.023
34.976
34.93
34.884
34.84
34.797
34.754
34.713
34.672
34.633
34.594
34.555
34.518
34.481
34.445
34.409
34.374
34.341
34.309
34.276
34.243
34.211
34.179
34.149
34.12
34.092
34.065
34.04
34.016
33.994
33.974
33.956
33.939
33.922
33.905
33.886
33.864
33.841
33.816
33.791
33.765
33.739
33.714
33.69
33.667
33.646
33.624
33.602
33.58
33.557
33.535
33.512
33.49
33.468
33.448
33.43
33.414
33.4
33.387
33.375
33.363
33.35
33.337
33.323
33.308
33.292
33.275
33.256
33.237
33.218
33.2
33.182
33.165
33.147
33.128
33.108
33.087
33.065
33.042
33.018
32.994
32.97
32.946
32.923
32.901
32.88
32.859
32.839
32.819
32.799
32.779
32.76
32.741
32.723
32.706
32.689
32.674
32.66
32.648
32.641
32.641
32.65
32.673
32.712
32.769
32.847
32.948
33.075
33.229
33.409
33.614
33.843
34.095
34.367
34.655
34.955
35.262
35.574
35.885
36.191
36.488
36.772
37.04
37.29
37.52
37.729
37.917
38.082
38.224
38.346
38.448
38.531
38.596
38.644
38.678
38.699
38.707
38.704
38.692
38.671
38.644
38.613
38.578
38.541
38.501
38.459
38.416
38.371
38.326
38.28
38.234
38.188
38.142
38.097
38.052
38.008
37.965
37.921
37.876
37.831
37.783
37.73
37.672
37.608
37.539
37.464
37.384
37.3
37.213
37.124
37.037
36.952
36.871
36.794
36.723
36.657
36.598
36.544
36.496
36.452
36.413
36.377
36.345
36.315
36.287
36.261
36.235
36.211
36.188
36.166
36.144
36.122
36.1
36.078
36.056
36.033
36.01
35.986
35.96
35.933
35.904
35.872
35.838
35.803
35.764
35.724
35.68
35.635
35.589
35.542
35.494
35.444
35.392
35.34
35.285
35.23
35.175
35.118
35.062
35.007
34.952
34.899
34.847
34.797
34.749
34.703
34.659
34.617
34.578
34.539
34.501
34.463
34.424
34.385
34.345
34.305
34.266
34.227
34.19
34.155
34.124
34.094
34.068
34.044
34.024
34.006
33.99
33.976
33.962
33.947
33.931
33.914
33.896
33.877
33.857
33.836
33.814
33.791
33.768
33.745
33.723
33.701
33.678
33.655
33.633
33.611
33.59
33.569
33.55
33.531
33.512
33.495
33.479
33.463
33.446
33.428
33.409
33.389
33.368
33.348
33.328
33.308
33.288
33.268
33.247
33.228
33.209
33.191
33.173
33.154
33.135
33.116
33.097
33.078
33.06
33.043
33.028
33.013
32.999
32.986
32.973
32.961
32.948
32.935
32.921
32.907
32.892
32.875
32.855
32.833
32.809
32.784
32.759
32.733
32.709
32.686
32.666
32.647
32.629
32.613
32.599
32.588
32.58
32.578
32.583
32.597
32.623
32.663
32.721
32.799
32.9
33.024
33.174
33.348
33.547
33.77
34.015
34.28
34.559
34.849
35.144
35.441
35.735
36.022
36.297
36.556
36.798
37.02
37.223
37.405
37.566
37.707
37.829
37.933
38.02
38.093
38.152
38.196
38.226
38.243
38.248
38.243
38.23
38.208
38.18
38.148
38.111
38.072
38.029
37.985
37.941
37.898
37.857
37.818
37.781
37.746
37.711
37.678
37.646
37.613
37.577
37.54
37.499
37.454
37.406
37.352
37.293
37.23
37.162
37.092
37.02
36.946
36.871
36.796
36.721
36.647
36.576
36.509
36.444
36.384
36.329
36.28
36.236
36.197
36.163
36.135
36.111
36.092
36.078
36.066
36.057
36.051
36.047
36.044
36.042
36.04
36.037
36.032
36.026
36.018
36.008
35.996
35.981
35.962
35.939
35.91
35.878
35.841
35.8
35.755
35.707
35.657
35.605
35.552
35.498
35.445
35.392
35.341
35.291
35.241
35.192
35.144
35.095
35.045
34.995
34.945
34.895
34.846
34.797
34.749
34.702
34.657
34.614
34.573
34.535
34.5
34.467
34.437
34.41
34.384
34.36
34.337
34.315
34.295
34.277
34.259
34.242
34.224
34.206
34.188
34.17
34.15
34.128
34.106
34.084
34.061
34.04
34.019
34.001
33.983
33.965
33.948
33.931
33.914
33.896
33.877
33.855
33.831
33.804
33.776
33.749
33.722
33.697
33.675
33.657
33.643
33.632
33.622
33.615
33.608
33.602
33.596
33.589
33.581
33.571
33.558
33.542
33.524
33.504
33.483
33.462
33.44
33.418
33.397
33.376
33.355
33.333
33.309
33.283
33.256
33.227
33.198
33.167
33.136
33.105
33.074
33.045
33.016
32.989
32.963
32.938
32.915
32.897
32.884
32.879
32.884
32.902
32.935
32.988
33.064
33.164
33.29
33.442
33.62
33.823
34.048
34.292
34.553
34.827
35.109
35.397
35.685
35.972
36.252
36.525
36.787
37.036
37.27
37.487
37.686
37.867
38.029
38.172
38.297
38.402
38.489
38.558
38.611
38.649
38.673
38.683
38.682
38.671
38.652
38.628
38.598
38.565
38.529
38.492
38.455
38.419
38.383
38.348
38.314
38.281
38.249
38.217
38.185
38.15
38.114
38.076
38.035
37.991
37.943
37.89
37.832
37.769
37.702
37.63
37.554
37.476
37.396
37.315
37.234
37.153
37.072
36.995
36.92
36.85
36.786
36.727
36.674
36.625
36.58
36.54
36.505
36.473
36.444
36.417
36.392
36.369
36.347
36.325
36.305
36.284
36.263
36.241
36.219
36.196
36.172
36.147
36.12
36.093
36.064
36.033
36.001
35.967
35.931
35.893
35.853
35.811
35.767
35.721
35.676
35.63
35.585
35.541
35.497
35.453
35.408
35.362
35.316
35.27
35.223
35.174
35.123
35.071
35.016
34.961
34.906
34.851
34.798
34.747
34.698
34.65
34.605
34.562
34.521
34.482
34.445
34.409
34.376
34.343
34.312
34.282
34.254
34.226
34.198
34.169
34.139
34.111
34.082
34.054
34.025
33.998
33.971
33.946
33.923
33.9
33.878
33.857
33.836
33.817
33.799
33.784
33.768
33.753
33.737
33.721
33.704
33.688
33.672
33.655
33.636
33.616
33.594
33.571
33.548
33.524
33.5
33.475
33.451
33.429
33.408
33.389
33.37
33.352
33.335
33.318
33.302
33.286
33.271
33.255
33.238
33.221
33.204
33.187
33.17
33.154
33.137
33.121
33.105
33.089
33.074
33.058
33.042
33.025
33.007
32.989
32.971
32.954
32.938
32.922
32.908
32.894
32.88
32.867
32.855
32.846
32.842
32.847
32.862
32.893
32.942
33.013
33.108
33.23
33.381
33.561
33.77
34.005
34.264
34.544
34.84
35.148
35.461
35.776
36.086
36.388
36.68
36.957
37.219
37.463
37.689
37.896
38.084
38.253
38.402
38.532
38.642
38.736
38.812
38.872
38.918
38.951
38.973
38.984
38.987
38.981
38.968
38.95
38.927
38.901
38.872
38.841
38.808
38.776
38.743
38.71
38.678
38.644
38.61
38.575
38.54
38.504
38.464
38.42
38.373
38.324
38.272
38.219
38.165
38.108
38.049
37.988
37.925
37.859
37.79
37.719
37.645
37.572
37.499
37.427
37.356
37.286
37.217
37.152
37.089
37.029
36.972
36.917
36.865
36.815
36.769
36.726
36.685
36.647
36.612
36.581
36.553
36.528
36.504
36.481
36.458
36.435
36.411
36.387
36.362
36.335
36.306
36.274
36.24
36.203
36.164
36.123
36.08
36.035
35.987
35.937
35.885
35.83
35.774
35.715
35.656
35.596
35.537
35.478
35.42
35.362
35.305
35.25
35.195
35.143
35.091
35.04
34.989
34.94
34.891
34.843
34.797
34.752
34.71
34.669
34.631
34.597
34.565
34.535
34.507
34.481
34.456
34.432
34.411
34.389
34.367
34.343
34.319
34.293
34.267
34.242
34.216
34.19
34.163
34.136
34.109
34.082
34.055
34.029
34.004
33.979
33.956
33.933
33.911
33.888
33.865
33.842
33.818
33.795
33.773
33.751
33.73
33.71
33.692
33.675
33.659
33.642
33.626
33.61
33.594
33.579
33.563
33.547
33.53
33.512
33.494
33.474
33.451
33.427
33.401
33.373
33.344
33.315
33.288
33.262
33.238
33.216
33.197
33.18
33.165
33.152
33.139
33.125
33.11
33.094
33.077
33.058
33.037
33.014
32.989
32.961
32.933
32.905
32.877
32.851
32.826
32.804
32.786
32.774
32.773
32.783
32.809
32.853
32.918
33.005
33.116
33.255
33.421
33.614
33.833
34.075
34.338
34.618
34.91
35.211
35.514
35.817
36.115
36.404
36.683
36.947
37.196
37.428
37.641
37.833
38.005
38.155
38.284
38.393
38.483
38.556
38.612
38.653
38.678
38.69
38.691
38.683
38.666
38.644
38.616
38.584
38.55
38.514
38.478
38.443
38.408
38.375
38.343
38.312
38.281
38.252
38.222
38.193
38.164
38.133
38.099
38.063
38.024
37.982
37.936
37.886
37.832
37.772
37.708
37.64
37.567
37.49
37.411
37.33
37.249
37.168
37.088
37.009
36.933
36.86
36.791
36.728
36.671
36.619
36.573
36.532
36.497
36.465
36.436
36.411
36.388
36.367
36.349
36.331
36.314
36.296
36.276
36.255
36.231
36.206
36.18
36.152
36.122
36.09
36.054
36.017
35.978
35.938
35.898
35.858
35.816
35.774
35.73
35.686
35.641
35.595
35.55
35.503
35.457
35.409
35.36
35.31
35.257
35.202
35.146
35.089
35.032
34.975
34.918
34.863
34.809
34.756
34.705
34.655
34.607
34.56
34.515
34.473
34.434
34.396
34.361
34.326
34.294
34.263
34.234
34.207
34.182
34.159
34.14
34.122
34.107
34.092
34.078
34.063
34.048
34.032
34.014
33.995
33.973
33.951
33.927
33.903
33.879
33.856
33.834
33.815
33.797
33.781
33.765
33.747
33.728
33.707
33.684
33.66
33.637
33.613
33.589
33.565
33.541
33.519
33.498
33.479
33.461
33.443
33.426
33.409
33.391
33.374
33.356
33.339
33.321
33.305
33.289
33.274
33.26
33.248
33.236
33.225
33.213
33.2
33.188
33.174
33.158
33.141
33.121
33.099
33.075
33.05
33.024
32.997
32.968
32.939
32.91
32.883
32.857
32.834
32.813
32.794
32.777
32.762
32.75
32.741
32.738
32.741
32.753
32.778
32.816
32.872
32.948
33.046
33.169
33.318
33.492
33.692
33.914
34.156
34.416
34.69
34.973
35.263
35.554
35.842
36.125
36.398
36.659
36.905
37.133
37.344
37.534
37.705
37.855
37.985
38.096
38.19
38.266
38.327
38.373
38.405
38.425
38.434
38.432
38.422
38.405
38.382
38.354
38.323
38.288
38.251
38.211
38.17
38.129
38.089
38.051
38.013
37.976
37.94
37.903
37.866
37.829
37.79
37.749
37.704
37.655
37.6
37.54
37.473
37.402
37.328
37.251
37.173
37.096
37.019
36.944
36.872
36.801
36.733
36.667
36.605
36.547
36.492
36.442
36.398
36.36
36.327
36.301
36.282
36.268
36.259
36.255
36.253
36.254
36.255
36.256
36.257
36.255
36.249
36.239
36.225
36.207
36.184
36.157
36.127
36.093
36.056
36.016
35.975
35.931
35.887
35.841
35.796
35.749
35.702
35.654
35.605
35.556
35.505
35.452
35.397
35.342
35.286
35.23
35.175
35.119
35.064
35.009
34.954
34.902
34.85
34.8
34.751
34.703
34.659
34.617
34.578
34.542
34.508
34.474
34.437
34.394
34.345
34.293
34.24
34.189
34.143
34.104
34.074
34.053
34.039
34.033
34.034
34.039
34.048
34.057
34.066
34.072
34.073
34.072
34.066
34.057
34.043
34.023
33.999
33.972
33.942
33.911
33.881
33.852
33.824
33.798
33.774
33.753
33.735
33.719
33.704
33.691
33.678
33.666
33.655
33.643
33.631
33.619
33.605
33.589
33.572
33.553
33.532
33.508
33.483
33.456
33.429
33.402
33.376
33.351
33.325
33.3
33.275
33.252
33.229
33.208
33.188
33.167
33.147
33.127
33.107
33.087
33.065
33.04
33.012
32.981
32.949
32.916
32.884
32.854
32.826
32.802
32.783
32.77
32.767
32.775
32.795
32.83
32.882
32.954
33.049
33.169
33.314
33.484
33.68
33.9
34.142
34.403
34.68
34.969
35.267
35.569
35.871
36.17
36.462
36.745
37.015
37.27
37.509
37.729
37.929
38.108
38.266
38.403
38.52
38.617
38.694
38.755
38.801
38.833
38.854
38.865
38.868
38.865
38.857
38.846
38.831
38.814
38.796
38.777
38.757
38.736
38.713
38.686
38.656
38.624
38.589
38.552
38.514
38.476
38.438
38.399
38.36
38.32
38.28
38.237
38.193
38.146
38.096
38.041
37.98
37.914
37.842
37.765
37.684
37.6
37.514
37.427
37.34
37.256
37.175
37.099
37.028
36.963
36.905
36.853
36.807
36.766
36.73
36.698
36.67
36.645
36.623
36.601
36.58
36.559
36.539
36.518
36.497
36.474
36.45
36.424
36.396
36.365
36.332
36.297
36.26
36.22
36.178
36.133
36.086
36.035
35.983
35.928
35.872
35.815
35.757
35.697
35.637
35.578
35.519
35.462
35.406
35.351
35.298
35.245
35.194
35.142
35.092
35.042
34.992
34.944
34.898
34.854
34.811
34.77
34.731
34.693
34.657
34.621
34.586
34.552
34.518
34.484
34.451
34.417
34.382
34.347
34.313
34.281
34.251
34.222
34.196
34.172
34.149
34.127
34.106
34.086
34.065
34.044
34.022
34.0
33.977
33.955
33.932
33.908
33.885
33.861
33.838
33.815
33.792
33.768
33.743
33.718
33.692
33.667
33.642
33.617
33.593
33.571
33.55
33.533
33.518
33.505
33.492
33.481
33.469
33.458
33.446
33.432
33.417
33.4
33.381
33.361
33.34
33.319
33.296
33.274
33.252
33.23
33.209
33.189
33.17
33.151
33.132
33.113
33.092
33.071
33.048
33.024
32.998
32.972
32.946
32.92
32.895
32.871
32.849
32.83
32.812
32.798
32.787
32.78
32.78
32.787
32.805
32.836
32.883
32.949
33.038
33.152
33.293
33.461
33.657
33.878
34.121
34.384
34.661
34.949
35.243
35.54
35.836
36.126
36.408
36.679
36.936
37.176
37.398
37.601
37.786
37.952
38.1
38.232
38.346
38.444
38.526
38.593
38.645
38.684
38.711
38.726
38.731
38.728
38.719
38.703
38.682
38.659
38.633
38.606
38.578
38.55
38.521
38.492
38.464
38.436
38.41
38.384
38.358
38.333
38.307
38.282
38.254
38.224
38.19
38.152
38.109
38.06
38.004
37.942
37.873
37.799
37.72
37.638
37.553
37.466
37.379
37.292
37.207
37.125
37.045
36.969
36.897
36.832
36.773
36.719
36.671
36.627
36.589
36.554
36.523
36.495
36.467
36.439
36.412
36.386
36.359
36.332
36.306
36.279
36.254
36.228
36.203
36.176
36.148
36.118
36.087
36.054
36.018
35.978
35.936
35.892
35.847
35.801
35.755
35.709
35.66
35.611
35.561
35.511
35.461
35.41
35.359
35.308
35.257
35.206
35.155
35.102
35.049
34.996
34.942
34.89
34.837
34.786
34.738
34.692
34.65
34.611
34.576
34.543
34.513
34.487
34.464
34.444
34.426
34.407
34.389
34.368
34.347
34.325
34.303
34.28
34.254
34.229
34.203
34.177
34.153
34.13
34.108
34.088
34.07
34.052
34.036
34.019
34.0
33.98
33.958
33.934
33.908
33.881
33.853
33.824
33.795
33.766
33.738
33.712
33.688
33.665
33.643
33.622
33.601
33.58
33.559
33.54
33.521
33.502
33.482
33.461
33.44
33.418
33.397
33.378
33.358
33.339
33.319
33.298
33.277
33.256
33.234
33.21
33.186
33.161
33.135
33.11
33.086
33.062
33.038
33.016
32.994
32.974
32.955
32.936
32.918
32.9
32.881
32.862
32.841
32.819
32.796
32.772
32.748
32.726
32.705
32.687
32.672
32.661
32.657
32.662
32.679
32.713
32.766
32.842
32.942
33.068
33.221
33.401
33.608
33.839
34.091
34.36
34.642
34.934
35.231
35.528
35.823
36.11
36.385
36.647
36.892
37.119
37.327
37.514
37.68
37.826
37.953
38.062
38.154
38.229
38.29
38.337
38.372
38.395
38.407
38.409
38.404
38.392
38.374
38.352
38.327
38.301
38.273
38.244
38.215
38.188
38.161
38.134
38.107
38.078
38.048
38.017
37.985
37.951
37.915
37.878
37.839
37.798
37.755
37.708
37.658
37.604
37.545
37.483
37.416
37.346
37.274
37.198
37.121
37.043
36.965
36.887
36.811
36.737
36.667
36.602
36.542
36.488
36.44
36.397
36.361
36.33
36.303
36.28
36.26
36.242
36.224
36.206
36.188
36.169
36.151
36.132
36.112
36.089
36.062
36.034
36.003
35.97
35.934
35.896
35.856
35.816
35.774
35.731
35.687
35.642
35.597
35.551
35.504
35.457
35.408
35.357
35.306
35.255
35.204
35.153
35.101
35.049
34.997
34.946
34.895
34.844
34.796
34.749
34.705
34.664
34.625
34.589
34.553
34.519
34.485
34.453
34.421
34.39
34.359
34.328
34.296
34.265
34.234
34.203
34.172
34.141
34.112
34.084
34.058
34.033
34.01
33.988
33.967
33.945
33.924
33.903
33.882
33.861
33.839
33.816
33.794
33.77
33.745
33.719
33.692
33.663
33.633
33.602
33.571
33.541
33.512
33.485
33.46
33.437
33.416
33.397
33.381
33.367
33.353
33.339
33.325
33.311
33.296
33.282
33.267
33.251
33.235
33.218
33.2
33.182
33.162
33.143
33.124
33.106
33.087
33.068
33.047
33.024
32.999
32.972
32.944
32.915
32.887
32.858
32.829
32.801
32.773
32.747
32.723
32.7
32.678
32.657
32.635
32.614
32.594
32.576
32.559
32.545
32.535
32.531
32.535
32.553
32.586
32.638
32.71
32.806
32.926
33.073
33.245
33.441
33.659
33.897
34.152
34.419
34.695
34.974
35.251
35.523
35.787
36.04
36.279
36.502
36.709
36.898
37.07
37.226
37.365
37.489
37.598
37.694
37.777
37.849
37.909
37.956
37.991
38.014
38.025
38.026
38.017
38.0
37.975
37.944
37.909
37.872
37.832
37.791
37.751
37.71
37.67
37.63
37.59
37.551
37.513
37.476
37.439
37.4
37.359
37.316
37.268
37.217
37.162
37.103
37.039
36.972
36.902
36.832
36.761
36.692
36.624
36.56
36.498
36.441
36.386
36.336
36.291
36.25
36.215
36.185
36.16
36.139
36.122
36.108
36.097
36.086
36.076
36.065
36.056
36.046
36.037
36.028
36.018
36.007
35.995
35.981
35.965
35.946
35.924
35.9
35.875
35.849
35.821
35.792
35.762
35.731
35.698
35.663
35.625
35.584
35.54
35.494
35.447
35.399
35.35
35.3
35.25
35.201
35.153
35.105
35.057
35.01
34.963
34.918
34.875
34.833
34.792
34.752
34.714
34.678
34.643
34.611
34.58
34.551
34.523
34.498
34.475
34.452
34.43
34.41
34.392
34.374
34.357
34.34
34.322
34.303
34.283
34.263
34.242
34.22
34.197
34.175
34.153
34.133
34.114
34.096
34.079
34.063
34.047
34.033
34.019
34.007
33.996
33.988
33.982
33.976
33.97
33.963
33.952
33.937
33.918
33.895
33.868
33.839
33.808
33.774
33.74
33.706
33.67
33.633
33.595
33.557
33.519
33.482
33.447
33.413
33.381
33.35
33.322
33.294
33.267
33.241
33.215
33.191
33.167
33.145
33.122
33.098
33.074
33.049
