Trial 3:3back
36.688
36.689
36.684
36.672
36.656
36.634
36.607
36.575
36.538
36.499
36.456
36.412
36.366
36.319
36.273
36.227
36.183
36.141
36.101
36.064
36.03
35.998
35.968
35.939
35.909
35.878
35.845
35.81
35.773
35.732
35.689
35.643
35.597
35.551
35.505
35.462
35.421
35.384
35.351
35.323
35.299
35.281
35.269
35.262
35.26
35.263
35.271
35.284
35.301
35.32
35.339
35.357
35.372
35.383
35.39
35.391
35.385
35.371
35.349
35.321
35.288
35.251
35.213
35.175
35.138
35.105
35.074
35.047
35.023
35.004
34.99
34.979
34.972
34.968
34.965
34.961
34.956
34.948
34.935
34.919
34.898
34.873
34.844
34.811
34.774
34.734
34.693
34.65
34.607
34.564
34.522
34.483
34.447
34.414
34.384
34.356
34.33
34.305
34.279
34.254
34.228
34.201
34.174
34.145
34.114
34.081
34.047
34.012
33.979
33.947
33.919
33.895
33.876
33.862
33.853
33.846
33.843
33.841
33.84
33.838
33.834
33.827
33.816
33.802
33.785
33.765
33.746
33.727
33.712
33.702
33.698
33.703
33.718
33.743
33.779
33.828
33.887
33.958
34.04
34.132
34.233
34.343
34.461
34.584
34.712
34.842
34.975
35.109
35.243
35.375
35.504
35.63
35.75
35.863
35.968
36.064
36.151
36.227
36.294
36.351
36.398
36.435
36.463
36.484
36.498
36.507
36.51
36.508
36.5
36.487
36.468
36.445
36.418
36.385
36.349
36.31
36.269
36.228
36.186
36.146
36.105
36.066
36.027
35.989
35.951
35.914
35.878
35.843
35.809
35.777
35.746
35.718
35.692
35.668
35.644
35.62
35.596
35.573
35.549
35.524
35.498
35.47
35.44
35.41
35.382
35.356
35.333
35.312
35.294
35.278
35.266
35.257
35.252
35.251
35.254
35.261
35.271
35.282
35.297
35.32
35.35
35.386
35.425
35.462
35.495
35.52
35.534
35.536
35.525
35.501
35.465
35.419
35.365
35.304
35.239
35.172
35.107
35.045
34.988
34.937
34.893
34.855
34.821
34.792
34.764
34.738
34.712
34.685
34.657
34.63
34.602
34.573
34.544
34.514
34.482
34.45
34.418
34.386
34.357
34.33
34.305
34.283
34.263
34.244
34.226
34.209
34.193
34.176
34.158
34.139
34.12
34.099
34.077
34.053
34.029
34.005
33.981
33.959
33.94
33.924
33.911
33.901
33.893
33.887
33.883
33.88
33.879
33.878
33.877
33.876
33.876
33.876
33.877
33.879
33.884
33.892
33.905
33.925
33.953
33.991
34.038
34.096
34.164
34.243
34.334
34.435
34.546
34.666
34.794
34.928
35.067
35.21
35.354
35.498
35.64
35.777
35.909
36.031
36.142
36.24
36.325
36.397
36.457
36.507
36.546
36.576
36.598
36.613
36.62
36.621
36.616
36.605
36.59
36.571
36.548
36.523
36.497
36.469
36.441
36.412
36.384
36.356
36.328
36.298
36.267
36.233
36.195
36.153
36.107
36.056
36.002
35.944
35.882
35.817
35.751
35.684
35.618
35.554
35.492
35.433
35.378
35.33
35.288
35.254
35.228
35.211
35.202
35.199
35.203
35.212
35.225
35.24
35.255
35.27
35.285
35.3
35.314
35.326
35.337
35.347
35.354
35.361
35.367
35.372
35.376
35.379
35.381
35.38
35.377
35.372
35.365
35.354
35.341
35.326
35.308
35.288
35.265
35.241
35.216
35.189
35.161
35.133
35.105
35.076
35.048
35.02
34.994
34.969
34.948
34.928
34.912
34.898
34.885
34.873
34.861
34.85
34.838
34.825
34.81
34.793
34.774
34.755
34.735
34.716
34.696
34.675
34.652
34.629
34.607
34.584
34.562
34.541
34.519
34.499
34.479
34.46
34.443
34.426
34.411
34.396
34.38
34.362
34.344
34.324
34.304
34.284
34.264
34.246
34.229
34.214
34.201
34.191
34.185
34.184
34.189
34.2
34.22
34.25
34.29
34.342
34.406
34.482
34.569
34.668
34.777
34.896
35.022
35.155
35.293
35.433
35.574
35.713
35.848
35.979
36.105
36.223
36.333
36.432
36.52
36.598
36.665
36.721
36.768
36.807
36.837
36.861
36.877
36.889
36.896
36.899
36.898
36.893
36.885
36.872
36.856
36.834
36.808
36.777
36.743
36.705
36.664
36.623
36.58
36.538
36.496
36.454
36.416
36.38
36.347
36.316
36.288
36.262
36.237
36.214
36.192
36.172
36.152
36.131
36.109
36.085
36.059
36.031
36.002
35.977
35.957
35.942
35.932
35.927
35.925
35.925
35.926
35.925
35.923
35.918
35.91
35.9
35.886
35.871
35.853
35.834
35.815
35.797
35.78
35.764
35.748
35.732
35.715
35.698
35.678
35.656
35.631
35.604
35.574
35.542
35.508
35.473
35.436
35.399
35.362
35.328
35.297
35.269
35.243
35.219
35.196
35.174
35.152
35.13
35.109
35.089
35.068
35.045
35.02
34.993
34.963
34.93
34.896
34.859
34.82
34.78
34.74
34.7
34.661
34.624
34.59
34.559
34.532
34.508
34.487
34.469
34.453
34.437
34.421
34.406
34.391
34.376
34.359
34.342
34.325
34.308
34.291
34.274
34.256
34.238
34.22
34.203
34.188
34.177
34.17
34.168
34.173
34.186
34.208
34.24
34.281
34.333
34.393
34.463
34.542
34.63
34.727
34.833
34.947
35.069
35.196
35.328
35.463
35.6
35.737
35.873
36.004
36.129
36.247
36.356
36.454
36.54
36.614
36.676
36.726
36.764
36.792
36.809
36.817
36.817
36.81
36.798
36.782
36.763
36.742
36.72
36.696
36.673
36.649
36.627
36.605
36.583
36.562
36.541
36.519
36.497
36.474
36.45
36.424
36.395
36.365
36.332
36.296
36.256
36.213
36.167
36.118
36.066
36.013
35.958
35.904
35.852
35.801
35.753
35.711
35.678
35.659
35.654
35.662
35.677
35.698
35.72
35.739
35.755
35.764
35.767
35.764
35.753
35.738
35.717
35.694
35.668
35.641
35.614
35.59
35.57
35.552
35.538
35.527
35.518
35.512
35.507
35.503
35.499
35.494
35.489
35.482
35.474
35.464
35.451
35.436
35.418
35.396
35.371
35.343
35.31
35.274
35.236
35.197
35.157
35.118
35.081
35.046
35.015
34.985
34.957
34.931
34.906
34.884
34.862
34.842
34.821
34.799
34.776
34.75
34.724
34.695
34.665
34.635
34.603
34.571
34.538
34.503
34.467
34.429
34.391
34.353
34.317
34.283
34.252
34.222
34.193
34.168
34.146
34.129
34.117
34.113
34.115
34.126
34.144
34.172
34.209
34.256
34.311
34.377
34.451
34.536
34.631
34.734
34.844
34.961
35.082
35.207
35.333
35.461
35.589
35.716
35.84
35.959
36.074
36.181
36.28
36.37
36.451
36.521
36.581
36.63
36.668
36.696
36.714
36.724
36.725
36.719
36.707
36.69
36.67
36.645
36.616
36.584
36.549
36.512
36.473
36.434
36.395
36.355
36.316
36.277
36.24
36.205
36.171
36.138
36.106
36.072
36.037
36.0
35.959
35.915
35.868
35.818
35.765
35.71
35.655
35.598
35.542
35.487
35.434
35.384
35.339
35.3
35.266
35.24
35.22
35.208
35.205
35.209
35.221
35.238
35.259
35.282
35.305
35.326
35.345
35.361
35.372
35.378
35.378
35.374
35.365
35.353
35.338
35.32
35.3
35.279
35.258
35.236
35.214
35.191
35.168
35.146
35.123
35.102
35.08
35.059
35.037
35.013
34.988
34.961
34.931
34.9
34.867
34.834
34.8
34.767
34.735
34.705
34.677
34.651
34.627
34.607
34.588
34.571
34.553
34.535
34.515
34.491
34.464
34.433
34.399
34.363
34.325
34.285
34.245
34.204
34.165
34.126
34.091
34.058
34.031
34.008
33.99
33.978
33.97
33.967
33.966
33.97
33.977
33.989
34.004
34.022
34.041
34.061
34.083
34.108
34.137
34.172
34.215
34.266
34.328
34.402
34.488
34.586
34.693
34.808
34.931
35.058
35.189
35.321
35.451
35.576
35.696
35.806
35.907
35.999
36.08
36.153
36.215
36.269
36.313
36.35
36.379
36.403
36.422
36.436
36.447
36.454
36.46
36.463
36.465
36.464
36.462
36.457
36.449
36.438
36.423
36.403
36.379
36.35
36.318
36.283
36.246
36.208
36.168
36.127
36.086
36.044
36.003
35.963
35.925
35.889
35.853
35.82
35.787
35.755
35.723
35.691
35.656
35.618
35.579
35.538
35.497
35.458
35.422
35.388
35.357
35.331
35.311
35.296
35.287
35.282
35.281
35.284
35.289
35.296
35.304
35.315
35.327
35.339
35.35
35.36
35.368
35.374
35.377
35.376
35.373
35.368
35.361
35.351
35.337
35.32
35.299
35.274
35.246
35.216
35.185
35.153
35.12
35.087
35.056
35.026
34.998
34.972
34.949
34.927
34.906
34.887
34.868
34.848
34.826
34.803
34.777
34.749
34.719
34.688
34.655
34.621
34.587
34.552
34.518
34.484
34.453
34.423
34.396
34.371
34.349
34.33
34.314
34.298
34.285
34.272
34.259
34.246
34.231
34.213
34.192
34.169
34.144
34.117
34.089
34.06
34.033
34.007
33.984
33.965
33.95
33.939
33.933
33.931
33.934
33.94
33.951
33.968
33.991
34.019
34.054
34.096
34.146
34.202
34.266
34.337
34.417
34.506
34.604
34.71
34.824
34.944
35.069
35.197
35.326
35.453
35.576
35.694
35.803
35.901
35.987
36.059
36.117
36.162
36.197
36.221
36.235
36.241
36.24
36.235
36.225
36.213
36.2
36.185
36.169
36.152
36.135
36.118
36.1
36.083
36.066
36.049
36.033
36.017
35.999
35.981
35.961
35.939
35.914
35.889
35.861
35.832
35.797
35.755
35.707
35.656
35.605
35.556
35.511
35.472
35.439
35.411
35.39
35.375
35.364
35.357
35.351
35.348
35.346
35.346
35.347
35.348
35.351
35.353
35.354
35.355
35.353
35.349
35.342
35.332
35.32
35.306
35.29
35.272
35.254
35.235
35.218
35.202
35.188
35.177
35.169
35.162
35.156
35.151
35.147
35.141
35.136
35.129
35.122
35.112
35.1
35.088
35.074
35.062
35.05
35.04
35.03
35.019
35.007
34.994
34.98
34.963
34.944
34.921
34.896
34.868
34.838
34.804
34.768
34.728
34.686
34.643
34.599
34.556
34.513
34.47
34.428
34.389
34.353
34.322
34.295
34.274
34.258
34.247
34.241
34.239
34.24
34.242
34.243
34.242
34.239
34.233
34.226
34.217
34.206
34.194
34.181
34.168
34.156
34.144
34.133
34.123
34.113
34.103
34.091
34.079
34.065
34.051
34.037
34.023
34.013
34.008
34.008
34.015
34.028
34.05
34.081
34.122
34.174
34.237
34.311
34.395
34.489
34.591
34.7
34.814
34.932
35.05
35.167
35.28
35.389
35.491
35.585
35.669
35.743
35.808
35.864
35.913
35.955
35.993
36.025
36.053
36.077
36.097
36.115
36.131
36.145
36.156
36.163
36.168
36.169
36.167
36.163
36.155
36.144
36.131
36.115
36.096
36.074
36.049
36.022
35.991
35.957
35.921
35.883
35.844
35.806
35.767
35.73
35.695
35.663
35.633
35.607
35.584
35.565
35.547
35.53
35.515
35.498
35.481
35.462
35.441
35.418
35.392
35.363
35.332
35.3
35.266
35.232
35.199
35.167
35.139
35.114
35.094
35.079
35.069
35.064
35.065
35.07
35.079
35.09
35.102
35.113
35.123
35.131
35.136
35.138
35.135
35.127
35.116
35.099
35.079
35.054
35.026
34.996
34.965
34.935
34.905
34.877
34.851
34.826
34.803
34.781
34.76
34.741
34.723
34.705
34.688
34.67
34.651
34.632
34.611
34.588
34.565
34.541
34.517
34.494
34.472
34.452
34.433
34.415
34.398
34.383
34.369
34.357
34.345
34.335
34.323
34.311
34.298
34.284
34.268
34.251
34.232
34.211
34.19
34.169
34.149
34.13
34.112
34.096
34.082
34.07
34.062
34.058
34.057
34.057
34.06
34.063
34.067
34.07
34.074
34.076
34.077
34.077
34.075
34.071
34.066
34.058
34.05
34.04
34.032
34.026
34.021
34.02
34.023
34.028
34.038
34.053
34.074
34.101
34.137
34.182
34.235
34.296
34.366
34.443
34.526
34.614
34.706
34.8
34.895
34.991
35.085
35.175
35.262
35.343
35.418
35.486
35.547
35.601
35.648
35.686
35.716
35.738
35.753
35.762
35.766
35.766
35.763
35.759
35.755
35.75
35.746
35.741
35.737
35.732
35.727
35.722
35.718
35.713
35.705
35.696
35.685
35.671
35.655
35.637
35.616
35.592
35.565
35.534
35.502
35.467
35.43
35.393
35.356
35.321
35.289
35.261
35.237
35.218
35.203
35.191
35.183
35.177
35.174
35.173
35.174
35.176
35.178
35.18
35.18
35.179
35.177
35.174
35.17
35.165
35.159
35.152
35.144
35.136
35.128
35.122
35.117
35.115
35.114
35.115
35.118
35.121
35.124
35.126
35.128
35.129
35.129
35.128
35.124
35.118
35.109
35.095
35.079
35.059
35.036
35.01
34.984
34.956
34.928
34.9
34.872
34.845
34.818
34.792
34.768
34.745
34.722
34.7
34.678
34.656
34.635
34.614
34.594
34.573
34.553
34.533
34.514
34.497
34.481
34.465
34.45
34.435
34.422
34.41
34.401
34.392
34.384
34.375
34.365
34.353
34.338
34.32
34.3
34.277
34.253
34.229
34.205
34.183
34.16
34.14
34.121
34.104
34.09
34.079
34.071
34.066
34.064
34.061
34.06
34.059
34.06
34.063
34.067
34.074
34.083
34.096
34.113
34.134
34.161
34.195
34.235
34.281
34.334
34.393
34.458
34.527
34.598
34.672
34.748
34.825
34.904
34.982
35.058
35.132
35.202
35.268
35.329
35.385
35.433
35.474
35.509
35.536
35.559
35.576
35.59
35.601
35.61
35.617
35.625
35.631
35.637
35.642
35.645
35.646
35.644
35.641
35.635
35.627
35.616
35.603
35.586
35.565
35.54
35.513
35.483
35.451
35.418
35.384
35.351
35.318
35.287
35.259
35.232
35.208
35.186
35.166
35.149
35.135
35.122
35.111
35.1
35.09
35.08
35.07
35.061
35.051
35.04
35.028
35.014
35.0
34.984
34.968
34.954
34.943
34.935
34.932
34.933
34.939
34.95
34.964
34.982
35.003
35.025
35.047
35.067
35.082
35.092
35.095
35.093
35.084
35.07
35.051
35.028
35.002
34.974
34.945
34.916
34.886
34.857
34.83
34.805
34.782
34.761
34.743
34.727
34.712
34.698
34.684
34.669
34.654
34.638
34.622
34.605
34.588
34.572
34.555
34.538
34.522
34.506
34.491
34.477
34.465
34.453
34.441
34.429
34.416
34.402
34.386
34.369
34.351
34.331
34.31
34.288
34.265
34.242
34.219
34.196
34.176
34.157
34.143
34.131
34.124
34.12
34.118
34.119
34.121
34.125
34.129
34.133
34.136
34.137
34.136
34.133
34.127
34.118
34.107
34.095
34.083
34.073
34.066
34.064
34.067
34.079
34.098
34.125
34.16
34.203
34.254
34.31
34.372
34.439
34.509
34.582
34.659
34.738
34.82
34.902
34.986
35.071
35.156
35.241
35.326
35.409
35.489
35.568
35.643
35.715
35.781
35.841
35.894
35.939
35.974
36.0
36.016
36.021
36.018
36.006
35.988
35.965
35.938
35.91
35.884
35.859
35.836
35.815
35.797
35.781
35.769
35.76
35.753
35.75
35.748
35.748
35.75
35.753
35.754
35.753
35.749
35.741
35.728
35.711
35.689
35.662
35.633
35.602
35.57
35.54
35.51
35.484
35.46
35.442
35.428
35.419
35.415
35.415
35.418
35.424
35.432
35.442
35.451
35.459
35.466
35.47
35.47
35.466
35.458
35.447
35.433
35.418
35.402
35.388
35.374
35.362
35.35
35.34
35.331
35.324
35.317
35.311
35.305
35.298
35.289
35.278
35.265
35.25
35.235
35.217
35.199
35.178
35.156
35.132
35.108
35.082
35.055
35.027
34.999
34.972
34.946
34.923
34.902
34.882
34.864
34.847
34.83
34.814
34.797
34.779
34.759
34.735
34.709
34.68
34.65
34.619
34.588
34.558
34.531
34.507
34.488
34.472
34.461
34.452
34.445
34.44
34.436
34.433
34.429
34.424
34.417
34.407
34.393
34.376
34.358
34.339
34.319
34.3
34.282
34.265
34.249
34.235
34.223
34.211
34.201
34.192
34.186
34.18
34.176
34.173
34.169
34.164
34.158
34.15
34.142
34.133
34.125
34.12
34.118
34.122
34.133
34.152
34.181
34.219
34.268
34.328
34.398
34.477
34.565
34.66
34.761
34.866
34.974
35.082
35.188
35.291
35.39
35.483
35.568
35.647
35.718
35.782
35.841
35.894
35.943
35.986
36.024
36.058
36.088
36.115
36.14
36.162
36.184
36.203
36.22
36.233
36.241
36.244
36.244
36.24
36.233
36.223
36.209
36.193
36.175
36.156
36.135
36.115
36.095
36.076
36.06
36.046
36.035
36.026
36.019
36.013
36.007
36.001
35.995
35.986
35.973
35.956
35.935
35.909
35.88
35.848
35.814
35.781
35.748
35.718
35.691
35.667
35.646
35.629
35.616
35.605
35.597
35.591
35.588
35.587
35.587
35.589
35.591
35.593
35.594
35.593
35.59
35.585
35.576
35.565
35.552
35.537
35.521
35.505
35.488
35.473
35.458
35.444
35.429
35.414
35.398
35.383
35.368
35.352
35.336
35.319
35.3
35.28
35.259
35.235
35.21
35.183
35.154
35.124
35.093
35.061
35.028
34.995
34.963
34.934
34.907
34.882
34.86
34.84
34.822
34.805
34.789
34.773
34.756
34.739
34.72
34.699
34.677
34.653
34.627
34.599
34.569
34.54
34.512
34.487
34.465
34.447
34.432
34.421
34.414
34.41
34.408
34.409
34.411
34.413
34.415
34.416
34.417
34.415
34.413
34.408
34.402
34.394
34.385
34.375
34.363
34.35
34.334
34.318
34.3
34.282
34.263
34.245
34.229
34.214
34.201
34.191
34.184
34.179
34.177
34.18
34.188
34.204
34.228
34.26
34.301
34.351
34.409
34.475
34.55
34.63
34.717
34.81
34.908
35.008
35.11
35.213
35.313
35.41
35.503
35.59
35.67
35.743
35.807
35.863
35.911
35.95
35.982
36.007
36.028
36.044
36.057
36.067
36.075
36.082
36.087
36.091
36.096
36.101
36.107
36.113
36.12
36.126
36.132
36.135
36.135
36.133
36.127
36.118
36.104
36.087
36.065
36.041
36.013
35.985
35.958
35.931
35.907
35.884
35.862
35.841
35.822
35.803
35.785
35.769
35.753
35.738
35.725
35.714
35.703
35.693
35.682
35.671
35.658
35.645
35.631
35.615
35.599
35.582
35.565
35.548
35.533
35.518
35.506
35.496
35.488
35.482
35.479
35.477
35.477
35.48
35.484
35.489
35.496
35.503
35.51
35.516
35.52
35.52
35.518
35.512
35.503
35.49
35.474
35.453
35.428
35.399
35.367
35.333
35.299
35.263
35.227
35.191
35.156
35.123
35.092
35.063
35.036
35.013
34.992
34.975
34.961
34.948
34.937
34.924
34.91
34.893
34.872
34.847
34.819
34.79
34.759
34.728
34.697
34.667
34.638
34.612
34.588
34.568
34.551
34.538
34.528
34.52
34.514
34.507
34.5
34.491
34.48
34.467
34.452
34.435
34.417
34.397
34.376
34.356
34.338
34.321
34.307
34.296
34.289
34.286
34.287
34.29
34.294
34.299
34.304
34.308
34.311
34.311
34.307
34.3
34.289
34.276
34.261
34.246
34.232
34.222
34.217
34.22
34.232
34.254
34.288
34.331
34.385
34.446
34.516
34.592
34.674
34.759
34.847
34.936
35.027
35.119
35.212
35.306
35.398
35.488
35.575
35.658
35.738
35.813
35.882
35.946
36.004
36.057
36.105
36.149
36.188
36.221
36.248
36.267
36.28
36.288
36.29
36.287
36.279
36.266
36.249
36.229
36.207
36.183
36.159
36.136
36.114
36.094
36.075
36.058
36.043
36.029
36.017
36.005
35.993
35.982
35.969
35.954
35.937
35.917
35.894
35.868
35.838
35.805
35.77
35.732
35.693
35.655
35.619
35.586
35.557
35.534
35.517
35.505
35.5
35.501
35.508
35.518
35.531
35.546
35.562
35.578
35.595
35.61
35.622
35.631
35.636
35.636
35.635
35.637
35.642
35.649
35.657
35.664
35.669
35.67
35.667
35.659
35.645
35.627
35.605
35.579
35.55
35.518
35.484
35.448
35.411
35.374
35.338
35.302
35.267
35.232
35.198
35.165
35.132
35.101
35.072
35.046
35.022
35.0
34.981
34.963
34.946
34.929
34.912
34.896
34.88
34.864
34.847
34.83
34.812
34.792
34.77
34.747
34.723
34.7
34.677
34.654
34.633
34.612
34.593
34.575
34.559
34.544
34.532
34.521
34.513
34.506
34.5
34.493
34.483
34.471
34.455
34.438
34.419
34.398
34.376
34.354
34.331
34.31
34.291
34.275
34.261
34.249
34.241
34.239
34.242
34.253
34.271
34.297
34.331
34.374
34.426
34.487
34.556
34.632
34.715
34.805
34.9
34.999
35.101
35.206
35.313
35.42
35.526
35.631
35.732
35.829
35.921
36.009
36.091
36.167
36.237
36.302
36.359
36.409
36.452
36.486
36.513
36.533
36.546
36.552
36.551
36.544
36.533
36.518
36.501
36.484
36.467
36.451
36.436
36.423
36.411
36.401
36.391
36.382
36.372
36.359
36.345
36.328
36.307
36.284
36.258
36.228
36.197
36.163
36.127
36.09
36.052
36.013
35.974
35.936
35.901
35.868
35.839
35.812
35.788
35.766
35.747
35.729
35.715
35.703
35.694
35.69
35.689
35.692
35.697
35.703
35.71
35.716
35.722
35.725
35.727
35.727
35.725
35.721
35.715
35.708
35.7
35.691
35.682
35.673
35.664
35.656
35.647
35.639
35.63
35.621
35.61
35.596
35.582
35.565
35.548
35.53
35.51
35.488
35.464
35.437
35.409
35.379
35.346
35.311
35.273
35.234
35.194
35.155
35.118
