Trial 3:3back
35.156
35.301
35.447
35.591
35.732
35.869
35.999
36.121
36.233
36.337
36.431
36.517
36.595
36.663
36.723
36.774
36.818
36.853
36.882
36.903
36.919
36.93
36.937
36.943
36.947
36.95
36.951
36.949
36.946
36.941
36.934
36.926
36.916
36.904
36.889
36.873
36.855
36.835
36.813
36.789
36.762
36.733
36.701
36.667
36.632
36.598
36.563
36.529
36.497
36.466
36.437
36.409
36.383
36.358
36.333
36.307
36.281
36.255
36.228
36.2
36.173
36.147
36.122
36.1
36.078
36.059
36.04
36.023
36.006
35.99
35.974
35.958
35.944
35.93
35.917
35.904
35.892
35.881
35.869
35.858
35.847
35.836
35.823
35.809
35.793
35.776
35.758
35.74
35.721
35.701
35.679
35.656
35.63
35.602
35.572
35.539
35.504
35.467
35.428
35.389
35.35
35.311
35.273
35.235
35.198
35.162
35.126
35.09
35.056
35.024
34.994
34.965
34.938
34.912
34.888
34.865
34.845
34.827
34.811
34.796
34.781
34.767
34.753
34.738
34.724
34.71
34.695
34.679
34.662
34.644
34.624
34.603
34.58
34.556
34.531
34.505
34.479
34.454
34.429
34.404
34.381
34.361
34.343
34.327
34.313
34.3
34.289
34.278
34.267
34.255
34.242
34.229
34.215
34.201
34.185
34.169
34.153
34.137
34.121
34.104
34.087
34.071
34.054
34.038
34.022
34.006
33.991
33.978
33.965
33.955
33.947
33.942
33.941
33.943
33.948
33.957
33.97
33.989
34.014
34.046
34.085
34.134
34.192
34.26
34.338
34.426
34.524
34.631
34.748
34.872
35.004
35.14
35.28
35.42
35.561
35.7
35.835
35.967
36.093
36.212
36.324
36.428
36.523
36.609
36.685
36.751
36.808
36.856
36.895
36.926
36.951
36.97
36.983
36.99
36.991
36.987
36.981
36.971
36.959
36.945
36.929
36.912
36.893
36.875
36.857
36.84
36.821
36.8
36.778
36.755
36.73
36.703
36.675
36.645
36.613
36.58
36.544
36.507
36.469
36.429
36.388
36.345
36.3
36.254
36.209
36.164
36.121
36.081
36.044
36.012
35.984
35.96
35.94
35.923
35.909
35.897
35.886
35.878
35.872
35.867
35.865
35.863
35.862
35.861
35.86
35.858
35.854
35.849
35.841
35.831
35.819
35.805
35.791
35.776
35.761
35.746
35.732
35.72
35.709
35.697
35.684
35.669
35.65
35.629
35.603
35.573
35.539
35.502
35.462
35.419
35.374
35.328
35.281
35.234
35.187
35.14
35.094
35.049
35.005
34.963
34.922
34.884
34.847
34.813
34.78
34.749
34.717
34.686
34.654
34.621
34.587
34.553
34.52
34.487
34.456
34.427
34.401
34.378
34.358
34.342
34.329
34.318
34.309
34.301
34.294
34.286
34.278
34.27
34.262
34.253
34.244
34.235
34.227
34.219
34.211
34.203
34.193
34.182
34.17
34.155
34.138
34.12
34.099
34.078
34.056
34.035
34.015
33.998
33.982
33.967
33.952
33.936
33.919
33.9
33.881
33.861
33.839
33.817
33.795
33.774
33.755
33.739
33.727
33.72
33.718
33.723
33.736
33.757
33.787
33.827
33.877
33.937
34.007
34.089
34.181
34.283
34.396
34.518
34.646
34.78
34.918
35.059
35.201
35.34
35.477
35.609
35.736
35.859
35.975
36.084
36.186
36.281
36.367
36.446
36.517
36.579
36.633
36.678
36.716
36.744
36.766
36.782
36.792
36.798
36.798
36.795
36.788
36.78
36.77
36.758
36.746
36.731
36.716
36.698
36.678
36.655
36.628
36.597
36.563
36.526
36.488
36.448
36.41
36.372
36.336
36.3
36.264
36.23
36.195
36.161
36.125
36.089
36.052
36.014
35.978
35.945
35.914
35.887
35.864
35.845
35.829
35.816
35.807
35.799
35.794
35.789
35.786
35.782
35.779
35.777
35.774
35.771
35.767
35.763
35.757
35.751
35.745
35.739
35.732
35.724
35.715
35.706
35.696
35.685
35.674
35.662
35.649
35.637
35.625
35.613
35.6
35.588
35.573
35.557
35.538
35.518
35.495
35.471
35.445
35.417
35.388
35.356
35.323
35.289
35.252
35.214
35.173
35.131
35.087
35.044
35.001
34.958
34.917
34.876
34.837
34.799
34.763
34.729
34.696
34.666
34.638
34.613
34.591
34.572
34.557
34.545
34.536
34.528
34.522
34.516
34.511
34.504
34.496
34.487
34.475
34.462
34.448
34.432
34.416
34.398
34.379
34.358
34.335
34.31
34.285
34.258
34.23
34.201
34.172
34.142
34.113
34.084
34.055
34.027
34.0
33.975
33.952
33.932
33.915
33.9
33.886
33.875
33.867
33.861
33.861
33.866
33.878
33.895
33.92
33.953
33.994
34.045
34.105
34.177
34.259
34.351
34.454
34.565
34.684
34.808
34.937
35.069
35.202
35.335
35.467
35.597
35.724
35.848
35.966
36.078
36.185
36.285
36.378
36.463
36.541
36.609
36.67
36.721
36.765
36.8
36.827
36.846
36.857
36.862
36.861
36.854
36.841
36.822
36.799
36.771
36.74
36.706
36.67
36.633
36.597
36.562
36.527
36.492
36.458
36.424
36.389
36.354
36.317
36.279
36.238
36.194
36.147
36.098
36.047
35.995
35.944
35.894
35.846
35.8
35.757
35.717
35.68
35.646
35.613
35.583
35.556
35.532
35.513
35.499
35.488
35.482
35.479
35.479
35.481
35.485
35.49
35.495
35.501
35.507
35.513
35.521
35.529
35.537
35.545
35.552
35.558
35.562
35.565
35.565
35.562
35.556
35.547
35.537
35.525
35.512
35.498
35.482
35.463
35.442
35.417
35.389
35.358
35.326
35.292
35.258
35.222
35.185
35.149
35.113
35.077
35.04
35.003
34.965
34.927
34.89
34.854
34.819
34.784
34.749
34.715
34.681
34.647
34.613
34.581
34.549
34.518
34.487
34.457
34.427
34.399
34.369
34.34
34.309
34.278
34.247
34.217
34.187
34.158
34.13
34.105
34.082
34.061
34.043
34.027
34.013
34.002
33.991
33.982
33.973
33.967
33.961
33.954
33.948
33.941
33.934
33.926
33.918
33.91
33.901
33.892
33.883
33.873
33.863
33.853
33.844
33.836
33.829
33.823
33.82
33.82
33.823
33.829
33.84
33.855
33.876
33.905
33.942
33.988
34.044
34.11
34.187
34.275
34.375
34.487
34.61
34.743
34.884
35.032
35.184
35.339
35.494
35.648
35.799
35.945
36.086
36.22
36.346
36.464
36.571
36.669
36.755
36.83
36.894
36.95
36.996
37.035
37.065
37.089
37.107
37.121
37.131
37.135
37.135
37.129
37.119
37.103
37.084
37.062
37.038
37.011
36.983
36.954
36.924
36.894
36.864
36.833
36.801
36.767
36.731
36.694
36.655
36.615
36.575
36.533
36.491
36.447
36.403
36.359
36.314
36.268
36.222
36.177
36.132
36.089
36.048
36.011
35.977
35.947
35.918
35.893
35.869
35.848
35.829
35.811
35.796
35.782
35.772
35.764
35.761
35.76
35.762
35.766
35.771
35.776
35.782
35.786
35.787
35.787
35.784
35.779
35.771
35.762
35.751
35.737
35.722
35.704
35.684
35.663
35.64
35.616
35.589
35.561
35.53
35.499
35.467
35.436
35.405
35.375
35.346
35.316
35.286
35.256
35.225
35.193
35.16
35.127
35.093
35.058
35.023
34.987
34.953
34.919
34.885
34.852
34.82
34.79
34.759
34.729
34.696
34.66
34.622
34.583
34.544
34.506
34.471
34.438
34.407
34.38
34.355
34.331
34.309
34.286
34.262
34.237
34.211
34.184
34.158
34.132
34.106
34.081
34.058
34.036
34.016
33.999
33.984
33.971
33.96
33.951
33.944
33.938
33.935
33.932
33.93
33.927
33.924
33.921
33.918
33.915
33.911
33.905
33.898
33.888
33.877
33.864
33.851
33.837
33.825
33.816
33.812
33.815
33.826
33.848
33.883
33.929
33.989
34.063
34.149
34.249
34.362
34.486
34.619
34.761
34.911
35.067
35.227
35.39
35.554
35.718
35.879
36.037
36.189
36.335
36.473
36.601
36.718
36.823
36.916
36.997
37.067
37.125
37.172
37.209
37.235
37.252
37.261
37.263
37.259
37.248
37.232
37.211
37.188
37.163
37.136
37.108
37.08
37.051
37.023
36.995
36.97
36.946
36.923
36.902
36.882
36.861
36.841
36.819
36.796
36.77
36.74
36.707
36.67
36.629
36.584
36.537
36.488
36.437
36.386
36.336
36.287
36.24
36.197
36.157
36.121
36.088
36.058
36.031
36.005
35.982
35.962
35.944
35.929
35.917
35.907
35.9
35.894
35.888
35.883
35.877
35.872
35.865
35.857
35.847
35.836
35.823
35.807
35.79
35.771
35.75
35.726
35.699
35.67
35.637
35.602
35.565
35.527
35.489
35.451
35.415
35.381
35.349
35.32
35.292
35.267
35.243
35.22
35.199
35.178
35.157
35.136
35.115
35.093
35.071
35.046
35.021
34.993
34.964
34.933
34.899
34.863
34.824
34.783
34.74
34.696
34.651
34.606
34.561
34.518
34.475
34.433
34.393
34.354
34.316
34.278
34.241
34.205
34.169
34.133
34.098
34.066
34.035
34.009
33.985
33.965
33.947
33.931
33.918
33.907
33.899
33.892
33.887
33.883
33.881
33.878
33.877
33.877
33.878
33.88
33.882
33.883
33.883
33.883
33.882
33.879
33.875
33.87
33.862
33.853
33.842
33.831
33.82
33.81
33.801
33.795
33.793
33.796
33.804
33.82
33.842
33.873
33.913
33.964
34.027
34.103
34.192
34.292
34.405
34.529
34.664
34.809
34.963
35.123
35.287
35.452
35.617
35.779
35.937
36.087
36.23
36.363
36.485
36.597
36.698
36.788
36.867
36.935
36.993
37.04
37.076
37.103
37.122
37.133
37.138
37.137
37.131
37.12
37.106
37.089
37.069
37.046
37.02
36.993
36.964
36.934
36.903
36.873
36.843
36.813
36.783
36.751
36.718
36.683
36.647
36.608
36.568
36.525
36.48
36.432
36.383
36.334
36.284
36.233
36.183
36.132
36.083
36.034
35.988
35.943
35.901
35.862
35.825
35.792
35.763
35.739
35.721
35.707
35.698
35.692
35.689
35.688
35.688
35.69
35.693
35.697
35.701
35.705
35.708
35.709
35.708
35.704
35.697
35.687
35.675
35.662
35.647
35.629
35.611
35.59
35.567
35.542
35.515
35.487
35.458
35.427
35.396
35.366
35.336
35.306
35.277
35.247
35.218
35.189
35.16
35.132
35.105
35.077
35.048
35.017
34.984
34.949
34.913
34.875
34.838
34.801
34.764
34.727
34.692
34.658
34.625
34.593
34.561
34.528
34.496
34.464
34.432
34.402
34.373
34.347
34.321
34.296
34.272
34.248
34.226
34.204
34.183
34.162
34.142
34.123
34.107
34.092
34.08
34.071
34.066
34.064
34.065
34.069
34.073
34.079
34.084
34.088
34.09
34.09
34.088
34.084
34.077
34.069
34.06
34.052
34.045
34.041
34.042
34.047
34.059
34.08
34.109
34.148
34.198
34.257
34.328
34.408
34.498
34.597
34.705
34.821
34.943
35.072
35.204
35.34
35.476
35.612
35.746
35.876
36.001
36.12
36.232
36.336
36.431
36.517
36.592
36.656
36.708
36.75
36.782
36.803
36.815
36.817
36.811
36.796
36.775
36.749
36.718
36.685
36.65
36.614
36.577
36.541
36.508
36.476
36.447
36.419
36.393
36.367
36.341
36.315
36.287
36.256
36.223
36.187
36.147
36.103
36.056
36.004
35.949
35.892
35.833
35.773
35.715
35.66
35.609
35.561
35.517
35.476
35.44
35.408
35.382
35.361
35.345
35.335
35.328
35.327
35.328
35.334
35.341
35.349
35.357
35.364
35.371
35.379
35.387
35.394
35.4
35.403
35.405
35.404
35.401
35.395
35.387
35.373
35.355
35.333
35.308
35.281
35.252
35.22
35.187
35.153
35.118
35.082
35.045
35.008
34.972
34.937
34.901
34.865
34.83
34.794
34.76
34.726
34.694
34.663
34.637
34.613
34.592
34.574
34.557
34.54
34.523
34.505
34.487
34.469
34.449
34.429
34.408
34.386
34.364
34.341
34.318
34.294
34.268
34.242
34.215
34.188
34.163
34.139
34.116
34.095
34.075
34.056
34.037
34.02
34.003
33.987
33.971
33.955
33.939
33.924
33.909
33.894
33.88
33.866
33.852
33.839
33.828
33.817
33.806
33.795
33.784
33.771
33.758
33.743
33.729
33.715
33.702
33.693
33.687
33.687
33.694
33.71
33.734
33.768
33.813
33.869
33.938
34.02
34.113
34.218
34.333
34.459
34.593
34.734
34.883
35.037
35.196
35.357
35.516
35.672
35.824
35.969
36.106
36.235
36.355
36.464
36.563
36.653
36.733
36.804
36.864
36.915
36.956
36.988
37.011
37.026
37.031
37.029
37.019
37.003
36.984
36.961
36.936
36.911
36.885
36.858
36.831
36.803
36.776
36.749
36.723
36.696
36.67
36.643
36.617
36.589
36.56
36.529
36.494
36.455
36.413
36.367
36.317
36.265
36.211
36.156
36.101
36.046
35.994
35.945
35.899
35.856
35.816
35.78
35.748
35.72
35.698
35.68
35.666
35.657
35.654
35.654
35.658
35.664
35.671
35.679
35.686
35.694
35.701
35.709
35.716
35.723
35.728
35.731
35.733
35.733
35.729
35.722
35.712
35.698
35.68
35.66
35.638
35.615
35.59
35.564
35.537
35.509
35.481
35.453
35.425
35.398
35.37
35.342
35.314
35.286
35.257
35.228
35.198
35.168
35.137
35.105
35.072
35.039
35.004
34.967
34.928
34.886
34.842
34.797
34.75
34.703
34.655
34.61
34.566
34.524
34.485
34.45
34.417
34.387
34.359
34.332
34.308
34.286
34.268
34.253
34.241
34.232
34.225
34.22
34.216
34.212
34.208
34.203
34.196
34.187
34.175
34.162
34.147
34.13
34.112
34.092
34.072
34.051
34.031
34.01
33.99
33.97
33.949
33.929
33.909
33.891
33.874
33.858
33.844
33.834
33.828
33.825
33.828
33.834
33.845
33.858
33.875
33.898
33.927
33.965
34.015
34.077
34.152
34.242
34.346
34.465
34.598
34.742
34.897
35.059
35.227
35.399
35.572
35.745
35.915
36.08
36.239
36.39
36.532
36.663
36.783
36.892
36.988
37.072
37.143
37.203
37.251
37.289
37.317
37.334
37.343
37.345
37.339
37.328
37.313
37.293
37.271
37.245
37.218
37.19
37.161
37.132
37.103
37.075
37.047
37.019
36.991
36.963
36.933
36.903
36.871
36.838
36.801
36.763
36.723
36.682
36.638
36.592
36.544
36.494
36.443
36.391
36.338
36.286
36.233
36.182
36.133
36.086
36.043
36.003
35.967
35.934
35.905
35.881
35.859
35.841
35.826
35.813
35.801
35.792
35.784
35.778
35.773
35.77
35.768
35.768
35.767
35.766
35.763
35.757
35.749
35.739
35.726
35.71
35.693
35.672
35.65
35.627
35.602
35.576
35.547
35.516
35.483
35.449
35.414
35.38
35.347
35.317
35.289
35.263
35.24
35.218
35.198
35.177
35.155
35.132
35.106
35.079
35.049
35.016
34.981
34.945
34.907
34.868
34.829
34.789
34.748
34.707
34.664
34.621
34.578
34.536
34.493
34.448
34.402
34.356
34.309
34.263
34.218
34.176
34.138
34.103
34.073
34.047
34.024
34.006
33.99
33.978
33.97
33.964
33.962
33.961
33.962
33.964
33.966
33.968
33.969
33.968
33.965
33.96
33.952
33.941
33.927
33.912
33.895
33.877
33.857
33.836
33.816
33.796
33.778
33.761
33.746
33.731
33.719
33.708
33.701
33.698
33.701
33.71
33.726
33.751
33.785
33.83
33.885
33.95
34.026
34.112
34.208
34.315
34.433
34.561
34.698
34.843
34.994
35.151
35.31
35.47
35.627
35.78
35.925
36.061
36.187
36.301
36.404
36.496
36.576
36.644
36.701
36.748
36.785
36.813
36.832
36.842
36.846
36.843
36.834
36.822
36.808
36.792
36.774
36.756
36.736
36.715
36.692
36.667
36.64
36.612
36.582
36.55
36.517
36.484
36.45
36.416
36.381
36.344
36.305
36.263
36.218
36.17
36.12
36.07
36.018
35.967
35.917
35.868
35.82
35.775
35.733
35.693
35.656
35.621
35.589
35.561
35.536
35.515
35.496
35.48
35.467
35.456
35.446
35.437
35.427
35.418
35.408
35.397
35.386
35.375
35.364
35.353
35.342
35.331
35.321
35.312
35.304
35.296
35.288
35.276
35.259
35.237
35.21
35.177
35.143
35.107
35.072
35.037
35.004
34.973
34.944
34.918
34.894
34.872
34.85
34.828
34.806
34.784
34.76
34.734
34.705
34.674
34.64
34.604
34.567
34.528
34.487
34.446
34.405
34.365
34.325
34.286
34.249
34.212
34.176
34.142
34.111
34.083
34.057
34.035
34.014
33.996
33.98
33.966
33.952
33.939
33.926
33.914
33.903
33.893
33.884
33.876
33.871
33.867
33.864
33.862
33.861
33.861
33.86
33.857
33.851
33.843
33.831
33.817
33.8
33.781
33.759
33.737
33.715
33.692
33.67
33.648
33.627
33.608
33.592
33.58
33.574
33.575
33.584
33.601
33.626
33.66
33.705
33.759
33.823
33.897
33.978
34.068
34.164
34.266
34.372
34.482
34.595
34.709
34.823
34.935
35.046
35.153
35.256
35.353
35.443
35.524
35.597
35.661
35.715
35.76
35.796
35.824
35.844
35.856
35.862
35.862
35.856
35.845
35.83
35.811
35.789
35.765
35.739
35.713
35.686
35.66
35.634
35.609
35.585
35.561
35.538
35.514
35.49
35.464
35.437
35.409
35.381
35.351
35.32
35.287
35.253
35.218
35.181
35.144
35.108
35.072
35.038
35.005
34.976
34.95
34.927
34.907
34.89
34.874
34.861
34.849
34.84
34.831
34.825
34.821
34.82
34.821
34.824
34.83
34.838
34.846
34.852
34.855
34.857
34.856
34.853
34.849
34.841
34.829
34.814
34.796
34.776
34.752
34.725
34.697
34.667
34.636
34.604
34.572
34.542
34.514
34.489
34.465
34.444
34.424
34.407
34.391
34.375
34.358
34.338
34.317
34.294
34.27
34.244
34.218
34.192
34.166
34.14
34.115
34.091
34.068
34.045
34.022
33.998
33.974
33.951
33.929
33.909
33.89
33.872
33.856
33.84
33.823
33.806
33.788
33.768
33.749
33.729
33.708
33.688
33.668
33.648
33.627
33.607
33.587
33.569
33.553
33.539
33.526
33.515
33.505
33.498
33.491
33.484
33.478
33.472
33.466
33.462
33.458
33.456
33.455
33.454
33.454
33.453
33.452
33.451
33.449
33.446
33.442
33.437
33.431
33.424
33.419
33.415
33.413
33.414
33.42
33.432
33.449
33.475
33.509
33.551
33.601
33.659
33.724
33.796
33.874
33.956
34.042
34.13
34.22
34.311
34.403
34.495
34.585
34.673
34.757
34.836
34.91
34.977
35.039
35.094
35.144
35.188
35.227
35.261
35.291
35.317
35.339
35.356
35.367
35.374
35.378
35.38
35.382
35.383
35.384
35.384
35.384
35.384
35.383
35.382
35.38
35.378
35.374
35.367
35.358
35.346
35.332
35.314
35.293
35.269
35.243
35.217
35.191
35.165
35.141
35.117
35.095
35.074
35.055
35.038
35.024
35.011
35.002
34.995
34.991
34.991
34.994
35.0
35.007
35.016
35.024
35.031
35.037
35.041
35.045
35.048
35.05
35.051
35.051
35.05
35.048
35.045
35.039
35.029
35.015
34.998
34.978
34.957
34.935
34.912
34.891
34.87
34.851
34.832
34.814
34.797
34.78
34.763
34.746
34.73
34.713
34.696
34.68
34.664
34.649
34.635
34.622
34.609
34.596
34.584
34.571
34.556
34.54
34.522
34.5
34.477
34.451
34.425
34.399
34.374
34.349
34.324
34.299
34.275
34.25
34.225
34.199
34.172
34.145
34.116
34.088
34.059
34.031
34.004
33.979
33.955
33.933
33.912
33.894
33.879
33.866
33.856
33.848
33.842
33.838
33.835
33.833
33.832
33.832
33.833
33.835
33.836
33.837
33.837
33.836
33.834
33.83
33.824
33.815
33.805
33.793
33.782
33.77
33.759
33.747
33.736
33.723
33.711
33.699
33.687
33.675
33.662
33.648
33.634
33.621
33.609
33.598
33.59
33.586
33.587
33.595
33.612
33.638
33.675
33.723
33.781
33.849
33.926
34.01
34.1
34.194
34.292
34.391
34.491
34.591
34.689
34.784
34.876
34.964
35.047
35.124
35.194
35.257
35.312
35.36
35.4
35.432
35.458
35.477
35.492
35.503
35.51
35.516
35.521
35.525
35.528
35.53
35.53
35.528
35.522
35.514
35.505
35.494
35.483
35.472
35.46
35.449
35.437
35.427
35.418
35.41
35.403
35.396
35.389
35.381
35.373
35.365
35.357
35.35
35.343
35.335
35.328
35.321
35.313
35.304
35.295
35.283
35.27
35.255
35.24
35.224
35.21
35.199
35.189
35.183
35.179
35.177
35.177
35.179
35.181
35.184
35.187
35.19
35.192
35.195
35.197
35.2
35.201
35.201
35.2
35.195
35.188
35.178
35.167
35.153
35.136
35.118
35.099
35.079
35.058
35.037
35.014
34.991
34.967
34.942
34.917
34.891
34.865
34.84
34.814
34.788
34.763
34.738
34.713
34.689
34.666
34.644
34.624
34.606
34.588
34.572
34.557
34.541
34.526
34.511
34.497
34.482
34.468
34.454
34.44
34.424
34.408
34.391
34.372
34.352
34.33
34.307
34.283
34.259
34.236
34.213
34.192
34.172
34.153
34.136
34.119
34.103
34.088
34.075
34.063
34.051
34.04
34.027
34.015
34.001
33.988
33.975
33.963
33.954
33.947
33.944
33.944
33.946
33.95
33.954
33.959
33.964
33.968
33.972
33.975
33.976
33.978
33.979
33.98
33.98
33.98
33.979
33.978
33.975
33.971
33.965
33.956
33.945
33.932
33.918
33.903
33.889
33.876
33.866
33.86
33.858
33.863
33.876
33.899
33.931
33.972
34.02
34.075
34.136
34.206
34.281
34.364
34.451
