Trial 3:3back
34.413
34.406
34.4
34.395
34.391
34.391
34.396
34.41
34.437
34.481
34.545
34.631
34.743
34.882
35.049
35.243
35.463
35.706
35.97
36.249
36.539
36.834
37.127
37.414
37.688
37.947
38.186
38.402
38.594
38.76
38.897
39.005
39.085
39.139
39.17
39.179
39.171
39.147
39.11
39.063
39.008
38.946
38.879
38.809
38.738
38.668
38.599
38.533
38.47
38.41
38.354
38.3
38.251
38.204
38.161
38.12
38.082
38.046
38.013
37.982
37.954
37.929
37.907
37.888
37.872
37.858
37.847
37.836
37.826
37.814
37.799
37.783
37.763
37.739
37.712
37.68
37.645
37.608
37.568
37.525
37.481
37.435
37.389
37.344
37.3
37.258
37.218
37.182
37.148
37.117
37.088
37.061
37.034
37.006
36.978
36.95
36.922
36.895
36.868
36.842
36.816
36.791
36.768
36.744
36.72
36.696
36.671
36.644
36.617
36.589
36.562
36.535
36.509
36.482
36.457
36.433
36.409
36.385
36.361
36.337
36.313
36.289
36.265
36.242
36.22
36.199
36.179
36.16
36.142
36.124
36.107
36.09
36.074
36.06
36.046
36.033
36.021
36.009
35.999
35.988
35.978
35.967
35.955
35.944
35.933
35.922
35.912
35.903
35.895
35.886
35.877
35.867
35.855
35.842
35.827
35.811
35.794
35.778
35.763
35.75
35.738
35.729
35.723
35.72
35.72
35.721
35.724
35.727
35.73
35.733
35.735
35.735
35.732
35.727
35.718
35.705
35.687
35.665
35.64
35.613
35.583
35.551
35.517
35.479
35.438
35.395
35.348
35.298
35.239
35.171
35.096
35.016
34.936
34.858
34.785
34.72
34.664
34.619
34.582
34.554
34.533
34.519
34.511
34.508
34.507
34.509
34.51
34.509
34.505
34.497
34.485
34.468
34.447
34.421
34.39
34.353
34.312
34.267
34.218
34.167
34.113
34.058
34.0
33.938
33.875
33.809
33.741
33.673
33.603
33.533
33.463
33.393
33.323
33.254
33.187
33.12
33.055
32.99
32.927
32.863
32.8
32.736
32.672
32.609
32.546
32.485
32.428
32.379
32.34
32.317
32.313
32.331
32.376
32.451
32.557
32.694
32.863
33.061
33.285
33.531
33.796
34.075
34.362
34.652
34.94
35.219
35.486
35.736
35.965
36.17
36.35
36.502
36.628
36.727
36.8
36.849
36.875
36.879
36.864
36.831
36.785
36.726
36.659
36.585
36.507
36.427
36.348
36.27
36.196
36.125
36.059
35.998
35.942
35.892
35.848
35.808
35.772
35.74
35.71
35.683
35.656
35.63
35.604
35.579
35.555
35.533
35.512
35.492
35.472
35.452
35.433
35.413
35.392
35.37
35.347
35.324
35.301
35.279
35.257
35.237
35.22
35.205
35.193
35.185
35.181
35.18
35.182
35.185
35.189
35.192
35.193
35.192
35.187
35.18
35.171
35.161
35.151
35.141
35.131
35.124
35.119
35.119
35.123
35.132
35.145
35.164
35.187
35.214
35.245
35.279
35.313
35.346
35.375
35.4
35.417
35.427
35.428
35.422
35.409
35.387
35.358
35.321
35.278
35.231
35.18
35.127
35.075
35.024
34.975
34.93
34.888
34.85
34.817
34.787
34.76
34.735
34.712
34.688
34.665
34.64
34.614
34.587
34.56
34.533
34.505
34.477
34.448
34.418
34.388
34.357
34.326
34.295
34.263
34.23
34.199
34.168
34.14
34.117
34.099
34.086
34.079
34.075
34.074
34.075
34.079
34.083
34.089
34.095
34.101
34.106
34.112
34.117
34.122
34.129
34.135
34.142
34.148
34.153
34.157
34.16
34.163
34.165
34.167
34.167
34.164
34.159
34.152
34.144
34.134
34.124
34.114
34.103
34.092
34.08
34.068
34.058
34.051
34.046
34.045
34.047
34.053
34.061
34.072
34.084
34.099
34.114
34.129
34.144
34.158
34.169
34.177
34.181
34.182
34.179
34.171
34.16
34.146
34.13
34.112
34.095
34.08
34.067
34.057
34.051
34.051
34.055
34.064
34.076
34.092
34.109
34.127
34.146
34.163
34.178
34.191
34.202
34.21
34.213
34.214
34.211
34.205
34.196
34.183
34.165
34.143
34.117
34.087
34.055
34.021
33.988
33.957
33.93
33.909
33.896
33.891
33.898
33.918
33.955
34.013
34.094
34.202
34.34
34.51
34.711
34.941
35.198
35.475
35.768
36.069
36.374
36.676
36.969
37.249
37.512
37.754
37.972
38.165
38.33
38.466
38.574
38.654
38.708
38.738
38.745
38.734
38.706
38.665
38.612
38.55
38.481
38.408
38.331
38.255
38.18
38.107
38.037
37.97
37.905
37.842
37.779
37.716
37.653
37.588
37.522
37.455
37.386
37.317
37.248
37.18
37.111
37.044
36.978
36.913
36.851
36.79
36.731
36.673
36.617
36.562
36.507
36.452
36.398
36.344
36.288
36.231
36.172
36.111
36.048
35.982
35.914
35.846
35.778
35.712
35.649
35.588
35.532
35.481
35.438
35.402
35.375
35.358
35.349
35.348
35.356
35.371
35.394
35.423
35.457
35.495
35.535
35.575
35.615
35.653
35.689
35.723
35.755
35.785
35.812
35.834
35.853
35.867
35.877
35.883
35.886
35.885
35.882
35.876
35.869
35.859
35.846
35.83
35.811
35.789
35.763
35.734
35.701
35.665
35.627
35.587
35.547
35.507
35.467
35.43
35.394
35.359
35.326
35.292
35.26
35.228
35.197
35.166
35.137
35.108
35.08
35.052
35.026
35.002
34.978
34.957
34.936
34.917
34.898
34.881
34.864
34.849
34.834
34.821
34.807
34.794
34.779
34.763
34.748
34.732
34.716
34.7
34.685
34.672
34.659
34.647
34.636
34.625
34.613
34.6
34.586
34.57
34.554
34.538
34.521
34.505
34.491
34.482
34.479
34.48
34.484
34.489
34.492
34.494
34.492
34.487
34.479
34.469
34.456
34.443
34.43
34.417
34.404
34.393
34.383
34.376
34.372
34.369
34.368
34.37
34.373
34.378
34.384
34.392
34.399
34.407
34.415
34.421
34.426
34.427
34.426
34.421
34.413
34.401
34.387
34.369
34.348
34.324
34.296
34.264
34.229
34.191
34.15
34.108
34.066
34.026
33.987
33.952
33.921
33.894
33.874
33.859
33.851
33.849
33.855
33.868
33.891
33.924
33.971
34.035
34.118
34.223
34.352
34.508
34.69
34.897
35.126
35.373
35.634
35.905
36.182
36.458
36.731
36.995
37.248
37.485
37.703
37.899
38.072
38.22
38.344
38.443
38.52
38.576
38.612
38.63
38.633
38.623
38.601
38.571
38.533
38.489
38.444
38.397
38.351
38.306
38.264
38.224
38.187
38.152
38.12
38.09
38.063
38.038
38.015
37.994
37.975
37.957
37.939
37.921
37.902
37.882
37.861
37.84
37.819
37.797
37.775
37.753
37.728
37.701
37.671
37.638
37.602
37.563
37.521
37.475
37.425
37.372
37.314
37.254
37.192
37.128
37.065
37.003
36.942
36.884
36.828
36.777
36.731
36.69
36.653
36.618
36.585
36.552
36.521
36.492
36.466
36.445
36.429
36.42
36.417
36.42
36.428
36.441
36.459
36.481
36.506
36.534
36.563
36.591
36.618
36.64
36.656
36.666
36.668
36.662
36.647
36.622
36.587
36.543
36.492
36.434
36.373
36.309
36.245
36.182
36.12
36.061
36.007
35.956
35.91
35.87
35.835
35.806
35.781
35.759
35.739
35.72
35.701
35.683
35.663
35.643
35.621
35.598
35.575
35.551
35.526
35.503
35.479
35.456
35.433
35.411
35.389
35.367
35.347
35.328
35.31
35.294
35.279
35.266
35.255
35.246
35.238
35.23
35.223
35.215
35.207
35.198
35.187
35.173
35.158
35.141
35.121
35.098
35.073
35.047
35.019
34.99
34.963
34.937
34.915
34.898
34.885
34.878
34.875
34.877
34.883
34.891
34.9
34.908
34.915
34.918
34.917
34.911
34.901
34.885
34.865
34.841
34.815
34.786
34.757
34.727
34.698
34.67
34.642
34.616
34.59
34.567
34.544
34.523
34.503
34.484
34.465
34.445
34.424
34.401
34.376
34.351
34.325
34.3
34.275
34.252
34.232
34.213
34.196
34.18
34.166
34.152
34.14
34.126
34.112
34.097
34.081
34.063
34.043
34.022
34.0
33.978
33.956
33.933
33.91
33.889
33.868
33.847
33.826
33.806
33.785
33.764
33.742
33.719
33.697
33.676
33.656
33.638
33.622
33.61
33.601
33.597
33.602
33.619
33.65
33.7
33.772
33.87
33.998
34.158
34.351
34.577
34.833
35.117
35.424
35.749
36.083
36.422
36.757
37.083
37.394
37.683
37.947
38.181
38.382
38.547
38.678
38.776
38.844
38.883
38.899
38.893
38.868
38.828
38.775
38.712
38.642
38.568
38.495
38.424
38.358
38.299
38.248
38.205
38.17
38.141
38.115
38.091
38.067
38.041
38.012
37.978
37.939
37.894
37.843
37.788
37.731
37.672
37.615
37.558
37.505
37.454
37.407
37.362
37.319
37.279
37.242
37.207
37.175
37.143
37.113
37.084
37.053
37.022
36.989
36.954
36.917
36.877
36.835
36.79
36.743
36.695
36.646
36.598
36.552
36.507
36.466
36.428
36.394
36.364
36.338
36.317
36.301
36.289
36.282
36.279
36.278
36.279
36.281
36.284
36.289
36.295
36.301
36.307
36.313
36.319
36.324
36.328
36.33
36.329
36.325
36.318
36.308
36.295
36.278
36.258
36.234
36.207
36.176
36.142
36.103
36.06
36.013
35.963
35.911
35.857
35.802
35.747
35.694
35.642
35.592
35.545
35.501
35.459
35.421
35.384
35.35
35.318
35.287
35.256
35.224
35.192
35.159
35.123
35.086
35.046
35.004
34.962
34.92
34.878
34.837
34.798
34.76
34.725
34.691
34.66
34.63
34.601
34.574
34.548
34.524
34.5
34.478
34.456
34.436
34.418
34.401
34.385
34.37
34.356
34.343
34.329
34.312
34.289
34.259
34.223
34.183
34.141
34.099
34.059
34.023
33.993
33.971
33.956
33.949
33.948
33.953
33.96
33.969
33.979
33.987
33.993
33.996
33.995
33.991
33.984
33.976
33.965
33.953
33.94
33.925
33.907
33.888
33.866
33.843
33.82
33.798
33.777
33.757
33.739
33.722
33.706
33.69
33.675
33.662
33.648
33.636
33.624
33.614
33.604
33.595
33.586
33.576
33.565
33.552
33.537
33.519
33.499
33.477
33.455
33.433
33.411
33.389
33.369
33.35
33.332
33.317
33.303
33.291
33.278
33.263
33.249
33.233
33.217
33.201
33.183
33.164
33.145
33.126
33.109
33.094
33.081
33.072
33.066
33.062
33.063
33.068
33.079
33.097
33.125
33.166
33.223
33.299
33.4
33.529
33.69
33.885
34.112
34.371
34.658
34.966
35.29
35.624
35.96
36.292
36.613
36.918
37.2
37.454
37.679
37.873
38.033
38.161
38.259
38.329
38.372
38.393
38.392
38.373
38.339
38.293
38.238
38.177
38.111
38.044
37.975
37.907
37.84
37.776
37.715
37.657
37.602
37.549
37.501
37.455
37.412
37.371
37.331
37.291
37.252
37.212
37.171
37.129
37.087
37.044
37.002
36.962
36.924
36.888
36.854
36.822
36.79
36.76
36.73
36.7
36.67
36.639
36.609
36.578
36.546
36.513
36.478
36.442
36.406
36.369
36.333
36.298
36.263
36.229
36.198
36.17
36.145
36.125
36.109
36.097
36.09
36.087
36.088
36.094
36.105
36.121
36.141
36.167
36.195
36.226
36.257
36.289
36.319
36.345
36.368
36.386
36.398
36.404
36.404
36.398
36.386
36.369
36.348
36.322
36.294
36.263
36.229
36.192
36.151
36.109
36.066
36.024
35.983
35.943
35.905
35.868
35.832
35.796
35.761
35.727
35.693
35.659
35.625
35.59
35.554
35.515
35.475
35.433
35.389
35.344
35.298
35.252
35.206
35.16
35.115
35.072
35.031
34.993
34.959
34.927
34.899
34.874
34.851
34.831
34.814
34.799
34.786
34.774
34.763
34.752
34.74
34.727
34.713
34.698
34.681
34.661
34.638
34.613
34.586
34.559
34.533
34.508
34.485
34.464
34.445
34.427
34.41
34.395
34.38
34.367
34.355
34.344
34.334
34.326
34.318
34.312
34.305
34.297
34.286
34.273
34.257
34.239
34.219
34.196
34.173
34.148
34.122
34.095
34.066
34.037
34.009
33.983
33.958
33.937
33.919
33.904
33.891
33.881
33.872
33.864
33.856
33.849
33.842
33.835
33.828
33.822
33.815
33.808
33.799
33.789
33.776
33.76
33.741
33.72
33.696
33.67
33.642
33.613
33.584
33.555
33.527
33.501
33.477
33.455
33.433
33.412
33.392
33.373
33.354
33.337
33.32
33.305
33.294
33.287
33.286
33.293
33.312
33.343
33.39
33.454
33.539
33.65
33.787
33.954
34.152
34.379
34.635
34.917
35.221
35.541
35.873
36.209
36.543
36.868
37.178
37.468
37.732
37.968
38.172
38.343
38.481
38.586
38.66
38.706
38.726
38.724
38.704
38.667
38.617
38.557
38.487
38.412
38.332
38.249
38.164
38.081
38.001
37.925
37.853
37.787
37.726
37.67
37.618
37.57
37.525
37.482
37.44
37.4
37.361
37.323
37.285
37.248
37.21
37.172
37.134
37.094
37.055
37.014
36.974
36.933
36.893
36.853
36.812
36.771
36.729
36.687
36.645
36.601
36.557
36.511
36.463
36.414
36.365
36.316
36.267
36.219
36.173
36.129
36.088
36.05
36.015
35.985
35.959
35.938
35.921
35.909
35.899
35.893
35.89
35.889
35.89
35.893
35.897
35.902
35.909
35.917
35.926
35.935
35.945
35.954
35.962
35.967
35.969
35.966
35.959
35.948
35.934
35.918
35.899
35.878
35.855
35.83
35.803
35.774
35.742
35.709
35.675
35.639
35.601
35.562
35.522
35.482
35.441
35.401
35.36
35.32
35.28
35.241
35.201
35.16
35.12
35.081
35.044
35.009
34.977
34.946
34.918
34.89
34.863
34.836
34.808
34.779
34.748
34.713
34.677
34.638
34.597
34.555
34.512
34.468
34.422
34.374
34.326
34.279
34.232
34.186
34.142
34.101
34.063
34.028
33.997
33.97
33.946
33.927
33.912
33.901
33.892
33.886
33.881
33.879
33.877
33.875
33.873
33.869
33.863
33.856
33.847
33.836
33.823
33.808
33.79
33.771
33.75
33.729
33.707
33.686
33.666
33.648
33.632
33.618
33.605
33.592
33.579
33.565
33.551
33.536
33.521
33.507
33.492
33.477
33.462
33.447
33.432
33.417
33.401
33.384
33.367
33.349
33.33
33.312
33.294
33.278
33.264
33.252
33.243
33.237
33.233
33.23
33.228
33.224
33.219
33.213
33.205
33.195
33.184
33.171
33.158
33.144
33.129
33.113
33.096
33.078
33.058
33.038
33.017
32.996
32.974
32.952
32.93
32.909
32.89
32.873
32.86
32.852
32.848
32.849
32.855
32.863
32.875
32.89
32.908
32.933
32.965
33.006
33.059
33.128
33.215
33.325
33.46
33.624
33.819
34.045
34.301
34.584
34.888
35.208
35.539
35.872
36.203
36.525
36.83
37.115
37.374
37.603
37.801
37.967
38.1
38.203
38.277
38.326
38.35
38.354
38.339
38.308
38.263
38.207
38.144
38.075
38.004
37.931
37.858
37.786
37.715
37.646
37.579
37.514
37.452
37.393
37.335
37.28
37.226
37.175
37.125
37.077
37.031
36.989
36.948
36.909
36.872
36.836
36.8
36.766
36.732
36.698
36.664
36.629
36.594
36.558
36.52
36.482
36.442
36.401
36.36
36.318
36.275
36.231
36.187
36.142
36.097
36.052
36.009
35.967
35.928
35.892
35.859
35.829
35.804
35.785
35.772
35.765
35.763
35.767
35.776
35.789
35.808
35.832
35.86
35.893
35.928
35.966
36.003
36.04
36.075
36.108
36.138
36.164
36.186
36.203
36.213
36.217
36.214
36.204
36.187
36.165
36.136
36.102
36.064
36.023
35.979
35.934
35.888
35.842
35.796
35.75
35.705
35.663
35.623
35.587
35.553
35.52
35.488
35.455
35.421
35.385
35.346
35.304
35.26
35.213
35.164
35.114
35.063
35.01
34.957
34.904
34.852
34.802
34.754
34.708
34.666
34.627
34.592
34.559
34.53
34.502
34.477
34.452
34.428
34.404
34.382
34.361
34.342
34.326
34.311
34.298
34.288
34.279
34.272
34.266
34.262
34.257
34.252
34.245
34.236
34.225
34.212
34.196
34.179
34.16
34.141
34.123
34.105
34.088
34.072
34.058
34.045
34.033
34.02
34.007
33.993
33.979
33.965
33.951
33.937
33.925
33.913
33.903
33.894
33.887
33.882
33.876
33.871
33.866
33.861
33.855
33.848
33.841
33.834
33.829
33.824
33.819
33.815
33.81
33.804
33.797
33.789
33.779
33.768
33.754
33.738
33.72
33.701
33.681
33.661
33.642
33.622
33.603
33.585
33.567
33.551
33.537
33.525
33.515
33.506
33.499
33.492
33.487
33.482
33.479
33.476
33.474
33.472
33.47
33.467
33.463
33.461
33.459
33.46
33.465
33.474
33.492
33.52
33.564
33.629
33.719
33.838
33.99
34.176
34.396
34.649
34.931
35.236
35.561
35.896
36.236
36.573
36.899
37.207
37.493
37.752
37.981
38.179
38.344
38.477
38.577
38.647
38.689
38.705
38.699
38.676
38.639
38.591
38.536
38.475
38.409
38.342
38.272
38.202
38.133
38.065
37.999
37.935
37.873
37.813
37.753
37.694
37.635
37.578
37.521
37.466
37.412
37.36
37.31
37.264
37.221
37.18
37.142
37.105
37.071
37.038
37.006
36.974
36.942
36.91
36.877
36.844
36.811
36.777
36.741
36.705
36.667
36.628
36.587
36.545
36.501
36.458
36.415
36.376
36.339
36.306
36.277
36.251
36.229
36.211
36.196
36.185
36.177
36.174
36.174
36.178
36.185
36.196
36.209
36.223
36.238
36.253
36.268
36.283
36.296
36.308
36.319
36.329
36.337
36.343
36.348
36.35
36.35
36.346
36.34
36.33
36.317
36.302
36.283
36.262
36.238
36.212
36.182
36.149
36.113
36.074
36.032
35.988
35.946
35.911
35.882
35.859
35.839
35.82
35.799
35.775
35.747
35.713
35.673
35.628
35.578
35.524
35.465
35.403
35.34
35.278
35.216
35.156
35.099
35.044
34.992
34.942
34.896
34.852
34.813
34.776
34.741
34.709
34.68
34.652
34.627
34.603
34.581
34.56
34.538
34.516
34.492
34.468
34.445
34.421
34.398
34.375
34.353
34.332
34.311
34.292
34.273
34.256
34.239
34.224
34.21
34.196
34.182
34.169
34.156
34.143
34.132
34.12
34.108
34.096
34.082
34.068
34.053
34.037
34.019
33.999
33.979
33.958
33.936
33.915
33.895
33.875
33.855
33.834
33.813
33.793
33.772
33.753
33.735
33.718
33.702
33.685
33.67
33.655
33.641
33.628
33.615
33.602
33.589
33.576
33.562
33.549
33.536
33.523
33.51
33.499
33.487
33.476
33.466
33.458
33.449
33.442
33.434
33.427
33.418
33.408
33.396
33.384
33.37
33.355
33.338
33.319
33.3
33.282
33.263
33.246
33.231
33.216
33.203
33.189
33.175
33.16
33.144
33.128
33.114
33.103
33.098
33.102
33.118
33.148
33.196
33.267
33.365
33.493
33.654
33.85
34.079
34.339
34.627
34.937
35.264
35.6
35.938
36.27
36.59
36.892
37.171
37.424
37.647
37.839
38.002
38.135
38.239
38.315
38.366
38.394
38.402
38.392
38.367
38.33
38.283
38.229
38.17
38.108
38.044
37.978
37.911
37.842
37.774
37.706
37.638
37.572
37.509
37.447
37.39
37.336
37.285
37.238
37.192
37.149
37.108
37.067
37.027
36.987
36.948
36.909
36.869
36.828
36.788
36.747
36.708
36.669
36.631
36.593
36.555
36.516
36.477
36.436
36.394
36.351
36.305
36.259
36.211
36.163
36.116
36.07
36.028
35.989
35.954
35.922
35.896
35.874
35.858
35.848
35.844
35.847
35.855
35.867
35.884
35.903
35.924
35.946
35.969
35.993
36.017
36.04
36.063
36.085
36.105
36.124
36.141
36.155
36.168
36.176
36.181
36.182
36.18
36.174
36.165
36.152
36.135
36.114
36.087
36.056
36.019
35.979
35.936
35.892
35.848
35.804
35.76
35.717
35.675
35.634
35.593
35.553
35.514
35.474
35.433
35.392
35.349
35.306
35.262
35.218
35.175
35.131
35.087
35.042
34.998
34.955
34.913
34.873
34.834
34.798
34.764
34.732
34.701
34.671
34.644
34.619
34.596
34.574
34.554
34.535
34.517
34.502
34.489
34.478
34.469
34.461
34.454
34.446
34.439
34.432
34.425
34.417
34.408
34.398
34.387
34.376
34.364
34.352
34.34
34.327
34.315
34.303
34.29
34.277
34.264
34.252
34.239
34.226
34.214
34.203
34.192
34.182
34.172
34.161
34.149
34.135
34.12
34.104
34.087
34.069
34.05
34.032
34.015
34.0
33.986
33.974
33.963
33.953
33.946
33.94
33.935
33.931
33.927
33.923
33.919
33.914
33.908
33.901
33.893
33.885
33.875
33.864
33.851
33.837
33.821
33.803
33.784
33.764
33.743
33.721
33.699
33.678
33.658
33.638
33.619
33.601
33.584
33.567
33.551
33.534
33.516
33.495
33.473
33.448
33.42
33.392
33.365
33.34
33.32
33.306
33.3
33.302
33.315
33.34
33.38
33.436
33.512
33.61
33.736
33.892
34.079
34.298
34.549
34.826
35.127
35.445
35.775
36.11
36.444
36.773
37.09
37.39
37.669
37.923
38.147
38.341
38.502
38.631
38.73
38.8
38.844
38.864
38.864
38.846
38.813
38.768
38.714
38.655
38.592
38.527
38.462
38.397
38.334
38.272
38.213
38.155
38.099
38.044
37.992
37.94
37.889
37.838
37.787
37.736
37.685
37.635
37.586
37.536
37.486
37.435
37.383
37.332
37.283
37.235
37.19
37.148
37.109
37.071
37.035
36.999
36.963
36.927
36.891
36.855
36.818
36.781
36.743
36.703
36.661
