Trial 3:3back
34.022
34.002
33.981
33.958
33.934
33.909
33.884
33.859
33.833
33.807
33.781
33.756
33.733
33.715
33.701
33.693
33.691
33.695
33.708
33.731
33.765
33.812
33.872
33.945
34.032
34.133
34.246
34.372
34.508
34.653
34.807
34.966
35.128
35.292
35.454
35.614
35.77
35.919
36.063
36.202
36.335
36.46
36.576
36.682
36.776
36.857
36.923
36.975
37.013
37.038
37.053
37.058
37.056
37.046
37.033
37.017
37.0
36.981
36.964
36.946
36.929
36.912
36.893
36.874
36.855
36.836
36.818
36.801
36.783
36.765
36.747
36.729
36.711
36.691
36.67
36.646
36.62
36.59
36.556
36.521
36.484
36.447
36.413
36.381
36.354
36.331
36.312
36.295
36.28
36.266
36.254
36.243
36.232
36.222
36.214
36.206
36.201
36.197
36.195
36.194
36.196
36.197
36.196
36.193
36.188
36.18
36.167
36.15
36.129
36.105
36.079
36.051
36.023
35.993
35.964
35.935
35.905
35.874
35.842
35.81
35.776
35.743
35.709
35.678
35.648
35.619
35.591
35.563
35.534
35.504
35.471
35.435
35.398
35.36
35.321
35.283
35.246
35.21
35.175
35.14
35.106
35.07
35.034
34.997
34.958
34.919
34.881
34.844
34.809
34.777
34.747
34.717
34.689
34.661
34.633
34.605
34.577
34.548
34.52
34.492
34.466
34.44
34.414
34.388
34.362
34.336
34.312
34.289
34.269
34.252
34.236
34.221
34.206
34.192
34.178
34.164
34.148
34.132
34.114
34.095
34.075
34.054
34.033
34.011
33.988
33.964
33.941
33.921
33.905
33.894
33.889
33.89
33.899
33.917
33.945
33.984
34.033
34.094
34.165
34.247
34.339
34.442
34.556
34.682
34.817
34.96
35.109
35.262
35.417
35.574
35.731
35.886
36.037
36.183
36.323
36.454
36.575
36.685
36.785
36.872
36.947
37.009
37.059
37.096
37.122
37.136
37.139
37.134
37.122
37.103
37.081
37.058
37.036
37.015
36.996
36.978
36.961
36.946
36.932
36.919
36.905
36.889
36.871
36.849
36.822
36.792
36.76
36.726
36.691
36.657
36.622
36.586
36.55
36.515
36.481
36.448
36.415
36.384
36.355
36.327
36.301
36.277
36.257
36.241
36.228
36.217
36.209
36.202
36.196
36.19
36.182
36.174
36.166
36.16
36.155
36.152
36.15
36.15
36.151
36.151
36.149
36.145
36.138
36.127
36.111
36.093
36.071
36.049
36.026
36.002
35.978
35.954
35.933
35.913
35.893
35.872
35.849
35.823
35.795
35.764
35.73
35.693
35.655
35.615
35.574
35.532
35.488
35.442
35.396
35.348
35.299
35.25
35.204
35.162
35.125
35.092
35.064
35.038
35.014
34.991
34.967
34.942
34.916
34.889
34.86
34.831
34.801
34.772
34.744
34.716
34.687
34.658
34.627
34.595
34.562
34.531
34.5
34.472
34.446
34.422
34.4
34.379
34.361
34.344
34.327
34.311
34.294
34.276
34.257
34.237
34.215
34.192
34.167
34.139
34.109
34.077
34.042
34.006
33.97
33.933
33.897
33.862
33.83
33.8
33.774
33.752
33.736
33.725
33.722
33.725
33.737
33.757
33.786
33.825
33.874
33.934
34.005
34.087
34.177
34.276
34.383
34.498
34.621
34.752
34.888
35.031
35.176
35.322
35.468
35.612
35.753
35.892
36.027
36.155
36.276
36.387
36.489
36.582
36.663
36.733
36.793
36.84
36.876
36.899
36.912
36.915
36.909
36.895
36.875
36.85
36.822
36.792
36.762
36.732
36.704
36.68
36.659
36.641
36.623
36.605
36.585
36.565
36.542
36.516
36.487
36.456
36.422
36.385
36.347
36.307
36.264
36.221
36.176
36.131
36.087
36.046
36.008
35.974
35.945
35.921
35.903
35.891
35.883
35.878
35.873
35.868
35.862
35.854
35.845
35.835
35.825
35.817
35.808
35.8
35.791
35.782
35.773
35.763
35.752
35.74
35.726
35.712
35.697
35.681
35.666
35.651
35.637
35.623
35.607
35.588
35.567
35.543
35.515
35.483
35.446
35.403
35.352
35.29
35.218
35.135
35.045
34.948
34.847
34.744
34.642
34.544
34.454
34.372
34.301
34.242
34.195
34.16
34.134
34.115
34.101
34.091
34.082
34.072
34.06
34.044
34.025
34.004
33.981
33.958
33.936
33.915
33.894
33.873
33.852
33.832
33.815
33.799
33.786
33.775
33.765
33.757
33.748
33.738
33.728
33.716
33.702
33.688
33.673
33.657
33.642
33.627
33.611
33.593
33.576
33.559
33.541
33.523
33.504
33.486
33.469
33.454
33.44
33.427
33.414
33.401
33.388
33.376
33.368
33.363
33.362
33.367
33.378
33.396
33.423
33.46
33.507
33.563
33.628
33.702
33.784
33.873
33.971
34.076
34.189
34.309
34.434
34.564
34.698
34.835
34.975
35.114
35.252
35.387
35.519
35.645
35.766
35.88
35.986
36.083
36.171
36.247
36.312
36.366
36.41
36.444
36.468
36.481
36.485
36.481
36.47
36.452
36.43
36.404
36.375
36.346
36.317
36.288
36.26
36.233
36.208
36.182
36.156
36.13
36.104
36.082
36.066
36.054
36.044
36.035
36.025
36.013
35.998
35.979
35.957
35.932
35.902
35.868
35.832
35.793
35.752
35.71
35.668
35.628
35.591
35.56
35.534
35.515
35.503
35.497
35.496
35.499
35.504
35.512
35.521
35.531
35.541
35.551
35.559
35.566
35.571
35.572
35.571
35.567
35.559
35.547
35.531
35.511
35.488
35.463
35.436
35.41
35.384
35.36
35.338
35.317
35.295
35.272
35.248
35.222
35.193
35.162
35.129
35.096
35.062
35.027
34.993
34.959
34.926
34.893
34.859
34.822
34.782
34.74
34.699
34.658
34.619
34.582
34.546
34.513
34.481
34.45
34.419
34.388
34.357
34.327
34.297
34.27
34.244
34.22
34.197
34.175
34.152
34.128
34.102
34.074
34.043
34.01
33.978
33.947
33.918
33.891
33.867
33.845
33.825
33.806
33.79
33.777
33.766
33.759
33.754
33.752
33.754
33.76
33.767
33.776
33.785
33.793
33.802
33.812
33.825
33.841
33.863
33.89
33.922
33.96
34.005
34.058
34.121
34.196
34.284
34.386
34.502
34.632
34.776
34.931
35.099
35.276
35.463
35.656
35.854
36.057
36.263
36.471
36.679
36.885
37.087
37.282
37.468
37.643
37.802
37.943
38.064
38.162
38.237
38.29
38.322
38.335
38.331
38.314
38.283
38.243
38.195
38.142
38.086
38.028
37.969
37.909
37.849
37.787
37.725
37.664
37.602
37.542
37.482
37.422
37.362
37.302
37.24
37.177
37.112
37.045
36.976
36.904
36.828
36.748
36.666
36.581
36.496
36.41
36.325
36.242
36.164
36.091
36.024
35.965
35.912
35.866
35.827
35.794
35.766
35.743
35.724
35.709
35.696
35.686
35.679
35.675
35.673
35.671
35.669
35.663
35.655
35.641
35.623
35.602
35.578
35.554
35.528
35.502
35.474
35.444
35.413
35.38
35.344
35.305
35.264
35.221
35.177
35.134
35.091
35.05
35.011
34.973
34.936
34.898
34.859
34.82
34.778
34.737
34.695
34.654
34.613
34.574
34.536
34.498
34.462
34.426
34.39
34.353
34.317
34.281
34.247
34.215
34.186
34.159
34.136
34.115
34.096
34.076
34.055
34.032
34.008
33.982
33.954
33.926
33.897
33.868
33.837
33.805
33.773
33.74
33.708
33.675
33.644
33.615
33.589
33.566
33.545
33.526
33.508
33.49
33.47
33.446
33.42
33.393
33.366
33.339
33.314
33.29
33.27
33.252
33.237
33.228
33.223
33.226
33.236
33.255
33.285
33.327
33.381
33.45
33.532
33.628
33.738
33.86
33.996
34.144
34.304
34.474
34.654
34.84
35.029
35.22
35.411
35.597
35.777
35.947
36.106
36.251
36.383
36.502
36.608
36.702
36.786
36.862
36.929
36.99
37.043
37.091
37.134
37.17
37.199
37.221
37.237
37.245
37.247
37.243
37.234
37.218
37.197
37.171
37.139
37.104
37.066
37.027
36.988
36.948
36.906
36.864
36.822
36.78
36.737
36.694
36.651
36.606
36.56
36.513
36.465
36.418
36.373
36.33
36.289
36.252
36.217
36.186
36.159
36.136
36.117
36.101
36.088
36.077
36.068
36.059
36.05
36.041
36.032
36.022
36.011
35.999
35.986
35.972
35.958
35.943
35.927
35.911
35.894
35.877
35.858
35.839
35.819
35.799
35.778
35.757
35.737
35.718
35.699
35.679
35.657
35.631
35.603
35.572
35.537
35.502
35.465
35.428
35.391
35.353
35.314
35.274
35.234
35.193
35.15
35.107
35.064
35.023
34.984
34.947
34.912
34.879
34.847
34.814
34.78
34.745
34.708
34.671
34.633
34.596
34.561
34.527
34.494
34.463
34.433
34.402
34.371
34.337
34.302
34.265
34.227
34.19
34.154
34.12
34.086
34.054
34.022
33.99
33.959
33.927
33.897
33.87
33.844
33.82
33.799
33.78
33.764
33.748
33.733
33.718
33.702
33.685
33.667
33.649
33.634
33.62
33.611
33.605
33.604
33.608
33.618
33.636
33.663
33.699
33.746
33.808
33.884
33.977
34.085
34.211
34.352
34.506
34.672
34.847
35.027
35.213
35.4
35.587
35.77
35.949
36.123
36.29
36.449
36.599
36.738
36.867
36.983
37.086
37.176
37.253
37.318
37.37
37.411
37.441
37.461
37.474
37.479
37.479
37.473
37.462
37.447
37.427
37.404
37.378
37.349
37.32
37.289
37.256
37.222
37.186
37.148
37.109
37.07
37.029
36.988
36.948
36.907
36.867
36.826
36.787
36.75
36.713
36.677
36.641
36.606
36.572
36.539
36.507
36.477
36.449
36.422
36.398
36.375
36.355
36.337
36.322
36.308
36.295
36.284
36.275
36.269
36.264
36.259
36.254
36.247
36.239
36.23
36.219
36.206
36.191
36.174
36.155
36.134
36.111
36.089
36.069
36.051
36.032
36.011
35.989
35.964
35.937
35.907
35.874
35.84
35.803
35.764
35.723
35.681
35.638
35.595
35.553
35.51
35.468
35.427
35.388
35.351
35.316
35.283
35.252
35.221
35.189
35.154
35.117
35.078
35.038
34.997
34.957
34.918
34.88
34.843
34.808
34.773
34.739
34.706
34.675
34.646
34.619
34.595
34.572
34.551
34.531
34.511
34.49
34.468
34.444
34.419
34.391
34.364
34.337
34.31
34.284
34.258
34.233
34.207
34.181
34.155
34.129
34.104
34.081
34.059
34.037
34.015
33.994
33.972
33.95
33.929
33.908
33.89
33.876
33.867
33.864
33.87
33.886
33.913
33.952
34.003
34.067
34.144
34.235
34.339
34.456
34.588
34.735
34.896
35.069
35.254
35.447
35.647
35.85
36.052
36.249
36.44
36.622
36.794
36.955
37.106
37.245
37.374
37.491
37.596
37.69
37.771
37.841
37.9
37.947
37.982
38.006
38.018
38.021
38.016
38.004
37.987
37.967
37.943
37.917
37.887
37.854
37.821
37.788
37.754
37.721
37.687
37.654
37.62
37.584
37.548
37.511
37.472
37.431
37.388
37.343
37.297
37.25
37.204
37.157
37.112
37.067
37.024
36.984
36.947
36.912
36.882
36.854
36.83
36.808
36.791
36.778
36.769
36.765
36.764
36.765
36.767
36.77
36.771
36.771
36.768
36.762
36.753
36.738
36.719
36.695
36.669
36.64
36.61
36.58
36.549
36.518
36.487
36.457
36.427
36.397
36.367
36.336
36.304
36.268
36.231
36.191
36.149
36.104
36.056
36.006
35.953
35.901
35.849
35.797
35.746
35.696
35.649
35.603
35.56
35.519
35.48
35.443
35.407
35.373
35.339
35.307
35.277
35.247
35.217
35.186
35.153
35.117
35.08
35.041
35.002
34.964
34.926
34.89
34.854
34.818
34.782
34.746
34.709
34.669
34.629
34.589
34.55
34.514
34.481
34.451
34.423
34.397
34.371
34.346
34.321
34.298
34.277
34.256
34.237
34.219
34.203
34.187
34.17
34.152
34.133
34.112
34.09
34.068
34.047
34.029
34.015
34.008
34.006
34.009
34.016
34.029
34.049
34.079
34.12
34.175
34.246
34.334
34.44
34.562
34.702
34.857
35.026
35.206
35.394
35.587
35.781
35.975
36.165
36.351
36.531
36.706
36.872
37.028
37.174
37.307
37.427
37.533
37.626
37.705
37.771
37.826
37.869
37.902
37.925
37.94
37.947
37.946
37.939
37.926
37.909
37.887
37.861
37.832
37.799
37.765
37.729
37.692
37.655
37.618
37.58
37.542
37.501
37.459
37.416
37.373
37.329
37.284
37.238
37.19
37.141
37.09
37.039
36.989
36.941
36.896
36.853
36.812
36.774
36.739
36.708
36.681
36.659
36.64
36.625
36.614
36.606
36.602
36.599
36.598
36.597
36.596
36.593
36.587
36.577
36.565
36.549
36.529
36.506
36.48
36.453
36.425
36.398
36.369
36.34
36.311
36.282
36.252
36.223
36.195
36.168
36.14
36.111
36.08
36.047
36.012
35.975
35.935
35.893
35.849
35.804
35.758
35.713
35.669
35.626
35.585
35.544
35.504
35.465
35.427
35.389
35.35
35.31
35.268
35.225
35.183
35.142
35.103
35.066
35.031
34.997
34.964
34.93
34.898
34.866
34.834
34.803
34.771
34.74
34.708
34.676
34.642
34.606
34.568
34.528
34.486
34.444
34.4
34.358
34.318
34.28
34.244
34.211
34.179
34.149
34.119
34.089
34.059
34.03
34.003
33.977
33.953
33.93
33.91
33.892
33.875
33.859
33.845
33.832
33.822
33.816
33.815
33.822
33.836
33.859
33.891
33.93
33.978
34.035
34.102
34.18
34.27
34.372
34.488
34.617
34.759
34.911
35.069
35.232
35.395
35.558
35.718
35.872
36.02
36.162
36.296
36.42
36.536
36.642
36.738
36.821
36.891
36.949
36.994
37.026
37.048
37.06
37.064
37.062
37.055
37.045
37.032
37.017
37.002
36.986
36.968
36.948
36.924
36.897
36.867
36.836
36.804
36.772
36.739
36.705
36.67
36.634
36.596
36.557
36.518
36.479
36.439
36.4
36.361
36.323
36.287
36.254
36.223
36.195
36.17
36.147
36.126
36.107
36.089
36.071
36.053
36.033
36.012
35.992
35.973
35.955
35.939
35.926
35.916
35.908
35.902
35.898
35.897
35.896
35.896
35.895
35.892
35.888
35.882
35.875
35.864
35.851
35.835
35.817
35.796
35.775
35.752
35.728
35.703
35.676
35.647
35.616
35.585
35.553
35.52
35.485
35.447
35.408
35.366
35.322
35.276
35.23
35.183
35.136
35.089
35.042
34.997
34.955
34.914
34.875
34.837
34.801
34.765
34.73
34.697
34.665
34.634
34.604
34.576
34.548
34.521
34.496
34.473
34.452
34.431
34.41
34.388
34.364
34.337
34.308
34.276
34.243
34.209
34.176
34.142
34.109
34.076
34.045
34.013
33.982
33.95
33.92
33.89
33.862
33.834
33.807
33.783
33.759
33.736
33.713
33.69
33.667
33.645
33.623
33.604
33.589
33.579
33.576
33.579
33.59
33.61
33.638
33.675
33.72
33.774
33.838
33.913
34.002
34.103
34.217
34.344
34.481
34.626
34.778
34.934
35.091
35.249
35.403
35.552
35.696
35.833
35.963
36.083
36.191
36.288
36.374
36.448
36.509
36.558
36.594
36.622
36.641
36.654
36.662
36.665
36.665
36.663
36.658
36.65
36.64
36.626
36.61
36.59
36.567
36.54
36.51
36.479
36.447
36.416
36.385
36.355
36.324
36.292
36.259
36.223
36.187
36.149
36.11
36.072
36.035
35.999
35.966
35.936
35.909
35.885
35.862
35.842
35.822
35.803
35.787
35.773
35.761
35.751
35.742
35.734
35.727
35.721
35.714
35.708
35.703
35.698
35.693
35.686
35.676
35.664
35.648
35.631
35.611
35.591
35.571
35.553
35.535
35.52
35.506
35.494
35.484
35.475
35.466
35.456
35.444
35.429
35.409
35.386
35.359
35.329
35.297
35.261
35.223
35.182
35.14
35.097
35.054
35.012
34.971
34.931
34.892
34.856
34.823
34.791
34.763
34.736
34.711
34.686
34.662
34.638
34.616
34.594
34.572
34.549
34.525
34.498
34.47
34.441
34.409
34.376
34.341
34.303
34.262
34.22
34.178
34.135
34.093
34.052
34.017
33.986
33.962
33.941
33.925
33.911
33.898
33.885
33.869
33.851
33.831
33.81
33.786
33.761
33.734
33.706
33.678
33.649
33.621
33.595
33.574
33.559
33.553
33.557
33.572
33.598
33.635
33.683
33.742
33.811
33.892
33.985
34.091
34.209
34.342
34.487
34.643
34.809
34.981
35.156
35.333
35.508
35.679
35.844
36.003
36.154
36.296
36.428
36.549
36.658
36.756
36.841
36.913
36.971
37.015
37.046
37.065
37.075
37.076
37.071
37.062
37.05
37.035
37.019
37.001
36.981
36.956
36.927
36.894
36.858
36.822
36.784
36.748
36.713
36.681
36.651
36.625
36.602
36.579
36.558
36.536
36.513
36.489
36.465
36.44
36.416
36.392
36.37
36.349
36.33
36.315
36.302
36.292
36.282
36.272
36.262
36.252
36.24
36.229
36.22
36.214
36.211
36.211
36.214
36.218
36.224
36.23
36.234
36.237
36.236
36.233
36.226
36.214
36.199
36.18
36.158
36.133
36.105
36.076
36.047
36.017
35.987
35.957
35.927
35.896
35.864
35.83
35.794
35.755
35.714
35.67
35.624
35.577
35.531
35.487
35.444
35.402
35.362
35.323
35.285
35.249
35.215
35.18
35.146
35.112
35.079
35.046
35.014
34.983
34.952
34.922
34.891
34.861
34.831
34.803
34.776
34.749
34.722
34.694
34.665
34.636
34.607
34.576
34.545
34.513
34.479
34.442
34.404
34.365
34.326
34.285
34.245
34.203
34.162
34.122
34.084
34.046
34.009
33.975
33.943
33.914
33.888
33.867
33.849
33.835
33.816
33.789
33.756
33.721
33.686
33.655
33.634
33.626
33.635
33.664
33.715
33.788
33.884
34.002
34.14
34.294
34.464
34.648
34.842
35.045
35.256
35.47
35.688
35.907
36.124
36.336
36.541
36.738
36.924
37.099
37.262
37.412
37.549
37.673
37.783
37.879
37.961
38.031
38.088
38.134
38.167
38.189
38.2
38.2
38.19
38.171
38.144
38.112
38.076
38.038
37.998
37.957
37.916
37.874
37.833
37.79
37.745
37.699
37.651
37.6
37.548
37.495
37.441
37.389
37.339
37.291
37.245
37.202
37.16
37.12
37.079
37.037
36.995
36.953
36.912
36.873
36.836
36.803
36.775
36.75
36.73
36.713
36.699
36.686
36.674
36.663
36.654
36.646
36.639
36.631
36.624
36.616
36.606
36.596
36.582
36.564
36.541
36.515
36.484
36.45
36.414
36.377
36.339
36.301
36.262
36.223
36.182
36.141
36.097
36.051
36.002
35.951
35.898
35.846
35.794
35.742
35.691
35.64
35.587
35.534
35.481
35.429
35.38
35.332
35.287
35.243
35.201
35.161
35.123
35.087
35.052
35.017
34.982
34.946
34.909
34.872
34.834
34.797
34.758
34.719
34.678
34.636
34.594
34.552
34.509
34.465
34.422
34.377
34.334
34.29
34.249
34.209
34.17
34.133
34.097
34.063
34.032
34.004
33.977
33.953
33.93
33.908
33.886
33.865
33.844
33.824
33.806
33.788
33.773
33.76
33.751
33.747
33.748
33.754
33.768
33.79
33.822
33.864
33.917
33.981
34.057
34.147
34.249
34.365
34.495
34.638
34.793
34.96
35.136
35.321
35.513
35.711
35.91
36.11
36.306
36.498
36.684
36.863
37.034
37.195
37.346
37.486
37.612
37.722
37.818
37.898
37.963
38.014
38.051
38.075
38.089
38.093
38.09
38.081
38.067
38.052
38.034
38.014
37.991
37.967
37.941
37.914
37.887
37.86
37.833
37.807
37.782
37.756
37.73
37.702
37.671
37.637
37.598
37.555
37.507
37.458
37.407
37.355
37.304
37.253
37.206
37.161
37.12
37.081
37.043
37.005
36.966
36.927
36.888
36.85
36.813
36.778
36.745
36.714
36.685
36.66
36.637
36.614
36.592
36.569
36.544
36.518
36.491
36.461
36.43
36.398
36.363
36.328
36.29
36.249
36.204
36.153
36.096
36.033
35.966
35.897
35.827
35.757
35.688
35.621
35.555
35.492
35.431
35.372
35.314
35.257
35.202
35.148
35.097
35.048
35.003
34.959
34.917
34.876
34.834
34.793
34.751
34.708
34.665
34.622
34.579
34.539
34.499
34.463
34.428
34.396
34.366
34.337
34.311
34.286
34.262
34.238
34.212
34.184
34.155
34.124
34.093
34.06
34.027
33.994
33.962
33.932
33.902
33.874
33.846
33.818
33.79
33.761
33.73
33.697
33.663
33.628
33.592
33.557
33.523
33.492
33.463
33.436
33.413
33.393
33.378
33.368
33.363
33.363
33.368
33.378
33.392
33.414
33.443
33.482
33.531
33.591
33.662
33.746
33.842
33.953
34.076
34.213
34.361
34.522
34.693
34.873
35.063
35.262
35.468
35.679
35.892
36.105
36.316
36.523
36.724
36.915
37.095
37.263
37.418
37.558
37.68
37.784
37.869
37.935
37.982
38.012
38.025
38.024
38.01
37.984
37.949
37.907
37.859
37.808
37.754
37.699
37.643
37.588
37.535
37.484
37.436
37.392
37.353
37.316
37.281
37.246
37.21
37.173
37.133
37.091
37.048
37.005
36.962
36.919
36.877
36.836
36.796
36.758
36.72
36.682
36.645
36.607
36.571
36.537
36.507
36.48
36.459
36.443
36.432
36.425
36.421
36.417
36.414
36.41
36.405
36.399
36.391
36.384
36.376
36.366
36.355
36.341
36.325
36.306
36.285
36.26
36.231
36.2
36.165
36.128
36.09
36.052
36.014
35.976
35.939
35.902
35.865
35.828
35.789
35.749
35.706
35.662
35.617
35.574
35.531
35.492
35.454
35.418
35.383
35.348
35.313
35.277
35.242
35.206
35.17
35.133
35.096
35.059
35.022
34.985
34.946
34.906
34.865
