Trial 3:3back
32.085
32.038
31.993
31.951
31.913
31.879
31.848
31.822
31.799
31.779
31.764
31.752
31.742
31.735
31.731
31.728
31.726
31.725
31.725
31.724
31.723
31.72
31.717
31.711
31.702
31.691
31.677
31.661
31.643
31.623
31.603
31.584
31.567
31.556
31.553
31.56
31.581
31.619
31.68
31.768
31.889
32.048
32.252
32.507
32.817
33.187
33.619
34.111
34.66
35.261
35.907
36.588
37.295
38.013
38.728
39.428
40.099
40.731
41.313
41.837
42.296
42.686
43.006
43.254
43.435
43.55
43.603
43.601
43.549
43.454
43.322
43.16
42.972
42.765
42.543
42.311
42.073
41.833
41.593
41.355
41.121
40.89
40.662
40.437
40.216
40.0
39.788
39.579
39.372
39.167
38.965
38.763
38.563
38.364
38.165
37.968
37.771
37.574
37.378
37.181
36.985
36.788
36.592
36.397
36.202
36.01
35.82
35.635
35.456
35.284
35.121
34.966
34.823
34.691
34.574
34.471
34.383
34.31
34.253
34.212
34.187
34.179
34.187
34.209
34.246
34.296
34.357
34.429
34.509
34.596
34.689
34.785
34.884
34.982
35.078
35.171
35.26
35.343
35.42
35.489
35.55
35.602
35.646
35.678
35.7
35.711
35.709
35.696
35.671
35.633
35.583
35.523
35.453
35.375
35.29
35.199
35.106
35.009
34.912
34.813
34.715
34.616
34.518
34.422
34.328
34.235
34.143
34.052
33.962
33.873
33.787
33.702
33.619
33.537
33.456
33.376
33.295
33.216
33.136
33.058
32.98
32.903
32.827
32.752
32.678
32.605
32.533
32.461
32.389
32.319
32.251
32.187
32.127
32.071
32.021
31.975
31.933
31.895
31.86
31.827
31.795
31.766
31.74
31.717
31.696
31.678
31.664
31.652
31.645
31.643
31.644
31.649
31.658
31.671
31.685
31.701
31.718
31.734
31.749
31.762
31.772
31.778
31.781
31.782
31.779
31.776
31.77
31.765
31.758
31.75
31.74
31.729
31.718
31.706
31.696
31.688
31.684
31.686
31.697
31.719
31.755
31.809
31.884
31.988
32.127
32.309
32.541
32.83
33.179
33.591
34.065
34.601
35.192
35.831
36.51
37.215
37.934
38.652
39.355
40.03
40.665
41.248
41.77
42.224
42.607
42.916
43.152
43.318
43.416
43.451
43.429
43.357
43.243
43.093
42.914
42.713
42.495
42.264
42.026
41.785
41.543
41.303
41.066
40.832
40.602
40.375
40.152
39.929
39.708
39.488
39.269
39.052
38.836
38.621
38.408
38.195
37.983
37.771
37.56
37.35
37.141
36.933
36.725
36.52
36.317
36.116
35.919
35.726
35.538
35.357
35.183
35.017
34.861
34.717
34.585
34.469
34.368
34.284
34.217
34.167
34.134
34.118
34.118
34.133
34.164
34.209
34.268
34.339
34.421
34.511
34.609
34.713
34.822
34.933
35.046
35.157
35.265
35.368
35.466
35.556
35.637
35.708
35.768
35.816
35.852
35.875
35.885
35.885
35.873
35.852
35.822
35.783
35.736
35.681
35.62
35.552
35.478
35.399
35.314
35.224
35.129
35.03
34.926
34.821
34.713
34.606
34.499
34.392
34.287
34.183
34.079
33.976
33.874
33.773
33.675
33.579
33.486
33.397
33.311
33.228
33.147
33.068
32.991
32.916
32.841
32.769
32.698
32.63
32.566
32.504
32.446
32.391
32.339
32.291
32.247
32.207
32.171
32.139
32.11
32.083
32.06
32.037
32.017
31.997
31.979
31.962
31.946
31.932
31.919
31.905
31.892
31.878
31.862
31.843
31.823
31.802
31.779
31.757
31.735
31.716
31.701
31.691
31.686
31.688
31.696
31.715
31.746
31.793
31.862
31.956
32.083
32.248
32.456
32.713
33.021
33.383
33.8
34.271
34.791
35.356
35.957
36.585
37.227
37.872
38.506
39.117
39.695
40.228
40.708
41.13
41.49
41.784
42.012
42.175
42.276
42.318
42.309
42.254
42.16
42.034
41.882
41.708
41.518
41.315
41.104
40.887
40.667
40.446
40.226
40.006
39.788
39.57
39.354
39.14
38.928
38.719
38.513
38.309
38.109
37.912
37.717
37.522
37.327
37.132
36.936
36.739
36.539
36.338
36.136
35.931
35.726
35.518
35.311
35.103
34.899
34.699
34.506
34.322
34.148
33.987
33.84
33.709
33.596
33.503
33.429
33.375
33.34
33.324
33.325
33.341
33.372
33.418
33.478
33.551
33.635
33.73
33.834
33.944
34.059
34.176
34.291
34.406
34.521
34.639
34.759
34.878
34.992
35.097
35.189
35.267
35.327
35.37
35.395
35.402
35.393
35.369
35.332
35.284
35.224
35.157
35.082
35.003
34.92
34.835
34.75
34.665
34.579
34.492
34.404
34.315
34.224
34.133
34.042
33.951
33.86
33.769
33.678
33.586
33.493
33.401
33.31
33.221
33.135
33.053
32.975
32.9
32.828
32.756
32.684
32.611
32.537
32.463
32.388
32.315
32.242
32.171
32.101
32.034
31.969
31.908
31.849
31.795
31.747
31.704
31.668
31.638
31.613
31.593
31.576
31.562
31.551
31.543
31.537
31.534
31.533
31.534
31.537
31.542
31.548
31.553
31.559
31.563
31.567
31.569
31.57
31.569
31.565
31.558
31.549
31.537
31.525
31.512
31.499
31.488
31.48
31.477
31.482
31.499
31.532
31.587
31.668
31.782
31.935
32.133
32.381
32.683
33.042
33.459
33.931
34.455
35.025
35.632
36.267
36.918
37.572
38.219
38.844
39.436
39.985
40.482
40.921
41.296
41.605
41.847
42.023
42.135
42.189
42.19
42.144
42.058
41.937
41.788
41.616
41.428
41.227
41.019
40.807
40.594
40.382
40.171
39.963
39.758
39.555
39.354
39.154
38.956
38.76
38.566
38.375
38.185
37.996
37.809
37.623
37.438
37.256
37.077
36.901
36.728
36.557
36.387
36.217
36.045
35.874
35.702
35.53
35.359
35.19
35.024
34.861
34.704
34.553
34.412
34.281
34.162
34.057
33.966
33.89
33.828
33.78
33.746
33.727
33.723
33.734
33.76
33.8
33.852
33.915
33.989
34.07
34.157
34.249
34.346
34.444
34.544
34.644
34.741
34.833
34.919
34.998
35.069
35.132
35.186
35.231
35.266
35.291
35.306
35.31
35.305
35.29
35.268
35.238
35.202
35.159
35.109
35.051
34.987
34.915
34.839
34.757
34.673
34.586
34.498
34.408
34.317
34.226
34.133
34.04
33.947
33.853
33.76
33.667
33.576
33.485
33.396
33.307
33.219
33.132
33.045
32.959
32.874
32.79
32.708
32.626
32.546
32.467
32.391
32.316
32.243
32.174
32.107
32.043
31.982
31.926
31.872
31.823
31.778
31.738
31.704
31.676
31.653
31.635
31.621
31.611
31.604
31.6
31.596
31.592
31.589
31.586
31.583
31.581
31.579
31.578
31.578
31.578
31.578
31.58
31.583
31.587
31.594
31.603
31.613
31.624
31.634
31.643
31.65
31.655
31.657
31.658
31.658
31.658
31.659
31.664
31.674
31.693
31.723
31.769
31.838
31.935
32.065
32.237
32.454
32.723
33.047
33.427
33.864
34.355
34.896
35.477
36.09
36.722
37.361
37.995
38.609
39.193
39.734
40.225
40.659
41.031
41.339
41.581
41.761
41.886
41.96
41.989
41.974
41.921
41.831
41.711
41.564
41.395
41.206
41.004
40.79
40.57
40.345
40.118
39.892
39.668
39.447
39.23
39.017
38.81
38.608
38.411
38.22
38.035
37.855
37.679
37.508
37.339
37.174
37.011
36.849
36.689
36.528
36.366
36.203
36.039
35.874
35.709
35.543
35.379
35.215
35.055
34.897
34.743
34.593
34.447
34.308
34.178
34.059
33.955
33.865
33.792
33.735
33.694
33.669
33.66
33.667
33.689
33.727
33.78
33.845
33.922
34.008
34.101
34.2
34.303
34.408
34.512
34.615
34.713
34.807
34.894
34.975
35.048
35.114
35.173
35.223
35.265
35.298
35.321
35.335
35.34
35.335
35.321
35.297
35.265
35.223
35.173
35.114
35.048
34.974
34.895
34.811
34.725
34.636
34.547
34.457
34.369
34.283
34.198
34.115
34.032
33.951
33.869
33.787
33.705
33.621
33.535
33.448
33.358
33.268
33.176
33.085
32.993
32.904
32.815
32.729
32.646
32.565
32.488
32.414
32.344
32.278
32.216
32.158
32.104
32.055
32.009
31.967
31.927
31.89
31.858
31.828
31.802
31.779
31.759
31.742
31.728
31.717
31.71
31.707
31.706
31.708
31.713
31.72
31.729
31.739
31.749
31.758
31.766
31.774
31.781
31.789
31.797
31.806
31.816
31.829
31.842
31.856
31.869
31.882
31.893
31.902
31.909
31.914
31.916
31.916
31.911
31.902
31.89
31.875
31.858
31.839
31.819
31.8
31.782
31.766
31.754
31.746
31.745
31.754
31.776
31.817
31.883
31.979
32.113
32.289
32.514
32.79
33.123
33.515
33.963
34.467
35.02
35.613
36.237
36.878
37.525
38.164
38.782
39.367
39.907
40.395
40.823
41.186
41.484
41.714
41.879
41.981
42.025
42.017
41.964
41.872
41.747
41.598
41.427
41.242
41.045
40.842
40.636
40.429
40.225
40.025
39.828
39.635
39.446
39.259
39.076
38.895
38.715
38.536
38.358
38.181
38.003
37.824
37.645
37.467
37.289
37.112
36.935
36.76
36.586
36.412
36.24
36.07
35.902
35.735
35.57
35.407
35.246
35.087
34.931
34.779
34.632
34.494
34.366
34.251
34.148
34.061
33.989
33.932
33.891
33.866
33.857
33.865
33.888
33.926
33.976
34.038
34.109
34.189
34.276
34.371
34.47
34.574
34.68
34.786
34.892
34.995
35.095
35.19
35.281
35.365
35.441
35.508
35.566
35.613
35.65
35.675
35.69
35.695
35.689
35.674
35.651
35.618
35.577
35.529
35.474
35.413
35.347
35.277
35.202
35.123
35.04
34.953
34.863
34.771
34.676
34.58
34.481
34.381
34.28
34.179
34.078
33.98
33.884
33.793
33.707
33.625
33.548
33.474
33.402
33.331
33.26
33.19
33.119
33.047
32.975
32.903
32.831
32.759
32.688
32.618
32.55
32.484
32.421
32.362
32.307
32.257
32.212
32.171
32.134
32.102
32.072
32.044
32.019
31.996
31.975
31.956
31.939
31.925
31.912
31.902
31.893
31.887
31.883
31.882
31.886
31.893
31.905
31.92
31.938
31.957
31.977
31.997
32.017
32.037
32.056
32.075
32.094
32.114
32.134
32.153
32.172
32.189
32.205
32.218
32.229
32.239
32.245
32.249
32.25
32.247
32.242
32.235
32.228
32.222
32.219
32.22
32.227
32.243
32.269
32.308
32.365
32.444
32.55
32.69
32.871
33.097
33.374
33.703
34.086
34.523
35.01
35.54
36.107
36.701
37.309
37.921
38.524
39.105
39.653
40.158
40.612
41.008
41.344
41.616
41.825
41.973
42.06
42.091
42.072
42.008
41.905
41.769
41.608
41.426
41.229
41.02
40.804
40.585
40.366
40.148
39.934
39.724
39.519
39.317
39.118
38.922
38.728
38.535
38.343
38.151
37.96
37.77
37.58
37.39
37.201
37.012
36.824
36.637
36.451
36.266
36.081
35.898
35.717
35.537
35.359
35.185
35.014
34.847
34.686
34.53
34.383
34.244
34.117
34.001
33.899
33.813
33.742
33.687
33.647
33.623
33.614
33.619
33.639
33.673
33.722
33.785
33.859
33.944
34.037
34.137
34.242
34.352
34.464
34.578
34.691
34.8
34.905
35.004
35.096
35.181
35.257
35.324
35.382
35.428
35.462
35.482
35.491
35.489
35.476
35.454
35.424
35.388
35.345
35.295
35.24
35.179
35.113
35.042
34.968
34.891
34.813
34.733
34.651
34.567
34.48
34.392
34.301
34.209
34.117
34.025
33.936
33.848
33.766
33.692
33.625
33.565
33.511
33.46
33.41
33.359
33.305
33.247
33.184
33.115
33.041
32.963
32.881
32.796
32.711
32.627
32.546
32.468
32.392
32.32
32.251
32.185
32.123
32.064
32.009
31.959
31.913
31.871
31.834
31.801
31.772
31.746
31.724
31.704
31.686
31.67
31.656
31.643
31.632
31.621
31.609
31.597
31.583
31.568
31.552
31.533
31.514
31.493
31.47
31.446
31.419
31.39
31.358
31.323
31.286
31.246
31.205
31.161
31.117
31.072
31.027
30.982
30.938
30.898
30.864
30.84
30.829
30.835
30.863
30.92
31.009
31.139
31.313
31.538
31.817
32.152
32.544
32.992
33.492
34.039
34.626
35.242
35.879
36.524
37.164
37.786
38.38
38.934
39.44
39.89
40.279
40.603
40.862
41.054
41.183
41.252
41.266
41.23
41.151
41.035
40.888
40.717
40.528
40.326
40.116
39.902
39.687
39.473
39.263
39.06
38.863
38.673
38.489
38.31
38.134
37.96
37.786
37.611
37.436
37.261
37.086
36.913
36.741
36.568
36.396
36.224
36.05
35.876
35.702
35.527
35.353
35.18
35.009
34.84
34.674
34.514
34.36
34.214
34.079
33.957
33.85
33.76
33.688
33.634
33.6
33.584
33.587
33.609
33.647
33.703
33.773
33.857
33.953
34.06
34.174
34.294
34.418
34.542
34.667
34.79
34.911
35.027
35.137
35.241
35.337
35.426
35.508
35.583
35.651
35.713
35.767
35.814
35.852
35.882
35.903
35.916
35.921
35.917
35.906
35.888
35.864
35.832
35.795
35.751
35.702
35.647
35.586
35.52
35.449
35.372
35.29
35.204
35.113
35.018
34.92
34.819
34.714
34.607
34.497
34.385
34.272
34.158
34.044
33.931
33.821
33.715
33.615
33.52
33.433
33.352
33.28
33.215
33.158
33.107
33.062
33.022
32.984
32.949
32.915
32.882
32.848
32.814
32.777
32.737
32.695
32.651
32.605
32.557
32.509
32.461
32.412
32.364
32.316
32.269
32.223
32.178
32.136
32.097
32.061
32.031
32.007
31.992
31.989
32.0
32.031
32.085
32.17
32.29
32.45
32.656
32.912
33.219
33.579
33.991
34.449
34.951
35.488
36.052
36.631
37.215
37.792
38.352
38.884
39.38
39.831
40.23
40.573
40.857
41.079
41.24
41.342
41.389
41.385
41.336
41.248
41.126
40.978
40.807
40.62
40.42
40.213
40.0
39.786
39.571
39.359
39.15
38.945
38.745
38.549
38.358
38.168
37.978
37.789
37.601
37.412
37.224
37.036
36.847
36.656
36.462
36.266
36.066
35.863
35.658
35.452
35.246
35.042
34.841
34.644
34.452
34.266
34.086
33.909
33.736
33.569
33.413
33.271
33.144
33.037
32.952
32.889
32.85
32.835
32.844
32.875
32.928
33.001
33.093
33.199
33.317
33.444
33.577
33.715
33.856
33.997
34.137
34.275
34.409
34.539
34.663
34.781
34.89
34.993
35.087
35.174
35.252
35.321
35.38
35.428
35.464
35.488
35.498
35.495
35.479
35.452
35.414
35.366
35.31
35.246
35.176
35.101
35.022
34.939
34.855
34.769
34.683
34.596
34.508
34.42
34.331
34.243
34.155
34.069
33.985
33.901
33.819
33.739
33.661
33.585
33.512
33.442
33.375
33.312
33.251
33.193
33.135
33.079
33.023
32.967
32.91
32.852
32.792
32.731
32.669
32.606
32.543
32.482
32.422
32.365
32.309
32.255
32.202
32.149
32.095
32.041
31.986
31.931
31.878
31.828
31.785
31.751
31.729
31.723
31.737
31.775
31.843
31.947
32.094
32.289
32.541
32.853
33.227
33.664
34.162
34.715
35.316
35.957
36.625
37.308
37.991
38.66
39.303
39.906
40.461
40.959
41.395
41.763
42.061
42.288
42.446
42.539
42.569
42.545
42.47
42.353
42.198
42.014
41.807
41.584
41.35
41.11
40.866
40.622
40.378
40.137
39.898
39.663
39.431
39.204
38.981
38.761
38.545
38.332
38.122
37.915
37.711
37.51
37.313
37.125
36.944
36.77
36.6
36.432
36.265
36.095
35.921
35.741
35.554
35.361
35.163
34.96
34.755
34.552
34.353
34.162
33.982
33.814
33.66
33.522
33.402
33.302
33.222
33.162
33.123
33.104
33.105
33.124
33.16
33.212
33.277
33.353
33.44
33.536
33.64
33.751
33.866
33.984
34.105
34.226
34.346
34.464
34.578
34.687
34.788
34.882
34.967
35.042
35.106
35.16
35.201
35.23
35.246
35.25
35.242
35.223
35.193
35.153
35.106
35.051
34.99
34.924
34.854
34.781
34.707
34.632
34.556
34.481
34.407
34.334
34.264
34.196
34.13
34.065
34.0
33.936
33.871
33.806
33.74
33.673
33.606
33.538
33.471
33.405
33.34
33.278
33.22
33.164
33.113
33.064
33.019
32.976
32.935
32.894
32.854
32.814
32.772
32.73
32.687
32.643
32.597
32.55
32.501
32.451
32.401
32.353
32.308
32.268
32.234
32.208
32.192
32.189
32.203
32.239
32.304
32.404
32.545
32.735
32.979
33.279
33.639
34.059
34.538
35.073
35.657
36.281
36.935
37.604
38.275
38.936
39.573
40.175
40.731
41.231
41.67
42.04
42.341
42.572
42.736
42.836
42.877
42.865
42.808
42.712
42.584
42.429
42.252
42.06
41.856
41.644
41.428
41.21
40.992
40.778
40.565
40.356
40.148
39.943
39.739
39.536
39.335
39.134
38.934
38.733
38.531
38.328
38.124
37.919
37.714
37.509
37.305
37.101
36.896
36.69
36.482
36.272
36.06
35.847
35.635
35.425
35.22
35.022
34.832
34.652
34.484
34.329
34.189
34.065
33.959
33.87
33.797
33.742
33.703
33.681
33.676
33.687
33.713
33.754
33.807
33.872
33.949
34.035
34.129
34.231
34.339
34.453
34.568
34.678
34.779
34.87
34.953
35.029
35.099
35.165
35.228
35.287
35.344
35.397
35.446
35.49
35.528
35.558
35.579
35.591
35.592
35.581
35.56
35.528
35.486
35.436
35.378
35.313
35.24
35.161
35.076
34.987
34.894
34.798
34.701
34.604
34.507
34.412
34.318
34.226
34.135
34.044
33.955
33.866
33.778
33.691
33.604
33.518
33.432
33.348
33.264
33.182
33.101
33.022
32.943
32.865
32.787
32.709
32.632
32.556
32.481
32.409
32.337
32.269
32.202
32.138
32.078
32.021
31.97
31.925
31.889
31.864
31.852
31.858
31.885
31.938
32.023
32.147
32.316
32.535
32.81
33.145
33.544
34.007
34.531
35.11
35.735
36.396
37.081
37.775
38.466
39.138
39.779
40.377
40.921
41.403
41.817
42.162
42.434
42.635
42.768
42.836
42.846
42.803
42.715
42.588
42.43
42.245
42.041
41.825
41.6
41.372
41.143
40.917
40.693
40.473
40.257
40.043
39.833
39.626
39.421
39.218
39.016
38.814
38.613
38.412
38.212
38.014
37.817
37.622
37.426
37.231
37.034
36.837
36.639
36.44
36.24
36.04
35.84
35.641
35.442
35.246
35.054
34.867
34.687
34.517
34.359
34.215
34.086
33.975
33.882
33.808
33.753
33.715
33.695
33.691
33.704
33.731
33.772
33.823
33.885
33.956
34.034
34.119
34.21
34.306
34.407
34.511
34.617
34.723
34.827
34.928
35.024
35.113
35.195
35.269
35.335
35.392
35.441
35.479
35.507
35.524
35.532
35.53
35.519
35.501
35.475
35.441
35.399
35.349
35.292
35.228
35.158
35.083
35.003
34.919
34.833
34.746
34.658
34.571
34.483
34.396
34.308
34.22
34.131
34.042
33.953
33.864
33.776
33.689
33.603
33.518
33.435
33.352
33.271
33.19
33.112
33.036
32.962
32.889
32.817
32.744
32.671
32.597
32.524
32.451
32.38
32.311
32.244
32.181
32.122
32.067
32.016
31.973
31.94
31.92
31.92
31.943
31.998
32.088
32.222
32.404
32.641
32.937
33.297
33.72
34.206
34.749
35.343
35.979
36.644
37.326
38.013
38.688
39.338
39.949
40.511
41.014
41.452
41.82
42.116
42.34
42.495
42.582
42.608
42.578
42.501
42.382
42.228
42.047
41.843
41.623
41.392
41.155
40.915
40.675
40.438
40.205
39.975
39.749
39.526
39.306
39.088
38.873
38.66
38.448
38.239
38.032
37.825
37.619
37.413
37.207
37.0
36.791
36.581
36.368
36.153
35.936
35.717
35.497
35.277
35.059
34.845
34.637
34.437
34.245
34.065
33.897
33.743
33.605
33.482
33.376
33.287
33.214
33.159
33.12
33.098
33.093
33.104
33.132
33.175
33.233
33.303
33.385
33.476
33.575
33.681
33.792
33.905
34.019
34.134
34.247
34.356
34.46
34.558
34.649
34.731
34.804
34.866
34.916
34.953
34.979
34.993
34.995
34.986
34.967
34.939
34.903
34.859
34.809
34.753
34.692
34.628
34.561
34.491
34.419
34.343
34.265
34.185
34.102
34.017
33.93
33.841
33.752
33.663
33.575
33.489
33.403
33.318
33.235
33.154
33.076
33.001
32.93
32.864
32.801
32.74
32.681
32.621
32.561
32.499
32.437
32.375
32.312
32.248
32.184
32.119
32.055
31.991
31.927
31.863
31.799
31.738
31.679
31.623
31.57
31.521
31.476
31.434
31.398
31.366
31.339
31.319
31.308
31.309
31.326
31.364
31.429
31.527
31.664
31.847
32.082
32.374
32.728
33.146
33.628
34.171
34.769
35.414
36.095
36.799
37.511
38.217
38.902
39.554
40.158
40.705
41.187
41.597
41.934
42.196
42.385
42.503
42.555
42.546
42.483
42.375
42.227
42.048
41.844
41.622
41.387
41.145
40.899
40.652
40.407
40.165
39.926
39.69
39.456
39.223
38.992
38.763
38.535
38.309
38.083
37.859
37.635
37.411
37.188
36.965
36.741
36.516
36.29
36.064
35.837
35.611
35.386
35.162
34.941
34.724
34.511
34.303
34.103
33.912
33.732
33.565
33.413
33.277
33.157
33.056
32.976
32.915
32.877
32.859
32.862
32.885
32.925
32.982
33.055
33.142
33.241
33.351
33.47
33.598
33.733
33.873
34.015
34.158
34.298
34.435
34.565
34.688
34.802
34.907
35.001
35.084
35.156
35.216
35.265
35.302
35.327
35.342
35.345
35.339
35.323
35.298
