Trial 3:3back
35.627
35.602
35.578
35.554
35.532
35.51
35.49
35.471
35.453
35.437
35.425
35.415
35.408
35.405
35.405
35.408
35.416
35.427
35.443
35.461
35.483
35.506
35.531
35.556
35.581
35.605
35.628
35.649
35.668
35.685
35.699
35.711
35.72
35.725
35.728
35.728
35.726
35.722
35.716
35.708
35.697
35.685
35.672
35.657
35.643
35.628
35.614
35.601
35.587
35.574
35.561
35.549
35.538
35.527
35.517
35.506
35.494
35.482
35.47
35.457
35.445
35.432
35.42
35.407
35.394
35.38
35.366
35.352
35.338
35.323
35.308
35.293
35.278
35.263
35.248
35.234
35.22
35.207
35.195
35.183
35.171
35.16
35.151
35.142
35.134
35.128
35.123
35.12
35.117
35.116
35.115
35.115
35.115
35.116
35.117
35.117
35.116
35.113
35.109
35.104
35.097
35.09
35.082
35.074
35.065
35.057
35.049
35.042
35.035
35.028
35.022
35.016
35.011
35.007
35.004
35.005
35.008
35.015
35.027
35.043
35.064
35.09
35.122
35.16
35.204
35.255
35.313
35.376
35.444
35.517
35.595
35.676
35.759
35.844
35.928
36.011
36.091
36.167
36.237
36.3
36.356
36.404
36.444
36.475
36.499
36.514
36.523
36.526
36.524
36.517
36.507
36.495
36.481
36.464
36.446
36.426
36.405
36.382
36.36
36.337
36.315
36.293
36.272
36.251
36.231
36.211
36.191
36.172
36.153
36.133
36.112
36.092
36.07
36.049
36.028
36.007
35.986
35.966
35.945
35.926
35.906
35.887
35.87
35.853
35.838
35.825
35.814
35.804
35.796
35.79
35.785
35.781
35.779
35.777
35.775
35.773
35.772
35.772
35.773
35.776
35.781
35.787
35.796
35.806
35.817
35.829
35.84
35.852
35.863
35.873
35.881
35.888
35.892
35.895
35.896
35.895
35.893
35.891
35.887
35.882
35.876
35.869
35.861
35.853
35.846
35.837
35.827
35.817
35.804
35.791
35.776
35.76
35.743
35.725
35.707
35.688
35.668
35.648
35.627
35.606
35.584
35.562
35.54
35.519
35.5
35.482
35.465
35.45
35.437
35.426
35.417
35.411
35.407
35.404
35.401
35.399
35.397
35.394
35.393
35.391
35.389
35.385
35.381
35.374
35.366
35.357
35.346
35.334
35.32
35.306
35.29
35.272
35.254
35.235
35.215
35.197
35.18
35.164
35.151
35.14
35.132
35.126
35.123
35.121
35.121
35.121
35.122
35.123
35.124
35.125
35.125
35.126
35.125
35.125
35.124
35.123
35.121
35.118
35.115
35.11
35.104
35.097
35.09
35.08
35.07
35.06
35.049
35.038
35.028
35.018
35.01
35.003
34.999
34.997
35.0
35.008
35.022
35.042
35.069
35.103
35.145
35.194
35.25
35.313
35.381
35.455
35.533
35.615
35.699
35.786
35.873
35.959
36.043
36.123
36.197
36.265
36.326
36.378
36.422
36.459
36.487
36.507
36.52
36.525
36.522
36.513
36.498
36.478
36.455
36.43
36.404
36.377
36.352
36.327
36.304
36.283
36.264
36.247
36.232
36.218
36.205
36.192
36.179
36.166
36.153
36.139
36.124
36.107
36.089
36.068
36.046
36.022
35.998
35.972
35.946
35.919
35.892
35.864
35.838
35.813
35.789
35.768
35.748
35.731
35.717
35.706
35.699
35.695
35.695
35.698
35.703
35.711
35.721
35.733
35.747
35.763
35.779
35.795
35.81
35.823
35.835
35.846
35.854
35.86
35.864
35.866
35.866
35.865
35.863
35.859
35.855
35.851
35.845
35.84
35.833
35.826
35.818
35.808
35.797
35.784
35.769
35.754
35.738
35.722
35.705
35.689
35.673
35.658
35.643
35.629
35.614
35.6
35.586
35.572
35.56
35.547
35.535
35.522
35.509
35.495
35.481
35.466
35.45
35.433
35.415
35.398
35.38
35.363
35.348
35.334
35.321
35.309
35.299
35.29
35.282
35.274
35.267
35.26
35.253
35.246
35.239
35.232
35.225
35.217
35.21
35.202
35.194
35.186
35.177
35.169
35.162
35.154
35.147
35.141
35.134
35.128
35.121
35.114
35.107
35.099
35.09
35.081
35.072
35.064
35.056
35.049
35.042
35.037
35.032
35.029
35.025
35.023
35.02
35.017
35.014
35.011
35.007
35.003
34.998
34.993
34.988
34.983
34.979
34.975
34.973
34.971
34.97
34.968
34.965
34.962
34.959
34.955
34.951
34.946
34.941
34.935
34.931
34.93
34.931
34.936
34.946
34.961
34.982
35.011
35.047
35.091
35.144
35.204
35.273
35.348
35.428
35.511
35.598
35.685
35.772
35.857
35.938
36.014
36.083
36.146
36.201
36.249
36.29
36.323
36.348
36.364
36.373
36.375
36.37
36.359
36.344
36.324
36.302
36.277
36.252
36.226
36.202
36.178
36.155
36.133
36.111
36.089
36.067
36.045
36.021
35.996
35.969
35.942
35.914
35.887
35.859
35.832
35.804
35.775
35.746
35.717
35.688
35.662
35.637
35.615
35.596
35.579
35.564
35.552
35.543
35.535
35.529
35.524
35.52
35.516
35.513
35.512
35.513
35.515
35.52
35.526
35.533
35.541
35.551
35.561
35.572
35.584
35.596
35.607
35.618
35.629
35.64
35.65
35.66
35.669
35.678
35.687
35.695
35.702
35.708
35.712
35.714
35.714
35.712
35.708
35.701
35.691
35.679
35.664
35.648
35.63
35.612
35.594
35.576
35.557
35.539
35.521
35.503
35.487
35.47
35.453
35.436
35.418
35.399
35.38
35.361
35.343
35.324
35.305
35.285
35.267
35.249
35.234
35.221
35.211
35.203
35.198
35.193
35.19
35.189
35.188
35.187
35.185
35.182
35.176
35.168
35.157
35.143
35.126
35.107
35.088
35.067
35.047
35.028
35.012
34.997
34.985
34.976
34.969
34.964
34.961
34.96
34.96
34.962
34.965
34.968
34.971
34.974
34.976
34.976
34.977
34.977
34.977
34.978
34.978
34.979
34.979
34.978
34.977
34.975
34.973
34.972
34.97
34.969
34.969
34.968
34.968
34.969
34.972
34.977
34.987
35.003
35.025
35.055
35.093
35.14
35.194
35.257
35.328
35.404
35.485
35.568
35.651
35.734
35.813
35.888
35.958
36.022
36.078
36.127
36.168
36.201
36.225
36.242
36.251
36.253
36.25
36.241
36.227
36.21
36.188
36.163
36.136
36.107
36.078
36.049
36.021
35.994
35.968
35.944
35.922
35.902
35.885
35.869
35.854
35.839
35.825
35.81
35.795
35.78
35.764
35.746
35.727
35.706
35.684
35.659
35.634
35.607
35.58
35.552
35.524
35.497
35.471
35.446
35.423
35.403
35.386
35.373
35.364
35.358
35.357
35.358
35.362
35.369
35.379
35.391
35.405
35.422
35.441
35.461
35.481
35.502
35.523
35.543
35.562
35.579
35.594
35.606
35.616
35.623
35.627
35.63
35.631
35.63
35.627
35.622
35.614
35.604
35.594
35.582
35.57
35.558
35.546
35.534
35.522
35.509
35.495
35.482
35.467
35.453
35.439
35.424
35.411
35.398
35.386
35.376
35.366
35.356
35.346
35.336
35.327
35.316
35.305
35.292
35.279
35.264
35.247
35.229
35.21
35.191
35.172
35.153
35.134
35.116
35.1
35.084
35.069
35.055
35.044
35.034
35.025
35.018
35.013
35.009
35.006
35.005
35.004
35.003
35.002
35.0
34.997
34.992
34.986
34.98
34.973
34.966
34.958
34.952
34.945
34.94
34.936
34.933
34.931
34.931
34.933
34.936
34.941
34.948
34.958
34.971
34.988
35.008
35.034
35.064
35.1
35.143
35.192
35.248
35.31
35.377
35.448
35.521
35.596
35.671
35.743
35.812
35.877
35.936
35.988
36.032
36.068
36.096
36.117
36.131
36.139
36.143
36.142
36.139
36.134
36.126
36.115
36.103
36.089
36.073
36.055
36.036
36.015
35.994
35.973
35.951
35.929
35.907
35.886
35.864
35.842
35.82
35.797
35.773
35.748
35.722
35.695
35.666
35.637
35.605
35.572
35.537
35.502
35.466
35.432
35.4
35.37
35.342
35.318
35.298
35.282
35.271
35.265
35.263
35.266
35.271
35.28
35.291
35.304
35.318
35.332
35.346
35.361
35.374
35.388
35.402
35.415
35.429
35.442
35.454
35.465
35.474
35.482
35.489
35.493
35.497
35.498
35.498
35.497
35.492
35.485
35.476
35.464
35.452
35.438
35.426
35.414
35.403
35.393
35.384
35.375
35.365
35.356
35.347
35.337
35.327
35.315
35.302
35.289
35.274
35.26
35.244
35.227
35.209
35.19
35.169
35.148
35.127
35.105
35.084
35.064
35.045
35.026
35.007
34.988
34.97
34.953
34.936
34.92
34.905
34.89
34.876
34.863
34.85
34.838
34.828
34.82
34.813
34.808
34.804
34.802
34.802
34.802
34.803
34.805
34.807
34.808
34.808
34.807
34.805
34.803
34.8
34.797
34.793
34.789
34.783
34.775
34.767
34.757
34.747
34.737
34.726
34.715
34.704
34.694
34.683
34.674
34.665
34.658
34.653
34.649
34.647
34.647
34.649
34.651
34.655
34.659
34.664
34.669
34.673
34.678
34.682
34.685
34.689
34.692
34.696
34.701
34.709
34.72
34.734
34.754
34.78
34.812
34.852
34.899
34.955
35.018
35.09
35.168
35.253
35.342
35.433
35.525
35.614
35.701
35.783
35.859
35.928
35.99
36.043
36.089
36.126
36.155
36.176
36.19
36.196
36.197
36.193
36.184
36.17
36.153
36.133
36.11
36.085
36.059
36.03
36.0
35.969
35.938
35.907
35.878
35.851
35.826
35.804
35.782
35.762
35.744
35.726
35.709
35.692
35.675
35.657
35.639
35.619
35.6
35.58
35.561
35.543
35.526
35.509
35.493
35.478
35.462
35.447
35.432
35.417
35.402
35.388
35.375
35.363
35.353
35.344
35.336
35.331
35.329
35.328
35.33
35.335
35.341
35.349
35.358
35.369
35.381
35.394
35.408
35.422
35.437
35.452
35.466
35.478
35.49
35.499
35.506
35.511
35.513
35.513
35.509
35.504
35.495
35.484
35.47
35.454
35.436
35.417
35.398
35.379
35.361
35.344
35.327
35.311
35.295
35.279
35.263
35.247
35.232
35.217
35.203
35.189
35.176
35.163
35.15
35.137
35.123
35.109
35.096
35.082
35.068
35.054
35.04
35.026
35.012
34.999
34.986
34.974
34.963
34.952
34.942
34.932
34.924
34.915
34.906
34.898
34.889
34.88
34.87
34.861
34.852
34.844
34.835
34.826
34.817
34.808
34.797
34.787
34.777
34.769
34.762
34.757
34.754
34.754
34.755
34.758
34.763
34.767
34.771
34.774
34.776
34.776
34.774
34.77
34.764
34.757
34.748
34.739
34.731
34.723
34.715
34.709
34.703
34.697
34.692
34.687
34.682
34.676
34.67
34.663
34.655
34.647
34.638
34.63
34.622
34.614
34.606
34.598
34.59
34.583
34.577
34.572
34.569
34.568
34.569
34.574
34.582
34.595
34.612
34.635
34.663
34.697
34.739
34.788
34.844
34.907
34.976
35.05
35.13
35.212
35.297
35.384
35.47
35.556
35.637
35.714
35.784
35.846
35.901
35.946
35.983
36.011
36.03
36.04
36.043
36.04
36.031
36.017
35.999
35.978
35.954
35.926
35.897
35.866
35.834
35.802
35.769
35.738
35.707
35.678
35.651
35.626
35.604
35.584
35.567
35.552
35.539
35.527
35.514
35.501
35.486
35.469
35.45
35.43
35.409
35.386
35.363
35.339
35.314
35.29
35.267
35.245
35.224
35.204
35.184
35.167
35.152
35.139
35.13
35.125
35.124
35.126
35.133
35.142
35.155
35.171
35.19
35.211
35.232
35.252
35.273
35.291
35.308
35.323
35.336
35.347
35.356
35.362
35.366
35.368
35.367
35.365
35.361
35.355
35.349
35.341
35.333
35.325
35.317
35.308
35.3
35.292
35.284
35.276
35.269
35.262
35.255
35.248
35.24
35.232
35.223
35.214
35.204
35.193
35.182
35.171
35.16
35.148
35.135
35.122
35.108
35.092
35.075
35.057
35.038
35.019
34.998
34.978
34.957
34.936
34.916
34.898
34.881
34.866
34.853
34.842
34.832
34.824
34.816
34.81
34.804
34.798
34.792
34.786
34.78
34.774
34.768
34.762
34.758
34.755
34.754
34.754
34.756
34.76
34.765
34.77
34.776
34.781
34.784
34.785
34.784
34.781
34.776
34.768
34.759
34.75
34.741
34.732
34.724
34.716
34.709
34.704
34.701
34.699
34.697
34.696
34.695
34.694
34.692
34.69
34.688
34.685
34.682
34.677
34.672
34.667
34.662
34.657
34.653
34.649
34.647
34.645
34.644
34.644
34.644
34.644
34.644
34.642
34.64
34.635
34.629
34.621
34.613
34.606
34.601
34.598
34.6
34.606
34.619
34.637
34.662
34.694
34.734
34.781
34.836
34.898
34.966
35.039
35.117
35.198
35.282
35.367
35.452
35.535
35.615
35.691
35.761
35.825
35.881
35.928
35.966
35.994
36.014
36.027
36.032
36.031
36.025
36.013
35.998
35.978
35.955
35.929
35.901
35.87
35.839
35.806
35.773
35.74
35.709
35.678
35.649
35.621
35.596
35.572
35.551
35.532
35.514
35.497
35.479
35.461
35.442
35.422
35.401
35.38
35.358
35.337
35.315
35.294
35.272
35.251
35.23
35.21
35.191
35.173
35.158
35.144
35.133
35.124
35.117
35.113
35.112
35.114
35.118
35.125
35.134
35.145
35.158
35.171
35.185
35.2
35.216
35.232
35.248
35.265
35.28
35.295
35.308
35.32
35.329
35.337
35.343
35.347
35.349
35.349
35.347
35.343
35.337
35.329
35.32
35.309
35.298
35.286
35.273
35.262
35.25
35.239
35.229
35.22
35.211
35.203
35.196
35.189
35.181
35.173
35.164
35.154
35.144
35.132
35.118
35.102
35.085
35.067
35.049
35.031
35.013
34.995
34.978
34.961
34.945
34.93
34.916
34.903
34.892
34.882
34.874
34.867
34.861
34.856
34.852
34.848
34.844
34.839
34.834
34.829
34.823
34.817
34.809
34.801
34.793
34.784
34.776
34.768
34.76
34.752
34.745
34.738
34.732
34.726
34.72
34.714
34.709
34.704
34.699
34.695
34.69
34.686
34.681
34.676
34.672
34.667
34.662
34.657
34.652
34.647
34.642
34.638
34.636
34.636
34.638
34.64
34.643
34.647
34.65
34.653
34.655
34.657
34.657
34.655
34.651
34.646
34.638
34.63
34.62
34.61
34.599
34.588
34.576
34.565
34.553
34.541
34.53
34.519
34.509
34.5
34.493
34.488
34.487
34.49
34.497
34.508
34.524
34.546
34.574
34.608
34.65
34.699
34.757
34.822
34.894
34.973
35.057
35.147
35.24
35.336
35.432
35.528
35.621
35.711
35.796
35.875
35.947
36.011
36.067
36.114
36.152
36.18
36.199
36.209
36.211
36.206
36.194
36.177
36.153
36.124
36.092
36.056
36.018
35.98
35.94
35.901
35.863
35.827
35.794
35.764
35.736
35.712
35.691
35.673
35.657
35.642
35.629
35.617
35.606
35.594
35.581
35.568
35.553
35.536
35.517
35.497
35.475
35.453
35.43
35.407
35.385
35.363
35.342
35.322
35.303
35.285
35.267
35.251
35.238
35.228
35.221
35.218
35.218
35.223
35.23
35.241
35.253
35.268
35.284
35.301
35.318
35.336
35.353
35.37
35.385
35.4
35.413
35.424
35.432
35.439
35.444
35.445
35.441
35.435
35.425
35.412
35.398
35.383
35.367
35.351
35.335
35.32
35.305
35.292
35.28
35.269
35.258
35.247
35.236
35.226
35.215
35.204
35.193
35.183
35.173
35.164
35.155
35.146
35.137
35.128
35.12
35.111
35.104
35.097
35.09
35.083
35.075
35.065
35.055
35.043
35.029
35.014
34.997
34.979
34.96
34.94
34.921
34.903
34.887
34.872
34.86
34.85
34.842
34.836
34.831
34.829
34.827
34.826
34.825
34.824
34.822
34.819
34.817
34.814
34.81
34.806
34.802
34.796
34.791
34.784
34.777
34.771
34.764
34.758
34.753
34.748
34.744
34.741
34.738
34.734
34.731
34.727
34.722
34.715
34.707
34.698
34.689
34.679
34.67
34.662
34.656
34.651
34.647
34.644
34.642
34.64
34.64
34.64
34.639
34.638
34.636
34.634
34.631
34.628
34.625
34.623
34.621
34.619
34.618
34.617
34.618
34.619
34.621
34.626
34.633
34.644
34.66
34.681
34.709
34.744
34.787
34.836
34.893
34.956
35.024
35.096
35.172
35.25
35.329
35.408
35.486
35.561
35.634
35.702
35.764
35.821
35.872
35.914
35.949
35.974
35.992
36.002
36.005
36.002
35.994
35.98
35.961
35.939
35.912
35.883
35.852
35.82
35.788
35.756
35.725
35.695
35.667
35.639
35.613
35.587
35.562
35.538
35.515
35.493
35.473
35.452
35.432
35.412
35.393
35.374
35.355
35.337
35.318
35.298
35.277
35.256
35.236
35.215
35.195
35.176
35.158
35.141
35.127
35.116
35.107
35.1
35.096
35.092
35.091
35.09
35.092
35.097
35.105
35.115
35.129
35.144
35.16
35.177
35.195
35.211
35.227
35.241
35.253
35.263
35.27
35.277
35.282
35.286
35.289
35.29
35.291
35.29
35.287
35.283
35.277
35.271
35.264
35.257
35.25
35.242
35.234
35.226
35.217
35.208
35.198
35.189
35.179
35.168
35.157
35.145
35.131
35.116
35.101
35.085
35.069
35.054
35.039
35.025
35.012
35.0
34.988
34.976
34.965
34.953
34.941
34.929
34.916
34.904
34.891
34.878
34.866
34.854
34.842
34.831
34.821
34.812
34.803
34.795
34.788
34.781
34.775
34.769
34.764
34.76
34.755
34.749
34.743
34.737
34.731
34.724
34.718
34.712
34.706
34.702
34.698
34.695
34.693
34.692
34.69
34.688
34.685
34.682
34.679
34.676
34.673
34.67
34.669
34.668
34.669
34.67
34.671
34.672
34.672
34.67
34.668
34.665
34.662
34.658
34.654
34.649
34.643
34.637
34.631
34.625
34.619
34.615
34.612
34.609
34.607
34.605
34.603
34.601
34.6
34.598
34.597
34.596
34.596
34.597
34.601
34.609
34.62
34.636
34.657
34.683
34.715
34.753
34.797
34.847
34.903
34.966
35.035
35.108
35.185
35.262
35.341
35.418
35.494
35.565
35.631
35.691
35.743
35.786
35.82
35.844
35.859
35.866
35.864
35.856
35.841
35.823
35.801
35.776
35.749
35.722
35.693
35.665
35.636
35.609
35.582
35.557
35.534
35.511
35.489
35.467
35.446
35.424
35.402
35.379
35.356
35.333
35.31
35.287
35.264
35.24
35.215
35.191
35.166
35.142
35.118
35.094
35.07
35.048
35.026
35.006
34.988
34.972
34.959
34.95
34.943
34.938
34.937
34.94
34.945
34.952
34.962
34.974
34.988
35.004
35.021
35.039
35.059
35.079
35.098
35.117
35.134
35.15
35.163
35.175
35.184
35.191
35.196
35.199
35.201
35.201
35.2
35.2
35.2
35.201
35.203
35.206
35.209
35.212
35.214
35.215
35.214
35.211
35.206
35.198
35.188
35.176
35.163
35.149
35.135
35.12
35.105
35.09
35.075
35.06
35.045
35.031
35.016
35.001
34.985
34.968
34.95
34.932
34.914
34.897
34.879
34.862
34.845
34.829
34.815
34.802
34.791
34.781
34.773
34.767
34.762
34.759
34.758
34.757
34.757
34.758
34.757
34.756
34.754
34.752
34.749
34.745
34.741
34.736
34.731
34.726
34.721
34.717
34.713
34.709
34.705
34.702
34.698
34.696
34.694
34.692
34.692
34.692
34.693
34.695
34.698
34.699
34.7
34.7
34.698
34.696
34.693
34.688
34.682
34.675
34.668
34.662
34.657
34.654
34.654
34.655
34.658
34.661
34.666
34.672
34.678
34.683
34.689
34.693
34.697
34.699
34.699
34.698
34.696
34.693
34.689
34.685
34.683
34.684
34.689
34.698
34.714
34.737
34.766
34.803
34.849
34.902
34.964
35.033
35.109
35.191
35.277
35.367
35.458
35.549
35.638
35.722
35.801
35.873
35.936
35.99
36.034
36.068
36.092
36.107
36.114
36.114
36.108
36.095
36.076
36.053
36.027
35.998
35.966
35.933
35.898
35.862
35.825
35.788
35.751
35.716
35.683
35.652
35.623
35.596
35.571
35.549
35.528
35.509
35.491
35.474
35.456
35.437
35.417
35.396
35.375
35.354
35.333
35.312
35.292
35.273
35.253
35.233
35.214
35.195
35.177
35.16
35.145
35.131
35.119
35.108
35.099
35.093
35.09
35.091
35.095
35.104
35.115
35.129
35.145
35.164
35.185
35.207
35.231
35.255
35.28
35.303
35.326
35.346
35.363
35.377
35.388
35.396
35.401
35.402
35.4
35.397
35.392
35.385
35.376
35.365
35.353
35.341
35.328
35.314
35.3
35.285
35.269
35.252
35.234
35.215
35.195
35.176
35.156
35.137
35.118
35.101
35.084
35.069
35.055
35.043
35.033
35.025
35.019
35.016
35.014
35.012
35.012
35.01
35.008
35.005
35.0
34.993
34.983
34.97
34.956
34.939
34.922
34.904
34.886
34.868
34.85
34.833
34.818
34.804
34.792
34.782
34.773
34.766
34.761
34.757
34.753
34.75
34.748
34.745
34.743
34.742
34.74
34.739
34.739
34.738
34.739
34.74
34.741
34.743
34.745
34.747
34.749
34.752
34.756
34.759
34.762
34.764
34.765
34.765
34.764
34.761
34.757
34.752
34.746
34.74
34.734
34.728
34.722
34.717
34.712
34.709
34.705
34.703
34.701
34.699
34.699
34.699
34.699
34.702
34.707
34.716
34.73
34.747
34.771
34.801
34.837
34.881
34.932
34.99
35.056
35.128
35.206
35.288
35.373
35.459
35.544
35.629
35.71
35.787
35.859
35.923
35.98
36.029
36.068
36.1
36.122
36.136
36.143
36.143
36.137
36.125
36.11
36.091
36.07
36.046
36.022
35.996
35.971
35.945
35.919
35.894
35.868
35.842
35.816
35.79
35.763
35.737
35.71
35.684
35.658
35.633
35.609
