Trial 3:3back
33.92
33.895
33.868
33.84
33.81
33.78
33.748
33.715
33.682
33.647
33.612
33.577
33.542
33.507
33.471
33.436
33.402
33.368
33.337
33.308
33.28
33.256
33.233
33.211
33.191
33.172
33.156
33.142
33.13
33.12
33.113
33.109
33.109
33.111
33.116
33.124
33.136
33.153
33.175
33.203
33.238
33.28
33.331
33.39
33.458
33.535
33.622
33.718
33.824
33.937
34.06
34.193
34.336
34.488
34.648
34.813
34.982
35.149
35.313
35.469
35.614
35.748
35.868
35.973
36.062
36.136
36.196
36.244
36.28
36.306
36.325
36.337
36.342
36.341
36.335
36.324
36.307
36.285
36.26
36.231
36.201
36.173
36.146
36.121
36.098
36.075
36.053
36.031
36.008
35.982
35.954
35.923
35.887
35.848
35.806
35.762
35.717
35.674
35.632
35.593
35.555
35.52
35.486
35.452
35.419
35.388
35.357
35.329
35.303
35.281
35.263
35.248
35.239
35.233
35.23
35.231
35.234
35.239
35.245
35.252
35.26
35.267
35.273
35.278
35.282
35.285
35.286
35.286
35.282
35.277
35.27
35.26
35.248
35.232
35.212
35.189
35.163
35.136
35.107
35.078
35.049
35.019
34.988
34.956
34.922
34.889
34.858
34.826
34.796
34.765
34.733
34.7
34.667
34.632
34.596
34.561
34.526
34.489
34.452
34.414
34.376
34.338
34.299
34.26
34.221
34.182
34.145
34.108
34.073
34.039
34.007
33.977
33.947
33.918
33.89
33.863
33.837
33.809
33.781
33.751
33.721
33.691
33.662
33.632
33.603
33.574
33.546
33.519
33.493
33.47
33.448
33.429
33.41
33.392
33.375
33.359
33.343
33.328
33.312
33.295
33.277
33.259
33.242
33.226
33.211
33.2
33.191
33.187
33.189
33.198
33.216
33.244
33.283
33.333
33.397
33.473
33.564
33.668
33.788
33.922
34.07
34.229
34.398
34.575
34.757
34.942
35.129
35.314
35.495
35.671
35.84
36.001
36.152
36.291
36.418
36.529
36.625
36.705
36.768
36.814
36.845
36.863
36.869
36.864
36.853
36.837
36.82
36.802
36.784
36.769
36.755
36.742
36.729
36.714
36.696
36.674
36.649
36.622
36.593
36.564
36.536
36.508
36.481
36.456
36.431
36.407
36.384
36.36
36.334
36.306
36.275
36.243
36.21
36.176
36.143
36.113
36.087
36.063
36.044
36.029
36.017
36.009
36.003
35.997
35.991
35.984
35.976
35.967
35.956
35.944
35.933
35.922
35.911
35.901
35.891
35.882
35.872
35.861
35.849
35.836
35.822
35.807
35.79
35.773
35.753
35.732
35.709
35.683
35.655
35.625
35.594
35.563
35.532
35.498
35.463
35.427
35.389
35.351
35.312
35.272
35.233
35.193
35.153
35.113
35.073
35.035
34.998
34.961
34.925
34.888
34.851
34.813
34.776
34.739
34.702
34.666
34.63
34.592
34.554
34.517
34.481
34.446
34.412
34.379
34.348
34.317
34.288
34.259
34.232
34.205
34.178
34.15
34.122
34.093
34.064
34.035
34.006
33.976
33.945
33.913
33.881
33.849
33.818
33.786
33.756
33.727
33.7
33.672
33.644
33.615
33.584
33.552
33.52
33.487
33.458
33.433
33.413
33.398
33.389
33.387
33.393
33.408
33.432
33.466
33.512
33.57
33.638
33.716
33.804
33.904
34.015
34.136
34.268
34.41
34.562
34.723
34.892
35.067
35.247
35.43
35.613
35.793
35.968
36.136
36.293
36.437
36.566
36.68
36.778
36.862
36.931
36.988
37.033
37.069
37.097
37.118
37.133
37.143
37.148
37.149
37.146
37.137
37.123
37.104
37.081
37.056
37.031
37.009
36.988
36.97
36.952
36.935
36.919
36.901
36.88
36.856
36.828
36.795
36.756
36.713
36.666
36.617
36.567
36.518
36.472
36.43
36.391
36.356
36.326
36.299
36.276
36.254
36.234
36.213
36.194
36.177
36.16
36.145
36.132
36.12
36.111
36.104
36.1
36.098
36.098
36.099
36.098
36.096
36.09
36.082
36.071
36.057
36.041
36.022
36.002
35.979
35.956
35.93
35.903
35.874
35.843
35.809
35.774
35.737
35.7
35.664
35.628
35.592
35.554
35.517
35.479
35.44
35.401
35.36
35.318
35.276
35.233
35.189
35.146
35.105
35.065
35.025
34.985
34.946
34.906
34.866
34.827
34.789
34.751
34.713
34.675
34.638
34.601
34.564
34.529
34.496
34.464
34.434
34.405
34.377
34.35
34.323
34.296
34.268
34.239
34.21
34.182
34.155
34.128
34.101
34.074
34.046
34.018
33.99
33.963
33.935
33.908
33.883
33.861
33.842
33.827
33.813
33.8
33.785
33.767
33.746
33.722
33.694
33.664
33.634
33.603
33.573
33.545
33.519
33.496
33.475
33.456
33.44
33.426
33.415
33.408
33.408
33.416
33.433
33.462
33.502
33.555
33.622
33.704
33.801
33.914
34.041
34.181
34.334
34.497
34.668
34.847
35.031
35.221
35.413
35.606
35.796
35.98
36.157
36.323
36.477
36.615
36.737
36.842
36.932
37.005
37.064
37.109
37.143
37.168
37.184
37.194
37.199
37.198
37.192
37.179
37.159
37.135
37.107
37.077
37.046
37.015
36.985
36.959
36.938
36.921
36.908
36.899
36.892
36.887
36.881
36.873
36.862
36.848
36.829
36.807
36.782
36.753
36.723
36.692
36.662
36.633
36.605
36.578
36.551
36.524
36.495
36.466
36.438
36.41
36.384
36.359
36.336
36.315
36.297
36.283
36.273
36.265
36.261
36.258
36.255
36.252
36.248
36.243
36.238
36.232
36.224
36.213
36.201
36.186
36.171
36.154
36.136
36.117
36.098
36.077
36.052
36.026
35.997
35.968
35.937
35.904
35.869
35.832
35.795
35.756
35.717
35.677
35.636
35.594
35.55
35.504
35.456
35.409
35.361
35.313
35.266
35.219
35.173
35.13
35.088
35.05
35.014
34.98
34.949
34.917
34.886
34.854
34.822
34.789
34.755
34.718
34.68
34.639
34.598
34.555
34.512
34.468
34.425
34.383
34.342
34.302
34.266
34.233
34.203
34.175
34.15
34.126
34.102
34.079
34.056
34.032
34.008
33.983
33.959
33.934
33.91
33.887
33.864
33.841
33.819
33.797
33.775
33.753
33.731
33.709
33.686
33.664
33.642
33.623
33.604
33.587
33.571
33.556
33.54
33.523
33.504
33.485
33.467
33.45
33.436
33.424
33.418
33.419
33.426
33.442
33.465
33.497
33.537
33.586
33.645
33.715
33.799
33.896
34.008
34.134
34.275
34.429
34.595
34.772
34.956
35.144
35.334
35.523
35.707
35.885
36.055
36.217
36.371
36.513
36.644
36.76
36.863
36.949
37.02
37.073
37.111
37.134
37.144
37.144
37.136
37.121
37.103
37.086
37.069
37.054
37.041
37.031
37.022
37.014
37.006
36.995
36.983
36.967
36.949
36.927
36.903
36.878
36.853
36.828
36.804
36.78
36.755
36.73
36.702
36.67
36.636
36.6
36.563
36.525
36.487
36.448
36.41
36.374
36.341
36.311
36.285
36.263
36.244
36.228
36.215
36.205
36.198
36.194
36.196
36.2
36.207
36.215
36.223
36.229
36.233
36.234
36.23
36.221
36.207
36.188
36.165
36.137
36.107
36.073
36.037
35.996
35.954
35.911
35.869
35.827
35.787
35.747
35.708
35.671
35.635
35.599
35.563
35.528
35.491
35.452
35.412
35.37
35.328
35.286
35.243
35.201
35.16
35.119
35.078
35.038
34.999
34.962
34.926
34.891
34.855
34.819
34.782
34.747
34.713
34.679
34.645
34.611
34.576
34.537
34.488
34.428
34.358
34.282
34.205
34.131
34.062
34.002
33.952
33.913
33.886
33.87
33.865
33.869
33.88
33.896
33.915
33.933
33.949
33.961
33.967
33.966
33.959
33.944
33.924
33.899
33.87
33.84
33.809
33.779
33.75
33.722
33.695
33.668
33.642
33.615
33.589
33.564
33.54
33.516
33.494
33.476
33.46
33.448
33.438
33.429
33.421
33.415
33.41
33.406
33.407
33.412
33.425
33.446
33.476
33.515
33.564
33.622
33.691
33.77
33.859
33.96
34.072
34.196
34.331
34.478
34.635
34.802
34.976
35.155
35.336
35.514
35.688
35.855
36.012
36.158
36.292
36.413
36.52
36.614
36.694
36.762
36.819
36.864
36.899
36.925
36.942
36.952
36.954
36.95
36.94
36.926
36.907
36.886
36.862
36.838
36.813
36.788
36.762
36.737
36.711
36.685
36.658
36.63
36.601
36.57
36.538
36.506
36.473
36.44
36.408
36.376
36.345
36.315
36.286
36.259
36.232
36.207
36.181
36.157
36.134
36.113
36.093
36.074
36.056
36.039
36.022
36.007
35.993
35.98
35.968
35.958
35.948
35.938
35.927
35.915
35.902
35.888
35.872
35.855
35.835
35.815
35.794
35.774
35.753
35.732
35.711
35.691
35.673
35.656
35.641
35.628
35.616
35.603
35.587
35.569
35.547
35.521
35.492
35.458
35.42
35.379
35.335
35.29
35.244
35.199
35.156
35.114
35.075
35.036
34.998
34.961
34.926
34.893
34.86
34.823
34.783
34.739
34.693
34.646
34.599
34.554
34.512
34.474
34.44
34.409
34.38
34.354
34.329
34.305
34.28
34.257
34.235
34.213
34.192
34.173
34.154
34.135
34.116
34.095
34.073
34.051
34.028
34.005
33.981
33.957
33.934
33.912
33.889
33.867
33.844
33.82
33.795
33.77
33.743
33.715
33.688
33.661
33.634
33.609
33.586
33.564
33.544
33.524
33.504
33.482
33.46
33.437
33.413
33.392
33.372
33.356
33.342
33.332
33.324
33.32
33.321
33.327
33.339
33.357
33.383
33.418
33.464
33.52
33.588
33.669
33.762
33.867
33.981
34.103
34.232
34.368
34.507
34.651
34.798
34.946
35.093
35.237
35.376
35.508
35.631
35.745
35.847
35.936
36.012
36.076
36.129
36.171
36.203
36.229
36.247
36.26
36.267
36.268
36.263
36.255
36.242
36.226
36.207
36.185
36.163
36.139
36.117
36.095
36.073
36.052
36.03
36.007
35.981
35.954
35.925
35.894
35.862
35.828
35.793
35.757
35.721
35.685
35.65
35.616
35.583
35.551
35.519
35.488
35.46
35.435
35.416
35.401
35.39
35.382
35.377
35.375
35.374
35.376
35.379
35.383
35.387
35.388
35.388
35.387
35.385
35.383
35.381
35.378
35.374
35.37
35.365
35.36
35.354
35.348
35.342
35.334
35.326
35.316
35.305
35.292
35.277
35.258
35.236
35.211
35.183
35.153
35.123
35.091
35.06
35.03
35.0
34.972
34.944
34.919
34.895
34.872
34.849
34.825
34.8
34.775
34.749
34.724
34.699
34.676
34.653
34.632
34.613
34.596
34.581
34.568
34.557
34.546
34.533
34.519
34.503
34.485
34.465
34.441
34.414
34.383
34.35
34.314
34.277
34.241
34.206
34.171
34.137
34.103
34.068
34.032
33.996
33.958
33.922
33.886
33.853
33.823
33.796
33.771
33.748
33.725
33.702
33.677
33.65
33.619
33.586
33.55
33.512
33.474
33.437
33.402
33.369
33.338
33.307
33.277
33.249
33.224
33.203
33.186
33.175
33.171
33.174
33.187
33.209
33.242
33.284
33.336
33.397
33.468
33.548
33.639
33.739
33.848
33.967
34.093
34.226
34.362
34.497
34.63
34.759
34.882
34.997
35.103
35.202
35.292
35.374
35.449
35.516
35.577
35.632
35.679
35.719
35.75
35.774
35.79
35.8
35.804
35.803
35.798
35.79
35.779
35.764
35.746
35.726
35.705
35.684
35.663
35.64
35.615
35.589
35.562
35.534
35.506
35.479
35.455
35.433
35.412
35.393
35.374
35.355
35.337
35.317
35.296
35.272
35.246
35.218
35.187
35.155
35.124
35.093
35.064
35.036
35.012
34.992
34.977
34.967
34.961
34.96
34.964
34.971
34.982
34.994
35.007
35.019
35.029
35.038
35.043
35.045
35.045
35.04
35.031
35.017
34.999
34.978
34.956
34.932
34.908
34.884
34.86
34.836
34.812
34.788
34.764
34.741
34.72
34.698
34.675
34.653
34.63
34.608
34.585
34.561
34.537
34.513
34.49
34.468
34.447
34.424
34.402
34.38
34.356
34.331
34.306
34.278
34.25
34.221
34.19
34.159
34.129
34.1
34.074
34.051
34.03
34.013
33.998
33.984
33.971
33.957
33.942
33.926
33.906
33.885
33.862
33.837
33.812
33.786
33.761
33.738
33.715
33.693
33.672
33.65
33.63
33.611
33.593
33.576
33.56
33.545
33.532
33.519
33.506
33.493
33.478
33.463
33.447
33.431
33.416
33.405
33.397
33.394
33.397
33.406
33.424
33.451
33.486
33.529
33.582
33.646
33.723
33.813
33.917
34.036
34.17
34.319
34.48
34.65
34.827
35.006
35.186
35.364
35.539
35.708
35.871
36.026
36.17
36.303
36.424
36.533
36.629
36.713
36.783
36.84
36.884
36.916
36.936
36.946
36.948
36.944
36.934
36.921
36.906
36.888
36.87
36.852
36.835
36.817
36.799
36.781
36.762
36.743
36.722
36.7
36.679
36.657
36.633
36.609
36.583
36.557
36.529
36.501
36.471
36.441
36.41
36.379
36.349
36.322
36.296
36.273
36.253
36.233
36.213
36.193
36.174
36.155
36.137
36.12
36.105
36.092
36.079
36.067
36.055
36.045
36.037
36.031
36.027
36.023
36.019
36.016
36.012
36.009
36.006
36.002
35.998
35.994
35.989
35.982
35.975
35.966
35.956
35.944
35.928
35.91
35.887
35.862
35.832
35.798
35.761
35.721
35.68
35.639
35.598
35.559
35.522
35.486
35.452
35.418
35.385
35.352
35.319
35.287
35.253
35.216
35.177
35.137
35.095
35.055
35.016
34.979
34.946
34.914
34.884
34.855
34.827
34.8
34.774
34.746
34.718
34.689
34.661
34.632
34.605
34.578
34.553
34.529
34.505
34.481
34.456
34.432
34.407
34.382
34.357
34.332
34.307
34.283
34.259
34.234
34.21
34.184
34.157
34.129
34.099
34.068
34.037
34.008
33.981
33.957
33.938
33.922
33.911
33.904
33.9
33.901
33.906
33.917
33.934
33.96
33.996
34.044
34.104
34.177
34.264
34.364
34.476
34.599
34.73
34.87
35.018
35.173
35.335
35.503
35.675
35.849
36.023
36.195
36.36
36.518
36.666
36.8
36.92
37.023
37.109
37.179
37.235
37.277
37.307
37.327
37.339
37.345
37.347
37.346
37.342
37.336
37.327
37.316
37.302
37.285
37.267
37.248
37.227
37.205
37.183
37.159
37.136
37.113
37.09
37.066
37.042
37.016
36.989
36.959
36.928
36.896
36.864
36.833
36.801
36.77
36.74
36.71
36.68
36.65
36.619
36.588
36.559
36.53
36.503
36.477
36.455
36.436
36.42
36.405
36.393
36.384
36.377
36.373
36.371
36.369
36.367
36.365
36.362
36.359
36.355
36.35
36.345
36.337
36.326
36.311
36.292
36.27
36.245
36.219
36.192
36.164
36.135
36.105
36.074
36.043
36.012
35.982
35.951
35.918
35.882
35.845
35.805
35.763
35.719
35.675
35.629
35.583
35.537
35.492
35.448
35.408
35.37
35.335
35.302
35.271
35.243
35.217
35.19
35.163
35.133
35.101
35.066
35.029
34.991
34.953
34.916
34.879
34.845
34.811
34.779
34.749
34.721
34.693
34.665
34.636
34.608
34.581
34.555
34.531
34.509
34.488
34.467
34.445
34.422
34.398
34.372
34.345
34.317
34.288
34.259
34.23
34.201
34.173
34.146
34.12
34.096
34.073
34.051
34.03
34.01
33.994
33.982
33.975
33.974
33.981
33.998
34.024
34.061
34.109
34.167
34.237
34.317
34.409
34.512
34.629
34.758
34.899
35.052
35.214
35.384
35.558
35.732
35.905
36.074
36.239
36.399
36.551
36.694
36.828
36.951
37.063
37.164
37.252
37.329
37.394
37.446
37.488
37.517
37.536
37.544
37.544
37.535
37.52
37.501
37.48
37.458
37.438
37.418
37.4
37.382
37.364
37.346
37.326
37.303
37.279
37.253
37.225
37.194
37.162
37.128
37.094
37.059
37.025
36.992
36.961
36.931
36.902
36.873
36.844
36.815
36.786
36.758
36.73
36.704
36.679
36.656
36.635
36.614
36.594
36.574
36.556
36.54
36.525
36.513
36.504
36.499
36.497
36.495
36.494
36.492
36.49
36.487
36.483
36.476
36.467
36.456
36.443
36.429
36.415
36.401
36.387
36.371
36.354
36.333
36.308
36.281
36.25
36.216
36.18
36.143
36.105
36.066
36.027
35.988
35.951
35.916
35.882
35.847
35.813
35.778
35.744
35.71
35.676
35.641
35.605
35.569
35.533
35.497
35.46
35.424
35.389
35.354
35.32
35.285
35.251
35.219
35.187
35.155
35.122
35.089
35.056
35.023
34.991
34.959
34.928
34.897
34.868
34.84
34.813
34.788
34.763
34.738
34.711
34.682
34.653
34.624
34.597
34.571
34.548
34.528
34.508
34.489
34.471
34.453
34.437
34.422
34.409
34.398
34.389
34.38
34.373
34.367
34.362
34.357
34.352
34.349
34.347
34.349
34.356
34.371
34.394
34.428
34.474
34.533
34.605
34.69
34.788
34.898
35.02
35.153
35.295
35.447
35.606
35.772
35.941
36.113
36.284
36.452
36.615
36.77
36.914
37.046
37.163
37.266
37.354
37.429
37.49
37.538
37.576
37.603
37.622
37.633
37.637
37.635
37.628
37.616
37.6
37.58
37.558
37.534
37.51
37.486
37.462
37.44
37.419
37.399
37.381
37.363
37.346
37.327
37.306
37.282
37.254
37.222
37.186
37.146
37.103
37.057
37.009
36.963
36.919
36.879
36.845
36.816
36.793
36.774
36.758
36.745
36.733
36.722
36.712
36.701
36.691
36.681
36.674
36.669
36.666
36.663
36.655
36.639
36.617
36.591
36.562
36.535
36.511
36.49
36.472
36.459
36.45
36.446
36.445
36.448
36.453
36.457
36.46
36.46
36.455
36.446
36.433
36.416
36.395
36.369
36.338
36.304
36.268
36.229
36.189
36.148
36.107
36.066
36.024
35.982
35.939
35.895
35.853
35.811
35.769
35.727
35.687
35.648
35.609
35.572
35.535
35.5
35.465
35.431
35.399
35.367
35.337
35.308
35.278
35.248
35.217
35.186
35.156
35.126
35.096
35.065
35.033
35.002
34.972
34.941
34.91
34.879
34.847
34.815
34.782
34.749
34.716
34.684
34.653
34.622
34.593
34.565
34.54
34.517
34.498
34.482
34.469
34.459
34.451
34.444
34.439
34.434
34.429
34.424
34.418
34.413
34.409
34.408
34.411
34.419
34.433
34.455
34.484
34.52
34.564
34.617
34.682
34.758
34.847
34.949
35.064
35.191
35.329
35.475
35.626
35.781
35.935
36.088
36.236
36.376
36.508
36.631
36.744
36.847
36.939
37.022
37.097
37.163
37.22
37.267
37.304
37.332
37.35
37.358
37.357
37.349
37.334
37.315
37.293
37.269
37.243
37.217
37.191
37.164
37.136
37.107
37.076
37.043
37.008
36.971
36.931
36.888
36.843
36.798
36.753
36.71
36.669
36.631
36.596
36.562
36.532
36.504
36.479
36.455
36.432
36.411
36.39
36.372
36.356
36.342
36.331
36.322
36.316
36.311
36.308
36.306
36.306
36.306
36.306
36.305
36.304
36.301
36.298
36.293
36.287
36.279
36.269
36.255
36.237
36.216
36.192
36.168
36.144
36.119
36.095
36.072
36.049
36.028
36.008
35.989
35.969
35.949
35.927
35.903
35.877
35.85
35.822
35.792
35.76
35.726
35.691
35.655
35.619
35.584
35.55
35.518
35.488
35.459
35.43
35.401
35.371
35.341
35.311
35.278
35.245
35.21
35.174
35.138
35.102
35.066
35.03
34.997
34.965
34.935
34.907
34.881
34.856
34.832
34.809
34.785
34.763
34.741
34.719
34.696
34.672
34.647
34.621
34.595
34.568
34.539
34.509
34.478
34.444
34.41
34.375
34.341
34.308
34.276
34.245
34.216
34.189
34.166
34.145
34.127
34.111
34.098
34.086
34.076
34.067
34.063
34.063
34.069
34.081
34.101
34.129
34.167
34.215
34.273
34.341
34.42
34.509
34.608
34.717
34.836
34.965
35.104
35.251
35.405
35.566
35.73
35.896
36.06
36.22
36.373
36.516
36.648
36.768
36.874
36.966
37.044
37.109
37.161
37.202
37.233
37.256
37.274
37.285
37.292
37.293
37.288
37.276
37.257
37.233
37.205
37.175
37.147
37.12
37.096
37.073
37.052
37.032
37.012
36.99
36.965
36.937
36.906
36.872
36.835
36.794
36.752
36.711
36.673
36.638
36.606
36.579
36.555
36.534
36.515
36.495
36.477
36.459
36.441
36.423
36.406
36.39
36.376
36.363
36.352
36.344
36.336
36.33
36.324
36.319
36.312
36.305
36.299
36.292
36.285
36.278
36.27
36.263
36.255
36.248
36.241
36.233
36.226
36.218
36.208
36.197
36.184
36.168
36.148
36.124
36.095
36.061
36.024
35.985
35.944
35.902
35.859
35.817
35.774
35.732
35.69
35.65
35.611
35.573
35.533
35.491
35.449
35.406
35.362
35.317
35.271
35.224
35.177
35.13
35.084
35.04
34.999
34.961
34.924
34.889
34.855
34.823
34.793
34.766
34.74
34.716
34.693
34.67
34.647
34.622
34.595
34.566
34.535
34.501
34.466
34.429
34.393
34.358
34.323
34.289
34.256
34.225
34.196
34.169
34.144
34.12
34.099
34.079
34.061
34.045
34.03
34.017
34.005
33.992
33.98
33.969
33.961
33.957
33.957
33.962
33.975
33.996
34.028
34.071
34.126
34.195
34.279
34.378
34.491
34.618
34.759
34.913
35.078
35.252
35.433
35.618
35.806
35.992
36.176
36.354
36.525
36.688
36.84
36.98
37.105
37.213
37.305
37.382
37.442
37.487
37.519
37.54
37.55
37.553
37.551
37.545
37.537
37.529
37.519
37.509
37.499
37.489
37.478
37.465
37.448
37.427
37.403
37.375
37.346
37.316
37.286
37.257
37.229
37.202
