Trial 3:3back
32.256
32.232
32.207
32.181
32.156
32.132
32.107
32.081
32.056
32.032
32.009
31.989
31.971
31.956
31.943
31.936
31.934
31.94
31.958
31.993
32.048
32.131
32.246
32.401
32.6
32.846
33.143
33.491
33.89
34.34
34.833
35.365
35.926
36.505
37.09
37.672
38.237
38.776
39.277
39.733
40.139
40.493
40.791
41.035
41.225
41.364
41.458
41.51
41.526
41.511
41.47
41.407
41.327
41.232
41.127
41.014
40.895
40.772
40.648
40.525
40.405
40.286
40.17
40.056
39.943
39.833
39.724
39.617
39.512
39.408
39.305
39.203
39.102
39.002
38.904
38.808
38.714
38.624
38.537
38.452
38.371
38.293
38.218
38.144
38.07
37.995
37.918
37.84
37.76
37.68
37.598
37.517
37.438
37.361
37.288
37.219
37.155
37.098
37.049
37.009
36.979
36.96
36.951
36.952
36.962
36.98
37.007
37.041
37.082
37.129
37.181
37.236
37.293
37.351
37.408
37.461
37.511
37.557
37.596
37.629
37.653
37.672
37.683
37.689
37.688
37.681
37.668
37.649
37.623
37.591
37.554
37.512
37.465
37.413
37.355
37.294
37.228
37.158
37.084
37.007
36.928
36.848
36.768
36.688
36.609
36.53
36.453
36.375
36.297
36.217
36.137
36.056
35.974
35.893
35.812
35.73
35.649
35.569
35.49
35.412
35.337
35.263
35.193
35.126
35.062
35.002
34.946
34.895
34.847
34.804
34.762
34.724
34.687
34.652
34.619
34.589
34.56
34.534
34.509
34.486
34.465
34.445
34.426
34.408
34.391
34.374
34.358
34.343
34.331
34.319
34.308
34.297
34.286
34.276
34.265
34.253
34.24
34.227
34.213
34.2
34.185
34.17
34.154
34.137
34.113
34.082
34.047
34.009
33.971
33.937
33.906
33.881
33.861
33.847
33.837
33.831
33.827
33.824
33.821
33.817
33.811
33.802
33.789
33.774
33.756
33.737
33.715
33.692
33.668
33.644
33.62
33.594
33.568
33.541
33.515
33.488
33.461
33.435
33.409
33.384
33.36
33.336
33.314
33.293
33.273
33.253
33.235
33.217
33.2
33.185
33.17
33.157
33.144
33.132
33.119
33.107
33.094
33.081
33.066
33.048
33.028
33.004
32.977
32.946
32.911
32.874
32.834
32.793
32.752
32.711
32.671
32.632
32.594
32.558
32.523
32.49
32.46
32.432
32.409
32.392
32.383
32.386
32.402
32.435
32.49
32.571
32.684
32.834
33.025
33.262
33.548
33.884
34.27
34.702
35.177
35.687
36.222
36.772
37.326
37.872
38.401
38.903
39.37
39.797
40.179
40.511
40.793
41.024
41.205
41.339
41.428
41.479
41.494
41.479
41.439
41.377
41.297
41.203
41.098
40.986
40.868
40.747
40.625
40.503
40.381
40.26
40.141
40.024
39.909
39.798
39.691
39.589
39.491
39.397
39.307
39.222
39.141
39.062
38.987
38.914
38.843
38.774
38.707
38.641
38.575
38.508
38.44
38.37
38.297
38.221
38.142
38.058
37.97
37.877
37.781
37.683
37.585
37.488
37.393
37.303
37.218
37.141
37.073
37.014
36.965
36.926
36.899
36.885
36.883
36.894
36.916
36.949
36.992
37.041
37.095
37.152
37.211
37.27
37.327
37.38
37.428
37.47
37.505
37.533
37.553
37.563
37.564
37.555
37.537
37.509
37.473
37.429
37.377
37.318
37.254
37.185
37.111
37.032
36.948
36.86
36.77
36.679
36.586
36.493
36.399
36.305
36.211
36.117
36.026
35.938
35.852
35.769
35.689
35.611
35.534
35.458
35.382
35.306
35.23
35.155
35.08
35.007
34.935
34.864
34.795
34.728
34.662
34.6
34.539
34.482
34.428
34.378
34.33
34.285
34.241
34.2
34.163
34.127
34.095
34.064
34.035
34.009
33.985
33.962
33.942
33.923
33.905
33.888
33.873
33.859
33.847
33.836
33.826
33.816
33.806
33.795
33.785
33.773
33.761
33.748
33.734
33.719
33.703
33.687
33.67
33.652
33.633
33.614
33.594
33.573
33.551
33.529
33.506
33.483
33.46
33.438
33.418
33.398
33.38
33.363
33.346
33.329
33.313
33.296
33.278
33.258
33.238
33.217
33.196
33.175
33.153
33.13
33.102
33.064
33.017
32.964
32.908
32.851
32.798
32.75
32.71
32.678
32.655
32.641
32.634
32.634
32.638
32.647
32.659
32.673
32.688
32.701
32.711
32.718
32.722
32.722
32.717
32.709
32.698
32.684
32.667
32.647
32.626
32.604
32.582
32.559
32.537
32.516
32.497
32.478
32.46
32.441
32.422
32.403
32.384
32.364
32.343
32.32
32.296
32.271
32.244
32.217
32.189
32.161
32.134
32.107
32.082
32.061
32.045
32.036
32.035
32.046
32.073
32.116
32.174
32.251
32.356
32.495
32.679
32.913
33.202
33.549
33.953
34.411
34.917
35.461
36.034
36.623
37.217
37.802
38.367
38.901
39.397
39.845
40.243
40.587
40.874
41.106
41.283
41.411
41.493
41.533
41.538
41.512
41.461
41.39
41.305
41.21
41.108
41.003
40.895
40.785
40.676
40.566
40.457
40.349
40.242
40.135
40.029
39.922
39.816
39.709
39.602
39.496
39.391
39.287
39.185
39.084
38.985
38.888
38.794
38.704
38.618
38.536
38.456
38.377
38.3
38.221
38.142
38.06
37.975
37.886
37.794
37.7
37.606
37.514
37.424
37.339
37.26
37.188
37.124
37.067
37.02
36.983
36.958
36.946
36.947
36.961
36.987
37.025
37.073
37.131
37.196
37.268
37.343
37.419
37.493
37.564
37.631
37.692
37.746
37.792
37.83
37.858
37.878
37.888
37.891
37.885
37.873
37.855
37.83
37.8
37.764
37.723
37.677
37.626
37.572
37.513
37.451
37.384
37.313
37.237
37.156
37.072
36.984
36.893
36.799
36.703
36.605
36.504
36.402
36.299
36.195
36.089
35.984
35.881
35.779
35.68
35.585
35.492
35.402
35.314
35.228
35.143
35.06
34.979
34.901
34.825
34.75
34.678
34.609
34.542
34.479
34.419
34.364
34.313
34.266
34.222
34.181
34.142
34.106
34.073
34.043
34.015
33.989
33.967
33.948
33.931
33.916
33.902
33.888
33.876
33.865
33.856
33.848
33.841
33.835
33.83
33.825
33.82
33.817
33.819
33.828
33.841
33.857
33.875
33.891
33.903
33.907
33.903
33.891
33.869
33.84
33.804
33.762
33.717
33.67
33.62
33.57
33.521
33.473
33.428
33.385
33.346
33.311
33.281
33.254
33.232
33.212
33.195
33.18
33.166
33.152
33.139
33.124
33.107
33.089
33.068
33.046
33.022
32.997
32.97
32.941
32.911
32.88
32.849
32.819
32.789
32.76
32.731
32.703
32.677
32.652
32.629
32.61
32.593
32.58
32.571
32.566
32.563
32.562
32.56
32.558
32.553
32.547
32.539
32.528
32.513
32.496
32.475
32.451
32.424
32.395
32.365
32.332
32.299
32.265
32.232
32.199
32.165
32.13
32.096
32.063
32.03
31.998
31.97
31.947
31.928
31.916
31.914
31.924
31.952
32.002
32.079
32.188
32.334
32.523
32.76
33.047
33.388
33.781
34.225
34.716
35.248
35.812
36.4
36.998
37.597
38.182
38.745
39.275
39.763
40.206
40.598
40.937
41.222
41.454
41.636
41.771
41.863
41.915
41.933
41.922
41.886
41.83
41.758
41.672
41.576
41.472
41.36
41.244
41.124
41.003
40.882
40.763
40.645
40.53
40.417
40.307
40.199
40.095
39.994
39.895
39.799
39.705
39.615
39.53
39.448
39.371
39.298
39.23
39.164
39.101
39.039
38.976
38.912
38.847
38.78
38.71
38.639
38.564
38.487
38.406
38.323
38.238
38.151
38.064
37.979
37.897
37.819
37.746
37.681
37.624
37.576
37.539
37.514
37.506
37.516
37.541
37.578
37.624
37.675
37.728
37.78
37.829
37.874
37.912
37.944
37.969
37.988
38.001
38.009
38.011
38.007
37.999
37.984
37.965
37.942
37.915
37.884
37.848
37.808
37.764
37.715
37.66
37.601
37.538
37.471
37.399
37.324
37.245
37.164
37.08
36.995
36.908
36.82
36.731
36.642
36.553
36.463
36.374
36.284
36.194
36.105
36.014
35.924
35.832
35.741
35.651
35.563
35.476
35.391
35.309
35.229
35.152
35.077
35.005
34.935
34.868
34.804
34.742
34.683
34.627
34.574
34.523
34.473
34.426
34.381
34.337
34.295
34.255
34.217
34.182
34.148
34.116
34.086
34.056
34.027
33.998
33.969
33.941
33.915
33.89
33.866
33.843
33.82
33.798
33.776
33.755
33.735
33.715
33.697
33.679
33.661
33.644
33.628
33.611
33.594
33.576
33.557
33.537
33.515
33.492
33.469
33.443
33.416
33.388
33.358
33.328
33.296
33.262
33.226
33.189
33.152
33.115
33.078
33.042
33.006
32.973
32.94
32.909
32.879
32.851
32.824
32.798
32.772
32.745
32.718
32.689
32.659
32.626
32.592
32.557
32.523
32.489
32.457
32.425
32.396
32.37
32.345
32.322
32.302
32.284
32.268
32.252
32.237
32.222
32.208
32.192
32.176
32.16
32.144
32.128
32.113
32.099
32.087
32.075
32.063
32.051
32.039
32.027
32.014
32.0
31.985
31.968
31.951
31.933
31.915
31.897
31.879
31.859
31.838
31.814
31.788
31.76
31.732
31.704
31.677
31.652
31.63
31.611
31.598
31.59
31.59
31.601
31.627
31.671
31.739
31.836
31.965
32.134
32.344
32.601
32.907
33.264
33.673
34.13
34.632
35.172
35.743
36.335
36.934
37.53
38.112
38.669
39.192
39.674
40.107
40.489
40.817
41.089
41.308
41.475
41.595
41.671
41.708
41.711
41.685
41.636
41.568
41.484
41.388
41.282
41.17
41.054
40.935
40.814
40.694
40.574
40.455
40.337
40.221
40.105
39.992
39.88
39.77
39.662
39.555
39.449
39.345
39.244
39.146
39.052
38.962
38.876
38.793
38.711
38.63
38.55
38.471
38.393
38.315
38.237
38.158
38.078
37.996
37.913
37.828
37.742
37.655
37.57
37.486
37.405
37.33
37.262
37.201
37.15
37.109
37.078
37.056
37.044
37.041
37.047
37.062
37.087
37.12
37.16
37.207
37.258
37.312
37.367
37.422
37.474
37.524
37.57
37.61
37.643
37.668
37.684
37.693
37.695
37.69
37.68
37.664
37.642
37.616
37.585
37.549
37.508
37.461
37.407
37.349
37.285
37.215
37.14
37.058
36.972
36.882
36.789
36.694
36.598
36.5
36.403
36.306
36.208
36.11
36.014
35.919
35.826
35.735
35.647
35.561
35.478
35.396
35.315
35.236
35.159
35.085
35.013
34.944
34.877
34.811
34.748
34.688
34.629
34.572
34.517
34.465
34.415
34.367
34.322
34.278
34.237
34.199
34.162
34.128
34.095
34.066
34.039
34.015
33.994
33.978
33.966
33.958
33.951
33.945
33.938
33.93
33.921
33.909
33.894
33.877
33.857
33.836
33.813
33.788
33.763
33.738
33.713
33.688
33.664
33.641
33.617
33.593
33.57
33.546
33.524
33.501
33.48
33.458
33.436
33.414
33.391
33.368
33.343
33.318
33.292
33.267
33.241
33.217
33.193
33.169
33.145
33.12
33.095
33.069
33.044
33.018
32.993
32.968
32.943
32.919
32.895
32.872
32.85
32.83
32.812
32.795
32.779
32.764
32.748
32.731
32.713
32.694
32.675
32.656
32.636
32.616
32.596
32.576
32.555
32.534
32.512
32.489
32.464
32.439
32.412
32.384
32.355
32.324
32.292
32.26
32.226
32.191
32.156
32.121
32.086
32.053
32.02
31.989
31.96
31.933
31.907
31.884
31.864
31.847
31.836
31.832
31.837
31.858
31.896
31.959
32.051
32.177
32.342
32.551
32.808
33.116
33.477
33.89
34.351
34.857
35.4
35.97
36.558
37.153
37.745
38.321
38.872
39.389
39.865
40.294
40.672
40.998
41.27
41.49
41.66
41.783
41.863
41.904
41.911
41.888
41.839
41.77
41.685
41.586
41.477
41.36
41.24
41.117
40.993
40.87
40.748
40.628
40.51
40.394
40.281
40.171
40.064
39.959
39.855
39.755
39.657
39.563
39.473
39.386
39.303
39.224
39.148
39.076
39.008
38.942
38.879
38.817
38.755
38.692
38.625
38.555
38.481
38.403
38.322
38.239
38.153
38.067
37.982
37.898
37.815
37.734
37.657
37.586
37.523
37.469
37.423
37.388
37.364
37.351
37.349
37.358
37.377
37.406
37.442
37.485
37.533
37.585
37.637
37.69
37.739
37.784
37.823
37.854
37.877
37.892
37.9
37.9
37.893
37.879
37.859
37.833
37.8
37.763
37.72
37.672
37.619
37.562
37.501
37.435
37.365
37.291
37.215
37.135
37.052
36.966
36.877
36.784
36.69
36.593
36.496
36.402
36.317
36.241
36.173
36.11
36.048
35.984
35.917
35.844
35.765
35.68
35.589
35.494
35.396
35.295
35.195
35.095
34.998
34.903
34.814
34.729
34.65
34.576
34.507
34.444
34.385
34.331
34.281
34.234
34.19
34.149
34.111
34.076
34.043
34.013
33.983
33.954
33.925
33.896
33.868
33.841
33.813
33.785
33.757
33.727
33.696
33.664
33.632
33.601
33.569
33.54
33.512
33.486
33.461
33.437
33.414
33.39
33.366
33.341
33.315
33.29
33.264
33.237
33.21
33.181
33.151
33.12
33.089
33.059
33.028
32.998
32.968
32.938
32.908
32.877
32.847
32.816
32.787
32.759
32.732
32.706
32.682
32.658
32.634
32.611
32.586
32.561
32.535
32.509
32.483
32.456
32.429
32.403
32.375
32.348
32.322
32.296
32.271
32.247
32.225
32.205
32.186
32.17
32.155
32.142
32.129
32.118
32.107
32.096
32.086
32.076
32.067
32.058
32.05
32.043
32.035
32.026
32.016
32.003
31.989
31.97
31.943
31.908
31.867
31.821
31.774
31.727
31.681
31.638
31.598
31.564
31.535
31.511
31.491
31.476
31.464
31.453
31.445
31.438
31.431
31.424
31.418
31.413
31.41
31.411
31.419
31.437
31.47
31.522
31.599
31.708
31.854
32.042
32.28
32.569
32.913
33.314
33.769
34.273
34.821
35.402
36.008
36.625
37.242
37.849
38.433
38.984
39.494
39.955
40.362
40.713
41.005
41.24
41.419
41.547
41.628
41.668
41.671
41.642
41.586
41.509
41.414
41.305
41.187
41.06
40.928
40.791
40.651
40.509
40.366
40.222
40.08
39.941
39.803
39.669
39.537
39.408
39.282
39.158
39.038
38.921
38.809
38.701
38.597
38.497
38.4
38.306
38.217
38.131
38.047
37.966
37.887
37.807
37.727
37.644
37.56
37.474
37.384
37.291
37.196
37.099
37.002
36.908
36.819
36.735
36.658
36.589
36.529
36.48
36.443
36.417
36.405
36.406
36.42
36.446
36.483
36.53
36.584
36.644
36.708
36.776
36.845
36.915
36.984
37.051
37.115
37.174
37.229
37.276
37.317
37.349
37.374
37.389
37.395
37.391
37.379
37.358
37.33
37.295
37.255
37.209
37.157
37.099
37.037
36.97
36.9
36.827
36.751
36.674
36.594
36.513
36.43
36.346
36.262
36.177
36.093
36.009
35.925
35.842
35.76
35.678
35.598
35.518
35.44
35.364
35.288
35.214
35.142
35.071
35.002
34.933
34.865
34.797
34.73
34.666
34.603
34.543
34.484
34.429
34.377
34.329
34.284
34.243
34.206
34.175
34.148
34.124
34.104
34.086
34.071
34.057
34.044
34.032
34.02
34.008
33.996
33.984
33.972
33.959
33.947
33.933
33.919
33.904
33.889
33.872
33.855
33.836
33.816
33.795
33.772
33.748
33.723
33.698
33.673
33.647
33.621
33.594
33.567
33.541
33.515
33.488
33.46
33.431
33.401
33.37
33.338
33.304
33.27
33.235
33.201
33.167
33.134
33.101
33.068
33.036
33.005
32.974
32.943
32.913
32.884
32.856
32.83
32.806
32.784
32.763
32.744
32.725
32.705
32.685
32.664
32.643
32.622
32.6
32.578
32.556
32.533
32.508
32.483
32.455
32.425
32.393
32.36
32.326
32.293
32.259
32.227
32.195
32.164
32.134
32.105
32.077
32.051
32.028
32.01
31.996
31.989
31.991
32.004
32.031
32.076
32.144
32.239
32.367
32.533
32.743
33.001
33.31
33.671
34.081
34.536
35.032
35.561
36.114
36.682
37.253
37.816
38.359
38.874
39.353
39.787
40.173
40.508
40.789
41.018
41.197
41.33
41.42
41.472
41.492
41.485
41.454
41.404
41.338
41.26
41.171
41.075
40.973
40.867
40.756
40.643
40.526
40.407
40.286
40.162
40.037
39.91
39.781
39.651
39.521
39.391
39.262
39.136
39.013
38.893
38.776
38.663
38.553
38.447
38.343
38.241
38.14
38.039
37.937
37.834
37.73
37.625
37.518
37.411
37.304
37.198
37.094
36.993
36.894
36.801
36.715
36.637
36.568
36.509
36.461
36.423
36.398
36.385
36.385
36.397
36.42
36.455
36.5
36.555
36.618
36.688
36.763
36.842
36.923
37.002
37.078
37.149
37.213
37.269
37.315
37.351
37.377
37.392
37.397
37.392
37.377
37.353
37.319
37.277
37.227
37.17
37.106
37.037
36.961
36.88
36.795
36.706
36.613
36.517
36.418
36.318
36.216
36.114
36.012
35.911
35.81
35.711
35.614
35.518
35.424
35.331
35.239
35.147
35.051
34.951
34.849
34.746
34.644
34.546
34.452
34.364
34.283
34.21
34.146
34.09
34.041
34.0
33.965
33.935
33.908
33.883
33.857
33.832
33.806
33.78
33.754
33.728
33.701
33.673
33.645
33.619
33.593
33.569
33.547
33.527
33.509
33.492
33.479
33.467
33.457
33.449
33.442
33.435
33.428
33.42
33.411
33.4
33.387
33.373
33.357
33.34
33.321
33.302
33.281
33.259
33.237
33.214
33.191
33.167
33.142
33.117
33.093
33.075
33.065
33.062
33.063
33.067
33.069
33.069
33.064
33.053
33.034
33.008
32.975
32.934
32.887
32.836
32.783
32.73
32.678
32.627
32.579
32.534
32.492
32.453
32.417
32.383
32.351
32.32
32.291
32.264
32.238
32.213
32.188
32.165
32.143
32.121
32.101
32.082
32.065
32.048
32.033
32.018
32.005
31.991
31.977
31.962
31.947
31.931
31.915
31.897
31.879
31.859
31.835
31.809
31.779
31.747
31.712
31.675
31.635
31.595
31.556
31.518
31.482
31.45
31.421
31.396
31.374
31.358
31.349
31.346
31.351
31.363
31.387
31.424
31.479
31.557
31.663
31.802
31.982
32.208
32.485
32.818
33.208
33.654
34.153
34.699
35.284
35.896
36.527
37.163
37.793
38.405
38.989
39.533
40.03
40.475
40.865
41.197
41.473
41.693
41.86
41.98
42.055
42.092
42.095
42.07
42.022
41.955
41.874
41.782
41.681
41.574
41.461
41.343
41.221
41.096
40.969
40.839
40.709
40.581
40.456
40.335
40.22
40.109
40.003
39.901
39.803
39.708
39.615
39.523
39.433
39.345
39.26
39.179
39.101
39.027
38.955
38.885
38.815
38.744
38.673
38.6
38.524
38.445
38.363
38.278
38.191
38.103
38.014
37.926
37.841
37.759
37.681
37.607
37.538
37.476
37.421
37.373
37.333
37.302
37.281
37.27
37.268
37.274
37.288
37.307
37.332
37.362
37.394
37.428
37.463
37.497
37.529
37.557
37.582
37.601
37.615
37.622
37.62
37.611
37.594
37.568
37.534
37.491
37.441
37.385
37.324
37.258
37.188
37.113
37.035
36.954
36.87
36.784
36.696
36.606
36.515
36.424
36.33
36.235
36.139
36.041
35.942
35.844
35.747
35.649
35.552
35.455
35.36
35.265
35.172
35.081
34.991
34.903
34.816
34.731
34.648
34.567
34.487
34.41
34.335
34.264
34.198
34.136
34.078
34.025
33.974
33.927
33.882
33.839
33.798
33.759
33.723
33.69
33.66
33.632
33.606
33.582
33.559
33.537
33.515
33.495
33.477
33.461
33.445
33.43
33.416
33.403
33.391
33.378
33.366
33.354
33.342
33.33
33.319
33.308
33.298
33.287
33.275
33.262
33.249
33.235
33.22
33.204
33.185
33.165
33.144
33.121
33.098
33.075
33.052
33.029
33.005
32.981
32.957
32.933
32.909
32.885
32.86
32.835
32.809
32.783
32.756
32.727
32.698
32.667
32.636
32.604
32.572
32.54
32.507
32.474
32.441
32.408
32.376
32.345
32.315
32.286
32.26
32.235
32.214
32.195
32.178
32.163
32.149
32.136
32.123
32.111
32.099
32.086
32.073
32.058
32.041
32.021
32.0
31.976
31.951
31.923
31.894
31.864
31.834
31.804
31.774
31.745
31.715
31.685
31.656
31.627
31.599
31.573
31.55
31.53
31.512
31.497
31.485
31.476
31.47
31.467
31.469
31.479
31.499
31.532
31.583
31.657
31.759
31.894
32.069
32.29
32.558
32.878
33.249
33.67
34.138
34.648
35.19
35.759
36.343
36.931
37.512
38.075
38.607
39.1
39.547
39.942
40.282
40.564
40.791
40.963
41.084
41.159
41.194
41.194
41.163
41.108
41.033
40.943
40.841
40.729
40.612
40.491
40.367
40.242
40.116
39.989
39.86
39.73
39.599
39.468
39.337
39.207
39.078
38.951
38.825
38.701
38.579
38.458
38.337
38.217
38.098
37.98
37.863
37.746
37.628
37.508
37.387
37.263
37.138
37.011
36.884
36.758
36.636
36.516
36.402
36.293
36.193
36.102
36.021
35.951
35.895
35.853
35.825
35.813
35.816
35.834
35.868
35.917
35.98
36.054
36.138
36.23
36.328
36.43
36.535
36.641
36.747
36.85
36.95
37.044
37.13
37.206
37.271
37.324
37.366
37.396
37.414
37.42
37.416
37.402
37.378
37.344
37.301
37.25
37.19
37.123
37.05
36.971
36.887
36.798
36.705
36.609
36.51
36.408
36.305
36.2
36.094
35.987
35.88
35.775
35.671
35.569
35.469
35.371
35.273
35.177
35.082
34.989
34.898
34.81
34.725
34.642
34.56
34.48
34.401
