Trial 3:3back
36.117
36.086
36.053
36.019
35.984
35.949
35.916
35.882
35.849
35.818
35.788
35.76
35.736
35.715
35.696
35.681
35.668
35.658
35.65
35.646
35.643
35.644
35.646
35.649
35.651
35.652
35.653
35.652
35.651
35.649
35.647
35.643
35.639
35.635
35.631
35.628
35.627
35.626
35.628
35.632
35.637
35.644
35.653
35.664
35.676
35.69
35.705
35.719
35.732
35.744
35.754
35.761
35.764
35.763
35.758
35.747
35.732
35.713
35.688
35.66
35.628
35.593
35.555
35.515
35.473
35.431
35.39
35.35
35.312
35.276
35.243
35.213
35.187
35.164
35.144
35.127
35.111
35.098
35.087
35.076
35.066
35.054
35.041
35.026
35.009
34.99
34.968
34.944
34.913
34.875
34.832
34.784
34.734
34.684
34.638
34.598
34.565
34.541
34.526
34.52
34.522
34.532
34.547
34.568
34.592
34.618
34.646
34.673
34.699
34.721
34.739
34.755
34.767
34.777
34.785
34.792
34.802
34.817
34.837
34.865
34.902
34.949
35.007
35.077
35.158
35.249
35.35
35.459
35.573
35.69
35.808
35.926
36.041
36.152
36.255
36.35
36.434
36.507
36.568
36.616
36.652
36.674
36.683
36.68
36.666
36.643
36.611
36.573
36.53
36.484
36.436
36.389
36.344
36.302
36.263
36.23
36.2
36.176
36.154
36.135
36.118
36.102
36.087
36.072
36.056
36.038
36.019
35.998
35.974
35.947
35.917
35.884
35.85
35.815
35.781
35.747
35.716
35.687
35.662
35.64
35.624
35.612
35.606
35.605
35.611
35.622
35.637
35.656
35.677
35.7
35.723
35.745
35.766
35.783
35.796
35.805
35.808
35.807
35.8
35.79
35.774
35.754
35.73
35.702
35.671
35.639
35.606
35.574
35.544
35.515
35.489
35.464
35.441
35.421
35.404
35.389
35.376
35.363
35.349
35.335
35.319
35.3
35.279
35.256
35.23
35.201
35.169
35.133
35.095
35.055
35.014
34.973
34.933
34.895
34.86
34.83
34.803
34.781
34.763
34.749
34.739
34.731
34.725
34.72
34.717
34.714
34.711
34.708
34.704
34.699
34.692
34.683
34.673
34.659
34.643
34.625
34.604
34.582
34.56
34.537
34.516
34.498
34.482
34.47
34.463
34.462
34.469
34.485
34.511
34.547
34.593
34.651
34.719
34.797
34.884
34.98
35.082
35.19
35.302
35.415
35.528
35.638
35.742
35.838
35.926
36.004
36.074
36.137
36.191
36.239
36.279
36.313
36.342
36.364
36.382
36.395
36.404
36.409
36.41
36.407
36.401
36.392
36.38
36.365
36.347
36.327
36.303
36.277
36.247
36.215
36.181
36.144
36.106
36.066
36.026
35.986
35.948
35.911
35.878
35.848
35.822
35.799
35.78
35.764
35.751
35.74
35.732
35.727
35.723
35.72
35.718
35.716
35.714
35.713
35.711
35.709
35.705
35.701
35.694
35.686
35.675
35.664
35.652
35.641
35.63
35.62
35.613
35.607
35.603
35.6
35.6
35.601
35.605
35.609
35.615
35.621
35.626
35.63
35.63
35.626
35.617
35.604
35.586
35.562
35.533
35.499
35.461
35.42
35.377
35.333
35.289
35.246
35.205
35.166
35.129
35.095
35.064
35.036
35.011
34.988
34.968
34.951
34.936
34.923
34.91
34.899
34.887
34.876
34.863
34.85
34.833
34.814
34.792
34.768
34.742
34.715
34.687
34.66
34.634
34.61
34.587
34.567
34.549
34.533
34.521
34.51
34.502
34.495
34.489
34.485
34.481
34.479
34.476
34.474
34.472
34.469
34.466
34.462
34.457
34.451
34.444
34.436
34.429
34.424
34.422
34.425
34.435
34.453
34.48
34.517
34.566
34.628
34.702
34.789
34.888
34.997
35.115
35.238
35.365
35.493
35.619
35.74
35.854
35.959
36.053
36.135
36.205
36.261
36.305
36.336
36.355
36.363
36.361
36.349
36.331
36.308
36.28
36.251
36.22
36.189
36.158
36.129
36.101
36.076
36.053
36.034
36.016
36.0
35.986
35.971
35.957
35.944
35.93
35.915
35.898
35.877
35.852
35.823
35.79
35.755
35.719
35.682
35.647
35.614
35.584
35.558
35.536
35.519
35.506
35.499
35.496
35.498
35.504
35.514
35.526
35.541
35.557
35.572
35.585
35.597
35.606
35.611
35.612
35.608
35.599
35.585
35.569
35.549
35.528
35.506
35.483
35.46
35.437
35.416
35.396
35.378
35.363
35.35
35.338
35.328
35.318
35.308
35.299
35.289
35.277
35.264
35.247
35.227
35.203
35.176
35.145
35.111
35.075
35.038
35.0
34.961
34.924
34.888
34.853
34.82
34.79
34.761
34.735
34.711
34.689
34.669
34.651
34.635
34.621
34.609
34.6
34.592
34.585
34.58
34.574
34.568
34.561
34.551
34.538
34.523
34.505
34.486
34.465
34.442
34.419
34.395
34.373
34.353
34.336
34.323
34.312
34.305
34.299
34.295
34.293
34.292
34.293
34.295
34.297
34.298
34.297
34.295
34.29
34.284
34.277
34.271
34.267
34.264
34.266
34.272
34.284
34.303
34.332
34.372
34.424
34.486
34.56
34.644
34.737
34.839
34.946
35.058
35.173
35.287
35.398
35.505
35.605
35.695
35.775
35.843
35.898
35.941
35.97
35.987
35.991
35.984
35.968
35.944
35.913
35.877
35.837
35.797
35.756
35.716
35.678
35.642
35.609
35.58
35.556
35.536
35.519
35.506
35.495
35.486
35.478
35.471
35.463
35.454
35.444
35.432
35.416
35.398
35.375
35.351
35.324
35.294
35.263
35.232
35.2
35.169
35.141
35.117
35.097
35.083
35.076
35.074
35.077
35.084
35.095
35.109
35.126
35.144
35.162
35.178
35.192
35.203
35.209
35.212
35.21
35.204
35.195
35.182
35.167
35.149
35.129
35.108
35.087
35.065
35.045
35.026
35.009
34.996
34.985
34.976
34.967
34.957
34.947
34.934
34.918
34.9
34.879
34.855
34.83
34.802
34.773
34.742
34.711
34.679
34.647
34.614
34.582
34.55
34.52
34.491
34.465
34.441
34.421
34.404
34.391
34.38
34.372
34.365
34.359
34.355
34.353
34.352
34.353
34.354
34.354
34.354
34.353
34.351
34.347
34.343
34.337
34.329
34.32
34.309
34.295
34.281
34.265
34.25
34.236
34.221
34.208
34.195
34.185
34.177
34.171
34.168
34.168
34.17
34.173
34.177
34.182
34.186
34.191
34.197
34.204
34.211
34.219
34.23
34.245
34.265
34.293
34.327
34.37
34.423
34.485
34.557
34.638
34.728
34.825
34.928
35.034
35.141
35.248
35.353
35.455
35.552
35.642
35.721
35.79
35.845
35.888
35.918
35.936
35.942
35.938
35.925
35.904
35.877
35.845
35.81
35.773
35.736
35.7
35.666
35.635
35.606
35.582
35.562
35.547
35.536
35.529
35.526
35.523
35.522
35.521
35.518
35.515
35.51
35.502
35.492
35.479
35.462
35.441
35.418
35.394
35.368
35.343
35.319
35.297
35.277
35.261
35.248
35.24
35.236
35.237
35.243
35.253
35.267
35.285
35.306
35.329
35.353
35.376
35.396
35.415
35.43
35.441
35.447
35.449
35.445
35.437
35.425
35.411
35.393
35.375
35.354
35.332
35.309
35.285
35.261
35.236
35.213
35.19
35.169
35.148
35.129
35.109
35.091
35.07
35.043
35.006
34.959
34.905
34.845
34.783
34.724
34.67
34.623
34.584
34.554
34.532
34.518
34.511
34.508
34.51
34.515
34.522
34.531
34.54
34.547
34.553
34.556
34.557
34.556
34.553
34.548
34.542
34.534
34.525
34.514
34.501
34.485
34.467
34.446
34.424
34.399
34.374
34.347
34.32
34.294
34.27
34.248
34.228
34.212
34.201
34.193
34.191
34.193
34.198
34.206
34.216
34.227
34.24
34.252
34.266
34.28
34.296
34.314
34.333
34.354
34.378
34.408
34.442
34.484
34.534
34.593
34.659
34.733
34.814
34.899
34.989
35.082
35.176
35.269
35.361
35.449
35.531
35.608
35.678
35.74
35.793
35.836
35.869
35.891
35.902
35.902
35.893
35.874
35.848
35.817
35.78
35.741
35.7
35.659
35.619
35.582
35.548
35.519
35.494
35.474
35.459
35.448
35.441
35.437
35.437
35.438
35.44
35.442
35.443
35.442
35.437
35.43
35.418
35.402
35.383
35.36
35.334
35.306
35.276
35.246
35.216
35.188
35.163
35.143
35.127
35.117
35.112
35.113
35.118
35.128
35.142
35.158
35.177
35.196
35.216
35.235
35.253
35.267
35.279
35.287
35.29
35.289
35.284
35.274
35.26
35.241
35.217
35.189
35.159
35.127
35.095
35.064
35.035
35.008
34.984
34.961
34.941
34.923
34.908
34.895
34.885
34.876
34.867
34.858
34.848
34.835
34.821
34.804
34.784
34.761
34.736
34.707
34.677
34.646
34.617
34.591
34.568
34.549
34.533
34.521
34.51
34.501
34.494
34.487
34.481
34.475
34.468
34.462
34.455
34.449
34.442
34.434
34.425
34.416
34.407
34.396
34.385
34.373
34.361
34.347
34.331
34.313
34.294
34.276
34.257
34.239
34.223
34.208
34.196
34.187
34.18
34.176
34.176
34.179
34.186
34.196
34.208
34.221
34.234
34.246
34.259
34.271
34.283
34.298
34.317
34.341
34.371
34.41
34.457
34.514
34.58
34.657
34.742
34.833
34.93
35.03
35.13
35.23
35.327
35.421
35.511
35.594
35.671
35.74
35.799
35.85
35.891
35.922
35.943
35.954
35.955
35.948
35.932
35.91
35.883
35.853
35.82
35.788
35.756
35.726
35.7
35.678
35.66
35.646
35.635
35.629
35.625
35.624
35.624
35.626
35.628
35.627
35.625
35.62
35.612
35.601
35.587
35.569
35.546
35.52
35.49
35.46
35.429
35.399
35.371
35.346
35.325
35.308
35.295
35.287
35.284
35.286
35.292
35.302
35.313
35.325
35.339
35.354
35.369
35.383
35.396
35.406
35.413
35.416
35.415
35.41
35.401
35.388
35.373
35.354
35.333
35.31
35.285
35.258
35.231
35.204
35.178
35.152
35.129
35.107
35.087
35.069
35.052
35.037
35.022
35.009
34.996
34.982
34.967
34.951
34.933
34.912
34.889
34.863
34.834
34.803
34.77
34.735
34.7
34.665
34.632
34.601
34.573
34.548
34.526
34.508
34.494
34.482
34.472
34.465
34.459
34.455
34.453
34.451
34.451
34.45
34.449
34.447
34.442
34.433
34.421
34.406
34.389
34.37
34.35
34.332
34.315
34.299
34.283
34.27
34.258
34.247
34.238
34.23
34.224
34.219
34.217
34.215
34.216
34.217
34.219
34.22
34.22
34.219
34.216
34.209
34.2
34.189
34.178
34.168
34.162
34.16
34.166
34.179
34.203
34.238
34.284
34.343
34.414
34.497
34.591
34.693
34.803
34.917
35.034
35.151
35.266
35.376
35.479
35.573
35.656
35.728
35.788
35.834
35.867
35.888
35.898
35.897
35.889
35.874
35.854
35.831
35.806
35.779
35.753
35.727
35.704
35.682
35.661
35.643
35.627
35.613
35.602
35.595
35.589
35.583
35.576
35.568
35.558
35.545
35.529
35.51
35.487
35.462
35.435
35.406
35.375
35.345
35.316
35.289
35.266
35.246
35.23
35.218
35.211
35.207
35.208
35.213
35.222
35.234
35.248
35.264
35.279
35.294
35.307
35.318
35.326
35.331
35.334
35.335
35.333
35.328
35.319
35.308
35.295
35.279
35.263
35.246
35.23
35.215
35.2
35.187
35.174
35.164
35.154
35.145
35.137
35.128
35.119
35.108
35.094
35.077
35.057
35.034
35.008
34.98
34.949
34.916
34.882
34.845
34.807
34.769
34.732
34.696
34.663
34.632
34.605
34.581
34.56
34.543
34.529
34.519
34.512
34.509
34.508
34.509
34.51
34.511
34.511
34.509
34.506
34.502
34.496
34.487
34.476
34.463
34.446
34.427
34.404
34.377
34.348
34.315
34.283
34.251
34.223
34.2
34.184
34.173
34.17
34.172
34.18
34.191
34.204
34.219
34.234
34.248
34.26
34.27
34.277
34.281
34.284
34.286
34.289
34.294
34.301
34.314
34.333
34.36
34.396
34.444
34.502
34.571
34.65
34.738
34.834
34.936
35.042
35.15
35.257
35.36
35.458
35.549
35.632
35.705
35.768
35.82
35.861
35.891
35.908
35.914
35.91
35.896
35.875
35.848
35.818
35.785
35.75
35.717
35.684
35.653
35.625
35.6
35.578
35.56
35.545
35.534
35.524
35.517
35.511
35.506
35.501
35.495
35.488
35.479
35.467
35.451
35.43
35.406
35.379
35.35
35.32
35.29
35.261
35.235
35.212
35.195
35.182
35.176
35.176
35.182
35.194
35.211
35.232
35.256
35.282
35.31
35.338
35.366
35.392
35.416
35.437
35.453
35.466
35.474
35.477
35.476
35.471
35.463
35.452
35.44
35.425
35.411
35.396
35.382
35.37
35.358
35.346
35.334
35.322
35.311
35.3
35.289
35.278
35.266
35.252
35.236
35.218
35.197
35.174
35.149
35.122
35.093
35.063
35.031
34.998
34.965
34.933
34.903
34.875
34.849
34.826
34.806
34.789
34.774
34.762
34.753
34.747
34.744
34.744
34.745
34.746
34.747
34.747
34.744
34.738
34.729
34.718
34.704
34.688
34.669
34.648
34.624
34.599
34.574
34.549
34.525
34.503
34.484
34.468
34.456
34.444
34.434
34.425
34.416
34.409
34.405
34.403
34.406
34.411
34.421
34.434
34.451
34.473
34.501
34.534
34.574
34.621
34.675
34.735
34.801
34.874
34.952
35.036
35.125
35.218
35.313
35.408
35.503
35.596
35.687
35.774
35.857
35.935
36.005
36.067
36.118
36.159
36.19
36.209
36.218
36.218
36.209
36.192
36.168
36.138
36.104
36.067
36.026
35.984
35.942
35.901
35.862
35.825
35.792
35.764
35.74
35.721
35.707
35.698
35.692
35.688
35.685
35.683
35.68
35.676
35.669
35.66
35.649
35.634
35.616
35.596
35.574
35.552
35.53
35.509
35.49
35.473
35.459
35.449
35.443
35.441
35.443
35.449
35.46
35.474
35.49
35.509
35.529
35.551
35.572
35.592
35.611
35.626
35.637
35.643
35.645
35.64
35.631
35.618
35.601
35.582
35.561
35.538
35.513
35.488
35.464
35.441
35.419
35.398
35.379
35.362
35.345
35.33
35.315
35.302
35.289
35.278
35.265
35.252
35.237
35.22
35.201
35.179
35.156
35.129
35.101
35.071
35.041
35.011
34.98
34.95
34.921
34.893
34.868
34.845
34.824
34.806
34.791
34.779
34.769
34.762
34.757
34.756
34.757
34.76
34.763
34.766
34.767
34.766
34.763
34.757
34.747
34.733
34.717
34.699
34.679
34.657
34.634
34.611
34.588
34.566
34.546
34.528
34.514
34.504
34.499
34.498
34.502
34.51
34.524
34.543
34.568
34.6
34.637
34.681
34.731
34.787
34.85
34.918
34.993
35.072
35.157
35.245
35.335
35.427
35.519
35.614
35.715
35.824
35.937
36.051
36.161
36.263
36.354
36.43
36.49
36.535
36.563
36.577
36.577
36.564
36.541
36.509
36.47
36.427
36.379
36.329
36.278
36.225
36.173
36.123
36.074
36.029
35.986
35.948
35.913
35.883
35.856
35.834
35.816
35.802
35.793
35.786
35.782
35.781
35.782
35.784
35.785
35.784
35.783
35.779
35.774
35.766
35.756
35.743
35.729
35.715
35.701
35.689
35.679
35.672
35.667
35.666
35.666
35.67
35.675
35.683
35.692
35.704
35.716
35.728
35.74
35.752
35.763
35.773
35.782
35.788
35.792
35.792
35.788
35.78
35.767
35.75
35.728
35.704
35.677
35.648
35.618
35.586
35.555
35.525
35.495
35.467
35.441
35.418
35.397
35.378
35.36
35.345
35.331
35.318
35.305
35.293
35.28
35.267
35.253
35.237
35.22
35.202
35.181
35.159
35.135
35.11
35.083
35.055
35.026
34.997
34.968
34.941
34.916
34.895
34.878
34.865
34.857
34.852
34.85
34.85
34.852
34.855
34.858
34.86
34.86
34.859
34.855
34.847
34.836
34.821
34.804
34.784
34.764
34.742
34.721
34.699
34.678
34.659
34.641
34.627
34.617
34.611
34.61
34.614
34.623
34.639
34.662
34.694
34.735
34.785
34.845
34.915
34.993
35.079
35.171
35.268
35.369
35.471
35.575
35.678
35.779
35.877
35.973
36.068
36.166
36.266
36.366
36.463
36.554
36.636
36.706
36.764
36.807
36.835
36.85
36.851
36.84
36.819
36.789
36.752
36.709
36.662
36.612
36.562
36.512
36.463
36.415
36.37
36.327
36.286
36.249
36.216
36.188
36.164
36.145
36.13
36.118
36.109
36.103
36.098
36.094
36.09
36.087
36.083
36.077
36.069
36.06
36.049
36.038
36.026
36.014
36.003
35.991
35.979
35.967
35.955
35.944
35.934
35.926
35.921
35.917
35.917
35.919
35.923
35.93
35.939
35.949
35.961
35.975
35.988
36.0
36.01
36.017
36.022
36.022
36.018
36.01
35.997
35.979
35.956
35.929
35.898
35.864
35.827
35.789
35.75
35.712
35.674
35.637
35.602
35.569
35.54
35.514
35.492
35.472
35.456
35.442
35.43
35.419
35.409
35.399
35.388
35.374
35.357
35.336
35.312
35.284
35.253
35.221
35.188
35.155
35.123
35.092
35.064
35.039
35.016
34.997
34.98
34.967
34.956
34.948
34.941
34.937
34.935
34.934
34.934
34.935
34.936
34.936
34.934
34.93
34.923
34.912
34.898
34.88
34.86
34.837
34.812
34.787
34.762
34.738
34.717
34.698
34.684
34.674
34.671
34.674
34.685
34.705
34.735
34.774
34.825
34.886
34.958
35.041
35.133
35.233
35.34
35.45
35.564
35.677
35.789
35.898
36.002
36.1
36.19
36.272
36.346
36.412
36.469
36.521
36.572
36.625
36.679
36.733
36.783
36.828
36.864
36.891
36.906
36.91
36.901
36.879
36.846
36.803
36.751
36.693
36.631
36.566
36.501
36.436
36.374
36.314
36.258
36.207
36.161
36.119
36.083
36.054
36.029
36.009
35.994
35.982
35.973
35.966
35.962
35.959
35.957
35.956
35.955
35.953
35.95
35.945
35.939
35.932
35.925
35.916
35.906
35.896
35.885
35.874
35.863
35.852
35.842
35.831
35.822
35.813
35.805
35.799
35.795
35.794
35.795
35.798
35.802
35.805
35.809
35.811
35.813
35.812
35.809
35.803
35.793
35.779
35.759
35.735
35.706
35.672
35.635
35.594
35.551
35.506
35.459
35.412
35.367
35.324
35.283
35.246
35.213
35.184
35.16
35.139
35.122
35.107
35.094
35.081
35.067
35.053
35.038
35.021
35.002
34.981
34.957
34.931
34.903
34.875
34.846
34.817
34.789
34.761
34.734
34.709
34.685
34.665
34.647
34.632
34.62
34.61
34.602
34.596
34.592
34.591
34.592
34.594
34.596
34.596
34.595
34.59
34.582
34.57
34.553
34.533
34.511
34.487
34.462
34.437
34.411
34.388
34.368
34.352
34.344
34.344
34.354
34.374
34.406
34.451
34.506
34.574
34.654
34.746
34.847
34.957
35.073
35.194
35.316
35.439
35.559
35.675
35.785
35.887
35.981
36.065
36.138
36.201
36.253
36.295
36.327
36.351
36.366
36.374
36.376
36.373
36.366
36.356
36.342
36.326
36.309
36.29
36.27
36.247
36.223
36.196
36.169
36.14
36.111
36.08
36.047
36.013
35.977
35.94
35.903
35.867
35.831
35.8
35.772
35.747
35.726
35.707
35.692
35.68
35.67
35.663
35.658
35.655
35.655
35.657
35.661
35.667
35.674
35.683
35.692
35.702
35.71
35.718
35.724
35.729
35.733
35.737
35.739
35.741
35.742
35.743
35.743
35.743
35.743
35.744
35.745
35.746
35.748
35.75
35.75
35.749
35.746
35.741
35.733
35.723
35.709
35.693
35.673
35.65
35.623
35.592
35.558
35.52
35.481
35.44
35.398
35.355
35.313
35.272
35.234
35.199
35.168
35.142
35.119
35.099
35.082
35.067
35.055
35.044
35.035
35.026
35.017
35.007
34.996
34.984
34.969
34.951
34.931
34.908
34.885
34.86
34.836
34.812
34.788
34.764
34.742
34.72
34.701
34.685
34.672
34.662
34.654
34.648
34.643
34.64
34.639
34.64
34.643
34.647
34.651
34.655
34.66
34.666
34.673
34.682
34.693
34.707
34.724
34.746
34.773
34.806
34.847
34.897
34.957
35.026
35.107
35.197
35.298
35.407
35.523
35.644
35.767
35.891
36.014
36.133
36.245
36.348
36.441
36.52
36.587
36.64
36.68
36.707
36.721
36.723
36.714
36.694
36.666
36.631
36.591
36.55
36.507
36.464
36.423
36.382
36.345
36.311
36.28
36.253
36.229
36.208
36.189
36.172
36.155
36.139
36.123
36.107
36.09
36.071
36.049
36.025
35.998
35.969
35.939
35.907
35.875
35.843
35.813
35.785
35.758
35.731
35.701
35.67
35.64
35.613
35.591
35.576
35.569
35.572
35.584
35.604
35.632
35.666
35.703
35.742
35.78
35.816
35.848
35.874
35.895
35.909
35.916
35.915
35.907
35.892
35.87
35.843
35.812
35.777
35.741
35.703
35.666
35.629
35.595
35.562
35.533
35.507
35.485
35.464
35.445
35.427
35.407
35.386
35.362
35.337
35.308
35.277
35.242
35.204
35.163
35.119
35.075
35.03
34.987
34.947
34.912
34.881
34.855
34.834
34.818
34.807
34.799
34.795
34.794
34.795
34.796
34.796
34.794
34.79
34.782
34.77
34.754
34.735
34.712
34.686
34.657
34.626
34.594
34.563
34.533
34.505
34.48
34.458
34.442
34.431
34.425
34.426
34.433
34.448
34.469
34.498
34.534
34.578
34.629
34.688
34.754
34.828
34.908
34.995
35.089
35.19
35.297
35.408
35.521
35.635
35.748
35.859
35.968
36.071
36.169
36.26
36.344
36.418
36.483
36.538
36.585
36.622
36.65
36.669
36.681
36.684
36.68
36.67
36.655
36.636
36.612
36.585
36.554
36.52
