Trial 3:3back
34.886
34.878
34.871
34.866
34.862
34.86
34.858
34.857
34.856
34.855
34.855
34.855
34.857
34.859
34.863
34.867
34.872
34.876
34.879
34.882
34.884
34.885
34.885
34.885
34.884
34.883
34.882
34.881
34.881
34.882
34.884
34.888
34.892
34.896
34.901
34.904
34.908
34.91
34.912
34.913
34.913
34.912
34.909
34.905
34.899
34.892
34.883
34.874
34.864
34.853
34.841
34.829
34.816
34.804
34.792
34.78
34.77
34.76
34.752
34.745
34.738
34.732
34.726
34.722
34.718
34.716
34.715
34.715
34.717
34.72
34.727
34.736
34.751
34.771
34.798
34.833
34.878
34.932
34.996
35.07
35.152
35.241
35.337
35.436
35.537
35.639
35.738
35.834
35.922
36.003
36.075
36.136
36.186
36.224
36.25
36.263
36.265
36.255
36.235
36.206
36.169
36.126
36.079
36.028
35.975
35.923
35.87
35.82
35.771
35.724
35.68
35.638
35.6
35.565
35.533
35.506
35.482
35.462
35.444
35.429
35.415
35.403
35.391
35.379
35.366
35.353
35.339
35.323
35.307
35.289
35.271
35.253
35.234
35.217
35.201
35.186
35.174
35.164
35.158
35.154
35.154
35.157
35.163
35.172
35.184
35.198
35.214
35.231
35.249
35.268
35.287
35.307
35.326
35.344
35.36
35.376
35.39
35.402
35.413
35.423
35.431
35.438
35.444
35.449
35.45
35.449
35.444
35.436
35.425
35.411
35.395
35.376
35.356
35.334
35.311
35.287
35.263
35.239
35.216
35.193
35.17
35.148
35.127
35.107
35.09
35.074
35.06
35.048
35.038
35.029
35.021
35.013
35.006
34.998
34.99
34.981
34.972
34.962
34.952
34.943
34.933
34.925
34.917
34.911
34.906
34.902
34.901
34.901
34.903
34.906
34.909
34.912
34.914
34.915
34.914
34.913
34.911
34.908
34.906
34.903
34.9
34.898
34.897
34.896
34.896
34.898
34.899
34.902
34.904
34.907
34.911
34.915
34.919
34.924
34.928
34.933
34.936
34.939
34.94
34.941
34.94
34.937
34.934
34.929
34.924
34.918
34.912
34.906
34.899
34.894
34.888
34.883
34.879
34.874
34.869
34.864
34.859
34.854
34.848
34.843
34.837
34.832
34.827
34.823
34.821
34.819
34.818
34.819
34.822
34.828
34.839
34.857
34.881
34.914
34.956
35.007
35.068
35.14
35.22
35.309
35.405
35.506
35.61
35.714
35.816
35.915
36.007
36.091
36.165
36.229
36.282
36.323
36.351
36.367
36.372
36.365
36.349
36.324
36.293
36.256
36.214
36.169
36.12
36.07
36.019
35.969
35.921
35.876
35.835
35.797
35.763
35.733
35.706
35.683
35.662
35.644
35.629
35.615
35.603
35.592
35.583
35.575
35.568
35.562
35.554
35.546
35.538
35.528
35.517
35.505
35.492
35.477
35.462
35.447
35.431
35.416
35.402
35.389
35.377
35.368
35.361
35.357
35.356
35.357
35.362
35.37
35.381
35.395
35.411
35.43
35.449
35.469
35.488
35.506
35.523
35.538
35.551
35.561
35.57
35.576
35.581
35.583
35.584
35.584
35.581
35.576
35.57
35.561
35.55
35.537
35.521
35.503
35.483
35.462
35.439
35.417
35.395
35.373
35.352
35.332
35.312
35.293
35.275
35.258
35.242
35.227
35.213
35.2
35.188
35.176
35.164
35.154
35.145
35.136
35.129
35.122
35.117
35.112
35.108
35.104
35.101
35.098
35.095
35.092
35.09
35.087
35.084
35.081
35.078
35.075
35.073
35.071
35.07
35.071
35.072
35.074
35.076
35.078
35.081
35.083
35.086
35.088
35.09
35.091
35.09
35.088
35.084
35.078
35.072
35.066
35.059
35.053
35.048
35.043
35.039
35.035
35.031
35.028
35.024
35.022
35.019
35.017
35.016
35.014
35.013
35.011
35.009
35.007
35.004
35.002
34.998
34.995
34.99
34.985
34.98
34.974
34.968
34.962
34.955
34.95
34.944
34.939
34.935
34.932
34.93
34.93
34.934
34.941
34.954
34.974
35.001
35.036
35.08
35.133
35.197
35.27
35.352
35.442
35.537
35.636
35.737
35.837
35.933
36.025
36.109
36.184
36.249
36.302
36.344
36.373
36.391
36.397
36.392
36.378
36.355
36.325
36.289
36.248
36.204
36.157
36.109
36.061
36.014
35.967
35.921
35.878
35.838
35.801
35.768
35.739
35.713
35.692
35.674
35.659
35.647
35.637
35.627
35.618
35.609
35.599
35.588
35.576
35.563
35.549
35.533
35.517
35.499
35.481
35.463
35.445
35.429
35.413
35.399
35.388
35.378
35.371
35.366
35.364
35.366
35.369
35.375
35.384
35.396
35.41
35.426
35.444
35.461
35.479
35.495
35.512
35.527
35.54
35.552
35.563
35.571
35.577
35.581
35.582
35.581
35.578
35.574
35.568
35.56
35.551
35.541
35.529
35.515
35.501
35.487
35.471
35.454
35.437
35.418
35.398
35.378
35.357
35.336
35.315
35.296
35.278
35.262
35.247
35.234
35.222
35.21
35.199
35.188
35.178
35.168
35.158
35.149
35.138
35.128
35.116
35.105
35.094
35.082
35.072
35.062
35.053
35.046
35.039
35.034
35.031
35.029
35.029
35.029
35.03
35.032
35.034
35.036
35.039
35.042
35.046
35.051
35.056
35.062
35.066
35.07
35.073
35.076
35.077
35.077
35.077
35.077
35.076
35.074
35.073
35.071
35.069
35.067
35.066
35.064
35.062
35.058
35.054
35.048
35.042
35.035
35.029
35.023
35.018
35.013
35.009
35.005
35.001
34.997
34.994
34.99
34.987
34.982
34.977
34.971
34.965
34.957
34.948
34.94
34.932
34.925
34.918
34.913
34.909
34.906
34.905
34.907
34.912
34.921
34.935
34.956
34.985
35.023
35.071
35.13
35.198
35.276
35.363
35.456
35.555
35.657
35.76
35.861
35.958
36.049
36.134
36.21
36.276
36.331
36.375
36.408
36.429
36.438
36.437
36.424
36.402
36.371
36.331
36.284
36.232
36.176
36.118
36.06
36.002
35.948
35.897
35.851
35.808
35.771
35.739
35.712
35.689
35.67
35.655
35.642
35.632
35.623
35.614
35.606
35.597
35.587
35.576
35.563
35.549
35.532
35.515
35.496
35.476
35.456
35.436
35.417
35.399
35.382
35.368
35.356
35.346
35.34
35.337
35.338
35.341
35.348
35.357
35.37
35.385
35.404
35.424
35.447
35.47
35.493
35.516
35.538
35.557
35.574
35.588
35.598
35.605
35.61
35.611
35.61
35.607
35.601
35.594
35.585
35.573
35.56
35.545
35.529
35.51
35.491
35.47
35.449
35.428
35.408
35.388
35.368
35.348
35.328
35.309
35.289
35.271
35.253
35.235
35.218
35.201
35.184
35.167
35.15
35.133
35.118
35.104
35.092
35.083
35.076
35.07
35.067
35.064
35.063
35.062
35.062
35.063
35.063
35.064
35.065
35.066
35.066
35.066
35.067
35.067
35.068
35.07
35.072
35.075
35.077
35.079
35.08
35.08
35.08
35.08
35.079
35.078
35.076
35.074
35.073
35.072
35.072
35.073
35.075
35.076
35.077
35.078
35.079
35.08
35.08
35.08
35.079
35.077
35.075
35.072
35.069
35.064
35.058
35.051
35.043
35.033
35.022
35.01
34.997
34.984
34.971
34.959
34.949
34.94
34.931
34.924
34.917
34.911
34.905
34.9
34.895
34.891
34.888
34.886
34.885
34.885
34.888
34.894
34.904
34.919
34.94
34.969
35.007
35.054
35.11
35.176
35.251
35.334
35.425
35.523
35.626
35.731
35.836
35.939
36.036
36.125
36.203
36.27
36.324
36.365
36.393
36.408
36.411
36.402
36.384
36.356
36.32
36.279
36.234
36.185
36.134
36.082
36.03
35.978
35.928
35.88
35.834
35.792
35.753
35.719
35.688
35.661
35.637
35.615
35.595
35.578
35.562
35.547
35.533
35.519
35.505
35.491
35.476
35.46
35.443
35.426
35.409
35.391
35.373
35.355
35.338
35.322
35.307
35.294
35.283
35.275
35.27
35.269
35.271
35.276
35.284
35.295
35.309
35.324
35.34
35.358
35.377
35.395
35.412
35.429
35.446
35.461
35.475
35.488
35.501
35.513
35.523
35.531
35.537
35.54
35.541
35.539
35.535
35.529
35.521
35.509
35.496
35.48
35.463
35.443
35.422
35.401
35.377
35.353
35.328
35.301
35.275
35.25
35.225
35.203
35.182
35.163
35.145
35.129
35.113
35.099
35.086
35.074
35.064
35.053
35.043
35.033
35.022
35.011
35.0
34.99
34.981
34.974
34.968
34.964
34.961
34.959
34.959
34.96
34.963
34.966
34.97
34.975
34.979
34.983
34.986
34.989
34.992
34.994
34.996
34.997
34.997
34.996
34.995
34.994
34.992
34.99
34.987
34.986
34.985
34.985
34.985
34.986
34.987
34.988
34.99
34.991
34.993
34.995
34.997
34.998
34.999
34.999
34.997
34.994
34.991
34.986
34.981
34.976
34.97
34.965
34.961
34.956
34.951
34.945
34.939
34.932
34.925
34.917
34.909
34.9
34.892
34.884
34.878
34.873
34.871
34.871
34.873
34.879
34.888
34.902
34.922
34.948
34.983
35.026
35.079
35.142
35.215
35.297
35.388
35.485
35.588
35.694
35.8
35.904
36.005
36.099
36.186
36.263
36.33
36.384
36.427
36.458
36.478
36.486
36.483
36.47
36.448
36.417
36.38
36.338
36.291
36.241
36.189
36.136
36.084
36.033
35.985
35.939
35.897
35.859
35.825
35.796
35.77
35.748
35.728
35.711
35.695
35.682
35.67
35.659
35.648
35.639
35.629
35.619
35.608
35.596
35.582
35.567
35.55
35.532
35.511
35.49
35.468
35.447
35.427
35.411
35.397
35.386
35.38
35.377
35.378
35.381
35.387
35.396
35.406
35.418
35.432
35.448
35.466
35.484
35.503
35.522
35.539
35.554
35.567
35.578
35.587
35.593
35.596
35.597
35.596
35.592
35.585
35.577
35.567
35.556
35.544
35.531
35.517
35.502
35.486
35.469
35.451
35.433
35.414
35.395
35.375
35.355
35.335
35.315
35.296
35.278
35.26
35.244
35.229
35.214
35.2
35.187
35.175
35.163
35.151
35.141
35.131
35.121
35.112
35.103
35.095
35.086
35.078
35.071
35.064
35.059
35.055
35.053
35.051
35.051
35.052
35.053
35.054
35.055
35.057
35.058
35.058
35.059
35.06
35.061
35.063
35.065
35.068
35.071
35.074
35.077
35.08
35.082
35.083
35.083
35.082
35.081
35.079
35.076
35.073
35.069
35.063
35.057
35.05
35.042
35.035
35.028
35.023
35.018
35.014
35.01
35.006
35.002
34.998
34.993
34.989
34.983
34.977
34.969
34.962
34.954
34.946
34.938
34.932
34.926
34.921
34.917
34.914
34.912
34.911
34.911
34.912
34.914
34.919
34.928
34.941
34.961
34.988
35.023
35.068
35.123
35.189
35.264
35.35
35.445
35.546
35.651
35.758
35.864
35.967
36.065
36.155
36.235
36.303
36.359
36.402
36.43
36.445
36.448
36.438
36.419
36.391
36.356
36.314
36.267
36.217
36.165
36.113
36.061
36.011
35.964
35.919
35.876
35.837
35.801
35.768
35.738
35.71
35.685
35.663
35.643
35.626
35.61
35.596
35.583
35.57
35.558
35.546
35.535
35.522
35.508
35.493
35.475
35.454
35.433
35.411
35.39
35.37
35.353
35.337
35.324
35.314
35.306
35.3
35.298
35.297
35.3
35.305
35.313
35.325
35.339
35.355
35.373
35.392
35.412
35.432
35.452
35.472
35.49
35.507
35.522
35.534
35.544
35.552
35.557
35.559
35.558
35.555
35.548
35.538
35.526
35.512
35.495
35.477
35.457
35.437
35.415
35.393
35.37
35.348
35.325
35.303
35.281
35.26
35.24
35.22
35.201
35.182
35.164
35.146
35.129
35.113
35.098
35.085
35.073
35.062
35.054
35.047
35.041
35.035
35.031
35.027
35.023
35.02
35.017
35.013
35.009
35.004
34.999
34.994
34.988
34.983
34.979
34.974
34.97
34.967
34.963
34.96
34.957
34.955
34.953
34.952
34.953
34.954
34.957
34.96
34.965
34.969
34.975
34.98
34.985
34.99
34.993
34.994
34.995
34.995
34.995
34.995
34.995
34.994
34.992
34.989
34.985
34.98
34.975
34.97
34.964
34.959
34.953
34.948
34.942
34.937
34.933
34.929
34.925
34.922
34.919
34.915
34.911
34.905
34.898
34.89
34.882
34.874
34.866
34.859
34.854
34.851
34.85
34.852
34.857
34.866
34.879
34.897
34.921
34.952
34.991
35.04
35.098
35.167
35.245
35.332
35.428
35.531
35.637
35.745
35.852
35.955
36.052
36.141
36.22
36.287
36.343
36.387
36.418
36.438
36.445
36.442
36.429
36.407
36.378
36.341
36.299
36.252
36.202
36.15
36.097
36.044
35.992
35.94
35.892
35.846
35.804
35.765
35.731
35.699
35.67
35.644
35.621
35.599
35.58
35.562
35.546
35.531
35.518
35.505
35.493
35.481
35.467
35.453
35.437
35.419
35.401
35.381
35.361
35.34
35.32
35.301
35.284
35.27
35.26
35.255
35.254
35.258
35.266
35.278
35.293
35.309
35.328
35.349
35.371
35.395
35.419
35.443
35.466
35.488
35.507
35.524
35.539
35.551
35.559
35.564
35.565
35.562
35.555
35.546
35.533
35.518
35.502
35.484
35.466
35.448
35.428
35.409
35.39
35.37
35.35
35.331
35.311
35.291
35.272
35.253
35.234
35.215
35.197
35.18
35.164
35.148
35.133
35.117
35.102
35.087
35.071
35.056
35.042
35.03
35.02
35.011
35.004
34.998
34.994
34.992
34.99
34.99
34.99
34.991
34.993
34.994
34.996
34.998
34.999
35.001
35.003
35.005
35.007
35.01
35.011
35.012
35.012
35.012
35.011
35.011
35.011
35.011
35.012
35.012
35.012
35.012
35.012
35.012
35.011
35.011
35.011
35.01
35.009
35.007
35.004
35.001
34.997
34.993
34.988
34.983
34.977
34.97
34.964
34.956
34.949
34.941
34.932
34.923
34.914
34.905
34.895
34.884
34.874
34.863
34.852
34.842
34.833
34.826
34.821
34.818
34.818
34.82
34.827
34.839
34.857
34.881
34.914
34.955
35.007
35.068
35.139
35.219
35.307
35.402
35.503
35.608
35.714
35.819
35.922
36.019
36.108
36.188
36.258
36.315
36.359
36.389
36.406
36.411
36.404
36.386
36.359
36.323
36.28
36.232
36.179
36.124
36.067
36.01
35.954
35.9
35.848
35.8
35.754
35.713
35.674
35.639
35.607
35.577
35.55
35.525
35.502
35.481
35.462
35.444
35.427
35.411
35.396
35.38
35.365
35.349
35.333
35.318
35.302
35.287
35.272
35.258
35.244
35.23
35.217
35.207
35.2
35.198
35.199
35.206
35.217
35.232
35.25
35.272
35.295
35.32
35.345
35.37
35.395
35.418
35.44
35.458
35.474
35.486
35.496
35.503
35.508
35.511
35.511
35.509
35.504
35.497
35.487
35.476
35.464
35.451
35.437
35.422
35.406
35.389
35.37
35.351
35.331
35.31
35.289
35.268
35.246
35.224
35.203
35.181
35.16
35.141
35.123
35.106
35.091
35.077
35.064
35.052
35.042
35.032
35.022
35.012
35.003
34.994
34.984
34.975
34.967
34.958
34.951
34.944
34.939
34.936
34.933
34.931
34.93
34.929
34.928
34.928
34.927
34.928
34.929
34.93
34.932
34.935
34.937
34.94
34.943
34.947
34.949
34.951
34.953
34.954
34.955
34.955
34.956
34.957
34.958
34.96
34.962
34.964
34.967
34.971
34.974
34.978
34.982
34.986
34.99
34.993
34.996
34.998
34.999
34.998
34.996
34.993
34.989
34.984
34.978
34.97
34.961
34.95
34.937
34.924
34.91
34.896
34.882
34.867
34.853
34.84
34.828
34.818
34.813
34.811
34.816
34.828
34.848
34.876
34.914
34.962
35.021
35.09
35.171
35.263
35.364
35.473
35.588
35.707
35.826
35.942
36.052
36.155
36.247
36.327
36.393
36.446
36.484
36.508
36.519
36.516
36.502
36.478
36.444
36.404
36.357
36.307
36.254
36.2
36.145
36.092
36.039
35.99
35.943
35.901
35.862
35.828
35.798
35.772
35.749
35.73
35.713
35.698
35.684
35.672
35.659
35.647
35.634
35.62
35.606
35.591
35.575
35.558
35.539
35.519
35.498
35.477
35.455
35.433
35.411
35.39
35.37
35.352
35.338
35.328
35.322
35.321
35.325
35.333
35.344
35.359
35.376
35.396
35.417
35.437
35.458
35.477
35.494
35.511
35.526
35.54
35.554
35.567
35.58
35.591
35.6
35.608
35.612
35.614
35.614
35.611
35.605
35.596
35.583
35.568
35.55
35.53
35.509
35.486
35.463
35.439
35.415
35.391
35.367
35.345
35.323
35.303
35.284
35.266
35.249
35.233
35.218
35.204
35.19
35.177
35.165
35.153
35.142
35.13
35.118
35.105
35.093
35.081
35.069
35.06
35.052
35.046
35.042
35.039
35.037
35.035
35.034
35.034
35.033
35.033
35.032
35.031
35.03
35.028
35.025
35.023
35.02
35.018
35.016
35.016
35.016
35.016
35.017
35.018
35.019
35.02
35.02
35.021
35.022
35.022
35.021
35.02
35.019
35.018
35.017
35.016
35.015
35.013
35.012
35.01
35.008
35.005
35.002
34.998
34.995
34.99
34.985
34.98
34.974
34.967
34.96
34.952
34.944
34.936
34.928
34.92
34.911
34.903
34.895
34.887
34.879
34.873
34.868
34.865
34.864
34.866
34.872
34.883
34.899
34.921
34.951
34.991
35.04
35.1
35.172
35.254
35.347
35.448
35.556
35.668
35.783
35.897
36.007
36.111
36.206
36.289
36.359
36.415
36.456
36.483
36.496
36.496
36.485
36.463
36.433
36.397
36.354
36.309
36.26
36.211
36.162
36.113
36.064
36.017
35.971
35.927
35.886
35.847
35.81
35.775
35.742
35.71
35.682
35.656
35.632
35.611
35.593
35.576
35.561
35.548
35.536
35.525
35.514
35.503
35.491
35.478
35.464
35.448
35.429
35.409
35.388
35.366
35.345
35.325
35.308
35.294
35.283
35.277
35.275
35.277
35.283
35.294
35.308
35.325
35.345
35.367
35.389
35.413
35.436
35.459
35.48
35.501
35.519
35.535
35.549
35.559
35.567
35.571
35.573
35.571
35.566
35.558
35.547
35.534
35.52
35.504
35.487
35.469
35.45
35.43
35.41
35.389
35.367
35.346
35.325
35.303
35.281
35.258
35.235
35.212
35.191
35.171
35.153
35.136
35.12
35.106
35.091
35.078
35.066
35.054
35.043
35.032
35.021
35.011
35.002
34.995
34.989
34.983
34.979
34.976
34.973
34.971
34.97
34.969
34.969
34.97
34.971
34.972
34.974
34.975
34.975
34.976
34.976
34.975
34.975
34.975
34.975
34.975
34.975
34.975
34.976
34.977
34.978
34.978
34.978
34.977
34.975
34.974
34.972
34.971
34.969
34.968
34.967
34.966
34.966
34.966
34.965
34.965
34.965
34.965
34.965
34.966
34.967
34.968
34.968
34.969
34.968
34.967
34.964
34.96
34.955
34.949
34.941
34.932
34.923
34.912
34.9
34.888
34.876
34.865
34.856
34.847
34.84
34.835
34.83
34.827
34.826
34.826
34.83
34.839
34.853
34.875
34.906
34.946
34.998
35.062
35.137
35.223
35.319
35.423
35.533
35.647
35.762
35.876
35.987
36.091
36.187
36.273
36.348
36.409
36.457
36.49
36.508
36.513
36.505
36.485
36.456
36.417
36.372
36.321
36.265
36.207
36.148
36.089
36.032
35.976
35.924
35.874
35.828
35.784
35.744
35.708
35.675
35.645
35.618
35.594
35.572
35.552
35.534
35.518
35.502
35.487
35.472
35.457
35.442
35.427
35.41
35.392
35.374
35.356
35.337
35.319
35.301
35.284
35.27
35.259
35.251
35.246
35.246
35.251
35.26
35.273
35.289
35.309
35.332
35.356
35.381
35.406
35.432
35.457
35.481
35.502
35.522
35.54
35.555
35.568
35.577
35.585
35.589
35.59
35.589
35.586
35.58
35.572
35.561
35.549
35.535
35.518
35.5
35.48
35.459
35.437
35.414
35.392
35.369
35.347
35.326
35.304
35.283
35.262
35.241
35.222
35.202
35.184
35.166
35.148
35.13
35.114
35.098
35.083
35.069
35.056
35.044
35.032
35.021
35.012
35.003
34.995
34.988
34.982
34.977
34.973
34.97
34.969
34.97
34.972
34.974
34.977
34.979
34.981
34.982
34.982
34.981
34.979
34.978
34.975
34.973
34.972
34.971
34.971
34.972
34.974
34.975
34.977
34.978
34.979
34.978
34.976
34.973
34.97
34.966
34.962
34.958
34.954
34.951
34.948
34.947
34.946
34.948
34.949
34.951
34.953
34.953
34.952
34.949
34.944
34.937
34.93
34.921
34.912
34.902
34.891
34.881
34.869
34.858
34.847
34.837
34.826
34.817
34.808
34.8
34.794
34.789
34.786
34.787
34.791
34.8
34.815
34.836
34.865
34.901
34.947
35.002
35.068
35.144
35.23
35.324
35.427
35.536
35.649
35.763
35.877
35.989
36.095
36.192
36.28
36.355
36.416
36.463
36.494
36.51
36.511
36.499
36.476
36.442
36.399
36.35
36.295
36.237
36.177
36.116
36.055
35.996
35.938
35.883
35.831
35.783
35.738
35.699
35.664
35.633
35.605
35.58
35.558
35.539
35.521
35.504
35.489
35.476
35.463
35.45
35.438
35.424
35.41
35.395
35.38
35.363
35.346
35.329
35.31
35.292
35.274
35.256
35.239
35.224
35.211
35.201
35.194
35.19
35.19
35.193
35.2
35.211
35.226
35.244
35.265
35.288
35.313
35.338
35.363
35.387
35.409
35.429
35.447
35.463
35.477
35.488
35.496
35.5
35.501
35.499
35.493
35.485
35.475
35.462
35.448
35.432
35.414
35.394
35.374
35.354
35.333
35.313
35.294
35.274
35.255
35.236
35.218
35.199
35.181
35.163
35.145
35.126
35.108
35.089
35.071
35.054
35.038
35.024
