Trial 3:3back
33.712
33.703
33.694
33.683
33.669
33.653
33.636
33.618
33.598
33.577
33.554
33.531
33.506
33.482
33.458
33.433
33.408
33.383
33.356
33.329
33.303
33.279
33.256
33.233
33.212
33.191
33.17
33.15
33.13
33.112
33.096
33.081
33.068
33.055
33.043
33.032
33.022
33.012
33.003
32.995
32.988
32.98
32.972
32.962
32.951
32.94
32.927
32.913
32.898
32.883
32.866
32.849
32.829
32.804
32.777
32.752
32.734
32.73
32.744
32.78
32.844
32.938
33.062
33.218
33.404
33.617
33.854
34.111
34.384
34.669
34.961
35.254
35.544
35.826
36.095
36.349
36.586
36.804
37.002
37.18
37.337
37.474
37.592
37.691
37.772
37.838
37.889
37.927
37.954
37.972
37.984
37.992
37.996
37.997
37.997
37.994
37.989
37.983
37.975
37.965
37.951
37.934
37.913
37.887
37.856
37.822
37.786
37.749
37.712
37.676
37.641
37.606
37.571
37.536
37.5
37.463
37.423
37.379
37.332
37.28
37.224
37.164
37.102
37.036
36.969
36.902
36.835
36.77
36.709
36.653
36.601
36.557
36.518
36.485
36.456
36.432
36.41
36.389
36.369
36.348
36.326
36.302
36.275
36.246
36.214
36.18
36.145
36.109
36.072
36.038
36.005
35.975
35.946
35.92
35.896
35.871
35.847
35.822
35.795
35.766
35.735
35.702
35.668
35.633
35.597
35.561
35.524
35.485
35.444
35.402
35.359
35.315
35.27
35.225
35.179
35.132
35.085
35.037
34.99
34.943
34.897
34.852
34.808
34.766
34.727
34.692
34.66
34.633
34.609
34.587
34.568
34.549
34.532
34.514
34.496
34.476
34.454
34.429
34.4
34.368
34.333
34.297
34.259
34.222
34.184
34.148
34.113
34.08
34.05
34.023
34.0
33.981
33.965
33.953
33.943
33.935
33.928
33.922
33.918
33.914
33.91
33.905
33.899
33.891
33.881
33.869
33.855
33.838
33.817
33.792
33.763
33.731
33.695
33.658
33.62
33.582
33.546
33.512
33.481
33.452
33.428
33.408
33.392
33.38
33.372
33.366
33.362
33.358
33.354
33.348
33.341
33.333
33.322
33.308
33.29
33.27
33.245
33.218
33.188
33.158
33.128
33.101
33.076
33.054
33.038
33.029
33.028
33.039
33.064
33.107
33.169
33.253
33.36
33.49
33.644
33.82
34.018
34.232
34.461
34.701
34.949
35.199
35.449
35.696
35.935
36.164
36.381
36.585
36.774
36.948
37.106
37.249
37.378
37.492
37.593
37.681
37.756
37.819
37.871
37.911
37.941
37.96
37.97
37.972
37.966
37.954
37.936
37.911
37.882
37.85
37.815
37.78
37.745
37.711
37.677
37.644
37.61
37.575
37.539
37.501
37.459
37.415
37.367
37.317
37.263
37.206
37.148
37.089
37.029
36.968
36.907
36.848
36.789
36.731
36.674
36.618
36.562
36.506
36.449
36.394
36.339
36.287
36.238
36.193
36.155
36.122
36.098
36.08
36.07
36.065
36.066
36.069
36.074
36.078
36.082
36.083
36.081
36.073
36.062
36.045
36.025
36.002
35.976
35.948
35.919
35.889
35.857
35.825
35.791
35.755
35.718
35.678
35.635
35.59
35.542
35.492
35.439
35.386
35.331
35.276
35.22
35.165
35.111
35.058
35.008
34.961
34.917
34.876
34.839
34.804
34.771
34.738
34.705
34.671
34.635
34.597
34.557
34.515
34.472
34.428
34.385
34.343
34.304
34.269
34.236
34.206
34.18
34.156
34.135
34.117
34.102
34.089
34.078
34.068
34.058
34.048
34.039
34.029
34.02
34.01
33.999
33.988
33.976
33.963
33.95
33.936
33.923
33.908
33.887
33.856
33.816
33.77
33.721
33.673
33.628
33.588
33.554
33.527
33.508
33.495
33.488
33.486
33.489
33.494
33.502
33.51
33.517
33.525
33.53
33.534
33.535
33.533
33.527
33.518
33.504
33.488
33.468
33.446
33.422
33.396
33.368
33.339
33.308
33.275
33.241
33.206
33.172
33.139
33.109
33.082
33.061
33.047
33.041
33.047
33.067
33.102
33.157
33.233
33.33
33.449
33.591
33.757
33.944
34.152
34.379
34.623
34.879
35.144
35.417
35.693
35.97
36.245
36.515
36.776
37.025
37.26
37.478
37.679
37.859
38.019
38.16
38.282
38.387
38.476
38.552
38.614
38.665
38.706
38.737
38.76
38.777
38.787
38.789
38.785
38.775
38.759
38.738
38.713
38.686
38.656
38.627
38.599
38.574
38.552
38.532
38.513
38.495
38.475
38.453
38.429
38.401
38.369
38.334
38.293
38.248
38.198
38.144
38.087
38.027
37.966
37.902
37.837
37.769
37.699
37.627
37.554
37.48
37.406
37.333
37.262
37.195
37.133
37.076
37.026
36.982
36.943
36.911
36.883
36.859
36.837
36.817
36.795
36.773
36.749
36.722
36.692
36.661
36.629
36.598
36.567
36.539
36.512
36.488
36.465
36.443
36.42
36.395
36.366
36.333
36.295
36.252
36.205
36.152
36.095
36.035
35.973
35.91
35.849
35.791
35.736
35.683
35.634
35.588
35.546
35.507
35.47
35.434
35.399
35.363
35.327
35.289
35.25
35.21
35.17
35.129
35.087
35.044
35.0
34.957
34.913
34.871
34.831
34.793
34.758
34.726
34.699
34.676
34.657
34.641
34.625
34.61
34.595
34.58
34.564
34.549
34.533
34.517
34.501
34.483
34.464
34.442
34.418
34.391
34.361
34.331
34.298
34.264
34.229
34.193
34.156
34.121
34.088
34.057
34.029
34.004
33.983
33.965
33.95
33.938
33.928
33.921
33.914
33.908
33.901
33.891
33.878
33.862
33.844
33.823
33.8
33.775
33.748
33.72
33.69
33.661
33.631
33.604
33.579
33.557
33.54
33.527
33.52
33.521
33.531
33.554
33.591
33.644
33.716
33.807
33.919
34.052
34.206
34.379
34.571
34.78
35.004
35.241
35.488
35.743
36.001
36.259
36.515
36.764
37.003
37.23
37.442
37.637
37.813
37.97
38.108
38.227
38.329
38.416
38.488
38.548
38.597
38.635
38.662
38.681
38.69
38.693
38.689
38.679
38.664
38.646
38.625
38.604
38.582
38.56
38.538
38.516
38.495
38.473
38.451
38.427
38.4
38.369
38.334
38.296
38.255
38.211
38.164
38.116
38.066
38.016
37.963
37.908
37.85
37.789
37.724
37.655
37.582
37.504
37.423
37.34
37.256
37.175
37.098
37.027
36.963
36.907
36.86
36.821
36.788
36.761
36.738
36.717
36.697
36.677
36.657
36.634
36.61
36.584
36.557
36.528
36.499
36.47
36.441
36.412
36.383
36.355
36.326
36.298
36.267
36.234
36.196
36.155
36.111
36.063
36.012
35.958
35.902
35.845
35.787
35.73
35.674
35.62
35.567
35.516
35.467
35.421
35.376
35.335
35.296
35.258
35.223
35.189
35.154
35.118
35.081
35.043
35.004
34.965
34.925
34.886
34.847
34.808
34.766
34.723
34.68
34.636
34.593
34.549
34.508
34.469
34.435
34.405
34.38
34.361
34.346
34.337
34.331
34.329
34.33
34.333
34.338
34.343
34.348
34.35
34.351
34.349
34.343
34.334
34.32
34.301
34.276
34.247
34.213
34.176
34.136
34.094
34.053
34.011
33.97
33.931
33.895
33.863
33.834
33.81
33.791
33.776
33.765
33.756
33.75
33.746
33.742
33.736
33.728
33.715
33.697
33.675
33.649
33.62
33.59
33.56
33.529
33.501
33.474
33.45
33.43
33.414
33.403
33.399
33.404
33.42
33.449
33.491
33.55
33.627
33.724
33.843
33.983
34.144
34.325
34.526
34.743
34.976
35.222
35.474
35.73
35.984
36.232
36.471
36.699
36.912
37.111
37.294
37.461
37.612
37.748
37.869
37.978
38.073
38.157
38.228
38.288
38.337
38.374
38.4
38.415
38.42
38.414
38.4
38.381
38.356
38.33
38.304
38.278
38.254
38.233
38.214
38.196
38.179
38.16
38.139
38.112
38.081
38.044
38.004
37.965
37.929
37.896
37.864
37.832
37.799
37.764
37.722
37.673
37.615
37.547
37.47
37.385
37.293
37.196
37.096
36.996
36.898
36.805
36.718
36.639
36.569
36.509
36.459
36.418
36.385
36.36
36.342
36.328
36.318
36.309
36.302
36.296
36.29
36.284
36.278
36.272
36.264
36.253
36.241
36.225
36.206
36.183
36.155
36.122
36.085
36.044
36.0
35.954
35.906
35.856
35.805
35.753
35.702
35.652
35.604
35.558
35.515
35.473
35.433
35.393
35.354
35.316
35.28
35.245
35.218
35.203
35.199
35.204
35.213
35.223
35.229
35.228
35.218
35.196
35.163
35.118
35.063
35.0
34.931
34.858
34.784
34.712
34.642
34.579
34.522
34.472
34.431
34.397
34.37
34.35
34.336
34.327
34.32
34.315
34.309
34.302
34.292
34.277
34.259
34.238
34.214
34.188
34.161
34.133
34.106
34.079
34.055
34.032
34.013
33.998
33.986
33.976
33.969
33.962
33.956
33.948
33.938
33.925
33.909
33.887
33.862
33.833
33.801
33.767
33.733
33.698
33.664
33.63
33.599
33.57
33.544
33.523
33.505
33.489
33.476
33.463
33.451
33.44
33.43
33.423
33.42
33.423
33.434
33.455
33.49
33.542
33.614
33.709
33.827
33.969
34.134
34.322
34.529
34.753
34.993
35.244
35.503
35.766
36.028
36.287
36.539
36.78
37.008
37.222
37.42
37.601
37.765
37.912
38.044
38.159
38.259
38.344
38.414
38.469
38.511
38.541
38.56
38.57
38.572
38.566
38.555
38.539
38.52
38.5
38.479
38.458
38.439
38.422
38.408
38.396
38.384
38.372
38.356
38.336
38.312
38.281
38.245
38.202
38.153
38.098
38.038
37.973
37.904
37.831
37.756
37.678
37.599
37.519
37.439
37.359
37.279
37.199
37.12
37.043
36.969
36.9
36.836
36.777
36.723
36.673
36.628
36.588
36.551
36.518
36.489
36.462
36.437
36.415
36.395
36.377
36.36
36.344
36.327
36.311
36.293
36.275
36.255
36.234
36.21
36.183
36.15
36.114
36.072
36.027
35.979
35.928
35.875
35.822
35.769
35.717
35.667
35.619
35.574
35.531
35.491
35.452
35.414
35.375
35.337
35.297
35.255
35.211
35.165
35.117
35.068
35.018
34.968
34.92
34.872
34.827
34.783
34.743
34.705
34.672
34.642
34.615
34.593
34.574
34.558
34.545
34.534
34.523
34.513
34.503
34.491
34.477
34.461
34.443
34.423
34.4
34.375
34.347
34.316
34.283
34.247
34.21
34.172
34.133
34.094
34.057
34.021
33.99
33.963
33.941
33.925
33.915
33.909
33.906
33.905
33.906
33.907
33.907
33.906
33.902
33.892
33.878
33.857
33.831
33.799
33.764
33.724
33.683
33.642
33.601
33.564
33.531
33.504
33.483
33.468
33.457
33.45
33.446
33.444
33.443
33.441
33.439
33.434
33.427
33.416
33.401
33.382
33.359
33.334
33.308
33.283
33.261
33.246
33.242
33.251
33.279
33.328
33.4
33.498
33.621
33.769
33.941
34.135
34.349
34.579
34.823
35.077
35.339
35.604
35.87
36.135
36.395
36.648
36.892
37.124
37.344
37.55
37.74
37.913
38.067
38.203
38.326
38.439
38.54
38.631
38.709
38.775
38.826
38.864
38.889
38.902
38.904
38.895
38.877
38.852
38.82
38.785
38.747
38.707
38.669
38.632
38.599
38.57
38.546
38.525
38.507
38.49
38.473
38.455
38.435
38.412
38.384
38.349
38.306
38.256
38.197
38.129
38.055
37.973
37.887
37.796
37.704
37.611
37.519
37.428
37.341
37.256
37.176
37.101
37.031
36.967
36.909
36.854
36.804
36.757
36.712
36.67
36.63
36.592
36.556
36.522
36.491
36.463
36.439
36.418
36.399
36.381
36.362
36.342
36.32
36.294
36.265
36.233
36.196
36.157
36.115
36.071
36.025
35.978
35.931
35.883
35.837
35.791
35.747
35.704
35.662
35.62
35.578
35.535
35.49
35.442
35.393
35.343
35.294
35.245
35.199
35.155
35.113
35.073
35.037
35.003
34.971
34.941
34.912
34.882
34.853
34.822
34.792
34.761
34.729
34.697
34.665
34.634
34.604
34.577
34.554
34.533
34.516
34.501
34.488
34.475
34.462
34.448
34.431
34.412
34.389
34.362
34.332
34.298
34.262
34.223
34.183
34.142
34.102
34.064
34.028
33.996
33.968
33.946
33.93
33.919
33.913
33.912
33.913
33.916
33.918
33.919
33.916
33.909
33.897
33.881
33.86
33.836
33.807
33.776
33.743
33.708
33.674
33.641
33.611
33.585
33.562
33.542
33.526
33.512
33.5
33.487
33.474
33.459
33.443
33.426
33.408
33.389
33.369
33.347
33.325
33.303
33.281
33.259
33.239
33.22
33.202
33.185
33.17
33.159
33.151
33.148
33.151
33.16
33.175
33.196
33.227
33.269
33.326
33.402
33.498
33.616
33.758
33.924
34.113
34.322
34.551
34.796
35.053
35.319
35.589
35.86
36.128
36.391
36.646
36.891
37.124
37.342
37.544
37.728
37.894
38.041
38.168
38.277
38.367
38.441
38.5
38.545
38.579
38.602
38.616
38.624
38.626
38.623
38.616
38.607
38.595
38.581
38.566
38.549
38.531
38.511
38.489
38.466
38.442
38.417
38.392
38.366
38.34
38.312
38.282
38.249
38.213
38.172
38.126
38.074
38.017
37.953
37.885
37.812
37.733
37.651
37.565
37.477
37.389
37.302
37.217
37.134
37.056
36.981
36.911
36.845
36.784
36.729
36.679
36.634
36.593
36.555
36.521
36.489
36.46
36.435
36.411
36.388
36.365
36.342
36.318
36.295
36.271
36.245
36.217
36.187
36.153
36.118
36.08
36.04
35.998
35.953
35.906
35.857
35.806
35.753
35.698
35.641
35.583
35.524
35.466
35.411
35.36
35.313
35.271
35.233
35.197
35.165
35.134
35.104
35.074
35.042
35.011
34.978
34.944
34.908
34.871
34.831
34.79
34.747
34.703
34.657
34.611
34.566
34.523
34.484
34.449
34.419
34.393
34.373
34.358
34.346
34.338
34.332
34.328
34.324
34.319
34.313
34.304
34.292
34.276
34.256
34.231
34.202
34.169
34.133
34.096
34.058
34.023
33.989
33.96
33.934
33.912
33.893
33.877
33.864
33.852
33.841
33.83
33.819
33.807
33.793
33.777
33.759
33.738
33.714
33.687
33.658
33.627
33.595
33.564
33.534
33.506
33.48
33.458
33.439
33.424
33.412
33.403
33.396
33.389
33.382
33.373
33.363
33.351
33.337
33.321
33.305
33.287
33.27
33.253
33.238
33.223
33.21
33.198
33.187
33.176
33.167
33.158
33.15
33.143
33.135
33.126
33.116
33.103
33.087
33.068
33.047
33.023
32.998
32.971
32.945
32.921
32.899
32.883
32.875
32.876
32.891
32.922
32.972
33.043
33.137
33.255
33.397
33.561
33.748
33.954
34.178
34.416
34.666
34.924
35.187
35.451
35.715
35.974
36.225
36.466
36.694
36.906
37.102
37.28
37.442
37.588
37.717
37.831
37.931
38.017
38.092
38.154
38.206
38.247
38.278
38.3
38.314
38.319
38.317
38.309
38.294
38.275
38.254
38.23
38.204
38.177
38.15
38.121
38.092
38.063
38.035
38.005
37.974
37.941
37.906
37.868
37.826
37.781
37.731
37.677
37.618
37.555
37.489
37.419
37.346
37.268
37.188
37.105
37.022
36.94
36.86
36.784
36.714
36.649
36.591
36.539
36.494
36.455
36.421
36.391
36.365
36.341
36.319
36.298
36.278
36.259
36.24
36.222
36.206
36.192
36.177
36.161
36.144
36.123
36.097
36.064
36.026
35.981
35.93
35.875
35.817
35.757
35.696
35.636
35.578
35.523
35.473
35.429
35.391
35.359
35.332
35.307
35.285
35.262
35.237
35.209
35.174
35.134
35.088
35.037
34.981
34.924
34.865
34.806
34.75
34.697
34.647
34.602
34.562
34.526
34.494
34.465
34.44
34.416
34.394
34.373
34.353
34.333
34.313
34.294
34.275
34.257
34.241
34.226
34.213
34.201
34.189
34.176
34.161
34.144
34.123
34.099
34.071
34.039
34.005
33.968
33.931
33.893
33.856
33.82
33.786
33.756
33.73
33.71
33.695
33.685
33.68
33.678
33.677
33.678
33.679
33.677
33.673
33.666
33.654
33.638
33.618
33.594
33.567
33.537
33.506
33.474
33.442
33.409
33.377
33.346
33.315
33.285
33.258
33.232
33.208
33.187
33.169
33.153
33.139
33.128
33.119
33.111
33.105
33.099
33.095
33.09
33.085
33.08
33.072
33.062
33.05
33.037
33.021
33.005
32.986
32.967
32.947
32.927
32.906
32.884
32.862
32.84
32.818
32.797
32.778
32.761
32.747
32.738
32.734
32.738
32.753
32.78
32.824
32.887
32.97
33.075
33.203
33.353
33.525
33.717
33.928
34.157
34.401
34.657
34.925
35.199
35.478
35.759
36.039
36.314
36.582
36.838
37.081
37.308
37.516
37.705
37.873
38.021
38.148
38.258
38.351
38.429
38.494
38.548
38.592
38.627
38.654
38.675
38.688
38.694
38.694
38.687
38.676
38.661
38.644
38.626
38.607
38.589
38.571
38.555
38.541
38.528
38.515
38.502
38.488
38.473
38.456
38.437
38.413
38.384
38.351
38.311
38.264
38.212
38.152
38.086
38.014
37.937
37.855
37.77
37.683
37.594
37.504
37.416
37.329
37.246
37.166
37.09
37.019
36.952
36.889
36.831
36.777
36.726
36.679
36.635
36.594
36.557
36.525
36.495
36.469
36.445
36.422
36.401
36.381
36.361
36.346
36.334
36.324
36.313
36.3
36.281
36.257
36.226
36.189
36.146
36.097
36.044
35.988
35.929
35.869
35.809
35.748
35.686
35.624
35.563
35.501
35.441
35.381
35.324
35.268
35.214
35.161
35.109
35.058
35.008
34.959
34.912
34.867
34.824
34.785
34.75
34.719
34.691
34.665
34.641
34.618
34.594
34.57
34.544
34.518
34.491
34.463
34.435
34.406
34.376
34.346
34.317
34.289
34.264
34.24
34.217
34.196
34.175
34.155
34.134
34.113
34.091
34.067
34.045
34.026
34.008
33.992
33.976
33.959
33.941
33.921
33.899
33.875
33.849
33.821
33.791
33.759
33.726
33.691
33.656
33.62
33.584
33.551
33.519
33.49
33.465
33.443
33.424
33.409
33.397
33.388
33.38
33.372
33.366
33.359
33.352
33.344
33.335
33.326
33.315
33.302
33.288
33.272
33.253
33.232
33.208
33.183
33.154
33.123
33.091
33.059
33.027
32.997
32.968
32.942
32.917
32.894
32.873
32.855
32.838
32.824
32.812
32.804
32.798
32.796
32.796
32.798
32.801
32.804
32.807
32.81
32.811
32.812
32.812
32.812
32.814
32.82
32.833
32.856
32.893
32.948
33.025
33.125
33.252
33.406
33.586
33.792
34.021
34.27
34.535
34.813
35.099
35.387
35.675
35.958
36.232
36.494
36.741
36.972
37.184
37.377
37.55
37.705
37.842
37.962
38.066
38.154
38.227
38.288
38.337
38.375
38.404
38.427
38.442
38.453
38.46
38.463
38.464
38.461
38.456
38.449
38.439
38.429
38.416
38.402
38.387
38.37
38.352
38.335
38.317
38.3
38.284
38.266
38.246
38.223
38.194
38.16
38.12
38.072
38.018
37.959
37.895
37.828
37.757
37.684
37.61
37.535
37.459
37.383
37.307
37.23
37.153
37.074
36.996
36.919
36.845
36.774
36.708
36.647
36.593
36.545
36.503
36.466
36.432
36.402
36.373
36.344
36.316
36.287
36.259
36.23
36.201
36.169
36.136
36.101
36.065
36.028
35.991
35.956
35.921
35.887
35.852
35.817
35.781
35.742
35.701
35.657
35.611
35.563
35.514
35.464
35.414
35.364
35.313
35.262
35.211
35.158
35.106
35.055
35.004
34.956
34.91
34.868
34.828
34.791
34.757
34.725
34.695
34.668
34.642
34.619
34.597
34.577
34.558
34.537
34.516
34.491
34.464
34.434
34.401
34.368
34.335
34.304
34.275
34.248
34.223
34.199
34.176
34.152
34.129
34.106
34.082
34.057
34.032
34.008
33.984
33.959
33.936
33.914
33.894
33.876
33.86
33.845
33.831
33.817
33.804
33.788
33.77
33.749
33.725
33.696
33.664
33.629
33.592
33.554
33.516
33.481
33.45
33.422
33.398
33.378
33.362
33.35
33.341
33.335
33.333
33.332
33.332
33.331
33.328
33.322
33.311
33.296
33.277
33.254
33.228
33.199
33.169
33.137
33.107
33.078
33.051
33.028
33.008
32.992
32.979
32.969
32.961
32.956
32.952
32.949
32.946
32.942
32.935
32.926
32.914
32.899
32.882
32.863
32.843
32.821
32.799
32.775
32.751
32.728
32.707
32.689
32.674
32.66
32.647
32.636
32.624
32.614
32.606
32.599
32.595
32.596
32.605
32.625
32.659
32.71
32.781
32.875
32.994
33.14
33.311
33.508
33.729
33.971
34.232
34.506
34.788
35.074
35.36
35.64
35.913
36.175
36.422
36.654
36.869
37.067
37.248
37.412
37.559
37.692
37.809
37.912
38.002
38.079
38.145
38.198
38.24
38.27
38.29
38.301
38.304
38.3
38.291
38.277
38.259
38.24
38.218
38.197
38.177
38.159
38.144
38.133
38.123
38.115
38.107
38.095
38.08
38.059
38.032
37.998
37.957
37.909
37.853
37.791
37.723
37.65
37.575
37.497
37.416
37.334
37.251
37.167
37.085
37.004
36.926
36.852
36.781
36.716
36.658
36.607
36.564
36.528
36.497
36.473
36.453
36.437
36.424
36.414
36.402
36.39
36.374
36.354
36.332
36.308
36.282
36.254
36.225
36.195
36.165
36.134
36.103
36.07
36.036
36.0
35.963
35.925
35.887
35.849
35.81
35.771
35.73
35.688
35.645
35.6
35.555
35.51
35.464
35.418
35.371
35.324
35.276
35.226
35.175
35.123
35.069
35.014
34.959
34.904
34.851
34.8
34.751
34.704
34.659
34.616
34.575
34.536
34.499
34.465
34.432
34.401
34.371
