Trial 3:3back
34.741
34.715
34.687
34.657
34.625
34.59
34.553
34.516
34.479
34.444
34.411
34.38
34.353
34.329
34.31
34.294
34.281
34.271
34.263
34.257
34.25
34.244
34.237
34.229
34.221
34.214
34.208
34.205
34.205
34.208
34.217
34.231
34.252
34.281
34.318
34.364
34.417
34.479
34.549
34.627
34.714
34.81
34.913
35.023
35.138
35.256
35.376
35.496
35.614
35.729
35.838
35.941
36.036
36.123
36.2
36.266
36.322
36.366
36.399
36.421
36.434
36.437
36.433
36.421
36.405
36.385
36.363
36.342
36.321
36.301
36.283
36.266
36.251
36.238
36.226
36.214
36.201
36.186
36.168
36.146
36.12
36.09
36.055
36.016
35.972
35.924
35.874
35.823
35.772
35.721
35.674
35.629
35.588
35.551
35.518
35.488
35.461
35.438
35.417
35.399
35.383
35.369
35.359
35.351
35.346
35.344
35.346
35.351
35.359
35.369
35.379
35.39
35.402
35.414
35.425
35.434
35.441
35.446
35.447
35.445
35.439
35.428
35.414
35.398
35.379
35.36
35.342
35.325
35.31
35.297
35.286
35.28
35.279
35.281
35.285
35.288
35.289
35.286
35.276
35.26
35.237
35.206
35.168
35.123
35.073
35.02
34.965
34.911
34.858
34.807
34.76
34.718
34.681
34.652
34.629
34.612
34.6
34.593
34.589
34.588
34.589
34.59
34.588
34.583
34.573
34.557
34.535
34.508
34.477
34.444
34.41
34.377
34.346
34.317
34.291
34.269
34.251
34.236
34.224
34.216
34.21
34.206
34.203
34.201
34.2
34.202
34.209
34.221
34.239
34.264
34.296
34.336
34.384
34.443
34.511
34.589
34.677
34.775
34.88
34.993
35.109
35.228
35.347
35.464
35.578
35.688
35.793
35.891
35.981
36.062
36.133
36.195
36.248
36.294
36.331
36.361
36.383
36.398
36.406
36.408
36.404
36.396
36.385
36.37
36.352
36.332
36.311
36.289
36.268
36.249
36.231
36.217
36.205
36.196
36.188
36.18
36.171
36.161
36.148
36.133
36.115
36.093
36.066
36.033
35.997
35.956
35.912
35.866
35.818
35.77
35.721
35.673
35.626
35.581
35.541
35.505
35.474
35.45
35.432
35.422
35.419
35.422
35.431
35.445
35.462
35.481
35.501
35.52
35.535
35.547
35.554
35.555
35.552
35.545
35.533
35.517
35.498
35.477
35.455
35.434
35.415
35.398
35.383
35.37
35.359
35.351
35.345
35.34
35.335
35.33
35.323
35.314
35.303
35.288
35.272
35.253
35.232
35.21
35.187
35.163
35.137
35.11
35.08
35.049
35.016
34.983
34.95
34.918
34.886
34.856
34.829
34.804
34.783
34.764
34.746
34.73
34.715
34.7
34.684
34.667
34.648
34.627
34.602
34.575
34.547
34.517
34.489
34.46
34.432
34.405
34.38
34.357
34.338
34.321
34.308
34.298
34.291
34.287
34.287
34.29
34.297
34.308
34.324
34.345
34.371
34.403
34.441
34.485
34.536
34.595
34.66
34.732
34.812
34.899
34.993
35.095
35.204
35.319
35.44
35.565
35.692
35.819
35.943
36.063
36.176
36.282
36.379
36.466
36.542
36.606
36.661
36.706
36.743
36.771
36.791
36.802
36.806
36.804
36.798
36.79
36.779
36.767
36.753
36.739
36.723
36.707
36.688
36.668
36.644
36.617
36.589
36.56
36.53
36.499
36.468
36.435
36.402
36.368
36.336
36.304
36.274
36.244
36.215
36.186
36.158
36.13
36.102
36.075
36.049
36.023
35.996
35.969
35.942
35.914
35.887
35.86
35.833
35.809
35.787
35.768
35.751
35.738
35.727
35.721
35.718
35.719
35.722
35.727
35.733
35.741
35.749
35.757
35.764
35.769
35.772
35.77
35.765
35.756
35.744
35.729
35.71
35.689
35.663
35.635
35.603
35.569
35.534
35.498
35.462
35.429
35.4
35.376
35.356
35.34
35.326
35.314
35.303
35.292
35.281
35.267
35.252
35.234
35.212
35.186
35.157
35.124
35.088
35.049
35.008
34.965
34.921
34.878
34.837
34.799
34.766
34.736
34.711
34.69
34.673
34.659
34.648
34.639
34.631
34.625
34.62
34.616
34.611
34.604
34.594
34.581
34.564
34.545
34.524
34.502
34.479
34.457
34.434
34.414
34.396
34.381
34.371
34.367
34.372
34.385
34.409
34.442
34.485
34.538
34.6
34.673
34.755
34.848
34.949
35.058
35.172
35.292
35.415
35.541
35.669
35.798
35.925
36.049
36.169
36.284
36.393
36.494
36.586
36.667
36.733
36.781
36.814
36.835
36.848
36.857
36.865
36.874
36.887
36.903
36.922
36.945
36.968
36.992
37.014
37.034
37.05
37.061
37.065
37.062
37.049
37.028
36.998
36.959
36.914
36.863
36.808
36.751
36.693
36.635
36.581
36.53
36.482
36.439
36.401
36.367
36.338
36.312
36.289
36.267
36.246
36.224
36.201
36.175
36.147
36.115
36.08
36.042
36.003
35.964
35.925
35.889
35.856
35.826
35.8
35.778
35.76
35.747
35.738
35.733
35.73
35.729
35.731
35.733
35.736
35.738
35.738
35.735
35.731
35.725
35.718
35.71
35.701
35.692
35.681
35.67
35.658
35.644
35.628
35.61
35.589
35.564
35.536
35.505
35.469
35.428
35.383
35.333
35.28
35.228
35.177
35.13
35.087
35.049
35.015
34.988
34.967
34.95
34.938
34.928
34.92
34.913
34.907
34.899
34.891
34.88
34.868
34.855
34.842
34.828
34.812
34.795
34.776
34.756
34.735
34.714
34.694
34.676
34.661
34.648
34.639
34.632
34.626
34.622
34.619
34.615
34.61
34.603
34.592
34.578
34.56
34.539
34.516
34.492
34.468
34.446
34.428
34.413
34.404
34.4
34.402
34.411
34.429
34.455
34.489
34.531
34.581
34.639
34.704
34.776
34.856
34.943
35.039
35.142
35.251
35.368
35.489
35.613
35.739
35.866
35.99
36.11
36.224
36.331
36.429
36.518
36.599
36.673
36.739
36.799
36.853
36.901
36.943
36.979
37.009
37.034
37.052
37.065
37.071
37.069
37.062
37.047
37.027
37.001
36.971
36.938
36.902
36.864
36.827
36.79
36.753
36.717
36.682
36.647
36.612
36.577
36.542
36.506
36.469
36.431
36.393
36.354
36.314
36.273
36.23
36.186
36.141
36.097
36.054
36.013
35.975
35.94
35.908
35.879
35.855
35.835
35.819
35.807
35.798
35.79
35.782
35.774
35.767
35.76
35.752
35.745
35.737
35.729
35.72
35.71
35.7
35.691
35.682
35.676
35.671
35.669
35.669
35.671
35.673
35.676
35.678
35.678
35.674
35.667
35.655
35.638
35.616
35.59
35.56
35.527
35.491
35.453
35.414
35.374
35.335
35.295
35.256
35.218
35.181
35.144
35.109
35.076
35.046
35.017
34.99
34.966
34.943
34.923
34.905
34.888
34.872
34.856
34.839
34.819
34.798
34.775
34.75
34.722
34.692
34.661
34.627
34.594
34.56
34.527
34.496
34.466
34.439
34.415
34.395
34.378
34.364
34.352
34.342
34.333
34.325
34.316
34.307
34.297
34.286
34.273
34.259
34.244
34.228
34.213
34.199
34.188
34.181
34.178
34.18
34.189
34.204
34.226
34.255
34.292
34.336
34.387
34.445
34.509
34.579
34.656
34.739
34.831
34.93
35.035
35.145
35.258
35.375
35.492
35.608
35.723
35.834
35.943
36.047
36.146
36.24
36.327
36.408
36.481
36.547
36.605
36.655
36.696
36.729
36.752
36.765
36.77
36.767
36.758
36.745
36.726
36.704
36.678
36.65
36.621
36.59
36.558
36.526
36.492
36.457
36.422
36.387
36.353
36.319
36.285
36.252
36.218
36.185
36.151
36.118
36.086
36.054
36.023
35.991
35.96
35.929
35.899
35.869
35.838
35.807
35.775
35.744
35.713
35.683
35.654
35.627
35.602
35.581
35.566
35.555
35.55
35.55
35.554
35.561
35.573
35.587
35.603
35.619
35.633
35.645
35.655
35.66
35.663
35.661
35.656
35.648
35.636
35.622
35.606
35.589
35.569
35.549
35.527
35.504
35.48
35.455
35.43
35.403
35.375
35.347
35.319
35.293
35.268
35.245
35.223
35.201
35.18
35.16
35.14
35.119
35.098
35.075
35.05
35.024
34.996
34.966
34.935
34.903
34.87
34.836
34.803
34.77
34.738
34.708
34.68
34.655
34.633
34.614
34.599
34.585
34.574
34.564
34.554
34.544
34.534
34.524
34.514
34.501
34.487
34.47
34.451
34.429
34.404
34.377
34.349
34.322
34.295
34.272
34.252
34.236
34.226
34.221
34.223
34.233
34.251
34.277
34.309
34.346
34.388
34.435
34.487
34.545
34.61
34.681
34.759
34.844
34.937
35.035
35.139
35.248
35.361
35.478
35.597
35.717
35.838
35.957
36.072
36.182
36.286
36.383
36.471
36.551
36.62
36.678
36.724
36.759
36.784
36.799
36.805
36.802
36.79
36.772
36.747
36.718
36.684
36.647
36.607
36.567
36.526
36.486
36.447
36.411
36.378
36.348
36.322
36.298
36.276
36.255
36.233
36.21
36.185
36.157
36.127
36.094
36.056
36.014
35.966
35.913
35.856
35.798
35.74
35.684
35.631
35.583
35.54
35.503
35.474
35.453
35.442
35.439
35.443
35.455
35.471
35.49
35.512
35.534
35.556
35.577
35.594
35.606
35.613
35.615
35.611
35.601
35.587
35.566
35.539
35.508
35.476
35.444
35.413
35.386
35.362
35.345
35.333
35.326
35.323
35.322
35.321
35.321
35.318
35.312
35.302
35.286
35.264
35.237
35.203
35.164
35.121
35.075
35.027
34.982
34.939
34.899
34.864
34.833
34.806
34.784
34.767
34.753
34.742
34.734
34.727
34.719
34.712
34.703
34.693
34.68
34.665
34.646
34.623
34.596
34.565
34.53
34.493
34.454
34.414
34.374
34.336
34.3
34.269
34.241
34.218
34.201
34.189
34.183
34.182
34.187
34.195
34.206
34.218
34.231
34.245
34.259
34.274
34.29
34.309
34.332
34.36
34.394
34.435
34.484
34.542
34.609
34.685
34.77
34.866
34.972
35.085
35.207
35.334
35.467
35.602
35.74
35.877
36.012
36.142
36.265
36.381
36.486
36.581
36.664
36.736
36.795
36.843
36.878
36.902
36.916
36.92
36.916
36.907
36.893
36.878
36.862
36.845
36.828
36.811
36.795
36.78
36.766
36.752
36.738
36.723
36.706
36.689
36.67
36.649
36.627
36.601
36.572
36.539
36.502
36.462
36.419
36.373
36.326
36.278
36.228
36.179
36.131
36.085
36.042
36.003
35.968
35.939
35.915
35.896
35.882
35.871
35.864
35.859
35.857
35.856
35.855
35.854
35.851
35.845
35.837
35.827
35.815
35.802
35.789
35.777
35.765
35.754
35.744
35.736
35.728
35.721
35.716
35.711
35.708
35.704
35.7
35.694
35.686
35.676
35.663
35.647
35.629
35.607
35.581
35.551
35.518
35.481
35.441
35.399
35.356
35.313
35.269
35.225
35.181
35.14
35.101
35.065
35.034
35.006
34.982
34.962
34.945
34.928
34.911
34.894
34.875
34.856
34.835
34.813
34.788
34.761
34.731
34.699
34.666
34.634
34.601
34.57
34.541
34.514
34.489
34.467
34.447
34.429
34.414
34.401
34.39
34.38
34.371
34.361
34.351
34.341
34.33
34.317
34.302
34.285
34.265
34.243
34.219
34.194
34.171
34.151
34.136
34.129
34.129
34.14
34.162
34.195
34.242
34.3
34.369
34.449
34.538
34.636
34.744
34.861
34.985
35.116
35.253
35.394
35.538
35.682
35.824
35.963
36.096
36.222
36.34
36.449
36.548
36.636
36.715
36.783
36.842
36.892
36.933
36.968
36.996
37.019
37.036
37.048
37.056
37.061
37.062
37.058
37.051
37.039
37.023
37.002
36.977
36.948
36.916
36.881
36.844
36.807
36.77
36.733
36.698
36.663
36.629
36.596
36.562
36.528
36.493
36.455
36.415
36.372
36.325
36.275
36.224
36.173
36.121
36.071
36.024
35.98
35.941
35.907
35.877
35.853
35.834
35.821
35.813
35.81
35.809
35.81
35.811
35.812
35.812
35.812
35.81
35.806
35.8
35.791
35.779
35.764
35.748
35.731
35.712
35.694
35.676
35.658
35.641
35.626
35.611
35.598
35.586
35.575
35.565
35.553
35.541
35.526
35.507
35.484
35.457
35.425
35.39
35.351
35.31
35.266
35.22
35.174
35.129
35.085
35.043
35.003
34.964
34.927
34.891
34.856
34.821
34.787
34.754
34.721
34.69
34.661
34.633
34.607
34.583
34.56
34.538
34.517
34.498
34.48
34.463
34.446
34.43
34.413
34.396
34.379
34.363
34.347
34.33
34.313
34.295
34.276
34.257
34.236
34.215
34.194
34.174
34.156
34.139
34.124
34.112
34.1
34.091
34.084
34.079
34.076
34.076
34.078
34.083
34.091
34.101
34.115
34.131
34.152
34.177
34.208
34.245
34.289
34.34
34.399
34.467
34.545
34.634
34.734
34.844
34.963
35.09
35.223
35.359
35.498
35.637
35.776
35.912
36.044
36.17
36.288
36.397
36.498
36.59
36.671
36.74
36.798
36.844
36.878
36.9
36.912
36.914
36.908
36.895
36.878
36.858
36.836
36.813
36.788
36.764
36.739
36.715
36.692
36.669
36.646
36.622
36.595
36.565
36.533
36.499
36.463
36.426
36.387
36.348
36.308
36.268
36.229
36.191
36.155
36.12
36.087
36.055
36.024
35.992
35.96
35.928
35.895
35.862
35.83
35.798
35.768
35.741
35.718
35.7
35.685
35.674
35.667
35.661
35.656
35.651
35.645
35.639
35.632
35.627
35.623
35.62
35.616
35.613
35.61
35.607
35.604
35.598
35.59
35.58
35.566
35.549
35.527
35.502
35.473
35.442
35.409
35.375
35.342
35.309
35.278
35.247
35.219
35.192
35.167
35.145
35.124
35.103
35.082
35.061
35.038
35.015
34.991
34.966
34.939
34.911
34.881
34.85
34.818
34.783
34.747
34.708
34.669
34.629
34.591
34.555
34.522
34.491
34.462
34.436
34.411
34.388
34.367
34.347
34.327
34.308
34.289
34.27
34.251
34.232
34.212
34.193
34.175
34.159
34.145
34.131
34.117
34.102
34.086
34.069
34.053
34.038
34.025
34.014
34.005
33.998
33.992
33.986
33.98
33.974
33.966
33.957
33.946
33.933
33.919
33.906
33.894
33.886
33.884
33.89
33.905
33.93
33.968
34.018
34.081
34.156
34.243
34.341
34.449
34.564
34.687
34.813
34.942
35.072
35.201
35.327
35.451
35.571
35.686
35.797
35.903
36.004
36.1
36.189
36.274
36.352
36.425
36.494
36.556
36.612
36.661
36.702
36.734
36.758
36.774
36.781
36.78
36.77
36.753
36.729
36.699
36.664
36.625
36.583
36.54
36.496
36.453
36.411
36.371
36.334
36.301
36.27
36.243
36.22
36.201
36.185
36.171
36.158
36.143
36.125
36.103
36.076
36.045
36.01
35.971
35.93
35.887
35.843
35.8
35.757
35.716
35.675
35.638
35.603
35.571
35.544
35.522
35.505
35.493
35.486
35.484
35.485
35.49
35.498
35.508
35.519
35.531
35.542
35.552
35.559
35.562
35.563
35.56
35.555
35.547
35.536
35.521
35.503
35.482
35.459
35.434
35.41
35.385
35.36
35.335
35.313
35.291
35.271
35.251
35.231
35.21
35.188
35.165
35.141
35.114
35.085
35.053
35.02
34.984
34.948
34.912
34.876
34.839
34.804
34.768
34.733
34.698
34.665
34.633
34.604
34.577
34.554
34.533
34.517
34.504
34.495
34.489
34.484
34.482
34.48
34.477
34.47
34.461
34.447
34.43
34.41
34.387
34.363
34.337
34.31
34.284
34.259
34.238
34.219
34.203
34.189
34.178
34.169
34.163
34.159
34.156
34.155
34.153
34.152
34.152
34.153
34.154
34.155
34.157
34.16
34.167
34.181
34.202
34.233
34.275
34.33
34.397
34.477
34.569
34.672
34.785
34.907
35.036
35.169
35.304
35.438
35.568
35.692
35.809
35.916
36.015
36.105
36.186
36.26
36.325
36.382
36.43
36.471
36.506
36.534
36.557
36.574
36.587
36.596
36.601
36.603
36.603
36.601
36.597
36.59
36.581
36.57
36.555
36.536
36.512
36.485
36.453
36.418
36.382
36.345
36.307
36.268
36.227
36.184
36.139
36.092
36.045
35.997
35.949
35.901
35.853
35.807
35.762
35.72
35.68
35.644
35.61
35.579
35.553
35.53
35.51
35.493
35.478
35.465
35.454
35.447
35.441
35.438
35.435
35.434
35.434
35.436
35.44
35.446
35.453
35.458
35.463
35.466
35.469
35.47
35.471
35.471
35.47
35.469
35.466
35.461
35.454
35.447
35.437
35.426
35.413
35.398
35.379
35.357
35.331
35.303
35.272
35.241
35.209
35.177
35.146
35.114
35.083
35.051
35.02
34.988
34.957
34.925
34.894
34.864
34.834
34.803
34.773
34.741
34.709
34.676
34.641
34.606
34.571
34.535
34.5
34.465
34.432
34.401
34.374
34.35
34.33
34.314
34.302
34.294
34.288
34.285
34.282
34.28
34.276
34.269
34.258
34.244
34.227
34.205
34.18
34.152
34.121
34.09
34.06
34.032
34.006
33.984
33.965
33.952
33.944
33.943
33.948
33.961
33.98
34.007
34.042
34.085
34.136
34.194
34.26
34.334
34.416
34.505
34.601
34.705
34.816
34.933
35.057
35.185
35.319
35.457
35.597
35.738
35.877
36.011
36.14
36.261
36.374
36.477
36.57
36.651
36.722
36.783
36.835
36.876
36.908
36.93
36.943
36.946
36.94
36.926
36.903
36.875
36.841
36.803
36.763
36.724
36.686
36.651
36.617
36.581
36.539
36.493
36.443
36.392
36.34
36.292
36.247
36.21
36.179
36.154
36.135
36.119
36.106
36.093
36.08
36.065
36.047
36.027
36.003
35.977
35.948
35.916
35.883
35.85
35.817
35.787
35.761
35.741
35.726
35.717
35.714
35.716
35.721
35.729
35.738
35.748
35.758
35.766
35.774
35.779
35.781
35.781
35.778
35.77
35.757
35.74
35.719
35.695
35.669
35.641
35.612
35.582
35.553
35.524
35.497
35.473
35.45
35.429
35.409
35.39
35.372
35.353
35.334
35.314
35.293
35.27
35.244
35.215
35.184
35.15
35.113
35.074
35.034
34.993
34.952
34.91
34.868
34.826
34.784
34.743
34.702
34.664
34.63
34.6
34.574
34.552
34.533
34.517
34.504
34.492
34.481
34.47
34.459
34.448
34.435
34.421
34.406
34.39
34.374
34.359
34.345
34.331
34.317
34.303
34.289
34.274
34.258
34.244
34.23
34.216
34.202
34.187
34.171
34.156
34.143
34.131
34.12
34.112
34.105
34.099
34.094
34.09
34.089
34.09
34.096
34.108
34.127
34.154
34.189
34.234
34.287
34.35
34.423
34.505
34.598
34.701
34.814
34.936
35.065
35.2
35.341
35.484
35.629
35.774
35.917
36.055
36.188
36.314
36.431
36.539
36.638
36.727
36.805
36.874
36.932
36.981
37.019
37.05
37.074
37.093
37.106
37.114
37.115
37.11
37.099
37.083
37.063
37.039
37.013
36.986
36.958
36.93
36.902
36.875
36.848
36.819
36.788
36.755
36.719
36.679
36.635
36.59
36.543
36.495
36.448
36.401
36.357
36.314
36.274
36.237
36.202
36.17
36.141
36.116
36.093
36.072
36.05
36.029
36.009
35.989
35.971
35.954
35.937
35.92
35.902
35.883
35.864
35.844
35.825
35.806
35.79
35.776
35.765
35.756
35.751
35.75
35.751
35.756
35.762
35.769
35.775
35.781
35.785
35.785
35.782
35.775
35.763
35.747
35.727
35.702
35.672
35.637
35.597
35.553
35.506
35.456
35.404
35.351
35.298
35.249
35.203
35.162
35.126
35.096
35.069
35.044
35.019
34.993
34.966
34.939
34.912
34.884
34.857
34.83
34.803
34.775
34.746
34.715
34.683
34.649
34.615
34.581
34.547
34.515
34.484
34.457
34.433
34.413
34.396
34.381
34.367
34.355
34.344
34.334
34.323
34.309
34.293
34.275
34.254
34.233
34.211
34.189
34.167
34.146
34.127
34.111
34.098
34.088
34.081
34.077
34.075
34.075
34.076
34.078
34.081
34.084
34.088
34.093
34.101
34.111
34.124
34.142
34.165
34.197
34.239
34.294
34.362
34.444
34.541
34.652
34.776
34.911
35.057
35.211
35.371
35.535
35.7
35.863
36.022
36.174
36.318
36.452
36.574
36.684
36.78
36.86
36.925
36.973
37.006
37.026
37.034
37.032
37.023
37.008
36.988
36.965
36.94
36.915
36.891
36.869
36.85
36.832
36.815
36.799
36.783
36.766
36.749
36.73
36.708
36.683
36.655
36.623
36.588
36.551
36.512
36.471
36.428
36.385
36.341
36.296
36.25
36.204
36.157
36.111
36.065
36.02
35.976
35.933
35.891
35.851
35.813
35.778
35.748
35.722
35.701
35.684
35.67
35.659
35.651
35.645
35.642
35.64
35.64
35.641
35.643
35.645
35.646
35.647
35.647
35.646
35.643
35.639
35.632
35.623
35.611
35.596
35.578
35.556
35.532
35.505
35.476
35.444
35.409
35.373
35.337
35.301
35.266
35.23
35.195
35.161
35.128
35.095
35.063
35.031
35.001
34.971
34.943
34.917
34.893
34.87
34.85
34.83
34.81
34.79
34.769
34.749
34.727
34.703
34.677
34.648
34.617
34.584
34.548
34.511
34.472
34.433
34.393
34.355
34.319
34.285
34.254
34.226
34.201
34.18
34.163
34.15
34.141
34.134
34.128
34.122
34.117
34.111
34.105
34.097
34.089
34.078
34.064
34.046
34.025
34.0
33.973
33.945
33.917
33.89
33.867
33.85
33.841
33.841
33.851
33.873
33.907
33.954
34.013
34.086
34.171
34.268
34.375
34.491
34.616
34.747
34.884
35.023
35.163
35.3
35.435
35.564
35.687
35.803
35.91
36.01
36.103
36.188
36.265
36.335
36.397
36.453
36.503
36.547
36.585
36.618
36.645
36.667
36.681
