Trial 3:3back
33.08
33.071
33.061
33.049
33.036
33.022
33.007
32.99
32.972
32.954
32.935
32.916
32.899
32.882
32.867
32.852
32.838
32.824
32.811
32.798
32.783
32.766
32.748
32.729
32.71
32.691
32.672
32.655
32.641
32.63
32.623
32.621
32.624
32.633
32.646
32.663
32.687
32.72
32.765
32.826
32.907
33.012
33.146
33.313
33.514
33.751
34.026
34.333
34.67
35.03
35.408
35.797
36.19
36.579
36.958
37.319
37.658
37.969
38.248
38.492
38.701
38.874
39.013
39.119
39.195
39.244
39.268
39.271
39.256
39.225
39.181
39.127
39.063
38.994
38.919
38.842
38.764
38.686
38.609
38.534
38.462
38.392
38.325
38.26
38.199
38.141
38.086
38.034
37.986
37.942
37.9
37.858
37.816
37.772
37.727
37.68
37.633
37.587
37.543
37.502
37.464
37.428
37.394
37.362
37.329
37.295
37.259
37.22
37.178
37.133
37.085
37.035
36.983
36.93
36.88
36.831
36.786
36.746
36.71
36.68
36.655
36.637
36.627
36.625
36.631
36.645
36.665
36.688
36.715
36.744
36.773
36.802
36.831
36.859
36.886
36.911
36.933
36.951
36.965
36.975
36.98
36.981
36.977
36.967
36.951
36.93
36.904
36.875
36.842
36.807
36.772
36.738
36.702
36.666
36.628
36.588
36.546
36.5
36.452
36.4
36.346
36.289
36.229
36.166
36.1
36.033
35.965
35.895
35.825
35.756
35.689
35.624
35.563
35.505
35.451
35.401
35.354
35.31
35.267
35.224
35.183
35.141
35.098
35.056
35.013
34.97
34.93
34.891
34.853
34.818
34.783
34.75
34.718
34.688
34.659
34.632
34.605
34.58
34.557
34.535
34.514
34.493
34.471
34.444
34.412
34.376
34.338
34.301
34.266
34.235
34.209
34.188
34.174
34.165
34.162
34.164
34.171
34.18
34.191
34.203
34.214
34.225
34.233
34.238
34.239
34.237
34.231
34.221
34.209
34.196
34.181
34.166
34.152
34.137
34.121
34.105
34.087
34.067
34.044
34.019
33.992
33.963
33.932
33.9
33.868
33.838
33.809
33.782
33.757
33.735
33.715
33.697
33.679
33.662
33.645
33.628
33.612
33.596
33.582
33.569
33.558
33.548
33.539
33.53
33.522
33.512
33.5
33.486
33.469
33.45
33.43
33.407
33.384
33.361
33.339
33.318
33.298
33.278
33.26
33.243
33.228
33.216
33.206
33.2
33.195
33.191
33.19
33.189
33.19
33.19
33.19
33.187
33.181
33.172
33.16
33.145
33.128
33.109
33.089
33.067
33.044
33.02
32.996
32.972
32.95
32.93
32.912
32.897
32.887
32.883
32.889
32.905
32.935
32.981
33.049
33.141
33.262
33.414
33.602
33.826
34.086
34.383
34.715
35.08
35.471
35.882
36.304
36.73
37.149
37.555
37.938
38.294
38.619
38.907
39.159
39.372
39.547
39.684
39.786
39.855
39.893
39.905
39.894
39.865
39.821
39.766
39.703
39.635
39.564
39.492
39.421
39.352
39.285
39.222
39.161
39.102
39.044
38.988
38.933
38.878
38.824
38.769
38.715
38.663
38.612
38.561
38.511
38.462
38.415
38.369
38.326
38.286
38.248
38.214
38.181
38.152
38.126
38.103
38.079
38.055
38.029
38.0
37.967
37.93
37.889
37.845
37.797
37.747
37.694
37.638
37.58
37.522
37.464
37.408
37.354
37.305
37.261
37.225
37.195
37.173
37.158
37.151
37.15
37.153
37.16
37.169
37.18
37.191
37.203
37.215
37.228
37.24
37.252
37.263
37.272
37.278
37.281
37.279
37.272
37.261
37.244
37.223
37.196
37.165
37.131
37.092
37.05
37.005
36.956
36.905
36.852
36.798
36.743
36.687
36.632
36.577
36.522
36.467
36.411
36.355
36.299
36.242
36.185
36.128
36.071
36.015
35.959
35.904
35.85
35.797
35.746
35.696
35.647
35.599
35.551
35.502
35.452
35.401
35.351
35.302
35.254
35.207
35.162
35.118
35.075
35.034
34.996
34.959
34.924
34.891
34.859
34.829
34.801
34.775
34.75
34.728
34.707
34.687
34.667
34.649
34.632
34.617
34.603
34.589
34.576
34.563
34.551
34.539
34.528
34.517
34.506
34.49
34.466
34.433
34.394
34.352
34.309
34.267
34.23
34.199
34.174
34.156
34.145
34.14
34.141
34.144
34.148
34.153
34.156
34.158
34.157
34.153
34.143
34.129
34.111
34.088
34.061
34.032
34.001
33.969
33.937
33.905
33.874
33.844
33.815
33.789
33.764
33.741
33.72
33.7
33.68
33.66
33.639
33.617
33.593
33.568
33.543
33.517
33.492
33.466
33.439
33.413
33.386
33.359
33.331
33.304
33.278
33.253
33.228
33.206
33.185
33.167
33.153
33.143
33.136
33.133
33.132
33.131
33.13
33.128
33.124
33.116
33.105
33.091
33.074
33.055
33.034
33.012
32.989
32.966
32.944
32.924
32.906
32.89
32.876
32.863
32.851
32.841
32.831
32.823
32.815
32.808
32.802
32.796
32.792
32.791
32.794
32.802
32.817
32.84
32.873
32.919
32.981
33.06
33.161
33.287
33.442
33.629
33.851
34.11
34.406
34.738
35.103
35.494
35.903
36.322
36.741
37.152
37.547
37.917
38.259
38.568
38.842
39.079
39.278
39.439
39.564
39.654
39.711
39.739
39.742
39.722
39.685
39.632
39.568
39.494
39.415
39.33
39.243
39.156
39.07
38.985
38.903
38.823
38.746
38.672
38.603
38.537
38.474
38.413
38.356
38.301
38.249
38.199
38.152
38.109
38.07
38.036
38.006
37.979
37.954
37.931
37.907
37.883
37.857
37.829
37.799
37.764
37.726
37.683
37.635
37.582
37.521
37.453
37.377
37.296
37.21
37.124
37.039
36.958
36.883
36.814
36.754
36.701
36.655
36.615
36.582
36.555
36.535
36.521
36.512
36.508
36.509
36.511
36.515
36.521
36.526
36.533
36.538
36.543
36.544
36.543
36.539
36.533
36.524
36.513
36.498
36.48
36.458
36.432
36.402
36.368
36.331
36.292
36.249
36.205
36.158
36.11
36.062
36.012
35.962
35.912
35.864
35.816
35.771
35.728
35.689
35.652
35.619
35.588
35.56
35.534
35.51
35.486
35.461
35.437
35.412
35.387
35.362
35.335
35.309
35.282
35.254
35.226
35.197
35.166
35.133
35.098
35.062
35.026
34.988
34.951
34.913
34.875
34.84
34.806
34.774
34.744
34.715
34.688
34.662
34.636
34.61
34.583
34.557
34.531
34.506
34.482
34.461
34.443
34.428
34.417
34.409
34.403
34.398
34.393
34.389
34.386
34.382
34.376
34.369
34.362
34.356
34.351
34.349
34.347
34.345
34.343
34.34
34.333
34.321
34.305
34.285
34.261
34.234
34.204
34.173
34.141
34.108
34.076
34.045
34.014
33.986
33.958
33.932
33.906
33.883
33.86
33.84
33.82
33.802
33.784
33.767
33.749
33.731
33.712
33.694
33.675
33.655
33.634
33.612
33.59
33.567
33.544
33.521
33.497
33.472
33.448
33.425
33.403
33.383
33.364
33.347
33.33
33.314
33.299
33.286
33.273
33.26
33.247
33.235
33.223
33.213
33.204
33.194
33.183
33.169
33.152
33.134
33.115
33.096
33.076
33.057
33.039
33.022
33.007
32.993
32.981
32.971
32.963
32.957
32.953
32.953
32.957
32.968
32.987
33.018
33.062
33.124
33.207
33.316
33.452
33.621
33.824
34.062
34.335
34.64
34.975
35.333
35.71
36.098
36.489
36.877
37.253
37.612
37.947
38.255
38.533
38.778
38.989
39.167
39.311
39.423
39.505
39.559
39.584
39.582
39.555
39.51
39.452
39.386
39.316
39.245
39.177
39.113
39.054
39.002
38.955
38.914
38.876
38.842
38.809
38.776
38.742
38.705
38.665
38.621
38.573
38.521
38.466
38.408
38.349
38.291
38.233
38.179
38.127
38.078
38.032
37.988
37.945
37.904
37.864
37.824
37.783
37.74
37.696
37.65
37.601
37.55
37.497
37.441
37.385
37.329
37.274
37.22
37.17
37.122
37.077
37.036
37.0
36.967
36.941
36.922
36.912
36.91
36.915
36.926
36.942
36.962
36.984
37.007
37.031
37.054
37.074
37.092
37.106
37.116
37.121
37.121
37.116
37.106
37.092
37.074
37.052
37.027
37.001
36.973
36.943
36.912
36.879
36.844
36.807
36.767
36.725
36.68
36.634
36.586
36.535
36.482
36.425
36.366
36.303
36.239
36.173
36.106
36.039
35.971
35.904
35.837
35.771
35.706
35.642
35.579
35.516
35.453
35.39
35.328
35.268
35.211
35.157
35.106
35.059
35.017
34.982
34.954
34.931
34.911
34.893
34.873
34.852
34.829
34.804
34.778
34.751
34.724
34.698
34.673
34.65
34.628
34.607
34.588
34.569
34.551
34.533
34.515
34.495
34.476
34.455
34.435
34.415
34.396
34.379
34.362
34.347
34.333
34.319
34.304
34.288
34.271
34.253
34.235
34.216
34.198
34.179
34.16
34.142
34.124
34.105
34.085
34.065
34.044
34.021
33.996
33.969
33.941
33.912
33.882
33.853
33.826
33.801
33.778
33.755
33.734
33.712
33.689
33.666
33.641
33.616
33.59
33.563
33.536
33.51
33.484
33.458
33.434
33.412
33.392
33.374
33.358
33.343
33.327
33.312
33.296
33.28
33.264
33.248
33.232
33.215
33.197
33.178
33.158
33.138
33.117
33.096
33.077
33.058
33.04
33.024
33.009
32.996
32.984
32.973
32.962
32.95
32.937
32.922
32.905
32.885
32.862
32.836
32.811
32.787
32.765
32.744
32.724
32.704
32.684
32.664
32.643
32.622
32.601
32.58
32.561
32.544
32.532
32.526
32.529
32.542
32.57
32.615
32.681
32.772
32.892
33.046
33.238
33.468
33.738
34.047
34.393
34.77
35.173
35.593
36.021
36.449
36.868
37.272
37.652
38.004
38.323
38.607
38.854
39.062
39.234
39.369
39.472
39.546
39.593
39.619
39.625
39.616
39.593
39.56
39.519
39.473
39.422
39.368
39.312
39.255
39.197
39.137
39.077
39.021
38.977
38.944
38.92
38.903
38.888
38.871
38.849
38.819
38.781
38.734
38.679
38.617
38.55
38.479
38.407
38.334
38.263
38.193
38.128
38.066
38.008
37.955
37.906
37.861
37.819
37.779
37.74
37.703
37.665
37.625
37.582
37.535
37.485
37.433
37.378
37.324
37.27
37.219
37.172
37.128
37.091
37.059
37.035
37.017
37.007
37.002
37.004
37.011
37.022
37.036
37.053
37.072
37.091
37.109
37.127
37.143
37.158
37.17
37.179
37.185
37.188
37.188
37.185
37.179
37.17
37.157
37.141
37.123
37.1
37.073
37.042
37.006
36.967
36.923
36.877
36.828
36.778
36.727
36.674
36.62
36.565
36.508
36.449
36.389
36.328
36.265
36.203
36.141
36.081
36.022
35.965
35.909
35.856
35.805
35.756
35.709
35.664
35.62
35.576
35.532
35.487
35.442
35.395
35.348
35.302
35.256
35.212
35.169
35.128
35.087
35.046
35.005
34.965
34.925
34.888
34.852
34.819
34.789
34.763
34.739
34.719
34.702
34.688
34.676
34.664
34.654
34.646
34.638
34.631
34.624
34.616
34.607
34.597
34.585
34.573
34.558
34.541
34.52
34.496
34.469
34.44
34.41
34.381
34.352
34.324
34.299
34.277
34.258
34.242
34.23
34.22
34.211
34.204
34.196
34.189
34.182
34.173
34.162
34.151
34.138
34.124
34.11
34.096
34.081
34.065
34.047
34.027
34.006
33.983
33.959
33.934
33.909
33.883
33.855
33.826
33.797
33.767
33.738
33.709
33.681
33.654
33.628
33.603
33.58
33.557
33.534
33.512
33.489
33.466
33.442
33.418
33.395
33.372
33.35
33.331
33.316
33.308
33.309
33.321
33.346
33.389
33.453
33.541
33.66
33.811
33.998
34.223
34.484
34.779
35.103
35.452
35.82
36.198
36.58
36.959
37.327
37.679
38.008
38.311
38.585
38.828
39.04
39.221
39.37
39.491
39.585
39.654
39.7
39.727
39.737
39.731
39.714
39.685
39.648
39.603
39.551
39.493
39.431
39.367
39.301
39.235
39.169
39.105
39.043
38.983
38.926
38.872
38.819
38.769
38.721
38.676
38.633
38.592
38.554
38.516
38.481
38.446
38.411
38.374
38.336
38.295
38.251
38.206
38.158
38.108
38.055
38.0
37.944
37.885
37.824
37.761
37.696
37.631
37.565
37.499
37.433
37.37
37.308
37.25
37.195
37.146
37.102
37.066
37.036
37.013
36.999
36.992
36.993
37.0
37.013
37.031
37.052
37.074
37.096
37.117
37.136
37.154
37.168
37.18
37.188
37.193
37.192
37.188
37.179
37.166
37.15
37.131
37.108
37.081
37.051
37.018
36.982
36.944
36.903
36.859
36.813
36.763
36.71
36.653
36.594
36.534
36.471
36.408
36.344
36.28
36.217
36.155
36.093
36.031
35.97
35.908
35.845
35.781
35.715
35.65
35.586
35.525
35.466
35.411
35.359
35.309
35.26
35.213
35.167
35.121
35.075
35.028
34.981
34.934
34.888
34.843
34.8
34.76
34.724
34.691
34.663
34.637
34.615
34.595
34.576
34.558
34.539
34.52
34.502
34.483
34.465
34.448
34.431
34.413
34.395
34.378
34.362
34.345
34.327
34.308
34.287
34.266
34.243
34.22
34.197
34.175
34.154
34.134
34.115
34.097
34.079
34.061
34.044
34.027
34.011
33.994
33.978
33.961
33.944
33.926
33.906
33.884
33.86
33.835
33.808
33.78
33.751
33.722
33.693
33.665
33.638
33.611
33.585
33.56
33.534
33.509
33.484
33.459
33.433
33.408
33.384
33.362
33.34
33.32
33.3
33.281
33.26
33.239
33.217
33.194
33.17
33.146
33.121
33.097
33.073
33.049
33.026
33.005
32.984
32.964
32.946
32.929
32.913
32.899
32.885
32.87
32.856
32.841
32.826
32.811
32.795
32.778
32.759
32.738
32.716
32.691
32.665
32.637
32.607
32.576
32.543
32.511
32.479
32.448
32.418
32.391
32.366
32.343
32.323
32.307
32.295
32.29
32.294
32.31
32.34
32.388
32.456
32.55
32.673
32.831
33.027
33.262
33.536
33.848
34.194
34.568
34.963
35.374
35.793
36.21
36.618
37.009
37.376
37.713
38.016
38.283
38.511
38.701
38.854
38.97
39.053
39.104
39.128
39.128
39.108
39.071
39.02
38.957
38.885
38.806
38.722
38.637
38.554
38.473
38.397
38.325
38.258
38.193
38.131
38.07
38.011
37.953
37.898
37.844
37.792
37.742
37.693
37.647
37.604
37.564
37.527
37.494
37.464
37.436
37.411
37.387
37.363
37.34
37.315
37.289
37.258
37.223
37.182
37.136
37.087
37.034
36.979
36.922
36.863
36.802
36.74
36.678
36.617
36.558
36.501
36.448
36.4
36.358
36.321
36.29
36.265
36.247
36.236
36.23
36.231
36.237
36.247
36.261
36.277
36.295
36.314
36.332
36.349
36.365
36.378
36.388
36.393
36.394
36.391
36.383
36.371
36.353
36.331
36.305
36.277
36.246
36.213
36.179
36.143
36.107
36.069
36.029
35.986
35.94
35.892
35.84
35.786
35.73
35.673
35.615
35.555
35.495
35.435
35.375
35.315
35.256
35.199
35.143
35.089
35.038
34.989
34.944
34.9
34.86
34.822
34.786
34.751
34.717
34.683
34.648
34.612
34.577
34.542
34.507
34.474
34.442
34.412
34.384
34.358
34.334
34.312
34.291
34.272
34.253
34.234
34.216
34.197
34.179
34.161
34.144
34.127
34.112
34.097
34.083
34.07
34.057
34.046
34.035
34.026
34.018
34.012
34.006
34.0
33.994
33.987
33.98
33.972
33.964
33.955
33.945
33.932
33.918
33.903
33.888
33.873
33.858
33.843
33.826
33.808
33.79
33.77
33.748
33.726
33.703
33.681
33.661
33.645
33.635
33.629
33.625
33.623
33.619
33.614
33.606
33.595
33.579
33.56
33.536
33.51
33.482
33.454
33.428
33.404
33.382
33.363
33.346
33.33
33.316
33.303
33.291
33.28
33.269
33.257
33.245
33.232
33.218
33.203
33.187
33.171
33.155
33.138
33.122
33.106
33.089
33.071
33.052
33.033
33.014
32.995
32.976
32.957
32.939
32.921
32.903
32.888
32.875
32.865
32.861
32.862
32.869
32.885
32.911
32.95
33.005
33.08
33.179
33.305
33.463
33.654
33.879
34.138
34.428
34.746
35.085
35.44
35.805
36.17
36.53
36.878
37.207
37.514
37.793
38.042
38.26
38.445
38.597
38.717
38.808
38.871
38.908
38.921
38.914
38.889
38.848
38.795
38.731
38.658
38.578
38.494
38.408
38.32
38.231
38.142
38.055
37.97
37.887
37.809
37.734
37.665
37.602
37.546
37.496
37.453
37.414
37.38
37.349
37.322
37.296
37.273
37.251
37.231
37.211
37.19
37.169
37.146
37.12
37.091
37.058
37.022
36.981
36.937
36.89
36.841
36.79
36.738
36.685
36.631
36.578
36.524
36.471
36.42
36.374
36.333
36.298
36.271
36.252
36.24
36.236
36.239
36.248
36.264
36.284
36.308
36.334
36.361
36.387
36.413
36.438
36.461
36.481
36.498
36.511
36.52
36.523
36.522
36.515
36.502
36.482
36.458
36.429
36.398
36.363
36.327
36.29
36.253
36.215
36.177
36.137
36.098
36.059
36.02
35.981
35.942
35.901
35.86
35.817
35.772
35.727
35.68
35.633
35.583
35.532
35.479
35.426
35.373
35.32
35.267
35.214
35.161
35.106
35.05
34.993
34.935
34.876
34.817
34.758
34.699
34.642
34.588
34.538
34.49
34.445
34.404
34.365
34.33
34.298
34.269
34.246
34.226
34.208
34.194
34.182
34.171
34.162
34.153
34.143
34.131
34.118
34.103
34.086
34.069
34.05
34.031
34.013
33.995
33.98
33.967
33.956
33.947
33.94
33.934
33.929
33.923
33.916
33.907
33.896
33.882
33.865
33.845
33.821
33.794
33.765
33.734
33.703
33.673
33.643
33.616
33.592
33.571
33.555
33.543
33.536
33.534
33.537
33.543
33.552
33.562
33.571
33.577
33.58
33.576
33.565
33.544
33.513
33.471
33.418
33.355
33.282
33.201
33.113
33.019
32.919
32.815
32.711
32.609
32.512
32.424
32.344
32.274
32.214
32.165
32.125
32.093
32.068
32.047
32.031
32.017
32.006
31.996
31.986
31.975
31.962
31.948
31.93
31.91
31.888
31.862
31.836
31.807
31.779
31.752
31.728
31.706
31.688
31.673
31.662
31.657
31.657
31.663
31.674
31.69
31.71
31.735
31.764
31.797
31.832
31.868
31.906
31.944
31.982
32.023
32.066
32.111
32.16
32.213
32.274
32.346
32.431
32.532
32.652
32.792
32.954
33.137
33.342
33.564
33.802
34.05
34.303
34.556
34.803
35.039
35.26
35.463
35.644
35.8
35.93
36.031
36.104
36.15
36.17
36.167
36.142
36.099
36.041
35.97
35.89
35.803
35.711
35.616
35.52
35.425
35.331
35.238
35.15
35.066
34.988
34.915
34.848
34.788
34.735
34.688
34.647
34.612
34.582
34.557
34.536
34.52
34.511
34.506
34.508
34.513
34.523
34.536
34.553
34.573
34.593
34.612
34.631
34.648
34.662
34.672
34.678
34.68
34.678
34.674
34.667
34.659
34.649
34.639
34.63
34.621
34.612
34.602
34.592
34.582
34.573
34.567
34.563
34.562
34.565
34.571
34.581
34.594
34.612
34.632
34.654
34.677
34.702
34.726
34.75
34.772
34.794
34.815
34.836
34.856
34.876
34.897
34.918
34.941
34.963
34.984
35.002
35.015
35.024
35.028
35.027
35.02
35.006
34.987
34.962
34.934
34.903
34.87
34.836
34.802
34.767
34.73
34.692
34.654
34.616
34.578
34.542
34.508
34.475
34.445
34.416
34.389
34.365
34.342
34.321
34.301
34.282
34.263
34.244
34.226
34.207
34.188
34.167
34.145
34.12
34.092
34.063
34.032
34.001
33.969
33.935
33.9
33.865
33.831
33.801
33.78
33.769
33.767
33.77
33.781
33.799
33.824
33.853
33.883
33.912
33.939
33.963
33.982
33.997
34.008
34.013
34.013
34.006
33.995
33.98
33.961
33.939
33.915
33.891
33.869
33.85
33.836
33.829
33.829
33.839
33.859
33.888
33.926
33.975
34.033
34.099
34.173
34.253
34.336
34.422
34.509
34.595
34.68
34.761
34.837
34.907
34.969
35.025
35.072
35.111
35.142
35.165
35.181
35.191
35.196
35.196
35.193
35.187
35.177
35.165
35.15
35.132
35.112
35.091
35.069
35.046
35.021
34.995
34.967
34.939
34.911
34.883
34.855
34.828
34.803
34.779
34.757
34.736
34.716
34.697
34.68
34.663
34.647
34.631
34.616
34.601
34.586
34.569
34.549
34.528
34.503
34.476
34.446
34.414
34.381
34.347
34.313
34.279
34.248
34.22
34.196
34.177
34.164
34.159
34.165
34.185
34.222
34.28
34.366
34.483
34.634
34.822
35.048
35.31
35.606
35.932
36.282
36.649
37.025
37.4
37.767
38.119
38.448
38.75
39.021
39.258
39.462
39.632
39.77
39.877
39.954
40.005
40.032
40.038
40.025
39.997
39.956
39.904
39.844
39.777
39.704
39.626
39.543
39.457
39.367
39.273
39.177
39.078
38.976
38.872
38.767
38.66
38.553
38.445
38.337
38.231
38.127
38.026
37.928
37.834
37.744
37.66
37.582
37.511
37.446
37.386
37.33
37.277
37.224
37.172
37.12
37.066
37.012
36.956
36.898
36.839
36.777
36.715
36.651
36.588
36.526
36.466
36.408
36.353
36.302
36.257
36.218
36.186
36.161
36.142
36.127
36.117
36.11
36.107
36.109
36.116
36.129
36.148
36.172
36.2
36.232
36.266
36.302
36.337
36.37
36.399
36.423
36.439
36.448
36.449
36.442
36.428
36.407
36.379
36.345
36.304
36.259
36.208
36.154
36.097
36.036
35.974
35.909
35.843
35.777
35.711
35.647
35.584
35.523
35.464
35.407
35.351
35.295
