Trial 3:3back
33.522
33.497
33.473
33.451
33.429
33.408
33.389
33.371
33.354
33.338
33.322
33.308
33.293
33.279
33.264
33.248
33.23
33.212
33.192
33.172
33.152
33.132
33.114
33.097
33.081
33.066
33.053
33.043
33.034
33.028
33.022
33.016
33.009
33.0
32.99
32.977
32.963
32.948
32.932
32.916
32.899
32.884
32.869
32.856
32.846
32.841
32.843
32.854
32.876
32.914
32.971
33.049
33.15
33.277
33.429
33.608
33.812
34.04
34.288
34.553
34.83
35.115
35.403
35.69
35.969
36.238
36.493
36.73
36.948
37.144
37.319
37.471
37.6
37.708
37.795
37.863
37.915
37.951
37.975
37.989
37.995
37.994
37.987
37.976
37.962
37.947
37.93
37.914
37.898
37.883
37.87
37.86
37.854
37.854
37.859
37.868
37.882
37.899
37.918
37.936
37.952
37.966
37.976
37.982
37.984
37.98
37.971
37.955
37.934
37.906
37.873
37.835
37.791
37.744
37.693
37.64
37.586
37.53
37.473
37.415
37.357
37.299
37.241
37.185
37.13
37.078
37.028
36.982
36.939
36.9
36.866
36.836
36.81
36.79
36.774
36.762
36.753
36.747
36.743
36.739
36.736
36.73
36.722
36.712
36.7
36.686
36.671
36.653
36.635
36.616
36.595
36.574
36.552
36.528
36.502
36.473
36.441
36.405
36.364
36.32
36.273
36.224
36.172
36.12
36.066
36.013
35.962
35.912
35.866
35.823
35.783
35.745
35.708
35.671
35.633
35.592
35.549
35.504
35.457
35.409
35.36
35.311
35.263
35.216
35.17
35.126
35.084
35.043
35.004
34.967
34.932
34.899
34.866
34.835
34.804
34.774
34.744
34.714
34.684
34.654
34.625
34.597
34.569
34.543
34.517
34.492
34.47
34.45
34.433
34.418
34.403
34.388
34.372
34.353
34.332
34.308
34.281
34.253
34.222
34.19
34.157
34.123
34.089
34.055
34.023
33.992
33.962
33.933
33.906
33.88
33.856
33.832
33.81
33.788
33.768
33.748
33.729
33.71
33.691
33.672
33.653
33.634
33.614
33.596
33.578
33.562
33.548
33.535
33.522
33.509
33.494
33.479
33.463
33.446
33.427
33.408
33.387
33.366
33.344
33.322
33.299
33.276
33.254
33.232
33.211
33.191
33.171
33.154
33.138
33.124
33.112
33.102
33.094
33.088
33.084
33.081
33.078
33.074
33.069
33.063
33.053
33.041
33.026
33.008
32.987
32.965
32.94
32.915
32.89
32.864
32.839
32.815
32.794
32.776
32.76
32.747
32.737
32.728
32.722
32.719
32.72
32.725
32.736
32.757
32.79
32.836
32.9
32.983
33.089
33.218
33.37
33.546
33.744
33.964
34.204
34.461
34.732
35.013
35.301
35.59
35.876
36.156
36.426
36.681
36.919
37.137
37.334
37.507
37.657
37.783
37.886
37.969
38.032
38.078
38.109
38.128
38.137
38.138
38.134
38.125
38.112
38.096
38.079
38.06
38.04
38.02
38.001
37.983
37.968
37.955
37.945
37.938
37.935
37.938
37.945
37.955
37.967
37.978
37.987
37.994
37.998
37.997
37.993
37.983
37.967
37.945
37.915
37.879
37.836
37.788
37.734
37.676
37.615
37.551
37.486
37.421
37.357
37.295
37.238
37.186
37.138
37.095
37.057
37.023
36.99
36.959
36.928
36.897
36.868
36.839
36.812
36.787
36.765
36.745
36.728
36.716
36.706
36.699
36.692
36.686
36.678
36.67
36.658
36.644
36.625
36.604
36.579
36.552
36.522
36.491
36.459
36.426
36.394
36.361
36.327
36.292
36.254
36.215
36.172
36.126
36.077
36.024
35.969
35.914
35.858
35.804
35.752
35.702
35.656
35.614
35.573
35.535
35.496
35.458
35.418
35.379
35.338
35.296
35.253
35.21
35.166
35.124
35.082
35.043
35.005
34.97
34.937
34.906
34.876
34.848
34.82
34.793
34.765
34.736
34.706
34.676
34.645
34.614
34.584
34.553
34.523
34.493
34.463
34.434
34.406
34.378
34.351
34.324
34.297
34.272
34.247
34.222
34.198
34.175
34.154
34.135
34.117
34.101
34.085
34.07
34.055
34.039
34.023
34.004
33.985
33.963
33.941
33.918
33.895
33.872
33.85
33.828
33.807
33.787
33.769
33.753
33.739
33.727
33.715
33.702
33.689
33.673
33.656
33.637
33.616
33.595
33.573
33.55
33.526
33.502
33.477
33.45
33.422
33.393
33.364
33.335
33.306
33.278
33.251
33.225
33.201
33.179
33.159
33.142
33.127
33.114
33.103
33.093
33.083
33.074
33.064
33.053
33.041
33.025
33.008
32.987
32.965
32.942
32.917
32.893
32.869
32.847
32.826
32.807
32.792
32.778
32.766
32.756
32.747
32.739
32.73
32.721
32.71
32.699
32.687
32.674
32.661
32.649
32.638
32.63
32.627
32.629
32.641
32.663
32.7
32.753
32.824
32.916
33.029
33.165
33.324
33.505
33.708
33.928
34.165
34.413
34.669
34.93
35.19
35.445
35.692
35.927
36.149
36.354
36.54
36.706
36.851
36.974
37.076
37.157
37.218
37.26
37.284
37.293
37.29
37.277
37.256
37.229
37.2
37.17
37.141
37.112
37.085
37.059
37.034
37.01
36.988
36.965
36.943
36.922
36.902
36.884
36.869
36.857
36.846
36.838
36.832
36.826
36.821
36.814
36.805
36.791
36.774
36.75
36.722
36.687
36.647
36.602
36.553
36.499
36.443
36.385
36.326
36.268
36.211
36.157
36.106
36.06
36.021
35.988
35.961
35.937
35.916
35.898
35.881
35.866
35.852
35.84
35.829
35.82
35.814
35.81
35.809
35.81
35.811
35.813
35.815
35.816
35.815
35.812
35.806
35.797
35.785
35.769
35.749
35.726
35.699
35.67
35.638
35.604
35.57
35.534
35.497
35.459
35.421
35.382
35.343
35.303
35.262
35.221
35.18
35.14
35.101
35.063
35.025
34.989
34.953
34.917
34.881
34.844
34.806
34.768
34.728
34.689
34.65
34.612
34.575
34.538
34.502
34.467
34.434
34.403
34.373
34.344
34.316
34.288
34.259
34.229
34.199
34.168
34.136
34.104
34.072
34.041
34.012
33.984
33.957
33.932
33.909
33.887
33.868
33.85
33.834
33.819
33.806
33.794
33.783
33.771
33.759
33.745
33.729
33.711
33.692
33.671
33.649
33.625
33.601
33.577
33.554
33.531
33.51
33.49
33.472
33.456
33.441
33.427
33.414
33.4
33.385
33.369
33.352
33.332
33.311
33.288
33.263
33.237
33.21
33.182
33.155
33.129
33.105
33.083
33.064
33.048
33.035
33.025
33.017
33.014
33.014
33.016
33.02
33.021
33.02
33.013
33.001
32.985
32.963
32.938
32.91
32.88
32.85
32.821
32.794
32.77
32.749
32.732
32.718
32.706
32.697
32.689
32.682
32.674
32.665
32.654
32.641
32.626
32.608
32.588
32.567
32.544
32.522
32.501
32.481
32.462
32.446
32.432
32.421
32.411
32.405
32.402
32.403
32.409
32.423
32.445
32.477
32.521
32.578
32.651
32.74
32.846
32.97
33.113
33.274
33.451
33.643
33.849
34.07
34.308
34.559
34.82
35.083
35.345
35.599
35.841
36.066
36.271
36.452
36.609
36.74
36.847
36.929
36.988
37.027
37.048
37.054
37.047
37.031
37.007
36.979
36.949
36.918
36.888
36.861
36.838
36.817
36.801
36.788
36.777
36.768
36.76
36.753
36.747
36.744
36.743
36.744
36.748
36.754
36.762
36.773
36.784
36.796
36.806
36.814
36.817
36.815
36.807
36.794
36.776
36.752
36.724
36.69
36.652
36.609
36.563
36.513
36.461
36.407
36.352
36.297
36.243
36.19
36.139
36.09
36.044
36.001
35.963
35.929
35.899
35.874
35.853
35.836
35.822
35.812
35.805
35.801
35.799
35.799
35.8
35.801
35.801
35.799
35.795
35.788
35.777
35.763
35.745
35.722
35.696
35.668
35.637
35.604
35.57
35.535
35.5
35.466
35.433
35.401
35.37
35.339
35.307
35.275
35.243
35.209
35.173
35.136
35.097
35.056
35.015
34.974
34.932
34.892
34.852
34.814
34.776
34.74
34.706
34.672
34.639
34.607
34.576
34.545
34.514
34.483
34.452
34.421
34.39
34.36
34.329
34.3
34.271
34.242
34.215
34.188
34.164
34.141
34.121
34.102
34.084
34.066
34.049
34.032
34.015
33.997
33.977
33.956
33.935
33.913
33.891
33.868
33.846
33.823
33.801
33.779
33.758
33.737
33.716
33.696
33.676
33.656
33.635
33.614
33.593
33.572
33.552
33.534
33.516
33.498
33.481
33.465
33.449
33.434
33.418
33.403
33.389
33.377
33.366
33.356
33.347
33.338
33.329
33.32
33.31
33.299
33.286
33.27
33.252
33.232
33.209
33.185
33.159
33.133
33.108
33.083
33.059
33.037
33.018
33.001
32.988
32.978
32.97
32.964
32.959
32.955
32.951
32.947
32.942
32.936
32.93
32.923
32.915
32.907
32.898
32.888
32.877
32.865
32.851
32.836
32.818
32.801
32.782
32.765
32.748
32.732
32.717
32.704
32.693
32.682
32.673
32.665
32.656
32.648
32.64
32.632
32.622
32.611
32.6
32.588
32.576
32.566
32.558
32.554
32.556
32.565
32.585
32.616
32.662
32.724
32.806
32.909
33.034
33.18
33.348
33.537
33.744
33.968
34.204
34.449
34.7
34.952
35.201
35.444
35.676
35.894
36.097
36.283
36.451
36.601
36.731
36.844
36.938
37.015
37.074
37.117
37.144
37.157
37.159
37.153
37.141
37.122
37.1
37.075
37.049
37.021
36.994
36.967
36.941
36.918
36.897
36.88
36.867
36.858
36.853
36.852
36.854
36.859
36.866
36.873
36.879
36.885
36.888
36.889
36.887
36.882
36.873
36.861
36.846
36.827
36.803
36.776
36.744
36.708
36.667
36.622
36.571
36.517
36.46
36.403
36.346
36.29
36.238
36.189
36.146
36.11
36.08
36.056
36.038
36.024
36.013
36.006
36.0
35.996
35.994
35.995
35.999
36.005
36.013
36.024
36.038
36.055
36.074
36.092
36.109
36.121
36.126
36.124
36.114
36.094
36.065
36.027
35.983
35.933
35.88
35.825
35.77
35.717
35.666
35.618
35.574
35.533
35.495
35.461
35.429
35.399
35.37
35.342
35.314
35.287
35.26
35.233
35.205
35.178
35.15
35.121
35.094
35.066
35.037
35.008
34.977
34.945
34.912
34.878
34.843
34.807
34.77
34.733
34.698
34.665
34.634
34.604
34.578
34.553
34.53
34.51
34.49
34.471
34.453
34.435
34.417
34.399
34.381
34.363
34.346
34.332
34.32
34.31
34.302
34.295
34.287
34.277
34.265
34.249
34.231
34.209
34.186
34.161
34.136
34.111
34.086
34.063
34.04
34.019
33.999
33.979
33.961
33.943
33.925
33.908
33.89
33.872
33.854
33.836
33.818
33.8
33.783
33.767
33.751
33.736
33.72
33.705
33.688
33.67
33.651
33.631
33.61
33.589
33.567
33.545
33.523
33.503
33.483
33.465
33.448
33.433
33.421
33.411
33.403
33.397
33.392
33.387
33.384
33.379
33.375
33.369
33.363
33.357
33.347
33.334
33.317
33.299
33.279
33.259
33.239
33.222
33.207
33.195
33.187
33.183
33.181
33.183
33.185
33.19
33.194
33.199
33.201
33.201
33.199
33.194
33.187
33.177
33.164
33.15
33.133
33.116
33.099
33.083
33.068
33.056
33.047
33.044
33.047
33.058
33.079
33.112
33.158
33.221
33.301
33.401
33.52
33.661
33.822
34.003
34.203
34.419
34.65
34.89
35.138
35.389
35.637
35.879
36.11
36.326
36.525
36.703
36.858
36.99
37.1
37.188
37.255
37.304
37.338
37.357
37.365
37.364
37.356
37.341
37.322
37.297
37.268
37.235
37.197
37.158
37.117
37.076
37.039
37.006
36.978
36.956
36.939
36.927
36.919
36.914
36.911
36.908
36.905
36.901
36.894
36.884
36.872
36.855
36.835
36.811
36.783
36.752
36.719
36.684
36.648
36.61
36.57
36.526
36.479
36.429
36.376
36.322
36.269
36.217
36.17
36.129
36.096
36.07
36.052
36.038
36.027
36.017
36.009
36.001
35.995
35.988
35.982
35.977
35.972
35.969
35.967
35.966
35.965
35.965
35.964
35.961
35.957
35.951
35.942
35.932
35.92
35.907
35.893
35.877
35.86
35.84
35.819
35.795
35.768
35.738
35.705
35.67
35.632
35.593
35.552
35.51
35.467
35.423
35.379
35.336
35.294
35.255
35.219
35.188
35.161
35.138
35.12
35.105
35.092
35.082
35.072
35.062
35.051
35.039
35.025
35.01
34.994
34.977
34.959
34.941
34.923
34.905
34.887
34.869
34.851
34.833
34.814
34.795
34.774
34.752
34.729
34.705
34.68
34.655
34.629
34.603
34.578
34.555
34.534
34.516
34.5
34.487
34.476
34.467
34.458
34.45
34.44
34.429
34.415
34.399
34.381
34.362
34.341
34.321
34.3
34.28
34.259
34.237
34.213
34.187
34.16
34.13
34.099
34.066
34.033
33.999
33.965
33.931
33.896
33.861
33.826
33.79
33.754
33.717
33.678
33.64
33.601
33.561
33.52
33.477
33.433
33.386
33.339
33.291
33.243
33.197
33.154
33.113
33.076
33.043
33.014
32.989
32.966
32.947
32.929
32.912
32.897
32.882
32.867
32.853
32.838
32.823
32.807
32.791
32.774
32.758
32.742
32.727
32.715
32.704
32.697
32.692
32.689
32.689
32.691
32.695
32.699
32.702
32.702
32.701
32.697
32.692
32.685
32.677
32.667
32.657
32.646
32.636
32.627
32.621
32.619
32.623
32.635
32.661
32.703
32.766
32.852
32.964
33.103
33.27
33.462
33.677
33.911
34.161
34.423
34.692
34.963
35.233
35.499
35.756
36.003
36.236
36.455
36.656
36.839
37.003
37.15
37.277
37.384
37.474
37.548
37.608
37.655
37.692
37.719
37.737
37.748
37.753
37.755
37.755
37.753
37.752
37.752
37.753
37.757
37.762
37.768
37.776
37.783
37.792
37.801
37.814
37.83
37.849
37.869
37.891
37.913
37.933
37.95
37.963
37.971
37.972
37.965
37.951
37.929
37.899
37.862
37.817
37.766
37.709
37.649
37.586
37.523
37.461
37.403
37.35
37.303
37.263
37.23
37.203
37.181
37.163
37.148
37.136
37.125
37.115
37.104
37.092
37.078
37.062
37.044
37.023
36.998
36.971
36.94
36.907
36.872
36.836
36.8
36.765
36.733
36.702
36.674
36.648
36.624
36.601
36.577
36.552
36.522
36.486
36.442
36.389
36.328
36.259
36.186
36.109
36.033
35.959
35.887
35.819
35.754
35.692
35.632
35.574
35.515
35.454
35.392
35.33
35.268
35.209
35.153
35.102
35.056
35.016
34.983
34.956
34.935
34.918
34.904
34.891
34.878
34.864
34.848
34.83
34.809
34.785
34.76
34.733
34.704
34.676
34.646
34.618
34.59
34.563
34.537
34.513
34.489
34.466
34.443
34.42
34.397
34.373
34.349
34.324
34.299
34.275
34.251
34.228
34.205
34.183
34.163
34.144
34.126
34.11
34.095
34.082
34.071
34.062
34.052
34.043
34.034
34.023
34.009
33.993
33.974
33.953
33.931
33.907
33.884
33.862
33.84
33.819
33.8
33.782
33.767
33.753
33.741
33.731
33.722
33.714
33.706
33.697
33.688
33.676
33.663
33.648
33.63
33.61
33.589
33.568
33.547
33.526
33.507
33.491
33.477
33.466
33.459
33.453
33.45
33.45
33.45
33.451
33.451
33.451
33.448
33.443
33.436
33.426
33.412
33.396
33.378
33.36
33.342
33.324
33.309
33.295
33.283
33.273
33.267
33.265
33.267
33.272
33.279
33.286
33.292
33.296
33.295
33.291
33.284
33.273
33.258
33.241
33.222
33.201
33.179
33.157
33.135
33.115
33.097
33.083
33.074
33.073
33.081
33.101
33.137
33.192
33.267
33.365
33.485
33.628
33.793
33.98
34.188
34.414
34.656
34.912
35.176
35.445
35.714
35.979
36.236
36.483
36.716
36.935
37.135
37.317
37.478
37.619
37.739
37.837
37.915
37.972
38.011
38.034
38.044
38.046
38.041
38.032
38.02
38.006
37.992
37.978
37.965
37.952
37.939
37.927
37.914
37.902
37.891
37.88
37.87
37.862
37.856
37.851
37.847
37.845
37.846
37.849
37.856
37.865
37.877
37.888
37.898
37.905
37.907
37.901
37.887
37.863
37.83
37.787
37.737
37.68
37.616
37.549
37.478
37.407
37.336
37.266
37.199
37.136
37.078
37.024
36.974
36.929
36.887
36.85
36.816
36.787
36.763
36.742
36.726
36.713
36.705
36.699
36.694
36.69
36.684
36.675
36.664
36.65
36.633
36.614
36.593
36.57
36.544
36.516
36.487
36.458
36.429
36.402
36.377
36.352
36.328
36.303
36.278
36.251
36.221
36.188
36.153
36.114
36.072
36.029
35.984
35.939
35.895
35.852
35.812
35.773
35.736
35.699
35.661
35.624
35.586
35.547
35.508
35.468
35.427
35.387
35.348
35.31
35.275
35.245
35.219
35.197
35.179
35.162
35.146
35.129
35.11
35.091
35.069
35.045
35.018
34.989
34.958
34.926
34.893
34.86
34.827
34.796
34.766
34.737
34.711
34.686
34.663
34.641
34.621
34.601
34.581
34.562
34.542
34.523
34.503
34.484
34.464
34.443
34.423
34.404
34.386
34.368
34.352
34.336
34.32
34.307
34.294
34.282
34.271
34.261
34.252
34.243
34.235
34.227
34.218
34.208
34.197
34.184
34.17
34.155
34.138
34.12
34.102
34.084
34.065
34.046
34.028
34.01
33.992
33.974
33.955
33.936
33.915
33.894
33.873
33.851
33.828
33.805
33.782
33.76
33.74
33.722
33.704
33.689
33.675
33.663
33.652
33.641
33.63
33.619
33.608
33.597
33.585
33.573
33.562
33.551
33.541
33.532
33.523
33.515
33.507
33.5
33.495
33.49
33.488
33.489
33.495
33.509
33.532
33.568
33.618
33.684
33.769
33.873
33.998
34.143
34.309
34.492
34.693
34.906
35.13
35.362
35.598
35.835
36.07
36.3
36.521
36.73
36.924
37.101
37.259
37.396
37.513
37.609
37.684
37.74
37.777
37.798
37.805
37.8
37.785
37.763
37.736
37.704
37.67
37.634
37.597
37.559
37.522
37.485
37.45
37.417
37.386
37.358
37.333
37.312
37.293
37.277
37.262
37.249
37.236
37.222
37.207
37.19
37.17
37.147
37.121
37.091
37.059
37.025
36.989
36.951
36.912
36.87
36.826
36.78
36.731
36.68
36.626
36.571
36.515
36.459
36.405
36.353
36.306
36.263
36.225
36.192
36.158
36.122
36.084
36.046
36.01
35.978
35.952
35.932
35.918
35.911
35.912
35.918
35.929
35.944
35.961
35.981
36.002
36.023
36.042
36.057
36.068
36.073
36.071
36.062
36.046
36.022
35.991
35.953
35.91
35.862
35.81
35.756
35.701
35.648
35.597
35.548
35.504
35.463
35.425
35.39
35.358
35.326
35.295
35.263
35.23
35.195
35.16
35.122
35.083
35.043
35.002
34.958
34.914
34.87
34.828
34.788
34.751
34.717
34.688
34.661
34.637
34.614
34.594
34.573
34.551
34.527
34.503
34.478
34.453
34.428
34.404
34.38
34.357
34.333
34.309
34.285
34.261
34.238
34.214
34.192
34.171
34.149
34.128
34.108
34.088
34.069
34.049
34.03
34.01
33.992
33.975
33.959
33.943
33.929
33.914
33.9
33.886
33.873
33.859
33.846
33.832
33.818
33.805
33.792
33.778
33.764
33.749
33.733
33.716
33.699
33.681
33.662
33.643
33.624
33.605
33.586
33.567
33.548
33.531
33.514
33.499
33.483
33.468
33.453
33.437
33.422
33.405
33.388
33.372
33.357
33.343
33.33
33.318
33.307
33.296
33.285
33.275
33.263
33.25
33.234
33.217
33.198
33.178
33.157
33.135
33.112
33.089
33.066
33.042
33.019
32.997
32.975
32.956
32.939
32.925
32.914
32.908
32.907
32.911
32.922
32.941
32.971
33.015
33.074
33.151
33.247
33.364
33.501
33.66
33.839
34.037
34.252
34.481
34.721
34.97
35.222
35.476
35.725
35.966
36.195
36.408
36.603
36.778
36.931
37.061
37.17
37.258
37.327
37.378
37.413
37.435
37.445
37.446
37.439
37.427
37.41
37.389
37.366
37.341
37.314
37.287
37.26
37.234
37.213
37.195
37.182
37.174
37.169
37.168
37.169
37.173
37.18
37.188
37.198
37.208
37.217
37.223
37.226
37.226
37.221
37.211
37.198
37.179
37.157
37.13
37.098
37.062
37.021
36.974
36.924
36.869
36.811
36.752
36.691
36.631
36.572
36.515
36.461
36.411
36.366
36.327
36.293
36.266
36.243
36.226
36.213
36.203
36.196
36.191
36.186
36.182
36.178
36.173
36.168
36.163
36.157
36.151
36.144
36.138
36.13
36.122
36.113
36.102
36.091
36.078
36.064
36.047
36.026
36.003
35.976
35.945
35.911
35.873
35.833
35.792
35.749
35.707
35.665
35.624
35.586
35.55
35.515
35.48
35.445
35.41
35.374
35.338
35.301
35.263
35.224
35.184
35.144
35.104
35.065
35.027
34.991
34.957
34.925
34.895
34.866
34.839
34.813
34.786
34.759
34.729
34.698
34.665
34.632
34.599
34.567
34.537
34.507
34.48
34.455
34.432
34.409
34.387
34.365
34.343
34.32
34.297
34.274
34.251
34.229
34.208
34.187
34.168
34.151
34.135
34.121
34.109
34.097
34.086
34.074
34.062
34.05
34.036
34.02
34.003
33.985
33.964
33.942
33.92
33.896
33.872
33.848
33.825
33.803
33.783
33.764
33.745
33.727
33.71
33.693
33.676
33.66
33.643
33.625
33.607
33.589
33.569
33.549
33.528
33.508
33.488
33.468
33.449
33.432
33.416
33.403
33.393
33.384
33.377
33.371
33.367
33.364
33.36
33.356
33.351
33.343
33.332
33.32
33.304
33.285
33.262
33.237
33.211
33.185
33.161
33.139
33.119
33.103
33.09
