Trial 3:3back
32.372
32.335
32.299
32.264
32.232
32.202
32.175
32.15
32.126
32.102
32.078
32.054
32.031
32.01
31.99
31.972
31.955
31.94
31.927
31.915
31.907
31.904
31.911
31.929
31.961
32.011
32.079
32.167
32.277
32.41
32.566
32.745
32.947
33.17
33.413
33.673
33.947
34.232
34.525
34.822
35.117
35.408
35.689
35.958
36.214
36.454
36.679
36.888
37.081
37.259
37.421
37.566
37.695
37.807
37.903
37.984
38.049
38.1
38.137
38.162
38.176
38.181
38.179
38.173
38.162
38.149
38.135
38.12
38.104
38.087
38.068
38.045
38.018
37.988
37.955
37.92
37.884
37.848
37.81
37.77
37.729
37.684
37.637
37.587
37.534
37.477
37.417
37.353
37.286
37.217
37.148
37.08
37.014
36.952
36.894
36.839
36.787
36.737
36.69
36.645
36.602
36.561
36.521
36.483
36.446
36.412
36.379
36.347
36.316
36.285
36.255
36.223
36.189
36.153
36.114
36.074
36.034
35.994
35.953
35.912
35.869
35.826
35.78
35.733
35.684
35.633
35.58
35.525
35.467
35.407
35.346
35.284
35.222
35.161
35.1
35.039
34.976
34.912
34.846
34.781
34.716
34.653
34.591
34.529
34.469
34.409
34.348
34.287
34.224
34.161
34.098
34.035
33.971
33.908
33.844
33.782
33.72
33.658
33.597
33.536
33.474
33.414
33.354
33.297
33.244
33.195
33.15
33.11
33.073
33.039
33.005
32.97
32.935
32.9
32.866
32.834
32.806
32.787
32.782
32.787
32.799
32.812
32.821
32.825
32.822
32.811
32.792
32.765
32.731
32.689
32.642
32.59
32.535
32.48
32.425
32.371
32.319
32.27
32.222
32.173
32.124
32.074
32.022
31.969
31.915
31.862
31.81
31.761
31.714
31.67
31.63
31.594
31.563
31.537
31.515
31.499
31.487
31.481
31.48
31.484
31.493
31.507
31.529
31.559
31.6
31.654
31.721
31.805
31.908
32.03
32.173
32.338
32.524
32.73
32.955
33.197
33.454
33.724
34.003
34.291
34.582
34.876
35.166
35.45
35.725
35.988
36.236
36.468
36.682
36.876
37.05
37.204
37.338
37.452
37.548
37.627
37.692
37.744
37.783
37.813
37.833
37.846
37.854
37.858
37.859
37.857
37.853
37.847
37.84
37.83
37.82
37.807
37.792
37.775
37.755
37.734
37.711
37.687
37.66
37.631
37.597
37.56
37.52
37.476
37.428
37.378
37.323
37.265
37.202
37.137
37.069
37.0
36.932
36.866
36.802
36.743
36.687
36.637
36.592
36.55
36.513
36.48
36.451
36.423
36.395
36.367
36.338
36.309
36.281
36.255
36.231
36.207
36.185
36.163
36.14
36.116
36.092
36.065
36.036
36.004
35.968
35.929
35.888
35.843
35.797
35.749
35.7
35.65
35.599
35.545
35.489
35.432
35.374
35.316
35.259
35.203
35.149
35.094
35.04
34.986
34.933
34.88
34.827
34.774
34.72
34.667
34.614
34.561
34.51
34.459
34.41
34.362
34.312
34.261
34.208
34.154
34.099
34.043
33.987
33.931
33.876
33.822
33.767
33.712
33.656
33.601
33.547
33.495
33.447
33.402
33.362
33.327
33.294
33.265
33.239
33.216
33.195
33.176
33.158
33.142
33.125
33.109
33.091
33.071
33.049
33.025
32.999
32.971
32.942
32.913
32.882
32.852
32.823
32.794
32.766
32.738
32.709
32.679
32.647
32.615
32.583
32.551
32.517
32.483
32.449
32.414
32.379
32.343
32.307
32.27
32.233
32.196
32.16
32.127
32.097
32.071
32.048
32.028
32.014
32.006
32.01
32.026
32.06
32.112
32.186
32.28
32.396
32.533
32.692
32.874
33.076
33.299
33.541
33.799
34.072
34.355
34.647
34.942
35.236
35.525
35.803
36.068
36.316
36.546
36.756
36.947
37.118
37.269
37.401
37.514
37.61
37.688
37.75
37.798
37.832
37.854
37.866
37.869
37.865
37.856
37.843
37.829
37.815
37.801
37.788
37.775
37.761
37.747
37.733
37.719
37.706
37.693
37.679
37.664
37.648
37.63
37.609
37.584
37.554
37.517
37.473
37.421
37.361
37.293
37.219
37.139
37.057
36.974
36.892
36.814
36.739
36.668
36.602
36.538
36.478
36.42
36.366
36.316
36.27
36.23
36.197
36.17
36.149
36.134
36.122
36.112
36.104
36.096
36.086
36.076
36.063
36.05
36.034
36.018
36.0
35.981
35.959
35.935
35.906
35.873
35.836
35.794
35.749
35.7
35.649
35.595
35.539
35.48
35.42
35.357
35.293
35.228
35.163
35.097
35.03
34.963
34.897
34.831
34.766
34.703
34.642
34.583
34.526
34.472
34.419
34.368
34.32
34.273
34.228
34.185
34.143
34.101
34.059
34.017
33.973
33.928
33.882
33.835
33.787
33.739
33.691
33.643
33.596
33.548
33.5
33.452
33.406
33.362
33.32
33.281
33.245
33.21
33.178
33.146
33.113
33.081
33.048
33.015
32.983
32.951
32.919
32.888
32.856
32.824
32.792
32.76
32.73
32.7
32.672
32.645
32.62
32.597
32.575
32.555
32.535
32.516
32.497
32.477
32.458
32.439
32.42
32.403
32.385
32.366
32.345
32.321
32.293
32.264
32.234
32.203
32.172
32.142
32.114
32.086
32.059
32.033
32.007
31.984
31.963
31.946
31.936
31.935
31.944
31.967
32.007
32.064
32.142
32.242
32.367
32.516
32.691
32.891
33.115
33.362
33.628
33.909
34.202
34.503
34.806
35.107
35.403
35.691
35.966
36.228
36.476
36.708
36.924
37.122
37.302
37.462
37.603
37.723
37.823
37.905
37.968
38.017
38.054
38.081
38.101
38.113
38.119
38.119
38.115
38.107
38.094
38.077
38.057
38.035
38.012
37.989
37.968
37.95
37.936
37.925
37.918
37.912
37.907
37.901
37.894
37.883
37.868
37.848
37.823
37.792
37.755
37.712
37.664
37.612
37.556
37.496
37.432
37.365
37.295
37.222
37.149
37.075
37.004
36.935
36.871
36.811
36.757
36.708
36.665
36.628
36.595
36.566
36.54
36.518
36.498
36.48
36.464
36.449
36.435
36.421
36.407
36.391
36.372
36.351
36.326
36.298
36.267
36.233
36.196
36.157
36.115
36.071
36.024
35.974
35.921
35.865
35.806
35.743
35.678
35.611
35.544
35.477
35.41
35.343
35.277
35.211
35.147
35.085
35.027
34.974
34.924
34.875
34.826
34.775
34.722
34.666
34.606
34.545
34.481
34.416
34.35
34.284
34.221
34.16
34.103
34.05
34.002
33.958
33.917
33.877
33.838
33.798
33.757
33.715
33.672
33.629
33.586
33.543
33.5
33.456
33.411
33.366
33.321
33.277
33.234
33.191
33.15
33.108
33.067
33.025
32.982
32.94
32.898
32.858
32.822
32.79
32.763
32.741
32.722
32.706
32.691
32.676
32.66
32.643
32.625
32.606
32.586
32.565
32.542
32.517
32.49
32.46
32.428
32.394
32.359
32.324
32.289
32.256
32.223
32.192
32.16
32.129
32.098
32.068
32.037
32.006
31.975
31.944
31.911
31.877
31.841
31.803
31.766
31.729
31.694
31.662
31.633
31.61
31.595
31.591
31.601
31.625
31.665
31.725
31.806
31.908
32.035
32.185
32.359
32.556
32.774
33.011
33.265
33.533
33.812
34.099
34.389
34.677
34.96
35.236
35.501
35.753
35.991
36.212
36.414
36.596
36.76
36.903
37.028
37.135
37.224
37.298
37.357
37.402
37.434
37.456
37.469
37.475
37.475
37.472
37.466
37.458
37.448
37.436
37.424
37.41
37.396
37.38
37.365
37.351
37.338
37.328
37.321
37.316
37.312
37.309
37.304
37.298
37.287
37.272
37.252
37.225
37.192
37.154
37.111
37.064
37.014
36.961
36.906
36.849
36.79
36.73
36.67
36.608
36.547
36.485
36.425
36.368
36.315
36.265
36.219
36.177
36.14
36.106
36.075
36.047
36.023
36.001
35.982
35.965
35.95
35.938
35.925
35.912
35.897
35.88
35.86
35.836
35.808
35.776
35.742
35.705
35.665
35.624
35.581
35.536
35.488
35.438
35.386
35.332
35.277
35.221
35.166
35.111
35.056
35.001
34.945
34.888
34.828
34.768
34.707
34.646
34.584
34.523
34.463
34.404
34.347
34.29
34.234
34.18
34.127
34.076
34.026
33.98
33.936
33.895
33.856
33.819
33.782
33.747
33.711
33.676
33.64
33.605
33.569
33.533
33.497
33.46
33.422
33.383
33.344
33.304
33.266
33.229
33.193
33.156
33.119
33.082
33.042
33.002
32.962
32.922
32.884
32.847
32.811
32.776
32.74
32.704
32.668
32.633
32.598
32.564
32.531
32.499
32.469
32.44
32.411
32.383
32.356
32.33
32.306
32.282
32.26
32.239
32.219
32.198
32.178
32.156
32.134
32.111
32.086
32.061
32.036
32.012
31.988
31.964
31.938
31.912
31.884
31.856
31.828
31.8
31.773
31.748
31.725
31.704
31.688
31.677
31.675
31.684
31.706
31.744
31.799
31.873
31.966
32.08
32.215
32.37
32.547
32.743
32.958
33.189
33.432
33.684
33.942
34.202
34.46
34.714
34.96
35.196
35.419
35.63
35.827
36.008
36.173
36.322
36.454
36.569
36.668
36.753
36.825
36.885
36.935
36.976
37.01
37.037
37.058
37.071
37.079
37.08
37.076
37.068
37.057
37.045
37.033
37.021
37.01
37.0
36.992
36.985
36.977
36.969
36.958
36.944
36.926
36.904
36.88
36.854
36.824
36.791
36.756
36.718
36.677
36.633
36.587
36.54
36.49
36.44
36.391
36.343
36.296
36.252
36.21
36.17
36.133
36.097
36.063
36.029
35.997
35.965
35.936
35.91
35.887
35.867
35.85
35.835
35.822
35.808
35.793
35.777
35.758
35.739
35.717
35.694
35.669
35.643
35.615
35.585
35.554
35.52
35.485
35.448
35.409
35.368
35.328
35.287
35.248
35.209
35.17
35.132
35.092
35.052
35.011
34.967
34.923
34.876
34.829
34.78
34.729
34.677
34.624
34.569
34.511
34.453
34.393
34.334
34.277
34.22
34.165
34.111
34.057
34.004
33.951
33.898
33.847
33.797
33.75
33.704
33.661
33.62
33.581
33.543
33.506
33.471
33.435
33.401
33.367
33.335
33.305
33.278
33.252
33.228
33.205
33.183
33.161
33.14
33.12
33.1
33.08
33.061
33.041
33.02
32.998
32.973
32.945
32.916
32.885
32.853
32.822
32.793
32.766
32.74
32.714
32.688
32.661
32.633
32.604
32.575
32.544
32.512
32.48
32.448
32.414
32.38
32.343
32.306
32.268
32.23
32.194
32.16
32.128
32.099
32.072
32.046
32.02
31.996
31.972
31.951
31.933
31.917
31.903
31.891
31.882
31.876
31.874
31.879
31.892
31.916
31.952
32.003
32.071
32.156
32.259
32.383
32.526
32.689
32.872
33.074
33.292
33.525
33.769
34.02
34.274
34.527
34.778
35.024
35.263
35.493
35.713
35.922
36.118
36.3
36.467
36.618
36.752
36.871
36.975
37.064
37.141
37.206
37.263
37.313
37.358
37.397
37.431
37.459
37.48
37.495
37.505
37.511
37.513
37.515
37.515
37.514
37.513
37.511
37.508
37.504
37.498
37.49
37.479
37.467
37.452
37.434
37.414
37.392
37.367
37.342
37.315
37.286
37.256
37.222
37.187
37.149
37.109
37.067
37.023
36.979
36.937
36.896
36.857
36.821
36.789
36.759
36.731
36.705
36.68
36.657
36.636
36.616
36.597
36.579
36.563
36.546
36.529
36.511
36.491
36.469
36.444
36.418
36.39
36.36
36.329
36.296
36.262
36.226
36.189
36.152
36.114
36.076
36.037
35.997
35.957
35.916
35.875
35.835
35.794
35.753
35.712
35.671
35.629
35.587
35.543
35.498
35.452
35.405
35.356
35.307
35.258
35.208
35.157
35.105
35.052
34.998
34.944
34.891
34.838
34.785
34.733
34.679
34.624
34.567
34.509
34.45
34.391
34.329
34.262
34.194
34.124
34.056
33.993
33.936
33.886
33.844
33.81
33.784
33.763
33.746
33.732
33.72
33.707
33.694
33.68
33.664
33.646
33.627
33.607
33.586
33.563
33.539
33.513
33.485
33.455
33.423
33.387
33.349
33.309
33.267
33.223
33.178
33.133
33.089
33.048
33.009
32.974
32.942
32.913
32.886
32.861
32.837
32.814
32.79
32.766
32.743
32.721
32.704
32.694
32.693
32.704
32.73
32.771
32.829
32.904
32.997
33.109
33.239
33.388
33.555
33.74
33.941
34.157
34.385
34.622
34.865
35.11
35.356
35.6
35.839
36.072
36.297
36.51
36.711
36.896
37.066
37.22
37.359
37.481
37.589
37.683
37.765
37.833
37.891
37.938
37.975
38.002
38.02
38.03
38.033
38.031
38.026
38.019
38.012
38.006
38.001
37.998
37.998
37.999
38.002
38.005
38.007
38.007
38.004
37.996
37.983
37.964
37.941
37.912
37.879
37.843
37.801
37.755
37.704
37.648
37.589
37.528
37.466
37.405
37.346
37.29
37.236
37.186
37.139
37.094
37.052
37.011
36.97
36.932
36.896
36.864
36.835
36.811
36.792
36.776
36.763
36.752
36.743
36.735
36.727
36.718
36.708
36.697
36.686
36.674
36.661
36.647
36.629
36.607
36.579
36.545
36.506
36.461
36.412
36.36
36.304
36.247
36.189
36.129
36.068
36.007
35.945
35.884
35.825
35.769
35.716
35.667
35.619
35.573
35.527
35.48
35.432
35.383
35.333
35.282
35.231
35.179
35.126
35.073
35.019
34.965
34.91
34.856
34.802
34.748
34.694
34.642
34.591
34.544
34.499
34.458
34.419
34.382
34.345
34.308
34.271
34.235
34.198
34.162
34.127
34.092
34.057
34.021
33.984
33.945
33.904
33.86
33.815
33.769
33.724
33.679
33.635
33.591
33.548
33.504
33.461
33.42
33.381
33.344
33.311
33.28
33.251
33.223
33.195
33.169
33.143
33.118
33.094
33.074
33.057
33.045
33.038
33.036
33.04
33.052
33.075
33.111
33.162
33.23
33.316
33.421
33.544
33.686
33.846
34.023
34.218
34.429
34.654
34.892
35.139
35.392
35.648
35.903
36.153
36.395
36.627
36.847
37.052
37.242
37.417
37.577
37.723
37.855
37.974
38.08
38.173
38.251
38.315
38.367
38.407
38.437
38.46
38.475
38.484
38.489
38.49
38.489
38.485
38.478
38.467
38.452
38.431
38.406
38.378
38.347
38.314
38.281
38.246
38.209
38.171
38.13
38.087
38.041
37.991
37.935
37.875
37.81
37.743
37.675
37.607
37.541
37.477
37.416
37.359
37.304
37.252
37.202
37.154
37.108
37.065
37.024
36.987
36.954
36.925
36.899
36.876
36.854
36.833
36.811
36.788
36.764
36.739
36.714
36.689
36.665
36.641
36.617
36.591
36.563
36.533
36.5
36.466
36.43
36.395
36.358
36.32
36.281
36.24
36.198
36.154
36.108
36.06
36.011
35.962
35.911
35.861
35.81
35.76
35.711
35.661
35.611
35.561
35.508
35.454
35.397
35.339
35.281
35.221
35.162
35.103
35.044
34.985
34.924
34.863
34.802
34.742
34.683
34.626
34.571
34.517
34.465
34.413
34.36
34.308
34.256
34.206
34.16
34.117
34.077
34.039
34.002
33.965
33.927
33.889
33.85
33.812
33.776
33.742
33.71
33.68
33.651
33.623
33.594
33.566
33.538
33.511
33.485
33.46
33.434
33.408
33.38
33.35
33.318
33.286
33.251
33.216
33.181
33.146
33.111
33.076
33.039
33.002
32.964
32.927
32.891
32.858
32.826
32.797
32.769
32.743
32.718
32.696
32.679
32.669
32.67
32.683
32.711
32.756
32.82
32.904
33.01
33.138
33.289
33.464
33.663
33.884
34.125
34.385
34.659
34.946
35.24
35.539
35.837
36.132
36.418
36.693
36.956
37.204
37.436
37.651
37.846
38.022
38.177
38.311
38.426
38.52
38.596
38.655
38.698
38.727
38.744
38.752
38.753
38.748
38.738
38.723
38.704
38.681
38.655
38.628
38.599
38.571
38.542
38.513
38.484
38.454
38.424
38.394
38.362
38.33
38.294
38.256
38.214
38.168
38.119
38.067
38.012
37.956
37.896
37.834
37.769
37.701
37.632
37.562
37.492
37.424
37.358
37.295
37.235
37.178
37.125
37.075
37.029
36.987
36.948
36.911
36.877
36.844
36.814
36.787
36.764
36.744
36.726
36.709
36.692
36.673
36.652
36.63
36.606
36.582
36.557
36.532
36.506
36.479
36.451
36.421
36.39
36.355
36.318
36.278
36.235
36.188
36.138
36.085
36.031
35.973
35.913
35.85
35.783
35.714
35.643
35.572
35.501
35.431
35.363
35.295
35.228
35.16
35.092
35.023
34.953
34.883
34.815
34.749
34.685
34.625
34.567
34.511
34.456
34.4
34.346
34.293
34.243
34.196
34.152
34.11
34.069
34.029
33.988
33.947
33.906
33.866
33.826
33.786
33.746
33.706
33.665
33.625
33.583
33.541
33.498
33.456
33.415
33.375
33.338
33.301
33.266
33.231
33.197
33.163
33.13
33.099
33.067
33.037
33.005
32.973
32.939
32.906
32.872
32.84
32.808
32.777
32.748
32.721
32.695
32.669
32.644
32.619
32.594
32.57
32.547
32.526
32.506
32.488
32.47
32.453
32.437
32.425
32.419
32.42
32.432
32.457
32.497
32.554
32.629
32.724
32.839
32.977
33.139
33.324
33.532
33.762
34.013
34.28
34.562
34.853
35.15
35.448
35.743
36.031
36.309
36.576
36.83
37.07
37.295
37.502
37.693
37.864
38.016
38.148
38.261
38.354
38.429
38.488
38.531
38.562
38.58
38.589
38.589
38.582
38.569
38.55
38.525
38.493
38.456
38.415
38.371
38.325
38.279
38.233
38.187
38.141
38.095
38.049
38.003
37.954
37.903
37.848
37.787
37.723
37.654
37.584
37.512
37.441
37.371
37.302
37.235
37.169
37.104
37.04
36.976
36.914
36.854
36.798
36.744
36.696
36.653
36.616
36.584
36.557
36.534
36.515
36.496
36.478
36.461
36.443
36.425
36.406
36.386
36.365
36.343
36.317
36.288
36.255
36.22
36.184
36.146
36.108
36.069
36.03
35.988
35.945
35.901
35.855
35.809
35.761
35.713
35.664
35.614
35.565
35.515
35.465
35.415
35.364
35.311
35.256
35.198
35.139
35.079
35.018
34.956
34.895
34.834
34.773
34.71
34.645
34.578
34.51
34.443
34.377
34.313
34.251
34.191
34.134
34.077
34.021
33.965
33.909
33.854
33.801
33.749
33.699
33.651
33.604
33.557
33.509
33.459
33.409
33.361
33.316
33.275
33.238
33.205
33.175
33.145
33.115
33.085
33.055
33.025
32.997
32.969
32.942
32.916
32.891
32.866
32.84
32.815
32.791
32.768
32.745
32.723
32.7
32.675
32.648
32.619
32.588
32.555
32.522
32.489
32.456
32.422
32.388
32.353
32.318
32.285
32.255
32.23
32.213
32.205
32.209
32.229
32.265
32.32
32.395
32.493
32.615
32.764
32.939
33.141
33.369
33.621
33.893
34.18
34.48
34.789
35.102
35.418
35.731
36.038
36.336
36.621
36.889
37.139
37.368
37.576
37.76
37.923
38.063
38.183
38.282
38.364
38.431
38.482
38.521
38.547
38.561
38.564
38.557
38.541
38.517
38.487
38.452
38.414
38.373
38.331
38.288
38.245
38.202
38.159
38.115
38.07
38.024
37.977
37.929
37.881
37.833
37.786
37.74
37.694
37.649
37.601
37.549
37.494
37.436
37.374
37.308
37.24
37.171
37.1
37.03
36.959
36.89
36.822
36.756
36.692
36.631
36.574
36.521
36.475
36.434
36.399
36.368
36.339
36.312
36.285
36.257
36.229
36.202
36.175
36.15
36.127
36.106
36.086
36.068
36.049
36.029
36.008
35.986
35.961
35.935
35.907
35.877
35.844
35.807
35.766
35.72
35.671
35.618
35.561
35.5
35.436
35.371
35.304
35.235
35.164
35.091
35.015
34.936
34.856
34.774
34.694
34.614
34.536
34.462
34.39
34.323
34.258
34.197
34.137
34.078
34.021
33.964
33.909
33.856
33.804
33.755
33.709
33.663
33.62
33.578
33.538
33.5
33.466
33.433
33.402
33.373
33.344
33.316
33.289
33.261
33.233
33.202
33.17
33.139
33.107
33.072
33.033
32.99
32.943
32.893
32.839
32.784
32.73
32.678
32.63
32.588
32.551
32.519
32.491
32.466
32.443
32.423
32.402
32.377
32.34
32.292
32.234
32.172
32.111
32.055
32.006
31.966
31.935
31.914
31.901
31.899
31.906
31.925
31.956
32.0
32.059
32.133
32.224
32.334
32.464
32.616
32.792
32.992
33.216
33.463
33.73
34.014
34.311
34.618
34.93
35.245
35.56
35.871
36.177
36.477
36.767
37.048
37.315
37.567
37.801
38.015
38.207
38.376
38.522
38.645
38.744
38.822
38.879
38.918
38.941
38.951
38.948
38.934
38.909
38.876
38.835
38.789
38.74
38.692
38.644
38.597
38.55
38.504
38.457
38.411
38.364
38.316
38.267
38.216
38.163
38.108
38.052
37.994
37.934
37.873
37.811
37.746
37.679
37.609
37.535
37.459
37.38
37.3
37.221
37.144
37.071
37.003
36.941
36.884
36.835
36.791
36.753
36.72
36.692
36.669
36.65
36.634
36.622
36.613
36.607
36.602
36.598
36.593
36.588
36.582
36.575
36.567
36.557
36.546
36.533
36.516
36.496
36.473
36.445
36.413
36.377
36.337
36.294
36.249
36.2
36.147
36.089
36.027
35.961
35.893
35.822
35.751
35.679
35.608
35.537
35.466
35.395
35.325
35.256
35.189
35.123
35.06
35.0
34.942
34.887
34.834
34.783
34.734
34.685
34.638
34.59
34.542
34.493
34.443
34.392
34.34
34.289
34.235
34.181
34.125
34.069
34.013
33.959
33.907
33.856
33.805
33.756
33.708
33.661
33.615
33.57
33.527
33.485
33.444
33.403
33.362
33.322
33.282
33.244
33.207
33.173
33.14
33.11
33.081
33.054
33.027
33.0
32.972
