Trial 3:3back
33.741
33.732
33.722
33.713
33.705
33.697
33.689
33.681
33.673
33.664
33.653
33.641
33.627
33.611
33.593
33.572
33.551
33.527
33.504
33.48
33.457
33.435
33.415
33.398
33.383
33.372
33.365
33.363
33.367
33.377
33.394
33.42
33.455
33.499
33.554
33.619
33.694
33.778
33.872
33.975
34.084
34.198
34.316
34.434
34.552
34.666
34.774
34.874
34.965
35.046
35.117
35.176
35.224
35.262
35.289
35.308
35.318
35.321
35.318
35.309
35.296
35.281
35.264
35.246
35.229
35.213
35.198
35.186
35.176
35.168
35.162
35.159
35.157
35.157
35.159
35.16
35.162
35.164
35.166
35.168
35.17
35.171
35.173
35.174
35.176
35.176
35.177
35.176
35.173
35.17
35.165
35.158
35.151
35.142
35.132
35.122
35.112
35.103
35.095
35.087
35.081
35.077
35.074
35.074
35.076
35.08
35.086
35.095
35.106
35.119
35.132
35.145
35.157
35.167
35.174
35.179
35.181
35.18
35.176
35.169
35.159
35.146
35.13
35.112
35.091
35.068
35.043
35.017
34.99
34.962
34.933
34.905
34.876
34.848
34.821
34.795
34.771
34.748
34.726
34.704
34.682
34.661
34.639
34.616
34.592
34.568
34.543
34.517
34.491
34.464
34.438
34.412
34.388
34.365
34.343
34.323
34.304
34.286
34.271
34.256
34.243
34.231
34.22
34.209
34.199
34.189
34.179
34.17
34.163
34.156
34.151
34.147
34.143
34.14
34.136
34.133
34.129
34.124
34.119
34.112
34.105
34.096
34.088
34.078
34.069
34.06
34.05
34.041
34.032
34.024
34.014
34.004
33.993
33.982
33.969
33.956
33.943
33.927
33.911
33.893
33.874
33.854
33.834
33.815
33.796
33.779
33.764
33.751
33.741
33.735
33.732
33.733
33.74
33.752
33.77
33.795
33.827
33.868
33.916
33.972
34.035
34.106
34.185
34.272
34.365
34.464
34.568
34.676
34.785
34.894
35.001
35.103
35.2
35.29
35.371
35.442
35.501
35.55
35.587
35.613
35.63
35.637
35.637
35.631
35.619
35.604
35.586
35.567
35.548
35.529
35.511
35.494
35.478
35.464
35.451
35.44
35.43
35.421
35.413
35.406
35.4
35.394
35.388
35.383
35.378
35.373
35.367
35.36
35.353
35.344
35.334
35.323
35.309
35.295
35.278
35.261
35.244
35.226
35.209
35.192
35.175
35.16
35.145
35.13
35.117
35.106
35.098
35.092
35.089
35.089
35.091
35.095
35.101
35.109
35.116
35.124
35.131
35.137
35.141
35.144
35.144
35.142
35.139
35.133
35.126
35.118
35.107
35.096
35.083
35.069
35.054
35.038
35.022
35.005
34.989
34.974
34.959
34.944
34.93
34.916
34.902
34.888
34.873
34.856
34.838
34.82
34.801
34.782
34.763
34.744
34.725
34.706
34.686
34.665
34.645
34.624
34.603
34.583
34.564
34.545
34.528
34.512
34.497
34.484
34.472
34.463
34.454
34.447
34.441
34.436
34.431
34.425
34.419
34.412
34.403
34.392
34.381
34.369
34.356
34.344
34.331
34.319
34.308
34.297
34.286
34.277
34.268
34.261
34.254
34.248
34.242
34.237
34.232
34.227
34.222
34.215
34.207
34.197
34.185
34.171
34.153
34.134
34.112
34.09
34.066
34.043
34.02
33.999
33.979
33.962
33.949
33.938
33.932
33.929
33.931
33.937
33.949
33.966
33.989
34.02
34.058
34.105
34.16
34.226
34.301
34.386
34.481
34.584
34.694
34.811
34.931
35.054
35.176
35.297
35.415
35.527
35.633
35.729
35.817
35.893
35.957
36.01
36.051
36.082
36.102
36.113
36.117
36.114
36.106
36.093
36.077
36.058
36.039
36.02
36.002
35.987
35.975
35.967
35.962
35.96
35.961
35.964
35.969
35.975
35.982
35.99
35.997
36.004
36.01
36.015
36.018
36.02
36.019
36.015
36.009
36.001
35.99
35.976
35.961
35.943
35.924
35.904
35.884
35.864
35.846
35.828
35.812
35.799
35.788
35.781
35.777
35.776
35.779
35.784
35.792
35.802
35.813
35.825
35.838
35.849
35.86
35.869
35.877
35.884
35.889
35.892
35.893
35.892
35.887
35.881
35.873
35.864
35.854
35.843
35.831
35.818
35.802
35.785
35.767
35.746
35.725
35.702
35.679
35.656
35.633
35.61
35.587
35.565
35.543
35.522
35.501
35.481
35.462
35.443
35.424
35.405
35.385
35.365
35.344
35.322
35.299
35.276
35.253
35.229
35.205
35.181
35.157
35.135
35.113
35.092
35.072
35.054
35.036
35.021
35.007
34.995
34.984
34.975
34.968
34.961
34.956
34.951
34.946
34.941
34.935
34.927
34.918
34.907
34.895
34.882
34.868
34.854
34.84
34.826
34.813
34.801
34.789
34.778
34.767
34.758
34.749
34.74
34.732
34.723
34.714
34.705
34.695
34.684
34.671
34.657
34.641
34.623
34.603
34.581
34.559
34.535
34.512
34.489
34.467
34.446
34.427
34.41
34.395
34.383
34.375
34.371
34.373
34.382
34.398
34.423
34.458
34.505
34.563
34.634
34.717
34.812
34.92
35.037
35.163
35.295
35.432
35.571
35.71
35.846
35.979
36.104
36.222
36.33
36.427
36.512
36.585
36.645
36.694
36.731
36.758
36.776
36.786
36.789
36.787
36.781
36.772
36.761
36.749
36.736
36.722
36.708
36.695
36.681
36.668
36.656
36.645
36.636
36.628
36.622
36.618
36.616
36.617
36.619
36.622
36.626
36.63
36.634
36.637
36.638
36.637
36.633
36.626
36.616
36.603
36.587
36.569
36.55
36.529
36.508
36.486
36.465
36.445
36.427
36.412
36.399
36.389
36.382
36.377
36.375
36.375
36.376
36.379
36.384
36.389
36.394
36.4
36.406
36.412
36.417
36.421
36.424
36.425
36.424
36.42
36.415
36.408
36.398
36.386
36.371
36.354
36.336
36.315
36.293
36.27
36.246
36.222
36.198
36.174
36.149
36.124
36.1
36.076
36.053
36.03
36.007
35.984
35.961
35.938
35.916
35.896
35.876
35.856
35.838
35.819
35.801
35.781
35.762
35.741
35.72
35.698
35.675
35.65
35.625
35.6
35.574
35.548
35.523
35.498
35.473
35.45
35.427
35.406
35.385
35.366
35.347
35.33
35.314
35.298
35.282
35.266
35.251
35.235
35.219
35.203
35.187
35.17
35.154
35.136
35.118
35.1
35.082
35.064
35.047
35.03
35.013
34.997
34.981
34.966
34.952
34.939
34.926
34.914
34.903
34.892
34.882
34.872
34.862
34.852
34.841
34.829
34.816
34.801
34.785
34.767
34.747
34.725
34.703
34.678
34.652
34.626
34.599
34.571
34.545
34.519
34.495
34.472
34.452
34.434
34.418
34.405
34.395
34.389
34.388
34.395
34.409
34.432
34.466
34.512
34.57
34.642
34.728
34.827
34.939
35.062
35.197
35.339
35.488
35.64
35.793
35.944
36.091
36.231
36.363
36.485
36.595
36.692
36.775
36.843
36.896
36.936
36.962
36.976
36.98
36.975
36.963
36.945
36.923
36.898
36.871
36.844
36.817
36.791
36.768
36.748
36.731
36.717
36.706
36.698
36.692
36.687
36.683
36.681
36.68
36.679
36.68
36.68
36.681
36.681
36.68
36.678
36.674
36.668
36.66
36.649
36.636
36.62
36.602
36.582
36.561
36.539
36.517
36.494
36.472
36.45
36.43
36.413
36.398
36.387
36.379
36.375
36.375
36.379
36.386
36.396
36.407
36.42
36.433
36.446
36.457
36.465
36.471
36.472
36.47
36.464
36.454
36.441
36.425
36.406
36.385
36.361
36.336
36.31
36.284
36.257
36.232
36.206
36.182
36.158
36.135
36.113
36.092
36.071
36.051
36.031
36.011
35.991
35.971
35.95
35.928
35.906
35.884
35.861
35.838
35.816
35.793
35.771
35.749
35.726
35.703
35.679
35.655
35.63
35.605
35.58
35.554
35.529
35.505
35.481
35.458
35.436
35.414
35.392
35.372
35.352
35.333
35.315
35.298
35.282
35.267
35.254
35.241
35.229
35.217
35.207
35.196
35.186
35.176
35.165
35.154
35.143
35.13
35.117
35.103
35.089
35.074
35.06
35.045
35.03
35.016
35.002
34.988
34.975
34.962
34.949
34.936
34.923
34.91
34.896
34.882
34.867
34.851
34.834
34.816
34.796
34.776
34.755
34.733
34.711
34.689
34.667
34.645
34.623
34.601
34.58
34.56
34.543
34.529
34.52
34.516
34.519
34.53
34.55
34.581
34.623
34.677
34.744
34.823
34.915
35.018
35.132
35.254
35.385
35.521
35.661
35.803
35.945
36.084
36.218
36.346
36.465
36.572
36.669
36.753
36.823
36.881
36.926
36.959
36.98
36.992
36.994
36.988
36.977
36.96
36.94
36.918
36.895
36.872
36.849
36.828
36.809
36.791
36.776
36.762
36.749
36.737
36.726
36.715
36.703
36.691
36.678
36.665
36.652
36.638
36.623
36.609
36.593
36.577
36.56
36.541
36.521
36.499
36.475
36.45
36.424
36.398
36.371
36.345
36.321
36.299
36.281
36.265
36.252
36.242
36.236
36.233
36.234
36.237
36.242
36.248
36.256
36.264
36.272
36.28
36.287
36.293
36.296
36.298
36.296
36.292
36.283
36.271
36.255
36.235
36.212
36.187
36.161
36.135
36.108
36.081
36.054
36.026
35.998
35.97
35.941
35.913
35.884
35.856
35.829
35.801
35.773
35.746
35.718
35.692
35.665
35.64
35.614
35.589
35.563
35.537
35.511
35.484
35.456
35.427
35.398
35.367
35.337
35.307
35.277
35.247
35.219
35.192
35.166
35.143
35.121
35.101
35.083
35.067
35.051
35.037
35.023
35.01
34.997
34.984
34.971
34.957
34.944
34.93
34.915
34.901
34.887
34.874
34.861
34.849
34.837
34.827
34.817
34.808
34.8
34.791
34.782
34.773
34.762
34.75
34.737
34.723
34.706
34.688
34.667
34.646
34.622
34.597
34.57
34.541
34.511
34.481
34.45
34.42
34.391
34.364
34.338
34.315
34.296
34.281
34.271
34.267
34.27
34.279
34.297
34.323
34.36
34.407
34.465
34.534
34.614
34.705
34.805
34.915
35.033
35.157
35.286
35.418
35.551
35.683
35.811
35.935
36.051
36.159
36.258
36.345
36.421
36.485
36.537
36.577
36.607
36.626
36.635
36.635
36.628
36.615
36.597
36.577
36.554
36.53
36.506
36.483
36.46
36.439
36.419
36.4
36.383
36.366
36.351
36.337
36.323
36.311
36.3
36.289
36.279
36.269
36.26
36.251
36.242
36.231
36.219
36.204
36.186
36.167
36.145
36.121
36.096
36.07
36.043
36.016
35.991
35.967
35.946
35.927
35.911
35.898
35.888
35.881
35.877
35.877
35.879
35.884
35.892
35.901
35.912
35.924
35.936
35.947
35.958
35.967
35.973
35.975
35.975
35.97
35.962
35.95
35.936
35.919
35.9
35.879
35.857
35.834
35.811
35.787
35.764
35.742
35.719
35.697
35.675
35.653
35.631
35.609
35.587
35.566
35.544
35.523
35.501
35.478
35.455
35.431
35.406
35.381
35.355
35.33
35.304
35.278
35.252
35.226
35.201
35.175
35.149
35.123
35.098
35.075
35.052
35.032
35.014
34.997
34.982
34.969
34.957
34.946
34.937
34.928
34.92
34.912
34.905
34.897
34.889
34.881
34.873
34.866
34.859
34.853
34.847
34.84
34.833
34.825
34.816
34.807
34.798
34.789
34.781
34.772
34.764
34.757
34.749
34.742
34.734
34.726
34.717
34.707
34.696
34.682
34.668
34.651
34.632
34.612
34.589
34.563
34.536
34.506
34.475
34.443
34.41
34.377
34.344
34.311
34.277
34.243
34.209
34.174
34.14
34.108
34.079
34.054
34.035
34.024
34.023
34.036
34.063
34.106
34.166
34.245
34.342
34.456
34.587
34.731
34.888
35.053
35.224
35.398
35.57
35.737
35.897
36.045
36.181
36.302
36.406
36.494
36.564
36.619
36.657
36.682
36.693
36.694
36.686
36.671
36.65
36.624
36.596
36.566
36.536
36.508
36.482
36.459
36.439
36.424
36.412
36.405
36.401
36.401
36.404
36.409
36.415
36.422
36.429
36.434
36.439
36.442
36.444
36.443
36.441
36.435
36.427
36.415
36.399
36.379
36.356
36.33
36.301
36.272
36.242
36.213
36.186
36.161
36.14
36.123
36.111
36.103
36.1
36.102
36.108
36.119
36.134
36.152
36.172
36.194
36.216
36.237
36.257
36.274
36.287
36.297
36.303
36.305
36.303
36.296
36.286
36.271
36.253
36.233
36.209
36.184
36.157
36.13
36.103
36.076
36.05
36.025
36.001
35.978
35.956
35.934
35.913
35.891
35.87
35.848
35.826
35.804
35.781
35.758
35.734
35.711
35.687
35.662
35.637
35.612
35.586
35.561
35.535
35.509
35.484
35.458
35.432
35.405
35.378
35.35
35.322
35.294
35.267
35.24
35.214
35.188
35.164
35.141
35.118
35.096
35.074
35.052
35.03
35.008
34.986
34.965
34.943
34.921
34.899
34.876
34.854
34.831
34.808
34.785
34.762
34.74
34.718
34.697
34.675
34.654
34.633
34.613
34.592
34.573
34.554
34.535
34.516
34.497
34.478
34.459
34.439
34.419
34.398
34.376
34.355
34.333
34.312
34.291
34.269
34.247
34.225
34.202
34.18
34.158
34.137
34.118
34.099
34.083
34.068
34.054
34.043
34.034
34.028
34.026
34.028
34.036
34.052
34.076
34.111
34.158
34.217
34.29
34.378
34.481
34.598
34.729
34.872
35.025
35.185
35.35
35.518
35.685
35.849
36.008
36.159
36.3
36.43
36.546
36.649
36.737
36.81
36.867
36.91
36.94
36.957
36.963
36.959
36.947
36.927
36.902
36.872
36.838
36.803
36.766
36.729
36.692
36.657
36.623
36.591
36.561
36.535
36.511
36.491
36.476
36.463
36.454
36.447
36.443
36.44
36.437
36.434
36.429
36.424
36.417
36.407
36.396
36.382
36.366
36.349
36.33
36.311
36.292
36.272
36.252
36.234
36.217
36.201
36.187
36.176
36.167
36.162
36.16
36.161
36.165
36.172
36.182
36.193
36.205
36.218
36.23
36.24
36.248
36.253
36.255
36.252
36.246
36.237
36.225
36.21
36.192
36.173
36.153
36.131
36.108
36.085
36.061
36.037
36.013
35.989
35.965
35.94
35.916
35.891
35.867
35.843
35.82
35.797
35.773
35.75
35.726
35.703
35.679
35.656
35.634
35.612
35.59
35.569
35.549
35.529
35.509
35.489
35.469
35.448
35.426
35.405
35.382
35.36
35.338
35.316
35.294
35.273
35.253
35.233
35.214
35.195
35.176
35.158
35.141
35.124
35.107
35.091
35.075
35.059
35.043
35.026
35.009
34.993
34.977
34.961
34.945
34.929
34.913
34.897
34.88
34.863
34.844
34.826
34.806
34.786
34.765
34.745
34.724
34.704
34.684
34.665
34.646
34.627
34.608
34.588
34.569
34.549
34.529
34.507
34.484
34.46
34.435
34.408
34.379
34.351
34.321
34.292
34.264
34.236
34.21
34.185
34.162
34.141
34.122
34.107
34.095
34.088
34.088
34.095
34.113
34.142
34.184
34.239
34.308
34.392
34.489
34.601
34.725
34.86
35.006
35.159
35.318
35.48
35.644
35.806
35.965
36.118
36.262
36.397
36.519
36.627
36.721
36.799
36.862
36.911
36.946
36.967
36.978
36.979
36.972
36.959
36.941
36.919
36.894
36.868
36.841
36.814
36.787
36.76
36.734
36.708
36.684
36.661
36.64
36.62
36.603
36.588
36.576
36.565
36.557
36.55
36.544
36.538
36.531
36.524
36.516
36.506
36.495
36.483
36.469
36.455
36.44
36.426
36.412
36.398
36.386
36.376
36.368
36.364
36.363
36.364
36.369
36.376
36.386
36.398
36.412
36.429
36.447
36.466
36.485
36.504
36.522
36.538
36.551
36.561
36.567
36.57
36.568
36.562
36.551
36.538
36.521
36.501
36.48
36.456
36.431
36.406
36.38
36.354
36.328
36.303
36.279
36.255
36.231
36.207
36.181
36.155
36.128
36.099
36.07
36.039
36.008
35.975
35.942
35.909
35.876
35.844
35.813
35.781
35.75
35.718
35.686
35.654
35.621
35.588
35.556
35.524
35.492
35.461
35.429
35.399
35.368
35.339
35.311
35.284
35.259
35.235
35.213
35.192
35.172
35.152
35.133
35.114
35.097
35.08
35.065
35.05
35.037
35.023
35.01
34.997
34.984
34.97
34.956
34.942
34.928
34.914
34.9
34.887
34.874
34.861
34.847
34.833
34.819
34.803
34.786
34.768
34.748
34.728
34.705
34.681
34.656
34.63
34.602
34.574
34.547
34.52
34.494
34.47
34.449
34.43
34.415
34.404
34.398
34.397
34.402
34.414
34.434
34.464
34.503
34.555
34.619
34.697
34.788
34.893
35.012
35.144
35.288
35.442
35.603
35.769
35.938
36.106
36.271
36.43
36.58
36.72
36.849
36.965
37.066
37.153
37.226
37.284
37.328
37.359
37.378
37.386
37.384
37.373
37.356
37.332
37.303
37.271
37.237
37.201
37.165
37.128
37.093
37.058
37.025
36.993
36.963
36.934
36.907
36.881
36.857
36.835
36.813
36.792
36.771
36.751
36.731
36.711
36.69
36.668
36.645
36.622
36.597
36.573
36.549
36.525
36.501
36.479
36.458
36.438
36.421
36.407
36.397
36.39
36.387
36.388
36.392
36.399
36.408
36.419
36.431
36.444
36.457
36.469
36.48
36.489
36.496
36.501
36.503
36.504
36.502
36.497
36.49
36.482
36.471
36.458
36.444
36.429
36.413
36.395
36.377
36.358
36.338
36.316
36.293
36.268
36.242
36.215
36.185
36.155
36.122
36.088
36.052
36.016
35.979
35.94
35.901
35.861
35.821
35.779
35.737
35.696
35.654
35.614
35.575
35.538
35.502
35.469
35.438
35.41
35.383
35.359
35.336
35.314
35.292
35.271
35.249
35.227
35.204
35.181
35.159
35.136
35.115
35.093
35.073
35.054
35.036
35.02
35.004
34.99
34.975
34.961
34.946
34.932
34.917
34.901
34.883
34.865
34.844
34.821
34.796
34.768
34.738
34.706
34.673
34.64
34.607
34.575
34.544
34.516
34.489
34.466
34.445
34.429
34.415
34.407
34.405
34.409
34.42
34.439
34.467
34.505
34.554
34.614
34.687
34.773
34.871
34.981
35.102
35.235
35.377
35.526
35.682
35.842
36.003
36.164
36.32
36.469
36.61
36.74
36.857
36.961
37.05
37.126
37.187
37.235
37.27
37.293
37.306
37.309
37.303
37.29
37.27
37.245
37.216
37.184
37.151
37.116
37.082
37.048
37.015
36.983
36.953
36.925
36.899
36.875
36.854
36.835
36.818
36.804
36.791
36.78
36.77
36.759
36.748
36.735
36.721
36.705
36.687
36.667
36.645
36.622
36.598
36.574
36.55
36.527
36.505
36.485
36.468
36.455
36.444
36.438
36.435
36.437
36.442
36.45
36.461
36.474
36.489
36.505
36.52
36.535
36.548
36.56
36.568
36.572
36.572
36.568
36.56
36.547
36.529
36.508
36.483
36.457
36.428
36.398
36.368
36.337
36.307
36.277
36.247
36.217
36.186
36.156
36.125
36.094
36.064
36.033
36.002
35.97
35.938
35.905
35.871
35.836
35.8
35.763
35.725
35.688
35.65
35.613
35.576
35.539
35.504
35.47
35.437
35.405
35.374
35.344
35.314
35.285
35.256
35.228
35.202
35.176
35.15
35.125
35.1
35.075
35.05
35.026
35.002
34.978
34.956
34.934
34.913
34.893
34.874
34.856
34.838
34.822
34.806
34.791
34.776
34.761
34.746
34.731
34.715
34.698
34.681
34.663
34.643
34.623
34.602
34.58
34.558
34.536
34.512
34.488
34.463
34.438
34.413
34.387
34.363
34.338
34.315
34.294
34.275
34.26
34.249
34.246
34.25
34.264
34.29
34.329
34.383
34.452
34.538
34.641
34.761
34.897
35.047
35.21
35.383
35.564
35.749
35.937
36.124
36.307
36.482
36.648
36.802
36.943
37.069
37.179
37.273
37.351
37.413
37.459
37.492
37.512
37.52
37.519
37.509
37.493
37.47
37.444
37.415
37.384
37.353
37.322
37.293
37.264
37.237
37.211
37.187
37.164
37.143
37.123
37.106
37.091
37.079
37.068
37.06
37.053
37.048
37.044
37.039
37.033
37.025
37.015
37.003
36.987
36.969
36.948
36.925
36.9
36.875
36.849
36.823
36.799
36.777
36.757
36.74
36.724
36.712
36.702
36.695
36.691
36.69
36.69
36.693
36.696
36.699
36.703
36.707
36.71
36.712
36.712
36.71
36.705
36.698
36.687
36.673
36.655
36.633
36.609
36.581
36.551
36.52
36.487
36.453
36.418
36.383
36.347
36.313
36.279
36.245
36.212
36.178
36.143
36.108
36.072
36.035
35.998
35.961
35.924
35.887
35.851
35.815
35.779
35.745
35.711
35.678
35.647
35.615
35.584
35.553
35.522
35.489
35.457
35.423
35.389
35.354
35.318
35.282
35.246
35.211
35.178
35.147
35.117
35.089
35.062
35.036
35.012
34.989
34.966
34.944
34.922
34.9
34.879
34.857
34.835
34.814
34.793
34.772
34.752
34.732
34.712
34.693
34.675
34.657
34.638
34.618
34.598
34.577
34.555
34.532
34.508
34.483
34.457
34.43
34.403
34.375
34.347
34.318
34.29
34.262
34.235
34.209
34.184
34.16
34.138
34.119
34.104
34.094
34.09
34.095
34.109
34.133
34.169
34.219
34.284
34.363
34.459
34.57
34.698
34.839
34.994
35.161
35.338
35.522
35.71
35.899
36.086
36.268
36.441
36.602
36.749
36.88
36.993
37.088
37.164
37.223
37.264
37.29
37.302
37.302
37.291
37.272
37.246
37.214
37.178
37.14
37.1
37.06
37.021
36.984
36.95
36.919
36.892
36.869
36.849
36.833
36.82
36.809
36.801
36.795
36.791
36.787
36.784
36.781
36.777
36.773
36.767
36.758
36.747
36.734
36.718
36.699
36.678
36.656
36.631
36.605
36.578
36.552
