Trial 3:3back
33.209
33.186
33.162
33.139
33.116
33.094
33.071
33.049
33.025
33.002
32.978
32.956
32.934
32.913
32.894
32.875
32.858
32.843
32.829
32.816
32.807
32.804
32.809
32.826
32.857
32.906
32.974
33.064
33.178
33.316
33.479
33.667
33.879
34.112
34.362
34.626
34.899
35.178
35.46
35.739
36.014
36.28
36.536
36.779
37.006
37.218
37.41
37.584
37.738
37.872
37.989
38.089
38.174
38.246
38.306
38.354
38.391
38.418
38.434
38.441
38.441
38.435
38.423
38.408
38.39
38.369
38.347
38.323
38.298
38.274
38.249
38.223
38.197
38.171
38.145
38.119
38.095
38.072
38.049
38.025
37.996
37.962
37.92
37.872
37.816
37.754
37.686
37.615
37.541
37.465
37.388
37.31
37.231
37.153
37.076
37.001
36.927
36.857
36.79
36.726
36.666
36.608
36.555
36.506
36.461
36.421
36.385
36.351
36.318
36.287
36.254
36.221
36.187
36.153
36.118
36.083
36.05
36.017
35.984
35.951
35.918
35.883
35.847
35.81
35.772
35.732
35.69
35.646
35.601
35.553
35.504
35.454
35.401
35.346
35.29
35.232
35.174
35.116
35.059
35.004
34.952
34.901
34.854
34.81
34.77
34.73
34.692
34.654
34.615
34.574
34.532
34.489
34.445
34.402
34.359
34.317
34.274
34.232
34.191
34.152
34.115
34.081
34.051
34.025
34.002
33.98
33.958
33.937
33.915
33.891
33.867
33.843
33.818
33.795
33.772
33.749
33.726
33.703
33.678
33.654
33.63
33.608
33.586
33.566
33.546
33.526
33.504
33.479
33.451
33.422
33.393
33.364
33.337
33.312
33.289
33.268
33.247
33.226
33.204
33.18
33.156
33.132
33.109
33.088
33.068
33.049
33.032
33.015
32.999
32.985
32.971
32.957
32.943
32.928
32.913
32.897
32.881
32.865
32.847
32.829
32.81
32.79
32.768
32.746
32.724
32.701
32.679
32.656
32.635
32.616
32.597
32.58
32.563
32.546
32.528
32.509
32.488
32.467
32.446
32.426
32.409
32.396
32.388
32.388
32.399
32.421
32.459
32.513
32.588
32.684
32.804
32.948
33.116
33.307
33.518
33.747
33.99
34.244
34.505
34.769
35.033
35.291
35.54
35.778
36.002
36.21
36.402
36.577
36.734
36.876
37.0
37.109
37.204
37.286
37.355
37.413
37.461
37.498
37.527
37.546
37.558
37.563
37.563
37.556
37.545
37.529
37.512
37.494
37.474
37.455
37.436
37.418
37.4
37.384
37.369
37.356
37.343
37.33
37.316
37.3
37.278
37.247
37.206
37.155
37.095
37.028
36.955
36.878
36.798
36.717
36.638
36.562
36.491
36.425
36.366
36.312
36.263
36.219
36.179
36.143
36.11
36.081
36.054
36.03
36.006
35.983
35.959
35.935
35.91
35.886
35.86
35.835
35.808
35.779
35.75
35.72
35.69
35.659
35.629
35.599
35.57
35.54
35.508
35.474
35.438
35.399
35.36
35.319
35.277
35.235
35.191
35.145
35.098
35.05
35.001
34.953
34.904
34.857
34.811
34.767
34.724
34.683
34.643
34.604
34.564
34.523
34.483
34.441
34.398
34.354
34.31
34.265
34.22
34.176
34.133
34.09
34.05
34.011
33.974
33.94
33.906
33.875
33.845
33.817
33.79
33.764
33.741
33.72
33.701
33.684
33.668
33.653
33.637
33.621
33.603
33.585
33.566
33.546
33.526
33.504
33.481
33.456
33.429
33.402
33.373
33.343
33.313
33.284
33.256
33.23
33.206
33.185
33.165
33.148
33.132
33.117
33.102
33.083
33.061
33.037
33.011
32.984
32.958
32.933
32.911
32.89
32.873
32.858
32.845
32.835
32.827
32.819
32.812
32.804
32.796
32.786
32.771
32.754
32.732
32.708
32.682
32.655
32.627
32.6
32.574
32.548
32.524
32.501
32.48
32.46
32.442
32.426
32.413
32.402
32.393
32.384
32.375
32.366
32.356
32.344
32.33
32.314
32.297
32.278
32.257
32.235
32.214
32.194
32.177
32.165
32.16
32.164
32.181
32.214
32.266
32.338
32.432
32.549
32.687
32.844
33.018
33.206
33.407
33.616
33.831
34.05
34.268
34.483
34.693
34.893
35.081
35.256
35.417
35.566
35.701
35.824
35.935
36.032
36.117
36.19
36.253
36.306
36.35
36.386
36.415
36.438
36.456
36.469
36.478
36.485
36.49
36.492
36.492
36.488
36.48
36.47
36.456
36.442
36.427
36.412
36.397
36.382
36.365
36.347
36.328
36.308
36.287
36.265
36.242
36.216
36.188
36.157
36.122
36.083
36.04
35.996
35.949
35.902
35.855
35.809
35.764
35.723
35.684
35.647
35.614
35.584
35.556
35.531
35.509
35.49
35.474
35.461
35.45
35.44
35.432
35.423
35.414
35.403
35.392
35.38
35.366
35.352
35.335
35.316
35.295
35.271
35.246
35.219
35.191
35.162
35.132
35.102
35.07
35.037
35.002
34.966
34.928
34.891
34.853
34.816
34.779
34.743
34.708
34.674
34.641
34.609
34.578
34.545
34.509
34.471
34.43
34.386
34.341
34.295
34.25
34.204
34.161
34.119
34.081
34.047
34.016
33.987
33.96
33.936
33.912
33.891
33.87
33.85
33.831
33.812
33.794
33.775
33.755
33.735
33.712
33.689
33.665
33.641
33.618
33.596
33.575
33.554
33.533
33.513
33.493
33.475
33.457
33.439
33.422
33.405
33.387
33.368
33.347
33.325
33.301
33.276
33.251
33.227
33.204
33.183
33.163
33.145
33.128
33.113
33.1
33.088
33.076
33.064
33.051
33.037
33.021
33.003
32.982
32.96
32.936
32.913
32.891
32.871
32.854
32.838
32.824
32.812
32.8
32.788
32.778
32.768
32.759
32.751
32.744
32.737
32.729
32.72
32.71
32.698
32.683
32.666
32.648
32.63
32.612
32.594
32.577
32.56
32.542
32.524
32.507
32.491
32.476
32.464
32.455
32.45
32.449
32.452
32.462
32.479
32.506
32.545
32.6
32.671
32.759
32.867
32.993
33.138
33.299
33.476
33.667
33.869
34.081
34.3
34.521
34.743
34.962
35.176
35.383
35.581
35.768
35.941
36.1
36.245
36.375
36.492
36.594
36.684
36.763
36.832
36.892
36.943
36.986
37.023
37.054
37.079
37.099
37.115
37.127
37.135
37.142
37.146
37.15
37.154
37.158
37.161
37.164
37.166
37.168
37.17
37.171
37.171
37.17
37.168
37.163
37.157
37.147
37.134
37.118
37.098
37.074
37.046
37.015
36.982
36.948
36.915
36.882
36.85
36.816
36.781
36.743
36.703
36.662
36.619
36.575
36.53
36.486
36.442
36.399
36.357
36.318
36.282
36.249
36.22
36.193
36.169
36.146
36.125
36.106
36.085
36.065
36.043
36.02
35.996
35.972
35.948
35.925
35.903
35.882
35.861
35.839
35.817
35.793
35.767
35.739
35.709
35.677
35.643
35.606
35.569
35.531
35.493
35.455
35.417
35.378
35.337
35.296
35.253
35.21
35.168
35.127
35.088
35.05
35.012
34.975
34.938
34.901
34.864
34.827
34.79
34.752
34.713
34.672
34.629
34.586
34.543
34.501
34.461
34.426
34.394
34.365
34.339
34.313
34.287
34.262
34.237
34.212
34.189
34.166
34.146
34.126
34.109
34.091
34.075
34.058
34.041
34.023
34.004
33.984
33.961
33.936
33.909
33.88
33.85
33.819
33.788
33.758
33.729
33.703
33.679
33.658
33.638
33.62
33.603
33.587
33.572
33.557
33.544
33.529
33.513
33.496
33.476
33.455
33.433
33.41
33.387
33.364
33.342
33.32
33.299
33.28
33.26
33.242
33.224
33.207
33.19
33.173
33.157
33.141
33.124
33.107
33.091
33.074
33.058
33.042
33.025
33.008
32.989
32.97
32.949
32.929
32.908
32.888
32.87
32.853
32.839
32.826
32.815
32.804
32.794
32.784
32.776
32.769
32.766
32.768
32.779
32.8
32.835
32.887
32.956
33.046
33.155
33.285
33.434
33.602
33.785
33.982
34.192
34.409
34.632
34.855
35.077
35.294
35.504
35.705
35.896
36.075
36.241
36.393
36.53
36.653
36.762
36.859
36.945
37.02
37.085
37.14
37.185
37.221
37.25
37.273
37.291
37.304
37.314
37.321
37.326
37.33
37.334
37.339
37.344
37.35
37.356
37.361
37.367
37.372
37.376
37.381
37.384
37.387
37.388
37.387
37.384
37.378
37.368
37.354
37.336
37.313
37.286
37.254
37.218
37.178
37.134
37.085
37.034
36.981
36.927
36.875
36.825
36.777
36.732
36.688
36.647
36.608
36.571
36.536
36.503
36.472
36.442
36.413
36.386
36.361
36.338
36.316
36.296
36.275
36.254
36.231
36.208
36.184
36.161
36.139
36.119
36.098
36.078
36.057
36.035
36.011
35.986
35.96
35.932
35.903
35.871
35.838
35.803
35.766
35.727
35.687
35.646
35.604
35.562
35.519
35.476
35.431
35.387
35.342
35.297
35.252
35.207
35.163
35.118
35.072
35.025
34.98
34.937
34.896
34.859
34.824
34.791
34.76
34.73
34.699
34.668
34.636
34.604
34.571
34.539
34.508
34.479
34.451
34.425
34.399
34.373
34.348
34.324
34.302
34.282
34.263
34.245
34.227
34.21
34.193
34.176
34.159
34.141
34.123
34.104
34.084
34.062
34.037
34.009
33.979
33.947
33.914
33.882
33.85
33.82
33.791
33.764
33.739
33.715
33.692
33.67
33.648
33.627
33.607
33.588
33.569
33.551
33.532
33.514
33.497
33.483
33.471
33.462
33.454
33.447
33.439
33.431
33.422
33.411
33.398
33.383
33.364
33.343
33.32
33.294
33.267
33.24
33.212
33.184
33.156
33.129
33.102
33.077
33.054
33.033
33.014
32.996
32.981
32.968
32.956
32.944
32.934
32.925
32.916
32.908
32.901
32.893
32.885
32.877
32.87
32.865
32.863
32.866
32.875
32.892
32.919
32.959
33.016
33.09
33.183
33.296
33.429
33.581
33.751
33.938
34.138
34.348
34.565
34.785
35.007
35.226
35.442
35.651
35.852
36.043
36.222
36.388
36.538
36.672
36.792
36.897
36.99
37.071
37.139
37.196
37.243
37.28
37.311
37.336
37.357
37.374
37.388
37.4
37.41
37.419
37.427
37.436
37.446
37.457
37.468
37.477
37.485
37.49
37.494
37.497
37.497
37.495
37.49
37.482
37.471
37.457
37.442
37.424
37.404
37.38
37.354
37.323
37.289
37.252
37.214
37.175
37.135
37.094
37.051
37.007
36.961
36.912
36.863
36.815
36.769
36.725
36.684
36.645
36.61
36.579
36.551
36.526
36.505
36.487
36.471
36.457
36.443
36.429
36.414
36.399
36.382
36.366
36.348
36.329
36.309
36.287
36.264
36.239
36.214
36.188
36.161
36.134
36.105
36.075
36.044
36.012
35.979
35.944
35.91
35.875
35.839
35.801
35.762
35.722
35.68
35.638
35.596
35.553
35.509
35.465
35.421
35.376
35.33
35.283
35.237
35.191
35.147
35.103
35.06
35.018
34.977
34.938
34.902
34.868
34.836
34.807
34.779
34.753
34.728
34.703
34.681
34.659
34.638
34.618
34.599
34.58
34.562
34.543
34.523
34.502
34.48
34.457
34.433
34.407
34.379
34.35
34.319
34.288
34.257
34.225
34.194
34.163
34.134
34.106
34.081
34.058
34.037
34.017
33.999
33.981
33.965
33.949
33.933
33.916
33.899
33.881
33.863
33.846
33.829
33.812
33.796
33.785
33.782
33.788
33.801
33.818
33.838
33.857
33.872
33.88
33.88
33.869
33.846
33.813
33.771
33.723
33.671
33.617
33.563
33.511
33.46
33.413
33.369
33.33
33.296
33.269
33.246
33.228
33.212
33.198
33.186
33.174
33.162
33.151
33.141
33.131
33.121
33.11
33.097
33.082
33.065
33.048
33.031
33.015
33.003
32.997
32.998
33.008
33.027
33.06
33.107
33.173
33.257
33.363
33.489
33.634
33.798
33.977
34.171
34.379
34.599
34.826
35.057
35.288
35.513
35.731
35.936
36.129
36.308
36.472
36.62
36.752
36.869
36.971
37.058
37.132
37.193
37.242
37.283
37.315
37.341
37.361
37.378
37.393
37.405
37.416
37.426
37.434
37.442
37.449
37.455
37.461
37.466
37.47
37.474
37.478
37.482
37.485
37.487
37.488
37.488
37.485
37.481
37.475
37.466
37.455
37.439
37.418
37.391
37.358
37.32
37.276
37.228
37.176
37.122
37.066
37.009
36.953
36.897
36.845
36.795
36.747
36.703
36.662
36.626
36.596
36.57
36.551
36.537
36.528
36.522
36.519
36.516
36.514
36.51
36.506
36.499
36.492
36.482
36.471
36.459
36.444
36.427
36.41
36.391
36.37
36.349
36.325
36.301
36.276
36.249
36.22
36.189
36.155
36.119
36.081
36.041
36.0
35.957
35.914
35.869
35.824
35.778
35.732
35.687
35.643
35.6
35.558
35.518
35.479
35.439
35.401
35.363
35.327
35.288
35.244
35.194
35.139
35.08
35.021
34.963
34.909
34.861
34.819
34.783
34.752
34.727
34.706
34.688
34.674
34.662
34.653
34.646
34.64
34.634
34.626
34.617
34.606
34.593
34.578
34.563
34.546
34.529
34.511
34.491
34.469
34.446
34.422
34.397
34.372
34.347
34.322
34.298
34.276
34.254
34.233
34.214
34.194
34.175
34.156
34.137
34.117
34.097
34.077
34.057
34.037
34.018
33.999
33.981
33.964
33.947
33.931
33.916
33.902
33.887
33.872
33.856
33.838
33.818
33.796
33.772
33.746
33.721
33.695
33.672
33.65
33.63
33.612
33.596
33.581
33.567
33.553
33.539
33.525
33.511
33.497
33.483
33.469
33.455
33.441
33.425
33.409
33.394
33.379
33.364
33.35
33.337
33.325
33.313
33.303
33.296
33.292
33.294
33.303
33.319
33.346
33.386
33.441
33.513
33.603
33.712
33.842
33.99
34.155
34.335
34.528
34.732
34.945
35.162
35.383
35.611
35.845
36.083
36.32
36.551
36.77
36.972
37.154
37.311
37.443
37.55
37.632
37.691
37.731
37.753
37.761
37.757
37.745
37.727
37.706
37.685
37.663
37.644
37.627
37.613
37.602
37.593
37.586
37.582
37.579
37.576
37.574
37.571
37.567
37.56
37.55
37.536
37.517
37.493
37.463
37.427
37.385
37.338
37.285
37.229
37.171
37.112
37.054
36.996
36.941
36.888
36.84
36.796
36.758
36.725
36.697
36.673
36.65
36.63
36.61
36.592
36.577
36.564
36.554
36.546
36.539
36.532
36.525
36.517
36.508
36.498
36.486
36.473
36.458
36.441
36.424
36.407
36.389
36.371
36.352
36.33
36.307
36.282
36.256
36.231
36.206
36.18
36.154
36.126
36.096
36.063
36.028
35.99
35.951
35.909
35.866
35.82
35.772
35.723
35.675
35.627
35.582
35.538
35.496
35.454
35.414
35.375
35.338
35.302
35.268
35.235
35.204
35.172
35.138
35.101
35.062
35.021
34.979
34.937
34.897
34.859
34.824
34.79
34.758
34.728
34.702
34.678
34.658
34.64
34.623
34.608
34.593
34.579
34.565
34.551
34.536
34.52
34.503
34.484
34.464
34.442
34.418
34.392
34.366
34.34
34.314
34.289
34.266
34.245
34.224
34.205
34.186
34.167
34.148
34.13
34.112
34.093
34.073
34.053
34.031
34.008
33.985
33.962
33.939
33.919
33.9
33.882
33.864
33.847
33.83
33.813
33.796
33.779
33.763
33.746
33.729
33.712
33.694
33.675
33.657
33.639
33.622
33.605
33.59
33.574
33.558
33.543
33.529
33.514
33.5
33.484
33.467
33.448
33.428
33.407
33.384
33.362
33.341
33.324
33.314
33.312
33.323
33.349
33.393
33.457
33.543
33.651
33.782
33.934
34.108
34.302
34.511
34.735
34.97
35.213
35.462
35.712
35.961
36.205
36.442
36.669
36.885
37.089
37.281
37.458
37.622
37.77
37.903
38.021
38.124
38.213
38.29
38.356
38.411
38.458
38.498
38.531
38.56
38.584
38.603
38.619
38.633
38.645
38.655
38.665
38.675
38.684
38.692
38.7
38.707
38.715
38.722
38.728
38.732
38.733
38.728
38.719
38.705
38.686
38.662
38.632
38.598
38.557
38.511
38.461
38.406
38.349
38.289
38.227
38.164
38.101
38.038
37.977
37.918
37.861
37.807
37.754
37.705
37.657
37.612
37.57
37.532
37.495
37.461
37.429
37.399
37.37
37.342
37.315
37.289
37.263
37.238
37.212
37.185
37.159
37.134
37.108
37.084
37.06
37.035
37.009
36.983
36.956
36.927
36.897
36.865
36.83
36.792
36.751
36.708
36.663
36.616
36.568
36.519
36.468
36.417
36.365
36.314
36.264
36.217
36.171
36.126
36.083
36.039
35.996
35.953
35.91
35.867
35.823
35.778
35.735
35.692
35.653
35.615
35.58
35.546
35.513
35.48
35.448
35.416
35.384
35.353
35.323
35.295
35.266
35.238
35.208
35.177
35.144
35.11
35.075
35.037
34.998
34.957
34.915
34.874
34.835
34.799
34.766
34.735
34.707
34.681
34.655
34.631
34.607
34.583
34.558
34.533
34.508
34.481
34.454
34.426
34.399
34.371
34.343
34.315
34.289
34.263
34.238
34.215
34.195
34.176
34.16
34.145
34.131
34.118
34.105
34.092
34.079
34.065
34.047
34.027
34.004
33.978
33.95
33.92
33.89
33.858
33.827
33.796
33.764
33.731
33.7
33.669
33.64
33.614
33.59
33.568
33.548
33.531
33.515
33.502
33.493
33.491
33.497
33.514
33.545
33.592
33.657
33.742
33.85
33.98
34.133
34.31
34.507
34.723
34.953
35.193
35.44
35.692
35.945
36.196
36.443
36.681
36.909
37.125
37.328
37.518
37.693
37.856
38.004
38.138
38.258
38.363
38.455
38.534
38.601
38.657
38.701
38.735
38.761
38.78
38.792
38.799
38.803
38.801
38.796
38.788
38.777
38.765
38.753
38.741
38.729
38.718
38.705
38.693
38.679
38.666
38.652
38.637
38.62
38.6
38.576
38.549
38.517
38.482
38.442
38.397
38.347
38.292
38.23
38.164
38.094
38.022
37.948
37.873
37.799
37.726
37.655
37.588
37.525
37.467
37.415
37.367
37.325
37.287
37.254
37.223
37.194
37.166
37.139
37.111
37.083
37.055
37.026
36.998
36.97
36.943
36.916
36.889
36.863
36.836
36.808
36.779
36.748
36.714
36.679
36.642
36.604
36.564
36.523
36.477
36.427
36.372
36.313
36.253
36.191
36.129
36.068
36.009
35.953
35.899
35.848
35.8
35.756
35.716
35.678
35.642
35.606
35.572
35.538
35.506
35.476
35.447
35.42
35.393
35.367
35.34
35.312
35.282
35.251
35.217
35.182
35.145
35.107
35.07
35.033
34.997
34.962
34.928
34.896
34.864
34.833
34.803
34.774
34.745
34.715
34.685
34.654
34.622
34.59
34.559
34.529
34.501
34.474
34.447
34.415
34.378
34.336
34.291
34.245
34.2
34.157
34.118
34.083
34.054
34.031
34.014
34.003
34.0
34.002
34.008
34.017
34.026
34.033
34.037
34.039
34.037
34.033
34.023
34.009
33.989
33.964
33.935
33.903
33.87
33.838
33.808
33.781
33.757
33.736
33.717
33.698
33.68
33.662
33.644
33.626
33.608
33.589
33.57
33.55
33.529
33.507
33.485
33.463
33.442
33.423
33.407
33.395
33.39
33.393
33.408
33.437
33.485
33.553
33.644
33.757
33.893
34.052
34.231
34.43
34.646
34.877
35.119
35.369
35.623
35.877
36.129
36.374
36.61
36.835
37.048
37.246
37.43
37.597
37.748
37.883
38.003
38.108
38.199
38.276
38.34
38.394
38.438
38.472
38.499
38.519
38.531
38.536
38.536
38.529
38.518
38.503
38.484
38.46
38.433
38.403
38.372
38.34
38.308
38.276
38.246
38.218
38.192
38.167
38.144
38.121
38.096
38.069
38.039
38.005
37.967
37.925
37.878
37.829
37.778
37.726
37.671
37.615
37.556
37.497
37.436
37.376
37.316
37.257
37.2
37.145
37.091
37.039
36.99
36.943
36.9
36.861
36.826
36.797
36.77
36.746
36.724
36.703
36.682
36.661
36.638
36.615
36.592
36.568
36.543
36.518
36.492
36.464
36.434
36.401
36.366
36.327
36.284
36.24
36.192
36.141
36.086
36.03
35.973
35.916
35.859
35.803
35.746
35.689
35.633
35.58
35.529
35.482
35.44
35.402
35.368
35.338
35.309
35.282
35.256
35.229
35.202
35.173
35.141
35.104
35.063
35.019
34.972
34.924
34.877
34.831
34.785
34.74
34.697
34.655
34.616
34.58
34.548
34.521
34.497
34.477
34.46
34.445
34.43
34.416
34.403
34.389
34.376
34.361
34.344
34.325
34.303
34.281
34.259
34.238
34.218
34.198
34.178
34.157
34.134
34.112
34.088
34.064
34.039
34.015
33.992
33.97
33.948
33.927
33.905
33.885
33.864
33.845
33.825
33.804
33.782
33.761
33.739
33.717
33.694
33.669
33.642
33.611
33.578
33.544
33.508
33.472
33.436
33.402
33.37
33.339
33.312
33.289
33.271
33.259
33.254
33.259
33.275
33.304
33.349
33.411
33.493
33.597
33.723
33.87
34.038
34.224
34.428
34.648
34.881
35.123
35.372
35.624
35.875
36.121
36.359
36.588
36.805
37.007
37.195
37.367
37.523
37.662
37.785
37.894
37.988
38.069
38.137
38.193
38.235
38.267
38.288
38.299
38.302
38.297
38.287
38.271
38.251
38.228
38.203
38.176
38.148
38.12
38.093
38.067
38.042
38.017
37.994
37.971
37.949
37.927
37.903
37.878
37.849
37.816
37.777
37.734
37.685
37.63
37.57
37.505
37.435
37.361
37.286
37.211
37.136
37.063
36.993
36.925
36.861
36.802
36.749
36.702
36.661
36.625
36.594
36.567
36.542
36.519
36.498
36.478
36.459
36.442
36.425
36.408
36.391
36.374
36.358
36.344
36.332
36.32
36.309
36.298
36.286
36.271
36.253
36.231
36.204
36.171
36.133
36.088
36.037
35.979
35.917
