Trial 3:3back
33.469
33.411
33.353
33.295
33.237
33.178
33.119
33.06
33.0
32.941
32.884
32.829
32.777
32.728
32.682
32.638
32.597
32.557
32.519
32.482
32.447
32.414
32.383
32.353
32.326
32.3
32.277
32.255
32.234
32.214
32.195
32.178
32.163
32.153
32.145
32.139
32.134
32.136
32.152
32.189
32.254
32.355
32.497
32.684
32.92
33.206
33.543
33.928
34.356
34.823
35.323
35.848
36.388
36.936
37.481
38.013
38.525
39.009
39.458
39.866
40.23
40.546
40.81
41.022
41.183
41.292
41.355
41.372
41.348
41.288
41.197
41.078
40.936
40.776
40.602
40.417
40.226
40.031
39.836
39.641
39.449
39.259
39.072
38.887
38.704
38.525
38.347
38.171
37.995
37.82
37.645
37.469
37.294
37.117
36.941
36.765
36.59
36.416
36.243
36.07
35.9
35.732
35.568
35.409
35.255
35.108
34.969
34.838
34.716
34.604
34.502
34.411
34.33
34.259
34.199
34.151
34.113
34.085
34.066
34.055
34.051
34.053
34.06
34.072
34.088
34.106
34.125
34.145
34.166
34.186
34.208
34.229
34.249
34.267
34.282
34.294
34.301
34.304
34.301
34.293
34.279
34.26
34.235
34.205
34.172
34.135
34.095
34.053
34.007
33.959
33.909
33.857
33.803
33.747
33.69
33.631
33.57
33.507
33.443
33.378
33.314
33.25
33.188
33.127
33.068
33.012
32.958
32.907
32.858
32.812
32.768
32.726
32.686
32.647
32.61
32.575
32.542
32.51
32.479
32.448
32.417
32.385
32.352
32.32
32.287
32.257
32.228
32.201
32.178
32.158
32.141
32.128
32.118
32.111
32.109
32.11
32.116
32.128
32.148
32.179
32.224
32.287
32.37
32.477
32.613
32.781
32.984
33.224
33.505
33.825
34.185
34.582
35.011
35.468
35.947
36.441
36.942
37.442
37.934
38.409
38.86
39.281
39.665
40.008
40.307
40.56
40.763
40.918
41.023
41.081
41.094
41.066
40.999
40.898
40.768
40.613
40.439
40.25
40.049
39.842
39.632
39.421
39.212
39.006
38.803
38.604
38.408
38.213
38.019
37.825
37.631
37.438
37.245
37.052
36.862
36.674
36.488
36.305
36.125
35.949
35.777
35.61
35.447
35.289
35.136
34.99
34.851
34.719
34.596
34.482
34.378
34.283
34.197
34.12
34.051
33.991
33.941
33.901
33.87
33.848
33.836
33.834
33.84
33.851
33.863
33.874
33.885
33.896
33.911
33.93
33.956
33.987
34.024
34.064
34.107
34.15
34.192
34.23
34.266
34.296
34.321
34.34
34.351
34.355
34.352
34.342
34.324
34.3
34.268
34.231
34.188
34.142
34.093
34.042
33.99
33.937
33.882
33.826
33.769
33.711
33.654
33.597
33.542
33.487
33.434
33.382
33.332
33.283
33.234
33.186
33.139
33.091
33.044
32.997
32.952
32.907
32.863
32.821
32.78
32.741
32.705
32.671
32.639
32.61
32.582
32.557
32.532
32.509
32.486
32.464
32.442
32.421
32.4
32.38
32.362
32.348
32.34
32.338
32.345
32.364
32.396
32.444
32.514
32.607
32.73
32.886
33.078
33.307
33.576
33.885
34.232
34.615
35.031
35.474
35.939
36.42
36.909
37.4
37.885
38.357
38.81
39.238
39.634
39.993
40.311
40.585
40.812
40.992
41.124
41.21
41.251
41.25
41.21
41.135
41.028
40.893
40.736
40.559
40.366
40.162
39.95
39.733
39.513
39.293
39.076
38.862
38.653
38.448
38.247
38.051
37.858
37.668
37.478
37.288
37.097
36.906
36.714
36.523
36.332
36.143
35.958
35.777
35.602
35.434
35.274
35.124
34.982
34.849
34.725
34.609
34.502
34.405
34.316
34.238
34.168
34.109
34.06
34.021
33.993
33.974
33.964
33.962
33.968
33.98
33.998
34.021
34.05
34.083
34.12
34.16
34.202
34.244
34.286
34.326
34.362
34.393
34.419
34.437
34.448
34.452
34.45
34.442
34.428
34.407
34.382
34.351
34.317
34.28
34.24
34.199
34.156
34.111
34.066
34.02
33.975
33.931
33.887
33.842
33.795
33.745
33.695
33.643
33.59
33.536
33.482
33.427
33.372
33.317
33.264
33.212
33.162
33.114
33.067
33.022
32.978
32.936
32.895
32.855
32.814
32.773
32.732
32.691
32.651
32.611
32.573
32.536
32.501
32.466
32.434
32.405
32.378
32.355
32.336
32.321
32.313
32.315
32.327
32.355
32.401
32.469
32.564
32.69
32.849
33.048
33.288
33.572
33.901
34.272
34.684
35.132
35.61
36.11
36.625
37.146
37.665
38.173
38.661
39.122
39.55
39.939
40.287
40.588
40.843
41.048
41.205
41.314
41.379
41.401
41.384
41.334
41.254
41.149
41.022
40.878
40.719
40.549
40.371
40.186
39.997
39.806
39.615
39.424
39.233
39.042
38.853
38.664
38.477
38.29
38.103
37.916
37.728
37.539
37.349
37.159
36.97
36.784
36.6
36.418
36.24
36.065
35.895
35.73
35.571
35.416
35.268
35.126
34.99
34.863
34.744
34.635
34.537
34.449
34.373
34.306
34.248
34.199
34.157
34.124
34.097
34.079
34.071
34.074
34.086
34.107
34.134
34.167
34.204
34.242
34.28
34.318
34.352
34.381
34.405
34.423
34.434
34.439
34.439
34.432
34.421
34.405
34.386
34.364
34.339
34.311
34.278
34.242
34.201
34.157
34.108
34.057
34.003
33.948
33.891
33.833
33.775
33.718
33.662
33.607
33.552
33.496
33.439
33.382
33.325
33.269
33.213
33.159
33.107
33.056
33.007
32.958
32.911
32.865
32.819
32.775
32.731
32.689
32.648
32.609
32.573
32.538
32.504
32.472
32.439
32.406
32.375
32.345
32.316
32.289
32.264
32.242
32.223
32.208
32.198
32.194
32.197
32.21
32.235
32.274
32.333
32.416
32.527
32.671
32.851
33.069
33.328
33.63
33.974
34.359
34.782
35.239
35.724
36.23
36.75
37.276
37.8
38.313
38.809
39.278
39.713
40.109
40.46
40.763
41.016
41.217
41.367
41.467
41.521
41.531
41.5
41.434
41.338
41.215
41.072
40.911
40.737
40.554
40.362
40.165
39.964
39.761
39.558
39.357
39.157
38.958
38.756
38.548
38.338
38.128
37.919
37.715
37.517
37.326
37.143
36.968
36.8
36.639
36.483
36.333
36.186
36.042
35.901
35.763
35.627
35.493
35.361
35.232
35.108
34.988
34.874
34.766
34.665
34.572
34.485
34.407
34.336
34.273
34.22
34.176
34.14
34.114
34.096
34.087
34.086
34.093
34.107
34.126
34.15
34.178
34.206
34.236
34.265
34.294
34.322
34.346
34.368
34.385
34.397
34.404
34.404
34.398
34.384
34.363
34.335
34.3
34.259
34.214
34.165
34.115
34.062
34.008
33.953
33.896
33.837
33.777
33.716
33.655
33.593
33.532
33.472
33.414
33.358
33.303
33.249
33.195
33.141
33.087
33.032
32.976
32.918
32.86
32.804
32.748
32.696
32.645
32.597
32.552
32.51
32.47
32.431
32.394
32.359
32.326
32.295
32.265
32.238
32.213
32.19
32.169
32.151
32.134
32.119
32.105
32.093
32.082
32.075
32.071
32.074
32.084
32.105
32.14
32.192
32.265
32.362
32.489
32.65
32.847
33.084
33.362
33.683
34.047
34.451
34.893
35.365
35.863
36.377
36.9
37.424
37.939
38.437
38.91
39.35
39.752
40.109
40.418
40.676
40.884
41.041
41.148
41.208
41.222
41.196
41.133
41.04
40.92
40.778
40.619
40.445
40.258
40.062
39.857
39.646
39.43
39.212
38.993
38.775
38.56
38.349
38.143
37.941
37.743
37.55
37.36
37.173
36.988
36.804
36.622
36.442
36.265
36.089
35.917
35.748
35.583
35.421
35.263
35.11
34.961
34.819
34.683
34.553
34.431
34.317
34.213
34.12
34.037
33.966
33.905
33.855
33.815
33.785
33.764
33.752
33.75
33.755
33.768
33.787
33.811
33.841
33.874
33.909
33.945
33.981
34.017
34.053
34.087
34.12
34.15
34.177
34.202
34.222
34.237
34.248
34.254
34.255
34.249
34.238
34.22
34.196
34.165
34.128
34.086
34.039
33.988
33.935
33.879
33.823
33.766
33.71
33.654
33.6
33.546
33.494
33.443
33.393
33.343
33.293
33.245
33.197
33.15
33.102
33.053
33.005
32.956
32.906
32.857
32.808
32.76
32.716
32.675
32.638
32.603
32.569
32.537
32.505
32.474
32.443
32.413
32.385
32.358
32.333
32.312
32.292
32.276
32.262
32.25
32.24
32.232
32.225
32.221
32.221
32.228
32.244
32.272
32.317
32.38
32.467
32.581
32.725
32.904
33.119
33.375
33.671
34.009
34.386
34.799
35.244
35.715
36.205
36.707
37.213
37.716
38.207
38.681
39.13
39.546
39.926
40.264
40.557
40.802
40.998
41.143
41.239
41.288
41.291
41.253
41.176
41.066
40.928
40.768
40.589
40.394
40.186
39.969
39.744
39.516
39.287
39.059
38.834
38.612
38.395
38.182
37.975
37.772
37.573
37.379
37.189
37.001
36.815
36.632
36.45
36.271
36.095
35.923
35.753
35.588
35.426
35.269
35.117
34.971
34.832
34.7
34.576
34.461
34.355
34.258
34.171
34.094
34.028
33.971
33.925
33.889
33.864
33.85
33.846
33.851
33.864
33.882
33.906
33.934
33.964
33.998
34.032
34.068
34.104
34.139
34.174
34.208
34.241
34.272
34.301
34.326
34.347
34.364
34.376
34.383
34.384
34.381
34.372
34.357
34.335
34.306
34.27
34.226
34.176
34.119
34.058
33.994
33.93
33.866
33.804
33.744
33.686
33.63
33.576
33.524
33.473
33.424
33.377
33.331
33.287
33.243
33.2
33.158
33.116
33.073
33.029
32.984
32.939
32.893
32.848
32.804
32.762
32.723
32.687
32.653
32.623
32.597
32.574
32.554
32.535
32.517
32.499
32.481
32.462
32.442
32.424
32.407
32.394
32.386
32.385
32.393
32.413
32.449
32.502
32.577
32.678
32.81
32.981
33.201
33.476
33.804
34.183
34.607
35.068
35.556
36.064
36.58
37.096
37.603
38.092
38.557
38.99
39.387
39.744
40.059
40.329
40.557
40.741
40.884
40.987
41.053
41.085
41.085
41.057
41.002
40.923
40.823
40.704
40.567
40.415
40.249
40.071
39.883
39.686
39.484
39.276
39.064
38.851
38.638
38.426
38.215
38.007
37.802
37.602
37.405
37.214
37.026
36.841
36.66
36.482
36.306
36.134
35.965
35.8
35.637
35.479
35.324
35.173
35.028
34.89
34.76
34.64
34.529
34.428
34.336
34.254
34.182
34.119
34.065
34.019
33.981
33.951
33.928
33.915
33.909
33.91
33.918
33.933
33.952
33.975
34.001
34.03
34.06
34.092
34.123
34.154
34.184
34.211
34.237
34.259
34.277
34.291
34.3
34.304
34.302
34.294
34.281
34.262
34.238
34.208
34.173
34.132
34.086
34.036
33.984
33.93
33.875
33.82
33.766
33.712
33.66
33.61
33.56
33.511
33.462
33.414
33.366
33.319
33.271
33.225
33.178
33.133
33.087
33.043
32.999
32.956
32.915
32.875
32.836
32.798
32.76
32.723
32.687
32.653
32.621
32.589
32.558
32.529
32.501
32.474
32.449
32.425
32.403
32.382
32.362
32.344
32.328
32.316
32.311
32.312
32.325
32.352
32.398
32.467
32.563
32.69
32.853
33.055
33.297
33.58
33.906
34.271
34.674
35.11
35.574
36.059
36.558
37.065
37.571
38.068
38.55
39.009
39.439
39.834
40.188
40.499
40.763
40.98
41.15
41.271
41.346
41.378
41.369
41.322
41.242
41.132
40.996
40.841
40.67
40.487
40.296
40.1
39.902
39.703
39.503
39.304
39.105
38.909
38.715
38.524
38.336
38.151
37.969
37.79
37.612
37.435
37.258
37.081
36.904
36.727
36.549
36.371
36.194
36.02
35.849
35.683
35.524
35.372
35.228
35.091
34.962
34.841
34.727
34.62
34.521
34.43
34.348
34.276
34.214
34.162
34.122
34.092
34.072
34.061
34.058
34.06
34.068
34.081
34.098
34.12
34.144
34.17
34.199
34.228
34.259
34.289
34.316
34.34
34.359
34.37
34.372
34.366
34.355
34.339
34.319
34.296
34.27
34.243
34.216
34.188
34.159
34.129
34.098
34.065
34.03
33.994
33.957
33.917
33.875
33.83
33.783
33.733
33.682
33.629
33.575
33.52
33.465
33.411
33.357
33.303
33.25
33.198
33.148
33.099
33.052
33.007
32.963
32.922
32.884
32.849
32.816
32.784
32.753
32.724
32.694
32.667
32.64
32.615
32.591
32.569
32.547
32.525
32.504
32.484
32.463
32.443
32.424
32.406
32.391
32.379
32.373
32.375
32.386
32.41
32.448
32.505
32.585
32.694
32.834
33.009
33.223
33.478
33.775
34.113
34.491
34.903
35.345
35.81
36.292
36.782
37.272
37.755
38.224
38.671
39.091
39.477
39.825
40.132
40.395
40.612
40.784
40.911
40.996
41.04
41.046
41.017
40.957
40.868
40.756
40.623
40.473
40.309
40.134
39.951
39.761
39.566
39.367
39.166
38.964
38.762
38.56
38.359
38.157
37.957
37.757
37.559
37.364
37.171
36.983
36.799
36.62
36.446
36.278
36.113
35.954
35.798
35.644
35.493
35.344
35.197
35.053
34.914
34.781
34.656
34.539
34.433
34.335
34.248
34.171
34.104
34.046
33.997
33.957
33.926
33.903
33.889
33.883
33.886
33.896
33.914
33.937
33.964
33.994
34.026
34.059
34.091
34.121
34.15
34.178
34.203
34.224
34.243
34.258
34.27
34.279
34.282
34.281
34.274
34.262
34.245
34.224
34.198
34.169
34.136
34.1
34.062
34.021
33.977
33.931
33.883
33.833
33.781
33.727
33.671
33.614
33.557
33.5
33.444
33.391
33.34
33.291
33.245
33.202
33.163
33.127
33.093
33.06
33.027
32.994
32.962
32.93
32.899
32.867
32.836
32.804
32.771
32.738
32.704
32.67
32.636
32.603
32.572
32.543
32.516
32.492
32.47
32.451
32.435
32.421
32.409
32.4
32.393
32.391
32.393
32.402
32.418
32.444
32.482
32.536
32.609
32.703
32.824
32.975
33.158
33.376
33.631
33.925
34.256
34.623
35.023
35.449
35.897
36.359
36.83
37.301
37.764
38.213
38.64
39.039
39.403
39.73
40.014
40.254
40.45
40.602
40.709
40.773
40.796
40.781
40.732
40.65
40.541
40.408
40.255
40.086
39.904
39.713
39.516
39.314
39.111
38.908
38.705
38.504
38.304
38.105
37.907
37.71
37.514
37.32
37.129
36.939
36.752
36.567
36.387
36.21
36.037
35.869
35.704
35.544
35.389
35.239
35.094
34.954
34.82
34.693
34.573
34.461
34.357
34.263
34.18
34.108
34.047
33.998
33.96
33.934
33.918
33.911
33.913
33.924
33.941
33.965
33.993
34.025
34.06
34.098
34.14
34.184
34.231
34.277
34.322
34.363
34.398
34.427
34.449
34.463
34.47
34.471
34.466
34.457
34.445
34.43
34.411
34.39
34.365
34.337
34.304
34.267
34.226
34.181
34.132
34.08
34.027
33.973
33.92
33.867
33.816
33.765
33.714
33.663
33.614
33.564
33.517
33.47
33.426
33.383
33.343
33.306
33.27
33.236
33.202
33.169
33.135
33.102
33.069
33.036
33.003
32.969
32.936
32.903
32.871
32.84
32.81
32.782
32.755
32.73
32.708
32.686
32.665
32.644
32.624
32.605
32.588
32.574
32.565
32.56
32.562
32.573
32.592
32.622
32.665
32.724
32.801
32.901
33.028
33.184
33.373
33.598
33.86
34.161
34.5
34.876
35.283
35.717
36.172
36.64
37.113
37.583
38.044
38.487
38.905
39.293
39.646
39.961
40.234
40.466
40.654
40.8
40.903
40.967
40.991
40.979
40.933
40.856
40.751
40.623
40.474
40.309
40.13
39.942
39.747
39.547
39.345
39.143
38.94
38.739
38.54
38.342
38.145
37.95
37.758
37.57
37.387
37.209
37.034
36.863
36.694
36.528
36.364
36.201
36.041
35.882
35.725
35.569
35.415
35.264
35.118
34.978
34.845
34.721
34.606
34.502
34.409
34.327
34.257
34.199
34.153
34.119
34.095
34.081
34.077
34.082
34.094
34.112
34.135
34.16
34.185
34.21
34.233
34.255
34.277
34.298
34.319
34.341
34.363
34.385
34.407
34.427
34.444
34.458
34.468
34.471
34.468
34.459
34.444
34.424
34.399
34.369
34.334
34.296
34.255
34.21
34.163
34.114
34.063
34.012
33.962
33.911
33.862
33.814
33.766
33.72
33.675
33.63
33.585
33.54
33.496
33.45
33.405
33.359
33.314
33.269
33.225
33.181
33.14
33.1
33.062
33.027
32.995
32.966
32.938
32.911
32.884
32.857
32.831
32.805
32.78
32.757
32.736
32.717
32.701
32.687
32.674
32.663
32.652
32.642
32.634
32.629
32.629
32.638
32.657
32.691
32.743
32.817
32.918
33.049
33.215
33.417
33.659
33.942
34.265
34.627
35.025
35.453
35.908
36.38
36.863
37.348
37.827
38.293
38.739
39.158
39.546
39.897
40.209
40.477
40.702
40.882
41.017
41.109
41.161
41.176
41.155
41.103
41.023
40.919
40.794
40.652
40.497
40.331
40.157
39.978
39.792
39.603
39.412
39.221
39.03
38.841
38.655
38.474
38.297
38.124
37.955
37.789
37.626
37.466
37.308
37.151
36.995
36.84
36.685
36.531
36.376
36.222
36.069
35.918
35.769
35.623
35.481
35.344
35.214
35.092
34.978
34.872
34.776
34.691
34.616
34.552
34.499
34.456
34.422
34.397
34.379
34.367
34.361
34.36
34.363
34.37
34.38
34.395
34.412
34.433
34.456
34.48
34.505
34.53
34.554
34.574
34.591
34.603
34.611
34.614
34.612
34.605
34.593
34.576
34.554
34.527
34.495
34.458
34.418
34.374
34.328
34.28
34.232
34.184
34.136
34.089
34.042
33.996
33.95
33.906
33.862
33.818
33.774
33.729
33.684
33.637
33.589
33.538
33.487
33.436
33.386
33.337
33.29
33.247
33.207
33.169
33.133
33.099
33.065
33.032
32.998
32.964
32.929
32.895
32.861
32.828
32.796
32.765
32.737
32.71
32.685
32.665
32.65
32.643
32.646
32.662
32.693
32.743
32.817
32.916
33.046
33.207
33.403
33.635
33.905
34.21
34.55
34.921
35.319
35.74
36.177
36.626
37.08
37.534
37.981
38.413
38.825
39.211
39.565
39.882
40.159
40.393
40.583
40.728
40.83
40.89
40.91
40.893
40.844
40.766
40.662
40.537
40.394
40.238
40.071
39.896
39.714
39.528
39.339
39.149
38.961
38.776
38.593
38.414
38.236
38.06
37.884
37.709
37.534
37.361
37.189
37.019
36.85
36.683
36.517
36.352
36.19
36.03
35.874
35.721
35.572
35.428
35.289
35.157
35.031
34.913
34.802
34.7
34.606
34.521
34.444
34.376
34.317
34.266
34.223
34.188
34.159
34.136
34.12
34.111
34.108
34.112
34.122
34.137
34.157
34.18
34.206
34.233
34.26
34.285
34.307
34.325
34.338
34.347
34.352
34.352
34.347
34.338
34.325
34.309
34.288
34.265
34.24
34.212
34.183
34.15
34.115
34.078
34.04
34.0
33.959
33.918
33.874
33.83
33.784
33.736
33.688
33.639
33.59
33.542
33.494
33.447
33.401
33.357
33.314
33.273
33.233
33.194
33.158
33.124
33.091
33.059
33.027
32.994
32.961
32.926
32.89
32.853
32.816
32.78
32.745
32.711
32.679
32.65
32.625
32.602
32.583
32.567
32.555
32.547
32.546
32.552
32.568
32.596
32.64
32.7
32.781
32.885
33.014
33.171
33.359
33.579
33.834
34.124
34.449
34.807
35.195
35.609
36.043
36.49
36.943
37.393
37.833
38.259
38.663
39.04
39.384
39.69
39.954
40.174
40.349
40.48
40.567
40.612
40.619
40.59
40.528
40.437
40.321
40.185
40.031
39.863
39.686
39.503
39.316
39.127
38.938
38.749
38.56
38.373
38.185
37.997
37.809
37.622
37.437
37.253
37.07
36.89
36.712
36.538
36.368
36.203
36.044
35.89
35.742
35.598
35.458
35.323
35.192
35.066
34.944
34.827
34.715
34.61
34.513
34.424
34.344
34.273
34.211
34.158
34.113
34.078
34.051
34.033
34.024
34.023
34.029
34.04
34.057
34.079
34.105
34.133
34.164
34.195
34.226
34.257
34.286
34.313
34.337
34.36
34.38
34.396
34.408
34.415
34.419
34.418
34.413
34.403
34.389
34.372
34.351
34.326
34.299
34.268
34.235
34.199
34.158
34.113
34.065
34.015
33.963
33.91
33.858
33.806
33.756
33.708
33.663
33.619
33.58
33.543
33.508
33.475
33.443
33.411
33.38
33.349
33.318
33.287
33.254
33.22
33.185
33.149
33.112
33.075
33.04
33.005
32.971
32.94
32.913
32.892
32.876
32.862
32.851
32.841
32.832
32.825
32.82
32.819
32.824
32.837
32.861
32.899
32.954
33.031
33.134
33.265
33.43
33.629
33.867
34.143
34.456
34.805
35.186
35.593
36.021
36.463
36.91
37.355
37.792
38.213
38.612
38.984
39.323
39.627
39.891
40.114
40.294
40.433
40.531
40.59
40.613
40.601
40.558
40.486
40.389
40.271
40.136
39.986
39.825
39.656
39.481
39.301
39.119
38.934
38.75
38.564
38.379
38.194
38.009
37.824
37.64
37.457
37.276
37.097
36.922
36.75
36.583
36.42
36.261
36.107
35.956
35.809
35.665
35.523
35.385
35.251
35.121
34.997
34.88
34.771
34.671
34.58
34.5
34.431
34.372
34.323
34.283
34.252
34.229
34.215
34.21
34.212
34.22
34.235
34.256
34.282
34.311
34.343
34.375
34.408
34.439
34.466
34.49
34.511
34.527
34.539
34.547
34.551
34.549
34.544
34.535
34.522
34.507
34.49
34.469
34.446
34.419
34.388
34.354
34.317
34.278
34.235
34.19
34.143
34.094
34.045
33.997
33.948
33.899
33.85
