Trial 3:3back
33.854
33.834
33.813
33.79
33.768
33.744
33.72
33.695
33.67
33.644
33.618
33.593
33.568
33.546
33.526
33.51
33.497
33.49
33.487
33.49
33.499
33.517
33.543
33.578
33.623
33.678
33.745
33.823
33.913
34.015
34.128
34.251
34.383
34.523
34.669
34.819
34.97
35.121
35.269
35.414
35.553
35.686
35.811
35.928
36.036
36.134
36.222
36.3
36.367
36.423
36.47
36.508
36.537
36.558
36.572
36.58
36.582
36.579
36.572
36.562
36.55
36.536
36.523
36.51
36.5
36.491
36.485
36.482
36.48
36.48
36.48
36.48
36.479
36.476
36.471
36.464
36.454
36.442
36.428
36.411
36.392
36.371
36.347
36.322
36.295
36.265
36.233
36.198
36.162
36.123
36.082
36.04
35.998
35.956
35.917
35.881
35.85
35.824
35.803
35.788
35.778
35.771
35.768
35.767
35.767
35.77
35.773
35.779
35.786
35.795
35.806
35.819
35.833
35.848
35.863
35.878
35.892
35.905
35.916
35.926
35.934
35.938
35.94
35.939
35.934
35.926
35.914
35.899
35.881
35.86
35.836
35.81
35.783
35.754
35.724
35.693
35.662
35.63
35.599
35.569
35.539
35.51
35.482
35.455
35.429
35.403
35.378
35.354
35.331
35.307
35.283
35.259
35.233
35.206
35.178
35.148
35.117
35.085
35.054
35.022
34.992
34.962
34.934
34.906
34.879
34.853
34.827
34.802
34.777
34.754
34.732
34.711
34.692
34.674
34.658
34.644
34.632
34.621
34.61
34.6
34.589
34.577
34.564
34.55
34.536
34.521
34.505
34.489
34.472
34.456
34.439
34.423
34.408
34.394
34.381
34.367
34.354
34.342
34.33
34.318
34.307
34.297
34.287
34.278
34.269
34.26
34.252
34.244
34.236
34.227
34.218
34.209
34.199
34.188
34.177
34.165
34.152
34.137
34.121
34.102
34.082
34.059
34.035
34.009
33.982
33.955
33.928
33.901
33.875
33.85
33.827
33.805
33.785
33.767
33.752
33.74
33.731
33.724
33.719
33.717
33.718
33.722
33.731
33.745
33.765
33.793
33.829
33.875
33.932
33.999
34.079
34.171
34.276
34.393
34.52
34.659
34.807
34.964
35.127
35.295
35.464
35.633
35.798
35.958
36.111
36.254
36.386
36.506
36.613
36.706
36.785
36.851
36.904
36.944
36.973
36.992
37.003
37.007
37.006
37.0
36.99
36.978
36.964
36.949
36.932
36.916
36.9
36.886
36.872
36.861
36.851
36.843
36.836
36.83
36.824
36.817
36.809
36.799
36.788
36.774
36.758
36.74
36.719
36.696
36.671
36.645
36.617
36.589
36.56
36.53
36.499
36.467
36.434
36.401
36.366
36.33
36.295
36.26
36.227
36.195
36.166
36.14
36.117
36.099
36.085
36.075
36.071
36.07
36.074
36.082
36.093
36.105
36.12
36.135
36.152
36.168
36.184
36.2
36.216
36.23
36.245
36.257
36.267
36.275
36.279
36.279
36.275
36.268
36.257
36.242
36.224
36.201
36.176
36.147
36.116
36.084
36.05
36.014
35.978
35.942
35.906
35.87
35.836
35.802
35.771
35.741
35.712
35.685
35.658
35.633
35.608
35.584
35.559
35.533
35.505
35.475
35.443
35.41
35.376
35.341
35.306
35.272
35.238
35.205
35.174
35.143
35.114
35.086
35.06
35.034
35.009
34.985
34.962
34.941
34.92
34.899
34.88
34.861
34.844
34.828
34.813
34.8
34.789
34.777
34.766
34.755
34.743
34.73
34.717
34.702
34.687
34.671
34.655
34.639
34.625
34.612
34.601
34.591
34.583
34.576
34.57
34.564
34.557
34.55
34.542
34.532
34.521
34.509
34.496
34.481
34.464
34.444
34.423
34.4
34.376
34.35
34.324
34.297
34.271
34.246
34.221
34.196
34.172
34.148
34.123
34.097
34.071
34.044
34.015
33.986
33.955
33.923
33.89
33.857
33.824
33.792
33.761
33.734
33.71
33.69
33.674
33.663
33.659
33.661
33.67
33.688
33.715
33.753
33.802
33.863
33.935
34.016
34.108
34.209
34.317
34.433
34.554
34.68
34.81
34.942
35.076
35.209
35.34
35.468
35.59
35.706
35.814
35.914
36.005
36.086
36.157
36.217
36.266
36.304
36.333
36.354
36.367
36.374
36.375
36.372
36.364
36.353
36.337
36.318
36.296
36.272
36.245
36.218
36.19
36.163
36.135
36.107
36.078
36.049
36.018
35.986
35.951
35.914
35.874
35.831
35.787
35.741
35.693
35.644
35.595
35.545
35.496
35.448
35.4
35.353
35.308
35.264
35.223
35.183
35.146
35.11
35.077
35.048
35.021
34.998
34.98
34.967
34.959
34.956
34.958
34.965
34.977
34.993
35.014
35.038
35.064
35.091
35.119
35.147
35.174
35.2
35.225
35.249
35.272
35.294
35.316
35.335
35.353
35.369
35.381
35.39
35.395
35.395
35.392
35.385
35.375
35.362
35.347
35.33
35.311
35.29
35.267
35.244
35.219
35.194
35.168
35.142
35.117
35.093
35.07
35.047
35.026
35.006
34.986
34.967
34.947
34.926
34.904
34.878
34.85
34.819
34.784
34.747
34.707
34.666
34.622
34.578
34.531
34.484
34.436
34.386
34.336
34.285
34.235
34.185
34.137
34.092
34.048
34.007
33.968
33.932
33.899
33.869
33.842
33.819
33.798
33.78
33.765
33.753
33.743
33.737
33.734
33.735
33.738
33.744
33.754
33.765
33.777
33.79
33.804
33.817
33.829
33.839
33.849
33.857
33.863
33.869
33.874
33.877
33.88
33.881
33.881
33.879
33.876
33.871
33.865
33.857
33.847
33.836
33.823
33.809
33.793
33.776
33.757
33.737
33.715
33.692
33.668
33.644
33.619
33.594
33.568
33.543
33.517
33.492
33.466
33.441
33.415
33.391
33.369
33.349
33.333
33.322
33.318
33.322
33.336
33.362
33.4
33.452
33.518
33.599
33.693
33.799
33.916
34.042
34.176
34.316
34.459
34.604
34.749
34.891
35.029
35.161
35.286
35.402
35.508
35.602
35.685
35.756
35.816
35.865
35.904
35.934
35.956
35.971
35.979
35.983
35.983
35.979
35.972
35.963
35.952
35.939
35.924
35.91
35.895
35.882
35.87
35.86
35.852
35.846
35.842
35.839
35.836
35.834
35.83
35.825
35.817
35.807
35.795
35.781
35.764
35.745
35.723
35.699
35.673
35.644
35.612
35.576
35.537
35.496
35.452
35.407
35.36
35.314
35.268
35.226
35.186
35.151
35.12
35.094
35.073
35.055
35.041
35.031
35.023
35.018
35.017
35.018
35.022
35.03
35.04
35.053
35.068
35.084
35.102
35.119
35.137
35.153
35.168
35.18
35.191
35.2
35.206
35.21
35.21
35.206
35.199
35.188
35.174
35.156
35.136
35.113
35.089
35.064
35.038
35.012
34.986
34.96
34.934
34.91
34.886
34.863
34.841
34.82
34.8
34.78
34.761
34.742
34.723
34.704
34.685
34.665
34.646
34.626
34.607
34.587
34.568
34.549
34.53
34.511
34.492
34.472
34.451
34.428
34.405
34.38
34.355
34.329
34.303
34.278
34.254
34.231
34.209
34.189
34.17
34.152
34.135
34.119
34.104
34.09
34.076
34.063
34.05
34.037
34.025
34.014
34.004
33.995
33.988
33.983
33.979
33.976
33.973
33.971
33.968
33.964
33.959
33.954
33.948
33.942
33.935
33.927
33.919
33.911
33.902
33.893
33.884
33.875
33.866
33.858
33.85
33.842
33.834
33.826
33.819
33.811
33.802
33.792
33.78
33.768
33.754
33.74
33.725
33.711
33.696
33.682
33.668
33.654
33.64
33.626
33.612
33.596
33.581
33.566
33.551
33.538
33.526
33.517
33.511
33.508
33.509
33.515
33.528
33.549
33.579
33.62
33.674
33.74
33.82
33.913
34.018
34.135
34.261
34.396
34.537
34.682
34.829
34.976
35.12
35.258
35.391
35.516
35.631
35.736
35.83
35.913
35.984
36.044
36.091
36.127
36.152
36.168
36.176
36.176
36.171
36.161
36.148
36.133
36.116
36.099
36.08
36.063
36.046
36.031
36.018
36.007
35.997
35.99
35.984
35.979
35.975
35.97
35.965
35.959
35.953
35.945
35.937
35.928
35.918
35.908
35.896
35.883
35.868
35.851
35.831
35.808
35.782
35.753
35.722
35.688
35.653
35.618
35.584
35.553
35.524
35.5
35.479
35.462
35.449
35.439
35.432
35.427
35.425
35.425
35.427
35.432
35.44
35.45
35.462
35.476
35.492
35.508
35.524
35.539
35.553
35.566
35.577
35.586
35.593
35.597
35.6
35.6
35.598
35.593
35.587
35.578
35.566
35.552
35.535
35.516
35.493
35.469
35.443
35.416
35.389
35.361
35.334
35.309
35.285
35.263
35.243
35.225
35.208
35.192
35.178
35.165
35.153
35.141
35.131
35.121
35.111
35.102
35.093
35.083
35.072
35.06
35.047
35.033
35.018
35.002
34.985
34.966
34.946
34.926
34.906
34.886
34.868
34.851
34.837
34.825
34.815
34.806
34.798
34.79
34.783
34.776
34.769
34.762
34.755
34.747
34.74
34.731
34.723
34.714
34.705
34.695
34.685
34.674
34.662
34.649
34.635
34.621
34.606
34.59
34.575
34.56
34.546
34.532
34.52
34.508
34.496
34.484
34.472
34.459
34.446
34.434
34.422
34.411
34.4
34.39
34.382
34.374
34.366
34.359
34.352
34.345
34.337
34.329
34.321
34.313
34.304
34.296
34.287
34.278
34.267
34.256
34.243
34.228
34.211
34.192
34.171
34.148
34.124
34.1
34.075
34.051
34.028
34.006
33.986
33.969
33.954
33.942
33.934
33.93
33.931
33.937
33.948
33.967
33.992
34.024
34.065
34.115
34.175
34.245
34.326
34.418
34.519
34.628
34.746
34.87
35.001
35.135
35.271
35.409
35.544
35.676
35.802
35.921
36.03
36.128
36.216
36.292
36.357
36.412
36.455
36.489
36.513
36.528
36.535
36.534
36.526
36.511
36.492
36.468
36.441
36.411
36.38
36.347
36.315
36.285
36.255
36.229
36.205
36.185
36.169
36.156
36.147
36.138
36.131
36.123
36.114
36.102
36.089
36.073
36.056
36.037
36.016
35.993
35.969
35.943
35.916
35.886
35.855
35.822
35.787
35.752
35.715
35.678
35.641
35.605
35.57
35.536
35.506
35.478
35.455
35.436
35.423
35.414
35.41
35.41
35.414
35.421
35.431
35.444
35.459
35.476
35.495
35.515
35.536
35.558
35.58
35.602
35.622
35.642
35.659
35.674
35.686
35.694
35.698
35.698
35.693
35.685
35.672
35.657
35.639
35.62
35.6
35.579
35.559
35.538
35.518
35.497
35.476
35.456
35.436
35.417
35.399
35.383
35.367
35.353
35.34
35.327
35.315
35.303
35.291
35.279
35.267
35.254
35.241
35.228
35.214
35.198
35.182
35.164
35.144
35.123
35.099
35.074
35.048
35.021
34.993
34.965
34.937
34.909
34.884
34.86
34.838
34.817
34.799
34.781
34.765
34.749
34.735
34.722
34.709
34.698
34.688
34.679
34.672
34.666
34.66
34.656
34.653
34.649
34.646
34.643
34.639
34.635
34.629
34.623
34.615
34.607
34.598
34.588
34.578
34.568
34.557
34.545
34.532
34.519
34.505
34.49
34.475
34.46
34.446
34.431
34.417
34.404
34.39
34.376
34.362
34.347
34.331
34.315
34.298
34.279
34.261
34.242
34.224
34.206
34.191
34.179
34.169
34.162
34.16
34.162
34.169
34.183
34.204
34.233
34.271
34.32
34.378
34.448
34.528
34.619
34.72
34.83
34.947
35.07
35.197
35.328
35.459
35.591
35.72
35.845
35.966
36.08
36.188
36.287
36.378
36.46
36.532
36.593
36.645
36.685
36.716
36.737
36.749
36.754
36.752
36.745
36.735
36.721
36.704
36.685
36.665
36.643
36.621
36.599
36.577
36.556
36.535
36.515
36.495
36.475
36.455
36.435
36.415
36.395
36.374
36.354
36.334
36.313
36.292
36.269
36.246
36.221
36.194
36.167
36.138
36.107
36.076
36.045
36.013
35.982
35.95
35.92
35.89
35.861
35.833
35.808
35.785
35.764
35.747
35.733
35.722
35.716
35.713
35.713
35.718
35.726
35.738
35.753
35.771
35.791
35.813
35.834
35.856
35.876
35.895
35.913
35.929
35.943
35.955
35.964
35.969
35.971
35.97
35.966
35.959
35.949
35.937
35.923
35.907
35.889
35.869
35.848
35.826
35.803
35.779
35.755
35.731
35.708
35.685
35.662
35.639
35.616
35.593
35.569
35.545
35.521
35.498
35.476
35.456
35.437
35.419
35.402
35.386
35.369
35.352
35.334
35.316
35.296
35.276
35.255
35.232
35.21
35.186
35.163
35.139
35.115
35.091
35.069
35.047
35.026
35.006
34.987
34.969
34.953
34.938
34.926
34.917
34.909
34.903
34.898
34.895
34.893
34.891
34.889
34.888
34.887
34.887
34.886
34.886
34.886
34.885
34.884
34.881
34.878
34.872
34.865
34.856
34.845
34.833
34.82
34.807
34.795
34.784
34.773
34.764
34.754
34.744
34.734
34.723
34.711
34.699
34.685
34.672
34.658
34.643
34.628
34.612
34.594
34.575
34.555
34.533
34.511
34.487
34.463
34.439
34.413
34.388
34.362
34.336
34.312
34.289
34.267
34.248
34.231
34.217
34.207
34.202
34.202
34.209
34.225
34.251
34.288
34.338
34.4
34.477
34.567
34.67
34.786
34.913
35.049
35.193
35.343
35.497
35.652
35.806
35.957
36.105
36.246
36.38
36.506
36.622
36.726
36.819
36.9
36.969
37.025
37.069
37.102
37.125
37.139
37.146
37.148
37.145
37.138
37.127
37.113
37.097
37.08
37.061
37.041
37.021
37.002
36.984
36.968
36.954
36.941
36.93
36.922
36.915
36.91
36.906
36.903
36.899
36.895
36.889
36.882
36.873
36.862
36.848
36.831
36.811
36.788
36.761
36.731
36.698
36.662
36.624
36.584
36.542
36.5
36.459
36.419
36.381
36.347
36.316
36.29
36.268
36.251
36.239
36.233
36.231
36.233
36.24
36.251
36.265
36.282
36.3
36.321
36.342
36.363
36.384
36.405
36.425
36.444
36.462
36.479
36.493
36.503
36.511
36.513
36.512
36.505
36.494
36.478
36.459
36.435
36.408
36.379
36.348
36.315
36.283
36.25
36.218
36.186
36.156
36.126
36.097
36.07
36.044
36.018
35.994
35.97
35.948
35.926
35.904
35.883
35.862
35.84
35.818
35.794
35.77
35.745
35.72
35.695
35.67
35.646
35.623
35.601
35.58
35.56
35.542
35.525
35.51
35.497
35.484
35.471
35.459
35.447
35.435
35.422
35.409
35.395
35.382
35.368
35.353
35.338
35.322
35.305
35.287
35.269
35.251
35.233
35.215
35.198
35.182
35.167
35.154
35.141
35.13
35.119
35.11
35.101
35.092
35.084
35.076
35.068
35.06
35.052
35.045
35.038
35.032
35.027
35.022
35.018
35.014
35.009
35.003
34.996
34.989
34.981
34.972
34.962
34.953
34.943
34.932
34.922
34.912
34.901
34.891
34.879
34.867
34.855
34.84
34.825
34.807
34.787
34.766
34.742
34.717
34.691
34.664
34.637
34.609
34.582
34.554
34.527
34.502
34.478
34.457
34.438
34.422
34.409
34.399
34.392
34.39
34.393
34.403
34.422
34.45
34.489
34.54
34.605
34.684
34.777
34.885
35.006
35.139
35.284
35.437
35.597
35.761
35.926
36.089
36.249
36.403
36.551
36.69
36.819
36.938
37.046
37.142
37.225
37.296
37.353
37.397
37.429
37.449
37.458
37.459
37.453
37.442
37.427
37.411
37.394
37.376
37.358
37.341
37.324
37.309
37.295
37.283
37.271
37.26
37.25
37.24
37.229
37.218
37.206
37.194
37.182
37.169
37.157
37.144
37.131
37.116
37.1
37.082
37.061
37.037
37.01
36.98
36.948
36.914
36.879
36.842
36.804
36.766
36.728
36.69
36.654
36.619
36.586
36.556
36.529
36.506
36.487
36.473
36.463
36.458
36.459
36.464
36.474
36.487
36.504
36.523
36.543
36.564
36.584
36.603
36.62
36.635
36.648
36.658
36.666
36.672
36.675
36.675
36.672
36.665
36.656
36.645
36.63
36.614
36.595
36.575
36.552
36.528
36.502
36.475
36.447
36.419
36.391
36.362
36.334
36.306
36.279
36.252
36.227
36.202
36.179
36.155
36.133
36.111
36.089
36.067
36.045
36.022
35.999
35.975
35.95
35.926
35.901
35.876
35.85
35.823
35.796
35.769
35.742
35.716
35.692
35.668
35.645
35.623
35.601
35.581
35.561
35.542
35.524
35.507
35.491
35.476
35.461
35.447
35.432
35.418
35.403
35.388
35.371
35.355
35.338
35.32
35.303
35.285
35.268
35.25
35.233
35.215
35.197
35.179
35.161
35.142
35.125
35.107
35.091
35.076
35.062
35.049
35.038
35.029
35.021
35.015
35.008
35.003
34.997
34.991
34.985
34.978
34.97
34.962
34.953
34.943
34.933
34.921
34.909
34.896
34.882
34.866
34.849
34.831
34.812
34.791
34.77
34.747
34.723
34.696
34.669
34.639
34.608
34.576
34.543
34.508
34.473
34.438
34.403
34.369
34.337
34.307
34.279
34.255
34.235
34.22
34.21
34.207
34.209
34.22
34.238
34.267
34.306
34.357
34.421
34.498
34.588
34.691
34.806
34.931
35.065
35.207
35.353
35.503
35.654
35.805
35.954
36.098
36.236
36.366
36.486
36.596
36.695
36.783
36.859
36.923
36.975
37.016
37.047
37.067
37.079
37.084
37.084
37.079
37.071
37.059
37.045
37.029
37.01
36.99
36.968
36.945
36.92
36.894
36.865
36.835
36.803
36.769
36.734
36.697
36.659
36.621
36.583
36.545
36.507
36.47
36.432
36.395
36.357
36.319
36.28
36.242
36.202
36.162
36.121
36.08
36.038
35.996
35.955
35.914
35.875
35.837
35.802
35.77
35.741
35.716
35.696
35.68
35.67
35.664
35.664
35.669
35.679
35.693
35.71
35.731
35.753
35.777
35.802
35.827
35.852
35.877
35.901
35.925
35.948
35.969
35.988
36.004
36.017
36.026
36.03
36.03
36.026
36.019
36.008
35.994
35.977
35.959
35.939
35.918
35.895
35.871
35.847
35.821
35.795
35.768
35.741
35.713
35.687
35.661
35.636
35.613
35.592
35.571
35.552
35.532
35.513
35.492
35.471
35.449
35.426
35.402
35.378
35.353
35.327
35.3
35.272
35.242
35.21
35.178
35.146
35.114
35.083
35.053
35.023
34.995
34.967
34.941
34.917
34.894
34.872
34.851
34.831
34.812
34.792
34.773
34.755
34.737
34.72
34.704
34.69
34.677
34.667
34.657
34.649
34.642
34.636
34.631
34.627
34.623
34.619
34.615
34.61
34.604
34.596
34.588
34.578
34.566
34.554
34.54
34.525
34.51
34.493
34.477
34.46
34.444
34.429
34.414
34.4
34.387
34.374
34.36
34.346
34.331
34.314
34.296
34.276
34.256
34.233
34.209
34.184
34.157
34.13
34.102
34.074
34.046
34.019
33.994
33.972
33.951
33.934
33.92
33.91
33.905
33.905
33.912
33.927
33.951
33.986
34.032
34.09
34.161
34.245
34.341
34.449
34.569
34.698
34.836
34.98
35.129
35.28
35.431
35.581
35.727
35.869
36.003
36.13
36.247
36.354
36.451
36.537
36.613
36.678
36.734
36.78
36.817
36.845
36.866
36.88
36.888
36.892
36.892
36.89
36.885
36.879
36.873
36.868
36.862
36.858
36.854
36.85
36.845
36.84
36.833
36.825
36.814
36.801
36.786
36.77
36.751
36.73
36.708
36.684
36.659
36.632
36.605
36.576
36.545
36.513
36.481
36.447
36.413
36.379
36.343
36.308
36.272
36.237
36.202
36.167
36.133
36.1
36.069
36.039
36.013
35.99
35.972
35.958
35.948
35.943
35.942
35.945
35.951
35.96
35.972
35.985
36.0
36.017
36.034
36.051
36.068
36.083
36.096
36.107
36.115
36.122
36.125
36.126
36.124
36.12
36.113
36.104
36.092
36.079
36.064
36.048
36.03
36.012
35.992
35.971
35.949
35.926
35.902
35.878
35.852
35.825
35.797
35.768
35.739
35.709
35.679
35.65
35.62
35.591
35.562
35.534
35.507
35.48
35.454
35.427
35.399
35.37
35.34
35.308
35.277
35.246
35.215
35.185
35.156
35.128
35.101
35.075
35.049
35.025
35.002
34.979
34.958
34.937
34.916
34.897
34.878
34.86
34.842
34.824
34.806
34.788
34.771
34.753
34.734
34.716
34.698
34.679
34.661
34.643
34.626
34.609
34.592
34.576
34.56
34.545
34.53
34.516
34.503
34.49
34.477
34.465
34.452
34.44
34.428
34.417
34.406
34.394
34.381
34.367
34.352
34.337
34.321
34.306
34.291
34.277
34.265
34.255
34.246
34.238
34.23
34.222
34.213
34.203
34.192
34.179
34.166
34.151
34.135
34.117
34.097
34.076
34.054
34.03
34.007
33.984
33.962
33.941
33.922
33.905
33.891
33.88
33.872
33.868
33.868
33.873
33.886
33.906
33.936
33.976
34.028
34.092
34.17
34.26
34.362
34.477
34.602
34.737
34.88
35.029
35.184
35.341
35.498
35.654
35.806
35.952
36.091
36.22
36.339
36.446
36.542
36.627
36.699
36.76
36.809
36.848
36.876
36.895
36.906
36.909
36.907
36.901
36.892
36.88
36.867
36.854
36.84
36.828
36.816
36.806
36.798
36.792
36.788
36.785
36.784
36.784
36.785
36.786
36.788
36.789
36.791
36.791
36.79
36.787
36.781
36.772
36.76
36.746
36.728
36.708
36.684
36.657
36.628
36.596
36.562
36.526
36.488
36.448
36.408
36.368
36.329
36.292
36.258
36.228
36.203
36.184
36.17
36.162
36.16
36.162
36.17
36.18
36.194
36.209
36.226
36.241
36.257
36.271
36.283
36.294
36.303
36.309
36.312
36.311
36.307
36.3
36.289
36.275
36.258
36.239
36.219
36.198
36.177
36.154
36.131
36.108
36.084
36.059
36.033
36.008
