Trial 3:3back
32.738
32.717
32.697
32.678
32.657
32.636
32.614
32.59
32.566
32.541
32.517
32.494
32.471
32.45
32.431
32.413
32.396
32.38
32.364
32.347
32.329
32.304
32.273
32.235
32.194
32.152
32.112
32.076
32.046
32.023
32.008
32.002
32.003
32.012
32.025
32.042
32.059
32.074
32.086
32.091
32.091
32.084
32.072
32.056
32.035
32.012
31.989
31.965
31.942
31.921
31.901
31.882
31.865
31.849
31.835
31.823
31.813
31.809
31.813
31.828
31.859
31.909
31.981
32.08
32.21
32.372
32.568
32.799
33.063
33.359
33.685
34.037
34.413
34.806
35.211
35.624
36.039
36.449
36.85
37.237
37.607
37.955
38.278
38.576
38.846
39.086
39.297
39.479
39.636
39.769
39.879
39.967
40.036
40.087
40.121
40.142
40.15
40.148
40.136
40.117
40.091
40.061
40.026
39.989
39.951
39.912
39.875
39.839
39.806
39.776
39.747
39.72
39.695
39.672
39.651
39.63
39.611
39.591
39.57
39.548
39.524
39.495
39.462
39.423
39.377
39.325
39.266
39.201
39.129
39.053
38.972
38.889
38.803
38.717
38.631
38.547
38.464
38.384
38.307
38.233
38.163
38.097
38.036
37.98
37.927
37.879
37.833
37.792
37.755
37.723
37.695
37.67
37.648
37.628
37.61
37.593
37.574
37.555
37.533
37.51
37.485
37.457
37.426
37.391
37.353
37.312
37.267
37.22
37.17
37.119
37.066
37.012
36.956
36.898
36.838
36.775
36.71
36.643
36.574
36.503
36.433
36.364
36.296
36.232
36.169
36.109
36.049
35.988
35.927
35.865
35.801
35.736
35.668
35.599
35.529
35.459
35.39
35.322
35.255
35.189
35.125
35.062
35.002
34.944
34.889
34.838
34.791
34.747
34.706
34.667
34.629
34.589
34.548
34.504
34.457
34.409
34.359
34.308
34.259
34.213
34.169
34.129
34.091
34.055
34.022
33.99
33.96
33.928
33.896
33.862
33.827
33.791
33.755
33.717
33.679
33.642
33.607
33.575
33.546
33.52
33.497
33.476
33.456
33.436
33.416
33.395
33.373
33.349
33.325
33.3
33.274
33.247
33.219
33.191
33.162
33.134
33.106
33.078
33.051
33.025
33.0
32.975
32.951
32.928
32.905
32.881
32.857
32.831
32.804
32.776
32.747
32.717
32.687
32.658
32.629
32.601
32.574
32.549
32.526
32.504
32.483
32.461
32.439
32.417
32.393
32.37
32.346
32.322
32.299
32.277
32.255
32.233
32.212
32.192
32.173
32.156
32.141
32.127
32.114
32.103
32.091
32.08
32.067
32.052
32.036
32.019
32.0
31.98
31.96
31.939
31.918
31.899
31.881
31.865
31.849
31.834
31.819
31.805
31.793
31.782
31.775
31.772
31.777
31.792
31.822
31.87
31.939
32.034
32.16
32.319
32.512
32.739
33.001
33.294
33.618
33.967
34.338
34.727
35.127
35.534
35.942
36.347
36.742
37.122
37.483
37.822
38.134
38.418
38.673
38.898
39.093
39.26
39.401
39.517
39.61
39.681
39.733
39.767
39.786
39.793
39.791
39.78
39.763
39.741
39.715
39.685
39.654
39.621
39.588
39.554
39.522
39.491
39.46
39.429
39.397
39.365
39.331
39.296
39.26
39.222
39.184
39.144
39.102
39.056
39.006
38.951
38.891
38.826
38.757
38.685
38.61
38.534
38.456
38.378
38.3
38.223
38.146
38.069
37.993
37.92
37.851
37.788
37.732
37.683
37.642
37.609
37.584
37.566
37.554
37.547
37.544
37.545
37.549
37.556
37.564
37.573
37.581
37.587
37.591
37.59
37.586
37.577
37.563
37.545
37.524
37.501
37.475
37.446
37.415
37.382
37.347
37.308
37.267
37.222
37.174
37.121
37.066
37.008
36.947
36.883
36.816
36.747
36.677
36.604
36.531
36.455
36.378
36.3
36.222
36.145
36.069
35.996
35.927
35.861
35.798
35.739
35.682
35.627
35.573
35.519
35.465
35.411
35.357
35.302
35.246
35.19
35.134
35.078
35.022
34.966
34.911
34.858
34.806
34.756
34.707
34.661
34.618
34.577
34.539
34.501
34.464
34.427
34.39
34.354
34.316
34.276
34.235
34.194
34.153
34.112
34.073
34.036
34.002
33.972
33.945
33.921
33.9
33.881
33.863
33.848
33.833
33.817
33.801
33.783
33.764
33.743
33.721
33.697
33.671
33.644
33.616
33.589
33.563
33.538
33.515
33.493
33.473
33.455
33.437
33.419
33.402
33.385
33.367
33.349
33.33
33.309
33.286
33.262
33.238
33.213
33.188
33.163
33.138
33.113
33.088
33.062
33.037
33.01
32.982
32.954
32.926
32.898
32.871
32.844
32.819
32.796
32.773
32.752
32.731
32.711
32.69
32.669
32.648
32.626
32.603
32.58
32.556
32.533
32.512
32.494
32.48
32.47
32.465
32.469
32.482
32.507
32.548
32.608
32.69
32.798
32.935
33.103
33.304
33.539
33.806
34.106
34.435
34.79
35.164
35.551
35.946
36.342
36.735
37.117
37.486
37.836
38.163
38.466
38.741
38.986
39.201
39.386
39.542
39.67
39.774
39.854
39.915
39.958
39.986
40.002
40.008
40.006
39.998
39.985
39.968
39.949
39.927
39.903
39.876
39.847
39.815
39.782
39.748
39.712
39.676
39.639
39.604
39.569
39.534
39.499
39.464
39.426
39.385
39.34
39.291
39.235
39.174
39.105
39.03
38.948
38.86
38.766
38.669
38.568
38.467
38.365
38.264
38.167
38.072
37.983
37.9
37.823
37.752
37.687
37.628
37.575
37.527
37.486
37.451
37.421
37.396
37.375
37.358
37.344
37.332
37.321
37.311
37.301
37.291
37.28
37.269
37.258
37.245
37.23
37.212
37.192
37.168
37.141
37.111
37.078
37.043
37.004
36.963
36.919
36.871
36.821
36.767
36.711
36.651
36.59
36.526
36.46
36.394
36.328
36.262
36.196
36.13
36.063
35.997
35.93
35.865
35.8
35.735
35.671
35.607
35.544
35.48
35.415
35.349
35.281
35.212
35.141
35.069
34.997
34.927
34.859
34.793
34.731
34.672
34.616
34.562
34.511
34.462
34.414
34.367
34.32
34.274
34.229
34.184
34.141
34.1
34.059
34.02
33.983
33.946
33.909
33.872
33.835
33.798
33.761
33.725
33.691
33.659
33.632
33.608
33.589
33.574
33.561
33.549
33.537
33.522
33.503
33.482
33.456
33.428
33.399
33.369
33.341
33.316
33.293
33.273
33.256
33.241
33.226
33.212
33.196
33.18
33.163
33.146
33.129
33.113
33.097
33.082
33.069
33.057
33.045
33.032
33.019
33.004
32.987
32.967
32.946
32.922
32.896
32.87
32.846
32.822
32.802
32.783
32.767
32.753
32.741
32.73
32.718
32.705
32.69
32.673
32.654
32.633
32.61
32.585
32.559
32.532
32.506
32.481
32.456
32.432
32.408
32.385
32.362
32.34
32.319
32.301
32.286
32.274
32.269
32.27
32.281
32.305
32.346
32.409
32.496
32.611
32.759
32.941
33.159
33.415
33.707
34.032
34.387
34.768
35.169
35.586
36.011
36.437
36.86
37.272
37.668
38.045
38.398
38.724
39.023
39.292
39.531
39.741
39.923
40.077
40.205
40.308
40.39
40.452
40.498
40.528
40.545
40.553
40.551
40.543
40.529
40.511
40.489
40.466
40.441
40.415
40.389
40.363
40.335
40.305
40.272
40.238
40.203
40.169
40.135
40.103
40.071
40.041
40.011
39.981
39.95
39.917
39.88
39.84
39.796
39.747
39.692
39.631
39.564
39.491
39.413
39.328
39.239
39.146
39.05
38.951
38.852
38.752
38.654
38.557
38.463
38.374
38.291
38.214
38.143
38.078
38.02
37.969
37.923
37.884
37.849
37.818
37.792
37.769
37.749
37.73
37.712
37.693
37.672
37.649
37.623
37.594
37.562
37.528
37.493
37.456
37.418
37.379
37.337
37.293
37.246
37.197
37.145
37.088
37.024
36.952
36.874
36.792
36.708
36.625
36.542
36.462
36.384
36.31
36.239
36.17
36.104
36.041
35.981
35.923
35.868
35.814
35.76
35.705
35.649
35.59
35.529
35.466
35.4
35.333
35.265
35.198
35.132
35.066
35.002
34.938
34.874
34.81
34.745
34.679
34.613
34.548
34.485
34.426
34.369
34.317
34.269
34.225
34.185
34.148
34.113
34.08
34.047
34.014
33.982
33.948
33.913
33.877
33.84
33.803
33.766
33.727
33.687
33.648
33.61
33.575
33.543
33.513
33.485
33.46
33.435
33.411
33.387
33.361
33.333
33.304
33.273
33.241
33.208
33.174
33.139
33.106
33.074
33.043
33.013
32.983
32.955
32.928
32.901
32.875
32.849
32.824
32.798
32.771
32.745
32.717
32.689
32.659
32.629
32.599
32.57
32.543
32.519
32.499
32.483
32.471
32.46
32.449
32.438
32.424
32.408
32.389
32.367
32.342
32.315
32.286
32.257
32.227
32.197
32.169
32.143
32.123
32.106
32.093
32.082
32.073
32.064
32.054
32.043
32.029
32.014
31.995
31.974
31.95
31.924
31.897
31.869
31.841
31.813
31.786
31.76
31.736
31.713
31.692
31.673
31.659
31.65
31.648
31.656
31.677
31.715
31.775
31.859
31.972
32.117
32.296
32.51
32.76
33.045
33.364
33.715
34.093
34.496
34.918
35.354
35.798
36.243
36.683
37.113
37.527
37.919
38.287
38.627
38.938
39.217
39.466
39.683
39.87
40.027
40.157
40.26
40.341
40.401
40.443
40.47
40.482
40.481
40.469
40.447
40.418
40.384
40.348
40.313
40.281
40.253
40.229
40.209
40.193
40.18
40.169
40.159
40.149
40.14
40.131
40.12
40.109
40.094
40.074
40.049
40.018
39.979
39.934
39.882
39.824
39.759
39.689
39.612
39.529
39.44
39.345
39.247
39.145
39.042
38.94
38.84
38.745
38.654
38.568
38.488
38.413
38.344
38.28
38.222
38.17
38.122
38.078
38.039
38.003
37.97
37.939
37.909
37.883
37.864
37.85
37.841
37.835
37.829
37.822
37.812
37.797
37.776
37.749
37.716
37.677
37.633
37.584
37.531
37.475
37.416
37.354
37.291
37.225
37.158
37.089
37.019
36.947
36.873
36.796
36.718
36.638
36.559
36.481
36.404
36.328
36.255
36.183
36.114
36.046
35.979
35.913
35.848
35.784
35.72
35.656
35.592
35.526
35.46
35.392
35.322
35.252
35.181
35.109
35.039
34.97
34.903
34.839
34.777
34.717
34.658
34.599
34.542
34.486
34.43
34.374
34.317
34.259
34.202
34.145
34.089
34.034
33.981
33.93
33.882
33.837
33.794
33.755
33.718
33.683
33.649
33.617
33.585
33.555
33.526
33.498
33.471
33.444
33.416
33.387
33.356
33.324
33.29
33.255
33.22
33.184
33.148
33.113
33.08
33.047
33.016
32.987
32.959
32.933
32.908
32.883
32.858
32.831
32.805
32.777
32.747
32.717
32.686
32.655
32.625
32.595
32.566
32.538
32.511
32.486
32.461
32.436
32.41
32.383
32.355
32.325
32.294
32.263
32.232
32.203
32.177
32.156
32.139
32.125
32.114
32.105
32.096
32.086
32.075
32.061
32.044
32.024
32.003
31.98
31.958
31.936
31.916
31.9
31.889
31.882
31.879
31.879
31.879
31.878
31.875
31.87
31.861
31.849
31.834
31.817
31.799
31.782
31.765
31.751
31.739
31.732
31.728
31.727
31.729
31.732
31.735
31.738
31.74
31.739
31.736
31.729
31.721
31.71
31.7
31.689
31.679
31.67
31.665
31.663
31.666
31.677
31.699
31.737
31.793
31.872
31.976
32.109
32.271
32.467
32.696
32.959
33.257
33.588
33.95
34.339
34.753
35.186
35.633
36.086
36.539
36.986
37.421
37.838
38.234
38.603
38.943
39.251
39.526
39.767
39.975
40.151
40.295
40.41
40.5
40.567
40.614
40.644
40.658
40.66
40.651
40.635
40.613
40.586
40.556
40.523
40.489
40.454
40.42
40.385
40.35
40.315
40.28
40.245
40.21
40.174
40.137
40.098
40.057
40.015
39.97
39.921
39.866
39.806
39.74
39.669
39.595
39.516
39.436
39.354
39.272
39.19
39.109
39.028
38.947
38.867
38.788
38.709
38.632
38.556
38.483
38.412
38.345
38.281
38.221
38.165
38.115
38.071
38.031
37.997
37.966
37.938
37.912
37.888
37.866
37.843
37.821
37.797
37.772
37.747
37.72
37.692
37.663
37.633
37.603
37.571
37.537
37.502
37.464
37.422
37.377
37.328
37.276
37.222
37.167
37.11
37.052
36.993
36.932
36.868
36.802
36.733
36.662
36.589
36.514
36.438
36.361
36.28
36.188
36.088
35.982
35.872
35.762
35.654
35.552
35.457
35.372
35.296
35.232
35.178
35.134
35.098
35.067
35.04
35.013
34.984
34.953
34.919
34.882
34.843
34.801
34.756
34.708
34.659
34.608
34.556
34.502
34.448
34.393
34.338
34.284
34.231
34.18
34.131
34.086
34.043
33.999
33.956
33.912
33.868
33.826
33.785
33.746
33.709
33.674
33.642
33.613
33.586
33.562
33.54
33.518
33.498
33.478
33.457
33.431
33.396
33.351
33.298
33.239
33.177
33.113
33.051
32.993
32.941
32.896
32.859
32.829
32.807
32.792
32.784
32.78
32.779
32.78
32.78
32.778
32.773
32.763
32.749
32.732
32.711
32.688
32.663
32.635
32.605
32.573
32.54
32.507
32.475
32.443
32.411
32.379
32.347
32.316
32.285
32.254
32.223
32.193
32.164
32.137
32.112
32.089
32.068
32.049
32.032
32.016
32.002
31.989
31.976
31.964
31.953
31.942
31.931
31.918
31.905
31.892
31.879
31.866
31.853
31.84
31.827
31.814
31.803
31.793
31.785
31.779
31.774
31.771
31.768
31.765
31.762
31.756
31.748
31.738
31.726
31.71
31.693
31.672
31.65
31.626
31.6
31.574
31.548
31.522
31.497
31.474
31.452
31.434
31.421
31.414
31.415
31.429
31.458
31.506
31.579
31.68
31.814
31.985
32.195
32.445
32.737
33.068
33.436
33.838
34.269
34.722
35.192
35.672
36.156
36.635
37.104
37.556
37.985
38.386
38.755
39.09
39.388
39.65
39.877
40.071
40.233
40.367
40.474
40.557
40.619
40.665
40.695
40.713
40.72
40.716
40.702
40.678
40.644
40.6
40.548
40.488
40.422
40.352
40.283
40.214
40.149
40.087
40.03
39.977
39.929
39.885
39.846
39.81
39.776
39.743
39.71
39.675
39.637
39.594
39.545
39.491
39.431
39.364
39.292
39.213
39.13
39.042
38.951
38.856
38.759
38.66
38.561
38.463
38.369
38.282
38.201
38.128
38.062
38.003
37.949
37.901
37.858
37.819
37.784
37.752
37.723
37.696
37.672
37.649
37.626
37.605
37.585
37.564
37.542
37.516
37.488
37.457
37.423
37.386
37.345
37.303
37.259
37.215
37.172
37.129
37.087
37.046
37.006
36.967
36.927
36.887
36.844
36.798
36.748
36.693
36.636
36.577
36.514
36.447
36.376
36.302
36.225
36.144
36.062
35.979
35.896
35.812
35.73
35.648
35.567
35.488
35.41
35.334
35.26
35.188
35.118
35.05
34.983
34.918
34.854
34.791
34.729
34.668
34.609
34.55
34.493
34.438
34.383
34.328
34.274
34.22
34.166
34.113
34.059
34.005
33.953
33.902
33.854
33.807
33.763
33.722
33.682
33.644
33.608
33.572
33.537
33.502
33.467
33.432
33.397
33.363
33.329
33.296
33.265
33.235
33.207
33.181
33.156
33.131
33.108
33.084
33.06
33.035
33.01
32.985
32.96
32.935
32.911
32.887
32.863
32.841
32.821
32.8
32.779
32.757
32.733
32.708
32.681
32.651
32.62
32.586
32.553
32.519
32.487
32.457
32.43
32.405
32.382
32.362
32.343
32.322
32.299
32.271
32.24
32.205
32.167
32.13
32.094
32.061
32.032
32.009
31.99
31.977
31.969
31.964
31.961
31.96
31.958
31.955
31.95
31.943
31.934
31.923
31.911
31.898
31.884
31.871
31.859
31.849
31.841
31.834
31.828
31.823
31.818
31.81
31.8
31.787
31.773
31.757
31.739
31.722
31.705
31.69
31.675
31.662
31.65
31.637
31.625
31.611
31.598
31.584
31.57
31.555
31.54
31.527
31.516
31.507
31.499
31.491
31.488
31.493
31.513
31.552
31.616
31.71
31.838
32.004
32.21
32.457
32.745
33.072
33.435
33.83
34.252
34.696
35.155
35.623
36.093
36.56
37.016
37.457
37.875
38.268
38.63
38.958
39.252
39.511
39.733
39.921
40.076
40.2
40.295
40.364
40.409
40.434
40.441
40.433
40.413
40.384
40.346
40.303
40.254
40.202
40.146
40.089
40.03
39.97
39.91
39.851
39.791
39.732
39.674
39.616
39.559
39.503
39.448
39.393
39.336
39.278
39.216
39.151
39.082
39.01
38.935
38.855
38.771
38.683
38.591
38.495
38.397
38.296
38.195
38.094
37.996
37.901
37.81
37.724
37.643
37.569
37.501
37.441
37.389
37.344
37.306
37.276
37.254
37.237
37.225
37.217
37.211
37.208
37.205
37.204
37.203
37.203
37.203
37.203
37.202
37.201
37.197
37.191
37.182
37.17
37.156
37.139
37.119
37.098
37.073
37.047
37.017
36.983
36.944
36.899
36.848
36.793
36.733
36.67
36.604
36.536
36.466
36.395
36.322
36.249
36.175
36.099
36.023
35.945
35.866
35.786
35.707
35.628
35.551
35.479
35.41
35.344
35.283
35.223
35.166
35.11
35.055
35.0
34.945
34.89
34.837
34.785
34.734
34.683
34.633
34.581
34.528
34.473
34.415
34.354
34.29
34.225
34.161
34.098
34.039
33.983
33.932
33.885
33.843
33.804
33.768
33.734
33.701
33.668
33.637
33.607
33.578
33.55
33.523
33.497
33.471
33.446
33.422
33.398
33.374
33.352
33.331
33.312
33.293
33.278
33.271
33.272
33.278
33.287
33.295
33.3
33.299
33.292
33.279
33.259
33.233
33.2
33.162
33.121
33.076
33.03
32.981
32.932
32.883
32.833
32.786
32.739
32.694
32.652
32.612
32.575
32.541
32.509
32.481
32.455
32.433
32.413
32.396
32.381
32.368
32.355
32.343
32.33
32.316
32.301
32.284
32.265
32.243
32.22
32.196
32.169
32.141
32.113
32.086
32.058
32.032
32.006
31.981
31.958
31.936
31.913
31.89
31.867
31.844
31.821
31.8
31.782
31.767
31.758
31.757
31.768
31.793
31.837
31.903
31.995
32.117
32.272
32.463
32.69
32.955
33.257
33.596
33.967
34.368
34.794
35.237
35.693
36.154
36.613
37.064
37.501
37.918
38.313
38.682
39.022
39.332
39.61
39.855
40.067
40.249
40.402
40.528
40.63
40.71
40.769
40.811
40.837
40.85
40.852
40.846
40.833
40.814
40.791
40.764
40.732
40.695
40.653
40.607
40.557
40.505
40.451
40.397
40.342
40.287
40.233
40.178
40.124
40.069
40.015
39.963
39.912
39.863
39.814
39.764
39.713
39.659
39.6
39.536
39.467
39.393
39.313
39.228
39.138
39.043
38.943
38.839
38.732
38.623
38.514
38.407
38.303
38.203
38.108
38.021
37.941
37.869
37.804
37.748
37.699
37.658
37.624
37.595
37.572
37.554
37.538
37.525
37.511
37.494
37.474
37.451
37.425
37.399
37.374
37.349
37.326
37.304
37.282
37.26
37.237
37.212
37.185
37.155
37.121
37.083
37.039
36.991
36.936
36.876
36.81
36.74
36.666
36.589
36.508
36.427
36.345
36.264
36.183
36.102
36.021
35.941
35.863
35.786
35.71
35.635
35.561
35.488
35.416
35.344
35.273
35.203
35.133
35.063
34.992
34.923
34.854
34.788
34.724
34.663
34.604
34.547
34.493
34.441
34.39
34.34
34.291
34.242
34.193
34.143
34.093
34.041
33.989
33.937
33.884
33.831
33.778
33.728
33.679
33.633
33.59
33.55
33.513
33.479
33.448
33.419
33.392
33.366
33.341
33.316
33.292
33.266
33.239
33.21
33.179
33.147
33.115
33.083
33.05
33.018
32.986
32.955
32.925
32.896
32.868
32.842
32.818
32.796
32.775
32.755
32.734
32.713
32.692
32.67
32.646
32.622
32.596
32.569
32.542
32.516
32.489
32.464
32.438
32.413
32.39
32.368
32.346
32.325
32.303
32.281
32.258
32.233
32.206
32.179
32.151
32.122
32.095
32.068
32.042
32.018
31.995
31.975
31.955
31.937
31.917
31.897
31.876
31.853
31.828
31.802
31.774
31.747
31.72
31.694
31.669
31.646
31.625
31.604
31.585
31.566
31.547
31.527
31.506
31.485
31.467
31.455
31.451
31.461
31.49
31.543
31.626
31.742
31.896
32.09
32.326
32.606
32.926
33.285
33.679
34.101
34.548
35.013
35.49
35.973
36.454
36.927
37.386
37.824
38.237
38.62
38.97
39.286
39.567
39.814
40.026
40.205
40.351
40.468
40.556
40.621
40.666
40.695
40.709
40.713
40.708
40.697
40.681
40.662
40.64
40.616
40.591
40.564
40.536
40.507
40.478
40.446
40.412
40.375
40.336
40.294
40.251
40.209
40.168
40.129
40.093
40.058
40.024
39.989
39.952
39.912
39.868
39.818
39.763
39.701
39.632
39.557
39.476
39.389
39.296
39.199
39.098
38.996
38.893
38.791
38.691
38.594
38.502
38.415
38.335
38.263
38.199
38.143
38.094
38.054
38.02
37.992
37.97
37.952
37.937
37.923
37.908
37.893
37.876
37.858
37.836
37.813
37.788
37.76
37.73
37.696
37.659
37.619
37.577
37.535
37.493
37.451
37.409
37.367
37.325
37.283
37.24
37.194
37.147
37.097
37.045
36.99
36.932
36.87
36.804
36.733
36.658
36.579
36.497
36.411
36.324
36.236
36.148
36.06
35.974
35.889
35.806
35.726
35.648
35.572
35.498
35.426
35.358
35.292
35.229
35.168
35.109
35.05
34.992
34.934
34.876
34.818
34.761
34.703
34.647
34.592
34.539
34.489
34.44
34.393
34.346
34.298
34.25
34.202
34.153
34.104
34.057
