Trial 3:3back
34.078
34.123
34.179
34.246
34.324
34.414
34.513
34.622
34.739
34.863
34.991
35.123
35.256
35.389
35.517
35.64
35.755
35.859
35.952
36.033
36.1
36.154
36.195
36.224
36.24
36.246
36.243
36.231
36.212
36.188
36.159
36.129
36.096
36.064
36.033
36.003
35.977
35.954
35.934
35.917
35.904
35.894
35.886
35.88
35.875
35.871
35.868
35.864
35.86
35.854
35.848
35.839
35.829
35.817
35.805
35.791
35.776
35.761
35.745
35.728
35.711
35.693
35.676
35.658
35.641
35.624
35.608
35.594
35.581
35.571
35.564
35.559
35.558
35.56
35.565
35.572
35.582
35.594
35.607
35.62
35.633
35.646
35.657
35.667
35.674
35.679
35.68
35.677
35.672
35.663
35.651
35.637
35.62
35.602
35.582
35.561
35.54
35.519
35.497
35.475
35.452
35.428
35.404
35.38
35.355
35.329
35.304
35.28
35.256
35.234
35.213
35.193
35.173
35.155
35.137
35.12
35.102
35.085
35.068
35.05
35.031
35.013
34.994
34.975
34.956
34.937
34.918
34.899
34.88
34.862
34.844
34.826
34.809
34.793
34.777
34.763
34.75
34.737
34.726
34.716
34.706
34.698
34.69
34.683
34.676
34.669
34.662
34.654
34.646
34.638
34.629
34.619
34.609
34.599
34.588
34.576
34.564
34.551
34.537
34.524
34.511
34.499
34.487
34.476
34.466
34.457
34.449
34.441
34.434
34.428
34.421
34.414
34.408
34.401
34.394
34.387
34.378
34.369
34.358
34.345
34.332
34.316
34.298
34.279
34.257
34.235
34.213
34.191
34.17
34.149
34.13
34.112
34.096
34.081
34.069
34.059
34.052
34.05
34.053
34.063
34.08
34.106
34.141
34.187
34.245
34.315
34.396
34.489
34.591
34.704
34.823
34.949
35.078
35.208
35.336
35.46
35.578
35.686
35.785
35.871
35.944
36.004
36.051
36.085
36.106
36.116
36.115
36.106
36.089
36.067
36.04
36.011
35.981
35.951
35.922
35.895
35.869
35.846
35.826
35.809
35.794
35.781
35.77
35.76
35.75
35.741
35.731
35.722
35.712
35.701
35.689
35.676
35.662
35.648
35.633
35.619
35.605
35.591
35.577
35.562
35.546
35.531
35.514
35.498
35.481
35.464
35.447
35.431
35.416
35.402
35.391
35.382
35.376
35.373
35.375
35.381
35.39
35.403
35.419
35.435
35.452
35.468
35.481
35.491
35.498
35.501
35.501
35.496
35.489
35.477
35.463
35.446
35.427
35.405
35.382
35.357
35.332
35.308
35.284
35.262
35.241
35.221
35.203
35.185
35.167
35.15
35.131
35.113
35.093
35.073
35.051
35.029
35.006
34.981
34.955
34.927
34.899
34.869
34.84
34.81
34.781
34.753
34.726
34.7
34.675
34.652
34.629
34.608
34.587
34.568
34.55
34.532
34.515
34.498
34.482
34.466
34.45
34.434
34.418
34.403
34.387
34.372
34.357
34.342
34.328
34.315
34.301
34.288
34.275
34.262
34.249
34.236
34.224
34.213
34.203
34.193
34.183
34.174
34.166
34.157
34.149
34.141
34.134
34.126
34.119
34.113
34.107
34.1
34.093
34.085
34.077
34.066
34.055
34.043
34.03
34.016
34.001
33.984
33.966
33.945
33.924
33.902
33.879
33.856
33.833
33.812
33.791
33.773
33.758
33.747
33.741
33.74
33.747
33.762
33.786
33.819
33.863
33.917
33.981
34.055
34.138
34.231
34.333
34.441
34.556
34.675
34.796
34.917
35.036
35.152
35.262
35.364
35.458
35.542
35.614
35.676
35.725
35.764
35.792
35.809
35.818
35.817
35.809
35.796
35.778
35.757
35.735
35.712
35.689
35.667
35.646
35.626
35.609
35.593
35.579
35.568
35.558
35.55
35.543
35.536
35.529
35.522
35.515
35.509
35.503
35.496
35.49
35.483
35.474
35.463
35.45
35.435
35.419
35.401
35.381
35.36
35.339
35.318
35.298
35.278
35.26
35.243
35.228
35.215
35.204
35.196
35.191
35.19
35.192
35.197
35.204
35.212
35.221
35.23
35.239
35.246
35.253
35.257
35.26
35.261
35.26
35.257
35.251
35.243
35.233
35.22
35.204
35.187
35.168
35.147
35.126
35.105
35.084
35.063
35.044
35.027
35.011
34.996
34.983
34.97
34.957
34.944
34.93
34.915
34.898
34.879
34.858
34.836
34.811
34.785
34.759
34.732
34.705
34.68
34.657
34.634
34.614
34.595
34.578
34.562
34.547
34.534
34.522
34.511
34.5
34.49
34.479
34.467
34.455
34.442
34.429
34.414
34.4
34.385
34.37
34.356
34.341
34.328
34.316
34.305
34.295
34.287
34.279
34.271
34.263
34.255
34.247
34.239
34.23
34.221
34.211
34.201
34.191
34.18
34.169
34.158
34.147
34.135
34.123
34.111
34.1
34.089
34.078
34.068
34.058
34.048
34.039
34.03
34.021
34.011
33.999
33.986
33.972
33.955
33.937
33.917
33.896
33.873
33.85
33.825
33.801
33.776
33.753
33.73
33.71
33.692
33.676
33.664
33.655
33.651
33.651
33.657
33.67
33.691
33.721
33.761
33.811
33.872
33.944
34.027
34.121
34.225
34.337
34.457
34.583
34.712
34.843
34.973
35.1
35.222
35.336
35.442
35.537
35.62
35.69
35.748
35.792
35.823
35.842
35.85
35.85
35.841
35.826
35.807
35.785
35.761
35.737
35.714
35.692
35.671
35.651
35.634
35.618
35.605
35.593
35.583
35.575
35.568
35.563
35.56
35.558
35.557
35.556
35.555
35.554
35.554
35.554
35.555
35.556
35.556
35.555
35.551
35.545
35.537
35.525
35.511
35.493
35.474
35.454
35.433
35.412
35.391
35.372
35.355
35.34
35.328
35.318
35.312
35.308
35.307
35.308
35.311
35.316
35.322
35.329
35.337
35.344
35.351
35.356
35.359
35.36
35.358
35.353
35.345
35.335
35.323
35.309
35.295
35.28
35.263
35.246
35.228
35.209
35.189
35.169
35.15
35.13
35.111
35.093
35.076
35.059
35.042
35.026
35.01
34.994
34.977
34.959
34.94
34.921
34.901
34.88
34.859
34.839
34.819
34.799
34.781
34.763
34.745
34.727
34.709
34.692
34.674
34.657
34.64
34.623
34.607
34.591
34.576
34.561
34.547
34.532
34.518
34.503
34.49
34.476
34.464
34.453
34.444
34.436
34.429
34.424
34.419
34.415
34.411
34.405
34.398
34.389
34.377
34.364
34.349
34.334
34.318
34.302
34.287
34.273
34.26
34.247
34.235
34.225
34.217
34.211
34.206
34.203
34.201
34.199
34.198
34.197
34.195
34.192
34.187
34.179
34.169
34.157
34.143
34.127
34.109
34.089
34.067
34.045
34.021
33.997
33.973
33.95
33.928
33.908
33.89
33.874
33.863
33.856
33.853
33.858
33.871
33.892
33.923
33.965
34.02
34.086
34.166
34.258
34.362
34.476
34.599
34.729
34.862
34.996
35.13
35.26
35.384
35.5
35.607
35.702
35.786
35.856
35.914
35.958
35.989
36.009
36.017
36.016
36.006
35.99
35.968
35.944
35.918
35.891
35.865
35.841
35.818
35.798
35.781
35.767
35.756
35.748
35.742
35.739
35.737
35.737
35.737
35.738
35.739
35.741
35.742
35.744
35.746
35.747
35.748
35.747
35.745
35.74
35.733
35.724
35.712
35.698
35.682
35.665
35.646
35.627
35.608
35.589
35.571
35.555
35.542
35.533
35.527
35.526
35.528
35.533
35.541
35.553
35.566
35.58
35.596
35.612
35.628
35.643
35.656
35.666
35.673
35.676
35.674
35.669
35.661
35.649
35.636
35.621
35.604
35.585
35.566
35.546
35.526
35.506
35.486
35.468
35.45
35.434
35.418
35.404
35.389
35.375
35.361
35.346
35.332
35.317
35.302
35.287
35.272
35.257
35.243
35.229
35.216
35.204
35.192
35.18
35.168
35.155
35.143
35.129
35.116
35.101
35.086
35.07
35.054
35.037
35.02
35.003
34.987
34.971
34.956
34.943
34.931
34.92
34.911
34.903
34.898
34.893
34.89
34.887
34.885
34.884
34.882
34.88
34.878
34.874
34.87
34.864
34.857
34.85
34.842
34.835
34.827
34.82
34.814
34.808
34.803
34.799
34.795
34.791
34.787
34.781
34.775
34.767
34.758
34.748
34.736
34.722
34.708
34.692
34.674
34.655
34.635
34.614
34.592
34.569
34.547
34.526
34.507
34.492
34.482
34.479
34.485
34.502
34.53
34.571
34.625
34.692
34.774
34.868
34.975
35.091
35.216
35.347
35.481
35.616
35.749
35.877
35.998
36.111
36.212
36.302
36.377
36.437
36.483
36.515
36.534
36.54
36.536
36.523
36.502
36.476
36.446
36.414
36.38
36.346
36.314
36.284
36.257
36.234
36.215
36.2
36.188
36.179
36.171
36.165
36.16
36.156
36.153
36.149
36.145
36.141
36.136
36.129
36.122
36.113
36.103
36.091
36.078
36.063
36.047
36.03
36.012
35.994
35.976
35.957
35.939
35.922
35.907
35.893
35.882
35.875
35.87
35.87
35.873
35.88
35.89
35.903
35.918
35.936
35.956
35.976
35.997
36.017
36.036
36.052
36.066
36.077
36.084
36.087
36.085
36.079
36.069
36.055
36.039
36.02
36.0
35.979
35.958
35.938
35.918
35.899
35.88
35.862
35.844
35.826
35.808
35.79
35.771
35.753
35.735
35.716
35.698
35.681
35.663
35.646
35.628
35.61
35.592
35.573
35.554
35.533
35.511
35.488
35.465
35.442
35.419
35.396
35.374
35.354
35.334
35.317
35.3
35.284
35.268
35.253
35.238
35.223
35.209
35.194
35.179
35.164
35.148
35.132
35.116
35.099
35.083
35.068
35.053
35.039
35.025
35.012
34.999
34.984
34.968
34.951
34.934
34.915
34.896
34.876
34.857
34.837
34.817
34.798
34.777
34.757
34.737
34.716
34.697
34.68
34.664
34.652
34.643
34.639
34.64
34.646
34.66
34.68
34.709
34.748
34.796
34.854
34.924
35.006
35.098
35.201
35.312
35.431
35.555
35.683
35.811
35.938
36.061
36.179
36.289
36.39
36.481
36.56
36.626
36.68
36.723
36.755
36.776
36.789
36.794
36.792
36.784
36.772
36.757
36.739
36.721
36.702
36.684
36.667
36.651
36.636
36.623
36.61
36.599
36.589
36.58
36.571
36.564
36.558
36.552
36.547
36.542
36.537
36.532
36.526
36.519
36.511
36.5
36.487
36.472
36.453
36.433
36.41
36.386
36.361
36.337
36.314
36.293
36.274
36.258
36.245
36.236
36.229
36.226
36.227
36.231
36.237
36.246
36.257
36.27
36.284
36.297
36.31
36.322
36.331
36.338
36.342
36.343
36.341
36.335
36.327
36.315
36.3
36.283
36.263
36.241
36.218
36.193
36.166
36.139
36.112
36.085
36.059
36.033
36.008
35.984
35.961
35.939
35.916
35.893
35.87
35.847
35.823
35.799
35.774
35.749
35.723
35.697
35.671
35.645
35.619
35.594
35.569
35.545
35.522
35.499
35.478
35.457
35.436
35.417
35.399
35.381
35.364
35.348
35.333
35.318
35.303
35.289
35.275
35.261
35.247
35.232
35.217
35.203
35.189
35.177
35.167
35.157
35.148
35.14
35.133
35.126
35.119
35.112
35.103
35.094
35.083
35.071
35.058
35.044
35.03
35.015
34.999
34.983
34.966
34.949
34.932
34.915
34.899
34.886
34.874
34.866
34.86
34.858
34.86
34.869
34.885
34.909
34.943
34.987
35.042
35.109
35.187
35.276
35.377
35.489
35.609
35.737
35.871
36.01
36.15
36.288
36.423
36.552
36.672
36.783
36.881
36.968
37.041
37.1
37.146
37.178
37.199
37.208
37.207
37.198
37.183
37.162
37.138
37.112
37.084
37.057
37.031
37.007
36.987
36.97
36.957
36.946
36.939
36.934
36.931
36.929
36.927
36.925
36.923
36.92
36.916
36.912
36.907
36.9
36.893
36.883
36.873
36.86
36.847
36.832
36.815
36.798
36.779
36.759
36.738
36.717
36.696
36.675
36.655
36.636
36.62
36.606
36.594
36.587
36.582
36.581
36.583
36.587
36.593
36.601
36.608
36.615
36.62
36.624
36.625
36.625
36.623
36.618
36.611
36.602
36.59
36.577
36.561
36.544
36.524
36.503
36.48
36.455
36.429
36.403
36.378
36.353
36.329
36.306
36.283
36.261
36.24
36.218
36.197
36.175
36.153
36.131
36.109
36.086
36.062
36.037
36.012
35.986
35.959
35.931
35.903
35.873
35.843
35.811
35.779
35.746
35.713
35.68
35.649
35.619
35.591
35.564
35.539
35.515
35.492
35.469
35.448
35.428
35.408
35.389
35.37
35.351
35.332
35.314
35.295
35.277
35.26
35.244
35.229
35.214
35.201
35.189
35.176
35.164
35.151
35.137
35.121
35.103
35.083
35.061
35.037
35.011
34.985
34.957
34.93
34.902
34.876
34.849
34.824
34.8
34.778
34.758
34.741
34.728
34.719
34.716
34.72
34.73
34.748
34.775
34.811
34.856
34.911
34.977
35.054
35.142
35.24
35.347
35.462
35.584
35.71
35.838
35.967
36.093
36.215
36.33
36.437
36.533
36.618
36.691
36.75
36.796
36.83
36.851
36.862
36.863
36.855
36.841
36.821
36.798
36.772
36.744
36.716
36.688
36.66
36.633
36.608
36.585
36.564
36.546
36.53
36.516
36.504
36.494
36.486
36.479
36.473
36.466
36.459
36.452
36.445
36.437
36.429
36.421
36.411
36.399
36.386
36.371
36.353
36.333
36.312
36.288
36.262
36.236
36.209
36.183
36.158
36.135
36.115
36.098
36.085
36.076
36.07
36.069
36.07
36.074
36.08
36.088
36.097
36.106
36.114
36.12
36.125
36.127
36.125
36.119
36.108
36.092
36.073
36.05
36.024
35.995
35.964
35.931
35.896
35.861
35.827
35.793
35.76
35.73
35.702
35.675
35.65
35.626
35.604
35.582
35.561
35.541
35.52
35.499
35.478
35.456
35.433
35.41
35.386
35.361
35.335
35.308
35.279
35.25
35.219
35.188
35.156
35.124
35.092
35.06
35.029
34.999
34.969
34.94
34.913
34.888
34.864
34.843
34.822
34.803
34.786
34.77
34.756
34.742
34.728
34.714
34.7
34.686
34.671
34.655
34.639
34.622
34.604
34.586
34.569
34.552
34.536
34.522
34.508
34.494
34.482
34.469
34.456
34.442
34.427
34.41
34.392
34.372
34.35
34.326
34.3
34.272
34.242
34.212
34.182
34.151
34.122
34.094
34.068
34.046
34.027
34.013
34.003
34.0
34.002
34.011
34.027
34.052
34.086
34.129
34.183
34.247
34.323
34.41
34.506
34.613
34.727
34.848
34.972
35.096
35.22
35.341
35.456
35.564
35.663
35.751
35.827
35.891
35.942
35.98
36.006
36.02
36.024
36.019
36.008
35.99
35.968
35.942
35.915
35.888
35.861
35.834
35.809
35.786
35.766
35.749
35.734
35.722
35.713
35.705
35.698
35.692
35.687
35.682
35.678
35.674
35.67
35.667
35.664
35.661
35.656
35.649
35.641
35.63
35.618
35.603
35.585
35.565
35.542
35.517
35.49
35.463
35.436
35.409
35.384
35.362
35.343
35.329
35.319
35.314
35.315
35.32
35.328
35.34
35.353
35.367
35.381
35.395
35.408
35.418
35.427
35.432
35.434
35.432
35.425
35.414
35.399
35.38
35.358
35.333
35.307
35.279
35.25
35.22
35.19
35.16
35.13
35.101
35.074
35.047
35.021
34.996
34.973
34.95
34.929
34.908
34.889
34.871
34.854
34.838
34.822
34.804
34.785
34.764
34.742
34.718
34.693
34.667
34.64
34.614
34.587
34.56
34.534
34.509
34.485
34.462
34.44
34.42
34.401
34.384
34.367
34.352
34.337
34.323
34.31
34.297
34.285
34.273
34.262
34.252
34.243
34.234
34.226
34.218
34.21
34.202
34.194
34.185
34.176
34.167
34.157
34.146
34.135
34.123
34.109
34.094
34.078
34.06
34.041
34.022
34.001
33.98
33.958
33.936
33.913
33.89
33.866
33.844
33.823
33.803
33.786
33.772
33.761
33.754
33.752
33.754
33.761
33.774
33.794
33.822
33.859
33.905
33.962
34.028
34.104
34.189
34.282
34.383
34.489
34.6
34.714
34.829
34.944
35.056
35.162
35.262
35.354
35.435
35.505
35.561
35.604
35.634
35.65
35.655
35.65
35.635
35.614
35.586
35.555
35.52
35.485
35.449
35.414
35.381
35.349
35.32
35.295
35.272
35.252
35.236
35.222
35.21
35.2
35.192
35.185
35.178
35.17
35.163
35.155
35.146
35.136
35.126
35.115
35.103
35.089
35.074
35.057
35.037
35.017
34.994
34.971
34.947
34.923
34.9
34.878
34.857
34.838
34.821
34.806
34.795
34.787
34.783
34.782
34.784
34.789
34.796
34.806
34.816
34.828
34.84
34.853
34.865
34.875
34.884
34.89
34.894
34.895
34.892
34.885
34.876
34.863
34.848
34.83
34.81
34.788
34.765
34.741
34.718
34.694
34.672
34.65
34.629
34.61
34.592
34.575
34.558
34.541
34.525
34.508
34.491
34.473
34.454
34.434
34.413
34.391
34.369
34.346
34.325
34.304
34.285
34.267
34.251
34.236
34.222
34.209
34.196
34.182
34.169
34.155
34.141
34.127
34.115
34.103
34.092
34.082
34.073
34.065
34.058
34.052
34.046
34.041
34.035
34.029
34.022
34.014
34.005
33.994
33.981
33.967
33.953
33.938
33.924
33.909
33.895
33.881
33.868
33.854
33.841
33.827
33.812
33.796
33.779
33.76
33.74
33.72
33.7
33.682
33.665
33.649
33.636
33.624
33.615
33.61
33.608
33.612
33.622
33.638
33.663
33.696
33.738
33.79
33.853
33.925
34.006
34.096
34.193
34.296
34.404
34.514
34.624
34.733
34.839
34.939
35.031
35.115
35.188
35.25
35.302
35.341
35.37
35.388
35.396
35.396
35.389
35.376
35.359
35.339
35.317
35.295
35.274
35.254
35.235
35.219
35.206
35.195
35.186
35.181
35.177
35.176
35.176
35.177
35.179
35.18
35.181
35.181
35.181
35.179
35.175
35.17
35.164
35.155
35.145
35.133
35.12
35.106
35.091
35.075
35.058
35.04
35.021
35.002
34.984
34.966
34.949
34.933
34.919
34.907
34.897
34.89
34.886
34.885
34.887
34.892
34.9
34.91
34.921
34.934
34.948
34.961
34.974
34.985
34.995
35.001
35.005
35.005
35.001
34.994
34.983
34.969
34.952
34.933
34.911
34.888
34.864
34.839
34.814
34.788
34.762
34.736
34.711
34.685
34.66
34.637
34.614
34.594
34.574
34.556
34.539
34.524
34.508
34.493
34.479
34.464
34.449
34.433
34.417
34.4
34.383
34.365
34.348
34.332
34.316
34.302
34.288
34.274
34.262
34.25
34.239
34.228
34.218
34.207
34.196
34.186
34.176
34.165
34.154
34.143
34.131
34.119
34.107
34.095
34.083
34.072
34.061
34.051
34.043
34.034
34.027
34.019
34.012
34.005
33.997
33.99
33.983
33.976
33.97
33.965
33.961
33.956
33.952
33.947
33.941
33.934
33.926
33.916
33.906
33.894
33.881
33.866
33.851
33.834
33.817
33.799
33.781
33.765
33.75
33.737
33.727
33.719
33.715
33.713
33.716
33.723
33.737
33.757
33.785
33.822
33.868
33.926
33.995
34.075
34.167
34.267
34.376
34.492
34.611
34.731
34.85
34.966
35.076
35.179
35.273
35.356
35.428
35.489
35.537
35.572
35.596
35.61
35.614
35.611
35.602
35.588
35.57
35.549
35.526
35.502
35.478
35.455
35.432
35.411
35.393
35.377
35.363
35.352
35.345
35.339
35.337
35.336
35.338
35.341
35.346
35.352
35.357
35.362
35.366
35.369
35.371
35.371
35.369
35.366
35.361
35.354
35.344
35.332
35.318
35.302
35.285
35.267
35.25
35.232
35.215
35.2
35.186
35.174
35.165
35.16
35.158
35.16
35.165
35.173
35.183
35.195
35.207
35.22
35.233
35.245
35.256
35.264
35.27
35.273
35.273
35.269
35.262
35.251
35.238
35.223
35.206
35.187
35.167
35.146
35.126
35.105
35.085
35.065
35.045
35.026
35.007
34.989
34.97
34.952
34.933
34.914
34.895
34.876
34.858
34.841
34.824
34.808
34.792
34.776
34.76
34.743
34.727
34.71
34.694
34.677
34.661
34.645
34.629
34.613
34.596
34.579
34.562
34.544
34.526
34.508
34.49
34.472
34.454
34.437
34.421
34.406
34.392
34.38
34.369
34.36
34.351
34.343
34.334
34.326
34.317
34.307
34.296
34.284
34.272
34.259
34.246
34.233
34.221
34.209
34.198
34.187
34.177
34.166
34.157
34.147
34.139
34.13
34.123
34.116
34.109
34.104
34.099
34.093
34.087
34.08
34.072
34.063
34.052
34.04
34.025
34.009
33.992
33.973
33.952
33.931
33.908
33.886
33.864
33.844
33.825
33.809
33.797
33.789
33.787
33.791
33.801
33.819
33.845
33.881
33.926
33.98
34.045
34.119
34.201
34.292
34.391
34.496
34.606
34.721
34.837
34.955
35.07
35.181
35.286
35.383
35.469
35.544
35.608
35.66
35.7
35.729
35.748
35.757
35.758
35.752
35.741
35.726
35.709
35.69
35.671
35.652
35.636
35.622
35.61
35.602
35.597
35.596
35.599
35.604
35.612
35.622
35.634
35.646
35.658
35.669
35.678
35.687
35.693
35.698
35.701
35.701
35.701
35.698
35.694
35.688
35.681
35.672
35.66
35.648
35.633
35.617
35.601
35.583
35.564
35.545
35.527
35.509
35.493
35.478
35.466
35.455
35.446
35.437
35.429
35.422
35.415
35.409
35.403
35.397
35.392
35.387
35.384
35.38
35.376
35.373
35.368
35.363
35.357
35.35
35.341
35.33
35.318
35.304
35.288
35.27
35.249
35.226
35.201
35.174
35.145
35.114
35.082
35.049
35.015
34.98
34.946
34.911
34.876
34.843
34.811
34.782
34.755
34.731
34.709
34.69
34.672
34.656
34.641
34.627
34.613
34.6
34.587
34.576
34.565
