Trial 3:3back
35.009
34.977
34.946
34.914
34.882
34.851
34.819
34.787
34.756
34.725
34.694
34.665
34.637
34.609
34.582
34.556
34.532
34.508
34.485
34.462
34.44
34.417
34.393
34.369
34.344
34.319
34.295
34.271
34.25
34.232
34.219
34.214
34.219
34.236
34.268
34.316
34.383
34.47
34.576
34.701
34.845
35.008
35.186
35.379
35.583
35.795
36.013
36.232
36.45
36.663
36.869
37.063
37.244
37.41
37.56
37.692
37.805
37.9
37.977
38.036
38.078
38.103
38.113
38.109
38.093
38.066
38.029
37.984
37.933
37.877
37.818
37.756
37.692
37.626
37.559
37.491
37.422
37.353
37.284
37.215
37.146
37.078
37.01
36.943
36.876
36.811
36.747
36.684
36.622
36.561
36.503
36.446
36.39
36.336
36.283
36.23
36.177
36.126
36.075
36.026
35.979
35.935
35.893
35.854
35.819
35.788
35.76
35.736
35.717
35.701
35.69
35.683
35.68
35.68
35.683
35.69
35.698
35.709
35.72
35.732
35.744
35.755
35.765
35.774
35.781
35.787
35.791
35.794
35.794
35.792
35.787
35.78
35.77
35.757
35.741
35.723
35.702
35.679
35.652
35.623
35.591
35.557
35.521
35.485
35.447
35.408
35.369
35.33
35.291
35.252
35.213
35.176
35.138
35.1
35.063
35.025
34.987
34.949
34.909
34.869
34.827
34.785
34.741
34.697
34.653
34.609
34.566
34.524
34.484
34.447
34.412
34.379
34.349
34.321
34.294
34.268
34.243
34.218
34.194
34.169
34.143
34.118
34.092
34.066
34.04
34.015
33.991
33.969
33.947
33.926
33.905
33.884
33.863
33.841
33.819
33.797
33.777
33.757
33.74
33.724
33.712
33.704
33.702
33.707
33.723
33.75
33.791
33.849
33.924
34.02
34.136
34.272
34.43
34.607
34.801
35.01
35.231
35.46
35.694
35.928
36.16
36.385
36.602
36.806
36.995
37.169
37.325
37.463
37.582
37.683
37.765
37.83
37.877
37.908
37.924
37.925
37.912
37.887
37.851
37.805
37.752
37.693
37.628
37.559
37.488
37.416
37.344
37.273
37.202
37.134
37.066
37.001
36.937
36.876
36.816
36.758
36.703
36.65
36.599
36.551
36.505
36.462
36.42
36.38
36.341
36.303
36.264
36.224
36.183
36.141
36.098
36.054
36.009
35.965
35.921
35.879
35.838
35.801
35.767
35.736
35.709
35.686
35.668
35.654
35.645
35.64
35.639
35.64
35.645
35.651
35.659
35.669
35.679
35.689
35.699
35.707
35.714
35.718
35.72
35.719
35.716
35.711
35.703
35.692
35.68
35.665
35.648
35.628
35.606
35.583
35.557
35.53
35.502
35.473
35.441
35.409
35.375
35.34
35.304
35.268
35.231
35.193
35.154
35.115
35.075
35.036
34.996
34.957
34.919
34.881
34.844
34.808
34.773
34.739
34.704
34.669
34.635
34.6
34.566
34.531
34.496
34.462
34.428
34.396
34.364
34.334
34.306
34.279
34.253
34.229
34.206
34.184
34.163
34.142
34.123
34.104
34.085
34.068
34.051
34.035
34.02
34.006
33.993
33.98
33.967
33.953
33.939
33.923
33.908
33.891
33.874
33.857
33.84
33.822
33.804
33.787
33.769
33.752
33.736
33.724
33.717
33.717
33.728
33.752
33.792
33.85
33.928
34.027
34.146
34.285
34.443
34.618
34.808
35.011
35.222
35.44
35.659
35.877
36.089
36.294
36.488
36.668
36.833
36.982
37.112
37.225
37.319
37.395
37.453
37.496
37.523
37.536
37.536
37.524
37.502
37.469
37.428
37.379
37.324
37.264
37.2
37.134
37.066
36.998
36.929
36.86
36.793
36.727
36.662
36.599
36.539
36.48
36.425
36.371
36.32
36.272
36.225
36.181
36.139
36.097
36.057
36.018
35.978
35.938
35.896
35.854
35.811
35.767
35.723
35.679
35.636
35.595
35.556
35.519
35.485
35.454
35.427
35.405
35.386
35.371
35.36
35.353
35.348
35.346
35.346
35.347
35.349
35.352
35.355
35.359
35.364
35.37
35.377
35.384
35.391
35.397
35.402
35.406
35.408
35.409
35.407
35.402
35.395
35.385
35.371
35.355
35.335
35.313
35.287
35.259
35.229
35.196
35.162
35.126
35.088
35.049
35.009
34.968
34.927
34.886
34.846
34.806
34.766
34.726
34.686
34.646
34.606
34.566
34.527
34.489
34.451
34.415
34.38
34.347
34.315
34.284
34.254
34.225
34.196
34.168
34.14
34.113
34.086
34.06
34.035
34.009
33.983
33.957
33.932
33.907
33.882
33.858
33.834
33.81
33.787
33.764
33.742
33.72
33.699
33.678
33.658
33.639
33.621
33.602
33.584
33.566
33.547
33.528
33.508
33.488
33.468
33.448
33.428
33.409
33.392
33.378
33.369
33.367
33.374
33.392
33.425
33.473
33.538
33.622
33.724
33.844
33.983
34.138
34.308
34.49
34.681
34.879
35.079
35.279
35.474
35.661
35.838
36.001
36.15
36.284
36.402
36.503
36.588
36.656
36.708
36.744
36.764
36.77
36.762
36.741
36.709
36.668
36.619
36.563
36.503
36.439
36.373
36.305
36.236
36.166
36.096
36.027
35.959
35.892
35.828
35.766
35.707
35.651
35.599
35.551
35.506
35.465
35.428
35.393
35.361
35.331
35.301
35.271
35.241
35.21
35.179
35.148
35.116
35.084
35.051
35.019
34.987
34.955
34.924
34.894
34.866
34.839
34.816
34.795
34.777
34.763
34.752
34.744
34.74
34.738
34.74
34.744
34.75
34.757
34.765
34.773
34.782
34.791
34.799
34.808
34.816
34.824
34.831
34.837
34.841
34.843
34.843
34.839
34.832
34.822
34.809
34.792
34.773
34.751
34.726
34.7
34.671
34.642
34.612
34.581
34.552
34.522
34.494
34.467
34.439
34.412
34.385
34.359
34.332
34.306
34.28
34.254
34.228
34.202
34.175
34.148
34.121
34.093
34.065
34.037
34.009
33.982
33.955
33.929
33.903
33.879
33.856
33.834
33.813
33.792
33.772
33.753
33.734
33.714
33.695
33.676
33.657
33.639
33.621
33.603
33.585
33.569
33.553
33.538
33.524
33.512
33.501
33.491
33.482
33.474
33.466
33.458
33.45
33.442
33.432
33.423
33.413
33.403
33.394
33.388
33.386
33.389
33.401
33.421
33.453
33.499
33.559
33.635
33.727
33.836
33.961
34.1
34.252
34.414
34.585
34.761
34.938
35.115
35.289
35.456
35.614
35.762
35.897
36.018
36.124
36.214
36.289
36.348
36.392
36.421
36.437
36.439
36.429
36.408
36.376
36.336
36.288
36.233
36.173
36.107
36.038
35.967
35.895
35.823
35.752
35.682
35.615
35.551
35.489
35.43
35.374
35.32
35.27
35.223
35.179
35.138
35.099
35.062
35.026
34.992
34.958
34.924
34.89
34.855
34.821
34.788
34.756
34.726
34.697
34.67
34.644
34.62
34.599
34.58
34.563
34.55
34.539
34.532
34.527
34.525
34.526
34.529
34.534
34.541
34.55
34.559
34.57
34.581
34.594
34.607
34.621
34.635
34.65
34.665
34.679
34.692
34.703
34.711
34.716
34.716
34.712
34.704
34.691
34.676
34.657
34.636
34.614
34.59
34.565
34.539
34.513
34.487
34.46
34.433
34.405
34.377
34.349
34.32
34.29
34.26
34.228
34.196
34.164
34.131
34.099
34.066
34.034
34.003
33.972
33.943
33.915
33.887
33.861
33.836
33.812
33.789
33.767
33.746
33.726
33.707
33.69
33.675
33.66
33.647
33.634
33.622
33.608
33.595
33.582
33.568
33.554
33.54
33.526
33.511
33.496
33.48
33.465
33.45
33.436
33.422
33.409
33.397
33.386
33.375
33.363
33.353
33.342
33.332
33.323
33.316
33.312
33.311
33.315
33.326
33.345
33.374
33.415
33.469
33.54
33.628
33.732
33.854
33.992
34.144
34.307
34.48
34.659
34.841
35.023
35.201
35.373
35.536
35.688
35.827
35.952
36.061
36.153
36.229
36.289
36.332
36.359
36.371
36.369
36.354
36.328
36.292
36.248
36.198
36.143
36.084
36.023
35.96
35.896
35.831
35.768
35.706
35.645
35.587
35.531
35.478
35.428
35.382
35.34
35.301
35.266
35.233
35.203
35.175
35.149
35.123
35.098
35.072
35.046
35.02
34.994
34.967
34.941
34.914
34.887
34.859
34.832
34.804
34.777
34.75
34.724
34.7
34.679
34.66
34.644
34.631
34.62
34.613
34.608
34.606
34.607
34.611
34.618
34.629
34.642
34.658
34.675
34.692
34.71
34.727
34.742
34.757
34.769
34.78
34.788
34.794
34.798
34.8
34.798
34.795
34.788
34.779
34.768
34.756
34.742
34.727
34.71
34.691
34.672
34.65
34.628
34.605
34.58
34.555
34.53
34.505
34.48
34.456
34.432
34.409
34.386
34.363
34.34
34.316
34.292
34.267
34.241
34.216
34.191
34.166
34.142
34.118
34.094
34.071
34.047
34.024
34.0
33.977
33.953
33.93
33.907
33.885
33.863
33.842
33.822
33.802
33.784
33.767
33.75
33.735
33.72
33.707
33.694
33.683
33.672
33.663
33.653
33.645
33.637
33.63
33.624
33.618
33.614
33.61
33.606
33.604
33.601
33.599
33.598
33.599
33.603
33.612
33.626
33.648
33.681
33.727
33.788
33.864
33.957
34.066
34.19
34.328
34.477
34.636
34.8
34.967
35.133
35.296
35.453
35.602
35.739
35.864
35.975
36.071
36.151
36.215
36.263
36.296
36.314
36.317
36.308
36.287
36.256
36.216
36.168
36.114
36.055
35.992
35.927
35.861
35.794
35.728
35.663
35.602
35.544
35.491
35.443
35.399
35.361
35.327
35.298
35.273
35.252
35.233
35.217
35.202
35.189
35.177
35.166
35.156
35.147
35.139
35.13
35.121
35.111
35.1
35.088
35.074
35.059
35.044
35.029
35.014
35.0
34.987
34.977
34.969
34.963
34.96
34.96
34.962
34.967
34.975
34.984
34.994
35.005
35.017
35.029
35.042
35.056
35.071
35.085
35.099
35.112
35.123
35.132
35.139
35.144
35.145
35.145
35.141
35.136
35.128
35.119
35.109
35.097
35.083
35.068
35.052
35.034
35.015
34.994
34.972
34.948
34.923
34.897
34.872
34.847
34.822
34.798
34.775
34.753
34.731
34.71
34.69
34.669
34.649
34.628
34.606
34.584
34.561
34.537
34.513
34.489
34.466
34.444
34.422
34.402
34.382
34.363
34.343
34.324
34.304
34.284
34.264
34.245
34.225
34.205
34.186
34.168
34.149
34.13
34.111
34.092
34.072
34.051
34.03
34.009
33.988
33.969
33.95
33.932
33.915
33.899
33.884
33.87
33.857
33.844
33.833
33.824
33.818
33.815
33.817
33.827
33.846
33.877
33.92
33.978
34.051
34.141
34.247
34.369
34.507
34.657
34.817
34.985
35.157
35.331
35.504
35.671
35.832
35.982
36.12
36.245
36.355
36.45
36.528
36.59
36.636
36.665
36.679
36.679
36.666
36.642
36.609
36.568
36.52
36.468
36.412
36.354
36.296
36.238
36.18
36.122
36.066
36.012
35.96
35.91
35.863
35.818
35.775
35.734
35.694
35.655
35.617
35.58
35.543
35.508
35.473
35.44
35.407
35.376
35.345
35.316
35.287
35.258
35.23
35.203
35.176
35.15
35.126
35.104
35.084
35.066
35.051
35.038
35.028
35.02
35.015
35.013
35.015
35.019
35.026
35.035
35.047
35.06
35.074
35.089
35.104
35.12
35.135
35.149
35.161
35.173
35.182
35.191
35.198
35.205
35.21
35.215
35.219
35.222
35.223
35.222
35.218
35.211
35.201
35.189
35.176
35.16
35.144
35.127
35.11
35.093
35.075
35.057
35.037
35.016
34.994
34.971
34.948
34.924
34.901
34.879
34.857
34.835
34.814
34.794
34.774
34.754
34.735
34.716
34.697
34.677
34.656
34.634
34.612
34.59
34.569
34.548
34.528
34.509
34.491
34.472
34.454
34.435
34.416
34.396
34.375
34.354
34.333
34.311
34.29
34.268
34.247
34.226
34.206
34.185
34.166
34.146
34.128
34.111
34.097
34.085
34.078
34.077
34.082
34.097
34.123
34.161
34.214
34.281
34.364
34.461
34.572
34.698
34.835
34.983
35.139
35.3
35.464
35.626
35.784
35.934
36.076
36.207
36.326
36.431
36.521
36.597
36.658
36.704
36.736
36.754
36.759
36.752
36.733
36.703
36.663
36.615
36.561
36.5
36.436
36.368
36.298
36.227
36.157
36.086
36.017
35.948
35.882
35.818
35.757
35.698
35.642
35.591
35.542
35.498
35.458
35.421
35.387
35.356
35.327
35.301
35.277
35.255
35.234
35.215
35.196
35.178
35.16
35.143
35.127
35.113
35.1
35.09
35.082
35.075
35.071
35.069
35.069
35.072
35.077
35.085
35.095
35.107
35.121
35.137
35.155
35.174
35.195
35.216
35.237
35.258
35.278
35.297
35.314
35.33
35.343
35.354
35.363
35.37
35.374
35.376
35.375
35.371
35.364
35.354
35.341
35.326
35.309
35.289
35.268
35.244
35.219
35.191
35.161
35.13
35.099
35.066
35.032
34.998
34.964
34.93
34.896
34.862
34.83
34.798
34.767
34.737
34.706
34.675
34.645
34.614
34.584
34.554
34.525
34.496
34.469
34.443
34.418
34.394
34.37
34.347
34.324
34.3
34.277
34.254
34.231
34.208
34.187
34.166
34.147
34.129
34.112
34.097
34.083
34.07
34.057
34.045
34.034
34.023
34.012
34.001
33.992
33.983
33.976
33.971
33.97
33.974
33.983
34.0
34.027
34.066
34.12
34.19
34.277
34.381
34.502
34.64
34.793
34.96
35.137
35.324
35.515
35.708
35.899
36.085
36.263
36.432
36.588
36.731
36.859
36.97
37.066
37.144
37.206
37.253
37.284
37.301
37.304
37.295
37.276
37.247
37.21
37.166
37.117
37.063
37.007
36.948
36.887
36.826
36.764
36.702
36.642
36.584
36.527
36.474
36.423
36.376
36.331
36.29
36.25
36.213
36.179
36.146
36.116
36.088
36.062
36.038
36.016
35.996
35.976
35.957
35.936
35.915
35.892
35.868
35.842
35.814
35.784
35.754
35.724
35.694
35.666
35.639
35.615
35.594
35.577
35.563
35.553
35.547
35.545
35.547
35.552
35.559
35.569
35.579
35.591
35.603
35.615
35.627
35.638
35.648
35.655
35.66
35.663
35.663
35.661
35.657
35.65
35.642
35.632
35.621
35.607
35.592
35.574
35.554
35.532
35.509
35.483
35.457
35.429
35.399
35.368
35.337
35.305
35.274
35.244
35.213
35.183
35.154
35.124
35.095
35.066
35.037
35.01
34.983
34.958
34.934
34.912
34.892
34.873
34.855
34.838
34.82
34.803
34.784
34.764
34.744
34.723
34.702
34.681
34.66
34.639
34.619
34.598
34.577
34.556
34.535
34.514
34.493
34.474
34.455
34.437
34.42
34.404
34.388
34.374
34.361
34.348
34.335
34.322
34.309
34.299
34.29
34.287
34.289
34.299
34.32
34.355
34.404
34.47
34.554
34.656
34.776
34.913
35.064
35.229
35.405
35.589
35.778
35.969
36.161
36.349
36.531
36.704
36.866
37.016
37.152
37.272
37.377
37.465
37.537
37.593
37.634
37.661
37.674
37.676
37.667
37.648
37.62
37.586
37.546
37.502
37.455
37.405
37.353
37.3
37.245
37.191
37.136
37.082
37.029
36.976
36.925
36.876
36.829
36.784
36.743
36.705
36.669
36.636
36.604
36.574
36.545
36.516
36.488
36.46
36.431
36.401
36.37
36.337
36.303
36.267
36.23
36.193
36.155
36.118
36.083
36.051
36.02
35.993
35.969
35.948
35.93
35.915
35.903
35.893
35.886
35.881
35.879
35.88
35.882
35.886
35.891
35.898
35.904
35.91
35.916
35.92
35.922
35.923
35.922
35.92
35.915
35.909
35.9
35.891
35.879
35.866
35.85
35.833
35.813
35.792
35.77
35.747
35.723
35.698
35.672
35.645
35.617
35.588
35.557
35.526
35.493
35.459
35.424
35.388
35.35
35.312
35.275
35.238
35.203
35.17
35.138
35.108
35.08
35.052
35.026
34.999
34.973
34.946
34.919
34.892
34.865
34.837
34.809
34.783
34.757
34.732
34.709
34.688
34.668
34.649
34.631
34.613
34.595
34.578
34.56
34.543
34.525
34.507
34.489
34.472
34.456
34.439
34.422
34.405
34.388
34.372
34.356
34.341
34.328
34.317
34.309
34.306
34.307
34.315
34.332
34.359
34.399
34.453
34.524
34.611
34.715
34.837
34.975
35.128
35.294
35.471
35.655
35.844
36.034
36.223
36.407
36.583
36.749
36.903
37.043
37.168
37.276
37.368
37.444
37.505
37.55
37.581
37.599
37.604
37.598
37.581
37.556
37.522
37.481
37.433
37.38
37.322
37.26
37.196
37.131
37.066
37.001
36.938
36.877
36.817
36.76
36.705
36.653
36.605
36.559
36.517
36.477
36.439
36.404
36.37
36.336
36.303
36.27
36.236
36.203
36.17
36.136
36.103
36.069
36.036
36.003
35.969
35.936
35.904
35.872
35.842
35.813
35.787
35.764
35.744
35.727
35.714
35.703
35.696
35.691
35.689
35.689
35.691
35.695
35.701
35.707
35.714
35.72
35.724
35.728
35.73
35.73
35.729
35.727
35.723
35.718
35.712
35.704
35.694
35.681
35.666
35.647
35.627
35.604
35.578
35.551
35.521
35.49
35.457
35.424
35.389
35.353
35.317
35.281
35.244
35.206
35.167
35.128
35.089
35.05
35.012
34.975
34.938
34.902
34.866
34.832
34.799
34.767
34.736
34.706
34.677
34.648
34.62
34.592
34.565
34.537
34.51
34.482
34.454
34.426
34.399
34.372
34.345
34.318
34.292
34.267
34.243
34.218
34.195
34.171
34.149
34.127
34.105
34.084
34.064
34.043
34.023
34.002
33.982
33.962
33.942
33.924
33.906
33.892
33.88
33.873
33.872
33.878
33.893
33.918
33.957
34.01
34.078
34.164
34.266
34.386
34.522
34.673
34.837
35.013
35.198
35.387
35.579
35.77
35.957
36.137
36.307
36.465
36.609
36.738
36.852
36.948
37.029
37.093
37.141
37.174
37.193
37.197
37.189
37.168
37.137
37.097
37.049
36.996
36.939
36.879
36.817
36.753
36.689
36.624
36.561
36.498
36.436
36.377
36.32
36.265
36.213
36.164
36.117
36.072
36.028
35.987
35.948
35.91
35.874
35.838
35.804
35.77
35.738
35.706
35.674
35.643
35.612
35.582
35.552
35.522
35.493
35.464
35.436
35.409
35.384
35.36
35.339
35.32
35.303
35.29
35.28
35.274
35.27
35.269
35.271
35.275
35.28
35.288
35.297
35.307
35.317
35.327
35.337
35.345
35.353
35.36
35.366
35.369
35.37
35.369
35.364
35.357
35.348
35.337
35.324
35.309
35.292
35.273
35.251
35.228
35.202
35.175
35.146
35.117
35.087
35.057
35.027
34.997
34.968
34.939
34.911
34.882
34.853
34.823
34.793
34.762
34.73
34.7
34.67
34.642
34.615
34.589
34.564
34.54
34.517
34.494
34.47
34.445
34.419
34.394
34.368
34.342
34.316
34.291
34.267
34.245
34.223
34.202
34.183
34.164
34.146
34.127
34.109
34.091
34.072
34.054
34.036
34.018
34.0
33.982
33.966
33.95
33.937
33.924
33.912
33.9
33.887
33.874
33.86
33.846
33.831
33.817
33.805
33.796
33.791
33.794
33.806
33.829
33.867
33.921
33.992
34.081
34.189
34.315
34.458
34.618
34.792
34.978
35.173
35.375
35.579
35.783
35.984
36.178
36.363
36.535
36.693
36.836
36.96
37.067
37.156
37.226
37.278
37.312
37.33
37.333
37.322
37.299
37.265
37.223
37.173
37.118
37.059
36.998
36.936
36.873
36.811
36.75
36.689
36.63
36.572
36.516
36.461
36.409
36.358
36.309
36.263
36.219
36.178
36.138
36.1
36.064
36.029
35.996
35.964
35.934
35.904
35.874
35.845
35.817
35.789
35.761
35.733
35.704
35.676
35.647
35.619
35.591
35.564
35.538
35.514
35.491
35.47
35.452
35.435
35.422
35.411
35.403
35.397
35.394
35.395
35.397
35.402
35.409
35.419
35.43
35.442
35.456
35.469
35.482
35.494
35.503
35.511
35.516
35.519
35.519
35.516
35.51
35.5
35.488
35.472
35.453
35.432
35.409
35.383
35.355
35.325
35.293
35.261
35.228
35.194
35.161
35.129
35.098
35.068
35.039
35.011
34.983
34.957
34.93
34.904
34.878
34.851
34.824
34.797
34.77
34.743
34.716
34.688
34.661
34.634
34.606
34.579
34.551
34.524
34.497
34.47
34.445
34.42
34.397
34.375
34.355
34.336
34.317
34.3
34.282
34.265
34.248
34.231
34.215
34.2
34.185
34.17
34.154
34.139
34.125
34.11
34.096
34.081
34.067
34.052
34.036
34.019
34.001
33.983
33.965
33.946
33.928
33.911
33.895
33.88
33.867
33.857
33.851
33.849
33.853
33.865
33.886
33.918
33.963
34.023
34.099
34.193
34.303
34.431
34.575
34.734
34.907
35.091
35.283
35.481
35.68
35.878
36.071
36.257
36.432
36.595
36.743
36.876
36.993
37.093
37.176
37.244
37.296
37.334
37.358
37.368
37.365
37.352
37.328
37.297
37.259
37.216
37.17
37.12
37.067
37.013
36.958
36.901
36.843
36.785
36.726
36.667
36.608
36.55
36.492
36.437
36.383
36.331
36.282
36.235
36.191
36.151
36.113
36.078
36.046
36.017
35.988
35.961
35.934
35.907
35.881
35.854
35.828
35.801
35.775
35.748
35.722
35.696
35.671
35.648
35.625
35.604
35.585
35.567
35.551
35.538
35.526
35.517
35.511
35.507
35.505
35.506
35.509
35.514
35.521
35.529
35.538
35.547
35.557
35.566
35.574
35.581
35.587
35.59
35.591
35.589
35.584
35.578
35.569
35.559
35.546
35.531
35.514
35.495
35.474
35.451
35.426
35.399
35.371
35.34
35.308
35.275
35.242
35.207
35.172
35.137
35.101
35.065
35.03
34.996
