Trial 3:3back
35.487
35.404
35.321
35.238
35.156
35.076
34.998
34.922
34.848
34.777
34.709
34.645
34.584
34.528
34.475
34.428
34.385
34.345
34.309
34.275
34.242
34.209
34.177
34.144
34.112
34.081
34.05
34.022
33.995
33.97
33.945
33.923
33.902
33.884
33.868
33.856
33.847
33.841
33.837
33.834
33.832
33.83
33.827
33.822
33.816
33.808
33.798
33.787
33.775
33.76
33.744
33.727
33.707
33.688
33.669
33.65
33.631
33.612
33.595
33.577
33.559
33.54
33.521
33.501
33.48
33.46
33.44
33.421
33.404
33.387
33.372
33.358
33.346
33.336
33.328
33.32
33.315
33.31
33.308
33.306
33.305
33.305
33.305
33.305
33.305
33.305
33.305
33.304
33.302
33.296
33.287
33.275
33.261
33.245
33.226
33.203
33.176
33.144
33.109
33.07
33.027
32.981
32.933
32.884
32.835
32.787
32.74
32.695
32.653
32.615
32.58
32.551
32.527
32.509
32.497
32.494
32.5
32.518
32.553
32.608
32.689
32.799
32.944
33.129
33.359
33.636
33.963
34.336
34.754
35.211
35.698
36.208
36.728
37.25
37.763
38.257
38.722
39.151
39.536
39.876
40.167
40.41
40.606
40.757
40.864
40.934
40.969
40.973
40.952
40.911
40.853
40.783
40.702
40.613
40.517
40.416
40.31
40.202
40.092
39.979
39.865
39.753
39.642
39.533
39.428
39.327
39.23
39.138
39.049
38.965
38.885
38.81
38.74
38.675
38.615
38.559
38.508
38.461
38.418
38.377
38.337
38.297
38.255
38.209
38.158
38.101
38.039
37.971
37.896
37.817
37.733
37.645
37.556
37.466
37.376
37.288
37.204
37.125
37.053
36.99
36.938
36.897
36.867
36.848
36.839
36.84
36.85
36.867
36.887
36.908
36.931
36.955
36.979
37.004
37.028
37.052
37.075
37.096
37.112
37.124
37.132
37.135
37.132
37.125
37.113
37.095
37.073
37.045
37.012
36.973
36.928
36.878
36.821
36.758
36.689
36.614
36.534
36.451
36.364
36.274
36.182
36.088
35.993
35.9
35.808
35.717
35.629
35.542
35.459
35.378
35.299
35.223
35.151
35.08
35.012
34.946
34.883
34.823
34.766
34.711
34.658
34.608
34.56
34.514
34.47
34.427
34.387
34.348
34.312
34.277
34.245
34.216
34.189
34.165
34.141
34.118
34.094
34.072
34.052
34.033
34.017
34.002
33.988
33.976
33.965
33.954
33.946
33.939
33.935
33.932
33.93
33.93
33.93
33.93
33.931
33.932
33.933
33.934
33.935
33.936
33.937
33.936
33.933
33.927
33.919
33.908
33.894
33.877
33.856
33.832
33.805
33.775
33.742
33.706
33.67
33.632
33.594
33.556
33.519
33.483
33.448
33.415
33.381
33.347
33.312
33.276
33.237
33.196
33.15
33.101
33.049
32.994
32.938
32.882
32.827
32.774
32.722
32.674
32.63
32.589
32.553
32.521
32.493
32.468
32.446
32.427
32.409
32.392
32.375
32.359
32.342
32.326
32.311
32.296
32.282
32.269
32.256
32.245
32.236
32.229
32.225
32.223
32.223
32.224
32.227
32.23
32.233
32.235
32.238
32.24
32.243
32.246
32.249
32.251
32.251
32.248
32.244
32.236
32.226
32.214
32.2
32.184
32.165
32.144
32.121
32.097
32.073
32.05
32.032
32.019
32.015
32.022
32.045
32.088
32.154
32.249
32.379
32.548
32.762
33.024
33.338
33.703
34.12
34.584
35.087
35.622
36.18
36.749
37.319
37.878
38.415
38.922
39.39
39.814
40.188
40.511
40.78
40.996
41.16
41.277
41.348
41.38
41.376
41.343
41.286
41.209
41.115
41.009
40.895
40.774
40.65
40.523
40.396
40.269
40.142
40.016
39.889
39.764
39.64
39.518
39.397
39.279
39.162
39.048
38.938
38.83
38.727
38.627
38.535
38.453
38.379
38.314
38.255
38.199
38.145
38.091
38.036
37.977
37.913
37.843
37.768
37.688
37.604
37.516
37.427
37.338
37.25
37.164
37.081
37.003
36.931
36.866
36.808
36.757
36.716
36.683
36.659
36.644
36.638
36.64
36.65
36.667
36.69
36.72
36.753
36.791
36.83
36.871
36.914
36.956
36.997
37.037
37.075
37.11
37.143
37.171
37.195
37.214
37.228
37.236
37.239
37.234
37.223
37.205
37.179
37.145
37.102
37.05
36.99
36.921
36.847
36.767
36.683
36.598
36.511
36.423
36.336
36.25
36.164
36.08
35.996
35.914
35.833
35.753
35.675
35.597
35.52
35.444
35.368
35.292
35.217
35.143
35.071
35.0
34.93
34.862
34.797
34.733
34.672
34.612
34.556
34.503
34.454
34.408
34.365
34.324
34.284
34.246
34.208
34.172
34.137
34.103
34.072
34.041
34.013
33.986
33.959
33.933
33.907
33.881
33.856
33.832
33.809
33.787
33.765
33.739
33.71
33.678
33.644
33.609
33.576
33.545
33.518
33.494
33.475
33.458
33.445
33.436
33.428
33.421
33.415
33.411
33.408
33.405
33.401
33.396
33.389
33.378
33.365
33.348
33.328
33.305
33.28
33.253
33.224
33.194
33.162
33.129
33.095
33.061
33.027
32.993
32.961
32.93
32.901
32.873
32.847
32.821
32.797
32.773
32.75
32.728
32.708
32.69
32.673
32.656
32.641
32.627
32.613
32.6
32.586
32.573
32.56
32.546
32.532
32.519
32.507
32.499
32.5
32.51
32.527
32.548
32.571
32.592
32.61
32.621
32.625
32.619
32.605
32.582
32.552
32.516
32.477
32.435
32.392
32.348
32.305
32.262
32.221
32.181
32.143
32.106
32.071
32.038
32.008
31.981
31.957
31.936
31.917
31.9
31.885
31.873
31.862
31.855
31.852
31.854
31.864
31.885
31.921
31.975
32.052
32.157
32.296
32.474
32.698
32.97
33.294
33.67
34.096
34.567
35.078
35.618
36.177
36.744
37.307
37.851
38.367
38.846
39.281
39.666
39.999
40.276
40.499
40.669
40.788
40.861
40.892
40.886
40.849
40.786
40.701
40.6
40.485
40.362
40.233
40.102
39.972
39.842
39.716
39.593
39.473
39.358
39.246
39.138
39.033
38.931
38.83
38.73
38.632
38.534
38.439
38.345
38.255
38.168
38.083
38.0
37.92
37.843
37.769
37.699
37.63
37.564
37.498
37.432
37.364
37.294
37.22
37.143
37.063
36.98
36.896
36.81
36.724
36.638
36.555
36.477
36.403
36.336
36.276
36.226
36.186
36.158
36.14
36.135
36.14
36.155
36.179
36.211
36.25
36.294
36.342
36.394
36.447
36.502
36.556
36.61
36.661
36.709
36.752
36.788
36.817
36.838
36.85
36.854
36.848
36.834
36.81
36.779
36.74
36.696
36.646
36.592
36.535
36.475
36.412
36.347
36.279
36.208
36.135
36.061
35.987
35.911
35.834
35.756
35.676
35.596
35.516
35.435
35.353
35.271
35.188
35.103
35.018
34.933
34.849
34.765
34.683
34.602
34.524
34.451
34.384
34.323
34.267
34.217
34.171
34.129
34.09
34.052
34.016
33.982
33.949
33.918
33.889
33.861
33.835
33.809
33.783
33.756
33.729
33.701
33.671
33.64
33.606
33.571
33.536
33.5
33.465
33.431
33.4
33.372
33.347
33.325
33.306
33.29
33.278
33.268
33.262
33.258
33.256
33.255
33.255
33.254
33.253
33.252
33.25
33.246
33.242
33.238
33.233
33.226
33.218
33.209
33.196
33.181
33.164
33.145
33.126
33.105
33.082
33.059
33.036
33.011
32.986
32.961
32.934
32.908
32.881
32.854
32.826
32.799
32.771
32.742
32.714
32.685
32.658
32.632
32.608
32.587
32.567
32.548
32.531
32.513
32.496
32.478
32.46
32.442
32.424
32.406
32.388
32.37
32.352
32.333
32.315
32.296
32.279
32.263
32.249
32.236
32.225
32.214
32.204
32.194
32.183
32.171
32.158
32.143
32.126
32.107
32.086
32.065
32.043
32.02
31.996
31.971
31.944
31.915
31.885
31.853
31.822
31.792
31.765
31.741
31.722
31.709
31.7
31.698
31.704
31.718
31.746
31.79
31.856
31.948
32.072
32.232
32.434
32.682
32.979
33.325
33.72
34.158
34.633
35.139
35.664
36.198
36.73
37.249
37.744
38.205
38.627
39.001
39.326
39.597
39.815
39.983
40.103
40.178
40.213
40.213
40.18
40.12
40.036
39.935
39.819
39.693
39.558
39.418
39.276
39.134
38.993
38.855
38.719
38.586
38.456
38.328
38.201
38.077
37.954
37.834
37.715
37.599
37.485
37.373
37.264
37.159
37.058
36.962
36.871
36.786
36.706
36.63
36.557
36.486
36.417
36.351
36.284
36.218
36.151
36.083
36.014
35.946
35.877
35.81
35.743
35.68
35.62
35.565
35.515
35.473
35.438
35.411
35.394
35.388
35.391
35.405
35.43
35.465
35.509
35.563
35.624
35.691
35.763
35.838
35.914
35.988
36.06
36.129
36.193
36.251
36.303
36.347
36.382
36.408
36.425
36.433
36.432
36.416
36.386
36.341
36.284
36.218
36.146
36.069
35.991
35.915
35.84
35.768
35.699
35.633
35.568
35.503
35.438
35.371
35.302
35.231
35.158
35.082
35.005
34.926
34.846
34.764
34.681
34.598
34.514
34.431
34.349
34.269
34.193
34.12
34.049
33.982
33.918
33.857
33.799
33.742
33.689
33.638
33.592
33.549
33.51
33.475
33.443
33.415
33.39
33.367
33.346
33.327
33.309
33.293
33.279
33.267
33.256
33.246
33.237
33.23
33.223
33.217
33.212
33.208
33.205
33.202
33.199
33.196
33.194
33.191
33.189
33.186
33.182
33.179
33.175
33.169
33.16
33.15
33.137
33.123
33.108
33.094
33.081
33.069
33.059
33.05
33.041
33.032
33.024
33.015
33.007
32.999
32.99
32.982
32.973
32.962
32.951
32.938
32.924
32.908
32.89
32.871
32.851
32.831
32.81
32.788
32.766
32.743
32.721
32.698
32.675
32.652
32.629
32.607
32.585
32.562
32.54
32.518
32.498
32.478
32.46
32.444
32.429
32.412
32.39
32.36
32.324
32.284
32.243
32.203
32.167
32.136
32.114
32.099
32.093
32.094
32.104
32.119
32.138
32.16
32.182
32.203
32.221
32.235
32.243
32.246
32.245
32.239
32.229
32.215
32.197
32.176
32.151
32.125
32.097
32.07
32.042
32.015
31.989
31.964
31.941
31.92
31.901
31.886
31.874
31.867
31.867
31.876
31.897
31.933
31.988
32.068
32.179
32.327
32.519
32.758
33.048
33.392
33.791
34.242
34.741
35.278
35.842
36.421
37.002
37.571
38.118
38.632
39.102
39.522
39.888
40.198
40.449
40.643
40.782
40.868
40.906
40.9
40.859
40.789
40.697
40.587
40.465
40.334
40.198
40.058
39.918
39.779
39.643
39.51
39.379
39.251
39.125
39.001
38.879
38.758
38.64
38.524
38.411
38.299
38.189
38.08
37.974
37.87
37.77
37.674
37.583
37.496
37.415
37.34
37.269
37.203
37.141
37.081
37.023
36.964
36.904
36.843
36.779
36.712
36.64
36.566
36.488
36.409
36.33
36.254
36.18
36.112
36.05
35.996
35.951
35.917
35.894
35.884
35.884
35.895
35.915
35.943
35.978
36.02
36.066
36.118
36.174
36.231
36.29
36.348
36.407
36.465
36.519
36.568
36.611
36.646
36.673
36.692
36.702
36.705
36.7
36.686
36.665
36.635
36.599
36.556
36.509
36.458
36.403
36.345
36.284
36.22
36.153
36.083
36.01
35.934
35.854
35.771
35.686
35.598
35.508
35.418
35.328
35.238
35.149
35.062
34.977
34.895
34.815
34.738
34.665
34.596
34.531
34.469
34.409
34.352
34.297
34.243
34.19
34.137
34.086
34.036
33.988
33.941
33.896
33.853
33.811
33.771
33.733
33.698
33.663
33.63
33.599
33.568
33.54
33.513
33.488
33.465
33.445
33.429
33.415
33.404
33.396
33.389
33.384
33.379
33.375
33.373
33.372
33.371
33.37
33.37
33.37
33.37
33.37
33.37
33.37
33.369
33.368
33.365
33.361
33.356
33.349
33.34
33.329
33.316
33.3
33.283
33.264
33.243
33.221
33.197
33.172
33.147
33.123
33.1
33.078
33.056
33.035
33.014
32.994
32.975
32.958
32.942
32.926
32.91
32.895
32.881
32.867
32.853
32.839
32.824
32.808
32.79
32.77
32.749
32.727
32.704
32.68
32.655
32.63
32.606
32.581
32.557
32.533
32.511
32.491
32.474
32.459
32.447
32.437
32.429
32.423
32.418
32.414
32.41
32.407
32.405
32.402
32.4
32.398
32.396
32.394
32.39
32.385
32.378
32.369
32.357
32.342
32.325
32.305
32.282
32.257
32.229
32.2
32.17
32.139
32.109
32.081
32.058
32.039
32.026
32.018
32.018
32.025
32.04
32.064
32.1
32.151
32.222
32.318
32.445
32.607
32.811
33.06
33.356
33.703
34.097
34.537
35.018
35.531
36.068
36.617
37.167
37.707
38.227
38.717
39.169
39.575
39.932
40.235
40.483
40.676
40.817
40.908
40.954
40.959
40.929
40.869
40.786
40.684
40.569
40.445
40.318
40.192
40.069
39.949
39.831
39.716
39.602
39.49
39.377
39.264
39.15
39.034
38.917
38.798
38.677
38.555
38.432
38.31
38.19
38.072
37.957
37.845
37.737
37.634
37.534
37.437
37.343
37.251
37.16
37.07
36.982
36.894
36.809
36.724
36.641
36.559
36.48
36.403
36.328
36.257
36.191
36.131
36.077
36.032
35.996
35.971
35.957
35.955
35.965
35.986
36.02
36.065
36.121
36.186
36.259
36.339
36.423
36.508
36.593
36.675
36.752
36.824
36.89
36.95
37.002
37.046
37.082
37.111
37.13
37.141
37.143
37.136
37.122
37.1
37.073
37.039
37.001
36.958
36.91
36.858
36.802
36.743
36.679
36.611
36.54
36.465
36.386
36.303
36.217
36.128
36.038
35.946
35.853
35.76
35.666
35.573
35.479
35.385
35.292
35.2
35.11
35.023
34.939
34.857
34.779
34.703
34.63
34.56
34.492
34.425
34.361
34.3
34.241
34.185
34.132
34.084
34.04
34.001
33.966
33.937
33.911
33.889
33.871
33.854
33.839
33.824
33.809
33.793
33.776
33.759
33.741
33.722
33.702
33.684
33.666
33.649
33.634
33.619
33.606
33.595
33.586
33.579
33.573
33.568
33.564
33.559
33.555
33.55
33.544
33.539
33.534
33.528
33.522
33.515
33.508
33.5
33.49
33.478
33.465
33.451
33.436
33.421
33.407
33.393
33.379
33.365
33.35
33.335
33.32
33.305
33.291
33.277
33.263
33.25
33.237
33.224
33.21
33.194
33.178
33.16
33.141
33.12
33.097
33.074
33.05
33.027
33.004
32.982
32.961
32.94
32.919
32.898
32.876
32.855
32.835
32.816
32.798
32.782
32.766
32.753
32.741
32.732
32.723
32.715
32.707
32.698
32.687
32.674
32.66
32.645
32.629
32.613
32.598
32.583
32.568
32.554
32.539
32.524
32.51
32.495
32.479
32.463
32.446
32.429
32.41
32.39
32.368
32.345
32.321
32.297
32.272
32.249
32.229
32.214
32.207
32.213
32.236
32.283
32.359
32.469
32.618
32.811
33.054
33.348
33.694
34.092
34.54
35.031
35.558
36.112
36.681
37.255
37.822
38.37
38.888
39.368
39.803
40.188
40.52
40.796
41.017
41.183
41.299
41.369
41.398
41.393
41.36
41.302
41.226
41.135
41.032
40.921
40.804
40.685
40.564
40.442
40.321
40.2
40.082
39.966
39.853
39.742
39.633
39.525
39.417
39.311
39.206
39.102
39.0
38.901
38.805
38.711
38.619
38.532
38.454
38.388
38.331
38.281
38.235
38.191
38.146
38.096
38.041
37.98
37.912
37.839
37.76
37.676
37.588
37.497
37.404
37.313
37.225
37.141
37.063
36.991
36.927
36.873
36.829
36.796
36.773
36.761
36.76
36.77
36.79
36.819
36.857
36.902
36.953
37.007
37.063
37.118
37.17
37.22
37.265
37.305
37.339
37.367
37.388
37.403
37.411
37.412
37.406
37.394
37.377
37.354
37.327
37.293
37.253
37.209
37.159
37.106
37.05
36.989
36.925
36.857
36.786
36.712
36.635
36.557
36.476
36.395
36.312
36.228
36.143
36.056
35.968
35.879
35.789
35.699
35.609
35.521
35.433
35.347
35.262
35.179
35.099
35.021
34.947
34.876
34.809
34.746
34.686
34.628
34.574
34.523
34.476
34.432
34.392
34.354
34.318
34.284
34.251
34.219
34.19
34.162
34.135
34.111
34.088
34.068
34.048
34.03
34.012
33.995
33.977
33.961
33.946
33.934
33.923
33.913
33.903
33.893
33.884
33.874
33.863
33.853
33.843
33.832
33.821
33.809
33.796
33.782
33.766
33.749
33.731
33.713
33.695
33.678
33.661
33.645
33.629
33.613
33.598
33.582
33.565
33.548
33.53
33.511
33.492
33.473
33.453
33.433
33.412
33.391
33.369
33.346
33.322
33.296
33.267
33.236
33.203
33.169
33.133
33.098
33.063
33.03
32.997
32.966
32.938
32.912
32.888
32.866
32.845
32.826
32.809
32.792
32.777
32.763
32.749
32.736
32.723
32.703
32.675
32.64
32.6
32.557
32.515
32.477
32.444
32.419
32.403
32.395
32.394
32.4
32.411
32.424
32.439
32.453
32.465
32.473
32.478
32.479
32.474
32.465
32.452
32.434
32.413
32.388
32.362
32.334
32.305
32.276
32.248
32.219
32.191
32.164
32.139
32.117
32.099
32.086
32.08
32.083
32.098
32.128
32.178
32.254
32.36
32.503
32.687
32.916
33.196
33.527
33.909
34.34
34.817
35.333
35.88
36.447
37.023
37.597
38.157
38.692
39.194
39.655
40.067
40.424
40.725
40.97
41.16
41.297
41.385
41.429
41.435
41.409
41.357
41.284
41.195
41.096
40.989
40.878
40.764
40.648
40.531
40.415
40.3
40.187
40.077
39.969
39.865
39.762
39.661
39.56
39.46
39.36
39.261
39.162
39.065
38.97
38.878
38.789
38.704
38.622
38.544
38.47
38.398
38.328
38.259
38.19
38.12
38.047
37.973
37.896
37.816
37.736
37.656
37.575
37.496
37.418
37.343
37.27
37.201
37.138
37.08
37.029
36.986
36.953
36.93
36.919
36.921
36.934
36.958
36.993
37.037
37.09
37.149
37.212
37.277
37.344
37.412
37.478
37.543
37.603
37.658
37.705
37.744
37.775
37.799
37.814
37.822
37.821
37.812
37.796
37.772
37.741
37.703
37.659
37.61
37.557
37.499
37.437
37.373
37.305
37.235
37.163
37.088
37.011
36.931
36.849
36.765
36.677
36.588
36.498
36.407
36.314
36.221
36.127
36.033
35.939
35.846
35.754
35.666
35.58
35.499
35.422
35.35
35.282
35.218
35.156
35.096
35.039
34.983
34.929
34.878
34.827
34.779
34.731
34.683
34.637
34.591
34.547
34.504
34.464
34.427
34.394
34.365
34.34
34.318
34.3
34.285
34.274
34.265
34.26
34.256
34.254
34.253
34.252
34.251
34.248
34.244
34.238
34.229
34.219
34.206
34.192
34.176
34.159
34.141
34.124
34.107
34.091
34.076
34.061
34.047
34.033
34.018
34.004
33.989
33.973
33.956
33.938
33.919
33.899
33.878
33.856
33.835
33.815
33.795
33.776
33.757
33.739
33.721
33.703
33.685
33.666
33.646
33.626
33.604
33.58
33.554
33.528
33.5
33.472
33.442
33.412
33.383
33.353
33.325
33.299
33.275
33.253
33.234
33.217
33.202
33.188
33.177
33.167
33.158
33.149
33.139
33.129
33.118
33.105
33.089
33.071
33.05
33.027
33.002
32.976
32.949
32.922
32.894
32.866
32.838
32.811
32.784
32.757
32.73
32.702
32.674
32.644
32.616
32.587
32.559
32.532
32.506
32.483
32.464
32.451
32.446
32.454
32.477
32.52
32.589
32.688
32.824
33.003
33.228
33.503
33.831
34.212
34.642
35.119
35.635
36.181
36.748
37.325
37.899
38.459
38.994
39.496
39.956
40.369
40.73
41.037
41.29
41.49
41.638
41.738
41.795
41.813
41.799
41.757
41.692
41.608
41.508
41.399
41.284
41.164
41.044
40.923
40.802
40.682
40.562
40.443
40.325
40.207
40.09
39.972
39.853
39.734
39.614
39.497
39.381
39.268
39.159
39.054
38.954
38.859
38.768
38.683
38.601
38.523
38.45
38.378
38.309
38.242
38.174
38.107
38.039
37.97
37.898
37.825
37.75
37.673
37.596
37.519
37.443
37.372
37.307
37.249
37.2
37.16
37.131
37.112
37.104
37.108
37.122
37.146
37.179
37.22
37.267
37.32
37.376
37.434
37.495
37.555
37.614
37.671
37.723
37.77
37.812
37.847
37.876
37.896
37.907
37.909
37.902
37.886
37.861
37.827
37.788
37.743
37.693
37.64
37.583
37.523
37.46
37.395
37.326
37.254
37.177
37.096
37.012
36.923
36.831
36.736
36.638
36.538
36.438
36.337
36.235
36.134
36.034
35.936
35.84
35.747
35.657
35.571
35.488
35.409
35.334
35.263
35.196
35.133
35.075
35.021
34.972
34.927
34.885
34.846
34.809
34.772
34.737
34.703
34.67
34.639
34.609
34.58
34.553
34.525
34.498
34.47
34.442
34.414
34.386
34.357
34.328
34.299
34.27
34.242
34.217
34.193
34.172
34.152
34.135
34.118
34.102
34.087
34.073
34.059
34.045
34.031
34.017
34.004
33.991
33.978
33.964
33.949
33.931
33.912
33.891
33.869
33.846
33.824
33.802
33.78
33.76
33.739
33.718
33.696
33.673
33.65
33.626
33.601
33.574
33.545
33.516
33.485
33.455
33.424
33.394
33.363
33.331
33.299
33.267
33.235
33.202
33.168
33.135
33.1
33.066
33.033
33.003
32.979
32.958
32.942
32.928
32.916
32.904
32.891
32.876
32.859
32.839
32.816
32.792
32.766
32.738
32.71
32.681
32.652
32.624
32.597
32.573
32.55
32.529
32.509
32.489
32.471
32.452
32.433
32.414
32.394
32.373
32.351
32.327
32.304
32.28
