Trial 3:3back
33.402
33.372
33.342
33.313
33.285
33.258
33.233
33.209
33.187
33.168
33.15
33.135
33.121
33.11
33.099
33.089
33.079
33.068
33.057
33.043
33.028
33.012
32.995
32.978
32.961
32.945
32.931
32.917
32.905
32.895
32.886
32.88
32.879
32.884
32.897
32.922
32.959
33.013
33.083
33.171
33.277
33.402
33.545
33.705
33.88
34.068
34.268
34.475
34.688
34.904
35.12
35.334
35.544
35.748
35.945
36.131
36.307
36.469
36.619
36.756
36.877
36.983
37.074
37.153
37.22
37.277
37.326
37.368
37.403
37.432
37.454
37.472
37.485
37.493
37.497
37.498
37.496
37.492
37.486
37.48
37.473
37.467
37.462
37.456
37.451
37.445
37.439
37.432
37.424
37.415
37.405
37.391
37.376
37.357
37.335
37.309
37.28
37.246
37.208
37.164
37.115
37.061
37.004
36.944
36.884
36.823
36.765
36.71
36.658
36.611
36.568
36.529
36.494
36.464
36.436
36.412
36.389
36.368
36.349
36.331
36.313
36.295
36.277
36.258
36.24
36.221
36.202
36.183
36.163
36.141
36.118
36.092
36.064
36.034
36.001
35.967
35.931
35.892
35.853
35.812
35.771
35.729
35.685
35.639
35.593
35.545
35.497
35.447
35.398
35.35
35.303
35.259
35.218
35.18
35.145
35.112
35.081
35.051
35.023
34.994
34.965
34.935
34.905
34.873
34.841
34.809
34.778
34.748
34.719
34.691
34.663
34.635
34.609
34.582
34.555
34.529
34.504
34.479
34.453
34.427
34.401
34.376
34.358
34.35
34.35
34.357
34.367
34.378
34.387
34.391
34.389
34.381
34.365
34.341
34.311
34.275
34.233
34.187
34.138
34.087
34.035
33.984
33.933
33.885
33.842
33.802
33.768
33.739
33.714
33.692
33.672
33.653
33.635
33.618
33.603
33.589
33.575
33.563
33.551
33.54
33.53
33.521
33.511
33.502
33.492
33.483
33.472
33.462
33.452
33.441
33.428
33.415
33.4
33.384
33.366
33.346
33.325
33.301
33.277
33.252
33.226
33.201
33.175
33.151
33.128
33.106
33.086
33.068
33.053
33.039
33.027
33.017
33.007
33.0
32.995
32.993
32.994
32.998
33.008
33.025
33.052
33.09
33.143
33.211
33.297
33.402
33.527
33.672
33.836
34.017
34.214
34.423
34.642
34.869
35.098
35.326
35.55
35.766
35.973
36.168
36.348
36.514
36.666
36.802
36.924
37.031
37.125
37.205
37.273
37.329
37.372
37.406
37.43
37.447
37.458
37.465
37.468
37.47
37.47
37.47
37.469
37.467
37.466
37.464
37.462
37.459
37.455
37.45
37.444
37.443
37.446
37.453
37.463
37.472
37.479
37.482
37.478
37.465
37.443
37.41
37.368
37.315
37.255
37.188
37.116
37.041
36.965
36.888
36.815
36.745
36.681
36.623
36.573
36.531
36.496
36.468
36.446
36.43
36.417
36.407
36.398
36.389
36.379
36.368
36.356
36.342
36.328
36.313
36.298
36.281
36.264
36.246
36.225
36.204
36.18
36.155
36.127
36.097
36.065
36.033
35.999
35.965
35.93
35.895
35.859
35.823
35.786
35.748
35.71
35.672
35.632
35.592
35.551
35.51
35.468
35.426
35.384
35.344
35.304
35.264
35.224
35.184
35.143
35.103
35.062
35.02
34.98
34.94
34.9
34.86
34.821
34.783
34.746
34.71
34.675
34.642
34.61
34.579
34.549
34.52
34.491
34.464
34.437
34.41
34.383
34.357
34.332
34.308
34.286
34.265
34.245
34.225
34.205
34.184
34.163
34.142
34.122
34.103
34.084
34.066
34.049
34.031
34.012
33.993
33.975
33.957
33.938
33.918
33.896
33.873
33.849
33.823
33.798
33.773
33.748
33.724
33.7
33.677
33.655
33.634
33.614
33.594
33.575
33.557
33.538
33.521
33.504
33.489
33.476
33.464
33.455
33.446
33.44
33.434
33.429
33.424
33.419
33.412
33.404
33.393
33.38
33.363
33.344
33.324
33.302
33.279
33.256
33.232
33.209
33.187
33.167
33.147
33.129
33.112
33.095
33.079
33.064
33.049
33.036
33.024
33.012
33.001
32.99
32.98
32.971
32.962
32.956
32.953
32.956
32.967
32.988
33.023
33.074
33.142
33.228
33.334
33.461
33.608
33.774
33.96
34.164
34.383
34.616
34.859
35.109
35.362
35.616
35.866
36.11
36.344
36.567
36.775
36.967
37.143
37.303
37.447
37.574
37.687
37.786
37.869
37.939
37.996
38.043
38.08
38.108
38.131
38.149
38.162
38.171
38.178
38.182
38.186
38.189
38.192
38.197
38.202
38.208
38.215
38.22
38.225
38.229
38.232
38.234
38.234
38.232
38.228
38.222
38.212
38.197
38.177
38.153
38.122
38.085
38.043
37.995
37.943
37.886
37.826
37.763
37.699
37.636
37.575
37.516
37.461
37.408
37.359
37.312
37.27
37.232
37.198
37.167
37.138
37.111
37.085
37.06
37.033
37.007
36.98
36.953
36.926
36.899
36.872
36.845
36.817
36.789
36.759
36.728
36.694
36.658
36.619
36.579
36.539
36.498
36.458
36.419
36.382
36.345
36.309
36.273
36.236
36.199
36.161
36.121
36.079
36.036
35.99
35.942
35.893
35.841
35.79
35.738
35.688
35.639
35.591
35.544
35.498
35.453
35.41
35.368
35.328
35.289
35.252
35.215
35.18
35.145
35.112
35.079
35.048
35.016
34.984
34.951
34.917
34.883
34.85
34.818
34.787
34.757
34.727
34.699
34.67
34.643
34.615
34.589
34.563
34.536
34.51
34.484
34.459
34.434
34.409
34.385
34.362
34.339
34.315
34.291
34.268
34.244
34.219
34.194
34.169
34.144
34.119
34.093
34.067
34.042
34.017
33.992
33.969
33.946
33.924
33.902
33.879
33.857
33.833
33.809
33.785
33.761
33.737
33.713
33.69
33.667
33.643
33.619
33.594
33.57
33.546
33.522
33.499
33.477
33.456
33.434
33.407
33.376
33.342
33.305
33.268
33.232
33.2
33.172
33.149
33.132
33.12
33.113
33.108
33.105
33.105
33.104
33.103
33.101
33.097
33.092
33.086
33.08
33.073
33.066
33.059
33.054
33.05
33.05
33.055
33.068
33.094
33.134
33.192
33.27
33.369
33.49
33.633
33.797
33.981
34.183
34.402
34.633
34.874
35.12
35.369
35.616
35.86
36.097
36.324
36.541
36.744
36.932
37.105
37.261
37.402
37.528
37.638
37.735
37.819
37.889
37.947
37.994
38.031
38.056
38.071
38.076
38.074
38.066
38.056
38.045
38.035
38.026
38.019
38.014
38.011
38.01
38.01
38.01
38.009
38.008
38.004
37.999
37.992
37.982
37.97
37.956
37.939
37.918
37.893
37.863
37.828
37.787
37.741
37.691
37.636
37.579
37.519
37.458
37.396
37.334
37.274
37.217
37.163
37.113
37.067
37.025
36.987
36.952
36.92
36.891
36.864
36.838
36.813
36.789
36.766
36.743
36.721
36.699
36.677
36.656
36.635
36.614
36.593
36.573
36.553
36.532
36.51
36.487
36.463
36.436
36.408
36.379
36.348
36.314
36.276
36.235
36.191
36.143
36.094
36.044
35.994
35.945
35.895
35.847
35.799
35.751
35.701
35.651
35.6
35.55
35.5
35.452
35.405
35.36
35.316
35.273
35.232
35.192
35.154
35.116
35.079
35.043
35.007
34.972
34.938
34.905
34.875
34.846
34.82
34.794
34.769
34.745
34.722
34.7
34.679
34.658
34.638
34.616
34.593
34.568
34.542
34.516
34.489
34.461
34.433
34.404
34.374
34.345
34.315
34.287
34.259
34.231
34.199
34.162
34.119
34.073
34.025
33.978
33.933
33.892
33.857
33.827
33.804
33.786
33.774
33.766
33.763
33.763
33.766
33.77
33.775
33.778
33.778
33.775
33.768
33.757
33.742
33.723
33.701
33.677
33.651
33.625
33.599
33.573
33.549
33.525
33.503
33.48
33.459
33.438
33.417
33.398
33.379
33.36
33.341
33.322
33.304
33.284
33.264
33.242
33.22
33.197
33.174
33.151
33.13
33.111
33.096
33.085
33.08
33.085
33.102
33.133
33.182
33.251
33.341
33.454
33.591
33.751
33.934
34.137
34.357
34.593
34.841
35.098
35.36
35.623
35.884
36.139
36.385
36.619
36.839
37.043
37.229
37.399
37.552
37.688
37.808
37.914
38.005
38.084
38.15
38.203
38.247
38.28
38.303
38.317
38.324
38.325
38.321
38.312
38.301
38.288
38.275
38.261
38.248
38.235
38.224
38.213
38.202
38.191
38.18
38.167
38.153
38.137
38.12
38.101
38.079
38.054
38.025
37.993
37.955
37.913
37.867
37.818
37.768
37.716
37.662
37.608
37.553
37.498
37.444
37.391
37.34
37.291
37.245
37.201
37.159
37.119
37.08
37.043
37.008
36.976
36.947
36.92
36.894
36.871
36.848
36.825
36.802
36.778
36.753
36.728
36.702
36.675
36.649
36.621
36.591
36.561
36.531
36.499
36.466
36.431
36.394
36.354
36.313
36.269
36.223
36.176
36.128
36.077
36.027
35.976
35.925
35.874
35.823
35.773
35.724
35.675
35.626
35.576
35.526
35.476
35.426
35.378
35.331
35.287
35.244
35.202
35.163
35.126
35.089
35.054
35.02
34.985
34.951
34.917
34.884
34.851
34.82
34.791
34.763
34.737
34.711
34.687
34.662
34.638
34.615
34.591
34.567
34.542
34.517
34.492
34.467
34.441
34.416
34.391
34.366
34.34
34.315
34.289
34.264
34.239
34.215
34.191
34.167
34.143
34.119
34.095
34.069
34.045
34.021
33.997
33.973
33.95
33.926
33.903
33.879
33.856
33.833
33.812
33.792
33.772
33.752
33.734
33.716
33.699
33.683
33.668
33.655
33.642
33.629
33.617
33.605
33.593
33.581
33.569
33.556
33.543
33.529
33.512
33.495
33.475
33.455
33.432
33.408
33.381
33.351
33.32
33.286
33.252
33.219
33.188
33.16
33.135
33.114
33.099
33.091
33.091
33.101
33.125
33.165
33.223
33.302
33.403
33.527
33.675
33.846
34.037
34.247
34.475
34.716
34.969
35.229
35.495
35.762
36.028
36.291
36.547
36.794
37.032
37.257
37.468
37.664
37.844
38.008
38.155
38.286
38.4
38.5
38.586
38.658
38.717
38.764
38.8
38.825
38.839
38.845
38.844
38.836
38.823
38.807
38.79
38.771
38.752
38.732
38.713
38.696
38.68
38.667
38.655
38.644
38.632
38.618
38.601
38.581
38.557
38.529
38.497
38.462
38.422
38.379
38.331
38.28
38.224
38.165
38.102
38.036
37.969
37.899
37.829
37.759
37.69
37.622
37.555
37.49
37.428
37.369
37.314
37.264
37.218
37.176
37.138
37.104
37.073
37.045
37.018
36.994
36.971
36.948
36.925
36.901
36.875
36.848
36.818
36.787
36.753
36.717
36.679
36.64
36.599
36.559
36.517
36.476
36.435
36.394
36.353
36.313
36.272
36.23
36.187
36.143
36.096
36.048
35.997
35.945
35.891
35.836
35.78
35.724
35.668
35.613
35.559
35.505
35.453
35.402
35.352
35.303
35.255
35.209
35.165
35.123
35.083
35.045
35.008
34.971
34.935
34.899
34.863
34.827
34.791
34.755
34.719
34.684
34.651
34.618
34.586
34.555
34.527
34.499
34.473
34.447
34.421
34.397
34.373
34.349
34.325
34.301
34.277
34.253
34.229
34.206
34.184
34.163
34.142
34.121
34.101
34.081
34.061
34.041
34.022
34.002
33.981
33.959
33.935
33.909
33.882
33.854
33.825
33.797
33.768
33.739
33.709
33.68
33.652
33.626
33.602
33.58
33.559
33.541
33.524
33.51
33.498
33.486
33.474
33.463
33.451
33.436
33.421
33.404
33.386
33.367
33.348
33.329
33.309
33.288
33.267
33.245
33.224
33.202
33.181
33.16
33.14
33.12
33.101
33.083
33.066
33.051
33.04
33.034
33.034
33.043
33.062
33.096
33.147
33.217
33.31
33.428
33.57
33.738
33.929
34.143
34.376
34.627
34.892
35.167
35.448
35.731
36.012
36.288
36.554
36.807
37.047
37.271
37.48
37.671
37.844
37.999
38.137
38.257
38.36
38.446
38.517
38.573
38.616
38.647
38.669
38.682
38.689
38.689
38.684
38.675
38.661
38.643
38.621
38.596
38.569
38.54
38.51
38.481
38.452
38.425
38.4
38.377
38.354
38.331
38.308
38.283
38.256
38.225
38.191
38.151
38.105
38.052
37.992
37.927
37.857
37.783
37.708
37.631
37.555
37.48
37.406
37.336
37.269
37.206
37.147
37.093
37.043
36.998
36.958
36.921
36.888
36.857
36.828
36.801
36.776
36.753
36.731
36.711
36.693
36.676
36.659
36.642
36.625
36.607
36.588
36.567
36.544
36.519
36.491
36.459
36.425
36.388
36.349
36.308
36.267
36.224
36.182
36.139
36.094
36.049
36.003
35.957
35.909
35.862
35.813
35.764
35.714
35.663
35.611
35.558
35.506
35.454
35.404
35.355
35.307
35.261
35.216
35.172
35.129
35.087
35.046
35.006
34.967
34.928
34.892
34.857
34.824
34.795
34.767
34.741
34.716
34.693
34.67
34.648
34.626
34.603
34.579
34.552
34.522
34.491
34.459
34.425
34.392
34.36
34.33
34.302
34.276
34.253
34.231
34.211
34.193
34.175
34.158
34.141
34.123
34.105
34.087
34.07
34.053
34.037
34.02
34.003
33.987
33.97
33.954
33.937
33.921
33.906
33.891
33.876
33.861
33.847
33.832
33.818
33.804
33.789
33.772
33.753
33.732
33.709
33.683
33.656
33.628
33.6
33.573
33.546
33.52
33.495
33.471
33.448
33.426
33.403
33.38
33.356
33.332
33.307
33.283
33.261
33.245
33.236
33.237
33.25
33.278
33.325
33.392
33.482
33.598
33.74
33.909
34.103
34.321
34.56
34.818
35.089
35.371
35.659
35.949
36.239
36.522
36.797
37.059
37.308
37.539
37.752
37.946
38.12
38.276
38.413
38.53
38.63
38.712
38.778
38.828
38.864
38.888
38.903
38.909
38.908
38.902
38.891
38.877
38.86
38.84
38.818
38.795
38.77
38.744
38.718
38.691
38.664
38.635
38.606
38.576
38.545
38.512
38.478
38.443
38.405
38.366
38.324
38.279
38.237
38.198
38.162
38.127
38.089
38.046
37.996
37.938
37.871
37.797
37.716
37.629
37.54
37.449
37.359
37.272
37.188
37.11
37.038
36.973
36.914
36.863
36.817
36.776
36.738
36.703
36.672
36.644
36.617
36.593
36.57
36.549
36.528
36.506
36.485
36.461
36.436
36.408
36.379
36.348
36.316
36.282
36.246
36.207
36.164
36.117
36.068
36.015
35.961
35.904
35.846
35.788
35.728
35.668
35.606
35.545
35.484
35.424
35.366
35.309
35.254
35.2
35.149
35.099
35.051
35.005
34.959
34.914
34.867
34.821
34.774
34.729
34.684
34.641
34.599
34.559
34.522
34.485
34.45
34.415
34.383
34.351
34.322
34.294
34.269
34.246
34.226
34.208
34.193
34.18
34.169
34.159
34.148
34.137
34.123
34.108
34.091
34.071
34.05
34.029
34.007
33.984
33.961
33.938
33.913
33.887
33.861
33.833
33.806
33.778
33.751
33.726
33.701
33.677
33.655
33.635
33.615
33.595
33.576
33.556
33.536
33.515
33.493
33.472
33.449
33.425
33.401
33.377
33.352
33.326
33.299
33.272
33.245
33.218
33.192
33.167
33.142
33.117
33.093
33.07
33.048
33.028
33.008
32.989
32.973
32.959
32.947
32.939
32.936
32.941
32.955
32.983
33.027
33.09
33.173
33.277
33.406
33.559
33.737
33.938
34.162
34.406
34.666
34.94
35.222
35.508
35.796
36.081
36.36
36.632
36.894
37.142
37.376
37.593
37.793
37.973
38.132
38.272
38.392
38.494
38.577
38.644
38.695
38.731
38.754
38.765
38.767
38.759
38.744
38.724
38.701
38.675
38.648
38.62
38.593
38.567
38.541
38.516
38.492
38.469
38.447
38.424
38.402
38.379
38.355
38.328
38.3
38.267
38.229
38.186
38.136
38.081
38.02
37.955
37.885
37.812
37.736
37.656
37.575
37.494
37.414
37.337
37.264
37.196
37.133
37.075
37.021
36.972
36.926
36.883
36.842
36.803
36.765
36.728
36.693
36.66
36.628
36.597
36.567
36.537
36.508
36.48
36.451
36.422
36.392
36.362
36.331
36.298
36.265
36.231
36.195
36.158
36.12
36.08
36.038
35.994
35.949
35.902
35.853
35.802
35.751
35.7
35.65
35.599
35.548
35.496
35.442
35.387
35.33
35.272
35.214
35.156
35.1
35.047
34.996
34.948
34.904
34.862
34.823
34.786
34.752
34.72
34.69
34.662
34.633
34.604
34.575
34.546
34.516
34.487
34.46
34.434
34.41
34.386
34.363
34.339
34.314
34.287
34.26
34.232
34.204
34.176
34.149
34.123
34.097
34.072
34.049
34.026
34.005
33.984
33.965
33.946
33.926
33.907
33.887
33.866
33.844
33.822
33.799
33.776
33.752
33.726
33.7
33.672
33.644
33.614
33.585
33.554
33.522
33.49
33.458
33.426
33.398
33.373
33.351
33.332
33.315
33.3
33.285
33.27
33.254
33.237
33.219
33.198
33.175
33.15
33.124
33.096
33.068
33.04
33.013
32.987
32.962
32.939
32.919
32.9
32.882
32.865
32.849
32.835
32.823
32.817
32.818
32.828
32.852
32.892
32.952
33.032
33.135
33.262
33.413
33.588
33.788
34.009
34.25
34.509
34.78
35.061
35.347
35.636
35.922
36.201
36.471
36.729
36.971
37.196
37.401
37.587
37.754
37.9
38.026
38.132
38.22
38.291
38.349
38.393
38.425
38.446
38.458
38.461
38.457
38.446
38.431
38.41
38.387
38.361
38.333
38.303
38.273
38.242
38.212
38.18
38.148
38.115
38.081
38.046
38.011
37.975
37.94
37.906
37.87
37.833
37.794
37.751
37.704
37.652
37.594
37.532
37.466
37.395
37.323
37.249
37.175
37.101
37.029
36.959
36.892
36.828
36.768
36.712
36.661
36.613
36.568
36.528
36.492
36.459
36.429
36.402
36.378
36.356
36.336
36.317
36.298
36.279
36.26
36.244
36.229
36.215
36.202
36.19
36.177
36.161
36.142
36.117
36.086
36.048
36.003
35.952
35.894
35.83
35.763
35.691
35.618
35.543
35.47
35.398
35.329
35.264
35.202
35.145
35.091
35.04
34.993
34.948
34.905
34.864
34.823
34.782
34.74
34.697
34.654
34.61
34.567
34.525
34.485
34.446
34.409
34.373
34.338
34.304
34.273
34.242
34.213
34.183
34.154
34.125
34.096
34.067
34.039
34.012
33.986
33.961
33.938
33.917
33.899
33.883
33.868
33.854
33.839
33.824
33.808
33.79
33.771
33.75
33.727
33.703
33.677
33.651
33.625
33.601
33.579
33.559
33.541
33.525
33.51
33.496
33.483
33.469
33.454
33.439
33.422
33.405
33.387
33.368
33.347
33.327
33.306
33.285
33.265
33.246
33.227
33.209
33.191
33.173
33.154
33.135
33.116
33.097
33.079
33.061
33.043
33.025
33.005
32.985
32.965
32.944
32.921
32.898
32.875
32.851
32.828
32.806
32.786
32.769
32.757
32.749
32.748
32.757
32.776
32.809
32.858
32.927
33.016
33.129
33.265
33.426
33.611
33.818
34.045
34.289
34.549
34.819
35.096
35.376
35.655
35.931
36.199
36.455
36.698
36.925
37.134
37.323
37.491
37.639
37.767
37.877
37.968
38.043
38.101
38.146
38.179
38.2
38.212
38.216
38.213
38.204
38.19
38.172
38.15
38.125
38.099
38.07
38.041
38.01
37.977
37.944
37.91
37.876
37.842
37.809
37.775
37.741
37.706
37.669
37.63
37.589
37.545
37.498
37.447
37.393
37.335
37.274
37.21
37.144
37.075
37.006
36.937
36.868
36.802
36.74
36.684
36.639
36.603
36.577
36.557
36.542
36.531
36.52
36.508
36.493
36.476
36.456
36.431
36.403
36.373
36.34
36.307
36.275
36.244
36.214
36.186
36.159
36.133
36.107
36.081
36.056
36.029
36.001
35.97
35.937
35.9
35.859
35.816
35.769
35.719
35.668
35.614
35.558
35.501
35.443
35.385
35.328
35.27
35.212
35.155
35.1
35.046
34.993
34.943
34.894
34.848
34.804
34.762
34.721
34.682
34.645
34.611
34.579
34.549
34.52
34.493
34.467
34.44
34.413
34.385
34.356
34.326
34.295
34.265
34.235
34.206
34.178
34.152
34.128
34.105
34.085
34.066
34.048
34.031
34.014
33.996
33.978
33.959
33.939
33.92
33.901
33.883
33.866
33.85
33.834
33.819
33.803
33.787
33.771
33.753
33.735
33.717
33.699
33.68
33.661
33.642
33.623
33.604
33.585
33.565
33.546
33.527
33.509
33.492
33.476
33.461
33.445
33.428
33.409
33.389
33.367
33.343
33.317
33.29
33.263
33.235
33.207
33.178
33.148
33.118
33.088
33.059
33.032
33.01
32.994
32.988
32.993
33.013
33.052
33.112
33.196
33.305
33.442
33.605
33.792
34.001
34.228
34.471
34.726
34.99
35.26
35.532
35.802
36.067
36.324
36.571
36.804
37.021
37.22
37.402
37.566
37.71
37.834
37.938
38.024
38.091
38.142
38.178
38.201
38.212
38.214
38.206
38.192
38.173
38.149
38.123
38.094
38.064
38.034
38.003
37.973
37.943
37.913
37.885
37.856
37.827
37.797
37.765
37.732
37.695
37.654
37.609
37.559
37.504
37.445
37.382
37.315
37.246
37.175
37.103
37.03
36.959
36.888
36.821
36.759
36.701
36.648
36.599
36.553
36.511
36.472
36.435
36.402
36.372
36.344
36.32
36.298
36.28
36.263
36.248
36.234
36.221
36.207
36.194
36.179
36.165
36.15
36.134
36.116
36.097
36.076
36.052
36.026
35.997
35.966
35.932
35.895
35.856
35.814
35.77
35.723
35.675
35.624
35.573
35.52
35.466
35.412
35.359
35.304
35.249
35.194
35.138
35.082
35.026
34.971
34.918
34.866
34.816
34.769
34.725
34.683
34.643
