Trial 3:3back
34.051
34.083
34.12
34.158
34.198
34.238
34.278
34.318
34.356
34.392
34.424
34.453
34.477
34.495
34.508
34.515
34.515
34.51
34.498
34.481
34.458
34.431
34.4
34.366
34.327
34.285
34.239
34.189
34.136
34.078
34.018
33.955
33.889
33.822
33.753
33.684
33.614
33.546
33.478
33.412
33.347
33.285
33.226
33.169
33.116
33.065
33.016
32.969
32.922
32.874
32.826
32.776
32.725
32.672
32.617
32.56
32.504
32.449
32.397
32.347
32.3
32.258
32.219
32.184
32.154
32.13
32.111
32.096
32.087
32.083
32.086
32.098
32.121
32.157
32.211
32.286
32.389
32.524
32.695
32.909
33.167
33.474
33.828
34.228
34.673
35.157
35.675
36.22
36.783
37.354
37.926
38.487
39.029
39.542
40.019
40.451
40.835
41.166
41.441
41.659
41.82
41.926
41.982
41.99
41.955
41.882
41.777
41.645
41.49
41.318
41.132
40.936
40.734
40.529
40.321
40.112
39.902
39.694
39.485
39.278
39.07
38.863
38.658
38.458
38.262
38.07
37.884
37.702
37.523
37.345
37.17
36.995
36.82
36.645
36.47
36.292
36.114
35.935
35.757
35.581
35.408
35.24
35.08
34.927
34.783
34.65
34.527
34.417
34.32
34.235
34.163
34.104
34.056
34.019
33.993
33.976
33.97
33.973
33.984
34.002
34.027
34.057
34.091
34.128
34.167
34.204
34.24
34.274
34.304
34.331
34.353
34.371
34.385
34.394
34.397
34.394
34.386
34.372
34.352
34.326
34.295
34.257
34.213
34.163
34.108
34.05
33.989
33.927
33.864
33.8
33.736
33.672
33.609
33.546
33.485
33.425
33.366
33.308
33.25
33.192
33.134
33.076
33.017
32.958
32.899
32.841
32.782
32.724
32.668
32.612
32.557
32.503
32.451
32.401
32.353
32.306
32.261
32.218
32.177
32.139
32.103
32.071
32.043
32.018
31.997
31.979
31.966
31.958
31.959
31.968
31.989
32.025
32.081
32.16
32.267
32.406
32.583
32.801
33.062
33.369
33.72
34.116
34.555
35.032
35.542
36.079
36.634
37.199
37.763
38.316
38.848
39.351
39.816
40.237
40.607
40.923
41.183
41.388
41.537
41.634
41.681
41.683
41.645
41.57
41.463
41.327
41.168
40.989
40.795
40.588
40.372
40.149
39.922
39.692
39.462
39.232
39.004
38.78
38.561
38.346
38.137
37.933
37.732
37.535
37.341
37.148
36.956
36.763
36.572
36.38
36.189
36.0
35.813
35.63
35.453
35.282
35.117
34.96
34.811
34.672
34.544
34.426
34.319
34.223
34.138
34.063
33.997
33.94
33.893
33.855
33.827
33.808
33.8
33.801
33.81
33.827
33.85
33.878
33.91
33.944
33.979
34.014
34.05
34.085
34.12
34.154
34.186
34.216
34.243
34.266
34.285
34.298
34.304
34.302
34.294
34.279
34.257
34.23
34.198
34.162
34.121
34.077
34.028
33.976
33.919
33.859
33.795
33.729
33.662
33.595
33.529
33.465
33.404
33.346
33.292
33.24
33.192
33.145
33.1
33.057
33.014
32.972
32.93
32.888
32.847
32.804
32.763
32.721
32.68
32.638
32.596
32.552
32.507
32.461
32.416
32.371
32.328
32.287
32.249
32.215
32.183
32.154
32.13
32.109
32.093
32.083
32.079
32.083
32.098
32.126
32.172
32.24
32.333
32.458
32.617
32.814
33.054
33.339
33.669
34.044
34.462
34.918
35.408
35.926
36.464
37.014
37.568
38.118
38.654
39.167
39.649
40.092
40.49
40.839
41.135
41.376
41.56
41.69
41.766
41.792
41.77
41.707
41.607
41.475
41.317
41.137
40.939
40.727
40.504
40.275
40.04
39.804
39.568
39.333
39.1
38.869
38.642
38.418
38.199
37.985
37.774
37.568
37.365
37.165
36.968
36.773
36.579
36.388
36.199
36.013
35.828
35.645
35.466
35.291
35.12
34.954
34.794
34.64
34.494
34.356
34.227
34.11
34.006
33.915
33.839
33.778
33.731
33.699
33.68
33.674
33.68
33.694
33.717
33.748
33.784
33.826
33.871
33.917
33.964
34.009
34.051
34.089
34.123
34.151
34.174
34.191
34.203
34.21
34.213
34.212
34.207
34.199
34.188
34.172
34.152
34.128
34.1
34.069
34.033
33.993
33.949
33.902
33.852
33.8
33.746
33.692
33.637
33.581
33.526
33.47
33.415
33.36
33.306
33.254
33.203
33.154
33.108
33.063
33.022
32.982
32.944
32.907
32.87
32.833
32.795
32.757
32.718
32.678
32.636
32.594
32.552
32.511
32.471
32.432
32.396
32.361
32.328
32.298
32.271
32.248
32.236
32.241
32.269
32.319
32.392
32.486
32.601
32.74
32.902
33.09
33.306
33.555
33.838
34.158
34.518
34.915
35.35
35.818
36.315
36.833
37.365
37.903
38.436
38.956
39.453
39.917
40.342
40.721
41.05
41.324
41.541
41.703
41.811
41.868
41.879
41.846
41.776
41.674
41.545
41.394
41.223
41.038
40.841
40.637
40.427
40.214
40.0
39.785
39.572
39.359
39.146
38.934
38.723
38.513
38.303
38.095
37.888
37.683
37.479
37.277
37.077
36.878
36.682
36.488
36.296
36.107
35.922
35.74
35.564
35.395
35.232
35.075
34.923
34.773
34.627
34.486
34.352
34.229
34.117
34.02
33.938
33.872
33.822
33.788
33.768
33.761
33.766
33.781
33.806
33.839
33.88
33.927
33.98
34.036
34.094
34.151
34.207
34.259
34.307
34.348
34.382
34.409
34.428
34.441
34.448
34.45
34.446
34.435
34.419
34.398
34.371
34.34
34.305
34.266
34.224
34.178
34.129
34.079
34.026
33.973
33.919
33.865
33.81
33.755
33.699
33.644
33.588
33.533
33.477
33.42
33.361
33.3
33.238
33.175
33.113
33.051
32.992
32.935
32.881
32.831
32.785
32.742
32.702
32.665
32.628
32.592
32.556
32.52
32.485
32.451
32.418
32.386
32.356
32.329
32.305
32.288
32.278
32.278
32.294
32.328
32.386
32.473
32.594
32.754
32.957
33.206
33.503
33.849
34.244
34.685
35.169
35.688
36.237
36.806
37.385
37.963
38.53
39.077
39.595
40.075
40.51
40.894
41.223
41.496
41.71
41.867
41.968
42.017
42.019
41.977
41.898
41.786
41.648
41.488
41.312
41.124
40.927
40.725
40.519
40.311
40.102
39.894
39.685
39.478
39.272
39.067
38.863
38.661
38.461
38.263
38.068
37.875
37.685
37.496
37.307
37.118
36.928
36.739
36.55
36.363
36.179
35.998
35.823
35.652
35.489
35.333
35.184
35.045
34.915
34.795
34.686
34.588
34.502
34.426
34.362
34.307
34.26
34.223
34.193
34.171
34.156
34.149
34.149
34.158
34.174
34.197
34.227
34.262
34.299
34.337
34.374
34.408
34.438
34.463
34.483
34.497
34.505
34.507
34.502
34.492
34.476
34.454
34.426
34.393
34.355
34.311
34.263
34.211
34.157
34.101
34.044
33.985
33.926
33.866
33.806
33.745
33.683
33.62
33.556
33.491
33.426
33.361
33.297
33.237
33.186
33.145
33.111
33.083
33.058
33.033
33.006
32.974
32.936
32.893
32.843
32.788
32.729
32.667
32.605
32.542
32.481
32.423
32.368
32.32
32.279
32.245
32.221
32.209
32.209
32.226
32.262
32.321
32.408
32.526
32.679
32.872
33.11
33.393
33.725
34.103
34.524
34.984
35.477
35.995
36.529
37.072
37.613
38.144
38.656
39.141
39.591
39.999
40.362
40.675
40.938
41.148
41.307
41.416
41.477
41.492
41.465
41.398
41.298
41.17
41.018
40.846
40.66
40.462
40.256
40.045
39.832
39.619
39.407
39.197
38.989
38.783
38.578
38.375
38.173
37.972
37.772
37.573
37.375
37.177
36.981
36.785
36.59
36.399
36.21
36.026
35.846
35.669
35.497
35.329
35.166
35.009
34.858
34.713
34.577
34.449
34.331
34.224
34.127
34.042
33.969
33.907
33.857
33.818
33.791
33.773
33.765
33.764
33.77
33.782
33.799
33.821
33.845
33.872
33.901
33.93
33.961
33.99
34.017
34.042
34.063
34.08
34.09
34.094
34.091
34.083
34.069
34.052
34.031
34.007
33.982
33.954
33.923
33.889
33.853
33.813
33.769
33.722
33.673
33.621
33.567
33.511
33.453
33.392
33.328
33.259
33.186
33.111
33.036
32.961
32.889
32.821
32.757
32.698
32.643
32.594
32.547
32.504
32.463
32.423
32.385
32.348
32.312
32.279
32.248
32.22
32.197
32.179
32.167
32.165
32.174
32.197
32.237
32.3
32.388
32.507
32.66
32.852
33.085
33.362
33.683
34.046
34.449
34.887
35.355
35.845
36.35
36.861
37.37
37.869
38.349
38.804
39.226
39.61
39.951
40.247
40.495
40.695
40.847
40.952
41.013
41.032
41.012
40.957
40.872
40.759
40.622
40.465
40.29
40.102
39.902
39.693
39.477
39.257
39.034
38.812
38.591
38.374
38.159
37.949
37.744
37.542
37.344
37.149
36.955
36.763
36.57
36.377
36.183
35.99
35.798
35.608
35.422
35.24
35.063
34.894
34.732
34.579
34.436
34.302
34.179
34.066
33.965
33.877
33.801
33.739
33.688
33.649
33.621
33.603
33.594
33.592
33.598
33.61
33.627
33.649
33.674
33.702
33.731
33.762
33.793
33.824
33.852
33.877
33.899
33.919
33.937
33.953
33.967
33.979
33.989
33.996
34.001
34.001
33.998
33.991
33.979
33.96
33.936
33.906
33.872
33.834
33.792
33.746
33.699
33.648
33.597
33.551
33.511
33.477
33.449
33.423
33.398
33.37
33.339
33.303
33.261
33.213
33.158
33.098
33.033
32.965
32.895
32.826
32.758
32.695
32.636
32.583
32.538
32.501
32.476
32.463
32.465
32.485
32.528
32.598
32.697
32.832
33.004
33.217
33.472
33.769
34.108
34.485
34.898
35.34
35.807
36.292
36.786
37.284
37.777
38.257
38.718
39.151
39.552
39.915
40.235
40.508
40.733
40.909
41.035
41.113
41.146
41.136
41.087
41.003
40.887
40.744
40.578
40.392
40.19
39.976
39.752
39.521
39.285
39.048
38.811
38.576
38.345
38.121
37.906
37.7
37.501
37.309
37.12
36.934
36.75
36.564
36.377
36.188
35.997
35.805
35.614
35.425
35.239
35.059
34.886
34.723
34.571
34.43
34.3
34.182
34.075
33.979
33.895
33.822
33.761
33.712
33.675
33.649
33.634
33.629
33.632
33.642
33.658
33.679
33.704
33.731
33.761
33.792
33.825
33.859
33.892
33.925
33.956
33.984
34.01
34.032
34.05
34.064
34.073
34.076
34.075
34.068
34.056
34.039
34.018
33.992
33.962
33.929
33.892
33.854
33.812
33.767
33.719
33.668
33.613
33.555
33.496
33.437
33.377
33.317
33.256
33.195
33.135
33.077
33.021
32.967
32.913
32.86
32.808
32.757
32.707
32.659
32.613
32.57
32.529
32.493
32.463
32.439
32.425
32.421
32.43
32.456
32.502
32.572
32.671
32.803
32.972
33.18
33.43
33.722
34.057
34.433
34.848
35.298
35.777
36.278
36.792
37.311
37.828
38.334
38.82
39.279
39.704
40.089
40.429
40.718
40.954
41.137
41.267
41.346
41.378
41.367
41.317
41.232
41.118
40.979
40.818
40.641
40.452
40.255
40.052
39.845
39.636
39.426
39.216
39.008
38.803
38.6
38.401
38.204
38.009
37.816
37.624
37.434
37.245
37.057
36.869
36.68
36.49
36.299
36.108
35.919
35.732
35.549
35.37
35.197
35.03
34.868
34.714
34.568
34.431
34.303
34.187
34.081
33.988
33.906
33.836
33.779
33.735
33.703
33.683
33.674
33.674
33.684
33.701
33.724
33.752
33.785
33.82
33.859
33.898
33.938
33.977
34.012
34.044
34.071
34.092
34.107
34.116
34.119
34.116
34.107
34.092
34.073
34.05
34.023
33.994
33.963
33.93
33.895
33.856
33.815
33.771
33.724
33.675
33.623
33.569
33.514
33.459
33.402
33.345
33.288
33.229
33.17
33.11
33.046
32.981
32.915
32.849
32.787
32.727
32.671
32.62
32.572
32.528
32.487
32.448
32.412
32.381
32.354
32.336
32.327
32.332
32.353
32.395
32.461
32.555
32.682
32.846
33.05
33.296
33.586
33.921
34.299
34.717
35.173
35.66
36.172
36.702
37.241
37.781
38.311
38.822
39.305
39.752
40.156
40.512
40.815
41.064
41.257
41.396
41.482
41.519
41.51
41.461
41.376
41.259
41.116
40.952
40.772
40.579
40.376
40.167
39.955
39.743
39.531
39.323
39.118
38.917
38.721
38.528
38.339
38.151
37.965
37.78
37.595
37.41
37.225
37.039
36.853
36.667
36.483
36.3
36.118
35.937
35.759
35.584
35.412
35.244
35.082
34.926
34.776
34.634
34.501
34.377
34.263
34.161
34.071
33.994
33.931
33.88
33.841
33.813
33.797
33.79
33.793
33.803
33.82
33.842
33.868
33.898
33.931
33.964
33.996
34.027
34.055
34.08
34.101
34.118
34.133
34.146
34.155
34.162
34.164
34.163
34.156
34.144
34.126
34.101
34.071
34.035
33.993
33.946
33.896
33.842
33.785
33.727
33.666
33.604
33.542
33.48
33.418
33.356
33.294
33.233
33.174
33.115
33.057
33.0
32.945
32.889
32.834
32.775
32.71
32.639
32.564
32.485
32.407
32.329
32.256
32.188
32.127
32.075
32.033
32.004
31.987
31.983
31.995
32.023
32.071
32.14
32.233
32.355
32.51
32.702
32.935
33.211
33.532
33.9
34.311
34.762
35.249
35.764
36.3
36.848
37.399
37.942
38.468
38.969
39.436
39.863
40.245
40.577
40.856
41.083
41.258
41.38
41.454
41.482
41.468
41.417
41.334
41.223
41.09
40.939
40.772
40.594
40.405
40.208
40.006
39.8
39.592
39.383
39.173
38.964
38.757
38.552
38.348
38.146
37.946
37.748
37.552
37.357
37.165
36.974
36.786
36.601
36.42
36.243
36.071
35.901
35.735
35.571
35.409
35.25
35.096
34.947
34.805
34.672
34.547
34.433
34.33
34.236
34.153
34.079
34.015
33.96
33.913
33.874
33.844
33.823
33.81
33.806
33.81
33.822
33.842
33.867
33.895
33.926
33.958
33.989
34.017
34.043
34.065
34.083
34.098
34.109
34.116
34.118
34.114
34.104
34.087
34.063
34.033
33.996
33.953
33.904
33.852
33.796
33.739
33.681
33.623
33.565
33.509
33.454
33.399
33.345
33.291
33.237
33.182
33.127
33.071
33.013
32.955
32.896
32.837
32.778
32.719
32.66
32.602
32.546
32.493
32.442
32.394
32.35
32.308
32.269
32.231
32.196
32.162
32.129
32.098
32.067
32.037
32.009
31.983
31.961
31.944
31.934
31.934
31.946
31.974
32.022
32.094
32.195
32.329
32.499
32.71
32.963
33.262
33.605
33.993
34.422
34.89
35.389
35.914
36.456
37.006
37.554
38.092
38.61
39.099
39.552
39.963
40.326
40.638
40.897
41.101
41.251
41.349
41.397
41.398
41.355
41.275
41.161
41.018
40.851
40.664
40.462
40.248
40.026
39.799
39.571
39.343
39.118
38.898
38.682
38.47
38.263
38.059
37.857
37.657
37.458
37.26
37.063
36.866
36.668
36.468
36.269
36.071
35.875
35.682
35.493
35.31
35.133
34.964
34.802
34.649
34.507
34.375
34.255
34.146
34.048
33.96
33.883
33.817
33.761
33.715
33.679
33.652
33.633
33.624
33.623
33.631
33.647
33.671
33.7
33.733
33.768
33.803
33.838
33.87
33.898
33.923
33.945
33.965
33.982
33.997
34.011
34.023
34.031
34.037
34.038
34.034
34.025
34.01
33.989
33.962
33.929
33.892
33.85
33.805
33.757
33.705
33.651
33.593
33.533
33.47
33.405
33.341
33.276
33.213
33.152
33.093
33.037
32.983
32.931
32.881
32.832
32.784
32.738
32.692
32.646
32.601
32.556
32.514
32.472
32.433
32.396
32.361
32.328
32.296
32.264
32.234
32.203
32.173
32.144
32.114
32.086
32.059
32.035
32.015
32.0
31.991
31.99
31.999
32.021
32.059
32.119
32.204
32.32
32.472
32.663
32.898
33.177
33.503
33.872
34.281
34.726
35.201
35.699
36.212
36.733
37.254
37.768
38.267
38.744
39.192
39.604
39.976
40.304
40.584
40.815
40.995
41.125
41.206
41.239
41.228
41.175
41.086
40.964
40.813
40.639
40.445
40.236
40.016
39.789
39.556
39.321
39.087
38.853
38.622
38.393
38.167
37.943
37.721
37.501
37.282
37.066
36.853
36.644
36.439
36.238
36.041
35.849
35.662
35.478
35.299
35.125
34.955
34.792
34.636
34.488
34.35
34.222
34.104
33.998
33.905
33.825
33.758
33.704
33.662
33.632
33.612
33.603
33.602
33.609
33.623
33.642
33.666
33.694
33.725
33.759
33.795
33.832
33.87
33.908
33.945
33.981
34.014
34.046
34.074
34.098
34.117
34.132
34.14
34.143
34.14
34.133
34.12
34.103
34.081
34.053
34.019
33.981
33.937
33.89
33.839
33.785
33.728
33.669
33.61
33.55
33.491
33.433
33.376
33.321
33.268
33.217
33.168
33.123
33.082
33.043
33.006
32.971
32.934
32.897
32.858
32.819
32.778
32.735
32.691
32.647
32.602
32.559
32.517
32.476
32.436
32.398
32.36
32.325
32.293
32.263
32.237
32.215
32.197
32.185
32.179
32.182
32.194
32.22
32.263
32.327
32.416
32.535
32.688
32.878
33.11
33.384
33.701
34.059
34.456
34.889
35.351
35.838
36.344
36.86
37.379
37.893
38.394
38.875
39.328
39.747
40.126
40.461
40.748
40.984
41.169
41.302
41.386
41.421
41.411
41.358
41.268
41.144
40.992
40.817
40.622
40.414
40.197
39.974
39.751
39.527
39.306
39.089
38.878
38.672
38.471
38.274
38.079
37.884
37.689
37.492
37.291
37.088
36.881
36.673
36.465
36.258
36.053
35.852
35.656
35.466
35.283
35.107
34.94
34.782
34.632
34.491
34.359
34.238
34.128
34.029
33.942
33.867
33.805
33.756
33.719
33.695
33.684
33.683
33.692
33.709
33.733
33.763
33.796
33.831
33.869
33.907
33.945
33.983
34.019
34.053
34.084
34.111
34.133
34.151
34.163
34.17
34.171
34.166
34.156
34.142
34.123
34.1
34.074
34.045
34.013
33.978
33.939
33.897
33.852
33.804
33.753
33.701
33.647
33.593
33.539
33.484
33.43
33.375
33.319
33.263
33.208
33.153
33.1
33.049
33.0
32.954
32.91
32.868
32.828
32.789
32.75
32.711
32.672
32.632
32.592
32.552
32.512
32.473
32.434
32.394
32.356
32.318
32.282
32.246
32.213
32.181
32.153
32.128
32.109
32.097
32.094
32.102
32.124
32.163
32.221
32.304
32.417
32.564
32.749
32.975
33.244
33.557
33.912
34.309
34.744
35.212
35.707
36.223
36.753
37.287
37.818
38.337
38.836
39.309
39.747
40.145
40.499
40.802
41.054
41.254
41.401
41.498
41.547
41.552
41.516
41.444
41.339
41.206
41.05
40.875
40.684
40.482
40.273
40.056
39.83
39.598
39.362
39.125
38.891
38.66
38.436
38.218
38.007
37.804
37.607
37.416
37.23
37.05
36.875
36.704
36.535
36.368
36.203
36.039
35.876
35.713
35.551
35.39
35.231
35.075
34.923
34.776
34.638
34.509
34.389
34.281
34.184
34.1
34.027
33.965
33.915
33.875
33.846
33.828
33.818
33.817
33.825
33.841
33.863
33.892
33.926
33.962
34.002
34.042
34.082
34.119
34.153
34.183
34.207
34.226
34.239
34.246
34.248
34.244
34.236
34.223
34.207
34.186
34.163
34.136
34.105
34.07
34.032
33.99
33.945
33.897
33.847
33.795
33.739
33.679
33.617
33.553
33.49
33.427
33.365
33.303
33.243
33.185
33.13
33.078
33.028
32.982
32.94
32.9
32.861
32.824
32.788
32.754
32.719
32.685
32.65
32.617
32.584
32.552
32.519
32.487
32.455
32.422
32.39
32.357
32.324
32.292
32.261
32.233
32.209
32.191
32.18
32.178
32.187
32.208
32.246
32.303
32.385
32.496
32.639
32.818
33.037
33.298
33.602
33.948
34.335
34.761
35.22
35.706
36.212
36.731
37.254
37.775
38.284
38.773
39.235
39.662
40.049
40.389
40.681
40.922
41.111
41.25
41.341
41.386
41.389
41.353
41.282
41.18
41.05
40.896
40.723
40.534
40.335
40.127
39.914
39.699
39.484
39.269
39.057
38.846
38.637
38.431
38.227
38.026
37.828
37.633
37.442
37.253
37.067
36.882
36.699
36.518
36.338
36.16
35.984
35.811
35.639
35.471
35.306
35.145
34.989
34.841
34.702
34.571
34.448
34.335
34.231
34.138
34.057
33.986
33.927
33.879
33.842
33.814
33.797
33.789
33.79
33.798
33.813
33.834
33.859
33.888
33.92
33.954
33.988
34.021
34.053
34.083
34.11
34.132
34.15
34.163
34.171
34.173
34.168
34.159
34.145
34.127
34.105
34.079
34.048
34.014
33.975
33.933
33.888
33.84
33.791
33.741
33.689
33.637
33.585
33.532
33.479
33.425
33.371
33.318
33.265
33.214
33.166
33.12
33.077
33.037
32.999
32.962
32.926
32.89
32.855
32.82
32.785
32.75
32.716
32.683
32.651
32.621
32.59
32.56
32.529
32.497
32.464
32.43
32.395
32.361
32.328
32.297
32.269
32.244
32.222
32.204
32.19
32.181
32.177
32.18
32.192
32.214
32.249
32.302
32.375
32.471
32.596
32.753
32.946
33.179
33.452
33.767
34.121
34.512
34.937
35.388
35.86
36.346
36.841
37.336
37.824
38.297
38.748
39.172
39.562
39.913
40.222
40.486
40.703
40.874
40.998
41.076
41.11
41.102
41.055
40.973
40.859
40.718
40.553
40.369
40.169
39.957
39.737
39.512
39.285
39.058
38.834
38.613
38.397
38.185
37.978
37.774
37.573
37.373
37.176
36.979
36.782
36.587
36.392
36.199
36.008
35.82
35.637
