Trial 3:3back
32.89
32.876
32.86
32.843
32.823
32.799
32.773
32.746
32.718
32.689
32.661
32.633
32.607
32.584
32.564
32.547
32.534
32.523
32.516
32.512
32.512
32.516
32.526
32.544
32.574
32.619
32.682
32.766
32.873
33.004
33.16
33.342
33.548
33.775
34.023
34.286
34.563
34.847
35.134
35.419
35.698
35.966
36.22
36.456
36.673
36.869
37.044
37.198
37.33
37.44
37.529
37.599
37.651
37.685
37.706
37.714
37.712
37.703
37.688
37.669
37.648
37.625
37.601
37.578
37.557
37.537
37.519
37.503
37.488
37.476
37.464
37.453
37.441
37.429
37.415
37.399
37.38
37.356
37.329
37.296
37.258
37.213
37.164
37.109
37.05
36.987
36.921
36.852
36.782
36.711
36.64
36.571
36.503
36.437
36.374
36.314
36.258
36.205
36.157
36.116
36.087
36.069
36.061
36.059
36.061
36.065
36.066
36.064
36.056
36.042
36.022
35.996
35.963
35.925
35.884
35.84
35.795
35.748
35.7
35.65
35.601
35.552
35.503
35.455
35.408
35.362
35.317
35.273
35.229
35.184
35.139
35.093
35.048
35.001
34.955
34.909
34.863
34.818
34.774
34.729
34.686
34.643
34.601
34.559
34.516
34.473
34.429
34.384
34.339
34.293
34.247
34.202
34.158
34.115
34.074
34.036
34.0
33.967
33.936
33.907
33.88
33.854
33.829
33.804
33.777
33.747
33.714
33.678
33.639
33.597
33.554
33.51
33.466
33.423
33.383
33.345
33.311
33.279
33.251
33.226
33.203
33.183
33.164
33.147
33.132
33.119
33.109
33.101
33.094
33.089
33.084
33.079
33.073
33.066
33.059
33.057
33.059
33.066
33.074
33.082
33.087
33.086
33.08
33.065
33.044
33.014
32.977
32.932
32.882
32.828
32.771
32.712
32.655
32.603
32.557
32.521
32.497
32.489
32.499
32.532
32.588
32.671
32.781
32.918
33.085
33.279
33.498
33.739
33.999
34.272
34.555
34.842
35.13
35.413
35.688
35.95
36.198
36.428
36.641
36.835
37.01
37.166
37.304
37.424
37.527
37.614
37.687
37.747
37.794
37.83
37.856
37.872
37.879
37.879
37.873
37.862
37.846
37.826
37.804
37.779
37.752
37.723
37.693
37.663
37.633
37.603
37.575
37.548
37.522
37.497
37.472
37.446
37.419
37.39
37.357
37.32
37.279
37.235
37.188
37.137
37.082
37.024
36.962
36.897
36.83
36.762
36.694
36.626
36.554
36.478
36.399
36.318
36.238
36.162
36.093
36.032
35.981
35.94
35.911
35.891
35.88
35.876
35.877
35.881
35.887
35.891
35.894
35.892
35.886
35.875
35.858
35.836
35.809
35.778
35.744
35.709
35.675
35.64
35.605
35.57
35.535
35.498
35.46
35.421
35.381
35.339
35.295
35.249
35.202
35.152
35.101
35.048
34.994
34.941
34.888
34.837
34.788
34.741
34.697
34.653
34.611
34.568
34.526
34.484
34.442
34.399
34.357
34.314
34.271
34.227
34.182
34.137
34.092
34.046
34.0
33.954
33.909
33.866
33.824
33.784
33.746
33.711
33.679
33.65
33.626
33.604
33.584
33.566
33.549
33.532
33.515
33.497
33.477
33.455
33.431
33.406
33.38
33.353
33.327
33.301
33.276
33.253
33.231
33.21
33.189
33.17
33.15
33.129
33.108
33.088
33.07
33.052
33.036
33.019
33.001
32.982
32.959
32.934
32.906
32.876
32.845
32.812
32.779
32.746
32.714
32.682
32.653
32.625
32.598
32.574
32.553
32.534
32.519
32.507
32.502
32.506
32.52
32.549
32.597
32.665
32.756
32.874
33.017
33.186
33.381
33.6
33.841
34.1
34.373
34.655
34.942
35.23
35.513
35.789
36.054
36.303
36.535
36.748
36.94
37.111
37.259
37.387
37.493
37.58
37.647
37.697
37.733
37.755
37.768
37.772
37.769
37.762
37.752
37.74
37.726
37.712
37.699
37.687
37.678
37.67
37.665
37.66
37.655
37.651
37.645
37.638
37.628
37.615
37.599
37.578
37.552
37.521
37.485
37.444
37.397
37.343
37.283
37.218
37.146
37.071
36.991
36.909
36.827
36.745
36.667
36.591
36.52
36.453
36.39
36.332
36.28
36.232
36.189
36.15
36.115
36.084
36.055
36.029
36.004
35.98
35.957
35.936
35.915
35.898
35.883
35.87
35.86
35.849
35.836
35.821
35.803
35.78
35.752
35.721
35.687
35.651
35.613
35.574
35.535
35.495
35.455
35.414
35.372
35.33
35.287
35.243
35.199
35.156
35.111
35.065
35.018
34.97
34.92
34.869
34.814
34.757
34.696
34.633
34.567
34.501
34.434
34.368
34.305
34.245
34.189
34.137
34.091
34.05
34.013
33.98
33.951
33.926
33.904
33.884
33.867
33.849
33.832
33.813
33.793
33.771
33.746
33.719
33.689
33.658
33.625
33.593
33.562
33.533
33.507
33.483
33.463
33.446
33.431
33.418
33.406
33.394
33.38
33.363
33.346
33.327
33.307
33.288
33.269
33.251
33.235
33.221
33.208
33.198
33.19
33.184
33.178
33.173
33.167
33.16
33.151
33.14
33.128
33.112
33.095
33.075
33.053
33.03
33.004
32.978
32.951
32.925
32.902
32.884
32.87
32.864
32.866
32.878
32.902
32.941
32.996
33.07
33.164
33.281
33.419
33.582
33.767
33.975
34.202
34.448
34.708
34.978
35.255
35.534
35.81
36.079
36.339
36.585
36.816
37.029
37.222
37.395
37.545
37.675
37.783
37.871
37.941
37.993
38.032
38.058
38.073
38.08
38.08
38.075
38.067
38.055
38.042
38.029
38.014
37.999
37.983
37.967
37.951
37.933
37.914
37.893
37.871
37.846
37.82
37.791
37.761
37.729
37.694
37.656
37.614
37.569
37.521
37.469
37.415
37.359
37.302
37.243
37.183
37.122
37.061
37.0
36.939
36.878
36.819
36.761
36.705
36.653
36.604
36.559
36.516
36.478
36.443
36.412
36.384
36.359
36.337
36.319
36.304
36.291
36.28
36.269
36.259
36.25
36.24
36.23
36.22
36.21
36.198
36.184
36.168
36.15
36.129
36.105
36.078
36.048
36.014
35.977
35.936
35.892
35.845
35.794
35.741
35.686
35.629
35.57
35.509
35.448
35.387
35.327
35.268
35.212
35.157
35.105
35.054
35.005
34.956
34.909
34.86
34.812
34.763
34.714
34.664
34.614
34.563
34.511
34.458
34.407
34.357
34.309
34.263
34.221
34.183
34.148
34.119
34.094
34.074
34.058
34.043
34.031
34.019
34.008
33.996
33.982
33.968
33.952
33.933
33.912
33.887
33.861
33.832
33.802
33.77
33.743
33.728
33.724
33.73
33.741
33.754
33.766
33.774
33.774
33.765
33.745
33.713
33.671
33.62
33.562
33.498
33.432
33.367
33.304
33.248
33.197
33.154
33.119
33.093
33.076
33.069
33.072
33.086
33.112
33.151
33.206
33.277
33.367
33.477
33.609
33.761
33.935
34.13
34.345
34.577
34.825
35.085
35.353
35.625
35.9
36.173
36.441
36.701
36.948
37.182
37.4
37.6
37.782
37.945
38.089
38.215
38.323
38.414
38.487
38.544
38.585
38.613
38.627
38.631
38.627
38.616
38.6
38.582
38.562
38.541
38.519
38.497
38.476
38.454
38.433
38.412
38.393
38.374
38.355
38.334
38.312
38.288
38.261
38.231
38.198
38.161
38.12
38.074
38.023
37.968
37.908
37.844
37.776
37.706
37.634
37.562
37.49
37.421
37.354
37.288
37.225
37.163
37.104
37.047
36.993
36.941
36.892
36.844
36.799
36.756
36.715
36.676
36.639
36.603
36.57
36.539
36.512
36.487
36.466
36.446
36.428
36.41
36.392
36.373
36.351
36.328
36.302
36.274
36.243
36.209
36.172
36.133
36.089
36.041
35.99
35.935
35.879
35.822
35.764
35.706
35.648
35.59
35.532
35.474
35.416
35.358
35.3
35.244
35.188
35.133
35.079
35.027
34.975
34.924
34.874
34.826
34.777
34.729
34.681
34.632
34.581
34.53
34.478
34.426
34.374
34.323
34.272
34.223
34.175
34.128
34.083
34.04
33.999
33.962
33.928
33.897
33.87
33.845
33.822
33.801
33.779
33.757
33.735
33.711
33.687
33.661
33.634
33.607
33.579
33.552
33.526
33.502
33.481
33.461
33.444
33.429
33.414
33.399
33.383
33.367
33.349
33.328
33.305
33.28
33.253
33.225
33.194
33.161
33.127
33.091
33.055
33.019
32.984
32.949
32.917
32.889
32.864
32.844
32.828
32.816
32.808
32.805
32.809
32.82
32.842
32.877
32.929
33.002
33.099
33.222
33.372
33.551
33.757
33.99
34.247
34.524
34.819
35.126
35.441
35.759
36.076
36.386
36.686
36.971
37.239
37.486
37.712
37.914
38.094
38.251
38.387
38.503
38.601
38.68
38.744
38.792
38.828
38.852
38.868
38.876
38.878
38.876
38.872
38.865
38.858
38.85
38.842
38.835
38.828
38.82
38.812
38.803
38.795
38.787
38.778
38.768
38.758
38.746
38.731
38.714
38.693
38.668
38.637
38.6
38.555
38.503
38.445
38.382
38.314
38.241
38.165
38.086
38.004
37.921
37.837
37.752
37.668
37.586
37.506
37.43
37.359
37.292
37.231
37.174
37.124
37.078
37.037
37.0
36.968
36.939
36.913
36.888
36.864
36.84
36.816
36.792
36.768
36.743
36.718
36.693
36.668
36.641
36.612
36.58
36.546
36.51
36.469
36.426
36.379
36.33
36.278
36.224
36.168
36.111
36.054
35.996
35.94
35.884
35.83
35.776
35.724
35.673
35.623
35.575
35.526
35.478
35.43
35.382
35.332
35.28
35.225
35.167
35.106
35.041
34.975
34.907
34.838
34.769
34.7
34.632
34.567
34.503
34.441
34.382
34.325
34.271
34.22
34.171
34.125
34.08
34.037
33.995
33.954
33.915
33.876
33.838
33.8
33.763
33.726
33.689
33.652
33.615
33.582
33.551
33.523
33.499
33.478
33.46
33.445
33.43
33.416
33.402
33.386
33.368
33.35
33.329
33.306
33.281
33.254
33.226
33.198
33.169
33.14
33.113
33.088
33.063
33.039
33.014
32.988
32.96
32.931
32.901
32.87
32.838
32.805
32.77
32.735
32.698
32.662
32.627
32.594
32.566
32.544
32.53
32.529
32.544
32.578
32.634
32.717
32.828
32.968
33.138
33.338
33.566
33.819
34.093
34.386
34.693
35.011
35.335
35.662
35.987
36.307
36.616
36.912
37.191
37.452
37.692
37.911
38.108
38.284
38.438
38.571
38.683
38.774
38.846
38.902
38.942
38.968
38.984
38.99
38.989
38.981
38.968
38.95
38.93
38.907
38.883
38.858
38.832
38.804
38.776
38.747
38.716
38.682
38.646
38.606
38.563
38.518
38.471
38.42
38.366
38.308
38.248
38.184
38.116
38.046
37.972
37.895
37.815
37.733
37.651
37.568
37.487
37.407
37.33
37.255
37.183
37.114
37.049
36.986
36.927
36.871
36.817
36.766
36.717
36.671
36.627
36.585
36.545
36.507
36.471
36.438
36.406
36.376
36.349
36.323
36.299
36.275
36.25
36.226
36.202
36.176
36.149
36.12
36.088
36.053
36.015
35.974
35.93
35.884
35.838
35.79
35.74
35.689
35.636
35.58
35.521
35.46
35.396
35.329
35.261
35.193
35.126
35.058
34.991
34.925
34.86
34.796
34.733
34.671
34.611
34.552
34.495
34.439
34.385
34.333
34.282
34.232
34.182
34.133
34.085
34.037
33.99
33.945
33.902
33.863
33.829
33.798
33.771
33.747
33.725
33.705
33.687
33.672
33.657
33.644
33.632
33.619
33.605
33.59
33.575
33.559
33.542
33.526
33.51
33.495
33.48
33.466
33.451
33.435
33.419
33.403
33.386
33.37
33.352
33.334
33.315
33.296
33.276
33.255
33.233
33.211
33.188
33.165
33.141
33.115
33.09
33.064
33.038
33.014
32.991
32.968
32.945
32.922
32.9
32.877
32.855
32.833
32.814
32.799
32.792
32.795
32.812
32.848
32.905
32.988
33.1
33.241
33.412
33.612
33.84
34.092
34.365
34.654
34.957
35.268
35.582
35.896
36.206
36.506
36.794
37.064
37.314
37.541
37.743
37.919
38.071
38.199
38.304
38.388
38.452
38.497
38.525
38.538
38.537
38.526
38.505
38.479
38.451
38.422
38.395
38.371
38.349
38.33
38.314
38.3
38.287
38.274
38.261
38.247
38.23
38.21
38.186
38.157
38.121
38.078
38.028
37.97
37.905
37.833
37.757
37.675
37.59
37.5
37.408
37.313
37.218
37.123
37.031
36.944
36.862
36.786
36.719
36.658
36.604
36.557
36.515
36.48
36.451
36.428
36.41
36.396
36.385
36.375
36.365
36.353
36.338
36.32
36.298
36.271
36.242
36.21
36.177
36.141
36.104
36.066
36.026
35.985
35.945
35.904
35.865
35.825
35.785
35.745
35.704
35.663
35.62
35.577
35.531
35.484
35.435
35.382
35.328
35.271
35.214
35.156
35.097
35.04
34.982
34.926
34.87
34.815
34.759
34.704
34.648
34.594
34.541
34.489
34.438
34.389
34.342
34.298
34.255
34.212
34.17
34.128
34.085
34.043
34.0
33.958
33.916
33.874
33.833
33.792
33.752
33.714
33.677
33.64
33.605
33.569
33.535
33.501
33.467
33.435
33.404
33.373
33.345
33.318
33.293
33.27
33.25
33.231
33.214
33.199
33.185
33.171
33.157
33.143
33.127
33.11
33.091
33.07
33.046
33.02
32.99
32.956
32.919
32.88
32.838
32.795
32.751
32.709
32.667
32.628
32.591
32.559
32.533
32.513
32.503
32.503
32.514
32.541
32.585
32.65
32.735
32.844
32.977
33.137
33.322
33.533
33.769
34.026
34.303
34.595
34.898
35.207
35.518
35.826
36.128
36.419
36.697
36.96
37.205
37.43
37.635
37.819
37.98
38.117
38.233
38.327
38.402
38.46
38.502
38.53
38.548
38.556
38.557
38.55
38.538
38.522
38.503
38.481
38.457
38.43
38.401
38.371
38.34
38.309
38.278
38.247
38.215
38.182
38.149
38.114
38.079
38.042
38.003
37.962
37.919
37.872
37.823
37.771
37.716
37.657
37.594
37.528
37.459
37.387
37.312
37.235
37.155
37.074
36.993
36.913
36.835
36.76
36.69
36.625
36.566
36.512
36.464
36.421
36.385
36.355
36.33
36.311
36.296
36.283
36.272
36.261
36.249
36.234
36.217
36.198
36.176
36.152
36.126
36.098
36.068
36.036
36.002
35.964
35.924
35.882
35.837
35.791
35.743
35.693
35.64
35.584
35.526
35.466
35.402
35.337
35.271
35.204
35.139
35.074
35.01
34.948
34.887
34.829
34.772
34.717
34.664
34.613
34.563
34.513
34.465
34.417
34.369
34.321
34.274
34.226
34.18
34.134
34.09
34.045
34.001
33.957
33.912
33.867
33.821
33.776
33.732
33.688
33.645
33.603
33.561
33.52
33.481
33.443
33.407
33.373
33.341
33.312
33.284
33.259
33.235
33.214
33.197
33.182
33.169
33.158
33.146
33.134
33.121
33.106
33.089
33.07
33.048
33.026
33.002
32.978
32.954
32.931
32.908
32.888
32.869
32.852
32.836
32.821
32.805
32.788
32.767
32.743
32.715
32.684
32.651
32.616
32.581
32.546
32.512
32.481
32.451
32.425
32.4
32.376
32.348
32.315
32.278
32.239
32.2
32.164
32.134
32.115
32.11
32.123
32.158
32.218
32.307
32.428
32.583
32.771
32.991
33.242
33.52
33.822
34.144
34.481
34.828
35.18
35.532
35.88
36.219
36.544
36.852
37.139
37.403
37.644
37.86
38.05
38.214
38.354
38.47
38.564
38.638
38.694
38.735
38.762
38.778
38.785
38.785
38.78
38.77
38.758
38.743
38.727
38.709
38.69
38.671
38.653
38.635
38.616
38.596
38.575
38.552
38.526
38.498
38.466
38.433
38.396
38.357
38.314
38.268
38.218
38.163
38.104
38.04
37.97
37.896
37.817
37.734
37.649
37.56
37.472
37.383
37.297
37.212
37.131
37.053
36.981
36.915
36.855
36.802
36.756
36.716
36.683
36.653
36.624
36.59
36.552
36.511
36.467
36.424
36.381
36.341
36.305
36.274
36.247
36.224
36.205
36.189
36.174
36.16
36.146
36.131
36.114
36.094
36.072
36.047
36.019
35.986
35.95
35.909
35.863
35.813
35.761
35.707
35.652
35.596
35.541
35.485
35.428
35.369
35.308
35.245
35.178
35.109
35.039
34.967
34.895
34.822
34.75
34.68
34.612
34.546
34.483
34.422
34.366
34.312
34.262
34.214
34.169
34.126
34.084
34.044
34.005
33.967
33.929
33.891
33.854
33.817
33.782
33.747
33.715
33.685
33.657
33.63
33.604
33.577
33.549
33.519
33.486
33.45
33.412
33.372
33.332
33.292
33.254
33.217
33.182
33.146
33.11
33.075
33.041
33.009
32.98
32.955
32.933
32.915
32.9
32.888
32.879
32.871
32.865
32.859
32.854
32.846
32.837
32.823
32.806
32.784
32.757
32.727
32.694
32.658
32.621
32.583
32.545
32.508
32.473
32.44
32.409
32.38
32.353
32.326
32.3
32.274
32.248
32.224
32.202
32.184
32.171
32.166
32.171
32.191
32.229
32.289
32.373
32.486
32.63
32.804
33.009
33.244
33.506
33.793
34.1
34.423
34.759
35.1
35.442
35.779
36.106
36.42
36.718
36.998
37.258
37.499
37.717
37.915
38.09
38.242
38.373
38.482
38.569
38.637
38.687
38.721
38.742
38.751
38.749
38.738
38.72
38.697
38.669
38.637
38.604
38.569
38.533
38.497
38.46
38.421
38.379
38.336
38.291
38.244
38.197
38.15
38.101
38.053
38.004
37.954
37.903
37.849
37.794
37.736
37.674
37.608
37.538
37.464
37.389
37.312
37.233
37.154
37.075
36.996
36.921
36.848
36.779
36.714
36.653
36.598
36.548
36.503
36.462
36.427
36.397
36.37
36.347
36.326
36.308
36.291
36.276
36.262
36.248
36.234
36.219
36.205
36.19
36.172
36.154
36.133
36.11
36.083
36.052
36.018
35.98
35.938
35.893
35.844
35.792
35.736
35.679
35.621
35.563
35.504
35.446
35.388
35.33
35.272
35.215
35.156
35.097
35.038
34.979
34.919
34.858
34.798
34.737
34.676
34.615
34.553
34.491
34.429
34.361
34.285
34.204
34.118
34.033
33.952
33.878
33.814
33.762
33.722
33.695
33.678
33.67
33.668
33.672
33.678
33.686
33.693
33.698
33.701
33.699
33.693
33.683
33.669
33.652
33.632
33.609
33.584
33.557
33.528
33.499
33.47
33.44
33.412
33.385
33.36
33.338
33.317
33.297
33.278
33.259
33.242
33.227
33.213
33.202
33.194
33.188
33.184
33.182
33.18
33.178
33.174
33.167
33.155
33.138
33.115
33.085
33.05
33.01
32.966
32.92
32.873
32.826
32.783
32.742
32.704
32.67
32.639
32.613
32.592
32.577
32.569
32.569
32.579
32.602
32.641
32.7
32.783
32.892
33.03
33.198
33.396
33.623
33.876
34.153
34.448
34.758
35.079
35.405
35.732
36.056
36.372
36.676
36.967
37.24
37.494
37.727
37.937
38.125
38.292
38.437
38.56
38.664
38.748
38.814
38.863
38.897
38.917
38.925
38.923
38.912
38.894
38.872
38.845
38.815
38.783
38.749
38.714
38.677
38.64
38.603
38.566
38.527
38.486
38.444
38.398
38.349
38.297
38.24
38.179
38.113
38.042
37.967
37.888
37.804
37.717
37.627
37.534
37.439
37.344
37.251
37.16
37.074
36.991
36.913
36.84
36.773
36.712
36.658
36.61
36.57
36.537
36.51
36.489
36.472
36.459
36.448
36.438
36.428
36.418
36.408
36.397
36.385
36.372
36.356
36.337
36.314
36.287
36.256
36.222
36.186
36.148
36.108
36.068
36.027
35.985
35.943
35.9
35.857
35.813
35.769
35.724
35.677
35.629
35.579
35.527
35.473
35.415
35.354
35.289
35.219
35.146
35.069
34.988
34.906
34.823
34.741
34.661
34.586
34.514
34.446
34.383
34.322
34.265
34.211
34.16
34.111
34.064
34.019
33.975
33.933
33.891
33.849
33.808
33.767
33.728
33.69
33.653
33.618
33.584
33.552
33.52
33.489
33.458
33.426
33.395
33.362
33.329
33.296
33.262
33.228
33.194
33.161
33.129
33.1
33.073
33.048
33.026
33.006
32.987
32.972
32.957
32.945
32.934
32.923
32.912
32.9
32.884
32.866
32.844
32.821
32.796
32.77
32.744
32.717
32.692
32.666
32.641
32.617
32.592
32.566
32.538
32.509
32.478
32.446
32.412
32.377
32.342
32.31
32.282
32.262
32.254
32.26
32.285
32.334
32.409
32.513
32.649
32.816
33.016
33.246
33.506
33.792
34.101
34.43
34.773
35.125
35.483
35.841
36.193
36.537
36.868
37.184
37.482
37.76
38.017
38.251
38.463
38.653
38.82
38.966
39.09
39.193
39.278
39.345
39.395
39.432
39.455
39.467
39.468
39.459
39.442
39.418
39.387
39.353
39.315
39.275
39.236
39.197
39.16
39.125
39.091
39.056
39.019
38.981
38.942
38.9
38.857
38.811
38.762
38.71
38.654
38.594
38.531
38.464
38.393
38.319
38.243
38.164
38.084
38.003
37.921
37.841
37.763
37.687
37.615
37.548
37.485
37.427
37.373
37.323
37.277
37.235
37.195
37.159
37.126
37.097
37.072
37.05
37.03
37.011
36.993
36.975
36.958
36.94
36.921
36.901
36.881
36.86
36.837
36.811
36.783
36.75
36.713
36.673
36.628
36.579
36.527
36.472
36.414
36.354
36.292
36.227
36.161
36.093
36.024
35.954
35.884
35.813
35.742
35.671
35.6
35.532
35.467
35.405
35.346
35.289
35.234
35.18
35.126
35.071
35.015
34.958
34.898
34.835
34.771
34.706
34.639
34.572
34.505
34.439
34.375
34.312
34.252
34.195
34.141
34.089
34.041
33.996
33.954
33.915
33.878
33.844
33.812
33.781
33.751
33.72
33.69
33.661
33.632
33.604
33.579
33.556
