Trial 3:3back
35.423
35.35
35.287
35.232
35.185
35.147
35.115
35.09
35.072
35.06
35.054
35.053
35.056
35.063
35.072
35.084
35.096
35.108
35.119
35.129
35.137
35.144
35.149
35.153
35.155
35.155
35.154
35.151
35.145
35.136
35.124
35.108
35.087
35.062
35.031
34.997
34.957
34.913
34.865
34.814
34.76
34.703
34.645
34.584
34.522
34.459
34.396
34.333
34.271
34.209
34.149
34.09
34.031
33.974
33.918
33.863
33.809
33.756
33.704
33.652
33.6
33.549
33.497
33.446
33.395
33.345
33.294
33.244
33.193
33.143
33.093
33.043
32.994
32.946
32.899
32.852
32.807
32.763
32.719
32.675
32.633
32.591
32.549
32.509
32.468
32.428
32.389
32.35
32.313
32.278
32.246
32.219
32.2
32.189
32.192
32.21
32.247
32.308
32.395
32.511
32.66
32.843
33.06
33.311
33.595
33.909
34.251
34.616
35.0
35.398
35.805
36.216
36.624
37.026
37.415
37.788
38.141
38.471
38.775
39.051
39.297
39.513
39.697
39.852
39.976
40.071
40.137
40.178
40.194
40.189
40.164
40.121
40.063
39.992
39.908
39.814
39.712
39.603
39.489
39.372
39.252
39.132
39.013
38.894
38.777
38.661
38.548
38.438
38.329
38.222
38.117
38.013
37.91
37.807
37.705
37.603
37.501
37.399
37.297
37.195
37.092
36.99
36.888
36.788
36.688
36.59
36.494
36.402
36.312
36.227
36.146
36.071
36.0
35.936
35.878
35.826
35.781
35.742
35.71
35.684
35.663
35.648
35.637
35.629
35.624
35.622
35.621
35.621
35.621
35.62
35.618
35.615
35.611
35.604
35.595
35.584
35.571
35.555
35.537
35.516
35.493
35.467
35.439
35.409
35.377
35.342
35.305
35.266
35.224
35.18
35.134
35.085
35.034
34.981
34.926
34.87
34.813
34.756
34.698
34.639
34.58
34.52
34.459
34.397
34.336
34.274
34.214
34.154
34.096
34.039
33.982
33.926
33.871
33.816
33.762
33.709
33.657
33.606
33.555
33.506
33.457
33.408
33.361
33.313
33.266
33.219
33.173
33.126
33.079
33.032
32.985
32.937
32.89
32.842
32.795
32.749
32.703
32.658
32.615
32.573
32.533
32.496
32.463
32.434
32.411
32.398
32.396
32.408
32.44
32.494
32.573
32.682
32.823
32.997
33.206
33.45
33.728
34.037
34.374
34.736
35.117
35.512
35.917
36.325
36.732
37.132
37.52
37.892
38.243
38.572
38.874
39.149
39.394
39.608
39.791
39.944
40.066
40.159
40.224
40.263
40.278
40.271
40.245
40.202
40.143
40.071
39.987
39.894
39.793
39.686
39.574
39.459
39.341
39.222
39.103
38.984
38.865
38.748
38.632
38.518
38.405
38.295
38.186
38.08
37.975
37.873
37.771
37.67
37.57
37.47
37.369
37.267
37.165
37.061
36.957
36.852
36.747
36.643
36.541
36.442
36.348
36.257
36.173
36.094
36.021
35.955
35.896
35.843
35.797
35.757
35.724
35.696
35.675
35.658
35.646
35.638
35.633
35.632
35.634
35.637
35.642
35.647
35.652
35.656
35.657
35.656
35.651
35.644
35.634
35.62
35.603
35.582
35.556
35.527
35.493
35.456
35.415
35.37
35.324
35.274
35.222
35.168
35.113
35.055
34.996
34.935
34.873
34.809
34.745
34.68
34.615
34.55
34.485
34.42
34.356
34.292
34.229
34.166
34.102
34.04
33.978
33.917
33.857
33.799
33.742
33.686
33.63
33.576
33.521
33.467
33.414
33.362
33.31
33.258
33.207
33.158
33.109
33.062
33.016
32.971
32.927
32.883
32.84
32.797
32.754
32.712
32.67
32.627
32.585
32.543
32.501
32.46
32.419
32.38
32.341
32.303
32.266
32.233
32.203
32.178
32.162
32.156
32.164
32.188
32.232
32.299
32.393
32.517
32.672
32.861
33.082
33.337
33.623
33.938
34.279
34.643
35.024
35.418
35.82
36.224
36.624
37.017
37.396
37.759
38.101
38.42
38.712
38.976
39.21
39.412
39.584
39.723
39.832
39.912
39.964
39.99
39.991
39.971
39.931
39.873
39.8
39.715
39.619
39.515
39.404
39.287
39.166
39.043
38.917
38.791
38.664
38.538
38.413
38.29
38.169
38.05
37.932
37.817
37.703
37.591
37.479
37.368
37.258
37.149
37.041
36.933
36.825
36.719
36.613
36.509
36.406
36.306
36.209
36.116
36.027
35.942
35.863
35.789
35.722
35.662
35.609
35.562
35.523
35.49
35.463
35.442
35.425
35.412
35.403
35.397
35.395
35.395
35.399
35.404
35.41
35.417
35.424
35.431
35.436
35.44
35.442
35.442
35.438
35.433
35.424
35.413
35.398
35.38
35.359
35.333
35.304
35.271
35.234
35.193
35.148
35.1
35.049
34.994
34.938
34.879
34.819
34.759
34.698
34.637
34.576
34.516
34.455
34.394
34.333
34.272
34.212
34.152
34.092
34.033
33.974
33.915
33.857
33.8
33.742
33.686
33.629
33.573
33.518
33.463
33.408
33.354
33.301
33.247
33.194
33.141
33.088
33.036
32.985
32.935
32.885
32.836
32.789
32.743
32.699
32.656
32.614
32.574
32.535
32.497
32.458
32.42
32.382
32.345
32.307
32.27
32.233
32.198
32.166
32.138
32.115
32.099
32.093
32.1
32.123
32.165
32.231
32.324
32.446
32.601
32.788
33.01
33.264
33.55
33.862
34.199
34.554
34.925
35.305
35.69
36.074
36.452
36.82
37.173
37.508
37.82
38.108
38.369
38.601
38.803
38.975
39.117
39.229
39.313
39.37
39.402
39.411
39.399
39.368
39.32
39.257
39.18
39.092
38.995
38.89
38.779
38.662
38.541
38.417
38.289
38.16
38.029
37.899
37.768
37.64
37.512
37.387
37.263
37.141
37.022
36.903
36.786
36.67
36.555
36.441
36.328
36.216
36.107
35.999
35.894
35.792
35.694
35.599
35.51
35.426
35.348
35.276
35.21
35.151
35.1
35.055
35.018
34.989
34.966
34.951
34.942
34.94
34.944
34.952
34.965
34.982
35.002
35.024
35.047
35.07
35.093
35.114
35.133
35.15
35.163
35.173
35.179
35.18
35.177
35.169
35.156
35.138
35.115
35.087
35.055
35.019
34.98
34.938
34.893
34.846
34.797
34.746
34.693
34.638
34.581
34.523
34.464
34.403
34.342
34.281
34.219
34.157
34.095
34.033
33.969
33.905
33.84
33.775
33.709
33.644
33.578
33.514
33.451
33.389
33.329
33.271
33.215
33.16
33.107
33.056
33.006
32.958
32.911
32.866
32.821
32.778
32.736
32.693
32.651
32.608
32.565
32.523
32.481
32.44
32.399
32.358
32.318
32.278
32.238
32.199
32.161
32.123
32.085
32.049
32.015
31.984
31.959
31.941
31.934
31.942
31.967
32.015
32.087
32.189
32.321
32.486
32.685
32.919
33.186
33.483
33.809
34.16
34.531
34.916
35.313
35.714
36.115
36.512
36.898
37.271
37.625
37.957
38.265
38.546
38.798
39.019
39.21
39.371
39.502
39.603
39.677
39.725
39.748
39.75
39.731
39.695
39.643
39.578
39.501
39.413
39.317
39.213
39.103
38.987
38.867
38.744
38.619
38.492
38.364
38.236
38.108
37.983
37.859
37.739
37.622
37.509
37.398
37.29
37.184
37.079
36.976
36.873
36.771
36.67
36.569
36.468
36.368
36.271
36.174
36.08
35.988
35.899
35.814
35.732
35.655
35.583
35.516
35.455
35.402
35.355
35.314
35.281
35.253
35.231
35.214
35.203
35.198
35.197
35.2
35.207
35.216
35.226
35.237
35.247
35.256
35.263
35.268
35.27
35.269
35.265
35.257
35.245
35.229
35.209
35.185
35.157
35.125
35.09
35.052
35.01
34.966
34.92
34.87
34.818
34.763
34.705
34.645
34.582
34.518
34.452
34.385
34.317
34.25
34.184
34.118
34.053
33.989
33.926
33.862
33.8
33.737
33.676
33.615
33.556
33.499
33.442
33.387
33.334
33.283
33.232
33.181
33.13
33.079
33.027
32.975
32.922
32.871
32.82
32.771
32.722
32.675
32.629
32.585
32.544
32.504
32.466
32.429
32.394
32.359
32.325
32.292
32.258
32.225
32.192
32.159
32.125
32.092
32.059
32.028
31.998
31.971
31.947
31.93
31.92
31.922
31.938
31.972
32.028
32.108
32.217
32.357
32.529
32.737
32.979
33.254
33.563
33.901
34.265
34.651
35.054
35.468
35.887
36.307
36.722
37.126
37.516
37.887
38.236
38.56
38.856
39.124
39.361
39.568
39.743
39.887
40.0
40.084
40.14
40.17
40.176
40.16
40.125
40.072
40.004
39.923
39.832
39.731
39.623
39.509
39.391
39.269
39.144
39.019
38.893
38.768
38.644
38.522
38.402
38.285
38.17
38.057
37.946
37.836
37.728
37.621
37.514
37.408
37.301
37.194
37.086
36.978
36.871
36.764
36.657
36.552
36.449
36.347
36.249
36.153
36.062
35.975
35.893
35.817
35.746
35.682
35.624
35.572
35.525
35.484
35.448
35.418
35.393
35.374
35.36
35.35
35.344
35.343
35.344
35.347
35.351
35.356
35.361
35.365
35.367
35.368
35.365
35.36
35.351
35.339
35.324
35.305
35.284
35.26
35.232
35.202
35.168
35.131
35.09
35.046
34.998
34.948
34.895
34.841
34.784
34.727
34.668
34.609
34.549
34.488
34.426
34.364
34.302
34.238
34.175
34.11
34.046
33.981
33.915
33.848
33.781
33.714
33.647
33.58
33.513
33.447
33.381
33.316
33.252
33.189
33.127
33.068
33.012
32.958
32.906
32.856
32.809
32.763
32.719
32.676
32.634
32.592
32.55
32.509
32.468
32.428
32.388
32.35
32.312
32.274
32.237
32.2
32.163
32.126
32.089
32.051
32.013
31.974
31.935
31.897
31.861
31.829
31.803
31.784
31.776
31.783
31.806
31.852
31.923
32.023
32.154
32.318
32.516
32.748
33.013
33.31
33.636
33.987
34.36
34.749
35.15
35.558
35.966
36.37
36.766
37.148
37.513
37.857
38.177
38.47
38.735
38.97
39.175
39.35
39.496
39.613
39.702
39.765
39.803
39.818
39.812
39.787
39.743
39.683
39.608
39.521
39.423
39.317
39.203
39.083
38.959
38.831
38.701
38.569
38.437
38.306
38.177
38.05
37.925
37.803
37.684
37.568
37.454
37.342
37.232
37.122
37.012
36.903
36.794
36.684
36.574
36.464
36.354
36.245
36.136
36.028
35.923
35.821
35.724
35.632
35.547
35.467
35.394
35.329
35.271
35.219
35.175
35.139
35.109
35.087
35.072
35.063
35.059
35.06
35.065
35.073
35.083
35.094
35.105
35.116
35.126
35.134
35.139
35.142
35.141
35.137
35.13
35.12
35.106
35.088
35.066
35.039
35.007
34.969
34.927
34.88
34.83
34.776
34.721
34.665
34.608
34.551
34.495
34.44
34.386
34.331
34.277
34.223
34.168
34.114
34.059
34.005
33.95
33.895
33.841
33.787
33.733
33.679
33.626
33.573
33.52
33.467
33.414
33.362
33.31
33.258
33.207
33.157
33.106
33.055
33.005
32.954
32.905
32.858
32.813
32.771
32.732
32.697
32.665
32.636
32.609
32.583
32.558
32.533
32.506
32.477
32.443
32.404
32.359
32.308
32.251
32.189
32.123
32.055
31.988
31.926
31.871
31.827
31.8
31.794
31.812
31.86
31.942
32.059
32.215
32.411
32.646
32.919
33.229
33.57
33.939
34.331
34.739
35.157
35.579
36.0
36.412
36.811
37.192
37.551
37.885
38.191
38.467
38.712
38.925
39.106
39.256
39.375
39.464
39.526
39.561
39.571
39.559
39.527
39.476
39.41
39.33
39.238
39.136
39.026
38.909
38.786
38.66
38.532
38.401
38.27
38.138
38.007
37.876
37.745
37.615
37.486
37.357
37.229
37.101
36.972
36.844
36.715
36.585
36.455
36.325
36.196
36.069
35.943
35.82
35.701
35.585
35.475
35.369
35.269
35.176
35.088
35.008
34.934
34.868
34.809
34.758
34.714
34.678
34.649
34.628
34.613
34.605
34.603
34.607
34.616
34.63
34.647
34.667
34.689
34.713
34.736
34.759
34.781
34.799
34.815
34.827
34.834
34.838
34.837
34.832
34.822
34.808
34.79
34.767
34.74
34.709
34.673
34.634
34.591
34.544
34.493
34.44
34.384
34.325
34.265
34.203
34.141
34.08
34.019
33.958
33.899
33.84
33.781
33.722
33.664
33.605
33.547
33.488
33.429
33.37
33.31
33.25
33.191
33.131
33.072
33.014
32.955
32.896
32.837
32.778
32.718
32.659
32.601
32.543
32.486
32.43
32.375
32.321
32.268
32.216
32.165
32.115
32.067
32.02
31.973
31.928
31.884
31.844
31.807
31.777
31.756
31.748
31.755
31.782
31.831
31.908
32.014
32.153
32.325
32.531
32.772
33.045
33.349
33.681
34.037
34.412
34.802
35.201
35.603
36.004
36.398
36.78
37.147
37.493
37.817
38.115
38.386
38.628
38.839
39.019
39.168
39.287
39.377
39.44
39.478
39.492
39.485
39.459
39.415
39.355
39.281
39.194
39.097
38.99
38.874
38.751
38.622
38.489
38.353
38.215
38.075
37.935
37.795
37.656
37.518
37.381
37.246
37.114
36.983
36.854
36.727
36.6
36.475
36.35
36.226
36.102
35.979
35.857
35.736
35.616
35.498
35.384
35.273
35.166
35.065
34.97
34.882
34.801
34.727
34.661
34.603
34.553
34.511
34.477
34.451
34.431
34.419
34.413
34.413
34.417
34.424
34.435
34.448
34.462
34.477
34.492
34.507
34.522
34.534
34.545
34.554
34.559
34.562
34.561
34.556
34.547
34.534
34.516
34.493
34.465
34.433
34.396
34.355
34.311
34.262
34.211
34.158
34.102
34.046
33.988
33.93
33.872
33.815
33.758
33.702
33.645
33.589
33.531
33.473
33.414
33.353
33.291
33.228
33.164
33.101
33.038
32.976
32.915
32.856
32.799
32.745
32.693
32.644
32.596
32.551
32.507
32.465
32.423
32.382
32.341
32.3
32.258
32.216
32.174
32.131
32.088
32.045
32.001
31.958
31.915
31.872
31.829
31.787
31.745
31.705
31.666
31.63
31.597
31.568
31.547
31.535
31.536
31.552
31.587
31.645
31.73
31.845
31.993
32.176
32.395
32.65
32.939
33.26
33.611
33.988
34.387
34.803
35.231
35.666
36.104
36.538
36.963
37.376
37.77
38.143
38.491
38.811
39.101
39.36
39.585
39.777
39.936
40.062
40.157
40.222
40.259
40.27
40.258
40.224
40.17
40.1
40.014
39.916
39.808
39.692
39.57
39.444
39.315
39.186
39.056
38.927
38.8
38.674
38.55
38.427
38.306
38.186
38.067
37.949
37.832
37.716
37.601
37.486
37.371
37.255
37.138
37.02
36.901
36.782
36.664
36.546
36.43
36.317
36.206
36.1
35.999
35.903
35.813
35.729
35.652
35.582
35.52
35.466
35.42
35.381
35.35
35.325
35.306
35.293
35.284
35.279
35.278
35.28
35.285
35.29
35.297
35.304
35.31
35.315
35.319
35.322
35.323
35.321
35.318
35.311
35.301
35.288
35.272
35.252
35.23
35.205
35.176
35.145
35.112
35.076
35.037
34.996
34.952
34.906
34.857
34.806
34.752
34.696
34.637
34.576
34.513
34.448
34.383
34.318
34.253
34.19
34.13
34.071
34.015
33.96
33.907
33.855
33.804
33.752
33.699
33.646
33.591
33.535
33.478
33.42
33.361
33.302
33.243
33.184
33.126
33.07
33.014
32.961
32.909
32.86
32.812
32.767
32.724
32.682
32.642
32.603
32.565
32.527
32.489
32.451
32.412
32.372
32.332
32.292
32.254
32.218
32.188
32.167
32.156
32.161
32.184
32.231
32.304
32.409
32.547
32.72
32.93
33.176
33.458
33.774
34.121
34.494
34.89
35.302
35.725
36.154
36.582
37.004
37.414
37.809
38.182
38.532
38.855
39.148
39.411
39.641
39.84
40.007
40.143
40.251
40.33
40.383
40.411
40.416
40.399
40.362
40.309
40.239
40.157
40.061
39.955
39.839
39.715
39.586
39.451
39.314
39.174
39.033
38.893
38.754
38.616
38.481
38.348
38.218
38.09
37.964
37.84
37.718
37.596
37.475
37.354
37.233
37.113
36.994
36.875
36.756
36.639
36.524
36.41
36.3
36.192
36.089
35.99
35.896
35.807
35.724
35.648
35.578
35.514
35.458
35.407
35.363
35.324
35.291
35.264
35.241
35.222
35.208
35.198
35.191
35.187
35.186
35.187
35.189
35.191
35.195
35.197
35.199
35.2
35.199
35.195
35.189
35.179
35.166
35.149
35.128
35.102
35.073
35.039
35.001
34.958
34.911
34.861
34.806
34.749
34.689
34.626
34.561
34.494
34.426
34.355
34.284
34.213
34.141
34.07
33.999
33.929
33.859
33.79
33.722
33.655
33.589
33.524
33.461
33.399
33.338
33.279
33.222
33.166
33.112
33.059
33.007
32.956
32.905
32.855
32.804
32.754
32.704
32.654
32.604
32.556
32.508
32.461
32.416
32.371
32.328
32.286
32.244
32.204
32.164
32.124
32.085
32.046
32.006
31.967
31.927
31.888
31.848
31.808
31.77
31.733
31.701
31.675
31.657
31.652
31.663
31.693
31.746
31.825
31.935
32.079
32.257
32.472
32.722
33.005
33.32
33.663
34.028
34.412
34.809
35.215
35.624
36.032
36.433
36.823
37.197
37.551
37.882
38.186
38.461
38.706
38.919
39.101
39.252
39.372
39.462
39.525
39.562
39.575
39.566
39.538
39.492
39.431
39.356
39.269
39.172
39.067
38.955
38.837
38.715
38.59
38.462
38.333
38.202
38.071
37.94
37.808
37.676
37.545
37.413
37.282
37.151
37.019
36.888
36.756
36.624
36.493
36.363
36.234
36.106
35.98
35.855
35.733
35.614
35.499
35.388
35.281
35.18
35.084
34.994
34.912
34.836
34.767
34.706
34.653
34.607
34.569
34.539
34.516
34.5
34.49
34.485
34.486
34.491
34.5
34.512
34.525
34.541
34.557
34.574
34.591
34.607
34.62
34.632
34.64
34.647
34.65
34.65
34.648
34.642
34.632
34.618
34.6
34.578
34.552
34.521
34.487
34.449
34.407
34.363
34.315
34.265
34.213
34.16
34.104
34.047
33.989
33.931
33.872
33.814
33.755
33.696
33.638
33.579
33.519
33.46
33.402
33.344
33.287
33.232
33.178
33.125
33.074
33.024
32.975
32.928
32.881
32.835
32.789
32.744
32.698
32.652
32.607
32.561
32.515
32.469
32.423
32.377
32.331
32.284
32.238
32.192
32.146
32.101
32.056
32.011
31.967
31.923
31.881
31.84
31.802
31.767
31.738
31.716
31.705
31.708
31.728
31.769
31.835
31.929
32.053
32.21
32.399
32.62
32.873
33.155
33.464
33.795
34.144
34.505
34.875
35.247
35.618
35.981
36.333
36.671
36.99
37.287
37.561
37.808
38.027
38.218
38.38
38.513
38.619
38.698
38.752
38.781
38.788
38.773
38.741
38.691
38.627
38.55
38.463
38.367
38.264
38.155
38.043
37.928
37.811
37.692
37.572
37.45
37.328
37.204
37.079
36.953
36.826
36.699
36.571
36.443
36.316
36.188
36.061
35.934
35.807
35.681
35.557
35.434
35.314
35.197
35.085
34.977
34.874
34.777
34.687
34.603
34.527
34.458
34.399
34.348
34.305
34.27
34.243
34.223
34.209
34.201
34.198
34.199
34.203
34.21
34.219
34.23
34.241
34.252
34.264
34.275
34.285
34.293
34.3
34.305
34.309
34.312
34.314
34.314
34.312
34.308
34.3
34.289
34.274
34.254
34.23
34.201
34.169
34.133
34.094
34.053
34.009
33.962
33.913
33.861
33.808
33.753
33.698
33.643
33.587
33.532
33.476
33.42
33.363
33.307
33.25
33.194
33.138
33.082
33.027
32.973
32.92
32.867
32.815
32.764
32.714
32.665
32.617
32.569
32.522
32.476
32.431
32.388
32.345
32.303
32.261
32.219
32.178
32.136
32.094
32.053
32.012
31.971
31.93
31.888
31.847
31.807
31.768
31.731
31.697
31.668
31.646
31.632
31.631
31.646
31.679
31.736
31.819
31.931
32.074
32.249
32.457
32.697
32.968
33.266
33.59
33.934
34.295
34.667
35.046
35.426
35.801
36.167
36.519
36.853
37.167
37.457
37.722
37.959
38.169
38.35
38.504
38.631
38.733
38.809
38.863
38.894
38.905
38.897
38.872
38.831
38.776
38.708
38.63
38.543
38.448
38.349
38.245
38.138
38.028
37.916
37.802
37.687
37.571
37.454
37.337
37.22
37.103
36.987
36.872
36.757
36.644
36.532
36.422
36.313
36.205
36.098
35.992
35.887
35.782
35.679
35.577
35.479
35.383
35.291
35.203
35.12
35.042
34.97
34.903
34.842
34.787
34.738
34.694
34.657
34.625
34.598
34.577
34.561
34.55
34.544
34.542
34.545
34.551
34.56
34.572
34.586
34.601
34.616
34.629
34.641
34.65
34.656
34.658
34.656
34.65
34.639
34.623
34.602
34.578
34.549
34.517
34.481
34.442
34.401
34.358
34.314
34.269
34.223
34.177
34.13
34.082
34.034
33.987
33.939
33.892
33.844
33.797
33.751
33.704
33.657
33.61
33.562
33.515
33.467
33.419
33.37
33.321
33.272
33.223
33.174
33.126
33.077
33.03
32.983
32.936
32.889
32.842
32.796
32.749
32.702
32.655
32.609
32.563
32.517
32.472
32.428
32.385
32.343
32.302
32.262
32.224
32.186
32.151
32.117
32.085
32.056
32.029
32.007
31.99
31.981
31.983
31.998
32.031
32.085
32.164
32.27
32.407
32.575
32.777
33.011
33.276
33.571
33.891
34.234
34.594
34.968
35.349
35.734
36.116
36.491
36.854
37.203
37.533
37.842
38.126
38.386
38.62
38.827
39.007
39.161
39.289
39.39
39.468
39.522
39.554
39.565
39.557
39.531
39.49
39.434
39.367
39.289
39.202
39.109
39.011
38.908
38.802
38.695
38.586
38.476
38.366
38.255
38.144
38.033
37.923
37.814
37.705
37.598
