Trial 3:3back
36.773
36.751
36.728
36.701
36.67
36.634
36.594
36.549
36.501
36.449
36.394
36.336
36.277
36.217
36.158
36.099
36.042
35.988
35.938
35.893
35.853
35.817
35.786
35.76
35.737
35.718
35.7
35.685
35.669
35.655
35.64
35.626
35.611
35.597
35.583
35.568
35.553
35.539
35.527
35.516
35.508
35.501
35.498
35.496
35.495
35.493
35.49
35.484
35.474
35.462
35.448
35.432
35.413
35.392
35.369
35.342
35.313
35.282
35.251
35.22
35.189
35.16
35.132
35.106
35.08
35.054
35.026
34.997
34.965
34.931
34.894
34.856
34.816
34.776
34.734
34.692
34.65
34.609
34.568
34.53
34.494
34.46
34.43
34.404
34.38
34.358
34.338
34.317
34.295
34.273
34.25
34.226
34.202
34.178
34.154
34.132
34.111
34.093
34.077
34.063
34.052
34.044
34.037
34.031
34.025
34.018
34.01
33.998
33.984
33.967
33.949
33.929
33.909
33.89
33.873
33.858
33.845
33.834
33.825
33.817
33.809
33.802
33.795
33.787
33.777
33.764
33.747
33.727
33.705
33.682
33.66
33.639
33.621
33.608
33.601
33.6
33.605
33.617
33.635
33.661
33.696
33.739
33.793
33.857
33.933
34.022
34.124
34.239
34.366
34.503
34.649
34.803
34.963
35.128
35.295
35.462
35.625
35.783
35.933
36.073
36.2
36.313
36.412
36.496
36.566
36.621
36.663
36.694
36.714
36.727
36.734
36.736
36.734
36.73
36.726
36.722
36.719
36.716
36.713
36.71
36.707
36.704
36.699
36.69
36.678
36.662
36.643
36.622
36.598
36.572
36.544
36.513
36.481
36.448
36.415
36.381
36.346
36.311
36.275
36.239
36.202
36.164
36.124
36.081
36.037
35.991
35.944
35.897
35.85
35.805
35.762
35.723
35.688
35.659
35.636
35.62
35.613
35.614
35.625
35.642
35.665
35.689
35.713
35.734
35.751
35.761
35.765
35.762
35.753
35.738
35.717
35.69
35.659
35.625
35.589
35.553
35.516
35.481
35.449
35.418
35.389
35.362
35.334
35.306
35.278
35.249
35.221
35.193
35.165
35.138
35.112
35.086
35.062
35.037
35.014
34.99
34.966
34.944
34.922
34.901
34.88
34.859
34.836
34.811
34.784
34.754
34.722
34.688
34.652
34.616
34.58
34.546
34.514
34.484
34.456
34.43
34.405
34.381
34.358
34.335
34.311
34.285
34.257
34.228
34.198
34.169
34.143
34.118
34.096
34.076
34.059
34.044
34.031
34.019
34.007
33.994
33.98
33.964
33.949
33.933
33.916
33.898
33.88
33.861
33.841
33.821
33.802
33.785
33.769
33.755
33.744
33.735
33.728
33.722
33.716
33.712
33.706
33.701
33.694
33.685
33.675
33.666
33.658
33.653
33.651
33.654
33.665
33.684
33.712
33.751
33.802
33.865
33.939
34.024
34.12
34.227
34.344
34.468
34.6
34.737
34.878
35.02
35.163
35.303
35.44
35.572
35.698
35.818
35.932
36.038
36.137
36.228
36.309
36.381
36.442
36.493
36.534
36.565
36.587
36.601
36.61
36.613
36.614
36.613
36.609
36.603
36.595
36.585
36.575
36.565
36.555
36.544
36.533
36.52
36.505
36.49
36.472
36.453
36.432
36.409
36.384
36.356
36.327
36.296
36.264
36.231
36.198
36.166
36.135
36.106
36.077
36.049
36.023
35.997
35.973
35.95
35.928
35.907
35.884
35.86
35.833
35.804
35.772
35.74
35.707
35.674
35.643
35.614
35.588
35.566
35.548
35.534
35.524
35.519
35.519
35.523
35.529
35.538
35.547
35.555
35.561
35.563
35.561
35.556
35.546
35.533
35.517
35.498
35.476
35.452
35.425
35.397
35.367
35.337
35.307
35.276
35.245
35.213
35.179
35.142
35.103
35.06
35.014
34.966
34.915
34.863
34.812
34.761
34.711
34.664
34.621
34.58
34.544
34.512
34.484
34.459
34.436
34.414
34.394
34.373
34.352
34.33
34.308
34.286
34.264
34.244
34.224
34.206
34.19
34.176
34.164
34.154
34.145
34.138
34.131
34.124
34.116
34.106
34.094
34.08
34.063
34.044
34.024
34.003
33.981
33.96
33.941
33.924
33.909
33.896
33.886
33.877
33.869
33.862
33.855
33.846
33.836
33.823
33.808
33.792
33.775
33.758
33.742
33.727
33.715
33.706
33.7
33.697
33.697
33.7
33.707
33.717
33.731
33.751
33.778
33.814
33.859
33.916
33.984
34.065
34.159
34.264
34.381
34.508
34.645
34.789
34.939
35.092
35.246
35.398
35.545
35.684
35.815
35.936
36.044
36.141
36.228
36.304
36.371
36.429
36.478
36.517
36.549
36.574
36.595
36.612
36.624
36.631
36.633
36.63
36.622
36.608
36.589
36.566
36.54
36.512
36.482
36.453
36.423
36.395
36.369
36.344
36.321
36.301
36.282
36.264
36.248
36.232
36.216
36.197
36.175
36.148
36.117
36.081
36.041
35.996
35.949
35.9
35.851
35.803
35.757
35.715
35.678
35.647
35.622
35.603
35.589
35.581
35.577
35.577
35.581
35.587
35.595
35.603
35.611
35.617
35.623
35.627
35.629
35.63
35.629
35.629
35.63
35.632
35.636
35.641
35.646
35.649
35.652
35.654
35.653
35.651
35.646
35.638
35.627
35.614
35.597
35.577
35.553
35.526
35.497
35.466
35.435
35.405
35.376
35.348
35.323
35.299
35.276
35.255
35.233
35.212
35.19
35.167
35.143
35.117
35.089
35.058
35.024
34.987
34.948
34.907
34.866
34.825
34.783
34.742
34.702
34.663
34.627
34.593
34.561
34.531
34.503
34.476
34.45
34.426
34.402
34.379
34.355
34.332
34.31
34.289
34.271
34.255
34.241
34.23
34.222
34.216
34.213
34.209
34.205
34.2
34.192
34.183
34.171
34.157
34.141
34.123
34.103
34.083
34.063
34.044
34.027
34.013
34.004
34.0
34.003
34.014
34.032
34.057
34.088
34.126
34.17
34.223
34.285
34.356
34.436
34.524
34.622
34.728
34.842
34.962
35.088
35.218
35.352
35.487
35.623
35.757
35.889
36.014
36.131
36.238
36.333
36.417
36.488
36.547
36.594
36.631
36.66
36.681
36.697
36.707
36.714
36.718
36.719
36.717
36.714
36.709
36.703
36.695
36.687
36.678
36.668
36.657
36.643
36.626
36.606
36.582
36.556
36.529
36.5
36.471
36.441
36.411
36.38
36.348
36.316
36.284
36.253
36.223
36.196
36.17
36.146
36.122
36.098
36.072
36.045
36.015
35.983
35.949
35.913
35.877
35.842
35.808
35.778
35.753
35.733
35.719
35.712
35.709
35.711
35.717
35.727
35.739
35.753
35.768
35.782
35.795
35.807
35.815
35.819
35.818
35.811
35.798
35.781
35.759
35.734
35.706
35.676
35.645
35.615
35.585
35.556
35.527
35.499
35.472
35.446
35.42
35.394
35.366
35.334
35.299
35.259
35.217
35.173
35.128
35.084
35.041
35.0
34.964
34.931
34.904
34.88
34.859
34.841
34.824
34.808
34.792
34.776
34.759
34.738
34.714
34.687
34.658
34.629
34.599
34.571
34.543
34.518
34.495
34.474
34.455
34.437
34.421
34.406
34.392
34.378
34.365
34.352
34.338
34.323
34.306
34.288
34.269
34.248
34.228
34.208
34.191
34.178
34.168
34.161
34.158
34.158
34.159
34.161
34.162
34.163
34.162
34.159
34.153
34.147
34.139
34.131
34.126
34.123
34.125
34.13
34.139
34.154
34.177
34.21
34.255
34.315
34.392
34.484
34.591
34.711
34.844
34.986
35.137
35.293
35.453
35.613
35.773
35.93
36.083
36.231
36.371
36.505
36.628
36.742
36.844
36.934
37.013
37.081
37.139
37.188
37.227
37.258
37.281
37.296
37.305
37.31
37.312
37.311
37.307
37.301
37.295
37.287
37.278
37.268
37.256
37.242
37.227
37.211
37.193
37.172
37.149
37.124
37.097
37.068
37.037
37.005
36.972
36.939
36.904
36.869
36.834
36.798
36.762
36.727
36.692
36.659
36.628
36.598
36.57
36.542
36.515
36.488
36.462
36.437
36.412
36.387
36.363
36.338
36.313
36.288
36.263
36.24
36.218
36.199
36.184
36.173
36.165
36.16
36.158
36.158
36.158
36.158
36.158
36.156
36.153
36.149
36.141
36.131
36.116
36.099
36.078
36.055
36.03
36.003
35.974
35.943
35.907
35.864
35.814
35.759
35.701
35.642
35.585
35.53
35.48
35.436
35.398
35.366
35.34
35.32
35.303
35.29
35.277
35.265
35.253
35.239
35.224
35.207
35.188
35.166
35.142
35.116
35.089
35.06
35.029
34.996
34.962
34.927
34.892
34.858
34.824
34.792
34.76
34.728
34.698
34.67
34.643
34.617
34.594
34.572
34.553
34.535
34.518
34.502
34.485
34.466
34.447
34.427
34.408
34.389
34.372
34.356
34.341
34.328
34.317
34.307
34.298
34.289
34.279
34.268
34.257
34.244
34.229
34.212
34.192
34.171
34.15
34.129
34.111
34.094
34.081
34.072
34.068
34.071
34.081
34.099
34.124
34.158
34.2
34.251
34.312
34.383
34.464
34.555
34.656
34.767
34.888
35.019
35.158
35.305
35.458
35.615
35.775
35.935
36.093
36.247
36.393
36.53
36.656
36.772
36.875
36.967
37.046
37.112
37.166
37.207
37.237
37.256
37.266
37.269
37.266
37.259
37.252
37.244
37.236
37.228
37.22
37.213
37.206
37.197
37.188
37.175
37.158
37.137
37.111
37.081
37.047
37.009
36.969
36.927
36.884
36.84
36.794
36.749
36.704
36.661
36.62
36.581
36.545
36.512
36.481
36.452
36.424
36.395
36.365
36.334
36.302
36.269
36.237
36.204
36.173
36.143
36.114
36.087
36.062
36.04
36.021
36.006
35.995
35.988
35.984
35.984
35.984
35.986
35.987
35.987
35.985
35.98
35.97
35.956
35.936
35.913
35.885
35.854
35.82
35.784
35.747
35.71
35.675
35.641
35.611
35.582
35.557
35.534
35.514
35.495
35.477
35.458
35.435
35.41
35.381
35.35
35.316
35.28
35.241
35.2
35.158
35.116
35.072
35.029
34.986
34.943
34.902
34.863
34.827
34.792
34.757
34.723
34.687
34.65
34.612
34.573
34.532
34.492
34.452
34.414
34.379
34.347
34.319
34.295
34.275
34.26
34.248
34.241
34.236
34.233
34.231
34.228
34.223
34.216
34.207
34.195
34.18
34.163
34.143
34.123
34.102
34.082
34.064
34.047
34.033
34.021
34.011
34.002
33.993
33.982
33.971
33.959
33.947
33.934
33.921
33.906
33.891
33.876
33.861
33.847
33.835
33.825
33.817
33.811
33.809
33.811
33.816
33.826
33.841
33.863
33.893
33.932
33.98
34.04
34.111
34.193
34.288
34.396
34.515
34.646
34.785
34.933
35.087
35.243
35.399
35.553
35.701
35.841
35.971
36.092
36.201
36.3
36.388
36.465
36.531
36.587
36.632
36.667
36.693
36.711
36.723
36.728
36.728
36.722
36.712
36.698
36.679
36.657
36.631
36.603
36.573
36.541
36.509
36.477
36.445
36.413
36.382
36.353
36.325
36.298
36.273
36.247
36.221
36.195
36.168
36.139
36.11
36.079
36.047
36.012
35.974
35.934
35.89
35.843
35.795
35.746
35.698
35.652
35.61
35.572
35.539
35.511
35.488
35.471
35.459
35.452
35.449
35.449
35.454
35.462
35.473
35.485
35.496
35.507
35.514
35.518
35.52
35.518
35.513
35.504
35.493
35.479
35.463
35.445
35.427
35.407
35.387
35.365
35.342
35.317
35.29
35.261
35.228
35.193
35.155
35.116
35.076
35.036
34.996
34.956
34.917
34.878
34.84
34.803
34.769
34.736
34.704
34.674
34.646
34.619
34.593
34.567
34.54
34.512
34.483
34.456
34.429
34.403
34.379
34.354
34.33
34.306
34.281
34.257
34.231
34.205
34.179
34.152
34.126
34.101
34.076
34.052
34.029
34.007
33.987
33.969
33.953
33.937
33.922
33.906
33.89
33.873
33.856
33.838
33.819
33.799
33.78
33.76
33.741
33.723
33.707
33.692
33.68
33.671
33.664
33.66
33.658
33.657
33.658
33.661
33.668
33.679
33.694
33.715
33.742
33.778
33.822
33.878
33.944
34.022
34.111
34.209
34.316
34.429
34.547
34.667
34.789
34.91
35.028
35.144
35.256
35.365
35.47
35.571
35.667
35.758
35.842
35.92
35.991
36.055
36.11
36.156
36.194
36.223
36.244
36.256
36.26
36.256
36.245
36.229
36.207
36.182
36.154
36.124
36.093
36.062
36.033
36.006
35.981
35.959
35.939
35.922
35.907
35.894
35.88
35.864
35.845
35.822
35.796
35.768
35.735
35.699
35.66
35.618
35.575
35.533
35.492
35.452
35.415
35.38
35.347
35.318
35.292
35.269
35.247
35.225
35.204
35.183
35.164
35.145
35.128
35.112
35.098
35.086
35.078
35.073
35.072
35.075
35.081
35.09
35.1
35.112
35.122
35.13
35.133
35.133
35.127
35.116
35.101
35.083
35.061
35.038
35.013
34.988
34.964
34.939
34.915
34.892
34.869
34.846
34.823
34.797
34.769
34.736
34.701
34.662
34.621
34.578
34.535
34.493
34.452
34.414
34.378
34.344
34.313
34.283
34.256
34.231
34.209
34.189
34.17
34.151
34.132
34.112
34.092
34.07
34.048
34.025
34.004
33.984
33.966
33.95
33.935
33.921
33.907
33.893
33.879
33.865
33.85
33.834
33.817
33.799
33.782
33.767
33.752
33.74
33.731
33.724
33.72
33.718
33.719
33.721
33.723
33.724
33.724
33.722
33.716
33.708
33.698
33.685
33.671
33.658
33.644
33.633
33.623
33.616
33.61
33.605
33.603
33.602
33.604
33.608
33.616
33.627
33.643
33.665
33.693
33.728
33.772
33.824
33.885
33.956
34.036
34.127
34.227
34.335
34.448
34.565
34.685
34.804
34.923
35.04
35.153
35.262
35.367
35.467
35.562
35.651
35.735
35.815
35.889
35.959
36.023
36.082
36.134
36.178
36.215
36.242
36.261
36.271
36.272
36.267
36.254
36.237
36.216
36.191
36.166
36.141
36.117
36.095
36.076
36.062
36.051
36.045
36.041
36.038
36.035
36.03
36.022
36.011
35.996
35.977
35.953
35.926
35.896
35.862
35.827
35.791
35.754
35.718
35.683
35.651
35.621
35.594
35.57
35.547
35.525
35.504
35.483
35.462
35.44
35.419
35.398
35.378
35.36
35.344
35.33
35.319
35.31
35.304
35.3
35.299
35.299
35.3
35.302
35.302
35.299
35.294
35.286
35.275
35.261
35.244
35.225
35.204
35.182
35.159
35.137
35.116
35.094
35.074
35.054
35.036
35.018
35.0
34.983
34.964
34.944
34.921
34.897
34.87
34.841
34.81
34.777
34.743
34.71
34.676
34.643
34.61
34.578
34.546
34.514
34.484
34.454
34.424
34.394
34.364
34.334
34.303
34.273
34.243
34.214
34.186
34.159
34.134
34.113
34.094
34.078
34.064
34.052
34.041
34.028
34.015
34.0
33.983
33.965
33.946
33.928
33.91
33.894
33.879
33.866
33.856
33.848
33.842
33.84
33.838
33.837
33.836
33.833
33.827
33.818
33.806
33.792
33.777
33.762
33.749
33.737
33.728
33.721
33.715
33.711
33.707
33.703
33.698
33.691
33.682
33.671
33.66
33.649
33.639
33.63
33.624
33.621
33.621
33.625
33.635
33.65
33.67
33.696
33.728
33.767
33.812
33.863
33.92
33.983
34.054
34.133
34.22
34.318
34.425
34.54
34.662
34.79
34.921
35.054
35.187
35.316
35.44
35.557
35.666
35.765
35.856
35.936
36.006
36.067
36.118
36.162
36.198
36.228
36.252
36.272
36.286
36.297
36.305
36.309
36.311
36.311
36.308
36.303
36.294
36.283
36.267
36.247
36.224
36.197
36.168
36.139
36.111
36.084
36.059
36.037
36.017
35.999
35.984
35.971
35.96
35.95
35.939
35.927
35.913
35.896
35.875
35.851
35.823
35.792
35.759
35.725
35.69
35.657
35.625
35.595
35.567
35.543
35.523
35.507
35.494
35.483
35.475
35.468
35.461
35.455
35.447
35.437
35.426
35.412
35.398
35.385
35.372
35.36
35.35
35.342
35.336
35.333
35.332
35.333
35.335
35.337
35.336
35.332
35.323
35.308
35.288
35.261
35.229
35.194
35.156
35.118
35.079
35.04
35.003
34.967
34.933
34.902
34.872
34.845
34.821
34.797
34.773
34.749
34.724
34.698
34.669
34.637
34.602
34.565
34.528
34.492
34.457
34.423
34.393
34.366
34.344
34.325
34.309
34.294
34.281
34.269
34.258
34.25
34.243
34.238
34.234
34.231
34.23
34.229
34.228
34.227
34.226
34.223
34.218
34.212
34.203
34.191
34.176
34.158
34.137
34.115
34.094
34.074
34.057
34.041
34.027
34.017
34.008
34.0
33.993
33.986
33.976
33.966
33.955
33.943
33.931
33.918
33.903
33.889
33.874
33.861
33.849
33.838
33.828
33.819
33.81
33.804
33.801
33.802
33.806
33.816
33.832
33.854
33.883
33.92
33.965
34.016
34.076
34.145
34.222
34.307
34.399
34.497
34.599
34.704
34.812
34.922
35.032
35.142
35.249
35.354
35.455
35.55
35.64
35.722
35.795
35.861
35.918
35.967
36.008
36.04
36.064
36.079
36.086
36.087
36.083
36.074
36.063
36.05
36.035
36.02
36.005
35.989
35.972
35.953
35.933
35.913
35.893
35.876
35.861
35.848
35.836
35.826
35.815
35.805
35.794
35.784
35.774
35.764
35.754
35.745
35.735
35.724
35.71
35.695
35.677
35.658
35.638
35.619
35.601
35.583
35.566
35.551
35.538
35.529
35.522
35.518
35.517
35.52
35.525
35.534
35.545
35.558
35.569
35.58
35.588
35.595
35.6
35.604
35.605
35.605
35.604
35.602
35.601
35.599
35.597
35.595
35.592
35.589
35.585
35.579
35.571
35.559
35.544
35.526
35.504
35.48
35.453
35.423
35.39
35.355
35.319
35.281
35.243
35.206
35.17
35.135
35.102
35.071
35.044
35.018
34.994
34.97
34.945
34.919
34.891
34.863
34.835
34.806
34.779
34.754
34.73
34.708
34.689
34.671
34.654
34.639
34.626
34.613
34.601
34.588
34.574
34.558
34.539
34.516
34.491
34.463
34.434
34.405
34.377
34.351
34.328
34.307
34.29
34.275
34.263
34.253
34.243
34.233
34.224
34.219
34.217
34.217
34.219
34.222
34.223
34.223
34.219
34.212
34.2
34.184
34.165
34.142
34.116
34.089
34.06
34.034
34.011
33.995
33.985
33.984
33.992
34.011
34.043
34.089
34.148
34.221
34.307
34.406
34.516
34.635
34.762
34.893
35.025
35.156
35.283
35.406
35.523
35.633
35.736
35.831
35.919
35.999
36.07
36.132
36.186
36.231
36.27
36.303
36.331
36.356
36.375
36.389
36.397
36.397
36.392
36.382
36.367
36.349
36.327
36.303
36.279
36.254
36.231
36.21
36.19
36.173
36.158
36.147
36.139
36.132
36.126
36.118
36.109
36.096
36.079
36.059
36.035
36.008
35.979
35.947
35.913
35.877
35.839
35.8
35.76
35.722
35.686
35.655
35.627
35.605
35.587
35.573
35.563
35.554
35.547
35.541
35.536
35.531
35.529
35.528
35.527
35.528
35.529
35.532
35.536
35.543
35.551
35.561
35.571
35.581
35.59
35.597
35.6
35.599
35.593
35.583
35.57
35.553
35.534
35.512
35.487
35.461
35.433
35.405
35.376
35.347
35.319
35.293
35.274
35.265
35.267
35.276
35.289
35.304
35.315
35.321
35.319
35.307
35.285
35.253
35.211
35.161
35.104
35.042
34.977
34.912
34.849
34.789
34.732
34.68
34.631
34.586
34.543
34.504
34.469
34.437
34.409
34.384
34.362
34.343
34.325
34.309
34.294
34.279
34.266
34.254
34.244
34.236
34.228
34.219
34.21
34.198
34.184
34.167
34.149
34.128
34.106
34.085
34.066
34.049
34.034
34.021
34.01
34.002
33.994
33.989
33.985
33.982
33.98
33.977
33.973
33.969
33.964
33.958
33.952
33.946
33.941
33.938
33.937
33.938
33.943
33.951
33.963
33.98
34.003
34.035
34.076
34.128
34.19
34.262
34.344
34.436
34.537
34.645
34.76
34.881
35.006
35.136
35.268
35.401
35.532
35.66
35.782
35.897
36.005
36.106
36.2
36.287
36.368
36.443
36.511
36.574
36.63
36.68
36.722
36.759
36.79
36.815
36.834
36.847
36.855
36.856
36.851
36.842
36.829
36.818
36.811
36.806
36.803
36.798
36.791
36.78
36.765
36.746
36.725
36.702
36.678
36.651
36.621
36.589
36.553
36.516
36.477
36.438
36.399
36.362
36.325
36.29
36.256
36.226
36.199
36.173
36.151
36.131
36.113
36.099
36.086
36.075
36.064
36.054
36.043
36.032
36.021
36.011
36.0
35.99
35.981
35.973
35.967
35.963
35.959
35.956
35.953
35.95
35.948
35.944
35.94
35.935
35.928
35.918
35.906
35.892
35.875
35.854
35.83
35.802
35.771
35.738
35.704
35.67
35.637
35.606
35.577
35.551
35.527
35.505
35.484
35.463
35.44
35.416
35.391
35.362
35.33
35.294
35.254
35.211
35.165
35.117
35.069
35.022
34.975
34.931
34.89
34.852
34.818
34.787
34.76
34.734
34.71
34.688
34.666
34.645
34.624
34.603
34.582
34.561
34.541
34.523
34.505
34.488
34.473
34.459
34.446
34.435
34.424
34.414
34.404
34.393
34.382
34.369
34.354
34.337
34.319
34.302
34.286
34.271
34.258
34.246
34.235
34.226
34.217
34.208
34.198
34.188
34.177
34.165
34.151
34.135
34.118
34.099
34.08
34.06
34.04
34.021
34.002
33.984
33.968
33.953
33.941
33.931
33.923
33.92
33.92
33.926
33.938
33.959
33.989
34.03
34.083
34.149
34.228
34.319
34.423
34.538
34.663
34.796
34.936
35.079
35.223
35.367
35.511
35.652
35.789
35.92
36.044
36.16
36.267
36.363
36.449
36.524
