Trial 3:3back
33.427
33.522
33.631
33.755
33.891
34.039
34.197
34.362
34.534
34.71
34.887
35.065
35.24
35.412
35.579
35.739
35.891
36.035
36.167
36.287
36.396
36.491
36.574
36.645
36.704
36.751
36.788
36.815
36.834
36.846
36.854
36.858
36.862
36.865
36.87
36.877
36.885
36.895
36.905
36.916
36.927
36.937
36.945
36.952
36.957
36.961
36.964
36.965
36.967
36.969
36.971
36.975
36.979
36.983
36.984
36.983
36.978
36.968
36.952
36.931
36.904
36.872
36.835
36.795
36.752
36.708
36.665
36.625
36.588
36.556
36.529
36.508
36.491
36.479
36.471
36.466
36.464
36.462
36.459
36.456
36.45
36.443
36.433
36.422
36.411
36.4
36.389
36.38
36.372
36.365
36.361
36.357
36.353
36.348
36.341
36.33
36.315
36.294
36.267
36.236
36.2
36.161
36.118
36.074
36.029
35.984
35.94
35.9
35.863
35.83
35.8
35.773
35.747
35.722
35.697
35.672
35.645
35.617
35.586
35.551
35.514
35.473
35.432
35.39
35.348
35.309
35.271
35.236
35.203
35.174
35.147
35.123
35.101
35.082
35.064
35.046
35.027
35.006
34.984
34.959
34.931
34.9
34.866
34.83
34.792
34.753
34.715
34.678
34.643
34.61
34.58
34.553
34.53
34.509
34.49
34.473
34.456
34.438
34.419
34.397
34.372
34.346
34.318
34.287
34.256
34.224
34.192
34.163
34.136
34.113
34.093
34.077
34.064
34.053
34.044
34.036
34.029
34.022
34.014
34.005
33.993
33.979
33.962
33.94
33.915
33.886
33.854
33.819
33.784
33.749
33.715
33.684
33.656
33.631
33.61
33.592
33.577
33.564
33.552
33.54
33.528
33.514
33.499
33.483
33.466
33.448
33.429
33.409
33.39
33.373
33.358
33.348
33.344
33.348
33.363
33.39
33.432
33.489
33.563
33.655
33.764
33.89
34.033
34.191
34.362
34.544
34.735
34.932
35.134
35.338
35.54
35.739
35.931
36.116
36.292
36.457
36.609
36.749
36.876
36.991
37.094
37.186
37.268
37.339
37.402
37.456
37.5
37.536
37.564
37.584
37.597
37.606
37.61
37.612
37.614
37.615
37.617
37.62
37.625
37.631
37.638
37.646
37.655
37.663
37.67
37.675
37.679
37.681
37.681
37.681
37.68
37.678
37.676
37.674
37.673
37.672
37.67
37.667
37.662
37.652
37.637
37.617
37.589
37.555
37.515
37.471
37.423
37.374
37.325
37.278
37.235
37.198
37.168
37.144
37.128
37.117
37.111
37.108
37.108
37.108
37.108
37.107
37.104
37.1
37.093
37.083
37.07
37.055
37.039
37.022
37.005
36.988
36.971
36.953
36.934
36.913
36.891
36.866
36.84
36.811
36.778
36.743
36.704
36.662
36.619
36.574
36.529
36.485
36.441
36.399
36.357
36.316
36.276
36.236
36.198
36.159
36.12
36.08
36.039
35.996
35.953
35.909
35.864
35.819
35.773
35.728
35.683
35.639
35.597
35.556
35.519
35.483
35.451
35.421
35.394
35.369
35.344
35.32
35.295
35.268
35.239
35.208
35.174
35.138
35.1
35.06
35.021
34.983
34.948
34.915
34.885
34.859
34.836
34.818
34.802
34.789
34.778
34.768
34.758
34.746
34.732
34.714
34.693
34.668
34.638
34.605
34.569
34.531
34.491
34.451
34.413
34.376
34.343
34.312
34.285
34.26
34.238
34.219
34.2
34.183
34.165
34.147
34.127
34.104
34.079
34.052
34.021
33.986
33.948
33.908
33.867
33.826
33.788
33.752
33.72
33.692
33.667
33.645
33.626
33.61
33.596
33.586
33.578
33.574
33.575
33.58
33.59
33.608
33.634
33.671
33.72
33.783
33.86
33.954
34.065
34.193
34.336
34.496
34.668
34.853
35.047
35.247
35.45
35.654
35.856
36.052
36.239
36.415
36.577
36.725
36.856
36.971
37.069
37.151
37.219
37.274
37.318
37.352
37.38
37.403
37.423
37.439
37.454
37.468
37.479
37.488
37.494
37.498
37.498
37.495
37.489
37.479
37.467
37.453
37.437
37.421
37.405
37.391
37.379
37.371
37.365
37.361
37.359
37.358
37.355
37.349
37.338
37.322
37.3
37.271
37.236
37.194
37.146
37.095
37.042
36.988
36.934
36.884
36.837
36.795
36.76
36.73
36.705
36.686
36.671
36.66
36.651
36.643
36.636
36.628
36.618
36.606
36.591
36.574
36.556
36.538
36.521
36.505
36.491
36.479
36.47
36.462
36.456
36.449
36.442
36.432
36.418
36.399
36.374
36.343
36.307
36.266
36.22
36.172
36.122
36.071
36.021
35.972
35.925
35.882
35.841
35.803
35.769
35.737
35.708
35.68
35.652
35.622
35.591
35.556
35.519
35.479
35.437
35.392
35.345
35.297
35.249
35.202
35.157
35.116
35.08
35.047
35.019
34.995
34.973
34.953
34.933
34.912
34.889
34.864
34.836
34.804
34.77
34.732
34.693
34.653
34.612
34.571
34.531
34.492
34.457
34.424
34.396
34.37
34.349
34.329
34.313
34.297
34.282
34.266
34.247
34.224
34.197
34.166
34.132
34.094
34.056
34.017
33.978
33.94
33.904
33.871
33.843
33.82
33.801
33.786
33.773
33.762
33.753
33.743
33.733
33.722
33.708
33.693
33.674
33.652
33.628
33.601
33.573
33.544
33.514
33.483
33.454
33.426
33.399
33.374
33.35
33.326
33.303
33.28
33.257
33.236
33.214
33.194
33.173
33.155
33.138
33.125
33.117
33.116
33.122
33.137
33.163
33.201
33.252
33.317
33.396
33.489
33.597
33.718
33.854
34.002
34.162
34.334
34.514
34.701
34.894
35.091
35.291
35.491
35.689
35.884
36.073
36.255
36.429
36.592
36.742
36.88
37.003
37.111
37.204
37.283
37.348
37.402
37.445
37.479
37.505
37.525
37.541
37.553
37.561
37.568
37.571
37.573
37.572
37.57
37.566
37.563
37.56
37.557
37.555
37.555
37.555
37.557
37.559
37.562
37.566
37.569
37.572
37.573
37.571
37.567
37.56
37.549
37.534
37.516
37.493
37.466
37.436
37.403
37.368
37.333
37.298
37.263
37.228
37.194
37.159
37.124
37.088
37.052
37.017
36.982
36.948
36.915
36.886
36.859
36.836
36.816
36.8
36.788
36.779
36.772
36.767
36.764
36.762
36.759
36.756
36.751
36.742
36.73
36.713
36.692
36.666
36.636
36.604
36.571
36.536
36.502
36.467
36.432
36.397
36.362
36.326
36.289
36.251
36.211
36.169
36.125
36.078
36.029
35.978
35.924
35.869
35.811
35.753
35.695
35.639
35.586
35.536
35.49
35.448
35.41
35.376
35.345
35.316
35.287
35.259
35.23
35.199
35.167
35.132
35.095
35.057
35.017
34.976
34.933
34.889
34.845
34.801
34.758
34.717
34.676
34.638
34.602
34.568
34.537
34.508
34.482
34.458
34.436
34.413
34.391
34.37
34.348
34.326
34.304
34.282
34.259
34.237
34.215
34.194
34.174
34.154
34.134
34.113
34.091
34.068
34.044
34.018
33.992
33.965
33.938
33.912
33.885
33.86
33.837
33.816
33.796
33.777
33.76
33.743
33.726
33.708
33.69
33.669
33.647
33.622
33.594
33.563
33.529
33.491
33.45
33.405
33.359
33.311
33.263
33.217
33.172
33.13
33.092
33.057
33.028
33.003
32.984
32.971
32.963
32.962
32.966
32.976
32.991
33.013
33.041
33.077
33.122
33.177
33.244
33.324
33.419
33.528
33.653
33.792
33.944
34.111
34.29
34.482
34.685
34.896
35.115
35.339
35.565
35.79
36.013
36.229
36.436
36.632
36.815
36.982
37.134
37.271
37.392
37.497
37.587
37.664
37.728
37.782
37.826
37.862
37.891
37.915
37.934
37.949
37.96
37.969
37.974
37.976
37.974
37.97
37.962
37.952
37.941
37.929
37.918
37.908
37.9
37.895
37.892
37.892
37.895
37.899
37.903
37.905
37.905
37.9
37.889
37.872
37.849
37.819
37.785
37.747
37.705
37.663
37.621
37.58
37.541
37.505
37.472
37.444
37.418
37.395
37.373
37.35
37.326
37.302
37.275
37.247
37.217
37.187
37.158
37.13
37.106
37.085
37.068
37.056
37.048
37.041
37.036
37.03
37.023
37.015
37.004
36.991
36.973
36.952
36.926
36.895
36.859
36.82
36.78
36.738
36.695
36.653
36.612
36.573
36.536
36.5
36.464
36.428
36.391
36.353
36.313
36.272
36.229
36.185
36.137
36.087
36.033
35.975
35.917
35.858
35.801
35.746
35.696
35.65
35.61
35.574
35.542
35.513
35.487
35.462
35.436
35.408
35.378
35.344
35.307
35.267
35.223
35.177
35.129
35.079
35.028
34.976
34.925
34.874
34.824
34.776
34.73
34.686
34.645
34.607
34.571
34.539
34.509
34.482
34.457
34.433
34.411
34.389
34.368
34.348
34.328
34.31
34.291
34.272
34.253
34.233
34.212
34.188
34.162
34.133
34.103
34.071
34.038
34.005
33.972
33.939
33.908
33.878
33.851
33.826
33.804
33.784
33.767
33.751
33.738
33.725
33.713
33.7
33.688
33.674
33.659
33.642
33.623
33.602
33.58
33.557
33.533
33.51
33.488
33.468
33.453
33.444
33.442
33.451
33.473
33.511
33.566
33.641
33.736
33.854
33.994
34.156
34.339
34.541
34.759
34.991
35.232
35.478
35.727
35.973
36.214
36.445
36.663
36.867
37.056
37.228
37.384
37.524
37.651
37.764
37.865
37.954
38.033
38.102
38.162
38.214
38.258
38.293
38.319
38.336
38.344
38.342
38.333
38.316
38.295
38.271
38.247
38.222
38.199
38.177
38.157
38.14
38.124
38.109
38.095
38.08
38.062
38.041
38.014
37.982
37.945
37.904
37.858
37.81
37.76
37.71
37.66
37.613
37.569
37.53
37.494
37.463
37.434
37.407
37.381
37.354
37.326
37.298
37.268
37.236
37.203
37.169
37.136
37.104
37.074
37.048
37.025
37.006
36.991
36.98
36.971
36.966
36.962
36.96
36.959
36.957
36.953
36.946
36.935
36.919
36.897
36.869
36.836
36.798
36.755
36.709
36.661
36.613
36.565
36.519
36.476
36.434
36.395
36.358
36.322
36.286
36.251
36.214
36.175
36.133
36.087
36.037
35.982
35.923
35.86
35.794
35.726
35.658
35.59
35.524
35.461
35.402
35.347
35.297
35.252
35.212
35.176
35.143
35.113
35.083
35.054
35.025
34.994
34.963
34.929
34.893
34.854
34.813
34.77
34.726
34.682
34.637
34.592
34.547
34.504
34.462
34.422
34.387
34.355
34.327
34.304
34.284
34.269
34.256
34.246
34.236
34.224
34.209
34.184
34.148
34.103
34.05
33.992
33.931
33.871
33.813
33.76
33.713
33.673
33.639
33.611
33.589
33.571
33.558
33.548
33.539
33.532
33.526
33.519
33.513
33.506
33.498
33.488
33.476
33.462
33.448
33.434
33.421
33.412
33.411
33.424
33.454
33.496
33.551
33.616
33.693
33.783
33.885
34.003
34.138
34.29
34.461
34.652
34.862
35.089
35.332
35.587
35.852
36.123
36.396
36.666
36.928
37.18
37.417
37.636
37.835
38.013
38.168
38.301
38.413
38.504
38.577
38.633
38.675
38.706
38.726
38.733
38.726
38.706
38.679
38.647
38.614
38.583
38.555
38.532
38.513
38.499
38.49
38.484
38.481
38.481
38.49
38.509
38.534
38.563
38.591
38.614
38.628
38.631
38.62
38.593
38.551
38.495
38.426
38.346
38.257
38.163
38.067
37.979
37.903
37.835
37.772
37.712
37.655
37.6
37.548
37.498
37.45
37.404
37.362
37.323
37.288
37.258
37.231
37.208
37.188
37.17
37.153
37.139
37.127
37.115
37.103
37.092
37.081
37.068
37.053
37.037
37.018
36.996
36.972
36.945
36.916
36.884
36.849
36.811
36.769
36.723
36.674
36.622
36.57
36.519
36.468
36.414
36.353
36.284
36.209
36.13
36.045
35.954
35.859
35.762
35.669
35.583
35.504
35.435
35.375
35.324
35.281
35.246
35.216
35.192
35.171
35.154
35.139
35.125
35.111
35.096
35.081
35.064
35.047
35.027
35.007
34.984
34.958
34.929
34.894
34.854
34.808
34.757
34.7
34.639
34.574
34.507
34.438
34.37
34.304
34.24
34.18
34.125
34.075
34.031
33.991
33.957
33.926
33.897
33.871
33.847
33.825
33.804
33.784
33.765
33.747
33.729
33.71
33.692
33.673
33.654
33.633
33.611
33.586
33.559
33.53
33.498
33.464
33.428
33.39
33.349
33.306
33.261
33.216
33.17
33.125
33.082
33.04
33.0
32.963
32.93
32.9
32.876
32.859
32.849
32.849
32.86
32.882
32.918
32.97
33.04
33.128
33.236
33.364
33.513
33.68
33.867
34.071
34.29
34.524
34.769
35.024
35.286
35.554
35.826
36.098
36.369
36.634
36.891
37.138
37.371
37.589
37.788
37.967
38.126
38.263
38.378
38.471
38.542
38.594
38.628
38.646
38.651
38.645
38.633
38.616
38.597
38.577
38.558
38.539
38.523
38.507
38.492
38.476
38.458
38.438
38.414
38.386
38.355
38.32
38.283
38.244
38.204
38.165
38.125
38.086
38.046
38.006
37.964
37.921
37.876
37.828
37.777
37.724
37.669
37.614
37.557
37.501
37.443
37.385
37.328
37.272
37.219
37.17
37.125
37.084
37.049
37.019
36.995
36.974
36.958
36.944
36.933
36.922
36.911
36.899
36.884
36.867
36.846
36.821
36.793
36.761
36.727
36.692
36.656
36.62
36.585
36.551
36.519
36.489
36.46
36.431
36.402
36.371
36.338
36.302
36.262
36.217
36.166
36.109
36.046
35.979
35.908
35.834
35.759
35.684
35.611
35.542
35.477
35.417
35.362
35.311
35.265
35.224
35.185
35.15
35.116
35.083
35.049
35.014
34.976
34.935
34.889
34.84
34.786
34.728
34.667
34.604
34.539
34.475
34.412
34.35
34.291
34.236
34.185
34.139
34.096
34.058
34.025
33.995
33.967
33.941
33.917
33.892
33.867
33.841
33.815
33.788
33.761
33.734
33.707
33.681
33.657
33.632
33.609
33.587
33.564
33.541
33.517
33.49
33.46
33.425
33.386
33.344
33.297
33.246
33.193
33.139
33.085
33.032
32.981
32.934
32.892
32.855
32.824
32.8
32.781
32.767
32.758
32.754
32.752
32.754
32.758
32.765
32.775
32.79
32.811
32.839
32.877
32.928
32.993
33.075
33.176
33.296
33.436
33.596
33.778
33.979
34.199
34.433
34.68
34.935
35.195
35.457
35.718
35.974
36.222
36.46
36.686
36.899
37.096
37.277
37.438
37.581
37.703
37.805
37.889
37.954
38.005
38.043
38.071
38.09
38.103
38.11
38.111
38.107
38.098
38.086
38.069
38.049
38.025
37.996
37.964
37.927
37.888
37.847
37.806
37.764
37.724
37.684
37.645
37.606
37.567
37.527
37.487
37.445
37.401
37.355
37.305
37.251
37.194
37.133
37.07
37.004
36.937
36.868
36.8
36.734
36.672
36.616
36.566
36.524
36.489
36.462
36.443
36.431
36.425
36.424
36.426
36.429
36.429
36.427
36.42
36.409
36.392
36.371
36.345
36.316
36.285
36.251
36.218
36.185
36.153
36.122
36.092
36.063
36.036
36.009
35.984
35.96
35.936
35.911
35.883
35.854
35.821
35.786
35.748
35.706
35.661
35.613
35.561
35.506
35.448
35.388
35.326
35.262
35.198
35.134
35.069
35.006
34.945
34.886
34.828
34.772
34.718
34.665
34.615
34.567
34.522
34.479
34.437
34.397
34.357
34.318
34.279
34.241
34.202
34.163
34.124
34.083
34.042
33.999
33.955
33.91
33.863
33.816
33.768
33.72
33.674
33.629
33.586
33.546
33.51
33.478
33.451
33.428
33.408
33.393
33.38
33.37
33.36
33.351
33.341
33.328
33.312
33.293
33.271
33.244
33.213
33.179
33.141
33.1
33.057
33.011
32.964
32.917
32.871
32.829
32.79
32.758
32.732
32.714
32.704
32.705
32.716
32.742
32.782
32.84
32.915
33.009
33.124
33.261
33.419
33.598
33.799
34.019
34.255
34.505
34.767
35.037
35.311
35.587
35.858
36.123
36.376
36.616
36.841
37.048
37.238
37.409
37.562
37.696
37.811
37.91
37.993
38.061
38.116
38.159
38.192
38.213
38.225
38.228
38.222
38.209
38.19
38.166
38.139
38.11
38.079
38.048
38.017
37.987
37.959
37.934
37.91
37.89
37.871
37.853
37.835
37.816
37.796
37.774
37.747
37.715
37.678
37.635
37.586
37.533
37.475
37.414
37.351
37.287
37.224
37.162
37.104
37.05
36.999
36.954
36.913
36.876
36.844
36.814
36.786
36.759
36.733
36.707
36.682
36.658
36.633
36.608
36.584
36.559
36.536
36.515
36.495
36.477
36.461
36.446
36.431
36.418
36.404
36.39
36.374
36.355
36.332
36.305
36.272
36.234
36.191
36.144
36.091
36.032
35.97
35.904
35.835
35.766
35.696
35.628
35.562
35.5
35.441
35.387
35.337
35.292
35.251
35.212
35.176
35.14
35.104
35.067
35.028
34.987
34.941
34.892
34.84
34.784
34.725
34.665
34.604
34.542
34.48
34.42
34.362
34.308
34.257
34.208
34.163
34.121
34.081
34.045
34.011
33.98
33.951
33.924
33.899
33.876
33.854
33.832
33.811
33.789
33.766
33.742
33.718
33.691
33.663
33.634
33.602
33.57
33.536
33.501
33.466
33.43
33.393
33.355
33.317
33.278
33.238
33.197
33.156
33.114
33.072
33.031
32.993
32.958
32.926
32.899
32.876
32.858
32.845
32.837
32.834
32.835
32.84
32.85
32.864
32.884
32.91
32.945
32.988
33.044
33.112
33.196
33.298
33.419
33.56
33.722
33.905
34.109
34.333
34.574
34.831
35.1
35.377
35.659
35.942
36.222
36.496
36.761
37.013
37.251
37.472
37.676
37.862
38.028
38.176
38.305
38.415
38.507
38.579
38.635
38.674
38.699
38.711
38.713
38.707
38.696
38.68
38.663
38.646
38.631
38.616
38.602
38.588
38.574
38.559
38.544
38.528
38.511
38.492
38.472
38.451
38.429
38.405
38.38
38.354
38.325
38.294
38.261
38.223
38.182
38.138
38.091
38.041
37.988
37.932
37.874
37.815
37.755
37.695
37.637
37.581
37.529
37.482
37.439
37.402
37.37
37.343
37.321
37.303
37.289
37.277
37.266
37.255
37.245
37.234
37.221
37.207
37.19
37.171
37.149
37.125
37.099
37.071
37.042
37.01
36.975
36.938
36.898
36.856
36.812
36.766
36.719
36.669
36.619
36.568
36.517
36.467
36.418
36.369
36.32
36.272
36.224
36.175
36.124
36.071
36.015
35.956
35.894
35.829
35.761
35.692
35.62
35.548
35.476
35.405
35.336
35.271
35.209
35.152
35.1
35.052
35.01
34.972
34.937
34.906
34.878
34.852
34.826
34.801
34.775
34.747
34.714
34.676
34.633
34.584
34.531
34.473
34.412
34.35
34.288
34.228
34.173
34.121
34.076
34.036
34.004
33.978
33.959
33.947
33.94
33.939
33.939
33.941
33.942
33.941
33.936
33.926
33.91
33.888
33.861
33.827
33.788
33.745
33.7
33.653
33.606
33.56
33.515
33.473
33.432
33.393
33.355
33.319
33.284
33.25
33.217
33.185
33.153
33.121
33.089
33.057
33.024
32.992
32.96
32.93
32.903
32.879
32.86
32.845
32.835
32.831
32.835
32.847
32.869
32.902
32.948
33.009
33.087
33.185
33.303
33.442
33.604
33.789
33.995
34.222
34.468
34.731
35.009
35.296
35.591
35.888
36.185
36.479
36.766
37.044
37.311
37.563
37.8
38.02
38.221
38.403
38.566
38.709
38.833
38.938
39.027
39.101
39.16
39.206
39.241
39.264
39.278
39.282
39.278
39.265
39.246
39.22
39.188
39.153
39.115
39.076
39.037
38.998
38.961
38.927
38.896
38.867
38.841
38.816
38.79
38.763
38.733
38.7
38.663
38.622
38.576
38.526
38.47
38.412
38.351
38.288
38.225
38.164
38.105
38.049
37.997
37.948
37.903
37.864
37.828
37.798
37.772
37.749
37.729
37.71
37.692
37.674
37.655
37.633
37.609
37.582
37.553
37.522
37.49
37.458
37.428
37.398
37.37
37.345
37.321
37.298
37.278
37.258
37.238
37.217
37.193
37.167
37.138
37.105
37.068
37.025
36.976
36.922
36.862
36.796
36.726
36.652
36.575
36.497
36.42
36.344
36.272
36.204
36.141
36.083
36.03
35.982
35.937
35.896
35.855
35.816
35.777
35.736
35.692
35.644
35.593
35.537
35.477
35.414
35.346
35.276
35.204
35.13
35.057
34.986
34.918
34.856
34.798
34.748
34.704
34.667
34.636
34.61
34.588
34.569
34.551
34.533
34.514
34.495
34.473
34.448
34.422
34.393
34.363
34.332
34.303
34.275
34.249
34.225
34.203
34.183
34.162
34.14
34.116
34.088
34.057
34.022
33.983
33.94
33.894
33.843
33.791
33.736
33.68
33.625
33.571
33.519
33.47
33.424
33.381
33.343
33.308
33.277
33.249
33.223
33.2
33.179
33.161
33.146
33.135
33.129
33.13
33.14
33.16
33.194
33.244
33.313
33.402
33.514
33.65
33.811
33.998
34.208
34.44
34.692
34.96
35.241
35.531
35.827
36.123
36.416
36.702
36.979
37.243
37.492
37.726
37.941
38.138
38.317
38.478
38.622
38.749
38.861
38.959
39.042
39.111
39.167
39.21
39.24
39.257
39.262
39.255
39.237
39.209
39.173
39.131
39.084
39.035
38.986
38.937
38.89
38.847
38.809
38.775
38.747
38.723
38.704
38.687
38.67
38.652
38.63
38.601
38.565
38.519
38.465
38.402
38.33
38.25
38.165
38.076
37.985
37.894
37.806
37.723
37.647
37.579
37.519
37.468
37.424
37.386
37.354
37.327
37.303
37.28
37.26
37.239
37.22
37.2
37.181
37.16
37.139
37.117
37.093
37.068
37.039
37.008
36.973
36.936
36.895
36.853
36.809
36.765
36.719
36.673
36.625
