Trial 3:3back
35.111
35.085
35.058
35.03
35.002
34.974
34.946
34.917
34.888
34.858
34.826
34.793
34.758
34.72
34.679
34.636
34.59
34.542
34.491
34.438
34.384
34.329
34.274
34.218
34.164
34.11
34.057
34.006
33.958
33.912
33.87
33.83
33.792
33.756
33.722
33.689
33.656
33.624
33.592
33.562
33.532
33.503
33.474
33.445
33.416
33.388
33.359
33.33
33.3
33.269
33.237
33.203
33.169
33.135
33.102
33.071
33.041
33.013
32.987
32.964
32.942
32.921
32.903
32.887
32.874
32.864
32.856
32.848
32.841
32.833
32.824
32.812
32.799
32.785
32.772
32.76
32.749
32.737
32.725
32.712
32.697
32.678
32.658
32.636
32.613
32.59
32.567
32.544
32.523
32.503
32.483
32.463
32.443
32.422
32.399
32.375
32.348
32.321
32.294
32.268
32.243
32.22
32.2
32.181
32.164
32.148
32.134
32.121
32.113
32.111
32.116
32.127
32.143
32.164
32.191
32.229
32.281
32.352
32.444
32.562
32.707
32.878
33.073
33.289
33.521
33.763
34.012
34.262
34.507
34.742
34.965
35.171
35.358
35.527
35.675
35.802
35.908
35.993
36.058
36.104
36.132
36.144
36.142
36.128
36.105
36.075
36.038
35.999
35.959
35.919
35.882
35.848
35.818
35.792
35.769
35.748
35.729
35.712
35.694
35.677
35.659
35.638
35.616
35.591
35.563
35.532
35.498
35.461
35.421
35.378
35.333
35.287
35.24
35.194
35.149
35.104
35.062
35.021
34.981
34.944
34.909
34.877
34.849
34.824
34.804
34.786
34.772
34.761
34.753
34.748
34.745
34.744
34.745
34.746
34.748
34.748
34.747
34.744
34.737
34.728
34.716
34.7
34.679
34.655
34.628
34.598
34.566
34.533
34.499
34.464
34.429
34.394
34.361
34.329
34.3
34.273
34.248
34.225
34.202
34.179
34.155
34.129
34.101
34.07
34.037
34.001
33.964
33.926
33.887
33.848
33.809
33.77
33.731
33.695
33.661
33.629
33.6
33.573
33.548
33.524
33.501
33.479
33.457
33.434
33.41
33.385
33.36
33.334
33.308
33.282
33.257
33.233
33.21
33.187
33.166
33.145
33.126
33.109
33.093
33.078
33.065
33.053
33.041
33.03
33.017
33.003
32.987
32.97
32.95
32.93
32.91
32.891
32.873
32.856
32.84
32.826
32.811
32.795
32.779
32.763
32.746
32.729
32.713
32.697
32.681
32.664
32.648
32.632
32.614
32.596
32.577
32.559
32.54
32.522
32.505
32.488
32.472
32.457
32.442
32.428
32.415
32.404
32.395
32.389
32.388
32.395
32.411
32.439
32.48
32.535
32.607
32.696
32.801
32.925
33.067
33.227
33.403
33.594
33.796
34.006
34.22
34.434
34.643
34.843
35.03
35.202
35.355
35.489
35.603
35.698
35.775
35.836
35.88
35.91
35.927
35.933
35.928
35.915
35.895
35.868
35.837
35.802
35.765
35.728
35.691
35.656
35.623
35.592
35.566
35.543
35.525
35.51
35.497
35.485
35.471
35.455
35.435
35.411
35.383
35.35
35.312
35.271
35.226
35.178
35.129
35.078
35.028
34.98
34.934
34.892
34.854
34.822
34.796
34.776
34.763
34.756
34.754
34.758
34.766
34.778
34.794
34.813
34.834
34.857
34.882
34.907
34.931
34.954
34.974
34.99
35.004
35.013
35.019
35.022
35.021
35.016
35.007
34.994
34.978
34.959
34.938
34.917
34.895
34.873
34.852
34.832
34.813
34.795
34.777
34.759
34.741
34.722
34.702
34.681
34.659
34.637
34.614
34.591
34.567
34.542
34.516
34.49
34.464
34.437
34.411
34.385
34.36
34.335
34.31
34.286
34.262
34.239
34.217
34.196
34.177
34.158
34.14
34.123
34.105
34.087
34.068
34.048
34.026
34.005
33.983
33.961
33.939
33.919
33.899
33.88
33.862
33.845
33.828
33.812
33.796
33.781
33.765
33.75
33.735
33.72
33.705
33.69
33.675
33.662
33.649
33.636
33.622
33.608
33.594
33.578
33.563
33.547
33.534
33.522
33.512
33.504
33.497
33.491
33.486
33.484
33.485
33.491
33.505
33.529
33.565
33.616
33.681
33.762
33.86
33.973
34.102
34.245
34.402
34.57
34.748
34.934
35.125
35.32
35.514
35.705
35.89
36.067
36.231
36.383
36.52
36.641
36.745
36.831
36.901
36.954
36.993
37.018
37.03
37.028
37.014
36.991
36.962
36.929
36.896
36.864
36.834
36.807
36.781
36.758
36.736
36.715
36.695
36.677
36.66
36.644
36.628
36.612
36.595
36.577
36.557
36.534
36.507
36.476
36.44
36.399
36.354
36.306
36.255
36.203
36.151
36.098
36.046
35.995
35.947
35.902
35.861
35.825
35.792
35.764
35.738
35.716
35.696
35.678
35.662
35.648
35.635
35.623
35.613
35.605
35.599
35.595
35.591
35.587
35.585
35.582
35.579
35.576
35.574
35.571
35.566
35.559
35.55
35.539
35.524
35.506
35.485
35.46
35.432
35.401
35.367
35.331
35.292
35.25
35.205
35.16
35.112
35.064
35.015
34.966
34.917
34.869
34.822
34.775
34.73
34.686
34.643
34.601
34.562
34.525
34.491
34.459
34.43
34.403
34.377
34.353
34.328
34.303
34.278
34.253
34.228
34.202
34.177
34.15
34.123
34.094
34.065
34.036
34.007
33.979
33.952
33.927
33.904
33.884
33.866
33.85
33.835
33.822
33.809
33.796
33.784
33.771
33.757
33.743
33.728
33.712
33.696
33.678
33.66
33.642
33.624
33.607
33.589
33.573
33.556
33.54
33.523
33.507
33.49
33.474
33.457
33.441
33.425
33.409
33.393
33.376
33.358
33.34
33.321
33.303
33.287
33.271
33.258
33.248
33.242
33.242
33.249
33.268
33.299
33.346
33.412
33.497
33.603
33.732
33.883
34.056
34.25
34.465
34.696
34.941
35.196
35.457
35.72
35.981
36.236
36.482
36.715
36.933
37.135
37.318
37.484
37.63
37.758
37.867
37.958
38.031
38.087
38.127
38.154
38.169
38.173
38.168
38.156
38.138
38.116
38.093
38.068
38.044
38.021
38.0
37.981
37.965
37.953
37.945
37.943
37.944
37.949
37.954
37.958
37.961
37.96
37.954
37.944
37.928
37.904
37.874
37.836
37.792
37.741
37.686
37.626
37.561
37.494
37.426
37.357
37.289
37.222
37.156
37.094
37.037
36.984
36.937
36.895
36.858
36.826
36.798
36.774
36.752
36.733
36.714
36.697
36.68
36.663
36.645
36.627
36.607
36.586
36.564
36.54
36.514
36.486
36.455
36.423
36.389
36.354
36.317
36.279
36.24
36.201
36.163
36.124
36.086
36.049
36.01
35.971
35.929
35.885
35.838
35.79
35.741
35.691
35.641
35.589
35.537
35.483
35.429
35.374
35.32
35.268
35.217
35.167
35.118
35.07
35.024
34.978
34.933
34.889
34.846
34.804
34.762
34.72
34.679
34.639
34.601
34.564
34.528
34.493
34.459
34.426
34.395
34.366
34.339
34.313
34.29
34.268
34.247
34.227
34.206
34.185
34.163
34.14
34.117
34.093
34.068
34.043
34.017
33.99
33.962
33.934
33.906
33.878
33.851
33.824
33.797
33.77
33.742
33.715
33.688
33.661
33.632
33.603
33.572
33.54
33.508
33.474
33.44
33.407
33.373
33.341
33.31
33.28
33.252
33.225
33.199
33.175
33.154
33.136
33.123
33.117
33.119
33.131
33.155
33.195
33.254
33.334
33.437
33.565
33.718
33.894
34.093
34.311
34.546
34.792
35.047
35.306
35.566
35.823
36.075
36.318
36.55
36.769
36.972
37.158
37.324
37.47
37.595
37.697
37.778
37.838
37.878
37.9
37.907
37.901
37.885
37.861
37.832
37.799
37.764
37.729
37.693
37.658
37.624
37.59
37.557
37.525
37.492
37.459
37.426
37.393
37.359
37.323
37.287
37.25
37.212
37.171
37.128
37.083
37.034
36.981
36.925
36.865
36.802
36.737
36.67
36.603
36.537
36.476
36.421
36.372
36.332
36.298
36.271
36.25
36.234
36.222
36.213
36.208
36.206
36.206
36.207
36.209
36.21
36.211
36.209
36.205
36.198
36.189
36.177
36.162
36.143
36.121
36.097
36.069
36.038
36.004
35.968
35.932
35.894
35.856
35.817
35.78
35.742
35.704
35.665
35.624
35.583
35.54
35.496
35.451
35.405
35.358
35.309
35.259
35.206
35.152
35.096
35.04
34.984
34.93
34.877
34.825
34.775
34.725
34.676
34.628
34.581
34.535
34.49
34.445
34.401
34.358
34.315
34.273
34.232
34.193
34.156
34.122
34.09
34.06
34.033
34.008
33.985
33.962
33.941
33.919
33.898
33.877
33.856
33.835
33.814
33.791
33.767
33.742
33.716
33.69
33.665
33.639
33.614
33.59
33.565
33.541
33.516
33.49
33.463
33.436
33.408
33.38
33.353
33.327
33.302
33.279
33.256
33.234
33.215
33.2
33.19
33.188
33.195
33.215
33.249
33.3
33.37
33.461
33.575
33.712
33.873
34.056
34.26
34.481
34.717
34.965
35.22
35.48
35.739
35.996
36.247
36.488
36.718
36.932
37.13
37.31
37.47
37.61
37.729
37.829
37.91
37.972
38.015
38.042
38.053
38.05
38.034
38.008
37.972
37.929
37.881
37.828
37.773
37.717
37.662
37.61
37.561
37.515
37.473
37.434
37.398
37.364
37.331
37.299
37.265
37.231
37.193
37.152
37.107
37.057
37.004
36.948
36.889
36.828
36.767
36.707
36.648
36.592
36.539
36.489
36.442
36.398
36.356
36.316
36.279
36.246
36.217
36.192
36.173
36.158
36.146
36.137
36.128
36.119
36.109
36.097
36.082
36.066
36.046
36.024
36.001
35.976
35.951
35.924
35.896
35.866
35.835
35.802
35.768
35.733
35.697
35.661
35.624
35.586
35.548
35.509
35.471
35.432
35.394
35.355
35.316
35.275
35.231
35.186
35.14
35.091
35.042
34.992
34.942
34.892
34.842
34.792
34.742
34.692
34.641
34.59
34.54
34.491
34.445
34.402
34.362
34.324
34.289
34.255
34.223
34.191
34.158
34.123
34.087
34.05
34.013
33.976
33.939
33.902
33.866
33.83
33.794
33.758
33.723
33.689
33.656
33.625
33.595
33.566
33.538
33.512
33.486
33.463
33.441
33.421
33.403
33.387
33.374
33.363
33.355
33.351
33.351
33.356
33.369
33.391
33.424
33.467
33.523
33.593
33.679
33.782
33.904
34.045
34.203
34.378
34.567
34.768
34.979
35.198
35.422
35.648
35.874
36.096
36.311
36.516
36.707
36.881
37.037
37.173
37.287
37.381
37.453
37.508
37.545
37.568
37.579
37.578
37.568
37.549
37.523
37.49
37.451
37.408
37.361
37.311
37.26
37.207
37.155
37.103
37.052
37.001
36.951
36.901
36.85
36.799
36.747
36.695
36.641
36.587
36.532
36.474
36.415
36.355
36.293
36.231
36.17
36.111
36.053
35.999
35.948
35.901
35.858
35.818
35.78
35.744
35.711
35.679
35.65
35.624
35.601
35.581
35.565
35.552
35.543
35.535
35.53
35.526
35.521
35.516
35.51
35.503
35.493
35.481
35.467
35.45
35.43
35.41
35.387
35.363
35.338
35.31
35.28
35.247
35.212
35.174
35.134
35.093
35.051
35.008
34.965
34.922
34.877
34.831
34.785
34.738
34.689
34.64
34.59
34.54
34.491
34.442
34.394
34.346
34.299
34.253
34.206
34.16
34.115
34.07
34.028
33.986
33.945
33.906
33.868
33.831
33.793
33.756
33.718
33.679
33.64
33.602
33.566
33.532
33.5
33.471
33.446
33.423
33.404
33.387
33.372
33.357
33.343
33.328
33.313
33.297
33.28
33.262
33.244
33.224
33.203
33.181
33.157
33.133
33.11
33.087
33.065
33.045
33.028
33.014
33.004
33.0
33.002
33.013
33.036
33.073
33.126
33.199
33.291
33.406
33.542
33.701
33.88
34.078
34.292
34.519
34.756
34.999
35.245
35.49
35.731
35.965
36.189
36.401
36.599
36.782
36.947
37.094
37.222
37.329
37.415
37.482
37.532
37.564
37.581
37.585
37.577
37.559
37.532
37.498
37.457
37.411
37.36
37.304
37.245
37.181
37.113
37.042
36.97
36.898
36.828
36.761
36.697
36.637
36.581
36.528
36.478
36.43
36.385
36.34
36.297
36.255
36.213
36.171
36.128
36.083
36.038
35.992
35.946
35.9
35.856
35.812
35.77
35.729
35.69
35.654
35.621
35.591
35.565
35.542
35.524
35.509
35.497
35.488
35.481
35.474
35.467
35.46
35.452
35.443
35.432
35.419
35.403
35.384
35.361
35.334
35.305
35.273
35.24
35.206
35.171
35.137
35.103
35.069
35.035
35.0
34.964
34.925
34.884
34.841
34.795
34.747
34.697
34.644
34.589
34.533
34.476
34.418
34.361
34.304
34.248
34.192
34.138
34.085
34.034
33.986
33.941
33.899
33.86
33.823
33.787
33.752
33.717
33.681
33.643
33.604
33.565
33.527
33.489
33.452
33.417
33.381
33.346
33.31
33.274
33.238
33.202
33.169
33.137
33.108
33.082
33.057
33.033
33.01
32.988
32.966
32.944
32.924
32.904
32.885
32.868
32.853
32.838
32.825
32.812
32.799
32.787
32.776
32.765
32.757
32.753
32.756
32.768
32.792
32.832
32.888
32.963
33.058
33.172
33.308
33.465
33.643
33.842
34.06
34.293
34.539
34.794
35.053
35.312
35.566
35.812
36.046
36.265
36.466
36.647
36.809
36.951
37.074
37.178
37.265
37.334
37.386
37.422
37.443
37.451
37.446
37.429
37.403
37.369
37.328
37.283
37.235
37.184
37.134
37.083
37.034
36.986
36.939
36.893
36.846
36.798
36.749
36.698
36.644
36.588
36.53
36.472
36.413
36.353
36.292
36.231
36.17
36.11
36.051
35.993
35.938
35.886
35.839
35.796
35.759
35.729
35.704
35.685
35.672
35.664
35.661
35.662
35.669
35.679
35.693
35.709
35.727
35.745
35.761
35.774
35.782
35.787
35.786
35.782
35.773
35.76
35.742
35.72
35.692
35.661
35.627
35.59
35.55
35.508
35.466
35.423
35.382
35.34
35.299
35.257
35.216
35.176
35.135
35.095
35.055
35.014
34.974
34.933
34.89
34.846
34.802
34.756
34.711
34.666
34.623
34.581
34.54
34.5
34.461
34.423
34.384
34.347
34.309
34.271
34.234
34.197
34.16
34.122
34.083
34.045
34.007
33.971
33.936
33.903
33.872
33.841
33.811
33.782
33.752
33.723
33.693
33.662
33.632
33.602
33.572
33.543
33.514
33.486
33.459
33.433
33.408
33.386
33.364
33.343
33.322
33.3
33.276
33.251
33.224
33.195
33.164
33.133
33.105
33.08
33.061
33.05
33.048
33.058
33.084
33.127
33.192
33.28
33.393
33.533
33.699
33.89
34.103
34.337
34.587
34.852
35.126
35.406
35.688
35.966
36.238
36.501
36.75
36.984
37.201
37.4
37.579
37.738
37.875
37.991
38.085
38.157
38.208
38.239
38.252
38.249
38.233
38.204
38.167
38.124
38.077
38.027
37.977
37.927
37.877
37.827
37.778
37.73
37.683
37.638
37.593
37.55
37.508
37.466
37.425
37.382
37.338
37.291
37.241
37.186
37.127
37.063
36.994
36.922
36.847
36.771
36.695
36.62
36.55
36.485
36.426
36.372
36.325
36.284
36.25
36.222
36.201
36.186
36.177
36.173
36.175
36.181
36.191
36.202
36.215
36.226
36.235
36.241
36.241
36.236
36.225
36.209
36.188
36.163
36.136
36.105
36.073
36.038
36.001
35.962
35.922
35.882
35.839
35.796
35.751
35.703
35.654
35.603
35.55
35.496
35.441
35.387
35.332
35.278
35.224
35.17
35.117
35.063
35.01
34.958
34.907
34.857
34.807
34.758
34.709
34.66
34.61
34.561
34.511
34.462
34.414
34.367
34.32
34.273
34.227
34.181
34.136
34.089
34.037
33.979
33.916
33.851
33.786
33.724
33.668
33.618
33.576
33.542
33.516
33.498
33.486
33.479
33.475
33.472
33.468
33.463
33.455
33.444
33.43
33.412
33.391
33.367
33.34
33.313
33.286
33.26
33.237
33.219
33.207
33.204
33.211
33.231
33.268
33.324
33.402
33.503
33.628
33.779
33.956
34.156
34.379
34.622
34.881
35.154
35.434
35.719
36.004
36.286
36.561
36.827
37.08
37.317
37.537
37.736
37.913
38.067
38.199
38.308
38.397
38.464
38.512
38.541
38.554
38.553
38.54
38.517
38.486
38.45
38.411
38.371
38.329
38.288
38.248
38.211
38.176
38.142
38.109
38.075
38.04
38.003
37.963
37.921
37.875
37.827
37.774
37.718
37.659
37.596
37.53
37.46
37.388
37.314
37.239
37.165
37.093
37.024
36.958
36.897
36.841
36.789
36.744
36.703
36.669
36.639
36.615
36.594
36.578
36.563
36.55
36.539
36.527
36.516
36.506
36.496
36.486
36.475
36.463
36.449
36.433
36.412
36.387
36.359
36.326
36.291
36.254
36.216
36.179
36.141
36.104
36.066
36.028
35.987
35.945
35.899
35.85
35.799
35.745
35.69
35.635
35.579
35.524
35.468
35.412
35.356
35.299
35.243
35.189
35.138
35.092
35.05
35.01
34.973
34.937
34.899
34.86
34.818
34.773
34.725
34.672
34.617
34.558
34.497
34.434
34.371
34.308
34.246
34.186
34.129
34.074
34.02
33.969
33.919
33.871
33.825
33.781
33.74
33.701
33.663
33.628
33.593
33.559
33.526
33.494
33.464
33.434
33.407
33.382
33.36
33.342
33.329
33.324
33.329
33.347
33.38
33.432
33.506
33.605
33.731
33.885
34.067
34.277
34.512
34.769
35.044
35.333
35.63
35.933
36.235
36.532
36.821
37.099
37.363
37.61
37.838
38.045
38.23
38.39
38.525
38.637
38.725
38.791
38.837
38.865
38.876
38.872
38.856
38.83
38.796
38.755
38.711
38.662
38.611
38.557
38.504
38.45
38.397
38.346
38.295
38.245
38.195
38.145
38.093
38.041
37.986
37.928
37.867
37.802
37.733
37.66
37.585
37.506
37.427
37.346
37.265
37.184
37.105
37.029
36.957
36.888
36.825
36.767
36.714
36.667
36.626
36.591
36.562
36.538
36.52
36.506
36.495
36.485
36.477
36.469
36.463
36.457
36.452
36.445
36.438
36.428
36.415
36.4
36.38
36.357
36.328
36.296
36.258
36.217
36.173
36.124
36.073
36.019
35.963
35.906
35.849
35.793
35.738
35.685
35.633
35.582
35.531
35.479
35.426
35.37
35.313
35.253
35.191
35.13
35.068
35.007
34.947
34.888
34.829
34.772
34.716
34.661
34.608
34.557
34.507
34.46
34.413
34.369
34.326
34.284
34.243
34.202
34.161
34.121
34.08
34.039
33.996
33.952
33.908
33.864
33.822
33.782
33.742
33.703
33.663
33.621
33.578
33.534
33.491
33.45
33.41
33.373
33.338
33.304
33.271
33.238
33.207
33.177
33.15
33.126
33.106
33.092
33.083
33.083
33.093
33.114
33.151
33.204
33.278
33.373
33.494
33.641
33.818
34.023
34.257
34.517
34.8
35.102
35.418
35.742
36.07
36.395
36.716
37.025
37.319
37.594
37.848
38.08
38.289
38.476
38.639
38.779
38.896
38.99
39.062
39.113
39.145
39.159
39.159
39.146
39.122
39.088
39.048
39.003
38.956
38.907
38.856
38.805
38.755
38.704
38.654
38.605
38.556
38.506
38.455
38.401
38.345
38.286
38.223
38.155
38.084
38.01
37.932
37.853
37.773
37.691
37.611
37.531
37.452
37.375
37.301
37.23
37.163
37.102
37.046
36.997
36.954
36.917
36.884
36.854
36.821
36.783
36.743
36.702
36.662
36.624
36.59
36.562
36.538
36.519
36.505
36.494
36.486
36.479
36.471
36.463
36.453
36.441
36.427
36.408
36.385
36.356
36.322
36.282
36.237
36.187
36.132
36.073
36.011
35.945
35.877
35.806
35.733
35.659
35.584
35.508
35.433
35.358
35.282
35.207
35.133
35.059
34.987
34.918
34.851
34.788
34.726
34.666
34.607
34.548
34.489
34.429
34.37
34.31
34.251
34.192
34.133
34.074
34.017
33.961
33.905
33.851
33.799
33.749
33.7
33.654
33.608
33.563
33.519
33.475
33.433
33.394
33.356
33.319
33.283
33.249
33.214
33.179
33.144
33.11
33.077
33.044
33.013
32.982
32.951
32.919
32.886
32.851
32.815
32.777
32.74
32.704
32.669
32.635
32.604
32.573
32.544
32.515
32.488
32.461
32.436
32.412
32.391
32.375
32.363
32.358
32.363
32.379
32.41
32.46
32.533
32.633
32.762
32.922
33.115
33.34
33.595
33.878
34.184
34.508
34.847
35.194
35.544
35.892
36.234
36.567
36.886
37.189
37.472
37.733
37.97
38.181
38.364
38.519
38.644
38.741
38.812
38.857
38.881
38.885
38.873
38.848
38.812
38.767
38.715
38.659
38.599
38.538
38.478
38.419
38.361
38.303
38.244
38.185
38.125
38.064
38.001
37.938
37.873
37.807
37.739
37.67
37.6
37.528
37.453
37.375
37.295
37.213
37.131
37.049
36.97
36.895
36.826
36.762
36.706
36.657
36.615
36.578
36.547
36.521
36.5
36.483
36.469
36.459
36.454
36.452
36.453
36.455
36.458
36.462
36.464
36.466
36.465
36.462
36.456
36.445
36.431
36.412
36.389
36.361
36.329
36.294
36.255
36.212
36.167
36.12
36.07
36.018
35.965
35.91
35.854
35.799
35.743
35.688
35.633
35.578
35.523
35.468
35.412
35.357
35.302
35.247
35.192
35.137
35.081
35.024
34.965
34.906
34.847
34.789
34.731
34.676
34.622
34.571
34.522
34.475
34.429
34.384
34.341
34.298
34.257
34.218
34.178
34.14
34.103
34.067
34.033
34.0
33.968
33.936
33.903
33.869
33.834
33.797
33.758
33.719
33.678
33.637
33.597
33.558
33.52
33.483
33.448
33.415
33.383
33.352
33.322
33.292
33.264
33.235
33.206
33.177
33.148
33.119
33.092
