Trial 3:3back
35.202
35.214
35.228
35.242
35.259
35.276
35.294
35.312
35.329
35.346
35.361
35.374
35.386
35.395
35.403
35.407
35.41
35.409
35.405
35.398
35.389
35.376
35.361
35.343
35.323
35.302
35.278
35.252
35.226
35.197
35.168
35.137
35.105
35.072
35.039
35.006
34.973
34.941
34.91
34.881
34.854
34.829
34.805
34.783
34.762
34.741
34.721
34.7
34.679
34.657
34.635
34.612
34.588
34.564
34.539
34.513
34.486
34.458
34.429
34.399
34.368
34.337
34.306
34.274
34.243
34.213
34.184
34.157
34.131
34.107
34.085
34.064
34.045
34.027
34.011
33.996
33.982
33.969
33.956
33.944
33.931
33.918
33.906
33.893
33.88
33.867
33.854
33.84
33.825
33.811
33.797
33.784
33.772
33.762
33.753
33.745
33.739
33.733
33.726
33.718
33.709
33.698
33.684
33.669
33.651
33.631
33.609
33.584
33.558
33.531
33.502
33.472
33.442
33.413
33.384
33.357
33.331
33.308
33.288
33.271
33.259
33.252
33.25
33.256
33.27
33.292
33.325
33.369
33.426
33.495
33.578
33.675
33.785
33.908
34.043
34.19
34.346
34.511
34.683
34.86
35.04
35.221
35.401
35.577
35.749
35.914
36.071
36.219
36.357
36.484
36.6
36.706
36.8
36.883
36.956
37.018
37.07
37.112
37.146
37.172
37.19
37.202
37.209
37.21
37.208
37.201
37.191
37.177
37.161
37.141
37.12
37.097
37.074
37.049
37.024
36.999
36.974
36.948
36.922
36.896
36.869
36.84
36.811
36.78
36.747
36.712
36.674
36.634
36.592
36.547
36.5
36.451
36.402
36.352
36.302
36.253
36.205
36.16
36.118
36.078
36.042
36.009
35.98
35.955
35.934
35.917
35.904
35.895
35.89
35.89
35.892
35.899
35.909
35.921
35.935
35.951
35.968
35.985
36.003
36.021
36.039
36.057
36.074
36.09
36.104
36.116
36.125
36.131
36.135
36.135
36.133
36.128
36.12
36.109
36.096
36.08
36.062
36.04
36.016
35.99
35.962
35.932
35.9
35.867
35.832
35.798
35.763
35.727
35.692
35.657
35.622
35.588
35.555
35.521
35.488
35.455
35.422
35.39
35.358
35.327
35.296
35.264
35.231
35.198
35.163
35.129
35.094
35.06
35.026
34.992
34.959
34.927
34.897
34.868
34.84
34.815
34.791
34.77
34.75
34.732
34.715
34.698
34.681
34.664
34.648
34.631
34.615
34.599
34.583
34.567
34.55
34.534
34.518
34.502
34.485
34.467
34.449
34.429
34.409
34.387
34.365
34.343
34.32
34.298
34.276
34.255
34.235
34.217
34.2
34.185
34.171
34.157
34.144
34.132
34.119
34.107
34.094
34.083
34.071
34.06
34.049
34.038
34.026
34.013
33.998
33.983
33.968
33.951
33.934
33.916
33.897
33.878
33.857
33.836
33.814
33.791
33.767
33.741
33.715
33.687
33.659
33.629
33.599
33.569
33.538
33.509
33.481
33.456
33.434
33.416
33.403
33.394
33.392
33.396
33.407
33.427
33.458
33.501
33.559
33.632
33.724
33.834
33.962
34.109
34.273
34.452
34.644
34.847
35.058
35.275
35.496
35.717
35.938
36.155
36.367
36.573
36.769
36.954
37.127
37.286
37.429
37.556
37.667
37.762
37.843
37.909
37.962
38.004
38.037
38.061
38.077
38.088
38.093
38.095
38.094
38.09
38.085
38.078
38.069
38.058
38.045
38.029
38.011
37.989
37.966
37.94
37.911
37.881
37.848
37.814
37.778
37.741
37.703
37.665
37.625
37.585
37.545
37.504
37.461
37.418
37.372
37.325
37.276
37.225
37.172
37.119
37.066
37.014
36.964
36.917
36.873
36.833
36.797
36.766
36.74
36.719
36.702
36.691
36.685
36.683
36.687
36.695
36.707
36.723
36.742
36.764
36.788
36.813
36.838
36.863
36.886
36.907
36.925
36.941
36.953
36.961
36.966
36.967
36.965
36.96
36.951
36.94
36.925
36.908
36.888
36.865
36.839
36.811
36.781
36.749
36.715
36.678
36.641
36.602
36.563
36.524
36.485
36.447
36.409
36.373
36.337
36.301
36.266
36.231
36.196
36.161
36.125
36.089
36.053
36.017
35.979
35.941
35.902
35.861
35.819
35.775
35.731
35.687
35.643
35.6
35.556
35.514
35.472
35.432
35.392
35.353
35.317
35.283
35.251
35.221
35.193
35.167
35.143
35.12
35.1
35.081
35.063
35.046
35.03
35.014
34.998
34.981
34.964
34.947
34.928
34.909
34.889
34.868
34.846
34.823
34.798
34.772
34.745
34.716
34.687
34.656
34.626
34.596
34.567
34.54
34.515
34.493
34.472
34.454
34.438
34.424
34.41
34.398
34.387
34.376
34.366
34.355
34.345
34.334
34.324
34.314
34.304
34.294
34.284
34.273
34.262
34.249
34.234
34.218
34.199
34.179
34.156
34.131
34.105
34.078
34.05
34.021
33.992
33.962
33.932
33.901
33.87
33.84
33.811
33.782
33.756
33.732
33.709
33.689
33.672
33.657
33.646
33.64
33.64
33.648
33.665
33.694
33.737
33.795
33.87
33.963
34.075
34.206
34.354
34.52
34.701
34.895
35.1
35.314
35.534
35.759
35.985
36.21
36.432
36.649
36.859
37.058
37.246
37.421
37.582
37.729
37.86
37.977
38.079
38.167
38.242
38.303
38.351
38.389
38.416
38.433
38.443
38.446
38.443
38.436
38.425
38.411
38.393
38.373
38.351
38.326
38.299
38.27
38.239
38.206
38.17
38.131
38.089
38.045
37.997
37.947
37.895
37.841
37.785
37.728
37.67
37.612
37.553
37.494
37.434
37.374
37.313
37.251
37.189
37.127
37.067
37.008
36.953
36.9
36.851
36.807
36.767
36.733
36.704
36.68
36.662
36.65
36.643
36.64
36.643
36.65
36.66
36.674
36.69
36.71
36.731
36.754
36.779
36.805
36.833
36.861
36.889
36.916
36.942
36.964
36.983
36.997
37.005
37.007
37.004
36.996
36.983
36.967
36.947
36.924
36.898
36.871
36.841
36.809
36.775
36.74
36.704
36.666
36.627
36.588
36.548
36.508
36.468
36.427
36.385
36.342
36.297
36.251
36.202
36.153
36.102
36.051
36.0
35.95
35.902
35.854
35.808
35.763
35.719
35.674
35.63
35.586
35.541
35.497
35.452
35.408
35.364
35.321
35.279
35.239
35.2
35.163
35.127
35.092
35.057
35.023
34.989
34.955
34.921
34.886
34.853
34.821
34.791
34.764
34.739
34.717
34.697
34.678
34.661
34.646
34.631
34.617
34.604
34.59
34.576
34.562
34.548
34.534
34.52
34.506
34.491
34.476
34.46
34.445
34.429
34.413
34.397
34.381
34.365
34.349
34.332
34.316
34.3
34.284
34.269
34.253
34.237
34.221
34.203
34.183
34.162
34.138
34.112
34.085
34.057
34.028
34.0
33.973
33.947
33.923
33.9
33.88
33.861
33.845
33.833
33.825
33.822
33.828
33.842
33.868
33.907
33.96
34.029
34.114
34.217
34.336
34.472
34.624
34.79
34.97
35.161
35.363
35.573
35.789
36.008
36.228
36.446
36.659
36.865
37.063
37.25
37.425
37.588
37.738
37.875
37.998
38.108
38.206
38.29
38.363
38.423
38.472
38.511
38.539
38.558
38.569
38.573
38.57
38.561
38.547
38.528
38.505
38.479
38.45
38.418
38.384
38.348
38.309
38.269
38.226
38.181
38.133
38.082
38.03
37.976
37.92
37.863
37.804
37.742
37.678
37.611
37.542
37.469
37.395
37.32
37.244
37.169
37.096
37.026
36.958
36.895
36.835
36.781
36.731
36.688
36.65
36.619
36.594
36.575
36.562
36.555
36.554
36.558
36.567
36.581
36.598
36.618
36.639
36.662
36.686
36.71
36.734
36.757
36.779
36.801
36.82
36.837
36.852
36.863
36.872
36.876
36.877
36.874
36.868
36.858
36.845
36.829
36.81
36.788
36.763
36.736
36.707
36.676
36.644
36.612
36.58
36.547
36.514
36.481
36.448
36.414
36.379
36.344
36.309
36.272
36.235
36.198
36.16
36.122
36.083
36.043
36.002
35.96
35.916
35.871
35.824
35.776
35.727
35.676
35.624
35.572
35.52
35.469
35.418
35.368
35.319
35.273
35.228
35.185
35.145
35.106
35.07
35.035
35.002
34.97
34.94
34.911
34.882
34.854
34.827
34.799
34.771
34.742
34.713
34.683
34.653
34.621
34.589
34.557
34.526
34.495
34.466
34.439
34.414
34.392
34.372
34.354
34.339
34.325
34.312
34.299
34.286
34.271
34.254
34.236
34.216
34.195
34.173
34.152
34.132
34.113
34.095
34.08
34.066
34.053
34.04
34.026
34.011
33.994
33.977
33.959
33.94
33.92
33.899
33.877
33.854
33.829
33.802
33.773
33.741
33.708
33.673
33.638
33.603
33.569
33.537
33.509
33.483
33.462
33.446
33.435
33.43
33.433
33.445
33.47
33.508
33.563
33.637
33.731
33.847
33.985
34.144
34.323
34.521
34.735
34.963
35.203
35.452
35.707
35.968
36.231
36.494
36.756
37.013
37.263
37.505
37.736
37.954
38.158
38.347
38.52
38.677
38.818
38.943
39.053
39.148
39.228
39.294
39.347
39.387
39.417
39.436
39.447
39.449
39.444
39.432
39.416
39.395
39.37
39.342
39.31
39.276
39.239
39.2
39.159
39.116
39.071
39.024
38.975
38.924
38.872
38.818
38.763
38.707
38.649
38.591
38.53
38.468
38.403
38.335
38.265
38.193
38.118
38.043
37.967
37.892
37.818
37.745
37.676
37.611
37.55
37.495
37.446
37.403
37.367
37.338
37.317
37.302
37.293
37.289
37.29
37.294
37.302
37.312
37.324
37.337
37.351
37.366
37.382
37.398
37.415
37.43
37.443
37.454
37.461
37.463
37.462
37.456
37.446
37.432
37.413
37.392
37.368
37.341
37.312
37.279
37.245
37.207
37.168
37.127
37.085
37.041
36.997
36.951
36.904
36.857
36.809
36.761
36.713
36.666
36.619
36.574
36.529
36.485
36.443
36.4
36.357
36.314
36.269
36.224
36.177
36.129
36.08
36.029
35.978
35.927
35.876
35.825
35.774
35.724
35.674
35.624
35.574
35.524
35.475
35.428
35.381
35.337
35.294
35.254
35.215
35.177
35.141
35.106
35.073
35.04
35.008
34.976
34.944
34.912
34.879
34.845
34.811
34.775
34.738
34.701
34.663
34.624
34.585
34.546
34.506
34.466
34.426
34.386
34.347
34.309
34.271
34.234
34.198
34.164
34.13
34.097
34.065
34.034
34.004
33.974
33.946
33.918
33.893
33.87
33.85
33.832
33.817
33.803
33.79
33.778
33.766
33.754
33.74
33.725
33.709
33.691
33.672
33.651
33.628
33.604
33.578
33.55
33.521
33.491
33.458
33.424
33.388
33.351
33.314
33.276
33.238
33.201
33.166
33.134
33.104
33.079
33.058
33.044
33.036
33.037
33.046
33.066
33.097
33.142
33.201
33.277
33.371
33.484
33.615
33.766
33.934
34.119
34.32
34.533
34.756
34.987
35.223
35.459
35.694
35.924
36.147
36.362
36.565
36.754
36.929
37.089
37.232
37.359
37.469
37.564
37.643
37.709
37.76
37.8
37.828
37.845
37.853
37.853
37.845
37.831
37.81
37.784
37.755
37.722
37.687
37.65
37.611
37.571
37.53
37.489
37.446
37.401
37.355
37.306
37.256
37.204
37.149
37.092
37.032
36.971
36.907
36.842
36.776
36.708
36.64
36.57
36.5
36.429
36.358
36.287
36.216
36.147
36.079
36.012
35.948
35.886
35.829
35.776
35.728
35.688
35.654
35.627
35.608
35.595
35.589
35.588
35.593
35.602
35.616
35.633
35.652
35.673
35.695
35.716
35.738
35.759
35.779
35.796
35.811
35.822
35.828
35.829
35.826
35.817
35.804
35.787
35.766
35.743
35.717
35.69
35.662
35.632
35.601
35.568
35.535
35.5
35.465
35.429
35.393
35.358
35.323
35.288
35.253
35.217
35.181
35.142
35.102
35.061
35.018
34.974
34.928
34.88
34.831
34.78
34.729
34.678
34.627
34.576
34.526
34.477
34.429
34.383
34.337
34.293
34.25
34.208
34.167
34.127
34.087
34.047
34.007
33.966
33.924
33.881
33.836
33.791
33.746
33.702
33.659
33.618
33.58
33.543
33.509
33.477
33.448
33.42
33.394
33.37
33.347
33.326
33.305
33.284
33.264
33.244
33.224
33.203
33.182
33.161
33.141
33.121
33.101
33.083
33.066
33.05
33.037
33.025
33.016
33.008
33.002
32.998
32.995
32.993
32.992
32.991
32.989
32.986
32.981
32.973
32.963
32.948
32.931
32.91
32.886
32.859
32.83
32.799
32.767
32.734
32.701
32.667
32.634
32.6
32.567
32.535
32.505
32.477
32.452
32.431
32.415
32.403
32.397
32.397
32.406
32.423
32.451
32.491
32.543
32.61
32.691
32.788
32.901
33.028
33.169
33.322
33.485
33.654
33.829
34.005
34.181
34.352
34.518
34.676
34.824
34.962
35.088
35.201
35.302
35.389
35.464
35.526
35.576
35.614
35.641
35.658
35.667
35.668
35.663
35.652
35.637
35.619
35.599
35.577
35.553
35.527
35.5
35.471
35.44
35.407
35.372
35.335
35.296
35.256
35.215
35.172
35.127
35.081
35.034
34.986
34.937
34.888
34.837
34.786
34.734
34.681
34.627
34.572
34.517
34.461
34.406
34.35
34.295
34.241
34.187
34.135
34.085
34.038
33.995
33.956
33.922
33.893
33.869
33.852
33.839
33.831
33.827
33.826
33.829
33.834
33.842
33.852
33.863
33.877
33.892
33.909
33.925
33.943
33.96
33.976
33.992
34.006
34.017
34.025
34.03
34.03
34.027
34.02
34.009
33.995
33.979
33.96
33.941
33.919
33.897
33.874
33.85
33.825
33.799
33.771
33.743
33.714
33.685
33.656
33.627
33.597
33.568
33.539
33.51
33.482
33.453
33.423
33.393
33.363
33.332
33.3
33.268
33.236
33.204
33.171
33.139
33.106
33.075
33.043
33.013
32.984
32.957
32.932
32.907
32.884
32.861
32.838
32.815
32.792
32.769
32.746
32.722
32.699
32.676
32.654
32.632
32.612
32.594
32.578
32.564
32.551
32.54
32.529
32.519
32.509
32.498
32.488
32.477
32.466
32.454
32.441
32.428
32.415
32.402
32.389
32.376
32.363
32.351
32.339
32.329
32.319
32.309
32.301
32.293
32.285
32.278
32.272
32.267
32.262
32.257
32.253
32.249
32.245
32.24
32.235
32.229
32.223
32.214
32.204
32.192
32.178
32.162
32.145
32.126
32.105
32.083
32.06
32.037
32.015
31.994
31.975
31.958
31.942
31.929
31.919
31.913
31.91
31.913
31.921
31.937
31.963
31.998
32.045
32.105
32.179
32.267
32.369
32.485
32.614
32.756
32.908
33.069
33.236
33.408
33.582
33.756
33.928
34.095
34.257
34.41
34.553
34.686
34.806
34.914
35.009
35.091
35.159
35.216
35.26
35.293
35.315
35.327
35.33
35.325
35.313
35.294
35.271
35.245
35.215
35.184
35.152
35.12
35.089
35.059
35.03
35.003
34.978
34.953
34.928
34.903
34.877
34.849
34.819
34.786
34.751
34.714
34.673
34.63
34.584
34.537
34.487
34.437
34.386
34.334
34.283
34.233
34.185
34.139
34.096
34.055
34.018
33.984
33.953
33.927
33.905
33.887
33.873
33.861
33.853
33.846
33.842
33.839
33.838
33.838
33.84
33.844
33.849
33.855
33.862
33.869
33.878
33.886
33.894
33.902
33.909
33.915
33.92
33.923
33.924
33.923
33.92
33.915
33.909
33.9
33.891
33.88
33.868
33.854
33.84
33.824
33.807
33.789
33.772
33.754
33.737
33.721
33.705
33.69
33.675
33.661
33.648
33.634
33.62
33.606
33.591
33.576
33.56
33.544
33.527
33.509
33.492
33.474
33.456
33.437
33.417
33.395
33.372
33.348
33.322
33.295
33.267
33.24
33.213
33.187
33.162
33.139
33.117
33.098
33.081
33.066
33.053
33.042
33.033
33.026
33.022
33.02
33.02
33.02
33.021
33.022
33.022
33.022
33.022
33.021
33.021
33.021
33.021
33.021
33.022
33.022
33.023
33.023
33.022
33.019
33.015
33.009
33.0
32.989
32.975
32.958
32.94
32.92
32.898
32.875
32.851
32.827
32.802
32.777
32.752
32.726
32.7
32.675
32.649
32.625
32.602
32.58
32.561
32.543
32.529
32.518
32.51
32.506
32.505
32.506
32.51
32.514
32.519
32.524
32.528
32.53
32.532
32.531
32.528
32.523
32.516
32.508
32.499
32.489
32.48
32.471
32.464
32.459
32.456
32.456
32.459
32.465
32.474
32.488
32.506
32.53
32.561
32.599
32.648
32.706
32.776
32.859
32.953
33.06
33.178
33.308
33.448
33.596
33.751
33.911
34.075
34.241
34.406
34.569
34.726
34.877
35.02
35.152
35.273
35.381
35.476
35.558
35.627
35.682
35.725
35.756
35.775
35.785
35.785
35.777
35.762
35.742
35.716
35.686
35.654
35.62
35.586
35.551
35.516
35.481
35.447
35.413
35.379
35.344
35.309
35.272
35.235
35.198
35.16
35.122
35.084
35.047
35.009
34.971
34.933
34.895
34.857
34.819
34.782
34.744
34.707
34.67
34.633
34.597
34.561
34.526
34.491
34.458
34.426
34.398
34.373
34.351
34.333
34.318
34.307
34.3
34.295
34.295
34.297
34.303
34.312
34.325
34.341
34.36
34.383
34.41
34.439
34.47
34.503
34.536
34.569
34.6
34.63
34.657
34.682
34.703
34.721
34.736
34.745
34.75
34.75
34.745
34.736
34.722
34.704
34.684
34.66
34.636
34.61
34.583
34.557
34.53
34.505
34.48
34.456
34.432
34.408
34.385
34.361
34.339
34.316
34.294
34.272
34.25
34.229
34.208
34.187
34.165
34.142
34.119
34.095
34.069
34.043
34.017
33.991
33.966
33.942
33.92
33.9
33.881
33.864
33.848
33.833
33.819
33.806
33.793
33.781
33.77
33.758
33.748
33.738
33.729
33.721
33.713
33.705
33.698
33.69
33.682
33.673
33.664
33.654
33.644
33.635
33.625
33.616
33.608
33.6
33.594
33.589
33.584
33.581
33.578
33.575
33.571
33.568
33.563
33.558
33.552
33.545
33.538
33.532
33.525
33.518
33.512
33.506
33.501
33.497
33.493
33.489
33.484
33.479
33.474
33.467
33.461
33.453
33.445
33.436
33.426
33.415
33.402
33.388
33.372
33.354
33.333
33.31
33.285
33.259
33.232
33.205
33.178
33.151
33.127
33.104
33.085
33.071
33.061
33.056
33.056
33.063
33.076
33.096
33.122
33.155
33.194
33.241
33.296
33.36
33.433
33.515
33.608
33.711
33.823
33.945
34.074
34.209
34.348
34.489
34.63
34.77
34.908
35.04
35.167
35.287
35.398
35.5
35.591
35.672
35.741
35.798
35.844
35.879
35.903
35.917
35.921
35.917
35.905
35.887
35.863
35.835
35.803
35.77
35.735
35.699
35.664
35.628
35.594
35.561
35.53
35.499
35.47
35.442
35.414
35.387
35.36
35.332
35.303
35.274
35.243
35.213
35.181
35.148
35.115
35.082
35.047
35.012
34.977
34.94
34.903
34.866
34.828
34.79
34.752
34.715
34.681
34.649
34.619
34.594
34.572
34.555
34.543
34.536
34.534
34.538
34.546
34.559
34.576
34.596
34.619
34.644
34.671
34.698
34.726
34.753
34.779
34.803
34.826
34.845
34.863
34.877
34.888
34.896
34.901
34.903
34.903
34.899
34.893
34.884
34.872
34.857
34.841
34.822
34.801
34.78
34.757
34.734
34.712
34.69
34.669
34.649
34.631
34.614
34.598
34.582
34.566
34.55
34.533
34.514
34.494
34.472
34.449
34.426
34.402
34.377
34.353
34.329
34.304
34.28
34.256
34.233
34.21
34.188
34.166
34.145
34.124
34.103
34.082
34.062
34.041
34.021
34.003
33.986
33.97
33.957
33.945
33.934
33.924
33.914
33.905
33.895
33.886
33.876
33.867
33.857
33.848
33.84
33.833
33.827
33.822
33.818
33.814
33.81
33.807
33.805
33.802
33.8
33.798
33.796
33.793
33.789
33.785
33.779
33.773
33.765
33.756
33.745
33.733
33.718
33.702
33.684
33.664
33.644
33.622
33.6
33.578
33.555
33.533
33.512
33.493
33.474
33.458
33.443
33.43
33.42
33.412
33.407
33.405
33.408
33.416
33.43
33.451
33.48
33.519
33.567
33.627
33.698
33.781
33.877
33.984
34.103
34.232
34.371
34.517
34.671
34.829
34.99
35.152
35.313
35.47
35.622
35.767
35.905
36.032
36.149
36.253
36.346
36.426
36.493
36.548
36.592
36.624
36.647
36.66
36.664
36.662
36.652
36.636
36.616
36.591
36.564
36.535
36.505
36.476
36.447
36.42
36.394
36.37
36.348
36.326
36.306
36.287
36.267
36.247
36.226
36.203
36.179
36.152
36.124
36.093
36.061
36.026
35.99
35.952
35.913
35.872
35.829
35.786
35.741
35.697
35.654
35.613
35.574
35.538
35.505
35.476
35.449
35.427
35.407
35.392
35.38
35.371
35.366
35.364
35.364
35.368
35.374
35.384
35.397
35.414
35.434
35.458
35.484
35.512
35.541
35.571
35.601
35.63
35.657
35.683
35.706
35.727
35.743
35.756
35.765
35.768
35.768
35.763
35.755
35.744
35.73
35.715
35.697
35.679
35.66
35.64
35.619
35.598
35.576
35.553
35.53
35.506
35.481
35.457
35.433
35.41
35.388
35.366
35.346
35.326
35.308
35.289
35.271
35.253
35.234
35.215
35.194
35.172
35.148
35.122
35.095
35.066
35.036
35.005
34.974
34.944
34.913
34.883
34.853
34.826
34.799
34.775
34.753
34.733
34.716
34.7
34.686
34.674
34.662
34.652
34.642
34.633
34.625
34.618
34.611
34.605
34.599
34.593
34.587
34.581
34.575
34.568
34.56
34.551
34.542
34.534
34.525
34.516
34.509
34.502
34.495
34.488
34.481
34.473
34.464
34.454
34.444
34.433
34.423
