Trial 3:3back
33.752
33.744
33.736
33.729
33.724
33.719
33.714
33.71
33.705
33.698
33.69
33.681
33.67
33.659
33.647
33.636
33.627
33.619
33.613
33.608
33.603
33.598
33.593
33.587
33.58
33.572
33.562
33.55
33.538
33.524
33.511
33.497
33.484
33.472
33.461
33.451
33.44
33.428
33.417
33.406
33.394
33.38
33.365
33.349
33.331
33.312
33.29
33.267
33.243
33.219
33.193
33.166
33.138
33.11
33.082
33.056
33.033
33.013
32.997
32.984
32.974
32.967
32.962
32.958
32.956
32.954
32.951
32.947
32.941
32.934
32.925
32.916
32.907
32.897
32.888
32.879
32.871
32.864
32.856
32.847
32.836
32.823
32.809
32.793
32.775
32.757
32.738
32.719
32.699
32.68
32.66
32.64
32.62
32.602
32.583
32.565
32.548
32.531
32.516
32.502
32.49
32.481
32.475
32.472
32.472
32.476
32.485
32.497
32.516
32.542
32.581
32.636
32.713
32.814
32.945
33.112
33.318
33.567
33.861
34.199
34.577
34.988
35.424
35.875
36.332
36.785
37.223
37.637
38.019
38.365
38.668
38.928
39.142
39.312
39.438
39.523
39.571
39.586
39.572
39.535
39.478
39.405
39.32
39.226
39.128
39.027
38.925
38.824
38.724
38.627
38.531
38.437
38.343
38.251
38.16
38.069
37.979
37.891
37.805
37.722
37.641
37.562
37.486
37.413
37.344
37.279
37.218
37.162
37.11
37.063
37.02
36.978
36.939
36.899
36.859
36.818
36.777
36.737
36.697
36.659
36.621
36.583
36.543
36.502
36.457
36.411
36.363
36.316
36.271
36.23
36.196
36.169
36.149
36.137
36.134
36.139
36.151
36.171
36.198
36.232
36.271
36.314
36.361
36.41
36.459
36.507
36.553
36.597
36.637
36.674
36.706
36.733
36.755
36.772
36.782
36.787
36.785
36.778
36.763
36.742
36.716
36.684
36.648
36.607
36.563
36.515
36.465
36.413
36.359
36.304
36.249
36.194
36.139
36.084
36.029
35.974
35.919
35.864
35.811
35.758
35.707
35.657
35.609
35.564
35.52
35.479
35.44
35.402
35.365
35.33
35.294
35.259
35.224
35.188
35.153
35.119
35.087
35.057
35.031
35.008
34.989
34.973
34.96
34.949
34.939
34.932
34.926
34.921
34.917
34.913
34.907
34.9
34.892
34.884
34.875
34.867
34.86
34.855
34.85
34.847
34.845
34.842
34.837
34.831
34.822
34.81
34.796
34.78
34.763
34.743
34.723
34.701
34.678
34.655
34.632
34.608
34.585
34.56
34.534
34.505
34.474
34.442
34.408
34.373
34.337
34.3
34.26
34.218
34.176
34.132
34.088
34.044
33.998
33.952
33.904
33.85
33.791
33.728
33.664
33.601
33.543
33.49
33.445
33.407
33.376
33.352
33.335
33.324
33.318
33.317
33.317
33.32
33.325
33.33
33.335
33.34
33.343
33.346
33.347
33.348
33.347
33.346
33.345
33.344
33.343
33.344
33.345
33.346
33.349
33.351
33.353
33.354
33.351
33.347
33.34
33.333
33.324
33.314
33.305
33.295
33.286
33.276
33.267
33.258
33.248
33.236
33.224
33.21
33.194
33.178
33.161
33.144
33.128
33.114
33.104
33.097
33.096
33.102
33.121
33.155
33.209
33.285
33.386
33.517
33.682
33.884
34.126
34.409
34.732
35.093
35.487
35.908
36.347
36.795
37.241
37.677
38.093
38.48
38.832
39.145
39.415
39.64
39.821
39.959
40.057
40.118
40.146
40.145
40.121
40.076
40.016
39.944
39.863
39.774
39.68
39.582
39.482
39.382
39.282
39.183
39.086
38.99
38.897
38.805
38.716
38.629
38.544
38.462
38.382
38.305
38.232
38.162
38.098
38.037
37.98
37.928
37.88
37.835
37.794
37.756
37.72
37.687
37.655
37.624
37.593
37.559
37.523
37.482
37.437
37.388
37.336
37.281
37.223
37.164
37.104
37.044
36.986
36.932
36.882
36.84
36.804
36.776
36.755
36.744
36.74
36.746
36.759
36.778
36.804
36.834
36.87
36.909
36.952
36.997
37.042
37.086
37.127
37.166
37.2
37.23
37.254
37.272
37.283
37.287
37.283
37.273
37.255
37.23
37.198
37.161
37.119
37.074
37.027
36.979
36.93
36.882
36.833
36.784
36.735
36.684
36.632
36.576
36.518
36.458
36.396
36.332
36.266
36.199
36.13
36.061
35.993
35.926
35.861
35.797
35.736
35.678
35.624
35.573
35.525
35.478
35.432
35.387
35.342
35.296
35.25
35.202
35.155
35.107
35.06
35.013
34.966
34.92
34.875
34.833
34.793
34.757
34.723
34.692
34.665
34.641
34.62
34.601
34.586
34.573
34.562
34.551
34.541
34.532
34.521
34.51
34.499
34.486
34.474
34.461
34.449
34.437
34.425
34.412
34.399
34.386
34.371
34.356
34.339
34.322
34.305
34.286
34.267
34.247
34.226
34.206
34.185
34.164
34.144
34.124
34.105
34.086
34.065
34.045
34.024
34.002
33.978
33.954
33.928
33.903
33.878
33.853
33.829
33.807
33.786
33.765
33.745
33.724
33.702
33.678
33.653
33.627
33.6
33.573
33.546
33.521
33.497
33.474
33.454
33.435
33.417
33.399
33.382
33.364
33.346
33.327
33.308
33.289
33.269
33.249
33.229
33.211
33.192
33.174
33.157
33.142
33.128
33.115
33.103
33.091
33.08
33.07
33.059
33.046
33.033
33.018
33.002
32.985
32.967
32.949
32.931
32.913
32.895
32.877
32.859
32.84
32.822
32.805
32.789
32.773
32.757
32.742
32.728
32.716
32.705
32.696
32.691
32.689
32.694
32.705
32.726
32.761
32.812
32.883
32.978
33.102
33.26
33.455
33.692
33.971
34.292
34.654
35.05
35.474
35.919
36.375
36.834
37.286
37.721
38.131
38.51
38.852
39.154
39.414
39.63
39.805
39.938
40.031
40.088
40.112
40.107
40.076
40.022
39.951
39.866
39.769
39.666
39.558
39.45
39.342
39.237
39.135
39.036
38.942
38.851
38.765
38.682
38.602
38.525
38.449
38.375
38.302
38.231
38.162
38.094
38.027
37.962
37.901
37.842
37.785
37.731
37.677
37.625
37.574
37.524
37.476
37.43
37.384
37.339
37.292
37.245
37.198
37.15
37.103
37.056
37.009
36.964
36.921
36.88
36.842
36.806
36.775
36.748
36.727
36.712
36.705
36.705
36.712
36.726
36.746
36.772
36.804
36.842
36.884
36.932
36.982
37.034
37.087
37.137
37.185
37.229
37.267
37.301
37.33
37.353
37.37
37.381
37.386
37.384
37.376
37.362
37.34
37.312
37.277
37.236
37.189
37.137
37.081
37.022
36.961
36.899
36.835
36.772
36.709
36.648
36.588
36.527
36.466
36.404
36.342
36.279
36.217
36.156
36.095
36.036
35.979
35.924
35.87
35.817
35.766
35.717
35.67
35.624
35.579
35.537
35.495
35.455
35.415
35.375
35.336
35.296
35.257
35.219
35.183
35.148
35.116
35.086
35.057
35.028
35.001
34.974
34.949
34.925
34.903
34.881
34.861
34.841
34.823
34.806
34.791
34.777
34.765
34.755
34.746
34.737
34.728
34.719
34.71
34.7
34.689
34.677
34.666
34.655
34.644
34.633
34.623
34.614
34.604
34.595
34.586
34.577
34.569
34.559
34.549
34.539
34.529
34.52
34.512
34.503
34.494
34.484
34.473
34.46
34.446
34.43
34.411
34.39
34.368
34.344
34.318
34.291
34.263
34.234
34.206
34.178
34.151
34.126
34.103
34.083
34.065
34.05
34.038
34.027
34.017
34.007
33.998
33.991
33.983
33.975
33.967
33.958
33.947
33.935
33.92
33.903
33.883
33.861
33.838
33.812
33.784
33.755
33.725
33.693
33.662
33.632
33.601
33.571
33.541
33.512
33.484
33.458
33.435
33.416
33.401
33.391
33.386
33.388
33.398
33.418
33.451
33.499
33.565
33.653
33.768
33.914
34.096
34.317
34.58
34.885
35.228
35.606
36.014
36.444
36.888
37.338
37.783
38.217
38.629
39.014
39.365
39.679
39.953
40.186
40.377
40.527
40.639
40.716
40.76
40.775
40.765
40.734
40.685
40.621
40.544
40.459
40.368
40.274
40.178
40.083
39.99
39.9
39.813
39.729
39.647
39.568
39.49
39.413
39.336
39.261
39.187
39.114
39.044
38.974
38.907
38.842
38.78
38.722
38.666
38.614
38.564
38.516
38.47
38.424
38.379
38.334
38.286
38.236
38.182
38.124
38.065
38.003
37.94
37.879
37.818
37.759
37.702
37.648
37.597
37.55
37.509
37.474
37.446
37.427
37.415
37.411
37.415
37.426
37.444
37.467
37.496
37.53
37.567
37.607
37.648
37.689
37.73
37.769
37.804
37.834
37.857
37.873
37.883
37.887
37.886
37.88
37.87
37.854
37.835
37.81
37.779
37.744
37.703
37.658
37.608
37.555
37.499
37.44
37.38
37.319
37.256
37.192
37.128
37.063
36.998
36.934
36.87
36.807
36.744
36.682
36.618
36.554
36.487
36.417
36.346
36.273
36.2
36.126
36.052
35.979
35.908
35.84
35.776
35.718
35.665
35.617
35.575
35.538
35.506
35.478
35.454
35.432
35.413
35.396
35.379
35.364
35.349
35.334
35.318
35.3
35.279
35.256
35.229
35.2
35.17
35.139
35.109
35.079
35.05
35.022
34.996
34.973
34.952
34.933
34.917
34.903
34.891
34.879
34.866
34.853
34.838
34.821
34.803
34.784
34.765
34.745
34.725
34.705
34.684
34.665
34.645
34.626
34.606
34.585
34.564
34.542
34.52
34.497
34.472
34.448
34.423
34.397
34.372
34.347
34.319
34.287
34.25
34.21
34.169
34.127
34.087
34.051
34.019
33.993
33.972
33.957
33.945
33.937
33.932
33.927
33.923
33.916
33.906
33.892
33.874
33.853
33.829
33.802
33.775
33.747
33.719
33.691
33.664
33.638
33.613
33.59
33.569
33.55
33.533
33.517
33.501
33.488
33.475
33.465
33.455
33.446
33.437
33.429
33.42
33.409
33.398
33.384
33.368
33.35
33.33
33.307
33.283
33.256
33.227
33.197
33.166
33.134
33.102
33.068
33.033
32.998
32.963
32.929
32.895
32.864
32.835
32.811
32.792
32.779
32.774
32.777
32.789
32.81
32.845
32.896
32.966
33.061
33.184
33.341
33.537
33.774
34.056
34.384
34.755
35.165
35.607
36.072
36.552
37.035
37.511
37.972
38.407
38.81
39.175
39.498
39.778
40.014
40.208
40.361
40.476
40.555
40.604
40.625
40.621
40.597
40.556
40.501
40.437
40.365
40.288
40.207
40.123
40.036
39.949
39.862
39.775
39.689
39.605
39.523
39.442
39.364
39.287
39.213
39.141
39.073
39.007
38.945
38.887
38.834
38.786
38.742
38.702
38.667
38.637
38.613
38.593
38.573
38.551
38.527
38.497
38.461
38.417
38.366
38.305
38.238
38.163
38.083
38.0
37.914
37.829
37.746
37.667
37.597
37.535
37.484
37.443
37.415
37.397
37.391
37.393
37.405
37.423
37.447
37.474
37.504
37.535
37.567
37.599
37.631
37.661
37.69
37.718
37.745
37.768
37.787
37.801
37.81
37.812
37.807
37.794
37.773
37.744
37.708
37.666
37.618
37.567
37.513
37.457
37.399
37.34
37.281
37.222
37.163
37.105
37.046
36.987
36.926
36.864
36.801
36.736
36.669
36.6
36.535
36.48
36.435
36.399
36.367
36.337
36.306
36.271
36.229
36.18
36.121
36.053
35.974
35.888
35.796
35.701
35.605
35.509
35.416
35.329
35.249
35.179
35.117
35.065
35.022
34.987
34.96
34.94
34.925
34.915
34.908
34.903
34.897
34.891
34.882
34.871
34.858
34.844
34.828
34.81
34.792
34.773
34.754
34.735
34.716
34.698
34.68
34.663
34.645
34.627
34.609
34.592
34.575
34.558
34.542
34.528
34.515
34.503
34.491
34.48
34.467
34.454
34.439
34.422
34.405
34.386
34.365
34.343
34.319
34.294
34.269
34.244
34.221
34.199
34.178
34.158
34.14
34.123
34.105
34.088
34.071
34.055
34.038
34.023
34.006
33.988
33.969
33.95
33.929
33.906
33.881
33.856
33.831
33.805
33.78
33.756
33.735
33.716
33.7
33.686
33.674
33.663
33.653
33.644
33.634
33.623
33.612
33.6
33.587
33.572
33.556
33.537
33.515
33.492
33.465
33.437
33.407
33.376
33.344
33.312
33.28
33.25
33.221
33.194
33.168
33.143
33.118
33.094
33.071
33.049
33.03
33.013
33.002
32.997
33.002
33.02
33.054
33.109
33.187
33.292
33.429
33.602
33.814
34.068
34.364
34.701
35.074
35.478
35.905
36.349
36.801
37.25
37.689
38.109
38.503
38.865
39.193
39.482
39.731
39.939
40.107
40.237
40.332
40.395
40.429
40.439
40.429
40.4
40.357
40.304
40.243
40.176
40.105
40.03
39.953
39.875
39.795
39.715
39.633
39.552
39.47
39.387
39.306
39.225
39.146
39.068
38.992
38.918
38.847
38.779
38.714
38.653
38.594
38.538
38.483
38.429
38.376
38.325
38.274
38.223
38.171
38.119
38.064
38.009
37.952
37.892
37.831
37.766
37.701
37.634
37.569
37.506
37.446
37.391
37.343
37.302
37.27
37.248
37.236
37.234
37.241
37.256
37.28
37.31
37.346
37.385
37.425
37.467
37.507
37.548
37.587
37.624
37.657
37.687
37.713
37.735
37.753
37.767
37.776
37.779
37.776
37.765
37.746
37.719
37.686
37.646
37.6
37.549
37.494
37.436
37.377
37.317
37.257
37.197
37.136
37.074
37.012
36.949
36.885
36.819
36.752
36.683
36.612
36.538
36.463
36.387
36.311
36.235
36.156
36.071
35.981
35.887
35.792
35.7
35.612
35.531
35.457
35.393
35.337
35.291
35.253
35.222
35.195
35.172
35.15
35.131
35.112
35.093
35.073
35.052
35.029
35.003
34.975
34.945
34.913
34.88
34.845
34.81
34.776
34.743
34.714
34.686
34.662
34.639
34.619
34.6
34.582
34.567
34.552
34.537
34.521
34.504
34.488
34.47
34.454
34.437
34.421
34.405
34.388
34.371
34.354
34.337
34.319
34.301
34.283
34.263
34.243
34.221
34.199
34.175
34.152
34.128
34.105
34.082
34.058
34.034
34.009
33.983
33.957
33.93
33.903
33.876
33.848
33.82
33.791
33.762
33.732
33.703
33.675
33.647
33.62
33.593
33.567
33.542
33.516
33.492
33.468
33.445
33.423
33.403
33.385
33.369
33.354
33.342
33.33
33.32
33.31
33.301
33.292
33.282
33.272
33.261
33.248
33.235
33.221
33.206
33.189
33.169
33.147
33.124
33.098
33.069
33.038
33.004
32.968
32.932
32.895
32.859
32.825
32.794
32.766
32.741
32.719
32.699
32.681
32.664
32.65
32.64
32.633
32.629
32.631
32.64
32.659
32.692
32.743
32.816
32.918
33.053
33.227
33.442
33.7
34.004
34.351
34.739
35.161
35.61
36.078
36.556
37.034
37.502
37.952
38.378
38.772
39.129
39.445
39.72
39.951
40.141
40.291
40.404
40.482
40.529
40.546
40.538
40.51
40.464
40.404
40.335
40.257
40.175
40.09
40.004
39.919
39.835
39.755
39.676
39.6
39.524
39.449
39.376
39.302
39.23
39.157
39.086
39.015
38.947
38.881
38.818
38.759
38.705
38.655
38.61
38.57
38.534
38.501
38.47
38.44
38.41
38.378
38.343
38.303
38.259
38.211
38.156
38.097
38.034
37.968
37.899
37.828
37.755
37.683
37.614
37.549
37.49
37.439
37.397
37.364
37.34
37.327
37.323
37.328
37.341
37.361
37.385
37.412
37.441
37.47
37.499
37.526
37.55
37.571
37.587
37.597
37.603
37.605
37.603
37.596
37.584
37.568
37.546
37.519
37.486
37.449
37.407
37.362
37.314
37.263
37.21
37.156
37.1
37.043
36.984
36.923
36.86
36.795
36.728
36.659
36.588
36.515
36.439
36.36
36.281
36.201
36.121
36.041
35.962
35.885
35.809
35.735
35.663
35.594
35.532
35.482
35.443
35.412
35.387
35.365
35.341
35.313
35.28
35.24
35.192
35.137
35.076
35.01
34.94
34.869
34.796
34.724
34.653
34.586
34.524
34.47
34.422
34.383
34.35
34.323
34.301
34.284
34.27
34.259
34.249
34.238
34.227
34.215
34.201
34.185
34.17
34.153
34.136
34.12
34.102
34.084
34.064
34.043
34.02
33.998
33.975
33.953
33.93
33.909
33.888
33.869
33.852
33.836
33.821
33.807
33.792
33.776
33.759
33.74
33.72
33.698
33.677
33.654
33.63
33.604
33.576
33.547
33.518
33.489
33.457
33.422
33.386
33.349
33.313
33.277
33.243
33.212
33.184
33.159
33.137
33.117
33.098
33.078
33.059
33.039
33.018
32.996
32.974
32.951
32.928
32.906
32.883
32.862
32.841
32.822
32.805
32.788
32.773
32.758
32.745
32.733
32.723
32.714
32.705
32.696
32.688
32.68
32.671
32.661
32.651
32.64
32.628
32.615
32.601
32.583
32.564
32.542
32.519
32.496
32.471
32.446
32.421
32.397
32.373
32.349
32.327
32.306
32.288
32.272
32.258
32.246
32.236
32.227
32.221
32.218
32.217
32.22
32.228
32.243
32.265
32.297
32.341
32.403
32.486
32.595
32.735
32.912
33.13
33.393
33.7
34.05
34.441
34.865
35.316
35.785
36.26
36.734
37.198
37.643
38.061
38.447
38.795
39.102
39.368
39.591
39.772
39.914
40.019
40.091
40.133
40.151
40.146
40.123
40.084
40.033
39.972
39.905
39.833
39.758
39.681
39.603
39.523
39.443
39.361
39.278
39.195
39.113
39.032
38.954
38.878
38.805
38.735
38.669
38.606
38.546
38.488
38.433
38.382
38.333
38.286
38.242
38.201
38.161
38.121
38.08
38.038
37.993
37.945
37.893
37.838
37.779
37.717
37.652
37.584
37.516
37.447
37.379
37.314
37.254
37.199
37.15
37.109
37.077
37.055
37.042
37.039
37.044
37.058
37.079
37.106
37.138
37.175
37.216
37.258
37.3
37.342
37.381
37.418
37.452
37.48
37.504
37.521
37.531
37.535
37.531
37.521
37.504
37.48
37.45
37.415
37.376
37.334
37.289
37.243
37.194
37.144
37.092
37.039
36.983
36.924
36.861
36.795
36.726
36.655
36.582
36.506
36.428
36.349
36.269
36.191
36.115
36.042
35.972
35.906
35.843
35.783
35.726
35.671
35.617
35.564
35.511
35.46
35.409
35.359
35.31
35.262
35.216
35.17
35.126
35.082
35.038
34.994
34.951
34.908
34.866
34.824
34.782
34.74
34.7
34.661
34.624
34.59
34.56
34.533
34.51
34.489
34.471
34.456
34.443
34.433
34.425
34.418
34.412
34.405
34.397
34.388
34.379
34.37
34.36
34.349
34.337
34.324
34.311
34.297
34.282
34.267
34.251
34.234
34.217
34.199
34.181
34.164
34.146
34.128
34.11
34.092
34.074
34.055
34.035
34.014
33.992
33.969
33.944
33.917
33.888
33.858
33.826
33.794
33.762
33.731
33.7
33.67
33.642
33.615
33.59
33.566
33.544
33.521
33.499
33.478
33.456
33.433
33.411
33.388
33.365
33.343
33.322
33.302
33.284
33.267
33.25
33.234
33.217
33.199
33.181
33.162
33.144
33.126
33.108
33.09
33.071
33.052
33.033
33.013
32.991
32.968
32.943
32.916
32.887
32.855
32.823
32.789
32.755
32.72
32.686
32.654
32.624
32.596
32.571
32.55
32.532
32.517
32.506
32.499
32.5
32.509
32.531
32.568
32.625
32.707
32.818
32.963
33.148
33.376
33.65
33.97
34.334
34.738
35.175
35.639
36.121
36.609
37.095
37.568
38.019
38.442
38.83
39.178
39.484
39.745
39.962
40.136
40.271
40.369
40.433
40.468
40.476
40.463
40.431
40.385
40.327
40.26
40.186
40.108
40.028
39.946
39.865
39.784
39.703
39.623
39.543
39.463
39.384
39.307
39.231
39.157
39.085
39.015
38.947
38.883
38.822
38.766
38.713
38.664
38.619
38.577
38.538
38.501
38.464
38.427
38.387
38.343
38.295
38.242
38.186
38.126
38.061
37.994
37.924
37.852
37.78
37.707
37.635
37.564
37.495
37.431
37.372
37.32
37.275
37.237
37.207
37.185
37.172
37.167
37.168
37.176
37.187
37.203
37.222
37.244
37.27
37.297
37.324
37.35
37.375
37.397
37.417
37.433
37.444
37.451
37.453
37.449
37.439
37.423
37.402
37.374
37.34
37.301
37.257
37.208
37.155
37.098
37.038
36.976
36.912
36.846
36.778
36.71
36.641
36.572
36.504
36.436
36.369
36.304
36.242
36.182
36.124
36.068
36.011
35.952
35.892
35.829
35.765
35.698
35.63
35.559
35.488
35.417
35.347
35.279
35.213
35.148
35.086
35.025
34.967
34.91
34.855
34.803
34.754
34.707
34.663
34.621
34.581
34.544
34.51
34.478
34.448
34.421
34.397
34.375
34.355
34.335
34.315
34.295
34.275
34.254
34.233
34.211
34.189
34.167
34.144
34.121
34.098
34.076
34.053
34.03
34.008
33.985
33.963
33.941
33.918
33.896
33.873
33.849
33.824
33.798
33.77
33.741
33.712
33.681
33.651
33.62
33.59
33.56
33.532
33.504
33.477
33.45
33.424
33.398
33.375
33.353
33.332
33.311
33.291
33.269
33.246
33.221
33.195
33.166
33.136
33.105
33.074
33.042
33.01
32.977
32.945
32.915
32.886
32.859
32.833
32.81
32.787
32.767
32.747
32.728
32.709
32.69
32.671
32.652
32.632
32.611
32.589
32.566
32.544
32.523
32.503
32.484
32.467
32.451
32.436
32.421
32.406
32.391
32.376
32.361
32.347
32.333
32.32
32.306
32.291
32.276
32.259
32.242
32.223
32.203
32.183
32.161
32.138
32.112
32.087
32.062
32.039
32.018
32.0
31.985
31.971
31.96
31.95
31.943
31.937
31.933
31.931
31.931
31.934
31.938
31.947
31.959
31.979
32.009
32.051
32.11
32.189
32.294
32.43
32.601
32.813
33.068
