Trial 3:3back
34.266
34.203
34.136
34.068
33.998
33.927
33.854
33.78
33.706
33.632
33.559
33.487
33.418
33.35
33.284
33.22
33.155
33.091
33.029
32.967
32.906
32.845
32.783
32.721
32.658
32.594
32.529
32.463
32.396
32.328
32.26
32.192
32.124
32.059
31.995
31.932
31.873
31.816
31.764
31.716
31.672
31.636
31.608
31.59
31.586
31.599
31.634
31.696
31.791
31.924
32.1
32.322
32.593
32.915
33.288
33.709
34.174
34.679
35.217
35.779
36.355
36.938
37.516
38.081
38.623
39.133
39.604
40.029
40.405
40.728
40.996
41.207
41.363
41.464
41.514
41.516
41.475
41.395
41.282
41.143
40.981
40.804
40.614
40.417
40.216
40.016
39.817
39.622
39.433
39.248
39.069
38.895
38.727
38.562
38.401
38.24
38.079
37.917
37.754
37.588
37.421
37.251
37.078
36.904
36.728
36.551
36.375
36.199
36.026
35.854
35.684
35.518
35.356
35.201
35.052
34.912
34.782
34.663
34.556
34.462
34.379
34.309
34.25
34.203
34.166
34.138
34.12
34.109
34.106
34.111
34.123
34.142
34.168
34.199
34.235
34.275
34.316
34.359
34.4
34.439
34.473
34.503
34.528
34.548
34.562
34.57
34.572
34.568
34.558
34.543
34.521
34.492
34.455
34.412
34.363
34.309
34.25
34.188
34.125
34.061
33.997
33.934
33.872
33.81
33.749
33.688
33.625
33.56
33.494
33.425
33.355
33.282
33.209
33.135
33.059
32.983
32.907
32.83
32.755
32.681
32.608
32.536
32.466
32.398
32.333
32.272
32.213
32.157
32.103
32.052
32.003
31.955
31.91
31.867
31.826
31.785
31.747
31.711
31.679
31.654
31.637
31.633
31.644
31.676
31.734
31.822
31.948
32.116
32.331
32.596
32.914
33.286
33.711
34.186
34.705
35.262
35.845
36.446
37.052
37.653
38.238
38.796
39.32
39.8
40.229
40.603
40.919
41.174
41.371
41.51
41.596
41.634
41.628
41.583
41.505
41.397
41.266
41.115
40.95
40.774
40.591
40.403
40.211
40.019
39.827
39.636
39.446
39.259
39.076
38.896
38.72
38.546
38.376
38.209
38.045
37.881
37.718
37.555
37.392
37.227
37.062
36.896
36.73
36.565
36.401
36.238
36.078
35.921
35.767
35.618
35.474
35.334
35.2
35.073
34.953
34.842
34.742
34.653
34.575
34.51
34.456
34.413
34.38
34.355
34.339
34.329
34.324
34.324
34.328
34.335
34.345
34.358
34.373
34.39
34.41
34.431
34.453
34.476
34.498
34.519
34.537
34.551
34.561
34.566
34.566
34.563
34.555
34.543
34.526
34.504
34.477
34.442
34.399
34.35
34.294
34.231
34.163
34.09
34.015
33.939
33.862
33.786
33.711
33.638
33.565
33.493
33.42
33.346
33.271
33.196
33.122
33.05
32.98
32.913
32.848
32.784
32.72
32.656
32.591
32.525
32.457
32.389
32.32
32.253
32.188
32.124
32.061
32.001
31.942
31.884
31.827
31.773
31.72
31.669
31.622
31.578
31.539
31.504
31.473
31.449
31.431
31.421
31.423
31.441
31.477
31.538
31.627
31.751
31.914
32.122
32.379
32.687
33.049
33.463
33.927
34.436
34.984
35.562
36.162
36.772
37.382
37.981
38.56
39.106
39.612
40.069
40.472
40.817
41.102
41.326
41.492
41.602
41.659
41.669
41.635
41.562
41.458
41.327
41.175
41.007
40.826
40.637
40.441
40.242
40.043
39.845
39.649
39.457
39.269
39.085
38.905
38.728
38.554
38.383
38.213
38.044
37.876
37.708
37.539
37.37
37.201
37.032
36.864
36.695
36.527
36.36
36.193
36.028
35.865
35.705
35.548
35.396
35.249
35.109
34.976
34.851
34.736
34.63
34.535
34.45
34.376
34.314
34.262
34.222
34.194
34.178
34.173
34.178
34.191
34.21
34.235
34.262
34.291
34.322
34.352
34.38
34.407
34.43
34.449
34.464
34.474
34.48
34.481
34.479
34.474
34.467
34.456
34.442
34.425
34.404
34.376
34.342
34.303
34.257
34.206
34.149
34.088
34.024
33.957
33.888
33.817
33.746
33.674
33.601
33.527
33.453
33.378
33.303
33.229
33.156
33.085
33.015
32.947
32.88
32.814
32.747
32.678
32.609
32.54
32.47
32.402
32.336
32.273
32.212
32.152
32.094
32.038
31.983
31.929
31.877
31.826
31.778
31.731
31.687
31.644
31.603
31.56
31.518
31.474
31.431
31.39
31.354
31.325
31.307
31.303
31.316
31.35
31.407
31.494
31.613
31.769
31.966
32.207
32.496
32.832
33.216
33.648
34.124
34.64
35.189
35.763
36.352
36.947
37.536
38.108
38.653
39.161
39.626
40.039
40.395
40.691
40.927
41.103
41.222
41.287
41.303
41.277
41.214
41.12
40.999
40.858
40.7
40.53
40.352
40.166
39.976
39.782
39.586
39.387
39.187
38.985
38.784
38.584
38.386
38.19
37.997
37.806
37.618
37.434
37.252
37.073
36.895
36.719
36.543
36.369
36.194
36.019
35.844
35.67
35.497
35.326
35.16
34.999
34.844
34.699
34.563
34.438
34.326
34.225
34.137
34.062
33.999
33.949
33.911
33.884
33.867
33.861
33.864
33.876
33.897
33.925
33.96
33.999
34.042
34.087
34.133
34.179
34.223
34.264
34.301
34.334
34.362
34.385
34.403
34.416
34.424
34.426
34.421
34.41
34.394
34.371
34.345
34.314
34.279
34.241
34.199
34.155
34.11
34.063
34.014
33.963
33.909
33.853
33.794
33.734
33.671
33.606
33.54
33.471
33.399
33.325
33.25
33.175
33.099
33.023
32.948
32.873
32.799
32.726
32.655
32.586
32.52
32.457
32.399
32.343
32.291
32.243
32.198
32.155
32.114
32.073
32.034
31.995
31.957
31.919
31.882
31.846
31.812
31.78
31.75
31.721
31.695
31.672
31.655
31.647
31.651
31.672
31.713
31.78
31.877
32.01
32.185
32.405
32.675
32.997
33.372
33.797
34.27
34.785
35.334
35.909
36.5
37.096
37.686
38.257
38.802
39.31
39.775
40.189
40.551
40.856
41.105
41.299
41.44
41.529
41.572
41.57
41.53
41.455
41.35
41.218
41.065
40.894
40.709
40.513
40.309
40.1
39.889
39.677
39.466
39.257
39.051
38.85
38.654
38.464
38.279
38.099
37.925
37.753
37.583
37.412
37.24
37.065
36.888
36.708
36.525
36.341
36.158
35.977
35.799
35.625
35.457
35.295
35.14
34.993
34.853
34.723
34.602
34.492
34.394
34.308
34.235
34.175
34.129
34.097
34.077
34.07
34.075
34.088
34.11
34.137
34.169
34.204
34.239
34.276
34.312
34.347
34.382
34.416
34.447
34.475
34.499
34.518
34.532
34.539
34.539
34.534
34.523
34.507
34.486
34.461
34.432
34.398
34.361
34.32
34.275
34.226
34.173
34.117
34.057
33.995
33.93
33.865
33.798
33.73
33.661
33.591
33.518
33.444
33.367
33.289
33.212
33.134
33.058
32.983
32.91
32.84
32.771
32.703
32.638
32.573
32.508
32.445
32.382
32.32
32.26
32.203
32.148
32.096
32.045
31.996
31.949
31.903
31.86
31.817
31.775
31.734
31.693
31.653
31.616
31.583
31.557
31.541
31.537
31.552
31.589
31.655
31.754
31.891
32.071
32.298
32.576
32.907
33.29
33.725
34.207
34.732
35.291
35.876
36.477
37.084
37.686
38.272
38.833
39.36
39.844
40.279
40.661
40.987
41.253
41.461
41.611
41.707
41.752
41.749
41.706
41.627
41.518
41.384
41.23
41.06
40.879
40.689
40.494
40.295
40.095
39.897
39.7
39.507
39.318
39.132
38.949
38.771
38.595
38.423
38.253
38.085
37.917
37.75
37.583
37.416
37.248
37.08
36.911
36.741
36.572
36.403
36.234
36.068
35.903
35.74
35.581
35.427
35.276
35.132
34.994
34.864
34.743
34.632
34.531
34.442
34.364
34.298
34.244
34.202
34.171
34.15
34.139
34.137
34.142
34.152
34.168
34.188
34.213
34.24
34.269
34.301
34.334
34.366
34.396
34.422
34.444
34.46
34.468
34.467
34.46
34.446
34.427
34.404
34.378
34.35
34.32
34.289
34.254
34.216
34.173
34.126
34.074
34.016
33.955
33.89
33.823
33.754
33.684
33.613
33.541
33.468
33.393
33.318
33.241
33.165
33.091
33.019
32.949
32.882
32.819
32.759
32.703
32.647
32.593
32.539
32.484
32.428
32.373
32.317
32.262
32.208
32.154
32.1
32.046
31.991
31.937
31.885
31.833
31.783
31.735
31.691
31.65
31.614
31.586
31.567
31.561
31.57
31.598
31.65
31.732
31.847
32.001
32.198
32.443
32.741
33.092
33.498
33.955
34.458
35.001
35.576
36.173
36.78
37.388
37.986
38.561
39.105
39.609
40.065
40.467
40.813
41.099
41.325
41.494
41.607
41.67
41.686
41.659
41.594
41.497
41.373
41.228
41.066
40.891
40.707
40.516
40.32
40.122
39.924
39.726
39.532
39.34
39.152
38.967
38.786
38.608
38.433
38.262
38.092
37.924
37.757
37.589
37.42
37.25
37.078
36.904
36.73
36.557
36.384
36.213
36.044
35.878
35.716
35.558
35.405
35.258
35.117
34.984
34.858
34.741
34.635
34.539
34.453
34.376
34.309
34.252
34.203
34.162
34.129
34.105
34.089
34.08
34.078
34.083
34.094
34.111
34.132
34.156
34.183
34.211
34.24
34.269
34.295
34.319
34.339
34.354
34.363
34.366
34.363
34.354
34.34
34.319
34.294
34.263
34.228
34.188
34.144
34.095
34.041
33.982
33.918
33.851
33.78
33.708
33.635
33.562
33.49
33.418
33.346
33.274
33.202
33.13
33.057
32.984
32.912
32.843
32.777
32.714
32.653
32.595
32.538
32.48
32.42
32.358
32.295
32.232
32.169
32.108
32.047
31.989
31.934
31.882
31.831
31.783
31.736
31.692
31.65
31.609
31.57
31.533
31.498
31.464
31.432
31.402
31.376
31.355
31.339
31.333
31.339
31.362
31.406
31.476
31.577
31.715
31.894
32.118
32.39
32.71
33.079
33.497
33.96
34.462
34.999
35.563
36.146
36.739
37.332
37.914
38.476
39.009
39.504
39.954
40.354
40.699
40.986
41.214
41.383
41.493
41.55
41.556
41.518
41.441
41.33
41.19
41.026
40.845
40.65
40.446
40.237
40.026
39.815
39.606
39.4
39.198
38.999
38.803
38.611
38.42
38.232
38.044
37.857
37.67
37.483
37.297
37.111
36.926
36.742
36.558
36.374
36.192
36.013
35.837
35.664
35.496
35.333
35.176
35.025
34.881
34.744
34.617
34.498
34.389
34.289
34.199
34.118
34.048
33.988
33.939
33.898
33.868
33.846
33.835
33.832
33.838
33.853
33.875
33.904
33.937
33.974
34.013
34.055
34.096
34.135
34.171
34.203
34.231
34.253
34.271
34.284
34.292
34.296
34.295
34.287
34.275
34.259
34.237
34.21
34.177
34.139
34.094
34.044
33.989
33.929
33.865
33.798
33.729
33.657
33.583
33.509
33.435
33.361
33.288
33.216
33.145
33.076
33.009
32.944
32.881
32.82
32.759
32.698
32.635
32.573
32.51
32.449
32.39
32.331
32.275
32.22
32.168
32.118
32.072
32.028
31.987
31.948
31.911
31.875
31.84
31.806
31.774
31.744
31.714
31.686
31.659
31.633
31.608
31.583
31.558
31.535
31.513
31.492
31.474
31.458
31.447
31.44
31.439
31.446
31.463
31.495
31.546
31.62
31.722
31.858
32.034
32.252
32.517
32.829
33.189
33.596
34.049
34.542
35.07
35.626
36.204
36.794
37.387
37.972
38.539
39.079
39.583
40.043
40.453
40.81
41.108
41.348
41.529
41.652
41.72
41.736
41.706
41.632
41.521
41.378
41.209
41.02
40.816
40.601
40.38
40.157
39.936
39.717
39.502
39.293
39.089
38.891
38.697
38.505
38.316
38.127
37.938
37.748
37.558
37.365
37.172
36.978
36.784
36.591
36.398
36.208
36.022
35.841
35.665
35.496
35.333
35.178
35.029
34.888
34.753
34.626
34.508
34.399
34.302
34.216
34.142
34.081
34.033
33.997
33.973
33.958
33.954
33.958
33.97
33.988
34.011
34.041
34.075
34.114
34.156
34.2
34.245
34.288
34.329
34.366
34.4
34.43
34.455
34.475
34.489
34.497
34.5
34.497
34.49
34.478
34.462
34.441
34.415
34.383
34.344
34.3
34.25
34.196
34.136
34.072
34.004
33.932
33.859
33.783
33.707
33.632
33.557
33.483
33.41
33.34
33.271
33.204
33.138
33.073
33.008
32.943
32.88
32.817
32.757
32.697
32.64
32.584
32.529
32.476
32.424
32.372
32.322
32.271
32.221
32.172
32.124
32.078
32.034
31.991
31.95
31.91
31.872
31.835
31.799
31.766
31.735
31.706
31.679
31.653
31.63
31.612
31.598
31.592
31.595
31.611
31.645
31.7
31.782
31.896
32.045
32.235
32.47
32.753
33.085
33.467
33.896
34.368
34.879
35.421
35.987
36.568
37.154
37.736
38.305
38.85
39.364
39.839
40.268
40.645
40.969
41.236
41.446
41.6
41.7
41.748
41.75
41.711
41.636
41.53
41.398
41.244
41.074
40.891
40.699
40.501
40.3
40.097
39.894
39.693
39.493
39.295
39.1
38.906
38.715
38.524
38.336
38.148
37.963
37.78
37.598
37.419
37.243
37.069
36.897
36.727
36.558
36.389
36.221
36.052
35.884
35.716
35.55
35.388
35.232
35.082
34.941
34.81
34.69
34.581
34.484
34.398
34.323
34.258
34.202
34.154
34.115
34.086
34.068
34.06
34.062
34.074
34.095
34.121
34.153
34.186
34.221
34.255
34.287
34.317
34.344
34.367
34.387
34.402
34.413
34.418
34.419
34.414
34.405
34.39
34.369
34.343
34.312
34.277
34.236
34.19
34.141
34.089
34.035
33.978
33.92
33.86
33.799
33.736
33.672
33.607
33.54
33.472
33.403
33.332
33.261
33.19
33.12
33.053
32.987
32.924
32.863
32.804
32.747
32.691
32.636
32.582
32.528
32.476
32.423
32.372
32.321
32.271
32.222
32.174
32.126
32.078
32.032
31.987
31.945
31.91
31.882
31.861
31.846
31.834
31.823
31.812
31.798
31.78
31.76
31.736
31.711
31.687
31.664
31.648
31.642
31.65
31.678
31.73
31.813
31.932
32.094
32.303
32.56
32.869
33.23
33.643
34.105
34.611
35.156
35.731
36.327
36.935
37.543
38.141
38.72
39.271
39.785
40.256
40.676
41.041
41.348
41.597
41.786
41.918
41.994
42.02
42.0
41.938
41.839
41.708
41.553
41.38
41.194
40.999
40.799
40.598
40.397
40.197
39.998
39.803
39.61
39.419
39.231
39.045
38.86
38.678
38.497
38.317
38.138
37.961
37.785
37.609
37.434
37.259
37.084
36.91
36.736
36.563
36.39
36.217
36.045
35.874
35.707
35.545
35.389
35.24
35.1
34.969
34.849
34.738
34.637
34.545
34.463
34.39
34.327
34.273
34.23
34.196
34.17
34.152
34.142
34.138
34.14
34.148
34.16
34.177
34.198
34.221
34.246
34.272
34.298
34.325
34.35
34.373
34.393
34.408
34.419
34.424
34.422
34.413
34.398
34.375
34.346
34.309
34.266
34.218
34.165
34.109
34.051
33.99
33.929
33.866
33.803
33.739
33.673
33.607
33.54
33.472
33.405
33.338
33.272
33.207
33.144
33.08
33.016
32.951
32.884
32.817
32.748
32.679
32.61
32.542
32.475
32.411
32.348
32.288
32.229
32.171
32.114
32.058
32.003
31.949
31.897
31.847
31.8
31.758
31.719
31.683
31.649
31.618
31.589
31.563
31.538
31.517
31.499
31.484
31.474
31.469
31.468
31.475
31.492
31.521
31.568
31.635
31.729
31.854
32.016
32.219
32.466
32.76
33.103
33.494
33.931
34.41
34.925
35.472
36.04
36.622
37.206
37.784
38.345
38.88
39.38
39.838
40.249
40.61
40.917
41.168
41.363
41.502
41.589
41.626
41.616
41.564
41.475
41.356
41.211
41.045
40.864
40.671
40.472
40.267
40.061
39.854
39.648
39.443
39.239
39.036
38.835
38.636
38.438
38.243
38.049
37.857
37.666
37.476
37.289
37.103
36.918
36.735
36.554
36.374
36.198
36.024
35.854
35.688
35.526
35.369
35.216
35.068
34.927
34.793
34.666
34.548
34.437
34.336
34.245
34.163
34.092
34.031
33.981
33.94
33.908
33.884
33.868
33.861
33.862
33.872
33.889
33.913
33.942
33.974
34.009
34.045
34.08
34.115
34.147
34.176
34.201
34.221
34.238
34.25
34.256
34.256
34.25
34.239
34.223
34.203
34.179
34.15
34.119
34.084
34.044
34.0
33.953
33.902
33.849
33.794
33.736
33.677
33.618
33.558
33.498
33.436
33.373
33.309
33.243
33.175
33.107
33.04
32.975
32.911
32.85
32.791
32.734
32.678
32.624
32.57
32.517
32.465
32.413
32.363
32.314
32.267
32.223
32.181
32.141
32.103
32.065
32.028
31.991
31.954
31.918
31.883
31.85
31.819
31.791
31.765
31.742
31.721
31.703
31.687
31.674
31.667
31.666
31.674
31.695
31.73
31.784
31.86
31.962
32.095
32.262
32.467
32.714
33.004
33.34
33.72
34.142
34.604
35.1
35.624
36.168
36.726
37.289
37.849
38.397
38.923
39.42
39.881
40.299
40.668
40.984
41.244
41.447
41.595
41.686
41.726
41.716
41.661
41.566
41.437
41.28
41.099
40.9
40.688
40.468
40.243
40.018
39.793
39.572
39.356
39.145
38.939
38.737
38.539
38.344
38.15
37.957
37.762
37.565
37.366
37.164
36.962
36.76
36.559
36.361
36.167
35.977
35.791
35.609
35.434
35.264
35.102
34.946
34.798
34.659
34.53
34.411
34.303
34.206
34.121
34.05
33.99
33.944
33.909
33.885
33.87
33.865
33.866
33.874
33.887
33.905
33.926
33.951
33.978
34.006
34.035
34.065
34.095
34.124
34.154
34.181
34.207
34.23
34.249
34.264
34.275
34.281
34.281
34.276
34.265
34.248
34.225
34.197
34.164
34.127
34.087
34.043
33.997
33.95
33.903
33.855
33.806
33.757
33.706
33.653
33.599
33.542
33.483
33.423
33.36
33.295
33.226
33.156
33.084
33.011
32.938
32.866
32.794
32.725
32.659
32.597
32.539
32.487
32.44
32.398
32.36
32.326
32.295
32.266
32.237
32.208
32.177
32.146
32.115
32.083
32.052
32.021
31.99
31.959
31.928
31.896
31.866
31.839
31.816
31.799
31.789
31.791
31.805
31.835
31.886
31.96
32.063
32.199
32.373
32.587
32.845
33.148
33.498
33.894
34.332
34.81
35.323
35.862
36.422
36.992
37.564
38.128
38.674
39.194
39.68
40.123
40.519
40.864
41.154
41.388
41.565
41.686
41.754
41.771
41.743
41.674
41.57
41.437
41.282
41.108
40.922
40.728
40.528
40.326
40.124
39.923
39.723
39.525
39.329
39.133
38.939
38.744
38.549
38.353
38.157
37.957
37.75
37.535
37.314
37.09
36.868
36.651
36.442
36.242
36.054
35.877
35.71
35.553
35.405
35.266
35.133
35.007
34.887
34.774
34.667
34.566
34.471
34.383
34.301
34.228
34.162
34.104
34.055
34.014
33.982
33.958
33.942
33.934
33.935
33.942
33.956
33.975
33.998
34.025
34.054
34.085
34.115
34.143
34.171
34.195
34.217
34.236
34.252
34.263
34.271
34.274
34.272
34.265
34.252
34.234
34.211
34.181
34.146
34.107
34.062
34.014
33.963
33.91
33.855
33.799
33.742
33.684
33.625
33.566
33.505
33.444
33.382
33.32
33.258
33.199
33.141
33.086
33.031
32.979
32.926
32.874
32.821
32.768
32.714
32.661
32.607
32.554
32.5
32.447
32.395
32.344
32.295
32.248
32.205
32.166
32.13
32.098
32.069
32.045
32.023
32.002
31.982
31.963
31.944
31.927
31.91
31.894
31.883
31.876
31.878
31.89
31.916
31.961
32.028
32.123
32.249
32.413
32.619
32.872
33.172
33.521
33.917
34.358
34.839
35.356
35.9
36.463
37.038
37.615
38.183
38.734
39.258
39.748
40.197
40.601
40.954
41.254
41.5
41.69
41.824
41.905
41.937
41.923
41.869
41.781
41.663
41.522
41.36
41.183
40.995
40.798
40.596
40.391
40.186
39.982
39.779
39.578
39.38
39.184
38.99
38.798
38.606
38.415
38.225
38.036
37.849
37.664
37.481
37.301
37.123
36.948
36.774
36.603
36.435
36.269
36.105
35.943
35.783
35.626
35.472
35.322
35.177
35.04
34.911
34.791
34.682
34.583
34.494
34.415
34.347
34.289
34.241
34.201
34.17
34.147
34.132
34.125
34.126
34.133
34.146
34.163
34.184
34.206
34.23
34.253
34.274
34.292
34.308
34.322
34.331
34.332
34.322
34.302
34.276
34.246
34.213
34.18
34.15
34.122
34.096
34.072
34.049
34.026
34.003
33.979
33.953
33.925
33.894
33.859
33.82
33.775
33.723
33.666
33.604
33.536
33.465
33.392
33.319
33.248
33.178
33.112
33.049
32.988
32.929
32.871
32.813
32.756
32.699
32.643
32.59
32.538
32.488
32.44
32.393
32.347
32.301
32.256
32.211
32.169
32.128
32.09
32.053
32.018
31.985
31.954
31.925
31.899
31.875
31.855
31.839
31.828
31.826
31.833
31.854
31.89
31.945
32.022
32.126
32.261
32.43
32.637
32.885
33.175
33.508
33.883
34.3
34.754
35.242
35.758
36.295
36.843
37.395
37.941
38.473
38.982
39.46
39.901
40.299
40.647
40.943
41.184
41.369
41.499
41.578
41.607
41.591
41.533
41.439
41.313
41.161
40.988
40.799
40.599
40.392
40.181
39.967
39.752
39.537
39.322
39.109
38.898
38.691
38.487
38.288
38.092
37.901
37.712
37.528
37.346
37.167
36.989
36.811
36.635
36.459
36.284
36.11
35.937
35.766
35.599
35.438
35.282
35.135
34.995
34.864
34.741
34.627
34.518
34.416
34.32
