Trial 3:3back
34.962
34.929
34.897
34.867
34.838
34.81
34.782
34.755
34.728
34.702
34.675
34.649
34.624
34.599
34.574
34.549
34.524
34.5
34.476
34.452
34.429
34.406
34.384
34.363
34.343
34.324
34.305
34.288
34.272
34.256
34.241
34.228
34.215
34.203
34.191
34.178
34.166
34.152
34.137
34.121
34.104
34.087
34.069
34.051
34.034
34.018
34.002
33.987
33.972
33.958
33.944
33.932
33.921
33.911
33.904
33.9
33.9
33.906
33.92
33.944
33.979
34.029
34.094
34.175
34.274
34.39
34.523
34.672
34.835
35.012
35.198
35.391
35.589
35.789
35.988
36.182
36.37
36.547
36.712
36.863
36.998
37.116
37.217
37.301
37.368
37.419
37.455
37.478
37.487
37.483
37.467
37.44
37.403
37.357
37.304
37.246
37.182
37.116
37.047
36.978
36.908
36.838
36.769
36.701
36.635
36.572
36.511
36.452
36.397
36.344
36.293
36.245
36.199
36.155
36.114
36.076
36.041
36.007
35.975
35.944
35.913
35.883
35.853
35.824
35.794
35.765
35.737
35.709
35.683
35.658
35.635
35.615
35.597
35.583
35.571
35.563
35.557
35.555
35.555
35.557
35.561
35.566
35.573
35.582
35.591
35.602
35.613
35.625
35.637
35.649
35.66
35.671
35.682
35.692
35.701
35.707
35.711
35.712
35.711
35.707
35.7
35.69
35.678
35.663
35.646
35.626
35.605
35.582
35.557
35.531
35.504
35.475
35.445
35.414
35.383
35.351
35.319
35.288
35.257
35.226
35.196
35.166
35.138
35.11
35.082
35.054
35.026
34.995
34.962
34.928
34.892
34.854
34.816
34.779
34.742
34.705
34.671
34.638
34.606
34.576
34.546
34.518
34.49
34.462
34.435
34.41
34.385
34.362
34.34
34.319
34.301
34.283
34.266
34.249
34.233
34.216
34.198
34.18
34.162
34.143
34.124
34.105
34.086
34.067
34.048
34.03
34.013
33.997
33.982
33.97
33.962
33.959
33.964
33.978
34.004
34.044
34.099
34.172
34.262
34.369
34.494
34.636
34.793
34.962
35.142
35.329
35.519
35.711
35.9
36.085
36.263
36.431
36.588
36.731
36.86
36.973
37.07
37.15
37.214
37.262
37.296
37.316
37.322
37.316
37.299
37.271
37.234
37.187
37.132
37.071
37.004
36.932
36.858
36.783
36.707
36.632
36.558
36.487
36.417
36.35
36.286
36.224
36.165
36.108
36.054
36.002
35.952
35.904
35.858
35.814
35.771
35.729
35.688
35.648
35.609
35.57
35.532
35.494
35.457
35.421
35.386
35.353
35.32
35.29
35.261
35.235
35.212
35.192
35.176
35.163
35.154
35.149
35.149
35.153
35.161
35.172
35.185
35.201
35.219
35.237
35.255
35.273
35.29
35.304
35.316
35.325
35.332
35.335
35.335
35.333
35.327
35.32
35.31
35.298
35.285
35.27
35.254
35.238
35.22
35.201
35.181
35.16
35.137
35.114
35.09
35.065
35.04
35.014
34.987
34.96
34.933
34.906
34.877
34.849
34.819
34.788
34.756
34.723
34.69
34.656
34.622
34.588
34.554
34.521
34.49
34.459
34.43
34.401
34.374
34.349
34.324
34.3
34.277
34.255
34.233
34.212
34.191
34.17
34.15
34.13
34.11
34.09
34.07
34.051
34.033
34.015
33.997
33.98
33.963
33.947
33.932
33.918
33.905
33.892
33.881
33.869
33.858
33.847
33.836
33.825
33.814
33.803
33.793
33.784
33.776
33.771
33.77
33.774
33.788
33.813
33.852
33.908
33.981
34.074
34.185
34.316
34.465
34.631
34.813
35.008
35.214
35.426
35.643
35.861
36.075
36.283
36.481
36.666
36.837
36.992
37.13
37.25
37.351
37.433
37.497
37.543
37.572
37.585
37.585
37.572
37.549
37.516
37.477
37.432
37.382
37.328
37.272
37.213
37.152
37.09
37.028
36.967
36.905
36.845
36.786
36.729
36.672
36.617
36.563
36.511
36.46
36.412
36.366
36.322
36.281
36.241
36.204
36.168
36.135
36.102
36.07
36.039
36.006
35.973
35.94
35.905
35.871
35.837
35.804
35.771
35.74
35.711
35.683
35.659
35.638
35.62
35.606
35.594
35.586
35.581
35.579
35.58
35.584
35.59
35.6
35.611
35.623
35.635
35.646
35.657
35.666
35.674
35.68
35.685
35.689
35.691
35.692
35.691
35.689
35.685
35.68
35.672
35.662
35.649
35.635
35.618
35.598
35.576
35.552
35.525
35.497
35.466
35.434
35.4
35.365
35.329
35.294
35.258
35.222
35.187
35.153
35.12
35.088
35.057
35.027
34.998
34.969
34.94
34.912
34.884
34.856
34.829
34.802
34.774
34.747
34.72
34.692
34.665
34.637
34.61
34.583
34.556
34.528
34.501
34.474
34.448
34.422
34.397
34.373
34.35
34.328
34.307
34.288
34.269
34.251
34.233
34.215
34.196
34.177
34.158
34.14
34.122
34.105
34.089
34.073
34.059
34.046
34.035
34.025
34.018
34.015
34.017
34.027
34.045
34.075
34.118
34.176
34.252
34.346
34.459
34.591
34.741
34.908
35.09
35.284
35.487
35.697
35.91
36.123
36.334
36.539
36.736
36.923
37.097
37.257
37.401
37.529
37.639
37.733
37.81
37.869
37.911
37.937
37.948
37.945
37.931
37.906
37.872
37.83
37.782
37.728
37.67
37.608
37.544
37.478
37.413
37.348
37.284
37.221
37.16
37.101
37.044
36.988
36.935
36.884
36.836
36.79
36.746
36.705
36.666
36.629
36.592
36.555
36.517
36.48
36.441
36.402
36.363
36.323
36.283
36.243
36.203
36.163
36.123
36.085
36.048
36.015
35.985
35.959
35.938
35.921
35.91
35.903
35.901
35.903
35.907
35.914
35.923
35.934
35.946
35.959
35.973
35.987
36.001
36.015
36.029
36.04
36.05
36.057
36.061
36.062
36.06
36.055
36.047
36.037
36.024
36.008
35.99
35.97
35.947
35.921
35.893
35.863
35.831
35.798
35.764
35.729
35.694
35.658
35.623
35.588
35.553
35.517
35.481
35.445
35.407
35.369
35.331
35.293
35.254
35.215
35.175
35.135
35.095
35.056
35.016
34.978
34.94
34.903
34.869
34.835
34.804
34.774
34.747
34.72
34.696
34.673
34.653
34.635
34.618
34.603
34.589
34.575
34.56
34.544
34.528
34.512
34.495
34.479
34.463
34.449
34.435
34.423
34.412
34.401
34.39
34.379
34.368
34.354
34.34
34.324
34.306
34.288
34.271
34.254
34.238
34.225
34.216
34.212
34.214
34.225
34.248
34.285
34.338
34.41
34.501
34.613
34.745
34.896
35.065
35.251
35.45
35.66
35.878
36.1
36.322
36.541
36.755
36.959
37.153
37.333
37.498
37.646
37.777
37.891
37.985
38.062
38.121
38.164
38.19
38.201
38.198
38.182
38.155
38.118
38.072
38.019
37.96
37.897
37.83
37.761
37.691
37.62
37.549
37.48
37.412
37.347
37.284
37.223
37.165
37.109
37.056
37.006
36.957
36.909
36.862
36.815
36.768
36.722
36.676
36.631
36.587
36.543
36.499
36.456
36.414
36.372
36.332
36.294
36.257
36.221
36.188
36.157
36.128
36.102
36.081
36.063
36.049
36.04
36.035
36.035
36.039
36.046
36.056
36.068
36.081
36.096
36.111
36.125
36.139
36.153
36.165
36.176
36.186
36.195
36.202
36.207
36.21
36.212
36.211
36.208
36.203
36.196
36.188
36.177
36.164
36.148
36.129
36.108
36.083
36.057
36.028
35.997
35.963
35.928
35.89
35.85
35.808
35.764
35.718
35.672
35.626
35.58
35.535
35.491
35.449
35.407
35.367
35.329
35.294
35.26
35.229
35.198
35.169
35.139
35.11
35.081
35.051
35.021
34.992
34.962
34.934
34.905
34.878
34.851
34.824
34.798
34.773
34.748
34.724
34.7
34.676
34.651
34.626
34.599
34.573
34.545
34.518
34.492
34.466
34.443
34.421
34.402
34.384
34.37
34.359
34.353
34.351
34.357
34.372
34.398
34.437
34.492
34.564
34.654
34.764
34.893
35.04
35.203
35.381
35.571
35.771
35.978
36.188
36.399
36.606
36.809
37.003
37.187
37.358
37.516
37.658
37.783
37.89
37.98
38.051
38.104
38.14
38.159
38.163
38.153
38.132
38.099
38.058
38.01
37.955
37.896
37.832
37.765
37.697
37.628
37.559
37.49
37.421
37.352
37.284
37.216
37.149
37.083
37.018
36.954
36.891
36.83
36.77
36.712
36.655
36.598
36.542
36.487
36.431
36.376
36.322
36.268
36.215
36.163
36.114
36.066
36.021
35.979
35.941
35.906
35.875
35.848
35.827
35.81
35.799
35.793
35.792
35.795
35.803
35.813
35.827
35.841
35.857
35.871
35.885
35.898
35.909
35.919
35.927
35.935
35.941
35.946
35.949
35.95
35.948
35.945
35.939
35.931
35.921
35.907
35.891
35.872
35.85
35.826
35.799
35.771
35.741
35.71
35.677
35.642
35.606
35.568
35.528
35.487
35.445
35.402
35.359
35.317
35.276
35.237
35.199
35.163
35.127
35.093
35.059
35.026
34.993
34.96
34.927
34.895
34.863
34.831
34.799
34.768
34.737
34.707
34.676
34.647
34.619
34.592
34.566
34.542
34.518
34.494
34.471
34.448
34.425
34.402
34.379
34.355
34.331
34.307
34.283
34.259
34.235
34.211
34.186
34.163
34.14
34.118
34.099
34.085
34.077
34.078
34.088
34.112
34.151
34.207
34.283
34.379
34.496
34.636
34.796
34.976
35.174
35.388
35.615
35.853
36.097
36.344
36.589
36.831
37.064
37.286
37.496
37.691
37.87
38.031
38.175
38.299
38.404
38.491
38.559
38.61
38.645
38.665
38.671
38.665
38.647
38.619
38.58
38.533
38.479
38.418
38.352
38.284
38.213
38.141
38.069
37.999
37.929
37.861
37.796
37.733
37.672
37.613
37.556
37.502
37.449
37.399
37.352
37.306
37.263
37.221
37.18
37.14
37.099
37.057
37.015
36.973
36.931
36.889
36.847
36.807
36.766
36.727
36.687
36.648
36.61
36.572
36.536
36.503
36.473
36.447
36.426
36.408
36.395
36.386
36.381
36.38
36.381
36.385
36.39
36.397
36.404
36.411
36.417
36.422
36.425
36.426
36.425
36.421
36.416
36.407
36.397
36.384
36.37
36.354
36.337
36.319
36.299
36.277
36.253
36.227
36.198
36.167
36.132
36.094
36.055
36.013
35.969
35.923
35.877
35.83
35.783
35.736
35.689
35.643
35.598
35.552
35.507
35.462
35.417
35.373
35.33
35.288
35.247
35.208
35.169
35.132
35.095
35.06
35.025
34.99
34.957
34.923
34.891
34.859
34.827
34.795
34.764
34.734
34.704
34.674
34.645
34.616
34.588
34.561
34.535
34.509
34.482
34.455
34.428
34.401
34.374
34.347
34.321
34.297
34.275
34.256
34.243
34.237
34.24
34.255
34.283
34.328
34.392
34.476
34.582
34.71
34.86
35.03
35.219
35.425
35.645
35.876
36.115
36.359
36.604
36.847
37.083
37.311
37.526
37.727
37.911
38.078
38.226
38.355
38.463
38.553
38.624
38.676
38.712
38.732
38.738
38.73
38.711
38.681
38.641
38.593
38.538
38.477
38.412
38.342
38.271
38.198
38.125
38.052
37.98
37.909
37.84
37.774
37.71
37.648
37.587
37.529
37.472
37.416
37.362
37.309
37.257
37.206
37.155
37.105
37.054
37.003
36.953
36.902
36.851
36.8
36.749
36.698
36.647
36.598
36.55
36.505
36.463
36.425
36.391
36.363
36.339
36.32
36.306
36.297
36.292
36.29
36.292
36.296
36.302
36.309
36.317
36.325
36.332
36.337
36.341
36.341
36.339
36.335
36.327
36.317
36.304
36.29
36.274
36.257
36.239
36.22
36.199
36.175
36.15
36.121
36.09
36.055
36.017
35.975
35.931
35.884
35.836
35.787
35.739
35.691
35.644
35.598
35.553
35.51
35.467
35.425
35.383
35.34
35.297
35.253
35.209
35.165
35.12
35.075
35.03
34.985
34.941
34.896
34.852
34.808
34.764
34.721
34.678
34.637
34.597
34.559
34.523
34.489
34.458
34.429
34.403
34.379
34.357
34.336
34.316
34.297
34.277
34.256
34.235
34.212
34.188
34.163
34.136
34.108
34.079
34.05
34.021
33.994
33.968
33.946
33.927
33.913
33.906
33.909
33.922
33.95
33.993
34.054
34.135
34.239
34.365
34.513
34.683
34.873
35.079
35.3
35.531
35.771
36.014
36.258
36.498
36.731
36.955
37.165
37.36
37.537
37.695
37.832
37.95
38.046
38.123
38.18
38.219
38.242
38.25
38.244
38.226
38.196
38.157
38.109
38.053
37.99
37.922
37.85
37.774
37.697
37.62
37.542
37.466
37.391
37.317
37.246
37.177
37.11
37.046
36.983
36.923
36.865
36.809
36.754
36.701
36.649
36.599
36.549
36.501
36.453
36.405
36.357
36.308
36.259
36.21
36.162
36.115
36.068
36.024
35.981
35.941
35.904
35.871
35.843
35.82
35.803
35.79
35.783
35.781
35.782
35.787
35.795
35.804
35.815
35.826
35.836
35.846
35.855
35.862
35.868
35.873
35.876
35.877
35.877
35.874
35.871
35.865
35.858
35.848
35.836
35.821
35.803
35.782
35.758
35.731
35.702
35.67
35.636
35.6
35.564
35.526
35.487
35.448
35.408
35.368
35.327
35.285
35.243
35.201
35.158
35.116
35.073
35.031
34.99
34.95
34.911
34.873
34.836
34.8
34.765
34.731
34.697
34.665
34.633
34.603
34.573
34.545
34.517
34.49
34.463
34.437
34.41
34.383
34.355
34.327
34.298
34.268
34.239
34.209
34.18
34.152
34.126
34.1
34.076
34.053
34.029
34.006
33.982
33.958
33.932
33.906
33.88
33.854
33.83
33.81
33.796
33.79
33.795
33.813
33.845
33.895
33.963
34.05
34.157
34.283
34.428
34.59
34.768
34.96
35.162
35.372
35.586
35.802
36.014
36.221
36.418
36.604
36.775
36.929
37.066
37.183
37.28
37.356
37.413
37.45
37.469
37.47
37.456
37.428
37.388
37.338
37.28
37.215
37.145
37.07
36.993
36.913
36.832
36.751
36.671
36.592
36.513
36.435
36.359
36.284
36.212
36.141
36.073
36.008
35.946
35.887
35.83
35.776
35.724
35.673
35.623
35.574
35.526
35.477
35.429
35.381
35.332
35.284
35.237
35.19
35.146
35.104
35.066
35.032
35.002
34.976
34.956
34.942
34.932
34.928
34.927
34.931
34.938
34.948
34.959
34.972
34.985
34.997
35.007
35.017
35.026
35.033
35.038
35.041
35.043
35.044
35.042
35.038
35.031
35.022
35.01
34.995
34.977
34.956
34.932
34.906
34.878
34.847
34.814
34.78
34.744
34.707
34.669
34.63
34.591
34.551
34.511
34.471
34.431
34.392
34.353
34.315
34.277
34.239
34.202
34.166
34.129
34.094
34.058
34.022
33.987
33.952
33.918
33.885
33.852
33.821
33.79
33.761
33.732
33.704
33.677
33.651
33.626
33.601
33.577
33.554
33.531
33.508
33.485
33.463
33.44
33.417
33.395
33.372
33.351
33.329
33.309
33.289
33.269
33.251
33.233
33.216
33.2
33.184
33.169
33.155
33.144
33.136
33.133
33.138
33.151
33.176
33.215
33.27
33.342
33.433
33.544
33.674
33.824
33.992
34.177
34.377
34.587
34.806
35.03
35.255
35.478
35.695
35.904
36.101
36.284
36.451
36.602
36.734
36.848
36.944
37.022
37.082
37.124
37.151
37.163
37.162
37.149
37.125
37.093
37.053
37.007
36.956
36.901
36.843
36.782
36.719
36.656
36.591
36.527
36.464
36.402
36.343
36.286
36.232
36.181
36.133
36.089
36.047
36.008
35.97
35.934
35.899
35.863
35.827
35.791
35.754
35.716
35.676
35.635
35.593
35.55
35.507
35.464
35.422
35.381
35.341
35.303
35.267
35.235
35.206
35.181
35.159
35.141
35.127
35.116
35.108
35.103
35.101
35.101
35.104
35.108
35.115
35.122
35.131
35.14
35.149
35.158
35.165
35.171
35.175
35.175
35.171
35.165
35.154
35.141
35.123
35.103
35.08
35.054
35.027
34.998
34.969
34.938
34.908
34.877
34.847
34.815
34.784
34.751
34.717
34.683
34.648
34.612
34.576
34.54
34.504
34.467
34.429
34.391
34.354
34.316
34.279
34.243
34.207
34.173
34.139
34.107
34.075
34.044
34.014
33.984
33.954
33.925
33.896
33.868
33.84
33.813
33.786
33.759
33.733
33.708
33.682
33.657
33.632
33.607
33.582
33.558
33.534
33.51
33.486
33.463
33.44
33.418
33.396
33.374
33.353
33.331
33.309
33.288
33.267
33.249
33.233
33.221
33.216
33.218
33.231
33.256
33.295
33.351
33.426
33.52
33.635
33.768
33.92
34.089
34.272
34.467
34.671
34.88
35.092
35.303
35.51
35.71
35.901
36.081
36.247
36.399
36.534
36.653
36.754
36.837
36.903
36.952
36.985
37.002
37.006
36.997
36.977
36.948
36.911
36.868
36.818
36.763
36.705
36.645
36.583
36.522
36.461
36.402
36.345
36.29
36.238
36.188
36.14
36.094
36.051
36.01
35.971
35.933
35.896
35.86
35.825
35.79
35.755
35.721
35.687
35.653
35.619
35.585
35.55
35.515
35.48
35.445
35.41
35.375
35.341
35.307
35.275
35.245
35.216
35.188
35.163
35.139
35.117
35.099
35.084
35.072
35.064
35.06
35.06
35.065
35.073
35.084
35.097
35.111
35.126
35.139
35.151
35.159
35.164
35.166
35.165
35.16
35.153
35.142
35.129
35.113
35.094
35.072
35.048
35.022
34.993
34.962
34.929
34.894
34.856
34.817
34.777
34.737
34.696
34.656
34.617
34.58
34.545
34.511
34.48
34.449
34.419
34.39
34.361
34.333
34.305
34.276
34.248
34.219
34.19
34.16
34.131
34.101
34.071
34.04
34.01
33.981
33.951
33.923
33.895
33.868
33.842
33.817
33.793
33.77
33.747
33.724
33.702
33.679
33.657
33.635
33.613
33.592
33.571
33.55
33.53
33.51
33.49
33.47
33.451
33.431
33.411
33.391
33.371
33.351
33.331
33.313
33.296
33.281
33.271
33.265
33.266
33.276
33.295
33.327
33.373
33.434
33.512
33.608
33.722
33.854
34.002
34.167
34.345
34.536
34.735
34.942
35.151
35.359
35.564
35.762
35.949
36.123
36.282
36.425
36.549
36.656
36.744
36.815
36.87
36.909
36.933
36.945
36.944
36.932
36.91
36.879
36.841
36.797
36.746
36.692
36.634
36.573
36.51
36.445
36.379
36.313
36.247
36.182
36.118
36.056
35.997
35.941
35.887
35.837
35.789
35.743
35.699
35.658
35.618
35.579
35.541
35.502
35.465
35.427
35.39
35.353
35.316
35.279
35.243
35.208
35.174
35.142
35.111
35.083
35.058
35.035
35.016
35.001
34.989
34.98
34.975
34.974
34.977
34.982
34.99
35.001
35.014
35.028
35.043
35.058
35.072
35.086
35.097
35.107
35.114
35.119
35.121
35.121
35.117
35.11
35.1
35.088
35.072
35.055
35.035
35.013
34.989
34.964
34.938
34.912
34.885
34.858
34.832
34.805
34.78
34.753
34.727
34.7
34.672
34.643
34.613
34.582
34.551
34.519
34.487
34.454
34.422
34.389
34.356
34.324
34.291
34.259
34.228
34.196
34.165
34.133
34.1
34.067
34.034
34.001
33.968
33.936
33.906
33.876
33.848
33.821
33.796
33.772
33.749
33.727
33.707
33.687
33.667
33.648
33.629
33.61
33.591
33.571
33.552
33.532
33.512
33.492
33.473
33.454
33.436
33.419
33.403
33.39
33.38
33.373
33.371
33.376
33.389
33.412
33.448
33.497
33.563
33.645
33.745
33.862
33.996
34.147
34.311
34.489
34.676
34.869
35.067
35.264
35.458
35.648
35.829
36.001
36.162
36.309
36.442
36.559
36.661
36.746
36.814
36.867
36.904
36.925
36.933
36.928
36.912
36.886
36.85
36.806
36.756
36.7
36.639
36.575
36.508
36.441
36.373
36.305
36.239
36.174
36.111
36.05
35.993
35.939
35.887
35.836
35.788
35.74
35.692
35.643
35.594
35.544
35.494
35.442
35.391
35.34
35.289
35.24
35.191
35.144
35.099
35.055
35.015
34.977
34.943
34.913
34.887
34.864
34.845
34.83
34.82
34.813
34.81
34.81
34.813
34.819
34.828
34.84
34.853
34.869
34.885
34.902
34.919
34.936
34.953
34.969
34.983
34.996
35.008
35.017
35.023
35.026
35.026
35.023
35.016
35.006
34.992
34.974
34.953
34.931
34.906
34.879
34.852
34.823
34.794
34.765
34.735
34.705
34.675
34.645
34.615
34.583
34.551
34.516
34.481
34.445
34.408
34.371
34.334
34.296
34.258
34.221
34.184
34.149
34.114
34.079
34.046
34.015
33.985
33.955
33.927
33.898
33.871
33.843
33.815
33.788
33.76
33.733
33.706
33.679
33.652
33.626
33.6
33.574
33.549
33.525
33.502
33.481
33.462
33.445
33.43
33.416
33.405
33.395
33.386
33.379
33.371
33.363
33.355
33.346
33.337
33.327
33.317
33.306
33.295
33.283
33.273
33.265
33.261
33.262
33.271
33.289
33.321
33.367
33.43
33.511
33.612
33.734
33.875
34.036
34.213
34.406
34.611
34.825
35.046
35.269
35.493
35.712
35.925
36.128
36.32
36.499
36.662
36.81
36.941
37.055
37.152
37.232
37.296
37.345
37.38
37.402
37.411
37.411
37.401
37.382
37.357
37.325
37.287
37.244
37.196
37.145
37.091
37.034
36.976
36.918
36.86
36.803
36.747
36.691
36.637
36.584
36.532
36.481
36.431
36.381
36.333
36.287
36.243
36.202
36.164
36.129
36.096
36.064
36.033
36.001
35.969
35.936
35.902
35.867
35.832
35.797
35.763
35.73
35.697
35.667
35.639
35.614
35.594
35.577
35.563
35.553
35.546
35.54
35.536
35.533
35.532
35.531
35.532
35.535
35.539
35.545
35.551
35.559
35.567
35.575
35.581
