Trial 3:3back
35.088
35.08
35.074
35.07
35.067
35.066
35.065
35.065
35.066
35.066
35.066
35.067
35.067
35.067
35.066
35.065
35.063
35.061
35.059
35.056
35.054
35.053
35.052
35.052
35.053
35.053
35.054
35.054
35.055
35.054
35.053
35.052
35.049
35.046
35.041
35.037
35.031
35.025
35.019
35.013
35.007
35.002
34.996
34.991
34.987
34.983
34.98
34.977
34.974
34.971
34.967
34.963
34.959
34.953
34.948
34.941
34.934
34.927
34.92
34.914
34.908
34.903
34.899
34.897
34.897
34.9
34.907
34.92
34.94
34.97
35.009
35.06
35.122
35.195
35.28
35.376
35.48
35.592
35.708
35.826
35.944
36.057
36.166
36.266
36.358
36.438
36.507
36.561
36.602
36.629
36.642
36.642
36.631
36.609
36.579
36.542
36.498
36.451
36.399
36.345
36.29
36.234
36.179
36.125
36.074
36.025
35.98
35.938
35.899
35.864
35.832
35.804
35.778
35.756
35.735
35.717
35.7
35.685
35.669
35.653
35.637
35.619
35.601
35.582
35.562
35.543
35.524
35.506
35.489
35.473
35.458
35.445
35.433
35.425
35.419
35.416
35.416
35.418
35.423
35.431
35.442
35.456
35.472
35.492
35.513
35.537
35.563
35.589
35.615
35.641
35.665
35.687
35.707
35.724
35.738
35.749
35.758
35.762
35.762
35.759
35.752
35.741
35.727
35.711
35.692
35.673
35.651
35.629
35.605
35.581
35.557
35.532
35.507
35.482
35.456
35.43
35.403
35.377
35.352
35.329
35.306
35.285
35.266
35.248
35.233
35.219
35.206
35.195
35.185
35.176
35.169
35.163
35.156
35.151
35.145
35.14
35.134
35.129
35.124
35.118
35.112
35.107
35.103
35.099
35.097
35.094
35.093
35.092
35.092
35.094
35.095
35.097
35.098
35.099
35.099
35.098
35.096
35.094
35.091
35.088
35.083
35.078
35.073
35.066
35.06
35.054
35.048
35.043
35.039
35.036
35.033
35.032
35.031
35.031
35.032
35.033
35.033
35.033
35.032
35.029
35.024
35.018
35.01
35.001
34.991
34.98
34.97
34.959
34.949
34.939
34.931
34.923
34.917
34.912
34.91
34.91
34.913
34.92
34.931
34.947
34.97
34.999
35.037
35.085
35.142
35.211
35.29
35.379
35.476
35.58
35.69
35.803
35.916
36.028
36.137
36.238
36.331
36.413
36.483
36.539
36.582
36.61
36.625
36.626
36.616
36.595
36.565
36.528
36.485
36.438
36.389
36.339
36.289
36.241
36.194
36.15
36.109
36.07
36.033
35.999
35.967
35.937
35.909
35.884
35.861
35.841
35.823
35.807
35.792
35.778
35.766
35.754
35.744
35.734
35.724
35.714
35.702
35.688
35.673
35.655
35.637
35.618
35.599
35.582
35.565
35.55
35.537
35.527
35.519
35.514
35.513
35.515
35.519
35.527
35.537
35.549
35.564
35.579
35.596
35.613
35.631
35.648
35.666
35.683
35.7
35.715
35.729
35.74
35.749
35.755
35.757
35.755
35.749
35.741
35.731
35.718
35.703
35.686
35.666
35.645
35.622
35.597
35.572
35.546
35.52
35.494
35.469
35.445
35.423
35.403
35.384
35.367
35.351
35.335
35.319
35.304
35.289
35.275
35.262
35.249
35.238
35.227
35.217
35.208
35.199
35.192
35.186
35.181
35.179
35.177
35.177
35.177
35.178
35.178
35.178
35.178
35.176
35.174
35.17
35.165
35.159
35.151
35.143
35.135
35.127
35.119
35.112
35.107
35.103
35.099
35.097
35.095
35.093
35.091
35.09
35.089
35.089
35.09
35.092
35.094
35.095
35.096
35.096
35.095
35.095
35.094
35.093
35.092
35.09
35.087
35.083
35.079
35.073
35.066
35.058
35.049
35.041
35.032
35.025
35.018
35.011
35.004
34.998
34.991
34.985
34.979
34.973
34.967
34.963
34.958
34.955
34.953
34.953
34.956
34.963
34.976
34.996
35.025
35.064
35.114
35.175
35.247
35.33
35.423
35.524
35.633
35.747
35.863
35.978
36.091
36.197
36.296
36.385
36.463
36.529
36.581
36.621
36.648
36.663
36.665
36.657
36.639
36.611
36.577
36.537
36.494
36.448
36.401
36.354
36.306
36.26
36.215
36.172
36.131
36.093
36.058
36.026
35.998
35.973
35.951
35.932
35.915
35.9
35.887
35.873
35.86
35.846
35.832
35.817
35.801
35.785
35.768
35.751
35.732
35.714
35.695
35.676
35.657
35.64
35.623
35.607
35.593
35.58
35.569
35.56
35.552
35.548
35.546
35.547
35.552
35.56
35.571
35.585
35.601
35.619
35.637
35.656
35.674
35.691
35.706
35.72
35.731
35.738
35.743
35.744
35.742
35.738
35.73
35.721
35.709
35.695
35.679
35.661
35.641
35.619
35.596
35.573
35.55
35.526
35.503
35.48
35.458
35.436
35.416
35.396
35.378
35.36
35.344
35.328
35.313
35.299
35.285
35.272
35.259
35.248
35.237
35.227
35.218
35.21
35.203
35.196
35.19
35.183
35.177
35.169
35.161
35.153
35.145
35.136
35.128
35.119
35.111
35.104
35.097
35.092
35.088
35.085
35.084
35.083
35.082
35.082
35.082
35.083
35.085
35.086
35.088
35.09
35.092
35.093
35.092
35.091
35.088
35.084
35.079
35.073
35.067
35.06
35.053
35.045
35.038
35.031
35.025
35.019
35.015
35.011
35.008
35.005
35.003
35.0
34.997
34.993
34.988
34.984
34.979
34.974
34.969
34.963
34.957
34.95
34.942
34.934
34.925
34.915
34.906
34.897
34.889
34.882
34.876
34.871
34.868
34.867
34.869
34.874
34.883
34.898
34.919
34.949
34.988
35.038
35.099
35.172
35.255
35.348
35.451
35.56
35.673
35.79
35.906
36.019
36.128
36.229
36.321
36.402
36.47
36.526
36.566
36.593
36.606
36.606
36.594
36.571
36.54
36.502
36.457
36.408
36.356
36.303
36.25
36.199
36.149
36.102
36.058
36.017
35.98
35.947
35.917
35.891
35.869
35.85
35.834
35.82
35.808
35.798
35.788
35.78
35.772
35.764
35.756
35.747
35.736
35.724
35.71
35.694
35.675
35.655
35.634
35.613
35.592
35.571
35.551
35.532
35.514
35.498
35.484
35.473
35.466
35.462
35.462
35.466
35.474
35.486
35.5
35.516
35.534
35.553
35.572
35.591
35.61
35.627
35.642
35.654
35.664
35.671
35.676
35.678
35.677
35.673
35.667
35.659
35.647
35.633
35.616
35.598
35.579
35.558
35.536
35.513
35.49
35.465
35.441
35.416
35.39
35.364
35.339
35.314
35.29
35.268
35.248
35.23
35.215
35.203
35.192
35.183
35.175
35.167
35.159
35.152
35.145
35.138
35.132
35.126
35.122
35.117
35.113
35.109
35.104
35.099
35.094
35.088
35.082
35.076
35.069
35.062
35.054
35.047
35.041
35.035
35.03
35.027
35.023
35.02
35.017
35.014
35.011
35.008
35.006
35.003
35.001
34.998
34.996
34.993
34.99
34.987
34.984
34.981
34.978
34.975
34.973
34.97
34.968
34.965
34.962
34.958
34.953
34.948
34.942
34.935
34.929
34.922
34.915
34.909
34.902
34.896
34.891
34.886
34.881
34.877
34.873
34.87
34.867
34.864
34.863
34.861
34.86
34.859
34.858
34.857
34.854
34.852
34.848
34.843
34.838
34.831
34.823
34.813
34.803
34.792
34.781
34.771
34.762
34.755
34.75
34.747
34.747
34.751
34.761
34.776
34.799
34.83
34.87
34.92
34.98
35.051
35.133
35.224
35.325
35.433
35.545
35.661
35.778
35.893
36.003
36.107
36.203
36.288
36.361
36.42
36.466
36.498
36.515
36.52
36.512
36.493
36.464
36.429
36.387
36.341
36.292
36.241
36.19
36.139
36.089
36.04
35.993
35.949
35.907
35.868
35.832
35.8
35.77
35.744
35.72
35.699
35.681
35.664
35.649
35.635
35.623
35.611
35.599
35.587
35.575
35.562
35.549
35.535
35.521
35.507
35.493
35.478
35.464
35.45
35.437
35.424
35.413
35.403
35.395
35.39
35.388
35.389
35.394
35.401
35.411
35.424
35.439
35.456
35.475
35.495
35.515
35.535
35.554
35.571
35.586
35.6
35.611
35.619
35.625
35.627
35.625
35.619
35.61
35.598
35.583
35.565
35.545
35.523
35.5
35.476
35.452
35.427
35.402
35.377
35.352
35.326
35.3
35.273
35.247
35.22
35.194
35.169
35.145
35.122
35.102
35.085
35.069
35.056
35.044
35.035
35.026
35.019
35.013
35.009
35.006
35.003
35.002
35.0
34.999
34.997
34.995
34.991
34.987
34.983
34.977
34.972
34.967
34.963
34.96
34.958
34.958
34.958
34.958
34.958
34.958
34.958
34.958
34.957
34.956
34.954
34.952
34.949
34.944
34.939
34.933
34.928
34.924
34.92
34.916
34.913
34.91
34.909
34.908
34.907
34.906
34.906
34.906
34.905
34.903
34.901
34.898
34.894
34.888
34.882
34.876
34.87
34.863
34.857
34.851
34.844
34.837
34.83
34.822
34.814
34.806
34.798
34.79
34.783
34.777
34.771
34.767
34.762
34.758
34.754
34.75
34.745
34.739
34.733
34.726
34.719
34.713
34.707
34.703
34.701
34.701
34.705
34.714
34.729
34.752
34.785
34.829
34.884
34.951
35.03
35.12
35.221
35.33
35.445
35.564
35.685
35.804
35.919
36.028
36.128
36.217
36.293
36.357
36.407
36.443
36.466
36.476
36.474
36.462
36.44
36.41
36.373
36.33
36.283
36.232
36.18
36.127
36.074
36.022
35.972
35.925
35.882
35.844
35.81
35.782
35.759
35.74
35.724
35.711
35.7
35.692
35.684
35.677
35.67
35.661
35.652
35.641
35.628
35.613
35.595
35.575
35.552
35.526
35.499
35.471
35.444
35.417
35.393
35.372
35.354
35.338
35.326
35.317
35.312
35.31
35.311
35.316
35.324
35.335
35.348
35.363
35.378
35.394
35.41
35.426
35.442
35.457
35.471
35.484
35.495
35.504
35.511
35.515
35.516
35.515
35.511
35.505
35.496
35.485
35.471
35.455
35.437
35.417
35.397
35.376
35.355
35.334
35.314
35.294
35.274
35.255
35.236
35.217
35.199
35.181
35.164
35.148
35.133
35.118
35.104
35.09
35.076
35.063
35.05
35.038
35.026
35.016
35.008
35.001
34.996
34.993
34.991
34.99
34.99
34.99
34.991
34.991
34.99
34.989
34.988
34.986
34.983
34.98
34.976
34.971
34.967
34.962
34.958
34.953
34.95
34.946
34.944
34.943
34.942
34.943
34.943
34.944
34.946
34.948
34.95
34.952
34.954
34.955
34.956
34.954
34.952
34.948
34.942
34.936
34.928
34.92
34.912
34.904
34.897
34.891
34.886
34.882
34.88
34.878
34.877
34.878
34.878
34.879
34.879
34.879
34.877
34.874
34.87
34.864
34.858
34.85
34.842
34.832
34.822
34.811
34.799
34.788
34.776
34.766
34.757
34.75
34.744
34.74
34.737
34.735
34.735
34.736
34.737
34.738
34.741
34.745
34.751
34.761
34.775
34.796
34.825
34.862
34.911
34.97
35.042
35.126
35.221
35.326
35.439
35.558
35.681
35.804
35.925
36.04
36.148
36.245
36.33
36.402
36.459
36.502
36.53
36.546
36.549
36.539
36.52
36.491
36.454
36.411
36.363
36.313
36.261
36.209
36.158
36.108
36.061
36.018
35.979
35.943
35.913
35.886
35.862
35.841
35.823
35.807
35.793
35.78
35.767
35.756
35.744
35.733
35.72
35.708
35.694
35.68
35.665
35.648
35.631
35.613
35.594
35.574
35.555
35.536
35.517
35.499
35.482
35.467
35.455
35.446
35.44
35.437
35.437
35.44
35.445
35.452
35.461
35.472
35.484
35.496
35.508
35.52
35.531
35.542
35.552
35.561
35.569
35.576
35.582
35.585
35.586
35.585
35.582
35.578
35.571
35.563
35.552
35.54
35.526
35.511
35.495
35.479
35.461
35.443
35.423
35.403
35.382
35.359
35.336
35.313
35.289
35.265
35.242
35.221
35.201
35.183
35.167
35.152
35.139
35.127
35.116
35.106
35.098
35.09
35.083
35.076
35.069
35.062
35.053
35.045
35.037
35.03
35.024
35.019
35.015
35.012
35.009
35.008
35.008
35.008
35.009
35.011
35.013
35.015
35.016
35.017
35.016
35.014
35.011
35.006
35.0
34.994
34.987
34.981
34.976
34.972
34.97
34.968
34.968
34.968
34.97
34.972
34.974
34.976
34.979
34.98
34.982
34.982
34.981
34.979
34.975
34.97
34.962
34.953
34.942
34.931
34.919
34.908
34.898
34.888
34.879
34.872
34.865
34.859
34.854
34.85
34.846
34.843
34.839
34.834
34.829
34.824
34.818
34.811
34.804
34.797
34.79
34.782
34.776
34.77
34.765
34.762
34.762
34.765
34.774
34.788
34.81
34.84
34.88
34.929
34.989
35.06
35.141
35.232
35.33
35.435
35.544
35.654
35.764
35.872
35.975
36.072
36.161
36.24
36.309
36.366
36.411
36.443
36.464
36.474
36.472
36.459
36.437
36.406
36.369
36.326
36.279
36.231
36.182
36.135
36.088
36.045
36.004
35.966
35.932
35.903
35.878
35.857
35.84
35.826
35.815
35.806
35.797
35.789
35.78
35.771
35.761
35.75
35.738
35.724
35.708
35.689
35.669
35.647
35.624
35.6
35.576
35.553
35.53
35.509
35.489
35.471
35.456
35.443
35.433
35.426
35.421
35.419
35.419
35.422
35.427
35.434
35.444
35.456
35.47
35.486
35.503
35.521
35.54
35.557
35.574
35.588
35.6
35.608
35.613
35.614
35.612
35.606
35.597
35.585
35.571
35.556
35.539
35.521
35.503
35.483
35.463
35.443
35.422
35.402
35.381
35.36
35.339
35.319
35.298
35.278
35.258
35.239
35.22
35.202
35.185
35.169
35.153
35.138
35.124
35.111
35.099
35.089
35.079
35.071
35.063
35.058
35.054
35.051
35.049
35.047
35.045
35.042
35.038
35.032
35.025
35.017
35.008
34.998
34.989
34.98
34.971
34.964
34.958
34.954
34.951
34.949
34.949
34.949
34.951
34.954
34.958
34.962
34.966
34.971
34.975
34.978
34.98
34.981
34.981
34.978
34.974
34.969
34.962
34.955
34.948
34.942
34.936
34.929
34.923
34.918
34.912
34.907
34.903
34.899
34.895
34.891
34.887
34.884
34.88
34.876
34.871
34.865
34.859
34.852
34.845
34.837
34.828
34.819
34.81
34.801
34.792
34.784
34.776
34.769
34.763
34.758
34.755
34.753
34.754
34.758
34.767
34.782
34.803
34.831
34.867
34.912
34.967
35.031
35.105
35.188
35.279
35.378
35.482
35.59
35.7
35.809
35.915
36.014
36.105
36.186
36.254
36.31
36.352
36.381
36.397
36.401
36.393
36.375
36.348
36.313
36.273
36.229
36.182
36.134
36.087
36.039
35.992
35.947
35.904
35.862
35.823
35.786
35.752
35.72
35.69
35.664
35.64
35.618
35.598
35.58
35.563
35.547
35.533
35.519
35.505
35.491
35.477
35.462
35.446
35.429
35.411
35.392
35.373
35.354
35.337
35.32
35.305
35.292
35.282
35.275
35.271
35.27
35.272
35.278
35.287
35.298
35.312
35.328
35.345
35.365
35.385
35.406
35.426
35.445
35.463
35.478
35.492
35.503
35.511
35.515
35.515
35.511
35.503
35.492
35.477
35.46
35.442
35.422
35.402
35.381
35.36
35.339
35.318
35.297
35.276
35.256
35.236
35.216
35.197
35.178
35.159
35.14
35.122
35.104
35.086
35.069
35.053
35.037
35.023
35.009
34.996
34.984
34.974
34.965
34.958
34.951
34.946
34.942
34.937
34.934
34.93
34.926
34.922
34.919
34.916
34.913
34.911
34.909
34.907
34.907
34.907
34.908
34.909
34.909
34.909
34.908
34.906
34.903
34.899
34.894
34.889
34.883
34.877
34.871
34.864
34.857
34.85
34.844
34.837
34.832
34.827
34.824
34.822
34.821
34.822
34.824
34.827
34.83
34.834
34.837
34.839
34.841
34.842
34.84
34.838
34.833
34.826
34.818
34.807
34.795
34.782
34.769
34.755
34.742
34.73
34.719
34.708
34.698
34.689
34.68
34.672
34.666
34.661
34.657
34.655
34.655
34.654
34.655
34.655
34.656
34.658
34.662
34.668
34.677
34.692
34.713
34.743
34.782
34.832
34.894
34.967
35.052
35.148
35.252
35.363
35.479
35.598
35.716
35.83
35.938
36.038
36.127
36.205
36.271
36.322
36.361
36.386
36.398
36.399
36.389
36.37
36.342
36.307
36.267
36.222
36.175
36.126
36.078
36.03
35.984
35.94
35.898
35.859
35.823
35.791
35.763
35.738
35.717
35.701
35.687
35.676
35.667
35.659
35.652
35.645
35.639
35.632
35.625
35.617
35.609
35.6
35.589
35.577
35.563
35.547
35.53
35.51
35.49
35.468
35.447
35.425
35.405
35.386
35.37
35.356
35.345
35.337
35.331
35.328
35.328
35.329
35.333
35.337
35.344
35.351
35.359
35.368
35.378
35.387
35.397
35.406
35.415
35.423
35.43
35.436
35.439
35.441
35.44
35.437
35.432
35.424
35.415
35.403
35.389
35.372
35.353
35.333
35.311
35.288
35.266
35.244
35.223
35.202
35.183
35.164
35.147
35.132
35.117
35.103
35.089
35.077
35.066
35.055
35.044
35.033
35.022
35.01
34.998
34.986
34.974
34.962
34.952
34.943
34.936
34.931
34.927
34.925
34.924
34.923
34.921
34.92
34.919
34.917
34.915
34.913
34.911
34.908
34.904
34.9
34.894
34.888
34.881
34.875
34.87
34.865
34.862
34.859
34.858
34.858
34.859
34.862
34.865
34.868
34.87
34.872
34.873
34.873
34.872
34.869
34.865
34.858
34.85
34.841
34.832
34.822
34.812
34.803
34.795
34.788
34.782
34.778
34.774
34.772
34.771
34.77
34.769
34.767
34.763
34.758
34.752
34.744
34.736
34.728
34.719
34.709
34.7
34.69
34.682
34.674
34.669
34.665
34.664
34.667
34.674
34.686
34.704
34.731
34.765
34.809
34.863
34.928
35.004
35.089
35.183
35.284
35.39
35.499
35.609
35.719
35.824
35.924
36.016
36.098
36.169
36.228
36.274
36.307
36.327
36.335
36.331
36.318
36.295
36.264
36.226
36.182
36.134
36.083
36.031
35.979
35.929
35.882
35.837
35.796
35.759
35.726
35.697
35.672
35.651
35.632
35.617
35.605
35.595
35.587
35.579
35.572
35.564
35.555
35.546
35.535
35.522
35.508
35.491
35.474
35.454
35.433
35.41
35.385
35.361
35.336
35.312
35.289
35.268
35.248
35.231
35.217
35.206
35.198
35.193
35.192
35.194
35.199
35.207
35.217
35.23
35.245
35.26
35.276
35.291
35.307
35.321
35.335
35.346
35.356
35.364
35.369
35.37
35.369
35.365
35.358
35.349
35.337
35.324
35.309
35.294
35.278
35.263
35.248
35.233
35.217
35.202
35.185
35.169
35.152
35.134
35.115
35.096
35.077
35.056
35.035
35.014
34.992
34.971
34.951
34.932
34.915
34.9
34.887
34.876
34.866
34.858
34.85
34.844
34.839
34.835
34.832
34.829
34.827
34.825
34.823
34.821
34.819
34.816
34.814
34.811
34.809
34.807
34.805
34.805
34.805
34.805
34.807
34.809
34.811
34.813
34.815
34.816
34.817
34.818
34.818
34.818
34.817
34.817
34.816
34.815
34.814
34.812
34.81
34.806
34.802
34.797
34.791
34.786
34.781
34.776
34.771
34.766
34.761
34.756
34.75
34.745
34.74
34.736
34.732
34.728
34.725
34.721
34.717
34.714
34.711
34.707
34.704
34.7
34.695
34.69
34.685
34.679
34.674
34.668
34.663
34.658
34.655
34.653
34.652
34.654
34.658
34.666
34.678
34.696
34.721
34.755
34.8
34.855
34.922
35.001
35.091
35.19
35.299
35.413
35.532
35.652
35.77
35.884
35.991
36.089
36.175
36.249
36.308
36.353
36.382
36.397
36.398
36.387
36.364
36.332
36.292
36.247
36.197
36.144
36.089
36.034
35.98
35.927
35.876
35.829
35.785
35.745
35.709
35.677
35.648
35.622
35.599
35.579
35.56
35.542
35.526
35.512
35.499
35.486
35.475
35.464
35.452
35.439
35.424
35.408
35.39
35.37
35.349
35.327
35.303
35.279
35.256
35.234
35.213
35.196
35.183
35.173
35.167
35.165
35.168
35.173
35.183
35.195
35.21
35.226
35.245
35.264
35.283
35.302
35.32
35.337
35.352
35.365
35.376
35.386
35.393
35.399
35.404
35.407
35.408
35.407
35.403
35.395
35.385
35.371
35.356
35.337
35.317
35.296
35.273
35.249
35.225
35.199
35.174
35.149
35.124
35.099
35.076
35.054
35.035
35.017
35.0
34.986
34.973
34.962
34.952
34.944
34.936
34.928
34.921
34.913
34.905
34.897
34.89
34.882
34.874
34.867
34.861
34.854
34.849
34.844
34.84
34.838
34.837
34.836
34.837
34.839
34.84
34.842
34.844
34.846
34.846
34.845
34.843
34.84
34.836
34.833
34.829
34.827
34.825
34.826
34.827
34.829
34.832
34.836
34.839
34.843
34.847
34.85
34.853
34.854
34.855
34.854
34.852
34.849
34.845
34.839
34.833
34.825
34.818
34.81
34.803
34.797
34.791
34.786
34.782
34.78
34.778
34.777
34.776
34.775
34.773
34.77
34.767
34.763
34.758
34.751
34.744
34.736
34.726
34.716
34.706
34.696
34.686
34.678
34.672
34.669
34.672
34.681
34.699
34.727
34.767
34.818
34.881
34.956
35.043
35.141
35.248
35.363
35.482
35.603
35.723
35.839
35.949
36.05
36.141
36.221
36.288
36.341
36.38
36.406
36.418
36.417
36.404
36.381
36.349
36.309
36.263
36.211
36.156
36.098
36.038
35.979
35.92
35.863
35.809
35.758
35.711
35.668
35.63
35.597
35.567
35.542
35.519
35.5
35.484
35.47
35.457
35.445
35.435
35.424
35.412
35.4
35.385
35.369
35.352
35.332
35.311
35.289
35.267
35.246
