Trial 3:3back
32.687
32.665
32.647
32.636
32.634
32.642
32.664
32.703
32.76
32.839
32.942
33.071
33.228
33.412
33.624
33.861
34.121
34.403
34.701
35.013
35.334
35.659
35.984
36.304
36.614
36.909
37.185
37.44
37.67
37.873
38.047
38.192
38.308
38.395
38.455
38.487
38.495
38.481
38.448
38.397
38.331
38.252
38.162
38.063
37.958
37.847
37.733
37.616
37.498
37.379
37.262
37.145
37.03
36.918
36.808
36.7
36.595
36.492
36.391
36.292
36.195
36.098
36.003
35.908
35.813
35.718
35.624
35.531
35.44
35.35
35.263
35.18
35.101
35.027
34.958
34.896
34.841
34.794
34.753
34.72
34.695
34.677
34.666
34.662
34.664
34.671
34.684
34.7
34.72
34.742
34.767
34.793
34.819
34.845
34.871
34.895
34.917
34.936
34.953
34.966
34.976
34.982
34.985
34.985
34.98
34.973
34.961
34.945
34.925
34.901
34.872
34.839
34.802
34.76
34.715
34.667
34.616
34.563
34.508
34.452
34.395
34.337
34.28
34.222
34.165
34.109
34.055
34.003
33.952
33.904
33.858
33.813
33.77
33.727
33.686
33.647
33.608
33.57
33.533
33.497
33.462
33.427
33.393
33.359
33.327
33.296
33.266
33.237
33.21
33.183
33.157
33.131
33.108
33.085
33.064
33.045
33.026
33.008
32.991
32.975
32.96
32.944
32.929
32.914
32.899
32.883
32.867
32.85
32.833
32.816
32.799
32.782
32.766
32.75
32.736
32.724
32.714
32.707
32.704
32.707
32.719
32.741
32.777
32.829
32.901
32.994
33.112
33.255
33.424
33.621
33.844
34.092
34.364
34.656
34.966
35.288
35.618
35.952
36.283
36.609
36.923
37.221
37.5
37.756
37.987
38.191
38.367
38.514
38.633
38.724
38.788
38.828
38.844
38.84
38.816
38.775
38.719
38.65
38.571
38.483
38.39
38.292
38.192
38.09
37.988
37.886
37.786
37.688
37.592
37.499
37.409
37.321
37.237
37.155
37.076
36.999
36.923
36.848
36.774
36.699
36.625
36.551
36.476
36.402
36.329
36.255
36.183
36.112
36.043
35.977
35.914
35.855
35.8
35.75
35.704
35.664
35.629
35.598
35.573
35.553
35.537
35.526
35.518
35.514
35.512
35.512
35.514
35.517
35.52
35.523
35.525
35.526
35.524
35.52
35.514
35.504
35.491
35.475
35.455
35.432
35.407
35.378
35.346
35.313
35.277
35.238
35.198
35.156
35.111
35.065
35.016
34.966
34.912
34.857
34.799
34.739
34.677
34.615
34.552
34.489
34.426
34.364
34.304
34.245
34.187
34.132
34.078
34.027
33.978
33.931
33.886
33.843
33.801
33.761
33.723
33.686
33.65
33.615
33.582
33.549
33.517
33.485
33.454
33.423
33.393
33.363
33.334
33.305
33.278
33.252
33.226
33.202
33.178
33.155
33.133
33.111
33.09
33.068
33.047
33.027
33.006
32.984
32.963
32.941
32.918
32.894
32.869
32.844
32.818
32.791
32.765
32.738
32.71
32.683
32.656
32.629
32.603
32.578
32.555
32.534
32.516
32.504
32.5
32.505
32.522
32.554
32.604
32.672
32.763
32.876
33.013
33.175
33.36
33.568
33.797
34.043
34.304
34.577
34.856
35.137
35.417
35.689
35.952
36.2
36.431
36.642
36.83
36.995
37.134
37.247
37.335
37.399
37.438
37.455
37.452
37.429
37.39
37.335
37.267
37.187
37.099
37.003
36.901
36.795
36.686
36.575
36.465
36.355
36.247
36.142
36.039
35.939
35.842
35.748
35.656
35.567
35.48
35.393
35.308
35.224
35.14
35.057
34.975
34.893
34.812
34.731
34.652
34.573
34.495
34.42
34.347
34.277
34.212
34.151
34.096
34.046
34.001
33.963
33.93
33.904
33.883
33.869
33.861
33.858
33.86
33.867
33.877
33.89
33.904
33.919
33.935
33.95
33.963
33.975
33.985
33.991
33.994
33.993
33.987
33.977
33.963
33.944
33.921
33.893
33.861
33.826
33.788
33.746
33.702
33.656
33.608
33.558
33.506
33.454
33.401
33.346
33.291
33.236
33.181
33.126
33.071
33.017
32.963
32.91
32.858
32.808
32.76
32.714
32.671
32.631
32.593
32.557
32.522
32.49
32.459
32.429
32.401
32.374
32.347
32.322
32.296
32.271
32.246
32.221
32.196
32.172
32.148
32.125
32.103
32.082
32.062
32.044
32.027
32.012
31.997
31.982
31.968
31.954
31.94
31.926
31.911
31.895
31.877
31.86
31.841
31.822
31.803
31.783
31.762
31.741
31.719
31.698
31.677
31.657
31.638
31.62
31.605
31.594
31.586
31.585
31.591
31.607
31.634
31.675
31.732
31.808
31.905
32.023
32.165
32.33
32.518
32.728
32.957
33.205
33.467
33.742
34.024
34.311
34.598
34.881
35.156
35.42
35.668
35.899
36.109
36.297
36.461
36.601
36.717
36.808
36.877
36.925
36.951
36.959
36.949
36.923
36.883
36.831
36.769
36.697
36.619
36.536
36.45
36.361
36.272
36.183
36.096
36.012
35.929
35.851
35.775
35.702
35.632
35.565
35.499
35.436
35.374
35.312
35.25
35.188
35.125
35.062
34.999
34.934
34.869
34.804
34.74
34.677
34.616
34.559
34.504
34.454
34.408
34.368
34.333
34.305
34.282
34.265
34.253
34.247
34.247
34.251
34.259
34.271
34.286
34.303
34.321
34.339
34.359
34.378
34.398
34.416
34.434
34.45
34.463
34.474
34.481
34.484
34.483
34.478
34.468
34.454
34.435
34.413
34.387
34.358
34.326
34.292
34.255
34.216
34.176
34.135
34.093
34.053
34.012
33.972
33.933
33.895
33.858
33.822
33.787
33.752
33.717
33.681
33.644
33.607
33.569
33.53
33.489
33.449
33.408
33.368
33.329
33.291
33.255
33.22
33.188
33.157
33.129
33.102
33.078
33.055
33.034
33.014
32.996
32.978
32.962
32.947
32.933
32.919
32.907
32.894
32.882
32.871
32.859
32.848
32.836
32.823
32.81
32.797
32.783
32.77
32.758
32.746
32.735
32.724
32.715
32.706
32.698
32.69
32.683
32.677
32.67
32.664
32.658
32.651
32.644
32.636
32.626
32.616
32.604
32.591
32.578
32.565
32.553
32.542
32.533
32.528
32.529
32.537
32.554
32.583
32.626
32.685
32.763
32.862
32.983
33.128
33.297
33.49
33.706
33.943
34.201
34.475
34.763
35.061
35.364
35.67
35.973
36.271
36.558
36.832
37.09
37.329
37.546
37.74
37.91
38.055
38.174
38.27
38.341
38.389
38.416
38.423
38.413
38.387
38.349
38.301
38.244
38.18
38.111
38.039
37.964
37.888
37.813
37.738
37.664
37.593
37.523
37.457
37.393
37.333
37.276
37.221
37.168
37.118
37.068
37.019
36.97
36.921
36.871
36.821
36.769
36.717
36.664
36.611
36.558
36.504
36.451
36.399
36.348
36.298
36.251
36.208
36.168
36.133
36.102
36.076
36.053
36.035
36.022
36.012
36.006
36.003
36.002
36.004
36.007
36.011
36.016
36.021
36.026
36.03
36.034
36.035
36.035
36.032
36.026
36.017
36.005
35.99
35.971
35.949
35.924
35.894
35.86
35.823
35.782
35.737
35.688
35.637
35.584
35.528
35.471
35.413
35.354
35.294
35.233
35.173
35.113
35.054
34.996
34.939
34.884
34.83
34.777
34.725
34.674
34.625
34.576
34.529
34.482
34.436
34.392
34.349
34.309
34.27
34.233
34.198
34.165
34.133
34.104
34.075
34.048
34.022
33.996
33.97
33.945
33.92
33.895
33.87
33.846
33.822
33.798
33.774
33.751
33.728
33.706
33.684
33.663
33.643
33.623
33.604
33.585
33.567
33.55
33.534
33.518
33.501
33.485
33.469
33.451
33.434
33.415
33.396
33.377
33.359
33.34
33.322
33.303
33.285
33.266
33.248
33.23
33.214
33.2
33.191
33.186
33.188
33.199
33.222
33.257
33.308
33.378
33.467
33.578
33.711
33.867
34.047
34.25
34.475
34.72
34.983
35.261
35.55
35.847
36.148
36.449
36.745
37.033
37.31
37.573
37.818
38.043
38.247
38.428
38.585
38.716
38.822
38.904
38.961
38.997
39.011
39.006
38.985
38.949
38.901
38.842
38.775
38.7
38.621
38.538
38.453
38.368
38.283
38.199
38.117
38.037
37.958
37.882
37.808
37.737
37.668
37.6
37.534
37.469
37.404
37.34
37.275
37.21
37.143
37.075
37.006
36.935
36.864
36.792
36.72
36.648
36.577
36.509
36.442
36.379
36.319
36.263
36.212
36.166
36.126
36.092
36.064
36.041
36.023
36.011
36.003
35.998
35.997
35.998
36.001
36.004
36.007
36.01
36.011
36.011
36.01
36.006
36.0
35.991
35.98
35.966
35.95
35.93
35.907
35.88
35.85
35.817
35.78
35.739
35.696
35.649
35.599
35.546
35.49
35.432
35.373
35.312
35.249
35.187
35.124
35.062
35.0
34.939
34.88
34.821
34.764
34.708
34.653
34.598
34.545
34.493
34.441
34.389
34.339
34.289
34.24
34.192
34.144
34.098
34.053
34.009
33.967
33.926
33.888
33.851
33.816
33.783
33.752
33.722
33.693
33.666
33.639
33.613
33.588
33.563
33.538
33.513
33.487
33.461
33.434
33.407
33.379
33.351
33.323
33.296
33.269
33.242
33.216
33.191
33.166
33.142
33.118
33.095
33.072
33.049
33.027
33.004
32.981
32.958
32.934
32.909
32.883
32.858
32.832
32.808
32.785
32.765
32.75
32.742
32.743
32.756
32.784
32.829
32.893
32.98
33.09
33.225
33.385
33.571
33.781
34.015
34.27
34.544
34.834
35.136
35.446
35.761
36.075
36.384
36.685
36.974
37.247
37.502
37.737
37.949
38.137
38.3
38.439
38.553
38.642
38.708
38.752
38.775
38.779
38.766
38.737
38.695
38.642
38.579
38.508
38.432
38.35
38.266
38.18
38.093
38.005
37.919
37.833
37.749
37.667
37.587
37.51
37.436
37.364
37.294
37.226
37.159
37.093
37.028
36.964
36.9
36.836
36.772
36.708
36.644
36.58
36.517
36.456
36.396
36.339
36.286
36.237
36.194
36.157
36.126
36.101
36.082
36.069
36.061
36.058
36.06
36.065
36.073
36.084
36.097
36.112
36.127
36.143
36.157
36.17
36.182
36.192
36.2
36.206
36.209
36.209
36.205
36.199
36.188
36.173
36.153
36.128
36.099
36.065
36.027
35.985
35.938
35.888
35.835
35.78
35.722
35.662
35.602
35.54
35.478
35.417
35.356
35.296
35.236
35.178
35.121
35.064
35.009
34.955
34.902
34.85
34.799
34.748
34.699
34.65
34.603
34.556
34.51
34.465
34.422
34.381
34.341
34.302
34.266
34.231
34.198
34.166
34.136
34.106
34.078
34.05
34.023
33.995
33.967
33.939
33.911
33.882
33.854
33.826
33.798
33.771
33.745
33.72
33.697
33.674
33.653
33.634
33.615
33.598
33.582
33.566
33.55
33.534
33.517
33.5
33.481
33.461
33.441
33.419
33.398
33.377
33.357
33.337
33.319
33.303
33.29
33.282
33.282
33.291
33.312
33.347
33.399
33.47
33.564
33.681
33.823
33.992
34.187
34.408
34.653
34.921
35.209
35.513
35.829
36.153
36.48
36.806
37.127
37.438
37.735
38.016
38.278
38.518
38.734
38.926
39.093
39.233
39.347
39.436
39.5
39.54
39.558
39.556
39.535
39.497
39.445
39.379
39.304
39.219
39.127
39.03
38.928
38.825
38.72
38.616
38.513
38.412
38.313
38.218
38.126
38.038
37.952
37.87
37.791
37.714
37.64
37.568
37.497
37.427
37.357
37.287
37.216
37.145
37.073
37.0
36.928
36.856
36.786
36.716
36.65
36.587
36.528
36.474
36.426
36.384
36.348
36.318
36.293
36.275
36.262
36.254
36.25
36.25
36.253
36.258
36.266
36.275
36.285
36.296
36.306
36.315
36.322
36.327
36.33
36.33
36.326
36.318
36.306
36.29
36.271
36.247
36.219
36.188
36.153
36.115
36.074
36.031
35.985
35.937
35.886
35.834
35.78
35.725
35.668
35.611
35.552
35.493
35.435
35.376
35.317
35.26
35.203
35.148
35.094
35.042
34.992
34.943
34.895
34.849
34.804
34.761
34.718
34.677
34.636
34.596
34.556
34.517
34.477
34.438
34.4
34.361
34.323
34.286
34.25
34.216
34.182
34.15
34.119
34.09
34.061
34.032
34.004
33.976
33.949
33.922
33.895
33.869
33.844
33.819
33.795
33.772
33.749
33.727
33.705
33.682
33.66
33.637
33.613
33.59
33.565
33.541
33.516
33.49
33.464
33.437
33.41
33.383
33.355
33.328
33.301
33.274
33.249
33.227
33.207
33.192
33.184
33.184
33.195
33.22
33.262
33.323
33.406
33.512
33.645
33.803
33.989
34.201
34.439
34.701
34.985
35.286
35.601
35.926
36.256
36.587
36.915
37.233
37.54
37.83
38.1
38.349
38.573
38.77
38.941
39.083
39.197
39.284
39.345
39.38
39.392
39.382
39.353
39.306
39.245
39.17
39.085
38.99
38.89
38.784
38.674
38.563
38.45
38.337
38.226
38.116
38.01
37.907
37.808
37.712
37.619
37.53
37.443
37.359
37.277
37.197
37.117
37.038
36.96
36.881
36.803
36.724
36.646
36.569
36.493
36.42
36.35
36.283
36.219
36.16
36.105
36.055
36.01
35.97
35.935
35.906
35.882
35.864
35.85
35.842
35.838
35.838
35.841
35.847
35.855
35.863
35.873
35.884
35.895
35.906
35.916
35.926
35.934
35.941
35.944
35.945
35.941
35.933
35.92
35.903
35.882
35.857
35.827
35.793
35.754
35.712
35.666
35.617
35.566
35.513
35.459
35.404
35.348
35.293
35.237
35.181
35.124
35.068
35.012
34.957
34.903
34.849
34.796
34.744
34.692
34.64
34.589
34.538
34.488
34.438
34.389
34.341
34.294
34.248
34.204
34.161
34.12
34.082
34.045
34.01
33.977
33.946
33.915
33.886
33.858
33.831
33.806
33.781
33.757
33.733
33.709
33.683
33.658
33.631
33.603
33.574
33.545
33.515
33.485
33.455
33.425
33.397
33.369
33.344
33.319
33.297
33.276
33.257
33.238
33.22
33.202
33.183
33.164
33.145
33.125
33.106
33.086
33.065
33.045
33.024
33.003
32.983
32.964
32.947
32.934
32.926
32.924
32.932
32.952
32.986
33.038
33.109
33.202
33.32
33.462
33.631
33.826
34.046
34.29
34.556
34.841
35.141
35.453
35.771
36.093
36.412
36.725
37.028
37.317
37.587
37.836
38.061
38.26
38.432
38.575
38.691
38.78
38.843
38.881
38.897
38.891
38.865
38.822
38.764
38.692
38.609
38.516
38.415
38.308
38.197
38.082
37.965
37.847
37.73
37.613
37.498
37.384
37.274
37.167
37.063
36.962
36.864
36.769
36.676
36.586
36.496
36.408
36.321
36.234
36.147
36.06
35.974
35.888
35.803
35.72
35.64
35.562
35.489
35.421
35.359
35.302
35.251
35.208
35.17
35.14
35.116
35.098
35.086
35.079
35.077
35.079
35.085
35.094
35.107
35.122
35.138
35.155
35.172
35.188
35.2
35.21
35.216
35.217
35.214
35.206
35.193
35.176
35.154
35.128
35.099
35.066
35.031
34.992
34.951
34.908
34.862
34.814
34.764
34.712
34.659
34.604
34.549
34.493
34.437
34.379
34.321
34.262
34.203
34.144
34.085
34.027
33.969
33.912
33.856
33.802
33.751
33.701
33.654
33.61
33.567
33.526
33.487
33.45
33.413
33.378
33.343
33.308
33.273
33.238
33.204
33.169
33.135
33.102
33.07
33.039
33.01
32.982
32.956
32.932
32.909
32.888
32.867
32.846
32.826
32.806
32.786
32.767
32.748
32.729
32.712
32.694
32.677
32.66
32.643
32.625
32.607
32.589
32.57
32.55
32.53
32.51
32.489
32.469
32.45
32.433
32.419
32.41
32.407
32.413
32.431
32.464
32.514
32.583
32.674
32.788
32.928
33.093
33.285
33.501
33.742
34.004
34.284
34.58
34.886
35.2
35.516
35.83
36.137
36.433
36.715
36.979
37.221
37.442
37.637
37.808
37.953
38.072
38.167
38.237
38.285
38.311
38.319
38.308
38.281
38.24
38.186
38.121
38.046
37.964
37.876
37.782
37.684
37.584
37.481
37.377
37.273
37.17
37.068
36.967
36.867
36.769
36.672
36.577
36.483
36.39
36.299
36.209
36.119
36.031
35.945
35.86
35.778
35.698
35.621
35.549
35.48
35.416
35.358
35.307
35.262
35.223
35.192
35.168
35.151
35.142
35.139
35.142
35.15
35.164
35.181
35.201
35.223
35.247
35.272
35.298
35.324
35.349
35.374
35.398
35.42
35.44
35.457
35.471
35.481
35.488
35.49
35.487
35.48
35.468
35.452
35.432
35.407
35.379
35.348
35.313
35.274
35.233
35.19
35.144
35.096
35.047
34.996
34.943
34.89
34.835
34.781
34.726
34.671
34.615
34.56
34.504
34.449
34.394
34.34
34.287
34.235
34.184
34.134
34.086
34.038
33.991
33.944
33.898
33.853
33.808
33.764
33.72
33.678
33.637
33.596
33.557
33.52
33.483
33.448
33.413
33.379
33.346
33.313
33.282
33.252
33.223
33.195
33.168
33.143
33.119
33.097
33.075
33.055
33.035
33.015
32.996
32.977
32.957
32.937
32.918
32.899
32.88
32.863
32.848
32.834
32.822
32.812
32.806
32.803
32.805
32.813
32.829
32.853
32.889
32.939
33.006
33.091
33.197
33.327
33.48
33.659
33.864
34.094
34.349
34.627
34.924
35.239
35.566
35.903
36.245
36.588
36.927
37.257
37.574
37.874
38.153
38.408
38.637
38.838
39.01
39.153
39.266
39.35
39.407
39.439
39.447
39.434
39.403
39.355
39.293
39.22
39.137
39.046
38.95
38.849
38.745
38.64
38.535
38.43
38.326
38.225
38.127
38.032
37.941
37.853
37.769
37.688
37.61
37.535
37.463
37.392
37.323
37.254
37.184
37.114
37.043
36.971
36.898
36.825
36.751
36.678
36.606
36.536
36.47
36.407
36.35
36.297
36.25
36.209
36.174
36.146
36.125
36.11
36.102
36.099
36.102
36.109
36.121
36.135
36.151
36.169
36.187
36.204
36.221
36.235
36.248
36.258
36.264
36.267
36.266
36.261
36.251
36.237
36.219
36.196
36.168
36.136
36.101
36.061
36.018
35.971
35.92
35.866
35.81
35.751
35.689
35.626
35.561
35.494
35.426
35.358
35.29
35.223
35.157
35.092
35.028
34.966
34.905
34.845
34.786
34.727
34.67
34.614
34.56
34.508
34.457
34.408
34.361
34.316
34.273
34.231
34.191
34.152
34.115
34.079
34.043
34.009
33.975
33.942
33.909
33.876
33.844
33.812
33.78
33.748
33.717
33.686
33.655
33.625
33.595
33.566
33.536
33.508
33.479
33.451
33.424
33.397
33.37
33.343
33.316
33.289
33.262
33.236
33.211
33.187
33.165
33.145
33.128
33.114
33.105
33.102
33.107
33.122
33.15
33.193
33.255
33.338
33.444
33.575
33.733
33.917
34.128
34.364
34.623
34.902
35.199
35.509
35.829
36.153
36.478
36.798
37.11
37.409
37.692
37.955
38.195
38.409
38.596
38.755
38.884
38.985
39.058
39.103
39.123
39.12
39.096
39.052
38.992
38.918
38.832
38.737
38.634
38.526
38.414
38.298
38.18
38.061
37.942
37.823
37.706
37.59
37.478
37.368
37.262
37.159
37.059
36.961
36.867
36.774
36.683
36.593
36.505
36.417
36.331
36.245
36.162
36.08
36.002
35.927
35.856
35.789
35.727
35.671
35.622
35.578
35.542
35.512
35.49
35.475
35.467
35.466
35.473
35.485
35.503
35.526
35.552
35.582
35.612
35.644
35.674
35.703
35.73
35.753
35.773
35.788
35.799
35.805
35.805
35.799
35.787
35.768
35.744
35.713
35.677
35.634
35.586
35.534
35.477
35.415
35.35
35.282
35.212
35.139
35.065
34.989
34.912
34.835
34.757
34.679
34.601
34.524
34.447
34.37
34.295
34.22
34.146
34.072
34.0
33.928
33.858
33.788
33.719
33.651
33.585
33.521
33.458
33.398
33.34
33.285
33.232
33.181
33.131
33.083
33.036
32.99
32.946
32.902
32.859
32.818
32.777
32.737
32.697
32.658
32.62
32.582
32.545
32.507
32.47
32.433
32.396
32.36
32.324
32.291
32.259
32.229
32.203
32.18
32.163
32.153
32.152
32.163
32.189
32.231
32.294
32.378
32.487
32.621
32.782
32.969
33.183
33.422
33.683
33.965
34.263
34.574
34.893
35.216
35.539
35.856
36.164
36.459
36.736
36.994
37.229
37.44
37.625
37.784
37.915
38.02
38.098
38.15
38.178
38.185
38.17
38.138
38.089
38.026
37.952
37.867
37.775
37.676
37.573
37.466
37.356
37.245
37.134
37.024
36.914
36.806
36.7
36.597
36.497
36.399
36.303
36.209
36.116
36.024
35.932
35.841
35.751
35.661
35.571
35.483
35.396
35.312
35.231
35.154
35.082
35.015
34.954
34.899
34.851
34.809
34.775
34.747
34.727
34.714
34.708
34.708
34.714
34.726
34.742
34.763
34.786
34.812
34.839
34.866
34.892
34.918
34.942
34.963
34.981
34.995
35.005
35.011
35.011
35.007
34.998
34.983
34.964
34.94
34.911
34.878
34.842
34.801
34.757
34.709
34.659
34.606
34.552
34.496
34.438
34.38
34.322
34.264
34.207
34.151
34.095
34.04
33.985
33.93
33.874
33.818
33.761
33.703
33.645
33.587
33.529
33.471
33.415
33.36
33.308
33.258
33.211
33.167
33.126
33.087
33.051
33.017
32.985
32.955
32.926
32.899
32.873
32.848
32.824
32.8
32.777
32.755
32.734
32.712
32.69
32.668
32.645
32.622
32.599
32.576
32.553
32.53
32.507
32.484
32.463
32.441
32.421
32.403
32.387
32.375
32.368
32.368
32.378
32.4
32.438
32.494
32.572
32.675
32.806
32.965
33.154
33.373
33.621
33.896
34.197
34.52
34.862
35.219
