Trial 3:3back
35.735
35.652
35.575
35.505
35.444
35.394
35.355
35.329
35.317
35.316
35.329
35.352
35.387
35.432
35.487
35.549
35.617
35.688
35.761
35.835
35.909
35.982
36.051
36.118
36.18
36.235
36.285
36.329
36.366
36.396
36.417
36.427
36.427
36.415
36.391
36.357
36.314
36.263
36.203
36.137
36.065
35.989
35.911
35.832
35.753
35.674
35.595
35.516
35.436
35.355
35.274
35.192
35.11
35.028
34.946
34.866
34.788
34.713
34.641
34.573
34.506
34.443
34.382
34.326
34.272
34.223
34.175
34.131
34.088
34.047
34.008
33.971
33.935
33.901
33.869
33.838
33.81
33.784
33.759
33.736
33.714
33.693
33.673
33.654
33.634
33.614
33.593
33.572
33.552
33.531
33.511
33.493
33.478
33.466
33.456
33.447
33.439
33.431
33.421
33.41
33.397
33.382
33.364
33.344
33.32
33.295
33.269
33.243
33.217
33.191
33.168
33.147
33.128
33.112
33.099
33.089
33.085
33.088
33.101
33.127
33.168
33.226
33.304
33.406
33.536
33.696
33.89
34.115
34.373
34.659
34.972
35.306
35.658
36.021
36.39
36.756
37.113
37.455
37.777
38.077
38.349
38.593
38.806
38.988
39.138
39.258
39.35
39.417
39.459
39.479
39.477
39.456
39.417
39.361
39.29
39.205
39.106
38.996
38.876
38.749
38.618
38.484
38.351
38.22
38.091
37.966
37.845
37.727
37.611
37.498
37.387
37.276
37.167
37.057
36.946
36.836
36.726
36.616
36.508
36.401
36.296
36.192
36.091
35.993
35.9
35.812
35.731
35.658
35.593
35.537
35.492
35.456
35.431
35.417
35.414
35.42
35.437
35.463
35.497
35.54
35.589
35.646
35.708
35.775
35.845
35.917
35.987
36.056
36.12
36.179
36.231
36.275
36.31
36.336
36.352
36.36
36.36
36.351
36.335
36.312
36.282
36.244
36.198
36.146
36.087
36.024
35.956
35.883
35.806
35.726
35.645
35.563
35.481
35.401
35.323
35.246
35.169
35.093
35.016
34.941
34.867
34.794
34.723
34.655
34.589
34.525
34.463
34.403
34.347
34.293
34.241
34.193
34.147
34.104
34.065
34.027
33.993
33.961
33.93
33.9
33.871
33.842
33.814
33.785
33.757
33.728
33.701
33.675
33.649
33.625
33.602
33.58
33.559
33.54
33.522
33.504
33.488
33.472
33.458
33.444
33.43
33.417
33.403
33.389
33.376
33.362
33.347
33.33
33.312
33.291
33.27
33.248
33.226
33.204
33.183
33.163
33.145
33.129
33.117
33.109
33.106
33.112
33.126
33.153
33.195
33.254
33.335
33.44
33.573
33.734
33.926
34.148
34.4
34.68
34.985
35.311
35.654
36.008
36.367
36.725
37.076
37.415
37.737
38.038
38.316
38.567
38.79
38.984
39.147
39.28
39.383
39.456
39.501
39.521
39.517
39.492
39.448
39.389
39.316
39.231
39.138
39.037
38.93
38.817
38.7
38.58
38.458
38.335
38.21
38.086
37.962
37.839
37.717
37.596
37.477
37.36
37.244
37.131
37.018
36.905
36.793
36.682
36.572
36.465
36.36
36.259
36.161
36.068
35.98
35.899
35.824
35.756
35.697
35.646
35.603
35.568
35.543
35.527
35.521
35.525
35.539
35.563
35.594
35.634
35.681
35.734
35.791
35.853
35.916
35.981
36.044
36.105
36.164
36.218
36.267
36.309
36.344
36.371
36.389
36.398
36.398
36.389
36.373
36.349
36.316
36.277
36.23
36.178
36.12
36.057
35.989
35.918
35.844
35.769
35.693
35.618
35.542
35.467
35.393
35.32
35.248
35.177
35.107
35.038
34.969
34.901
34.833
34.765
34.697
34.629
34.562
34.496
34.432
34.369
34.308
34.25
34.194
34.141
34.092
34.046
34.003
33.962
33.923
33.887
33.855
33.826
33.802
33.781
33.763
33.747
33.733
33.719
33.705
33.692
33.678
33.663
33.647
33.63
33.612
33.593
33.574
33.555
33.536
33.519
33.503
33.486
33.47
33.454
33.437
33.42
33.402
33.384
33.364
33.343
33.321
33.299
33.278
33.257
33.235
33.214
33.193
33.174
33.157
33.145
33.139
33.142
33.156
33.185
33.232
33.3
33.393
33.513
33.662
33.841
34.052
34.294
34.566
34.866
35.191
35.536
35.896
36.264
36.634
37.0
37.357
37.697
38.018
38.313
38.579
38.815
39.019
39.191
39.331
39.44
39.517
39.567
39.591
39.591
39.571
39.532
39.477
39.407
39.324
39.229
39.125
39.012
38.894
38.772
38.648
38.523
38.398
38.275
38.155
38.037
37.922
37.809
37.697
37.587
37.478
37.37
37.268
37.177
37.096
37.022
36.952
36.882
36.808
36.73
36.643
36.55
36.449
36.344
36.235
36.126
36.018
35.915
35.82
35.734
35.658
35.596
35.547
35.512
35.493
35.488
35.497
35.518
35.551
35.593
35.643
35.701
35.763
35.829
35.897
35.965
36.033
36.1
36.165
36.225
36.279
36.326
36.364
36.392
36.41
36.418
36.415
36.402
36.379
36.347
36.307
36.261
36.208
36.15
36.087
36.02
35.95
35.876
35.799
35.719
35.636
35.552
35.466
35.38
35.293
35.207
35.123
35.039
34.958
34.88
34.804
34.731
34.66
34.593
34.528
34.464
34.402
34.341
34.283
34.228
34.175
34.125
34.078
34.035
33.996
33.958
33.921
33.884
33.848
33.813
33.779
33.747
33.718
33.69
33.665
33.643
33.623
33.605
33.591
33.58
33.571
33.564
33.557
33.55
33.541
33.531
33.519
33.505
33.489
33.47
33.45
33.427
33.403
33.379
33.353
33.328
33.303
33.279
33.255
33.232
33.209
33.187
33.166
33.146
33.126
33.107
33.089
33.072
33.057
33.046
33.039
33.039
33.046
33.065
33.099
33.15
33.221
33.316
33.439
33.591
33.775
33.991
34.24
34.52
34.826
35.155
35.501
35.86
36.227
36.595
36.958
37.312
37.65
37.968
38.263
38.532
38.771
38.98
39.158
39.304
39.417
39.497
39.545
39.563
39.555
39.525
39.476
39.412
39.335
39.248
39.153
39.054
38.95
38.843
38.732
38.618
38.503
38.388
38.273
38.158
38.043
37.929
37.815
37.703
37.592
37.482
37.375
37.269
37.164
37.059
36.955
36.852
36.748
36.645
36.543
36.442
36.343
36.246
36.152
36.064
35.981
35.906
35.839
35.78
35.729
35.687
35.655
35.632
35.618
35.614
35.62
35.634
35.656
35.686
35.724
35.769
35.819
35.874
35.932
35.991
36.05
36.108
36.163
36.215
36.262
36.307
36.358
36.412
36.468
36.521
36.569
36.606
36.629
36.638
36.629
36.602
36.558
36.498
36.423
36.335
36.237
36.129
36.015
35.897
35.777
35.657
35.54
35.427
35.319
35.218
35.124
35.036
34.954
34.878
34.807
34.741
34.679
34.623
34.57
34.52
34.471
34.423
34.374
34.325
34.276
34.228
34.18
34.132
34.085
34.039
33.994
33.95
33.91
33.872
33.838
33.806
33.778
33.752
33.726
33.702
33.679
33.659
33.64
33.622
33.606
33.59
33.573
33.555
33.536
33.515
33.493
33.469
33.445
33.42
33.396
33.373
33.352
33.333
33.315
33.3
33.286
33.274
33.261
33.248
33.235
33.221
33.206
33.191
33.176
33.16
33.144
33.128
33.112
33.097
33.084
33.074
33.069
33.071
33.083
33.107
33.147
33.207
33.289
33.399
33.537
33.709
33.914
34.152
34.42
34.717
35.039
35.382
35.741
36.111
36.485
36.856
37.219
37.566
37.894
38.199
38.478
38.727
38.946
39.134
39.291
39.416
39.513
39.581
39.622
39.639
39.633
39.607
39.562
39.502
39.428
39.343
39.248
39.144
39.033
38.917
38.798
38.675
38.551
38.425
38.298
38.171
38.044
37.918
37.794
37.674
37.557
37.443
37.332
37.223
37.116
37.01
36.906
36.805
36.705
36.608
36.513
36.421
36.329
36.238
36.149
36.063
35.982
35.908
35.841
35.783
35.735
35.698
35.671
35.654
35.648
35.651
35.663
35.683
35.71
35.744
35.784
35.83
35.88
35.934
35.989
36.044
36.097
36.147
36.191
36.229
36.26
36.285
36.303
36.315
36.32
36.319
36.311
36.299
36.281
36.259
36.231
36.198
36.159
36.115
36.064
36.009
35.948
35.882
35.811
35.735
35.654
35.57
35.484
35.395
35.306
35.218
35.13
35.042
34.956
34.871
34.79
34.711
34.635
34.562
34.491
34.421
34.352
34.286
34.221
34.159
34.1
34.042
33.986
33.932
33.881
33.831
33.784
33.737
33.692
33.648
33.605
33.563
33.525
33.489
33.456
33.425
33.396
33.368
33.341
33.313
33.287
33.261
33.235
33.211
33.189
33.169
33.152
33.139
33.129
33.122
33.117
33.112
33.107
33.101
33.092
33.08
33.066
33.048
33.028
33.006
32.983
32.958
32.932
32.906
32.881
32.856
32.834
32.815
32.8
32.788
32.782
32.781
32.786
32.8
32.823
32.86
32.914
32.988
33.087
33.214
33.371
33.56
33.782
34.036
34.322
34.635
34.973
35.331
35.703
36.082
36.463
36.838
37.203
37.551
37.876
38.174
38.442
38.676
38.877
39.044
39.178
39.28
39.352
39.397
39.416
39.411
39.386
39.342
39.281
39.205
39.114
39.012
38.899
38.78
38.657
38.531
38.404
38.277
38.149
38.021
37.893
37.766
37.641
37.517
37.395
37.275
37.156
37.037
36.921
36.808
36.697
36.589
36.484
36.381
36.279
36.178
36.079
35.982
35.888
35.8
35.724
35.66
35.609
35.568
35.536
35.513
35.497
35.486
35.479
35.475
35.474
35.477
35.483
35.494
35.509
35.531
35.559
35.594
35.635
35.682
35.734
35.791
35.851
35.913
35.977
36.04
36.101
36.158
36.208
36.252
36.288
36.315
36.332
36.339
36.334
36.318
36.29
36.252
36.204
36.146
36.081
36.007
35.928
35.844
35.757
35.669
35.581
35.493
35.407
35.321
35.238
35.156
35.075
34.995
34.916
34.839
34.764
34.69
34.618
34.547
34.479
34.411
34.346
34.281
34.219
34.159
34.1
34.044
33.99
33.939
33.89
33.845
33.803
33.766
33.733
33.705
33.68
33.66
33.643
33.628
33.616
33.605
33.593
33.582
33.57
33.557
33.543
33.527
33.51
33.492
33.471
33.448
33.423
33.397
33.371
33.344
33.317
33.292
33.268
33.246
33.225
33.206
33.189
33.173
33.157
33.142
33.126
33.109
33.092
33.075
33.059
33.047
33.04
33.039
33.046
33.064
33.095
33.144
33.212
33.304
33.422
33.57
33.748
33.959
34.203
34.477
34.781
35.109
35.457
35.82
36.193
36.567
36.937
37.295
37.637
37.957
38.251
38.517
38.752
38.955
39.126
39.266
39.375
39.455
39.508
39.536
39.541
39.526
39.494
39.446
39.384
39.312
39.23
39.139
39.039
38.932
38.819
38.701
38.581
38.457
38.33
38.201
38.071
37.94
37.809
37.679
37.551
37.425
37.302
37.181
37.063
36.949
36.837
36.729
36.623
36.52
36.418
36.318
36.22
36.123
36.028
35.936
35.849
35.766
35.688
35.619
35.558
35.505
35.462
35.429
35.405
35.39
35.384
35.389
35.403
35.427
35.46
35.501
35.551
35.606
35.666
35.73
35.795
35.861
35.925
35.988
36.047
36.101
36.15
36.191
36.224
36.249
36.265
36.271
36.268
36.253
36.228
36.194
36.15
36.096
36.034
35.965
35.889
35.809
35.727
35.642
35.558
35.474
35.39
35.307
35.225
35.143
35.061
34.98
34.9
34.82
34.741
34.664
34.589
34.516
34.444
34.373
34.302
34.233
34.165
34.099
34.037
33.978
33.924
33.876
33.831
33.791
33.755
33.722
33.693
33.666
33.64
33.616
33.592
33.568
33.544
33.52
33.496
33.473
33.452
33.43
33.409
33.387
33.366
33.345
33.324
33.305
33.287
33.27
33.254
33.237
33.219
33.201
33.183
33.166
33.15
33.135
33.12
33.105
33.089
33.072
33.054
33.035
33.015
32.995
32.975
32.955
32.936
32.918
32.902
32.889
32.88
32.878
32.886
32.907
32.944
33.0
33.08
33.186
33.324
33.495
33.701
33.945
34.223
34.535
34.877
35.245
35.632
36.031
36.435
36.838
37.232
37.612
37.971
38.306
38.611
38.887
39.13
39.34
39.516
39.659
39.768
39.845
39.892
39.912
39.906
39.876
39.824
39.753
39.667
39.569
39.46
39.345
39.225
39.102
38.978
38.854
38.731
38.61
38.491
38.373
38.257
38.142
38.028
37.915
37.803
37.693
37.585
37.478
37.372
37.265
37.159
37.052
36.946
36.84
36.735
36.63
36.526
36.424
36.325
36.229
36.138
36.054
35.976
35.905
35.843
35.79
35.747
35.713
35.689
35.676
35.673
35.679
35.695
35.719
35.751
35.789
35.835
35.885
35.938
35.994
36.051
36.107
36.163
36.215
36.263
36.305
36.34
36.369
36.388
36.399
36.401
36.393
36.377
36.353
36.321
36.281
36.234
36.18
36.119
36.051
35.978
35.9
35.819
35.735
35.648
35.559
35.469
35.381
35.293
35.207
35.122
35.038
34.954
34.87
34.787
34.705
34.624
34.546
34.471
34.4
34.332
34.267
34.206
34.148
34.093
34.041
33.993
33.946
33.9
33.855
33.81
33.765
33.721
33.678
33.636
33.596
33.558
33.522
33.488
33.458
33.432
33.411
33.392
33.377
33.364
33.352
33.34
33.328
33.314
33.299
33.284
33.268
33.25
33.231
33.21
33.188
33.165
33.14
33.114
33.09
33.066
33.045
33.025
33.007
32.991
32.977
32.963
32.948
32.933
32.918
32.902
32.886
32.87
32.855
32.843
32.837
32.838
32.85
32.876
32.921
32.987
33.081
33.204
33.36
33.551
33.778
34.042
34.34
34.67
35.028
35.407
35.8
36.201
36.603
36.999
37.382
37.748
38.092
38.408
38.696
38.951
39.175
39.366
39.525
39.653
39.751
39.82
39.861
39.876
39.867
39.836
39.785
39.716
39.631
39.532
39.423
39.306
39.183
39.056
38.926
38.797
38.668
38.54
38.414
38.29
38.169
38.049
37.932
37.818
37.706
37.595
37.484
37.373
37.262
37.151
37.04
36.929
36.82
36.711
36.604
36.5
36.398
36.3
36.207
36.118
36.034
35.955
35.883
35.817
35.76
35.712
35.675
35.648
35.632
35.626
35.63
35.643
35.664
35.693
35.728
35.77
35.817
35.866
35.919
35.972
36.026
36.078
36.126
36.17
36.208
36.24
36.266
36.284
36.295
36.298
36.292
36.279
36.258
36.23
36.195
36.153
36.105
36.052
35.994
35.93
35.862
35.79
35.713
35.633
35.549
35.462
35.373
35.282
35.191
35.099
35.008
34.918
34.829
34.742
34.656
34.573
34.491
34.411
34.334
34.259
34.187
34.118
34.052
33.989
33.929
33.872
33.819
33.768
33.719
33.673
33.628
33.585
33.543
33.502
33.461
33.422
33.383
33.346
33.31
33.276
33.243
33.212
33.181
33.152
33.125
33.101
33.078
33.058
33.041
33.025
33.011
32.997
32.982
32.966
32.951
32.934
32.916
32.895
32.872
32.847
32.82
32.791
32.761
32.731
32.701
32.673
32.647
32.623
32.601
32.582
32.566
32.552
32.541
32.533
32.529
32.53
32.536
32.549
32.573
32.61
32.665
32.741
32.844
32.976
33.14
33.341
33.578
33.851
34.16
34.501
34.87
35.262
35.67
36.085
36.499
36.904
37.293
37.658
37.995
38.301
38.573
38.808
39.005
39.167
39.293
39.385
39.447
39.479
39.484
39.466
39.426
39.369
39.296
39.209
39.112
39.005
38.89
38.769
38.644
38.516
38.386
38.255
38.124
37.992
37.86
37.728
37.597
37.466
37.338
37.213
37.088
36.966
36.845
36.726
36.608
36.491
36.375
36.259
36.144
36.03
35.918
35.808
35.702
35.599
35.502
35.411
35.327
35.251
35.184
35.126
35.079
35.043
35.018
35.006
35.005
35.014
35.034
35.063
35.102
35.15
35.206
35.269
35.338
35.411
35.486
35.563
35.639
35.713
35.782
35.846
35.903
35.951
35.992
36.023
36.045
36.058
36.061
36.055
36.039
36.013
35.977
35.932
35.879
35.819
35.754
35.684
35.611
35.535
35.457
35.378
35.298
35.219
35.138
35.058
34.976
34.893
34.808
34.722
34.633
34.544
34.454
34.365
34.277
34.191
34.108
34.028
33.952
33.879
33.811
33.747
33.686
33.63
33.577
33.527
33.478
33.432
33.389
33.348
33.311
33.277
33.248
33.221
33.196
33.173
33.152
33.132
33.113
33.096
33.081
33.067
33.056
33.045
33.035
33.025
33.014
33.003
32.99
32.976
32.961
32.947
32.933
32.919
32.905
32.892
32.878
32.865
32.851
32.836
32.82
32.803
32.785
32.766
32.746
32.726
32.706
32.687
32.669
32.653
32.643
32.638
32.642
32.657
32.687
32.735
32.806
32.905
33.034
33.197
33.393
33.618
33.868
34.143
34.442
34.765
35.109
35.473
35.852
36.241
36.634
37.024
37.405
37.77
38.114
38.43
38.716
38.966
39.18
39.356
39.493
39.592
39.655
39.683
39.681
39.651
39.596
39.521
39.429
39.321
39.203
39.076
38.943
38.807
38.668
38.528
38.388
38.249
38.111
37.975
37.84
37.707
37.576
37.445
37.314
37.185
37.056
36.928
36.802
36.677
36.553
36.43
36.308
36.187
36.068
35.952
35.838
35.729
35.623
35.522
35.426
35.337
35.254
35.176
35.107
35.046
34.996
34.956
34.928
34.913
34.91
34.921
34.944
34.979
35.026
35.084
35.149
35.221
35.298
35.377
35.456
35.534
35.609
35.679
35.743
35.798
35.845
35.882
35.91
35.927
35.935
35.933
35.92
35.895
35.86
35.814
35.76
35.699
35.632
35.562
35.489
35.414
35.339
35.262
35.186
35.11
35.033
34.956
34.88
34.803
34.726
34.647
34.568
34.489
34.41
34.33
34.25
34.171
34.091
34.013
33.937
33.862
33.791
33.723
33.66
33.601
33.545
33.493
33.444
33.397
33.351
33.308
33.267
33.229
33.193
33.16
33.128
33.097
33.068
33.04
33.013
32.987
32.962
32.94
32.92
32.902
32.887
32.873
32.86
32.849
32.839
32.829
32.82
32.811
32.8
32.787
32.771
32.753
32.732
32.71
32.688
32.666
32.644
32.622
32.601
32.58
32.561
32.543
32.527
32.514
32.503
32.496
32.492
32.493
32.499
32.513
32.537
32.573
32.625
32.696
32.789
32.909
33.058
33.239
33.457
33.711
34.003
34.331
34.691
35.078
35.485
35.906
36.334
36.76
37.176
37.576
37.951
38.297
38.609
38.883
39.119
39.315
39.474
39.596
39.683
39.736
39.759
39.754
39.724
39.673
39.603
39.517
39.417
39.305
39.183
39.054
38.92
38.781
38.639
38.494
38.348
38.201
38.054
37.908
37.765
37.623
37.484
37.346
37.211
37.078
36.948
36.821
36.698
36.577
36.457
36.338
36.22
36.102
35.987
35.874
35.764
35.657
35.555
35.457
35.366
35.282
35.206
35.139
35.082
35.034
34.996
34.968
34.95
34.942
34.944
34.957
34.979
35.01
35.049
35.095
35.148
35.206
35.27
35.338
35.409
35.482
35.554
35.625
35.692
35.753
35.807
35.854
35.892
35.92
35.936
35.94
35.931
35.91
35.876
35.832
35.779
35.72
35.654
35.582
35.506
35.426
35.343
35.259
35.173
35.087
35.002
34.916
34.831
34.747
34.664
34.582
34.502
34.422
34.342
34.262
34.181
34.101
34.021
33.94
33.861
33.784
33.708
33.635
33.564
33.496
33.431
33.37
33.312
33.26
33.215
33.175
33.14
33.11
33.084
33.06
33.038
33.017
32.997
32.979
32.961
32.943
32.925
32.907
32.889
32.871
32.854
32.837
32.821
32.806
32.791
32.776
32.76
32.741
32.721
32.699
32.676
32.653
32.631
32.611
32.593
32.578
32.565
32.554
32.546
32.539
32.534
32.53
32.528
32.527
32.526
32.526
32.527
32.529
32.532
32.54
32.552
32.571
32.6
32.641
32.698
32.775
32.874
33.0
33.158
33.35
33.58
33.847
34.152
34.492
34.864
35.262
35.68
36.108
36.54
36.968
37.382
37.777
38.145
38.482
38.783
39.047
39.271
39.455
39.6
39.706
39.775
39.809
39.812
39.787
39.738
39.669
39.584
39.485
39.376
39.257
39.13
38.998
38.862
38.722
38.58
38.436
38.292
38.146
38.0
37.854
37.709
37.566
37.424
37.284
37.146
37.01
36.877
36.746
36.617
36.49
36.366
36.243
36.12
36.0
35.881
35.763
35.648
35.536
35.428
35.326
35.231
35.146
35.07
35.006
34.954
34.914
34.886
34.873
34.873
34.887
34.914
34.953
35.004
35.064
35.132
35.206
35.284
35.363
35.444
35.523
35.6
35.672
35.739
35.8
35.854
35.9
35.937
35.966
35.985
35.993
35.991
35.979
35.959
35.929
35.891
35.846
35.792
35.733
35.668
35.598
35.524
35.446
35.364
35.279
35.191
35.1
35.007
34.913
34.817
34.721
34.625
34.529
34.435
34.343
34.254
34.168
34.087
34.012
33.941
33.874
33.811
33.751
33.693
33.638
33.583
33.531
33.48
33.431
33.382
33.335
33.288
33.242
33.198
33.154
33.11
33.068
33.028
32.991
32.957
32.926
32.899
32.876
32.856
32.841
32.829
32.821
32.817
32.816
32.817
32.818
32.818
32.817
32.814
32.808
32.799
32.787
32.774
32.759
32.741
32.721
32.7
32.677
32.653
32.63
32.608
32.587
32.567
32.548
32.531
32.517
32.505
32.497
32.493
32.494
32.501
32.516
32.54
32.577
32.629
32.701
32.795
32.916
33.069
33.257
33.482
33.747
34.049
34.388
34.758
35.156
35.576
36.009
36.447
36.883
37.309
37.717
38.101
38.455
38.775
39.056
39.299
39.501
39.664
39.789
39.877
39.931
39.952
39.944
39.908
39.849
39.771
39.676
39.569
39.451
39.327
39.196
39.062
38.925
38.786
38.645
38.503
38.359
38.216
