Trial 3:3back
34.614
34.598
34.582
34.566
34.549
34.534
34.519
34.505
34.492
34.48
34.468
34.457
34.447
34.437
34.427
34.418
34.409
34.399
34.39
34.379
34.369
34.358
34.347
34.337
34.327
34.318
34.309
34.301
34.294
34.287
34.281
34.275
34.27
34.264
34.258
34.253
34.247
34.241
34.235
34.23
34.226
34.222
34.217
34.212
34.206
34.2
34.192
34.183
34.173
34.161
34.147
34.133
34.118
34.102
34.087
34.073
34.061
34.05
34.042
34.037
34.035
34.036
34.042
34.051
34.067
34.089
34.117
34.154
34.199
34.253
34.316
34.389
34.471
34.562
34.661
34.765
34.875
34.987
35.099
35.211
35.319
35.422
35.518
35.605
35.681
35.746
35.799
35.84
35.869
35.886
35.892
35.889
35.878
35.86
35.835
35.807
35.775
35.742
35.708
35.674
35.641
35.609
35.579
35.55
35.524
35.501
35.481
35.463
35.447
35.432
35.419
35.406
35.394
35.382
35.369
35.357
35.345
35.334
35.323
35.312
35.3
35.287
35.273
35.258
35.243
35.227
35.209
35.191
35.172
35.153
35.134
35.116
35.099
35.084
35.071
35.06
35.052
35.047
35.045
35.047
35.054
35.063
35.076
35.091
35.107
35.123
35.138
35.151
35.162
35.168
35.172
35.172
35.168
35.162
35.152
35.141
35.128
35.113
35.098
35.082
35.065
35.048
35.032
35.015
34.999
34.983
34.969
34.956
34.943
34.93
34.917
34.904
34.891
34.876
34.861
34.844
34.826
34.807
34.786
34.763
34.74
34.716
34.692
34.669
34.646
34.625
34.606
34.589
34.573
34.559
34.547
34.536
34.527
34.517
34.509
34.5
34.492
34.483
34.474
34.464
34.455
34.445
34.436
34.425
34.415
34.405
34.395
34.385
34.377
34.369
34.362
34.356
34.349
34.342
34.334
34.326
34.317
34.307
34.296
34.283
34.27
34.255
34.239
34.223
34.207
34.192
34.177
34.164
34.152
34.141
34.131
34.123
34.116
34.113
34.113
34.117
34.127
34.142
34.166
34.197
34.238
34.289
34.349
34.419
34.498
34.586
34.681
34.782
34.887
34.993
35.1
35.203
35.302
35.394
35.479
35.556
35.623
35.681
35.727
35.763
35.788
35.802
35.806
35.801
35.788
35.768
35.743
35.715
35.685
35.654
35.622
35.592
35.563
35.537
35.512
35.491
35.471
35.454
35.438
35.424
35.411
35.398
35.387
35.375
35.364
35.352
35.341
35.331
35.32
35.309
35.298
35.287
35.275
35.262
35.249
35.234
35.218
35.2
35.181
35.161
35.14
35.12
35.1
35.081
35.063
35.046
35.032
35.021
35.014
35.009
35.008
35.01
35.014
35.02
35.029
35.039
35.05
35.062
35.073
35.083
35.092
35.1
35.106
35.11
35.111
35.11
35.107
35.102
35.095
35.086
35.075
35.063
35.05
35.036
35.022
35.007
34.993
34.98
34.967
34.954
34.941
34.929
34.917
34.905
34.893
34.881
34.869
34.856
34.843
34.829
34.814
34.798
34.781
34.763
34.743
34.722
34.7
34.678
34.656
34.635
34.615
34.596
34.58
34.565
34.552
34.541
34.531
34.523
34.515
34.508
34.501
34.493
34.486
34.479
34.472
34.465
34.46
34.454
34.45
34.446
34.443
34.439
34.437
34.434
34.431
34.428
34.425
34.42
34.415
34.409
34.402
34.394
34.385
34.374
34.363
34.35
34.337
34.324
34.31
34.298
34.286
34.276
34.268
34.263
34.262
34.265
34.275
34.291
34.317
34.352
34.398
34.456
34.524
34.604
34.695
34.795
34.904
35.019
35.139
35.261
35.384
35.505
35.622
35.733
35.837
35.932
36.019
36.095
36.161
36.217
36.262
36.297
36.322
36.339
36.348
36.351
36.348
36.342
36.333
36.322
36.31
36.298
36.287
36.276
36.266
36.256
36.247
36.238
36.229
36.219
36.21
36.201
36.192
36.183
36.173
36.163
36.152
36.141
36.131
36.122
36.114
36.106
36.099
36.091
36.082
36.072
36.061
36.047
36.031
36.013
35.992
35.968
35.942
35.914
35.885
35.854
35.821
35.788
35.755
35.723
35.693
35.663
35.635
35.609
35.585
35.562
35.541
35.522
35.504
35.489
35.475
35.463
35.453
35.445
35.439
35.434
35.429
35.423
35.415
35.407
35.396
35.384
35.37
35.354
35.337
35.318
35.298
35.277
35.256
35.234
35.212
35.191
35.169
35.147
35.125
35.102
35.079
35.055
35.03
35.005
34.981
34.957
34.934
34.913
34.895
34.879
34.867
34.858
34.852
34.848
34.846
34.845
34.846
34.847
34.848
34.849
34.85
34.849
34.846
34.842
34.837
34.831
34.823
34.815
34.805
34.795
34.786
34.776
34.767
34.759
34.752
34.747
34.743
34.741
34.739
34.738
34.738
34.737
34.736
34.735
34.734
34.731
34.728
34.724
34.719
34.713
34.706
34.7
34.694
34.688
34.683
34.679
34.676
34.676
34.677
34.682
34.69
34.702
34.718
34.741
34.771
34.809
34.857
34.915
34.983
35.062
35.15
35.247
35.352
35.464
35.582
35.704
35.829
35.954
36.078
36.197
36.311
36.415
36.51
36.593
36.665
36.725
36.772
36.808
36.833
36.849
36.855
36.854
36.846
36.833
36.816
36.796
36.773
36.749
36.724
36.7
36.675
36.652
36.629
36.608
36.588
36.57
36.554
36.538
36.523
36.509
36.495
36.482
36.469
36.458
36.447
36.437
36.426
36.414
36.401
36.386
36.37
36.352
36.333
36.314
36.293
36.272
36.251
36.228
36.205
36.182
36.159
36.137
36.115
36.094
36.076
36.059
36.045
36.034
36.026
36.021
36.018
36.018
36.02
36.024
36.03
36.037
36.045
36.053
36.06
36.067
36.072
36.075
36.076
36.076
36.074
36.07
36.066
36.06
36.054
36.046
36.038
36.028
36.018
36.007
35.996
35.984
35.972
35.96
35.948
35.936
35.924
35.912
35.901
35.891
35.88
35.87
35.859
35.848
35.838
35.826
35.814
35.802
35.789
35.776
35.762
35.747
35.732
35.717
35.702
35.688
35.675
35.662
35.651
35.641
35.631
35.621
35.611
35.601
35.59
35.578
35.565
35.549
35.532
35.514
35.495
35.475
35.455
35.436
35.418
35.402
35.386
35.371
35.357
35.344
35.332
35.32
35.307
35.294
35.28
35.265
35.249
35.23
35.211
35.191
35.171
35.151
35.132
35.113
35.095
35.078
35.063
35.051
35.042
35.036
35.036
35.041
35.053
35.073
35.102
35.141
35.191
35.253
35.326
35.411
35.507
35.613
35.727
35.847
35.973
36.1
36.228
36.353
36.472
36.583
36.686
36.778
36.86
36.929
36.985
37.029
37.06
37.079
37.088
37.087
37.077
37.062
37.042
37.019
36.995
36.97
36.945
36.922
36.9
36.881
36.865
36.852
36.841
36.834
36.829
36.827
36.826
36.827
36.829
36.832
36.835
36.838
36.839
36.84
36.839
36.835
36.83
36.822
36.812
36.8
36.786
36.771
36.753
36.733
36.713
36.691
36.669
36.648
36.627
36.607
36.589
36.572
36.558
36.547
36.54
36.536
36.536
36.538
36.543
36.55
36.558
36.567
36.576
36.585
36.593
36.6
36.605
36.607
36.607
36.604
36.598
36.589
36.577
36.563
36.547
36.53
36.512
36.492
36.472
36.45
36.429
36.407
36.386
36.366
36.345
36.324
36.303
36.281
36.26
36.237
36.215
36.193
36.17
36.148
36.125
36.101
36.077
36.053
36.028
36.004
35.979
35.955
35.931
35.908
35.884
35.859
35.835
35.811
35.787
35.764
35.743
35.722
35.702
35.684
35.666
35.65
35.634
35.619
35.604
35.59
35.577
35.564
35.553
35.542
35.531
35.522
35.513
35.504
35.494
35.484
35.474
35.462
35.45
35.436
35.423
35.409
35.394
35.379
35.364
35.349
35.334
35.318
35.303
35.287
35.272
35.256
35.241
35.225
35.21
35.197
35.184
35.175
35.168
35.165
35.167
35.176
35.191
35.214
35.247
35.289
35.341
35.405
35.479
35.563
35.657
35.761
35.871
35.988
36.11
36.234
36.359
36.482
36.603
36.719
36.827
36.927
37.016
37.094
37.159
37.212
37.252
37.28
37.297
37.303
37.301
37.291
37.274
37.252
37.226
37.197
37.168
37.138
37.109
37.082
37.056
37.032
37.01
36.991
36.974
36.958
36.944
36.932
36.92
36.909
36.899
36.889
36.88
36.87
36.86
36.848
36.836
36.822
36.806
36.788
36.769
36.748
36.725
36.702
36.677
36.652
36.626
36.601
36.576
36.554
36.533
36.514
36.499
36.486
36.477
36.47
36.467
36.465
36.466
36.468
36.471
36.475
36.479
36.482
36.484
36.485
36.485
36.483
36.479
36.474
36.468
36.461
36.452
36.443
36.433
36.421
36.409
36.395
36.381
36.365
36.349
36.332
36.313
36.294
36.273
36.251
36.229
36.206
36.183
36.16
36.137
36.113
36.088
36.064
36.039
36.016
35.992
35.97
35.948
35.926
35.904
35.882
35.86
35.839
35.819
35.8
35.781
35.763
35.746
35.728
35.711
35.693
35.676
35.66
35.643
35.627
35.61
35.593
35.575
35.557
35.538
35.52
35.501
35.483
35.465
35.447
35.429
35.413
35.397
35.381
35.367
35.352
35.339
35.324
35.31
35.294
35.277
35.258
35.238
35.215
35.191
35.165
35.138
35.111
35.085
35.061
35.038
35.017
34.999
34.982
34.968
34.957
34.948
34.944
34.945
34.95
34.962
34.982
35.01
35.049
35.1
35.162
35.236
35.322
35.419
35.525
35.64
35.761
35.886
36.013
36.139
36.262
36.38
36.491
36.594
36.687
36.769
36.839
36.899
36.946
36.982
37.006
37.02
37.024
37.02
37.009
36.993
36.974
36.952
36.928
36.903
36.877
36.853
36.829
36.806
36.785
36.766
36.748
36.731
36.716
36.703
36.691
36.68
36.669
36.658
36.648
36.637
36.626
36.614
36.602
36.589
36.575
36.561
36.547
36.531
36.515
36.497
36.477
36.456
36.432
36.408
36.383
36.358
36.334
36.31
36.289
36.27
36.253
36.24
36.23
36.224
36.222
36.223
36.226
36.232
36.24
36.248
36.256
36.264
36.27
36.275
36.278
36.278
36.276
36.271
36.263
36.252
36.239
36.223
36.205
36.184
36.162
36.139
36.116
36.092
36.068
36.044
36.02
35.997
35.975
35.953
35.931
35.911
35.89
35.871
35.852
35.834
35.816
35.797
35.779
35.758
35.737
35.714
35.69
35.664
35.638
35.612
35.586
35.56
35.534
35.51
35.485
35.462
35.441
35.421
35.402
35.384
35.368
35.352
35.336
35.32
35.304
35.287
35.271
35.253
35.235
35.217
35.198
35.179
35.16
35.143
35.126
35.111
35.096
35.082
35.069
35.058
35.047
35.037
35.026
35.015
35.003
34.99
34.976
34.961
34.947
34.932
34.919
34.907
34.896
34.886
34.875
34.865
34.855
34.843
34.831
34.817
34.802
34.786
34.769
34.75
34.73
34.71
34.69
34.669
34.649
34.63
34.612
34.597
34.584
34.576
34.573
34.577
34.589
34.61
34.641
34.683
34.737
34.803
34.882
34.974
35.077
35.191
35.314
35.443
35.579
35.717
35.857
35.995
36.129
36.257
36.378
36.488
36.587
36.674
36.747
36.806
36.853
36.886
36.907
36.918
36.919
36.912
36.898
36.88
36.859
36.835
36.81
36.785
36.762
36.741
36.722
36.706
36.694
36.684
36.676
36.671
36.667
36.664
36.662
36.661
36.66
36.66
36.659
36.658
36.656
36.654
36.651
36.647
36.644
36.639
36.633
36.626
36.616
36.605
36.59
36.574
36.555
36.536
36.515
36.494
36.472
36.451
36.43
36.411
36.393
36.377
36.365
36.355
36.348
36.344
36.343
36.346
36.351
36.358
36.366
36.375
36.384
36.391
36.397
36.401
36.402
36.4
36.396
36.389
36.378
36.364
36.347
36.327
36.305
36.282
36.258
36.233
36.208
36.183
36.158
36.133
36.109
36.086
36.064
36.043
36.022
36.0
35.979
35.958
35.937
35.915
35.894
35.872
35.849
35.826
35.802
35.776
35.749
35.721
35.691
35.661
35.632
35.603
35.575
35.548
35.523
35.5
35.478
35.457
35.437
35.418
35.4
35.382
35.365
35.349
35.333
35.318
35.303
35.289
35.274
35.259
35.244
35.228
35.211
35.195
35.178
35.162
35.147
35.132
35.118
35.105
35.091
35.078
35.065
35.052
35.038
35.025
35.013
35.002
34.991
34.981
34.971
34.961
34.951
34.941
34.93
34.919
34.907
34.895
34.882
34.869
34.856
34.843
34.83
34.816
34.803
34.789
34.776
34.763
34.75
34.737
34.724
34.71
34.695
34.679
34.661
34.642
34.621
34.599
34.576
34.552
34.528
34.503
34.478
34.453
34.429
34.406
34.386
34.368
34.354
34.345
34.342
34.347
34.359
34.382
34.416
34.463
34.522
34.595
34.681
34.781
34.893
35.016
35.148
35.287
35.432
35.58
35.728
35.874
36.016
36.152
36.278
36.393
36.496
36.585
36.659
36.718
36.764
36.797
36.819
36.83
36.833
36.828
36.818
36.804
36.786
36.768
36.749
36.729
36.711
36.693
36.675
36.658
36.641
36.626
36.611
36.597
36.585
36.574
36.563
36.554
36.546
36.539
36.533
36.529
36.525
36.522
36.52
36.519
36.517
36.515
36.513
36.509
36.504
36.497
36.487
36.476
36.463
36.448
36.431
36.413
36.395
36.376
36.358
36.34
36.324
36.31
36.299
36.29
36.284
36.281
36.28
36.281
36.285
36.29
36.296
36.303
36.311
36.319
36.327
36.334
36.339
36.342
36.344
36.343
36.34
36.334
36.325
36.313
36.297
36.279
36.258
36.235
36.21
36.185
36.159
36.134
36.11
36.086
36.062
36.039
36.016
35.992
35.968
35.945
35.921
35.898
35.874
35.85
35.825
35.799
35.773
35.746
35.72
35.693
35.667
35.642
35.619
35.596
35.574
35.553
35.532
35.511
35.49
35.469
35.448
35.427
35.405
35.383
35.361
35.339
35.317
35.295
35.273
35.252
35.231
35.211
35.191
35.171
35.151
35.132
35.114
35.095
35.077
35.059
35.042
35.027
35.013
35.0
34.988
34.977
34.965
34.953
34.941
34.928
34.915
34.902
34.888
34.875
34.861
34.847
34.833
34.819
34.806
34.793
34.781
34.768
34.756
34.743
34.73
34.716
34.703
34.69
34.677
34.663
34.649
34.636
34.622
34.609
34.596
34.583
34.571
34.559
34.547
34.535
34.522
34.51
34.496
34.481
34.465
34.448
34.431
34.412
34.393
34.374
34.355
34.337
34.319
34.303
34.288
34.276
34.266
34.259
34.257
34.261
34.271
34.289
34.318
34.357
34.409
34.475
34.555
34.649
34.757
34.876
35.007
35.146
35.292
35.442
35.592
35.741
35.886
36.023
36.153
36.271
36.378
36.472
36.552
36.617
36.668
36.706
36.731
36.745
36.749
36.744
36.732
36.715
36.693
36.668
36.641
36.614
36.586
36.559
36.534
36.509
36.487
36.465
36.446
36.429
36.414
36.401
36.391
36.382
36.374
36.368
36.362
36.357
36.351
36.347
36.342
36.338
36.334
36.33
36.325
36.319
36.313
36.305
36.294
36.282
36.267
36.249
36.229
36.208
36.186
36.163
36.141
36.12
36.101
36.086
36.075
36.068
36.066
36.069
36.076
36.085
36.097
36.109
36.121
36.133
36.143
36.152
36.157
36.161
36.161
36.157
36.151
36.143
36.131
36.118
36.104
36.088
36.07
36.052
36.032
36.011
35.988
35.964
35.94
35.915
35.89
35.865
35.841
35.817
35.794
35.772
35.751
35.73
35.71
35.689
35.669
35.647
35.626
35.604
35.583
35.561
35.54
35.519
35.498
35.478
35.459
35.441
35.424
35.408
35.392
35.378
35.363
35.347
35.332
35.316
35.3
35.283
35.265
35.247
35.228
35.21
35.192
35.174
35.157
35.142
35.127
35.113
35.101
35.09
35.079
35.07
35.062
35.053
35.045
35.036
35.027
35.018
35.009
34.999
34.989
34.979
34.968
34.957
34.946
34.934
34.922
34.91
34.897
34.885
34.871
34.858
34.844
34.83
34.816
34.803
34.788
34.774
34.758
34.743
34.726
34.71
34.693
34.677
34.66
34.644
34.628
34.613
34.597
34.581
34.565
34.547
34.527
34.505
34.482
34.457
34.431
34.404
34.377
34.351
34.324
34.298
34.274
34.251
34.231
34.213
34.2
34.19
34.185
34.187
34.195
34.21
34.235
34.27
34.317
34.375
34.446
34.53
34.627
34.736
34.858
34.99
35.13
35.275
35.425
35.574
35.722
35.866
36.002
36.131
36.249
36.356
36.45
36.531
36.599
36.655
36.698
36.731
36.754
36.768
36.775
36.776
36.771
36.763
36.751
36.738
36.724
36.708
36.692
36.676
36.661
36.646
36.632
36.619
36.607
36.597
36.587
36.579
36.571
36.565
36.559
36.554
36.549
36.545
36.541
36.537
36.532
36.526
36.519
36.51
36.5
36.488
36.475
36.46
36.445
36.43
36.414
36.398
36.382
36.367
36.353
36.34
36.328
36.317
36.309
36.303
36.299
36.298
36.299
36.302
36.306
36.311
36.315
36.319
36.322
36.323
36.321
36.317
36.31
36.3
36.287
36.272
36.254
36.235
36.213
36.191
36.167
36.143
36.12
36.097
36.075
36.054
36.035
36.016
35.998
35.98
35.962
35.943
35.922
35.9
35.875
35.847
35.816
35.781
35.744
35.704
35.663
35.62
35.576
35.532
35.488
35.445
35.402
35.361
35.321
35.283
35.247
35.213
35.18
35.15
35.122
35.096
35.072
35.051
35.032
35.016
35.001
34.987
34.975
34.963
34.953
34.943
34.933
34.924
34.916
34.908
34.9
34.892
34.885
34.878
34.87
34.863
34.856
34.848
34.841
34.834
34.827
34.82
34.813
34.806
34.8
34.793
34.787
34.781
34.776
34.772
34.769
34.767
34.765
34.764
34.764
34.765
34.766
34.767
34.767
34.767
34.765
34.762
34.757
34.751
34.743
34.734
34.724
34.712
34.7
34.688
34.675
34.662
34.65
34.638
34.626
34.615
34.606
34.599
34.595
34.596
34.602
34.615
34.636
34.665
34.704
34.754
34.815
34.888
34.97
35.064
35.167
35.278
35.398
35.525
35.655
35.789
35.922
36.054
36.182
36.304
36.418
36.522
36.617
36.699
36.77
36.828
36.875
36.91
36.933
36.946
36.95
36.946
36.935
36.917
36.896
36.871
36.844
36.817
36.789
36.761
36.734
36.707
36.681
36.655
36.629
36.602
36.575
36.548
36.521
36.493
36.465
36.437
36.408
36.379
36.351
36.323
36.295
36.267
36.24
36.213
36.187
36.161
36.136
36.113
36.09
36.067
36.047
36.027
36.01
35.994
35.981
35.97
35.961
35.955
35.951
35.949
35.95
35.954
35.961
35.97
35.981
35.994
36.008
36.024
36.04
36.055
36.07
36.083
36.094
36.102
36.107
36.108
36.106
36.102
36.095
36.085
36.074
36.062
36.048
36.035
36.021
36.008
35.995
35.983
35.971
35.958
35.944
35.929
35.912
35.893
35.871
35.848
35.823
35.796
35.768
35.739
35.71
35.682
35.653
35.626
35.599
35.573
35.547
35.522
35.497
35.472
35.448
35.425
35.402
35.379
35.357
35.336
35.316
35.297
35.279
35.263
35.247
35.232
35.217
35.202
35.187
35.171
35.154
35.136
35.118
35.098
35.078
35.057
35.035
35.014
34.992
34.972
34.952
34.933
34.914
34.897
34.881
34.866
34.85
34.834
34.817
34.8
34.781
34.762
34.741
34.719
34.695
34.67
34.644
34.619
34.593
34.568
34.544
34.521
34.499
34.479
34.462
34.447
34.436
34.428
34.425
34.427
34.435
34.45
34.473
34.506
34.55
34.604
34.671
34.75
34.842
34.946
35.061
35.187
35.32
35.46
35.605
35.751
35.896
36.039
36.176
36.307
36.429
36.542
36.644
36.734
36.813
36.88
36.935
36.979
37.012
37.036
37.052
37.06
37.062
37.06
37.053
37.045
37.034
37.022
37.01
36.998
36.985
36.971
36.957
36.943
36.929
36.916
36.903
36.89
36.877
36.865
36.853
36.842
36.831
36.819
36.808
36.797
36.785
36.772
36.758
36.741
36.722
36.702
36.679
36.655
36.629
36.603
36.576
36.55
36.525
36.5
36.478
36.457
36.438
36.423
36.41
36.401
36.394
36.391
36.391
36.394
36.398
36.405
36.413
36.421
36.43
36.438
36.446
36.453
36.458
36.46
36.461
36.458
36.453
36.445
36.435
36.421
36.405
36.386
36.364
36.34
36.314
36.286
36.257
36.229
36.201
36.173
36.147
36.122
36.097
36.073
36.049
36.025
36.0
35.975
35.949
35.922
35.895
35.867
35.838
35.809
35.781
35.753
35.725
35.698
35.671
35.644
35.617
35.59
35.564
35.538
35.512
35.486
35.46
35.434
35.408
35.383
35.358
35.335
35.313
35.294
35.276
35.26
35.246
35.234
35.222
35.211
35.2
35.19
35.179
35.169
35.159
35.149
35.138
35.128
35.118
35.107
35.097
35.086
35.075
35.062
35.049
35.034
35.018
35.001
34.982
34.962
34.94
34.916
34.892
34.866
34.84
34.815
34.79
34.768
34.746
34.727
34.71
34.697
34.688
34.683
34.685
34.694
34.71
34.737
34.774
34.824
34.885
34.959
35.045
35.144
35.256
35.378
35.51
35.651
35.797
35.948
36.101
36.254
36.404
36.549
36.687
36.816
36.935
37.042
37.135
37.214
37.28
37.332
37.371
37.399
37.416
37.423
37.422
37.415
37.402
37.385
37.365
37.343
37.319
37.293
37.267
37.24
37.213
37.186
37.159
37.133
37.108
37.085
37.063
37.043
37.025
37.009
36.995
36.984
36.974
36.965
36.957
36.949
36.941
36.932
36.921
36.909
36.895
36.88
36.862
36.843
36.822
36.8
36.777
36.754
36.732
36.711
36.692
36.675
36.66
36.648
36.64
36.635
36.634
36.636
36.64
36.647
36.655
36.663
36.671
36.678
36.684
36.688
36.69
