Trial 3:3back
33.438
33.401
33.367
33.336
33.307
33.278
33.25
33.221
33.191
33.161
33.132
33.104
33.076
33.049
33.024
33.0
32.98
32.963
32.949
32.938
32.93
32.924
32.919
32.915
32.911
32.905
32.898
32.887
32.873
32.856
32.837
32.816
32.794
32.77
32.745
32.719
32.695
32.672
32.653
32.637
32.626
32.62
32.621
32.63
32.647
32.675
32.714
32.768
32.839
32.93
33.041
33.175
33.334
33.518
33.727
33.959
34.213
34.486
34.774
35.076
35.388
35.707
36.029
36.352
36.671
36.985
37.289
37.58
37.854
38.109
38.341
38.551
38.736
38.894
39.024
39.126
39.198
39.242
39.258
39.248
39.213
39.156
39.078
38.982
38.871
38.749
38.619
38.482
38.341
38.2
38.059
37.921
37.785
37.654
37.526
37.403
37.284
37.168
37.056
36.946
36.838
36.733
36.631
36.53
36.431
36.333
36.236
36.14
36.044
35.949
35.856
35.764
35.675
35.588
35.504
35.425
35.35
35.282
35.221
35.169
35.124
35.087
35.06
35.041
35.033
35.033
35.043
35.061
35.088
35.121
35.16
35.204
35.246
35.278
35.298
35.307
35.306
35.299
35.289
35.279
35.271
35.265
35.263
35.265
35.271
35.279
35.287
35.295
35.299
35.298
35.291
35.278
35.257
35.229
35.193
35.151
35.103
35.049
34.99
34.926
34.859
34.787
34.714
34.639
34.563
34.488
34.413
34.338
34.263
34.191
34.12
34.053
33.99
33.932
33.879
33.831
33.788
33.749
33.713
33.68
33.65
33.621
33.594
33.569
33.544
33.522
33.501
33.48
33.461
33.443
33.425
33.409
33.393
33.377
33.362
33.348
33.333
33.318
33.304
33.29
33.277
33.264
33.25
33.235
33.219
33.203
33.185
33.168
33.151
33.134
33.117
33.1
33.081
33.061
33.04
33.018
32.996
32.973
32.95
32.926
32.901
32.878
32.858
32.842
32.83
32.824
32.826
32.835
32.853
32.884
32.931
32.997
33.085
33.196
33.332
33.493
33.68
33.892
34.127
34.385
34.662
34.956
35.262
35.578
35.901
36.226
36.552
36.874
37.19
37.495
37.786
38.06
38.314
38.545
38.751
38.93
39.079
39.198
39.288
39.348
39.381
39.387
39.368
39.326
39.263
39.181
39.083
38.97
38.846
38.714
38.575
38.433
38.291
38.149
38.01
37.872
37.738
37.608
37.481
37.357
37.238
37.124
37.014
36.908
36.805
36.704
36.605
36.506
36.409
36.311
36.215
36.123
36.037
35.96
35.889
35.824
35.765
35.708
35.654
35.601
35.55
35.5
35.453
35.409
35.368
35.332
35.299
35.272
35.25
35.235
35.229
35.23
35.239
35.255
35.276
35.304
35.336
35.372
35.409
35.447
35.482
35.514
35.543
35.567
35.587
35.602
35.61
35.611
35.603
35.586
35.56
35.526
35.484
35.436
35.383
35.324
35.261
35.193
35.122
35.049
34.976
34.901
34.827
34.754
34.681
34.61
34.541
34.475
34.412
34.352
34.295
34.241
34.188
34.136
34.087
34.039
33.993
33.948
33.903
33.858
33.811
33.764
33.716
33.67
33.625
33.582
33.54
33.501
33.465
33.431
33.401
33.374
33.349
33.327
33.307
33.288
33.27
33.252
33.237
33.223
33.21
33.198
33.186
33.174
33.161
33.147
33.132
33.117
33.1
33.081
33.06
33.038
33.016
32.995
32.975
32.956
32.938
32.922
32.906
32.891
32.876
32.862
32.847
32.831
32.815
32.799
32.783
32.768
32.754
32.743
32.735
32.731
32.733
32.741
32.759
32.786
32.826
32.882
32.957
33.055
33.178
33.327
33.503
33.704
33.929
34.175
34.439
34.719
35.011
35.312
35.62
35.93
36.241
36.548
36.851
37.146
37.431
37.704
37.961
38.2
38.417
38.611
38.779
38.919
39.031
39.114
39.169
39.196
39.195
39.17
39.12
39.05
38.96
38.855
38.736
38.608
38.473
38.333
38.192
38.05
37.91
37.772
37.636
37.503
37.374
37.248
37.127
37.009
36.896
36.787
36.68
36.576
36.473
36.372
36.272
36.174
36.076
35.979
35.883
35.789
35.697
35.607
35.521
35.44
35.365
35.295
35.232
35.176
35.129
35.091
35.062
35.041
35.027
35.021
35.022
35.031
35.046
35.068
35.095
35.127
35.164
35.203
35.244
35.286
35.328
35.37
35.409
35.445
35.478
35.504
35.526
35.541
35.549
35.55
35.545
35.533
35.516
35.493
35.465
35.433
35.396
35.354
35.308
35.259
35.206
35.151
35.093
35.032
34.969
34.904
34.839
34.774
34.708
34.641
34.574
34.506
34.437
34.368
34.298
34.229
34.16
34.092
34.026
33.963
33.904
33.848
33.798
33.752
33.711
33.675
33.642
33.614
33.589
33.566
33.545
33.526
33.508
33.492
33.478
33.464
33.451
33.438
33.425
33.412
33.4
33.387
33.375
33.363
33.351
33.339
33.328
33.318
33.309
33.3
33.292
33.285
33.278
33.272
33.269
33.268
33.267
33.266
33.264
33.259
33.25
33.238
33.221
33.201
33.177
33.151
33.123
33.092
33.061
33.03
33.002
32.978
32.961
32.951
32.952
32.965
32.993
33.039
33.105
33.193
33.304
33.44
33.602
33.787
33.997
34.229
34.48
34.749
35.032
35.325
35.625
35.929
36.234
36.537
36.836
37.128
37.41
37.678
37.93
38.164
38.378
38.569
38.735
38.875
38.988
39.074
39.132
39.163
39.167
39.147
39.103
39.038
38.955
38.856
38.745
38.625
38.495
38.36
38.221
38.08
37.939
37.8
37.663
37.53
37.401
37.276
37.154
37.036
36.922
36.811
36.703
36.596
36.492
36.389
36.287
36.187
36.087
35.988
35.89
35.793
35.697
35.605
35.517
35.433
35.355
35.283
35.219
35.161
35.113
35.074
35.045
35.027
35.017
35.014
35.017
35.025
35.039
35.058
35.081
35.107
35.137
35.17
35.205
35.244
35.286
35.329
35.371
35.411
35.447
35.477
35.501
35.518
35.527
35.527
35.519
35.502
35.477
35.445
35.406
35.362
35.315
35.263
35.209
35.153
35.095
35.036
34.975
34.913
34.849
34.784
34.717
34.65
34.583
34.515
34.448
34.381
34.315
34.251
34.189
34.129
34.072
34.017
33.964
33.913
33.865
33.82
33.777
33.737
33.7
33.667
33.636
33.608
33.581
33.553
33.521
33.484
33.444
33.403
33.362
33.322
33.286
33.254
33.227
33.205
33.188
33.175
33.166
33.161
33.157
33.156
33.155
33.156
33.157
33.158
33.159
33.159
33.157
33.153
33.146
33.138
33.128
33.117
33.105
33.091
33.075
33.059
33.043
33.027
33.011
32.996
32.98
32.962
32.943
32.922
32.902
32.883
32.865
32.85
32.84
32.836
32.84
32.855
32.884
32.931
32.997
33.087
33.2
33.34
33.507
33.701
33.922
34.168
34.435
34.719
35.018
35.327
35.643
35.963
36.283
36.601
36.913
37.216
37.509
37.788
38.051
38.295
38.518
38.719
38.894
39.044
39.167
39.261
39.327
39.364
39.374
39.359
39.321
39.262
39.185
39.092
38.985
38.866
38.739
38.605
38.467
38.327
38.185
38.044
37.903
37.765
37.63
37.499
37.372
37.249
37.13
37.014
36.901
36.79
36.683
36.577
36.474
36.372
36.273
36.174
36.076
35.979
35.884
35.792
35.704
35.62
35.542
35.471
35.407
35.351
35.305
35.268
35.24
35.22
35.207
35.201
35.202
35.209
35.221
35.239
35.26
35.285
35.311
35.341
35.372
35.405
35.438
35.47
35.502
35.532
35.559
35.583
35.602
35.616
35.625
35.626
35.62
35.606
35.586
35.558
35.525
35.487
35.442
35.392
35.337
35.28
35.222
35.162
35.103
35.047
34.994
34.942
34.891
34.84
34.787
34.733
34.677
34.617
34.555
34.49
34.423
34.354
34.285
34.217
34.151
34.087
34.025
33.966
33.91
33.858
33.809
33.763
33.72
33.679
33.641
33.606
33.574
33.545
33.519
33.494
33.47
33.447
33.422
33.396
33.369
33.342
33.316
33.291
33.269
33.248
33.23
33.215
33.203
33.193
33.186
33.181
33.177
33.174
33.17
33.164
33.158
33.15
33.142
33.132
33.122
33.11
33.098
33.084
33.071
33.058
33.047
33.036
33.024
33.01
32.994
32.975
32.955
32.934
32.913
32.892
32.871
32.85
32.831
32.814
32.803
32.8
32.808
32.828
32.863
32.917
32.992
33.091
33.217
33.37
33.551
33.758
33.99
34.244
34.517
34.806
35.107
35.418
35.735
36.054
36.373
36.688
36.997
37.298
37.59
37.868
38.132
38.377
38.603
38.806
38.984
39.135
39.257
39.351
39.416
39.454
39.465
39.452
39.418
39.362
39.286
39.193
39.084
38.961
38.827
38.684
38.535
38.383
38.23
38.078
37.93
37.785
37.645
37.51
37.38
37.256
37.138
37.023
36.913
36.805
36.7
36.598
36.497
36.399
36.304
36.21
36.119
36.029
35.942
35.857
35.775
35.696
35.621
35.55
35.484
35.424
35.37
35.324
35.287
35.259
35.24
35.229
35.227
35.235
35.25
35.274
35.303
35.338
35.375
35.414
35.452
35.488
35.522
35.553
35.582
35.606
35.627
35.645
35.657
35.665
35.669
35.668
35.663
35.653
35.638
35.617
35.592
35.561
35.524
35.483
35.437
35.387
35.331
35.272
35.209
35.145
35.08
35.014
34.95
34.886
34.822
34.758
34.695
34.631
34.567
34.502
34.438
34.373
34.31
34.248
34.188
34.131
34.076
34.023
33.974
33.927
33.884
33.843
33.805
33.77
33.736
33.704
33.674
33.645
33.617
33.589
33.562
33.535
33.509
33.482
33.457
33.433
33.411
33.392
33.374
33.358
33.343
33.328
33.314
33.302
33.29
33.28
33.27
33.26
33.251
33.241
33.23
33.22
33.211
33.204
33.197
33.192
33.188
33.184
33.181
33.177
33.172
33.164
33.156
33.145
33.133
33.118
33.103
33.085
33.066
33.046
33.026
33.006
32.986
32.968
32.953
32.942
32.937
32.939
32.951
32.975
33.013
33.07
33.146
33.246
33.371
33.524
33.705
33.915
34.151
34.411
34.692
34.991
35.304
35.626
35.953
36.28
36.603
36.917
37.22
37.511
37.786
38.044
38.283
38.503
38.702
38.877
39.029
39.154
39.254
39.327
39.373
39.393
39.388
39.358
39.306
39.231
39.139
39.03
38.909
38.777
38.638
38.493
38.346
38.199
38.052
37.908
37.767
37.632
37.501
37.375
37.254
37.136
37.023
36.912
36.805
36.701
36.599
36.499
36.402
36.307
36.215
36.125
36.038
35.953
35.872
35.794
35.719
35.647
35.58
35.517
35.46
35.41
35.368
35.334
35.307
35.289
35.277
35.274
35.278
35.291
35.31
35.335
35.364
35.396
35.431
35.468
35.505
35.543
35.58
35.615
35.646
35.673
35.695
35.711
35.72
35.724
35.721
35.712
35.697
35.676
35.65
35.618
35.582
35.542
35.497
35.449
35.399
35.347
35.292
35.236
35.178
35.119
35.059
34.998
34.936
34.873
34.81
34.746
34.683
34.618
34.554
34.491
34.429
34.368
34.308
34.251
34.194
34.139
34.086
34.034
33.985
33.938
33.893
33.851
33.812
33.776
33.743
33.711
33.682
33.654
33.628
33.604
33.58
33.557
33.532
33.507
33.48
33.454
33.428
33.403
33.38
33.358
33.338
33.318
33.301
33.287
33.274
33.264
33.256
33.249
33.243
33.237
33.231
33.224
33.217
33.209
33.2
33.19
33.18
33.169
33.158
33.147
33.136
33.123
33.105
33.076
33.037
32.99
32.939
32.887
32.839
32.797
32.764
32.743
32.733
32.736
32.752
32.78
32.821
32.875
32.946
33.033
33.14
33.268
33.418
33.593
33.792
34.016
34.264
34.533
34.821
35.123
35.436
35.755
36.076
36.396
36.709
37.013
37.305
37.582
37.844
38.089
38.316
38.523
38.71
38.873
39.012
39.126
39.214
39.277
39.315
39.328
39.319
39.289
39.239
39.171
39.087
38.988
38.878
38.757
38.628
38.494
38.355
38.213
38.071
37.929
37.789
37.652
37.52
37.391
37.266
37.144
37.026
36.912
36.8
36.692
36.586
36.483
36.383
36.285
36.19
36.097
36.007
35.92
35.835
35.754
35.677
35.604
35.536
35.474
35.418
35.368
35.326
35.29
35.262
35.242
35.23
35.226
35.231
35.244
35.264
35.29
35.32
35.355
35.392
35.433
35.475
35.519
35.563
35.607
35.648
35.685
35.718
35.746
35.767
35.781
35.788
35.787
35.778
35.76
35.734
35.701
35.661
35.615
35.563
35.508
35.45
35.39
35.329
35.268
35.206
35.145
35.083
35.021
34.958
34.894
34.829
34.763
34.696
34.629
34.564
34.5
34.439
34.38
34.323
34.267
34.213
34.161
34.111
34.064
34.019
33.976
33.934
33.894
33.856
33.82
33.785
33.752
33.72
33.69
33.661
33.633
33.607
33.583
33.561
33.54
33.52
33.501
33.481
33.46
33.438
33.416
33.395
33.375
33.356
33.341
33.33
33.322
33.317
33.314
33.313
33.312
33.31
33.306
33.301
33.293
33.283
33.271
33.255
33.239
33.22
33.2
33.179
33.156
33.133
33.111
33.089
33.072
33.058
33.048
33.042
33.039
33.038
33.04
33.045
33.053
33.067
33.088
33.119
33.163
33.224
33.305
33.412
33.545
33.708
33.9
34.12
34.366
34.636
34.926
35.232
35.55
35.874
36.2
36.524
36.842
37.149
37.444
37.723
37.984
38.226
38.447
38.647
38.823
38.973
39.098
39.196
39.267
39.312
39.331
39.326
39.298
39.249
39.181
39.097
38.997
38.885
38.762
38.63
38.49
38.346
38.198
38.049
37.901
37.755
37.612
37.473
37.34
37.212
37.091
36.975
36.864
36.757
36.652
36.55
36.448
36.348
36.247
36.146
36.044
35.943
35.841
35.742
35.645
35.552
35.464
35.383
35.309
35.242
35.185
35.136
35.097
35.068
35.049
35.04
35.041
35.052
35.071
35.099
35.133
35.172
35.216
35.261
35.306
35.35
35.393
35.432
35.469
35.501
35.53
35.555
35.578
35.597
35.611
35.62
35.625
35.625
35.62
35.61
35.595
35.575
35.549
35.52
35.488
35.452
35.413
35.37
35.323
35.271
35.216
35.156
35.093
35.025
34.954
34.88
34.805
34.728
34.651
34.575
34.5
34.428
34.357
34.29
34.226
34.165
34.106
34.051
33.998
33.948
33.899
33.853
33.81
33.77
33.732
33.698
33.665
33.635
33.605
33.577
33.551
33.526
33.503
33.481
33.461
33.443
33.425
33.407
33.391
33.375
33.362
33.35
33.34
33.331
33.323
33.315
33.306
33.296
33.285
33.274
33.262
33.25
33.237
33.224
33.211
33.198
33.185
33.172
33.159
33.147
33.136
33.124
33.111
33.098
33.083
33.068
33.052
33.036
33.02
33.004
32.988
32.973
32.961
32.955
32.958
32.97
32.994
33.034
33.091
33.168
33.268
33.393
33.546
33.725
33.931
34.161
34.414
34.687
34.976
35.278
35.587
35.898
36.208
36.511
36.805
37.088
37.355
37.606
37.838
38.051
38.244
38.416
38.568
38.699
38.81
38.9
38.969
39.018
39.046
39.056
39.046
39.019
38.974
38.914
38.84
38.753
38.656
38.548
38.432
38.309
38.181
38.049
37.916
37.783
37.649
37.518
37.389
37.262
37.14
37.02
36.905
36.794
36.686
36.581
36.479
36.381
36.285
36.193
36.103
36.016
35.932
35.85
35.771
35.696
35.627
35.564
35.507
35.459
35.418
35.386
35.363
35.348
35.342
35.344
35.354
35.372
35.397
35.426
35.461
35.5
35.542
35.586
35.631
35.678
35.723
35.769
35.814
35.859
35.901
35.94
35.973
36.0
36.02
36.031
36.036
36.032
36.022
36.003
35.977
35.944
35.904
35.856
35.804
35.746
35.684
35.617
35.546
35.473
35.398
35.322
35.245
35.169
35.093
35.017
34.943
34.872
34.804
34.738
34.675
34.616
34.562
34.513
34.467
34.423
34.382
34.343
34.304
34.265
34.226
34.186
34.146
34.106
34.065
34.025
33.984
33.944
33.905
33.868
33.834
33.803
33.775
33.75
33.727
33.705
33.686
33.668
33.651
33.637
33.625
33.616
33.608
33.601
33.595
33.59
33.586
33.582
33.578
33.573
33.568
33.56
33.55
33.538
33.526
33.512
33.496
33.479
33.462
33.443
33.423
33.404
33.384
33.367
33.353
33.343
33.34
33.345
33.36
33.387
33.43
33.49
33.572
33.677
33.808
33.964
34.149
34.361
34.598
34.857
35.135
35.428
35.731
36.041
36.352
36.661
36.965
37.26
37.544
37.813
38.066
38.3
38.515
38.709
38.881
39.03
39.157
39.262
39.344
39.403
39.439
39.454
39.447
39.419
39.373
39.31
39.232
39.139
39.033
38.917
38.791
38.659
38.524
38.387
38.25
38.117
37.987
37.862
37.742
37.625
37.512
37.403
37.297
37.192
37.088
36.986
36.885
36.785
36.686
36.588
36.493
36.4
36.309
36.221
36.136
36.054
35.978
35.906
35.839
35.78
35.729
35.687
35.655
35.633
35.62
35.615
35.619
35.629
35.647
35.67
35.699
35.732
35.767
35.805
35.843
35.879
35.915
35.949
35.981
36.011
36.037
36.059
36.076
36.088
36.095
36.097
36.094
36.085
36.069
36.047
36.019
35.986
35.948
35.904
35.857
35.804
35.748
35.689
35.628
35.566
35.504
35.441
35.378
35.315
35.251
35.187
35.123
35.06
34.997
34.935
34.872
34.81
34.749
34.691
34.634
34.579
34.526
34.476
34.429
34.385
34.344
34.306
34.27
34.238
34.21
34.185
34.163
34.143
34.122
34.102
34.082
34.06
34.038
34.014
33.989
33.963
33.937
33.911
33.886
33.862
33.839
33.818
33.798
33.779
33.76
33.742
33.724
33.707
33.689
33.671
33.652
33.632
33.613
33.593
33.574
33.556
33.536
33.514
33.491
33.466
33.441
33.416
33.393
33.372
33.354
33.342
33.335
33.335
33.344
33.364
33.397
33.446
33.513
33.602
33.713
33.85
34.013
34.202
34.418
34.657
34.919
35.201
35.498
35.807
36.124
36.446
36.769
37.089
37.402
37.706
37.998
38.273
38.529
38.764
38.974
39.159
39.316
39.446
39.55
39.627
39.68
39.709
39.717
39.704
39.671
39.621
39.555
39.476
39.385
39.286
39.179
39.065
38.947
38.823
38.696
38.565
38.433
38.3
38.168
38.039
37.914
37.792
37.674
37.561
37.452
37.347
37.244
37.145
37.048
36.953
36.859
36.765
36.671
36.578
36.486
36.396
36.308
36.223
36.143
36.068
36.0
35.94
35.889
35.847
35.814
35.79
35.775
35.77
35.773
35.783
35.8
35.821
35.848
35.877
35.909
35.942
35.976
36.011
36.046
36.079
36.109
36.137
36.162
36.183
36.199
36.209
36.212
36.209
36.198
36.181
36.157
36.127
36.091
36.049
36.001
35.949
35.892
35.832
35.769
35.704
35.636
35.568
35.498
35.429
35.363
35.298
35.237
35.178
35.121
35.066
35.011
34.955
34.9
34.844
34.786
34.727
34.667
34.607
34.548
34.491
34.438
34.389
34.343
34.302
34.265
34.232
34.202
34.174
34.148
34.122
34.097
34.071
34.046
34.02
33.995
33.97
33.946
33.922
33.901
33.881
33.864
33.847
33.832
33.819
33.806
33.795
33.784
33.775
33.766
33.755
33.743
33.728
33.711
33.692
33.67
33.646
33.621
33.593
33.564
33.532
33.498
33.465
33.433
33.404
33.378
33.357
33.341
33.333
33.332
33.341
33.359
33.39
33.436
33.5
33.582
33.687
33.815
33.968
34.146
34.351
34.581
34.835
35.109
35.399
35.703
36.015
36.333
36.651
36.966
37.275
37.573
37.86
38.132
38.387
38.623
38.838
39.03
39.199
39.343
39.462
39.557
39.627
39.673
39.695
39.694
39.673
39.632
39.573
39.497
39.406
39.303
39.19
39.069
38.943
38.812
38.679
38.545
38.412
38.281
38.153
38.03
37.91
37.796
37.685
37.577
37.473
37.371
37.273
37.176
37.08
36.985
36.889
36.793
36.695
36.597
36.499
36.403
36.309
36.219
36.135
36.058
35.989
35.927
35.874
35.831
35.796
35.771
35.755
35.747
35.748
35.756
35.77
35.788
35.811
35.836
35.865
35.895
35.926
35.958
35.989
36.019
36.047
36.074
36.097
36.117
36.133
36.144
36.151
36.153
36.149
36.14
36.124
36.103
36.075
36.042
36.003
35.96
35.912
35.861
35.805
35.745
35.68
35.612
35.542
35.469
35.395
35.32
35.245
35.171
35.098
35.027
34.958
34.89
34.824
34.76
34.699
34.641
34.586
34.532
34.478
34.426
34.375
34.327
34.28
34.238
34.199
34.164
34.133
34.105
34.081
34.061
34.042
34.025
34.008
33.992
33.974
33.954
33.933
33.911
33.889
33.866
33.843
33.82
33.798
33.776
33.755
33.735
33.717
33.699
33.682
33.663
33.645
33.626
33.607
33.588
33.57
33.551
33.532
33.513
33.493
33.473
33.453
33.433
33.414
33.396
33.377
33.358
33.339
33.321
33.304
33.29
33.282
33.278
33.28
33.289
33.307
33.337
33.38
33.441
33.522
33.625
33.752
33.905
34.084
34.291
34.523
34.78
35.057
35.352
35.661
35.978
36.301
36.625
36.947
37.264
37.57
37.864
38.142
38.402
38.64
38.857
39.05
39.216
39.356
39.468
39.553
39.612
39.645
39.655
39.641
39.607
39.554
39.484
39.4
39.304
39.199
39.086
38.967
38.844
38.718
38.59
38.463
38.337
38.213
38.091
37.972
37.857
37.744
37.634
37.526
37.421
37.317
37.213
37.11
37.008
36.907
36.806
36.707
36.609
36.515
36.424
36.338
36.258
36.185
36.118
36.056
36.002
35.957
35.919
35.89
35.869
35.854
35.846
35.844
35.849
35.861
35.878
35.9
35.924
35.951
35.979
36.008
36.036
36.064
36.091
36.115
36.136
36.153
36.166
36.176
36.182
36.183
36.18
36.172
36.158
