Trial 3:3back
35.423
35.608
35.787
35.958
36.122
36.279
36.43
36.575
36.716
36.853
36.983
37.108
37.225
37.335
37.436
37.527
37.607
37.674
37.728
37.768
37.795
37.81
37.812
37.802
37.782
37.753
37.717
37.676
37.633
37.588
37.543
37.499
37.457
37.419
37.383
37.351
37.321
37.292
37.264
37.236
37.205
37.172
37.136
37.096
37.053
37.007
36.958
36.907
36.855
36.805
36.757
36.711
36.667
36.625
36.585
36.547
36.51
36.476
36.443
36.412
36.384
36.357
36.332
36.309
36.286
36.265
36.245
36.229
36.215
36.206
36.201
36.199
36.2
36.204
36.209
36.217
36.225
36.235
36.244
36.253
36.262
36.27
36.276
36.28
36.282
36.279
36.272
36.259
36.241
36.218
36.189
36.156
36.119
36.078
36.034
35.986
35.937
35.886
35.835
35.786
35.739
35.695
35.652
35.612
35.574
35.539
35.505
35.473
35.441
35.409
35.377
35.344
35.31
35.275
35.239
35.201
35.161
35.118
35.073
35.025
34.975
34.925
34.875
34.826
34.781
34.738
34.699
34.662
34.63
34.601
34.577
34.558
34.544
34.533
34.523
34.514
34.504
34.494
34.482
34.469
34.454
34.438
34.42
34.4
34.378
34.355
34.33
34.305
34.278
34.25
34.221
34.191
34.159
34.127
34.095
34.064
34.033
34.003
33.973
33.944
33.914
33.886
33.86
33.837
33.819
33.806
33.798
33.796
33.801
33.812
33.833
33.863
33.904
33.959
34.028
34.112
34.212
34.329
34.461
34.608
34.77
34.945
35.129
35.322
35.519
35.72
35.92
36.119
36.313
36.502
36.683
36.854
37.013
37.16
37.292
37.41
37.512
37.598
37.669
37.725
37.765
37.792
37.805
37.807
37.799
37.783
37.76
37.732
37.701
37.666
37.629
37.591
37.553
37.515
37.478
37.442
37.408
37.375
37.344
37.313
37.282
37.25
37.215
37.179
37.139
37.097
37.051
37.003
36.952
36.898
36.844
36.795
36.753
36.718
36.689
36.662
36.637
36.61
36.579
36.544
36.504
36.46
36.412
36.361
36.308
36.255
36.203
36.153
36.106
36.063
36.027
35.996
35.972
35.953
35.938
35.928
35.92
35.917
35.915
35.917
35.92
35.926
35.933
35.94
35.949
35.957
35.965
35.973
35.978
35.98
35.979
35.973
35.963
35.948
35.928
35.903
35.873
35.837
35.798
35.754
35.707
35.657
35.607
35.556
35.505
35.454
35.405
35.356
35.309
35.264
35.221
35.179
35.139
35.1
35.061
35.022
34.984
34.946
34.91
34.874
34.84
34.807
34.774
34.743
34.712
34.681
34.651
34.621
34.591
34.56
34.529
34.498
34.466
34.435
34.404
34.374
34.346
34.318
34.29
34.263
34.237
34.212
34.189
34.167
34.147
34.128
34.109
34.091
34.074
34.058
34.045
34.033
34.023
34.014
34.006
33.998
33.989
33.98
33.97
33.958
33.944
33.928
33.91
33.89
33.868
33.845
33.82
33.793
33.766
33.738
33.708
33.679
33.65
33.622
33.596
33.572
33.549
33.527
33.504
33.48
33.457
33.438
33.429
33.431
33.447
33.474
33.513
33.564
33.625
33.698
33.783
33.881
33.992
34.115
34.252
34.401
34.563
34.736
34.92
35.111
35.308
35.508
35.71
35.91
36.107
36.298
36.481
36.655
36.817
36.963
37.093
37.205
37.299
37.377
37.438
37.483
37.514
37.531
37.537
37.534
37.522
37.504
37.481
37.453
37.42
37.385
37.346
37.305
37.262
37.218
37.172
37.127
37.08
37.032
36.984
36.934
36.885
36.836
36.788
36.74
36.692
36.645
36.599
36.552
36.505
36.458
36.409
36.359
36.308
36.257
36.205
36.153
36.102
36.051
36.002
35.955
35.91
35.867
35.827
35.791
35.758
35.731
35.709
35.692
35.68
35.671
35.666
35.664
35.666
35.67
35.677
35.686
35.697
35.708
35.72
35.73
35.741
35.75
35.756
35.761
35.763
35.764
35.761
35.757
35.749
35.738
35.723
35.705
35.682
35.655
35.624
35.59
35.554
35.517
35.48
35.445
35.412
35.381
35.351
35.323
35.296
35.27
35.242
35.213
35.18
35.145
35.106
35.063
35.016
34.966
34.912
34.855
34.795
34.734
34.673
34.612
34.553
34.496
34.443
34.393
34.346
34.302
34.26
34.222
34.188
34.161
34.139
34.121
34.106
34.093
34.08
34.066
34.05
34.034
34.016
33.996
33.973
33.949
33.923
33.896
33.868
33.84
33.811
33.783
33.755
33.728
33.703
33.681
33.661
33.644
33.628
33.614
33.602
33.592
33.584
33.579
33.576
33.576
33.577
33.581
33.585
33.589
33.591
33.591
33.589
33.584
33.577
33.568
33.557
33.543
33.527
33.51
33.491
33.471
33.449
33.427
33.402
33.375
33.347
33.318
33.287
33.256
33.223
33.191
33.159
33.127
33.096
33.066
33.038
33.013
32.99
32.971
32.955
32.944
32.94
32.945
32.961
32.989
33.031
33.09
33.165
33.257
33.366
33.491
33.633
33.79
33.963
34.15
34.348
34.554
34.765
34.976
35.186
35.392
35.591
35.782
35.961
36.128
36.282
36.423
36.55
36.664
36.764
36.851
36.926
36.987
37.035
37.071
37.096
37.111
37.116
37.114
37.105
37.088
37.065
37.037
37.003
36.964
36.921
36.874
36.823
36.769
36.712
36.654
36.594
36.535
36.477
36.42
36.364
36.308
36.253
36.199
36.144
36.091
36.038
35.986
35.934
35.881
35.828
35.774
35.721
35.668
35.616
35.566
35.518
35.475
35.436
35.403
35.376
35.355
35.34
35.332
35.328
35.33
35.337
35.348
35.363
35.383
35.407
35.434
35.463
35.494
35.525
35.556
35.588
35.619
35.649
35.678
35.703
35.724
35.74
35.752
35.757
35.758
35.754
35.745
35.732
35.715
35.695
35.672
35.647
35.62
35.591
35.559
35.524
35.487
35.448
35.406
35.363
35.32
35.277
35.234
35.192
35.151
35.109
35.068
35.027
34.986
34.944
34.901
34.858
34.813
34.768
34.724
34.682
34.643
34.606
34.572
34.541
34.51
34.481
34.452
34.424
34.396
34.369
34.342
34.315
34.288
34.261
34.235
34.21
34.186
34.164
34.143
34.125
34.112
34.103
34.096
34.093
34.091
34.088
34.084
34.077
34.066
34.052
34.034
34.015
33.997
33.98
33.963
33.947
33.931
33.915
33.899
33.883
33.867
33.851
33.834
33.816
33.797
33.778
33.757
33.736
33.714
33.692
33.671
33.649
33.627
33.605
33.583
33.562
33.541
33.521
33.502
33.484
33.465
33.446
33.426
33.409
33.396
33.39
33.392
33.405
33.43
33.468
33.523
33.594
33.682
33.788
33.911
34.052
34.209
34.379
34.562
34.754
34.952
35.153
35.354
35.554
35.748
35.936
36.114
36.282
36.439
36.584
36.716
36.834
36.936
37.021
37.09
37.143
37.182
37.208
37.222
37.225
37.218
37.204
37.184
37.16
37.132
37.103
37.072
37.041
37.009
36.976
36.941
36.906
36.872
36.837
36.803
36.766
36.728
36.686
36.642
36.595
36.548
36.499
36.45
36.399
36.348
36.294
36.24
36.185
36.129
36.074
36.02
35.967
35.917
35.87
35.828
35.79
35.756
35.726
35.698
35.674
35.653
35.635
35.621
35.61
35.604
35.602
35.604
35.609
35.616
35.626
35.638
35.653
35.671
35.692
35.714
35.736
35.758
35.78
35.799
35.817
35.831
35.841
35.846
35.846
35.84
35.829
35.812
35.791
35.764
35.733
35.698
35.66
35.618
35.573
35.526
35.479
35.432
35.386
35.34
35.294
35.249
35.204
35.16
35.118
35.077
35.038
35.001
34.964
34.928
34.892
34.857
34.822
34.787
34.75
34.714
34.676
34.64
34.606
34.573
34.542
34.512
34.483
34.454
34.425
34.395
34.365
34.334
34.304
34.274
34.245
34.218
34.192
34.167
34.143
34.119
34.095
34.072
34.048
34.025
34.003
33.98
33.958
33.937
33.919
33.903
33.89
33.879
33.871
33.863
33.857
33.851
33.846
33.84
33.835
33.828
33.819
33.809
33.798
33.785
33.771
33.757
33.741
33.724
33.705
33.685
33.664
33.641
33.616
33.591
33.563
33.533
33.5
33.466
33.433
33.403
33.377
33.356
33.342
33.332
33.329
33.33
33.337
33.351
33.372
33.402
33.443
33.496
33.561
33.639
33.731
33.837
33.957
34.091
34.238
34.398
34.567
34.745
34.929
35.117
35.306
35.495
35.682
35.863
36.038
36.205
36.361
36.507
36.642
36.763
36.872
36.968
37.051
37.12
37.177
37.222
37.255
37.277
37.288
37.289
37.282
37.266
37.243
37.215
37.182
37.147
37.109
37.07
37.031
36.992
36.954
36.917
36.882
36.848
36.815
36.782
36.749
36.715
36.679
36.641
36.601
36.56
36.516
36.471
36.423
36.372
36.32
36.266
36.211
36.156
36.102
36.048
35.996
35.945
35.898
35.854
35.815
35.782
35.755
35.733
35.717
35.707
35.701
35.7
35.702
35.707
35.714
35.722
35.729
35.736
35.742
35.747
35.75
35.754
35.758
35.761
35.763
35.764
35.763
35.762
35.759
35.754
35.748
35.74
35.729
35.717
35.703
35.688
35.672
35.653
35.633
35.61
35.583
35.554
35.521
35.484
35.444
35.401
35.356
35.309
35.261
35.211
35.161
35.111
35.061
35.012
34.965
34.918
34.873
34.828
34.784
34.743
34.705
34.67
34.637
34.608
34.581
34.556
34.533
34.512
34.491
34.471
34.452
34.432
34.413
34.395
34.377
34.36
34.344
34.328
34.311
34.292
34.271
34.247
34.22
34.19
34.158
34.125
34.091
34.056
34.019
33.982
33.945
33.909
33.876
33.848
33.825
33.806
33.792
33.781
33.775
33.772
33.772
33.773
33.775
33.776
33.776
33.775
33.772
33.767
33.761
33.752
33.741
33.729
33.713
33.696
33.677
33.655
33.63
33.602
33.571
33.538
33.503
33.467
33.429
33.392
33.356
33.322
33.29
33.258
33.226
33.195
33.165
33.139
33.119
33.108
33.108
33.121
33.147
33.189
33.247
33.322
33.412
33.519
33.64
33.775
33.92
34.075
34.238
34.408
34.582
34.76
34.938
35.116
35.292
35.462
35.626
35.781
35.926
36.061
36.183
36.291
36.387
36.469
36.538
36.595
36.64
36.676
36.703
36.721
36.731
36.732
36.726
36.712
36.693
36.669
36.64
36.607
36.571
36.531
36.489
36.445
36.399
36.352
36.304
36.255
36.207
36.159
36.111
36.064
36.017
35.972
35.927
35.881
35.835
35.788
35.741
35.695
35.649
35.605
35.562
35.521
35.48
35.44
35.402
35.365
35.329
35.294
35.262
35.231
35.203
35.177
35.155
35.136
35.123
35.115
35.113
35.115
35.122
35.134
35.149
35.167
35.187
35.209
35.232
35.254
35.276
35.295
35.311
35.325
35.337
35.346
35.352
35.355
35.355
35.35
35.342
35.329
35.313
35.292
35.268
35.24
35.209
35.176
35.14
35.104
35.068
35.032
34.996
34.96
34.923
34.886
34.851
34.817
34.786
34.759
34.734
34.711
34.687
34.664
34.639
34.614
34.587
34.558
34.527
34.493
34.456
34.417
34.376
34.335
34.295
34.256
34.22
34.187
34.156
34.129
34.103
34.08
34.058
34.036
34.015
33.993
33.972
33.95
33.928
33.907
33.888
33.87
33.855
33.842
33.83
33.818
33.806
33.793
33.78
33.767
33.754
33.742
33.731
33.721
33.712
33.704
33.697
33.69
33.684
33.679
33.672
33.665
33.657
33.648
33.636
33.623
33.609
33.592
33.575
33.556
33.536
33.517
33.497
33.478
33.46
33.442
33.423
33.404
33.384
33.364
33.345
33.327
33.309
33.292
33.276
33.261
33.247
33.233
33.22
33.208
33.198
33.19
33.186
33.186
33.193
33.207
33.231
33.265
33.312
33.371
33.444
33.53
33.63
33.742
33.867
34.004
34.15
34.305
34.466
34.632
34.799
34.967
35.133
35.294
35.449
35.595
35.73
35.851
35.96
36.054
36.134
36.201
36.256
36.299
36.332
36.356
36.371
36.38
36.382
36.379
36.372
36.359
36.342
36.319
36.29
36.257
36.219
36.177
36.131
36.083
36.032
35.98
35.928
35.875
35.824
35.774
35.727
35.681
35.637
35.594
35.553
35.512
35.471
35.431
35.39
35.348
35.306
35.264
35.22
35.177
35.133
35.091
35.05
35.012
34.978
34.948
34.922
34.902
34.887
34.878
34.878
34.885
34.899
34.92
34.946
34.976
35.009
35.043
35.078
35.111
35.143
35.173
35.202
35.228
35.25
35.268
35.281
35.289
35.292
35.291
35.284
35.274
35.259
35.241
35.22
35.196
35.169
35.141
35.112
35.082
35.051
35.021
34.991
34.962
34.933
34.904
34.873
34.841
34.808
34.774
34.739
34.703
34.667
34.63
34.593
34.556
34.52
34.484
34.449
34.416
34.385
34.356
34.33
34.307
34.286
34.266
34.248
34.229
34.209
34.189
34.167
34.143
34.118
34.092
34.065
34.038
34.013
33.989
33.967
33.947
33.93
33.916
33.906
33.898
33.891
33.885
33.878
33.873
33.867
33.862
33.858
33.855
33.851
33.849
33.847
33.846
33.845
33.844
33.843
33.84
33.837
33.832
33.827
33.82
33.813
33.803
33.793
33.781
33.768
33.754
33.738
33.722
33.704
33.686
33.667
33.648
33.628
33.607
33.585
33.562
33.539
33.518
33.498
33.482
33.467
33.455
33.445
33.437
33.432
33.432
33.436
33.446
33.463
33.485
33.515
33.554
33.603
33.663
33.737
33.825
33.927
34.044
34.173
34.315
34.466
34.624
34.789
34.956
35.124
35.29
35.452
35.609
35.759
35.902
36.037
36.163
36.279
36.384
36.476
36.556
36.625
36.684
36.732
36.771
36.8
36.82
36.832
36.835
36.832
36.821
36.804
36.782
36.754
36.723
36.688
36.65
36.612
36.574
36.537
36.503
36.469
36.435
36.402
36.369
36.337
36.307
36.278
36.251
36.224
36.197
36.17
36.142
36.112
36.081
36.047
36.011
35.973
35.932
35.89
35.847
35.804
35.761
35.721
35.683
35.65
35.621
35.597
35.579
35.568
35.563
35.564
35.571
35.58
35.59
35.602
35.614
35.626
35.641
35.656
35.672
35.688
35.701
35.711
35.717
35.72
35.72
35.717
35.71
35.7
35.687
35.672
35.656
35.638
35.621
35.604
35.587
35.569
35.551
35.534
35.515
35.496
35.478
35.46
35.442
35.425
35.407
35.388
35.369
35.349
35.326
35.299
35.267
35.231
35.189
35.143
35.092
35.039
34.985
34.929
34.874
34.82
34.768
34.718
34.671
34.628
34.59
34.556
34.527
34.501
34.479
34.46
34.444
34.43
34.419
34.409
34.401
34.393
34.384
34.375
34.365
34.354
34.34
34.325
34.308
34.288
34.267
34.243
34.219
34.195
34.173
34.153
34.134
34.118
34.105
34.094
34.086
34.08
34.078
34.077
34.079
34.081
34.084
34.087
34.089
34.091
34.093
34.093
34.093
34.092
34.089
34.085
34.079
34.071
34.061
34.049
34.035
34.018
33.999
33.977
33.952
33.925
33.896
33.865
33.833
33.799
33.764
33.729
33.695
33.663
33.634
33.608
33.585
33.567
33.551
33.539
33.53
33.527
33.528
33.537
33.553
33.579
33.614
33.661
33.721
33.795
33.884
33.989
34.109
34.241
34.385
34.538
34.698
34.863
35.03
35.197
35.36
35.519
35.671
35.815
35.949
36.072
36.184
36.285
36.374
36.451
36.517
36.572
36.617
36.652
36.68
36.701
36.716
36.726
36.732
36.735
36.738
36.738
36.738
36.735
36.728
36.718
36.704
36.686
36.663
36.637
36.606
36.574
36.54
36.505
36.469
36.432
36.396
36.36
36.326
36.293
36.262
36.233
36.205
36.177
36.148
36.118
36.086
36.051
36.013
35.971
35.926
35.879
35.832
35.785
35.74
35.697
35.658
35.622
35.59
35.564
35.543
35.527
35.517
35.512
35.511
35.515
35.522
35.532
35.544
35.558
35.574
35.59
35.605
35.619
35.629
35.637
35.641
35.641
35.638
35.631
35.621
35.607
35.592
35.574
35.556
35.537
35.518
35.499
35.481
35.464
35.448
35.432
35.416
35.402
35.388
35.373
35.357
35.339
35.318
35.294
35.267
35.238
35.206
35.173
35.137
35.099
35.059
35.016
34.974
34.93
34.888
34.845
34.805
34.766
34.729
34.696
34.668
34.644
34.625
34.611
34.6
34.592
34.587
34.582
34.578
34.574
34.567
34.558
34.545
34.529
34.509
34.487
34.462
34.437
34.411
34.386
34.361
34.336
34.306
34.27
34.229
34.185
34.142
34.102
34.067
34.039
34.018
34.005
34.0
34.004
34.014
34.031
34.051
34.074
34.099
34.123
34.145
34.165
34.182
34.195
34.204
34.209
34.209
34.204
34.195
34.182
34.165
34.145
34.123
34.099
34.074
34.047
34.019
33.992
33.965
33.94
33.915
33.891
33.868
33.846
33.824
33.804
33.784
33.765
33.747
33.728
33.709
33.69
33.671
33.652
33.635
33.621
33.61
33.602
33.599
33.601
33.609
33.624
33.648
33.68
33.721
33.772
33.834
33.908
33.994
34.094
34.207
34.333
34.469
34.615
34.768
34.924
35.081
35.238
35.392
35.541
35.683
35.816
35.94
36.053
36.155
36.248
36.331
36.405
36.471
36.527
36.573
36.611
36.641
36.662
36.676
36.683
36.684
36.677
36.665
36.647
36.624
36.595
36.562
36.527
36.488
36.448
36.406
36.364
36.322
36.282
36.246
36.212
36.181
36.153
36.131
36.116
36.106
36.097
36.089
36.079
36.064
36.042
36.013
35.976
35.931
35.879
35.822
35.761
35.698
35.633
35.568
35.505
35.444
35.389
35.34
35.298
35.266
35.244
35.231
35.227
35.232
35.247
35.268
35.296
35.328
35.362
35.396
35.429
35.459
35.487
35.511
35.532
35.548
35.559
35.565
35.566
35.562
35.554
35.542
35.527
35.51
35.489
35.467
35.443
35.419
35.395
35.372
35.352
35.336
35.322
35.31
35.299
35.29
35.281
35.271
35.262
35.251
35.239
35.224
35.207
35.188
35.166
35.143
35.118
35.091
35.063
35.034
35.005
34.979
34.954
34.931
34.909
34.887
34.864
34.84
34.815
34.789
34.763
34.736
34.709
34.682
34.657
34.632
34.608
34.588
34.57
34.554
34.542
34.531
34.52
34.51
34.5
34.489
34.479
34.47
34.462
34.455
34.45
34.444
34.437
34.431
34.425
34.418
34.411
34.404
34.396
34.386
34.375
34.363
34.351
34.34
34.329
34.32
34.312
34.306
34.3
34.296
34.292
34.292
34.295
34.301
34.31
34.321
34.331
34.341
34.349
34.354
34.355
34.351
34.342
34.328
34.309
34.285
34.259
34.231
34.203
34.173
34.143
34.111
34.078
34.044
34.01
33.977
33.944
33.913
33.884
33.856
33.83
33.805
33.782
33.76
33.741
33.723
33.708
33.697
33.691
33.691
33.701
33.722
33.754
33.8
33.86
33.934
34.022
34.123
34.237
34.362
34.497
34.639
34.786
34.935
35.083
35.229
35.371
35.509
35.64
35.763
35.878
35.983
36.077
36.16
36.23
36.289
36.337
36.373
36.399
36.415
36.419
36.413
36.399
36.378
36.351
36.318
36.282
36.242
36.198
36.154
36.109
36.064
36.022
35.98
35.94
35.9
35.86
35.821
35.781
35.742
35.703
35.663
35.624
35.584
35.545
35.506
35.468
35.431
35.396
35.363
35.332
35.304
35.279
35.257
35.236
35.218
35.201
35.186
35.174
35.162
35.153
35.145
35.14
35.137
35.139
35.144
35.152
35.162
35.172
35.183
35.194
35.204
35.214
35.223
35.23
35.233
35.235
35.234
35.233
35.232
35.231
35.232
35.236
35.243
35.253
35.265
35.278
35.291
35.304
35.316
35.324
35.329
35.328
35.322
35.311
35.295
35.275
35.249
35.218
35.184
35.147
35.108
35.07
35.033
34.996
34.96
34.925
34.89
34.855
34.822
34.791
34.761
34.734
34.71
34.688
34.669
34.652
34.636
34.622
34.609
34.597
34.585
34.573
34.562
34.552
34.541
34.53
34.517
34.503
34.486
34.467
34.444
34.418
34.389
34.357
34.325
34.294
34.263
34.233
34.206
34.18
34.156
34.136
34.12
34.107
34.099
34.093
34.091
34.091
34.093
34.097
34.105
34.116
34.13
34.147
34.164
34.182
34.199
34.215
34.228
34.237
34.243
34.244
34.24
34.232
34.219
34.201
34.181
34.16
34.139
34.118
34.099
34.08
34.062
34.045
34.029
34.015
34.0
33.985
33.969
33.953
33.936
33.92
33.904
33.889
33.875
33.861
33.848
33.834
33.822
33.811
33.802
33.798
33.798
33.805
33.818
33.839
33.868
33.907
33.956
34.016
34.089
34.173
34.27
34.379
34.499
34.63
34.769
34.915
35.068
35.224
35.381
35.539
35.694
35.846
35.993
36.134
36.268
36.392
36.508
36.612
36.706
36.788
36.86
36.921
36.972
37.013
37.043
37.063
37.075
37.078
37.073
37.062
37.044
37.02
36.989
36.953
36.913
36.869
36.822
36.774
36.724
36.675
36.627
36.58
36.537
36.498
36.464
36.435
36.411
36.39
36.372
36.355
36.338
36.32
36.3
36.276
36.25
36.219
36.184
36.146
36.105
36.062
36.02
35.981
35.945
35.912
35.883
35.857
35.835
35.816
35.8
35.786
35.775
35.768
35.763
35.762
35.764
35.769
35.778
35.79
35.804
35.819
35.833
35.846
35.857
35.867
35.877
35.885
35.891
35.894
35.894
35.891
35.885
35.877
35.867
35.855
35.843
35.83
35.817
35.801
35.784
35.765
35.746
35.726
35.706
35.686
35.666
35.646
35.625
35.604
35.583
35.561
35.538
35.513
35.486
35.457
35.426
35.393
35.36
35.326
35.293
35.259
35.224
35.189
35.155
35.12
35.086
35.052
35.019
34.987
34.957
34.928
34.902
34.879
34.858
34.84
34.824
34.809
34.796
34.782
34.77
