Trial 3:3back
37.734
37.785
37.814
37.823
37.812
37.786
37.745
37.693
37.631
37.561
37.485
37.406
37.326
37.246
37.169
37.096
37.028
36.966
36.91
36.86
36.816
36.777
36.742
36.709
36.678
36.649
36.62
36.592
36.564
36.536
36.509
36.482
36.455
36.428
36.4
36.372
36.343
36.316
36.29
36.265
36.242
36.219
36.196
36.172
36.146
36.118
36.089
36.058
36.027
35.996
35.964
35.932
35.9
35.87
35.84
35.813
35.789
35.767
35.749
35.736
35.726
35.72
35.718
35.721
35.729
35.741
35.757
35.776
35.797
35.819
35.841
35.863
35.883
35.901
35.917
35.929
35.938
35.944
35.947
35.946
35.942
35.935
35.924
35.912
35.896
35.878
35.858
35.836
35.811
35.785
35.758
35.729
35.7
35.671
35.641
35.611
35.583
35.555
35.527
35.5
35.472
35.444
35.416
35.389
35.361
35.334
35.306
35.28
35.255
35.232
35.21
35.191
35.173
35.156
35.141
35.129
35.118
35.108
35.099
35.09
35.081
35.072
35.062
35.049
35.033
35.015
34.995
34.973
34.95
34.926
34.902
34.879
34.858
34.838
34.82
34.804
34.789
34.776
34.763
34.752
34.741
34.732
34.725
34.72
34.716
34.715
34.715
34.714
34.713
34.711
34.71
34.708
34.705
34.702
34.697
34.691
34.683
34.672
34.659
34.644
34.627
34.609
34.591
34.573
34.557
34.541
34.527
34.515
34.506
34.498
34.493
34.488
34.485
34.483
34.481
34.48
34.479
34.477
34.475
34.47
34.462
34.45
34.435
34.417
34.397
34.376
34.355
34.335
34.317
34.3
34.286
34.273
34.261
34.251
34.242
34.232
34.223
34.212
34.2
34.186
34.17
34.153
34.132
34.109
34.084
34.055
34.025
33.995
33.966
33.939
33.913
33.889
33.867
33.847
33.829
33.815
33.804
33.798
33.797
33.802
33.815
33.837
33.871
33.92
33.986
34.073
34.184
34.32
34.48
34.664
34.87
35.095
35.335
35.586
35.843
36.102
36.356
36.602
36.834
37.048
37.241
37.41
37.555
37.674
37.77
37.841
37.89
37.917
37.924
37.913
37.885
37.845
37.794
37.735
37.67
37.6
37.528
37.454
37.379
37.306
37.236
37.169
37.106
37.048
36.996
36.949
36.906
36.868
36.833
36.801
36.773
36.748
36.724
36.702
36.681
36.661
36.641
36.622
36.603
36.585
36.567
36.55
36.533
36.516
36.499
36.481
36.46
36.437
36.411
36.381
36.348
36.311
36.271
36.23
36.186
36.141
36.097
36.052
36.01
35.969
35.932
35.899
35.871
35.847
35.828
35.812
35.798
35.787
35.777
35.768
35.76
35.753
35.745
35.739
35.733
35.727
35.723
35.718
35.712
35.704
35.695
35.684
35.672
35.658
35.643
35.627
35.61
35.592
35.574
35.554
35.533
35.511
35.487
35.462
35.436
35.409
35.381
35.352
35.322
35.291
35.26
35.228
35.195
35.16
35.124
35.088
35.052
35.016
34.981
34.947
34.914
34.882
34.85
34.819
34.788
34.758
34.727
34.697
34.667
34.638
34.609
34.581
34.554
34.528
34.502
34.478
34.453
34.429
34.406
34.383
34.36
34.338
34.317
34.297
34.278
34.26
34.243
34.228
34.214
34.202
34.19
34.18
34.171
34.164
34.159
34.154
34.15
34.147
34.143
34.139
34.135
34.13
34.125
34.119
34.111
34.102
34.091
34.079
34.066
34.054
34.043
34.032
34.022
34.011
33.999
33.985
33.97
33.954
33.936
33.917
33.897
33.876
33.855
33.834
33.814
33.794
33.777
33.762
33.749
33.738
33.729
33.722
33.717
33.714
33.711
33.708
33.703
33.694
33.681
33.663
33.641
33.617
33.592
33.567
33.542
33.519
33.498
33.48
33.465
33.453
33.445
33.439
33.434
33.429
33.425
33.422
33.42
33.42
33.42
33.422
33.423
33.424
33.424
33.422
33.42
33.417
33.413
33.409
33.402
33.395
33.386
33.376
33.366
33.356
33.347
33.337
33.327
33.316
33.305
33.293
33.28
33.268
33.254
33.24
33.224
33.206
33.187
33.168
33.148
33.128
33.107
33.087
33.068
33.048
33.03
33.013
32.999
32.988
32.98
32.974
32.973
32.974
32.978
32.984
32.992
33.002
33.017
33.038
33.071
33.117
33.182
33.267
33.378
33.515
33.679
33.868
34.081
34.315
34.566
34.828
35.097
35.367
35.631
35.885
36.123
36.341
36.537
36.707
36.851
36.967
37.057
37.121
37.161
37.179
37.179
37.163
37.133
37.092
37.043
36.986
36.925
36.859
36.791
36.722
36.653
36.586
36.519
36.454
36.389
36.326
36.265
36.206
36.151
36.098
36.049
36.005
35.965
35.93
35.899
35.873
35.852
35.834
35.819
35.806
35.795
35.784
35.775
35.765
35.756
35.747
35.738
35.728
35.716
35.7
35.682
35.66
35.636
35.611
35.585
35.558
35.531
35.504
35.48
35.456
35.434
35.414
35.394
35.377
35.361
35.347
35.335
35.327
35.321
35.319
35.321
35.325
35.331
35.34
35.351
35.364
35.379
35.396
35.414
35.434
35.454
35.475
35.494
35.512
35.527
35.538
35.545
35.548
35.547
35.542
35.533
35.52
35.505
35.488
35.469
35.447
35.424
35.4
35.376
35.352
35.329
35.309
35.29
35.272
35.255
35.238
35.219
35.198
35.175
35.151
35.126
35.101
35.075
35.05
35.024
34.999
34.974
34.95
34.927
34.905
34.883
34.862
34.842
34.821
34.802
34.784
34.767
34.752
34.737
34.722
34.707
34.692
34.677
34.663
34.652
34.642
34.634
34.628
34.623
34.619
34.615
34.611
34.607
34.603
34.598
34.592
34.587
34.581
34.575
34.568
34.562
34.557
34.553
34.549
34.544
34.539
34.534
34.529
34.525
34.523
34.521
34.52
34.519
34.516
34.513
34.508
34.502
34.496
34.491
34.486
34.483
34.48
34.478
34.478
34.479
34.48
34.482
34.484
34.486
34.486
34.484
34.48
34.474
34.467
34.457
34.446
34.435
34.423
34.413
34.403
34.394
34.387
34.381
34.377
34.373
34.368
34.363
34.356
34.346
34.334
34.318
34.299
34.275
34.247
34.216
34.181
34.146
34.11
34.075
34.041
34.01
33.982
33.958
33.936
33.919
33.905
33.895
33.89
33.89
33.896
33.911
33.935
33.971
34.021
34.088
34.175
34.283
34.411
34.561
34.732
34.922
35.128
35.346
35.571
35.801
36.03
36.254
36.468
36.668
36.852
37.016
37.159
37.281
37.382
37.462
37.522
37.564
37.589
37.599
37.596
37.581
37.556
37.523
37.482
37.436
37.386
37.334
37.28
37.225
37.17
37.116
37.064
37.013
36.965
36.919
36.875
36.832
36.791
36.753
36.718
36.686
36.656
36.628
36.603
36.579
36.558
36.538
36.519
36.502
36.487
36.473
36.459
36.445
36.429
36.411
36.392
36.37
36.346
36.321
36.294
36.266
36.235
36.203
36.17
36.136
36.101
36.066
36.034
36.003
35.975
35.95
35.927
35.906
35.888
35.872
35.858
35.846
35.836
35.826
35.818
35.813
35.809
35.808
35.811
35.816
35.825
35.837
35.85
35.863
35.874
35.884
35.891
35.895
35.895
35.893
35.887
35.877
35.863
35.845
35.822
35.795
35.766
35.736
35.705
35.673
35.642
35.611
35.58
35.55
35.522
35.497
35.475
35.454
35.436
35.418
35.402
35.386
35.371
35.358
35.345
35.334
35.322
35.309
35.295
35.281
35.264
35.247
35.23
35.211
35.191
35.17
35.147
35.123
35.098
35.072
35.047
35.022
34.998
34.977
34.957
34.939
34.923
34.91
34.899
34.891
34.884
34.877
34.871
34.865
34.858
34.851
34.843
34.835
34.826
34.815
34.803
34.789
34.773
34.756
34.739
34.723
34.708
34.695
34.685
34.677
34.67
34.665
34.661
34.657
34.652
34.646
34.639
34.629
34.618
34.605
34.59
34.573
34.554
34.534
34.513
34.492
34.471
34.451
34.431
34.413
34.396
34.379
34.364
34.349
34.334
34.319
34.303
34.286
34.268
34.249
34.229
34.209
34.188
34.167
34.146
34.125
34.105
34.086
34.067
34.049
34.031
34.015
34.0
33.985
33.97
33.956
33.942
33.928
33.914
33.9
33.885
33.871
33.858
33.845
33.833
33.823
33.814
33.807
33.802
33.799
33.797
33.795
33.792
33.789
33.785
33.779
33.77
33.758
33.743
33.725
33.703
33.68
33.653
33.625
33.594
33.563
33.532
33.503
33.476
33.451
33.426
33.401
33.376
33.35
33.324
33.299
33.275
33.253
33.234
33.219
33.208
33.202
33.201
33.206
33.217
33.236
33.263
33.303
33.357
33.43
33.524
33.643
33.788
33.959
34.154
34.371
34.608
34.858
35.119
35.385
35.65
35.911
36.162
36.399
36.618
36.814
36.985
37.131
37.249
37.339
37.403
37.441
37.455
37.447
37.42
37.377
37.322
37.257
37.186
37.111
37.033
36.955
36.876
36.799
36.722
36.648
36.578
36.512
36.45
36.392
36.338
36.288
36.241
36.198
36.158
36.122
36.091
36.064
36.042
36.024
36.01
35.998
35.989
35.981
35.972
35.961
35.947
35.929
35.907
35.881
35.851
35.817
35.782
35.745
35.707
35.668
35.63
35.593
35.557
35.522
35.491
35.462
35.438
35.418
35.401
35.388
35.377
35.369
35.363
35.36
35.359
35.359
35.36
35.361
35.363
35.365
35.367
35.369
35.372
35.376
35.381
35.388
35.394
35.4
35.405
35.409
35.413
35.416
35.42
35.423
35.425
35.425
35.422
35.415
35.405
35.392
35.376
35.357
35.336
35.313
35.288
35.263
35.238
35.212
35.188
35.164
35.141
35.119
35.097
35.075
35.053
35.029
35.005
34.98
34.955
34.93
34.908
34.887
34.869
34.854
34.84
34.829
34.818
34.81
34.802
34.794
34.786
34.778
34.768
34.757
34.745
34.731
34.715
34.697
34.677
34.655
34.632
34.607
34.582
34.559
34.537
34.517
34.5
34.485
34.472
34.462
34.453
34.446
34.44
34.435
34.433
34.432
34.435
34.439
34.445
34.451
34.458
34.465
34.472
34.48
34.488
34.496
34.504
34.51
34.515
34.518
34.519
34.518
34.515
34.509
34.501
34.492
34.481
34.469
34.456
34.443
34.428
34.413
34.398
34.383
34.368
34.355
34.343
34.332
34.322
34.313
34.306
34.3
34.294
34.29
34.286
34.283
34.28
34.277
34.274
34.27
34.265
34.258
34.251
34.242
34.232
34.222
34.213
34.206
34.2
34.195
34.19
34.185
34.18
34.172
34.164
34.156
34.148
34.139
34.131
34.124
34.117
34.11
34.102
34.093
34.083
34.072
34.059
34.044
34.028
34.011
33.994
33.979
33.964
33.951
33.941
33.933
33.928
33.925
33.925
33.928
33.937
33.951
33.972
34.003
34.045
34.101
34.175
34.269
34.385
34.523
34.684
34.865
35.064
35.278
35.503
35.735
35.969
36.202
36.429
36.647
36.85
37.035
37.199
37.341
37.46
37.556
37.63
37.683
37.716
37.732
37.733
37.719
37.695
37.66
37.619
37.571
37.52
37.467
37.412
37.357
37.3
37.243
37.187
37.131
37.078
37.028
36.982
36.939
36.9
36.864
36.83
36.798
36.769
36.742
36.719
36.699
36.682
36.668
36.657
36.646
36.635
36.625
36.613
36.601
36.587
36.572
36.555
36.536
36.514
36.49
36.463
36.435
36.405
36.375
36.345
36.314
36.284
36.255
36.227
36.201
36.178
36.16
36.144
36.132
36.123
36.118
36.116
36.117
36.119
36.122
36.125
36.129
36.133
36.136
36.14
36.143
36.147
36.15
36.154
36.158
36.162
36.165
36.168
36.17
36.171
36.171
36.169
36.165
36.159
36.15
36.137
36.121
36.102
36.08
36.055
36.029
36.001
35.973
35.943
35.913
35.882
35.852
35.823
35.795
35.769
35.746
35.724
35.704
35.686
35.669
35.653
35.637
35.62
35.603
35.586
35.567
35.548
35.528
35.506
35.484
35.461
35.437
35.413
35.388
35.361
35.334
35.307
35.281
35.256
35.231
35.208
35.185
35.163
35.141
35.12
35.1
35.082
35.066
35.053
35.042
35.033
35.024
35.016
35.009
35.001
34.993
34.984
34.975
34.965
34.954
34.942
34.93
34.916
34.901
34.886
34.871
34.859
34.848
34.839
34.831
34.825
34.821
34.817
34.815
34.812
34.809
34.804
34.798
34.791
34.783
34.775
34.766
34.757
34.747
34.736
34.725
34.713
34.7
34.685
34.671
34.656
34.642
34.628
34.613
34.598
34.583
34.566
34.549
34.531
34.514
34.498
34.483
34.469
34.456
34.445
34.435
34.427
34.419
34.411
34.402
34.391
34.379
34.367
34.353
34.34
34.327
34.314
34.302
34.29
34.277
34.263
34.247
34.233
34.219
34.207
34.197
34.189
34.183
34.179
34.176
34.174
34.171
34.167
34.161
34.153
34.142
34.129
34.114
34.097
34.079
34.058
34.037
34.013
33.988
33.962
33.937
33.912
33.889
33.868
33.85
33.835
33.824
33.82
33.823
33.835
33.86
33.897
33.95
34.02
34.108
34.218
34.35
34.506
34.685
34.885
35.105
35.339
35.584
35.834
36.084
36.328
36.562
36.782
36.985
37.168
37.33
37.469
37.585
37.678
37.75
37.8
37.83
37.84
37.832
37.81
37.773
37.725
37.667
37.6
37.528
37.451
37.372
37.293
37.215
37.14
37.068
37.0
36.936
36.877
36.823
36.773
36.726
36.683
36.645
36.61
36.58
36.554
36.531
36.512
36.496
36.483
36.471
36.459
36.448
36.435
36.422
36.408
36.391
36.372
36.35
36.325
36.298
36.268
36.235
36.2
36.161
36.119
36.075
36.029
35.984
35.938
35.893
35.849
35.807
35.768
35.732
35.7
35.671
35.645
35.624
35.607
35.596
35.589
35.587
35.589
35.594
35.602
35.611
35.621
35.631
35.64
35.647
35.652
35.654
35.653
35.649
35.64
35.627
35.611
35.593
35.573
35.552
35.531
35.511
35.49
35.47
35.451
35.431
35.41
35.388
35.366
35.342
35.317
35.291
35.264
35.238
35.213
35.19
35.167
35.144
35.122
35.1
35.077
35.053
35.028
35.003
34.977
34.952
34.926
34.9
34.876
34.852
34.831
34.811
34.794
34.778
34.764
34.751
34.739
34.727
34.717
34.708
34.701
34.694
34.687
34.68
34.672
34.662
34.651
34.637
34.623
34.607
34.59
34.572
34.555
34.539
34.525
34.512
34.503
34.495
34.488
34.482
34.476
34.469
34.461
34.453
34.444
34.436
34.427
34.418
34.406
34.392
34.376
34.359
34.343
34.329
34.318
34.31
34.305
34.302
34.302
34.305
34.309
34.313
34.318
34.321
34.323
34.322
34.319
34.312
34.303
34.291
34.277
34.261
34.242
34.223
34.203
34.183
34.164
34.144
34.124
34.105
34.084
34.063
34.043
34.025
34.009
33.996
33.986
33.978
33.972
33.967
33.963
33.958
33.954
33.949
33.943
33.935
33.926
33.914
33.902
33.889
33.876
33.863
33.852
33.842
33.833
33.825
33.819
33.814
33.81
33.805
33.8
33.795
33.788
33.779
33.767
33.752
33.733
33.713
33.692
33.67
33.649
33.629
33.612
33.597
33.585
33.576
33.57
33.567
33.565
33.566
33.567
33.567
33.568
33.568
33.569
33.573
33.581
33.594
33.614
33.644
33.685
33.74
33.813
33.906
34.02
34.156
34.315
34.496
34.698
34.918
35.153
35.397
35.647
35.899
36.148
36.389
36.619
36.833
37.028
37.203
37.356
37.487
37.594
37.678
37.74
37.781
37.802
37.806
37.796
37.772
37.737
37.694
37.644
37.589
37.531
37.471
37.409
37.347
37.287
37.229
37.176
37.126
37.081
37.038
36.999
36.962
36.928
36.896
36.866
36.837
36.811
36.786
36.765
36.746
36.729
36.714
36.7
36.686
36.673
36.658
36.643
36.626
36.608
36.588
36.566
36.543
36.518
36.491
36.462
36.432
36.4
36.367
36.334
36.3
36.267
36.235
36.205
36.177
36.152
36.131
36.114
36.103
36.097
36.097
36.1
36.108
36.119
36.134
36.151
36.17
36.191
36.212
36.231
36.249
36.264
36.277
36.288
36.298
36.305
36.31
36.312
36.311
36.307
36.299
36.289
36.276
36.263
36.25
36.236
36.221
36.204
36.185
36.163
36.138
36.111
36.082
36.051
36.018
35.984
35.949
35.915
35.881
35.846
35.812
35.779
35.748
35.718
35.689
35.664
35.64
35.618
35.598
35.579
35.562
35.545
35.529
35.511
35.492
35.469
35.444
35.418
35.391
35.364
35.338
35.312
35.287
35.264
35.244
35.226
35.211
35.2
35.193
35.189
35.187
35.187
35.187
35.186
35.185
35.182
35.178
35.173
35.167
35.16
35.152
35.144
35.135
35.126
35.117
35.107
35.097
35.085
35.072
35.058
35.044
35.029
35.014
34.999
34.986
34.973
34.961
34.949
34.937
34.925
34.914
34.903
34.893
34.884
34.876
34.87
34.863
34.857
34.849
34.839
34.826
34.81
34.792
34.772
34.749
34.724
34.698
34.672
34.646
34.622
34.599
34.579
34.561
34.545
34.532
34.521
34.513
34.506
34.501
34.497
34.494
34.492
34.49
34.488
34.487
34.485
34.483
34.482
34.481
34.482
34.483
34.486
34.492
34.498
34.507
34.514
34.521
34.526
34.528
34.525
34.518
34.506
34.489
34.468
34.445
34.419
34.391
34.362
34.332
34.3
34.268
34.235
34.203
34.172
34.144
34.119
34.099
34.084
34.074
34.068
34.068
34.073
34.084
34.103
34.131
34.171
34.226
34.3
34.394
34.512
34.654
34.82
35.009
35.219
35.449
35.695
35.952
36.217
36.484
36.748
37.004
37.248
37.475
37.682
37.867
38.028
38.164
38.275
38.362
38.427
38.47
38.493
38.501
38.493
38.474
38.444
38.405
38.359
38.307
38.251
38.192
38.132
38.072
38.013
37.956
37.901
37.849
37.799
37.752
37.708
37.667
37.63
37.596
37.566
37.54
37.516
37.494
37.475
37.458
37.443
37.429
37.418
37.406
37.395
37.381
37.366
37.349
37.329
37.306
37.281
37.254
37.226
37.197
37.167
37.135
37.101
37.066
37.03
36.993
36.956
36.919
36.884
36.851
36.819
36.789
36.76
36.732
36.706
36.68
36.657
36.635
36.616
36.598
36.581
36.568
36.557
36.549
36.544
36.542
36.542
36.545
36.548
36.553
36.557
36.561
36.565
36.568
36.57
36.57
36.568
36.563
36.553
36.539
36.52
36.498
36.473
36.444
36.413
36.379
36.344
36.306
36.268
36.229
36.189
36.15
36.112
36.076
36.04
36.006
35.972
35.939
35.907
35.874
35.842
35.809
35.775
35.741
35.706
35.673
35.641
35.61
35.58
35.551
35.522
35.493
35.463
35.432
35.4
35.368
35.336
35.305
35.276
35.248
35.221
35.196
35.173
35.15
35.129
35.11
35.091
35.073
35.057
35.041
35.027
35.012
34.997
34.981
34.965
34.948
34.931
34.914
34.897
34.88
34.864
34.849
34.834
34.82
34.805
34.791
34.776
34.762
34.749
34.735
34.722
34.709
34.695
34.682
34.669
34.655
34.64
34.625
34.608
34.591
34.573
34.556
34.538
34.52
34.502
34.484
34.465
34.444
34.421
34.395
34.368
34.338
34.306
34.273
34.24
34.206
34.174
34.142
34.112
34.083
34.056
34.032
34.01
33.991
33.973
33.957
33.94
33.923
33.905
33.886
33.865
33.843
33.821
33.798
33.775
33.753
33.733
33.713
33.696
33.681
33.668
33.658
33.65
33.644
33.639
33.633
33.627
33.621
33.613
33.603
33.592
33.579
33.565
33.551
33.538
33.526
33.515
33.504
33.493
33.481
33.47
33.458
33.445
33.432
33.419
33.404
33.389
33.374
33.358
33.343
33.329
33.317
33.307
33.299
33.294
33.29
33.287
33.287
33.288
33.291
33.298
33.308
33.325
33.352
33.392
33.449
33.528
33.631
33.761
33.918
34.102
34.313
34.55
34.808
35.082
35.367
35.657
35.947
36.23
36.503
36.76
36.998
37.216
37.413
37.587
37.737
37.865
37.969
38.051
38.111
38.151
38.172
38.176
38.166
38.143
38.109
38.066
38.017
37.963
37.906
37.848
37.79
37.734
37.683
37.636
37.594
37.557
37.523
37.492
37.463
37.435
37.409
37.385
37.361
37.338
37.315
37.292
37.267
37.24
37.211
37.179
37.146
37.11
37.071
37.03
36.985
36.937
36.885
36.829
36.769
36.705
36.636
36.563
36.487
36.408
36.328
36.249
36.171
36.096
36.025
35.958
35.896
35.839
35.788
35.744
35.709
35.683
35.666
35.657
35.658
35.666
35.681
35.7
35.724
35.75
35.778
35.805
35.832
35.859
35.883
35.905
35.924
35.939
35.951
35.96
35.966
35.968
35.969
35.966
35.961
35.953
35.943
35.932
35.919
35.906
35.891
35.877
35.864
35.851
35.84
35.83
35.823
35.818
35.815
35.815
35.817
35.82
35.823
35.827
35.83
35.832
35.833
35.833
35.83
35.825
35.819
35.812
35.803
35.794
35.785
35.776
35.769
35.763
35.76
35.76
35.761
35.764
35.768
35.773
35.777
35.779
35.779
35.775
35.768
35.759
35.749
35.74
35.731
35.724
35.72
35.718
35.719
35.723
35.73
35.74
35.75
35.761
35.771
35.778
35.783
35.785
35.783
35.779
35.773
35.765
35.756
35.745
35.734
35.723
35.712
35.703
35.696
35.691
35.688
35.687
35.688
35.689
35.69
35.693
35.695
35.699
35.702
35.706
35.71
35.713
35.716
35.719
35.721
35.722
35.723
35.724
35.725
35.726
35.728
35.73
35.732
35.733
35.733
35.731
35.726
35.718
35.707
35.694
35.678
35.66
35.641
35.621
35.599
35.575
35.549
35.52
35.488
35.451
35.41
35.365
35.316
35.263
35.206
35.146
35.082
35.017
34.95
34.883
34.818
34.756
34.697
34.644
34.597
34.558
34.525
34.5
34.48
34.465
34.452
34.441
34.431
34.422
