Trial 3:3back
32.789
32.767
32.744
32.723
32.703
32.683
32.665
32.647
32.63
32.613
32.596
32.579
32.564
32.55
32.538
32.529
32.526
32.529
32.54
32.562
32.595
32.64
32.699
32.773
32.861
32.965
33.084
33.218
33.366
33.528
33.702
33.886
34.078
34.277
34.479
34.682
34.885
35.084
35.277
35.463
35.639
35.803
35.955
36.092
36.214
36.321
36.411
36.486
36.546
36.591
36.624
36.646
36.658
36.66
36.655
36.644
36.627
36.606
36.581
36.553
36.524
36.493
36.462
36.43
36.398
36.367
36.337
36.308
36.279
36.252
36.225
36.199
36.173
36.147
36.12
36.092
36.063
36.033
36.001
35.969
35.936
35.901
35.866
35.83
35.793
35.755
35.717
35.677
35.637
35.597
35.556
35.516
35.477
35.439
35.404
35.373
35.344
35.32
35.3
35.284
35.273
35.266
35.264
35.267
35.274
35.287
35.304
35.325
35.35
35.376
35.404
35.432
35.46
35.486
35.511
35.533
35.553
35.569
35.581
35.589
35.592
35.591
35.585
35.575
35.562
35.545
35.527
35.506
35.484
35.46
35.436
35.411
35.385
35.358
35.33
35.301
35.27
35.239
35.207
35.175
35.142
35.11
35.077
35.044
35.012
34.979
34.945
34.911
34.877
34.841
34.806
34.771
34.736
34.702
34.67
34.639
34.609
34.58
34.553
34.526
34.5
34.475
34.45
34.426
34.402
34.378
34.353
34.328
34.304
34.279
34.255
34.233
34.211
34.192
34.175
34.16
34.147
34.137
34.127
34.118
34.109
34.101
34.092
34.083
34.074
34.064
34.053
34.042
34.031
34.02
34.01
33.999
33.989
33.979
33.97
33.961
33.953
33.945
33.936
33.926
33.914
33.901
33.887
33.871
33.854
33.836
33.819
33.802
33.786
33.771
33.757
33.745
33.735
33.726
33.719
33.713
33.707
33.702
33.697
33.691
33.685
33.679
33.673
33.667
33.661
33.656
33.65
33.645
33.639
33.634
33.629
33.624
33.618
33.611
33.603
33.594
33.582
33.567
33.55
33.53
33.508
33.483
33.457
33.43
33.402
33.375
33.348
33.322
33.297
33.273
33.251
33.23
33.21
33.191
33.173
33.156
33.14
33.125
33.112
33.1
33.091
33.085
33.083
33.087
33.098
33.118
33.148
33.189
33.244
33.312
33.396
33.496
33.613
33.744
33.891
34.052
34.225
34.409
34.602
34.801
35.004
35.209
35.414
35.615
35.811
35.999
36.177
36.343
36.496
36.636
36.763
36.875
36.974
37.06
37.133
37.194
37.243
37.28
37.306
37.322
37.328
37.326
37.317
37.302
37.282
37.257
37.229
37.199
37.168
37.135
37.103
37.071
37.039
37.007
36.976
36.944
36.914
36.884
36.854
36.826
36.799
36.772
36.745
36.719
36.692
36.665
36.637
36.607
36.575
36.54
36.502
36.46
36.417
36.37
36.322
36.272
36.221
36.171
36.123
36.079
36.039
36.005
35.977
35.955
35.941
35.933
35.932
35.938
35.949
35.965
35.985
36.01
36.038
36.068
36.101
36.134
36.168
36.201
36.233
36.262
36.29
36.314
36.336
36.353
36.366
36.374
36.378
36.378
36.373
36.365
36.352
36.337
36.32
36.3
36.28
36.258
36.235
36.211
36.186
36.159
36.13
36.099
36.067
36.032
35.996
35.958
35.918
35.877
35.834
35.791
35.748
35.705
35.662
35.621
35.581
35.542
35.504
35.467
35.432
35.397
35.363
35.33
35.298
35.267
35.235
35.203
35.171
35.137
35.103
35.067
35.031
34.994
34.957
34.92
34.883
34.849
34.816
34.785
34.757
34.731
34.707
34.685
34.666
34.647
34.63
34.614
34.6
34.586
34.572
34.56
34.548
34.535
34.523
34.511
34.5
34.489
34.478
34.468
34.458
34.448
34.438
34.429
34.419
34.409
34.399
34.389
34.379
34.368
34.357
34.346
34.335
34.324
34.314
34.303
34.294
34.284
34.275
34.267
34.259
34.252
34.245
34.238
34.231
34.224
34.216
34.207
34.197
34.185
34.171
34.156
34.14
34.123
34.106
34.088
34.069
34.05
34.03
34.008
33.985
33.96
33.934
33.905
33.874
33.842
33.808
33.773
33.738
33.704
33.67
33.637
33.606
33.577
33.55
33.527
33.507
33.491
33.479
33.472
33.47
33.473
33.483
33.5
33.525
33.56
33.607
33.666
33.739
33.828
33.932
34.052
34.187
34.337
34.499
34.672
34.852
35.039
35.228
35.419
35.607
35.792
35.971
36.143
36.306
36.458
36.599
36.727
36.841
36.941
37.026
37.098
37.156
37.201
37.235
37.258
37.273
37.28
37.28
37.275
37.265
37.252
37.237
37.22
37.202
37.184
37.165
37.146
37.125
37.103
37.08
37.055
37.029
37.0
36.968
36.933
36.895
36.854
36.811
36.765
36.719
36.671
36.623
36.575
36.527
36.479
36.43
36.382
36.334
36.285
36.237
36.189
36.143
36.098
36.056
36.018
35.983
35.951
35.924
35.901
35.881
35.866
35.854
35.846
35.841
35.84
35.841
35.845
35.853
35.862
35.874
35.888
35.903
35.92
35.939
35.959
35.979
35.999
36.018
36.035
36.05
36.061
36.069
36.073
36.073
36.069
36.061
36.05
36.035
36.018
35.999
35.979
35.957
35.935
35.912
35.889
35.865
35.842
35.818
35.794
35.769
35.745
35.72
35.696
35.673
35.65
35.628
35.607
35.586
35.565
35.544
35.522
35.499
35.475
35.45
35.424
35.397
35.37
35.342
35.315
35.288
35.261
35.234
35.207
35.18
35.15
35.12
35.088
35.055
35.021
34.987
34.953
34.92
34.888
34.857
34.827
34.799
34.772
34.746
34.721
34.697
34.673
34.651
34.629
34.609
34.589
34.572
34.555
34.54
34.526
34.513
34.501
34.488
34.475
34.462
34.447
34.432
34.415
34.396
34.376
34.355
34.334
34.312
34.29
34.269
34.249
34.23
34.212
34.195
34.18
34.167
34.155
34.145
34.135
34.126
34.117
34.108
34.1
34.092
34.085
34.078
34.071
34.065
34.058
34.052
34.045
34.037
34.028
34.018
34.007
33.994
33.98
33.965
33.948
33.931
33.913
33.894
33.875
33.856
33.837
33.819
33.801
33.783
33.767
33.75
33.735
33.719
33.703
33.687
33.671
33.654
33.637
33.621
33.605
33.591
33.58
33.574
33.575
33.584
33.603
33.634
33.678
33.738
33.814
33.906
34.015
34.142
34.284
34.443
34.616
34.801
34.996
35.2
35.41
35.624
35.839
36.053
36.265
36.471
36.671
36.861
37.041
37.208
37.363
37.504
37.631
37.744
37.843
37.927
37.999
38.059
38.107
38.146
38.175
38.195
38.209
38.216
38.218
38.215
38.208
38.198
38.185
38.17
38.152
38.132
38.111
38.088
38.065
38.041
38.017
37.993
37.97
37.948
37.927
37.906
37.885
37.864
37.843
37.82
37.796
37.77
37.741
37.71
37.677
37.642
37.604
37.564
37.522
37.477
37.432
37.384
37.337
37.291
37.246
37.205
37.167
37.134
37.106
37.083
37.065
37.053
37.045
37.042
37.044
37.049
37.058
37.069
37.083
37.099
37.118
37.137
37.158
37.179
37.199
37.217
37.234
37.248
37.259
37.267
37.271
37.272
37.268
37.26
37.249
37.234
37.215
37.195
37.171
37.146
37.119
37.09
37.06
37.028
36.996
36.964
36.931
36.899
36.868
36.837
36.808
36.779
36.75
36.72
36.69
36.659
36.626
36.591
36.555
36.518
36.479
36.439
36.399
36.358
36.318
36.279
36.241
36.204
36.167
36.132
36.097
36.063
36.03
35.999
35.968
35.938
35.909
35.88
35.852
35.826
35.801
35.777
35.753
35.73
35.707
35.684
35.661
35.639
35.616
35.594
35.573
35.553
35.534
35.516
35.5
35.485
35.471
35.458
35.444
35.431
35.417
35.402
35.386
35.369
35.351
35.332
35.312
35.292
35.271
35.25
35.228
35.206
35.185
35.164
35.144
35.124
35.105
35.087
35.069
35.052
35.037
35.023
35.011
35.0
34.991
34.982
34.974
34.965
34.955
34.944
34.931
34.915
34.899
34.88
34.86
34.839
34.818
34.798
34.778
34.76
34.742
34.725
34.708
34.691
34.673
34.655
34.636
34.616
34.594
34.571
34.547
34.521
34.494
34.467
34.44
34.413
34.388
34.364
34.342
34.321
34.303
34.285
34.27
34.256
34.242
34.229
34.216
34.202
34.187
34.171
34.153
34.133
34.113
34.092
34.07
34.048
34.027
34.007
33.988
33.971
33.957
33.947
33.943
33.946
33.959
33.984
34.021
34.074
34.143
34.231
34.339
34.466
34.612
34.778
34.961
35.161
35.375
35.602
35.838
36.081
36.328
36.576
36.823
37.066
37.302
37.53
37.747
37.953
38.144
38.321
38.483
38.628
38.758
38.871
38.969
39.052
39.122
39.178
39.222
39.256
39.28
39.295
39.303
39.304
39.3
39.29
39.277
39.259
39.239
39.215
39.189
39.16
39.13
39.099
39.067
39.036
39.006
38.977
38.948
38.92
38.892
38.865
38.838
38.81
38.783
38.754
38.723
38.69
38.655
38.616
38.573
38.527
38.477
38.424
38.368
38.311
38.253
38.196
38.14
38.087
38.038
37.993
37.954
37.92
37.893
37.874
37.861
37.856
37.857
37.865
37.879
37.899
37.923
37.95
37.98
38.013
38.046
38.08
38.113
38.145
38.176
38.204
38.228
38.25
38.267
38.28
38.288
38.291
38.289
38.28
38.267
38.249
38.226
38.2
38.171
38.139
38.105
38.069
38.031
37.992
37.952
37.91
37.867
37.824
37.78
37.735
37.69
37.646
37.602
37.559
37.516
37.473
37.43
37.386
37.342
37.296
37.249
37.202
37.153
37.103
37.053
37.003
36.954
36.905
36.856
36.809
36.762
36.715
36.669
36.624
36.579
36.534
36.49
36.447
36.405
36.365
36.326
36.288
36.252
36.217
36.183
36.149
36.115
36.081
36.048
36.015
35.981
35.949
35.917
35.887
35.859
35.833
35.809
35.787
35.768
35.749
35.731
35.714
35.697
35.679
35.661
35.641
35.62
35.597
35.572
35.547
35.521
35.495
35.47
35.446
35.423
35.403
35.385
35.37
35.356
35.344
35.333
35.324
35.316
35.309
35.302
35.295
35.287
35.278
35.268
35.256
35.242
35.225
35.207
35.187
35.165
35.141
35.115
35.088
35.059
35.029
34.998
34.965
34.932
34.897
34.861
34.825
34.789
34.752
34.715
34.678
34.64
34.602
34.564
34.526
34.489
34.453
34.42
34.389
34.362
34.339
34.323
34.314
34.315
34.327
34.352
34.391
34.447
34.52
34.611
34.721
34.849
34.996
35.159
35.337
35.528
35.731
35.943
36.162
36.385
36.611
36.838
37.062
37.282
37.495
37.701
37.897
38.082
38.256
38.416
38.563
38.695
38.814
38.918
39.008
39.085
39.149
39.201
39.242
39.272
39.293
39.306
39.312
39.313
39.308
39.298
39.285
39.267
39.246
39.221
39.192
39.159
39.123
39.085
39.043
38.999
38.954
38.908
38.861
38.813
38.764
38.713
38.661
38.606
38.549
38.49
38.428
38.363
38.296
38.227
38.156
38.084
38.012
37.94
37.869
37.799
37.731
37.666
37.605
37.549
37.498
37.453
37.415
37.385
37.362
37.348
37.342
37.343
37.351
37.366
37.385
37.409
37.436
37.466
37.497
37.529
37.56
37.59
37.619
37.645
37.668
37.687
37.702
37.712
37.718
37.718
37.713
37.704
37.69
37.673
37.653
37.63
37.604
37.576
37.546
37.514
37.48
37.446
37.41
37.375
37.339
37.302
37.265
37.226
37.186
37.144
37.099
37.052
37.003
36.952
36.898
36.843
36.786
36.728
36.669
36.61
36.552
36.493
36.436
36.38
36.325
36.272
36.221
36.172
36.124
36.078
36.033
35.989
35.947
35.905
35.865
35.825
35.785
35.746
35.707
35.669
35.632
35.595
35.558
35.522
35.486
35.45
35.414
35.379
35.344
35.31
35.278
35.247
35.218
35.191
35.165
35.14
35.117
35.095
35.074
35.053
35.033
35.013
34.993
34.975
34.957
34.94
34.924
34.91
34.896
34.884
34.873
34.863
34.854
34.844
34.835
34.824
34.813
34.8
34.786
34.77
34.751
34.731
34.709
34.687
34.663
34.64
34.616
34.593
34.57
34.548
34.527
34.507
34.488
34.471
34.455
34.439
34.423
34.406
34.389
34.37
34.35
34.329
34.306
34.281
34.254
34.225
34.195
34.162
34.128
34.093
34.057
34.02
33.983
33.944
33.906
33.868
33.83
33.794
33.759
33.726
33.697
33.672
33.653
33.64
33.635
33.641
33.657
33.688
33.733
33.796
33.877
33.977
34.099
34.242
34.407
34.593
34.8
35.024
35.265
35.52
35.787
36.063
36.345
36.631
36.918
37.203
37.483
37.756
38.02
38.271
38.509
38.732
38.938
39.127
39.298
39.451
39.585
39.702
39.802
39.884
39.951
40.003
40.041
40.067
40.082
40.088
40.086
40.078
40.064
40.045
40.022
39.997
39.968
39.937
39.904
39.87
39.833
39.796
39.757
39.718
39.678
39.637
39.596
39.553
39.51
39.467
39.422
39.377
39.331
39.283
39.235
39.185
39.134
39.08
39.025
38.966
38.906
38.842
38.777
38.711
38.645
38.58
38.516
38.455
38.397
38.342
38.291
38.245
38.205
38.17
38.141
38.12
38.104
38.096
38.094
38.097
38.107
38.121
38.138
38.159
38.182
38.205
38.228
38.25
38.271
38.288
38.301
38.31
38.315
38.314
38.307
38.295
38.278
38.255
38.228
38.196
38.161
38.122
38.081
38.038
37.993
37.947
37.9
37.851
37.801
37.749
37.696
37.641
37.585
37.528
37.471
37.414
37.357
37.302
37.247
37.194
37.142
37.091
37.041
36.991
36.941
36.891
36.841
36.79
36.738
36.686
36.632
36.577
36.521
36.464
36.407
36.35
36.294
36.24
36.188
36.138
36.091
36.046
36.004
35.965
35.927
35.892
35.858
35.825
35.793
35.762
35.731
35.702
35.673
35.644
35.615
35.588
35.561
35.535
35.509
35.485
35.461
35.437
35.413
35.39
35.366
35.342
35.317
35.291
35.264
35.237
35.208
35.179
35.15
35.12
35.09
35.06
35.03
35.001
34.972
34.944
34.917
34.89
34.865
34.841
34.818
34.795
34.773
34.752
34.73
34.708
34.686
34.662
34.638
34.613
34.586
34.559
34.53
34.502
34.474
34.447
34.421
34.398
34.376
34.355
34.337
34.32
34.304
34.29
34.277
34.264
34.252
34.241
34.229
34.217
34.205
34.192
34.177
34.161
34.144
34.124
34.102
34.077
34.05
34.02
33.987
33.951
33.913
33.871
33.827
33.78
33.73
33.68
33.628
33.576
33.524
33.473
33.425
33.381
33.341
33.306
33.278
33.258
33.247
33.246
33.257
33.282
33.323
33.383
33.463
33.564
33.689
33.837
34.008
34.203
34.419
34.655
34.909
35.178
35.46
35.75
36.047
36.347
36.645
36.94
37.229
37.508
37.777
38.034
38.276
38.504
38.716
38.912
39.092
39.256
39.404
39.535
39.651
39.75
39.835
39.904
39.96
40.004
40.035
40.055
40.064
40.062
40.051
40.031
40.003
39.967
39.924
39.876
39.823
39.765
39.704
39.641
39.574
39.506
39.437
39.367
39.298
39.229
39.162
39.096
39.031
38.968
38.905
38.843
38.781
38.718
38.655
38.591
38.525
38.458
38.391
38.324
38.259
38.195
38.134
38.076
38.023
37.973
37.928
37.887
37.851
37.818
37.791
37.767
37.748
37.733
37.723
37.716
37.713
37.712
37.714
37.719
37.725
37.733
37.741
37.751
37.76
37.769
37.775
37.779
37.781
37.778
37.771
37.76
37.744
37.724
37.7
37.671
37.637
37.599
37.557
37.511
37.461
37.408
37.353
37.295
37.236
37.177
37.117
37.057
36.996
36.936
36.876
36.816
36.757
36.699
36.642
36.586
36.531
36.477
36.424
36.371
36.319
36.266
36.213
36.159
36.104
36.047
35.989
35.931
35.872
35.814
35.757
35.701
35.647
35.595
35.544
35.495
35.448
35.402
35.358
35.315
35.273
35.231
35.191
35.152
35.113
35.075
35.037
34.999
34.962
34.926
34.89
34.856
34.823
34.79
34.759
34.728
34.698
34.668
34.64
34.612
34.586
34.563
34.54
34.519
34.5
34.481
34.462
34.443
34.424
34.405
34.384
34.362
34.339
34.313
34.285
34.255
34.223
34.188
34.153
34.117
34.081
34.046
34.012
33.98
33.95
33.922
33.895
33.87
33.846
33.823
33.802
33.781
33.761
33.74
33.72
33.699
33.679
33.658
33.637
33.616
33.595
33.573
33.552
33.529
33.507
33.484
33.461
33.437
33.412
33.387
33.362
33.337
33.311
33.285
33.258
33.23
33.203
33.175
33.146
33.118
33.089
33.061
33.034
33.007
32.982
32.959
32.938
32.92
32.906
32.896
32.891
32.892
32.901
32.92
32.951
32.997
33.059
33.139
33.239
33.36
33.503
33.666
33.849
34.05
34.268
34.499
34.742
34.993
35.25
35.508
35.766
36.02
36.267
36.506
36.736
36.953
37.157
37.347
37.521
37.68
37.823
37.949
38.059
38.153
38.232
38.297
38.349
38.388
38.415
38.431
38.438
38.435
38.423
38.404
38.379
38.348
38.313
38.274
38.232
38.186
38.139
38.089
38.038
37.985
37.93
37.874
37.815
37.755
37.693
37.63
37.567
37.503
37.44
37.376
37.312
37.246
37.179
37.11
37.04
36.968
36.895
36.822
36.748
36.675
36.604
36.536
36.471
36.41
36.354
36.303
36.257
36.217
36.183
36.154
36.13
36.112
36.099
36.09
36.086
36.087
36.092
36.101
36.114
36.132
36.152
36.174
36.198
36.222
36.246
36.268
36.288
36.304
36.316
36.323
36.325
36.323
36.317
36.306
36.291
36.272
36.251
36.226
36.198
36.167
36.135
36.1
36.063
36.025
35.985
35.944
35.901
35.857
35.811
35.764
35.717
35.669
35.62
35.57
35.52
35.469
35.418
35.367
35.314
35.262
35.209
35.155
35.102
35.049
34.995
34.943
34.891
34.839
34.789
34.741
34.693
34.648
34.605
34.564
34.526
34.49
34.457
34.425
34.394
34.364
34.334
34.304
34.272
34.24
34.207
34.172
34.137
34.101
34.065
34.029
33.994
33.961
33.93
33.902
33.876
33.852
33.83
33.809
33.79
33.771
33.752
33.733
33.713
33.692
33.67
33.646
33.62
33.594
33.567
33.54
33.513
33.487
33.461
33.437
33.413
33.392
33.372
33.354
33.338
33.322
33.308
33.295
33.282
33.27
33.258
33.245
33.232
33.218
33.203
33.188
33.172
33.158
33.144
33.13
33.116
33.102
33.087
33.071
33.054
33.036
33.016
32.994
32.972
32.948
32.923
32.898
32.873
32.847
32.821
32.795
32.769
32.743
32.717
32.691
32.664
32.638
32.612
32.586
32.562
32.538
32.517
32.499
32.486
32.477
32.475
32.48
32.493
32.516
32.551
32.599
32.662
32.743
32.844
32.966
33.109
33.275
33.463
33.673
33.902
34.148
34.409
34.682
34.963
35.25
35.538
35.825
36.106
36.379
36.642
36.892
37.127
37.346
37.548
37.731
37.897
38.044
38.175
38.288
38.386
38.468
38.537
38.593
38.638
38.671
38.696
38.711
38.719
38.719
38.713
38.699
38.68
38.654
38.624
38.589
38.551
38.511
38.468
38.423
38.376
38.329
38.28
38.23
38.179
38.127
38.074
38.021
37.967
37.913
37.859
37.804
37.748
37.691
37.633
37.572
37.51
37.445
37.379
37.312
37.245
37.178
37.113
37.05
36.99
36.933
36.881
36.833
36.791
36.753
36.721
36.694
36.673
36.656
36.643
36.635
36.631
36.631
36.634
36.643
36.655
36.67
36.688
36.709
36.73
36.752
36.772
36.79
36.805
36.816
36.825
36.829
36.83
36.826
36.818
36.806
36.789
36.767
36.742
36.712
36.678
36.64
36.6
36.556
36.51
36.463
36.414
36.365
36.314
36.264
36.214
36.164
36.114
36.066
36.018
35.971
35.924
35.877
35.829
35.78
35.729
35.677
35.624
35.571
35.517
35.463
35.41
35.358
35.306
35.255
35.206
35.156
35.106
35.056
35.006
34.955
34.904
34.853
34.803
34.753
34.706
34.659
34.616
34.574
34.536
34.502
34.47
34.441
34.413
34.387
34.362
34.338
34.313
34.288
34.263
34.237
34.21
34.184
34.157
34.13
34.104
34.079
34.054
34.031
34.009
33.988
33.967
33.946
33.924
33.902
33.878
33.853
33.827
33.8
33.773
33.746
33.72
33.696
33.674
33.655
33.64
33.629
33.622
33.618
33.615
33.612
33.609
33.603
33.595
33.583
33.568
33.55
33.53
33.508
33.486
33.464
33.443
33.423
33.404
33.386
33.367
33.349
33.33
33.31
33.29
33.269
33.247
33.223
33.198
33.171
33.142
33.11
33.077
33.042
33.006
32.969
32.933
32.899
32.866
32.836
32.809
32.785
32.764
32.745
32.728
32.712
32.699
32.689
32.682
32.679
32.682
32.694
32.717
32.752
32.804
32.874
32.964
33.075
33.208
33.365
33.543
33.744
33.965
34.204
34.459
34.727
35.006
35.293
35.584
35.876
36.167
36.454
36.734
37.005
37.264
37.509
37.739
37.951
38.145
38.32
38.475
38.612
38.73
38.831
38.914
38.982
39.035
39.075
39.103
39.12
39.127
39.125
39.114
39.097
39.074
39.047
39.016
38.983
38.948
38.91
38.872
38.832
38.79
38.746
38.7
38.652
38.602
38.55
38.496
38.44
38.383
38.325
38.266
38.205
38.143
38.079
38.015
37.948
37.879
37.808
37.735
37.661
37.586
37.511
37.437
37.365
37.297
37.233
37.175
37.122
37.075
37.033
36.997
36.967
36.942
36.924
36.911
36.904
36.902
36.905
36.912
36.921
36.933
36.947
36.962
36.979
36.996
37.013
37.032
37.051
37.07
37.088
37.106
37.121
37.134
37.142
37.147
37.146
37.141
37.131
37.115
37.095
37.069
37.039
37.005
36.967
36.926
36.882
