Trial 3:3back
34.017
34.005
33.992
33.98
33.967
33.952
33.937
33.919
33.899
33.877
33.854
33.828
33.801
33.773
33.744
33.714
33.684
33.653
33.623
33.592
33.562
33.532
33.503
33.473
33.444
33.414
33.385
33.358
33.333
33.312
33.295
33.284
33.28
33.285
33.299
33.325
33.365
33.422
33.496
33.591
33.706
33.843
34.001
34.181
34.38
34.597
34.83
35.076
35.33
35.589
35.849
36.106
36.356
36.597
36.827
37.045
37.249
37.438
37.612
37.77
37.912
38.038
38.148
38.243
38.323
38.389
38.443
38.486
38.517
38.537
38.548
38.548
38.54
38.523
38.5
38.469
38.433
38.392
38.348
38.301
38.252
38.202
38.151
38.099
38.047
37.995
37.942
37.889
37.833
37.775
37.715
37.652
37.588
37.522
37.453
37.384
37.314
37.243
37.173
37.104
37.037
36.974
36.913
36.857
36.805
36.756
36.71
36.667
36.628
36.592
36.561
36.535
36.515
36.501
36.494
36.494
36.499
36.51
36.525
36.545
36.567
36.59
36.614
36.637
36.658
36.675
36.69
36.701
36.71
36.718
36.724
36.729
36.732
36.732
36.729
36.72
36.706
36.686
36.66
36.629
36.591
36.547
36.496
36.439
36.379
36.316
36.253
36.19
36.129
36.07
36.012
35.957
35.902
35.848
35.793
35.737
35.679
35.621
35.56
35.499
35.435
35.371
35.306
35.241
35.177
35.114
35.053
34.997
34.945
34.899
34.858
34.82
34.786
34.751
34.712
34.667
34.616
34.559
34.499
34.436
34.373
34.312
34.254
34.202
34.157
34.121
34.094
34.078
34.073
34.078
34.093
34.114
34.14
34.168
34.195
34.219
34.24
34.255
34.263
34.265
34.258
34.244
34.221
34.192
34.158
34.12
34.08
34.039
33.998
33.958
33.919
33.88
33.842
33.806
33.771
33.738
33.705
33.672
33.641
33.61
33.581
33.553
33.528
33.507
33.493
33.486
33.489
33.502
33.527
33.565
33.616
33.682
33.765
33.865
33.984
34.122
34.278
34.452
34.644
34.852
35.075
35.309
35.551
35.8
36.05
36.299
36.541
36.774
36.996
37.203
37.395
37.573
37.736
37.884
38.016
38.131
38.229
38.311
38.377
38.429
38.467
38.492
38.506
38.51
38.505
38.491
38.469
38.441
38.407
38.368
38.326
38.281
38.234
38.185
38.135
38.083
38.031
37.977
37.923
37.869
37.813
37.757
37.699
37.637
37.571
37.501
37.427
37.351
37.274
37.197
37.119
37.041
36.963
36.886
36.811
36.739
36.671
36.608
36.551
36.5
36.455
36.417
36.385
36.36
36.342
36.33
36.326
36.327
36.334
36.344
36.356
36.368
36.38
36.39
36.399
36.408
36.416
36.425
36.434
36.443
36.451
36.458
36.463
36.466
36.465
36.461
36.453
36.44
36.423
36.402
36.377
36.348
36.318
36.286
36.252
36.216
36.176
36.134
36.087
36.035
35.979
35.919
35.856
35.791
35.725
35.661
35.597
35.536
35.476
35.418
35.363
35.308
35.255
35.201
35.148
35.095
35.042
34.989
34.937
34.885
34.834
34.784
34.737
34.692
34.649
34.607
34.567
34.527
34.49
34.455
34.423
34.394
34.368
34.344
34.323
34.303
34.283
34.264
34.243
34.222
34.199
34.177
34.154
34.132
34.11
34.089
34.068
34.047
34.028
34.01
33.994
33.981
33.973
33.973
33.98
33.991
34.005
34.018
34.029
34.036
34.037
34.033
34.022
34.005
33.979
33.946
33.906
33.86
33.809
33.755
33.7
33.645
33.592
33.54
33.491
33.447
33.407
33.371
33.341
33.314
33.291
33.271
33.25
33.229
33.205
33.179
33.153
33.128
33.108
33.096
33.096
33.11
33.14
33.189
33.258
33.348
33.459
33.593
33.748
33.924
34.119
34.332
34.56
34.801
35.05
35.306
35.565
35.825
36.082
36.332
36.571
36.795
37.003
37.191
37.359
37.506
37.632
37.738
37.826
37.897
37.952
37.993
38.023
38.043
38.054
38.058
38.055
38.045
38.029
38.007
37.979
37.946
37.907
37.863
37.816
37.765
37.711
37.653
37.593
37.53
37.465
37.397
37.328
37.257
37.185
37.114
37.042
36.969
36.896
36.821
36.746
36.669
36.593
36.516
36.44
36.366
36.295
36.227
36.163
36.104
36.051
36.004
35.965
35.934
35.911
35.896
35.889
35.887
35.89
35.897
35.907
35.92
35.936
35.953
35.972
35.991
36.012
36.033
36.054
36.076
36.098
36.12
36.141
36.16
36.177
36.189
36.196
36.198
36.194
36.186
36.175
36.161
36.144
36.124
36.1
36.074
36.045
36.013
35.979
35.941
35.901
35.858
35.811
35.761
35.709
35.653
35.595
35.535
35.474
35.412
35.351
35.292
35.234
35.178
35.124
35.07
35.017
34.964
34.91
34.857
34.803
34.75
34.697
34.645
34.593
34.543
34.493
34.446
34.399
34.353
34.309
34.265
34.223
34.182
34.144
34.11
34.078
34.049
34.024
34.003
33.986
33.971
33.957
33.945
33.934
33.923
33.913
33.904
33.898
33.892
33.888
33.884
33.881
33.878
33.874
33.868
33.861
33.851
33.838
33.824
33.808
33.789
33.77
33.75
33.73
33.71
33.689
33.668
33.647
33.624
33.601
33.578
33.555
33.534
33.514
33.495
33.478
33.463
33.448
33.434
33.42
33.404
33.386
33.365
33.341
33.314
33.284
33.252
33.219
33.185
33.151
33.119
33.092
33.072
33.059
33.055
33.061
33.078
33.109
33.155
33.217
33.298
33.399
33.521
33.664
33.827
34.01
34.209
34.423
34.649
34.882
35.121
35.363
35.605
35.843
36.077
36.302
36.518
36.722
36.912
37.088
37.248
37.391
37.518
37.628
37.722
37.799
37.86
37.904
37.934
37.95
37.954
37.946
37.928
37.899
37.861
37.814
37.761
37.703
37.641
37.577
37.512
37.448
37.384
37.321
37.257
37.193
37.128
37.062
36.994
36.925
36.853
36.78
36.705
36.628
36.548
36.467
36.384
36.302
36.221
36.141
36.063
35.988
35.916
35.847
35.784
35.726
35.675
35.633
35.6
35.576
35.562
35.557
35.561
35.573
35.592
35.616
35.646
35.679
35.717
35.756
35.796
35.836
35.875
35.913
35.948
35.981
36.012
36.039
36.062
36.082
36.096
36.105
36.108
36.105
36.097
36.084
36.067
36.045
36.019
35.989
35.955
35.917
35.876
35.832
35.787
35.74
35.693
35.645
35.597
35.549
35.499
35.448
35.396
35.343
35.289
35.235
35.181
35.129
35.077
35.026
34.974
34.923
34.872
34.821
34.771
34.722
34.675
34.629
34.585
34.541
34.499
34.459
34.421
34.385
34.353
34.324
34.297
34.273
34.25
34.228
34.208
34.188
34.169
34.151
34.133
34.117
34.102
34.086
34.07
34.053
34.035
34.016
33.998
33.979
33.963
33.949
33.937
33.928
33.92
33.915
33.912
33.909
33.906
33.903
33.898
33.892
33.883
33.871
33.857
33.839
33.821
33.802
33.783
33.763
33.743
33.722
33.698
33.673
33.644
33.614
33.581
33.547
33.512
33.476
33.442
33.409
33.379
33.354
33.333
33.318
33.31
33.311
33.323
33.347
33.386
33.442
33.516
33.609
33.723
33.858
34.016
34.195
34.396
34.615
34.852
35.102
35.362
35.628
35.897
36.165
36.429
36.686
36.932
37.166
37.385
37.587
37.774
37.944
38.099
38.238
38.362
38.471
38.565
38.642
38.703
38.747
38.776
38.79
38.791
38.779
38.756
38.725
38.687
38.645
38.599
38.551
38.5
38.447
38.392
38.335
38.277
38.218
38.158
38.096
38.033
37.969
37.904
37.839
37.773
37.708
37.642
37.575
37.507
37.439
37.371
37.305
37.242
37.181
37.123
37.067
37.015
36.965
36.918
36.873
36.831
36.791
36.755
36.721
36.691
36.666
36.644
36.628
36.617
36.611
36.611
36.616
36.625
36.635
36.646
36.655
36.663
36.668
36.672
36.674
36.675
36.675
36.674
36.672
36.668
36.664
36.657
36.648
36.636
36.621
36.602
36.578
36.55
36.518
36.482
36.442
36.4
36.355
36.309
36.26
36.209
36.155
36.099
36.038
35.974
35.906
35.835
35.761
35.683
35.605
35.525
35.447
35.37
35.296
35.226
35.159
35.097
35.038
34.983
34.931
34.88
34.83
34.782
34.734
34.688
34.644
34.602
34.562
34.526
34.492
34.46
34.431
34.404
34.378
34.354
34.33
34.305
34.281
34.257
34.232
34.206
34.179
34.152
34.123
34.095
34.067
34.04
34.015
33.992
33.97
33.951
33.934
33.919
33.906
33.895
33.887
33.88
33.873
33.866
33.858
33.847
33.835
33.822
33.809
33.795
33.781
33.765
33.748
33.728
33.707
33.684
33.659
33.632
33.604
33.572
33.538
33.502
33.464
33.423
33.382
33.34
33.298
33.258
33.221
33.186
33.154
33.123
33.094
33.065
33.038
33.012
32.988
32.967
32.952
32.944
32.946
32.96
32.989
33.034
33.097
33.18
33.286
33.415
33.569
33.747
33.947
34.167
34.405
34.659
34.925
35.2
35.48
35.763
36.044
36.32
36.588
36.844
37.086
37.312
37.519
37.707
37.875
38.023
38.151
38.26
38.35
38.42
38.473
38.51
38.533
38.544
38.545
38.536
38.518
38.493
38.461
38.424
38.383
38.338
38.291
38.242
38.191
38.14
38.089
38.038
37.987
37.937
37.888
37.837
37.786
37.733
37.678
37.621
37.56
37.496
37.428
37.356
37.283
37.207
37.13
37.051
36.973
36.894
36.816
36.739
36.666
36.597
36.532
36.473
36.419
36.371
36.328
36.291
36.26
36.234
36.212
36.194
36.181
36.17
36.163
36.156
36.149
36.141
36.134
36.127
36.122
36.118
36.116
36.115
36.115
36.116
36.116
36.116
36.115
36.115
36.113
36.109
36.102
36.091
36.075
36.054
36.027
35.996
35.959
35.919
35.876
35.828
35.778
35.723
35.665
35.603
35.538
35.471
35.404
35.336
35.268
35.201
35.134
35.068
35.002
34.938
34.875
34.813
34.753
34.694
34.635
34.577
34.519
34.46
34.402
34.344
34.287
34.232
34.179
34.129
34.081
34.036
33.995
33.957
33.923
33.891
33.863
33.836
33.811
33.786
33.76
33.733
33.702
33.67
33.638
33.606
33.575
33.548
33.524
33.503
33.485
33.47
33.457
33.446
33.436
33.427
33.42
33.413
33.407
33.4
33.391
33.38
33.367
33.352
33.336
33.32
33.303
33.286
33.27
33.255
33.24
33.225
33.21
33.194
33.177
33.159
33.14
33.119
33.095
33.069
33.041
33.01
32.978
32.944
32.909
32.872
32.833
32.792
32.749
32.704
32.658
32.612
32.569
32.528
32.491
32.459
32.433
32.413
32.401
32.399
32.408
32.431
32.47
32.529
32.609
32.713
32.843
32.999
33.182
33.39
33.623
33.876
34.148
34.434
34.731
35.033
35.337
35.639
35.933
36.217
36.489
36.745
36.985
37.207
37.41
37.593
37.755
37.895
38.013
38.11
38.186
38.244
38.285
38.312
38.326
38.328
38.321
38.306
38.284
38.257
38.223
38.184
38.14
38.092
38.039
37.982
37.923
37.86
37.794
37.726
37.655
37.582
37.508
37.431
37.352
37.271
37.189
37.106
37.023
36.941
36.86
36.78
36.701
36.624
36.547
36.47
36.395
36.32
36.249
36.183
36.121
36.066
36.017
35.975
35.94
35.912
35.892
35.878
35.87
35.868
35.87
35.876
35.886
35.898
35.914
35.933
35.955
35.979
36.006
36.034
36.063
36.089
36.114
36.135
36.154
36.169
36.18
36.187
36.189
36.186
36.178
36.166
36.15
36.13
36.106
36.079
36.049
36.015
35.977
35.936
35.89
35.839
35.784
35.724
35.66
35.594
35.526
35.457
35.387
35.318
35.25
35.183
35.117
35.053
34.99
34.929
34.871
34.815
34.76
34.706
34.653
34.6
34.547
34.495
34.444
34.395
34.347
34.302
34.26
34.219
34.179
34.14
34.102
34.065
34.03
33.998
33.967
33.938
33.91
33.882
33.854
33.827
33.801
33.776
33.753
33.732
33.712
33.693
33.676
33.659
33.643
33.627
33.61
33.593
33.576
33.559
33.542
33.525
33.509
33.492
33.475
33.458
33.442
33.426
33.41
33.395
33.38
33.364
33.348
33.332
33.316
33.3
33.285
33.27
33.256
33.243
33.228
33.212
33.194
33.174
33.152
33.129
33.105
33.082
33.06
33.038
33.017
32.998
32.979
32.961
32.941
32.919
32.894
32.866
32.833
32.798
32.762
32.723
32.685
32.646
32.609
32.573
32.54
32.51
32.484
32.462
32.446
32.439
32.444
32.462
32.498
32.554
32.631
32.732
32.858
33.009
33.184
33.383
33.604
33.844
34.103
34.376
34.662
34.957
35.257
35.559
35.857
36.149
36.43
36.696
36.944
37.172
37.378
37.56
37.718
37.853
37.966
38.057
38.13
38.185
38.226
38.253
38.267
38.271
38.265
38.25
38.23
38.204
38.174
38.139
38.099
38.055
38.005
37.949
37.889
37.823
37.754
37.683
37.609
37.535
37.461
37.388
37.316
37.247
37.179
37.112
37.046
36.979
36.91
36.837
36.761
36.682
36.598
36.513
36.427
36.343
36.264
36.19
36.124
36.066
36.016
35.974
35.939
35.912
35.891
35.876
35.867
35.863
35.864
35.87
35.88
35.895
35.914
35.936
35.962
35.991
36.023
36.056
36.089
36.119
36.146
36.168
36.183
36.193
36.197
36.194
36.186
36.173
36.155
36.133
36.107
36.077
36.044
36.009
35.972
35.933
35.892
35.848
35.8
35.749
35.694
35.637
35.579
35.52
35.462
35.404
35.348
35.293
35.239
35.185
35.13
35.073
35.015
34.955
34.895
34.834
34.773
34.712
34.652
34.595
34.54
34.49
34.444
34.402
34.363
34.327
34.291
34.257
34.223
34.188
34.152
34.115
34.078
34.04
34.002
33.964
33.927
33.891
33.856
33.824
33.795
33.771
33.752
33.737
33.724
33.714
33.705
33.696
33.686
33.675
33.661
33.645
33.628
33.608
33.587
33.566
33.544
33.521
33.499
33.479
33.461
33.446
33.432
33.421
33.411
33.402
33.393
33.384
33.374
33.364
33.352
33.34
33.327
33.312
33.297
33.281
33.263
33.245
33.227
33.21
33.192
33.174
33.154
33.133
33.11
33.084
33.056
33.026
32.993
32.957
32.92
32.882
32.843
32.803
32.763
32.721
32.68
32.64
32.603
32.568
32.538
32.512
32.491
32.478
32.473
32.479
32.497
32.529
32.578
32.645
32.733
32.843
32.976
33.134
33.315
33.521
33.749
33.999
34.268
34.552
34.847
35.148
35.449
35.746
36.036
36.313
36.576
36.821
37.047
37.252
37.436
37.601
37.745
37.871
37.978
38.068
38.142
38.201
38.245
38.275
38.292
38.296
38.287
38.268
38.238
38.2
38.154
38.101
38.043
37.978
37.908
37.835
37.759
37.681
37.603
37.526
37.45
37.375
37.3
37.226
37.152
37.078
37.003
36.926
36.848
36.767
36.684
36.598
36.511
36.422
36.333
36.246
36.163
36.084
36.011
35.944
35.883
35.828
35.779
35.738
35.703
35.678
35.662
35.656
35.66
35.673
35.695
35.723
35.758
35.798
35.839
35.881
35.918
35.949
35.976
36.003
36.029
36.055
36.08
36.103
36.125
36.144
36.159
36.17
36.176
36.175
36.168
36.154
36.133
36.104
36.069
36.027
35.979
35.925
35.867
35.806
35.743
35.678
35.614
35.549
35.484
35.419
35.354
35.288
35.22
35.149
35.076
35.001
34.925
34.85
34.777
34.706
34.638
34.574
34.513
34.456
34.403
34.354
34.308
34.265
34.225
34.186
34.148
34.111
34.073
34.035
33.997
33.957
33.917
33.876
33.835
33.794
33.753
33.714
33.677
33.641
33.609
33.579
33.552
33.529
33.507
33.486
33.467
33.448
33.429
33.409
33.388
33.366
33.343
33.32
33.297
33.273
33.249
33.226
33.203
33.182
33.163
33.146
33.131
33.117
33.104
33.092
33.079
33.066
33.053
33.04
33.027
33.013
32.998
32.98
32.961
32.939
32.914
32.888
32.859
32.829
32.798
32.768
32.737
32.706
32.675
32.644
32.611
32.579
32.545
32.511
32.476
32.44
32.402
32.362
32.321
32.279
32.236
32.193
32.153
32.115
32.08
32.05
32.025
32.005
31.993
31.991
32.0
32.023
32.063
32.123
32.204
32.31
32.44
32.598
32.782
32.993
33.23
33.491
33.773
34.071
34.381
34.697
35.015
35.329
35.634
35.928
36.208
36.471
36.714
36.938
37.139
37.319
37.477
37.612
37.726
37.818
37.89
37.943
37.978
37.998
38.006
38.002
37.988
37.965
37.934
37.895
37.848
37.794
37.733
37.666
37.592
37.512
37.425
37.333
37.236
37.134
37.03
36.922
36.814
36.704
36.595
36.487
36.38
36.275
36.172
36.07
35.971
35.873
35.777
35.681
35.586
35.491
35.397
35.305
35.217
35.134
35.059
34.991
34.933
34.883
34.841
34.808
34.785
34.773
34.772
34.782
34.802
34.829
34.865
34.908
34.955
35.007
35.062
35.119
35.177
35.236
35.293
35.346
35.395
35.437
35.474
35.503
35.526
35.542
35.551
35.554
35.55
35.54
35.523
35.501
35.475
35.445
35.413
35.378
35.342
35.302
35.259
35.211
35.16
35.104
35.045
34.983
34.92
34.857
34.794
34.73
34.666
34.602
34.535
34.467
34.398
34.328
34.257
34.186
34.116
34.046
33.977
33.911
33.846
33.786
33.729
33.675
33.625
33.577
33.531
33.486
33.441
33.398
33.355
33.313
33.273
33.235
33.199
33.164
33.131
33.099
33.068
33.036
33.006
32.977
32.95
32.926
32.904
32.885
32.866
32.848
32.831
32.814
32.798
32.784
32.771
32.76
32.751
32.744
32.739
32.737
32.737
32.739
32.742
32.747
32.753
32.759
32.765
32.77
32.772
32.773
32.772
32.769
32.765
32.76
32.753
32.744
32.733
32.719
32.701
32.68
32.658
32.634
32.61
32.585
32.562
32.539
32.516
32.494
32.473
32.451
32.431
32.413
32.398
32.389
32.387
32.392
32.407
32.433
32.473
32.529
32.603
32.698
32.814
32.954
33.116
33.3
33.506
33.731
33.972
34.226
34.49
34.76
35.033
35.303
35.568
35.823
36.065
36.29
36.498
36.687
36.856
37.005
37.135
37.246
37.338
37.412
37.469
37.51
37.536
37.55
37.552
37.544
37.527
37.501
37.465
37.422
37.37
37.313
37.25
37.183
37.112
37.038
36.961
36.879
36.794
36.705
36.613
36.517
36.419
36.318
36.213
36.105
35.992
35.876
35.755
35.632
35.508
35.384
35.262
35.143
35.029
34.921
34.821
34.73
34.649
34.58
34.523
34.48
34.452
34.438
34.438
34.451
34.474
34.508
34.551
34.602
34.661
34.726
34.796
34.868
34.943
35.017
35.091
35.163
35.232
35.299
35.362
35.42
35.473
35.518
35.555
35.584
35.605
35.619
35.626
35.628
35.624
35.616
35.602
35.584
35.562
35.536
35.507
35.476
35.443
35.406
35.366
35.324
35.279
35.233
35.184
35.132
35.078
35.022
34.965
34.908
34.852
34.797
34.741
34.683
34.621
34.554
34.483
34.408
34.329
34.249
34.167
34.085
34.006
33.93
33.858
33.79
33.727
33.669
33.614
33.563
33.513
33.466
33.42
33.376
33.334
33.295
33.259
33.226
33.196
33.171
33.15
33.134
33.122
33.113
33.108
33.107
33.108
33.113
33.119
33.126
33.132
33.136
33.136
33.134
33.127
33.116
33.103
33.088
33.072
33.057
33.042
33.03
33.02
33.014
33.012
33.014
33.021
33.033
33.048
33.067
33.089
33.116
33.15
33.192
33.246
33.313
33.397
33.499
33.621
33.764
33.93
34.119
34.331
34.564
34.817
35.086
35.369
35.66
35.953
36.245
36.532
36.808
37.072
37.321
37.553
37.766
37.96
38.134
38.288
38.422
38.535
38.63
38.706
38.765
38.808
38.837
38.853
38.858
38.853
38.84
38.819
38.791
38.757
38.715
38.667
38.612
38.55
38.48
38.404
38.323
38.238
38.15
38.061
37.971
37.88
37.789
37.698
37.608
37.518
37.428
37.339
37.249
37.159
37.069
36.977
36.884
36.792
36.701
36.612
36.526
36.446
36.37
36.3
36.236
36.176
36.123
36.076
36.036
36.005
35.982
35.968
35.963
35.967
35.978
35.997
36.022
36.054
36.092
36.134
36.18
36.228
36.276
36.324
36.37
36.413
36.453
36.49
36.523
36.553
36.58
36.605
36.625
36.641
36.651
36.654
36.649
36.635
36.614
36.583
36.545
36.499
36.448
36.392
36.332
36.27
36.205
36.14
36.073
36.006
35.937
35.866
35.792
35.716
35.636
35.554
35.469
35.384
35.299
35.214
35.132
35.052
34.974
34.9
34.829
34.761
34.697
34.636
34.579
34.524
34.471
34.419
34.368
34.319
34.271
34.225
34.182
34.142
34.106
34.073
34.043
34.016
33.991
33.968
33.946
33.927
33.909
33.893
33.879
33.867
33.856
33.844
33.833
33.821
33.812
33.804
33.799
33.797
33.795
33.793
33.789
33.783
33.775
33.764
33.751
33.737
33.721
33.704
33.685
33.664
33.642
33.619
33.594
33.571
33.55
33.532
33.52
33.513
33.513
33.523
33.544
33.58
33.631
33.702
33.793
33.907
34.044
34.205
34.39
34.597
34.825
35.073
35.337
35.614
35.901
36.193
36.486
36.775
37.057
37.329
37.588
37.831
38.058
38.267
38.458
38.63
38.783
38.916
39.03
39.124
39.2
39.258
39.299
39.325
39.336
39.334
39.319
39.294
39.26
39.219
39.172
39.121
39.067
39.01
38.952
38.893
38.833
38.774
38.716
38.659
38.602
38.546
38.49
38.432
38.372
38.31
38.244
38.175
38.101
38.024
37.944
37.861
37.777
37.692
37.607
37.524
37.443
37.366
37.293
37.225
37.163
37.106
37.054
37.007
36.966
36.93
36.899
36.874
36.855
36.843
36.835
36.832
36.833
