Trial 3:3back
34.621
34.6
34.584
34.575
34.573
34.58
34.596
34.621
34.659
34.71
34.775
34.856
34.953
35.067
35.198
35.345
35.506
35.68
35.863
36.055
36.251
36.451
36.652
36.852
37.046
37.234
37.413
37.581
37.735
37.875
37.999
38.107
38.203
38.287
38.362
38.427
38.483
38.531
38.572
38.606
38.633
38.654
38.671
38.685
38.698
38.709
38.719
38.728
38.735
38.742
38.747
38.751
38.754
38.756
38.756
38.755
38.752
38.747
38.739
38.728
38.714
38.698
38.678
38.654
38.628
38.598
38.566
38.531
38.495
38.457
38.418
38.378
38.338
38.299
38.261
38.224
38.191
38.162
38.136
38.114
38.096
38.081
38.068
38.057
38.046
38.037
38.029
38.021
38.015
38.008
38.002
37.996
37.99
37.983
37.974
37.961
37.946
37.926
37.904
37.878
37.851
37.824
37.798
37.774
37.752
37.733
37.717
37.703
37.689
37.674
37.658
37.64
37.618
37.592
37.564
37.532
37.496
37.458
37.416
37.373
37.327
37.28
37.232
37.183
37.133
37.084
37.035
36.987
36.939
36.892
36.845
36.798
36.753
36.709
36.667
36.626
36.586
36.546
36.506
36.465
36.425
36.385
36.346
36.308
36.272
36.237
36.203
36.17
36.137
36.103
36.069
36.034
35.997
35.96
35.921
35.88
35.84
35.8
35.761
35.724
35.69
35.659
35.631
35.605
35.581
35.557
35.533
35.507
35.479
35.448
35.414
35.377
35.338
35.297
35.255
35.213
35.171
35.132
35.095
35.06
35.028
34.999
34.971
34.944
34.918
34.891
34.863
34.834
34.804
34.772
34.739
34.704
34.67
34.635
34.603
34.574
34.548
34.525
34.504
34.486
34.47
34.455
34.441
34.428
34.417
34.407
34.398
34.392
34.389
34.392
34.402
34.423
34.456
34.506
34.572
34.659
34.765
34.89
35.033
35.193
35.367
35.554
35.75
35.953
36.159
36.367
36.573
36.776
36.974
37.167
37.352
37.529
37.697
37.854
37.999
38.132
38.252
38.36
38.454
38.536
38.606
38.665
38.713
38.751
38.78
38.798
38.808
38.809
38.802
38.789
38.773
38.754
38.734
38.715
38.698
38.683
38.67
38.659
38.647
38.635
38.621
38.605
38.587
38.566
38.543
38.519
38.494
38.469
38.443
38.417
38.392
38.366
38.341
38.313
38.283
38.249
38.212
38.171
38.129
38.085
38.04
37.995
37.951
37.908
37.867
37.827
37.79
37.756
37.726
37.699
37.678
37.661
37.65
37.644
37.643
37.644
37.647
37.652
37.656
37.659
37.66
37.66
37.658
37.654
37.647
37.637
37.625
37.608
37.589
37.565
37.539
37.509
37.476
37.438
37.397
37.352
37.304
37.255
37.205
37.155
37.107
37.06
37.016
36.974
36.934
36.894
36.853
36.81
36.766
36.719
36.672
36.624
36.576
36.529
36.482
36.438
36.396
36.356
36.319
36.284
36.251
36.219
36.187
36.155
36.121
36.086
36.048
36.009
35.968
35.925
35.881
35.837
35.792
35.747
35.702
35.659
35.617
35.576
35.536
35.497
35.458
35.419
35.38
35.341
35.302
35.264
35.226
35.189
35.154
35.12
35.086
35.053
35.021
34.99
34.959
34.929
34.898
34.868
34.838
34.808
34.779
34.75
34.722
34.695
34.668
34.64
34.613
34.585
34.556
34.527
34.497
34.468
34.438
34.408
34.378
34.348
34.318
34.289
34.261
34.234
34.208
34.183
34.16
34.136
34.112
34.087
34.062
34.037
34.011
33.985
33.962
33.941
33.926
33.917
33.916
33.927
33.95
33.988
34.043
34.115
34.207
34.319
34.45
34.599
34.767
34.949
35.144
35.348
35.56
35.776
35.994
36.212
36.428
36.64
36.848
37.05
37.244
37.429
37.603
37.765
37.914
38.048
38.167
38.271
38.361
38.436
38.499
38.551
38.592
38.626
38.653
38.674
38.691
38.702
38.709
38.712
38.71
38.704
38.694
38.679
38.663
38.644
38.624
38.603
38.581
38.559
38.536
38.512
38.487
38.461
38.435
38.409
38.385
38.361
38.339
38.318
38.296
38.272
38.247
38.218
38.187
38.154
38.118
38.082
38.045
38.01
37.975
37.94
37.904
37.867
37.828
37.788
37.745
37.701
37.657
37.614
37.571
37.53
37.49
37.451
37.413
37.377
37.343
37.312
37.285
37.262
37.244
37.231
37.224
37.22
37.22
37.22
37.22
37.218
37.212
37.202
37.188
37.169
37.146
37.119
37.088
37.052
37.014
36.972
36.928
36.883
36.838
36.794
36.751
36.71
36.673
36.639
36.608
36.581
36.555
36.53
36.505
36.479
36.451
36.42
36.387
36.351
36.312
36.271
36.228
36.184
36.138
36.089
36.037
35.982
35.922
35.858
35.79
35.721
35.652
35.585
35.52
35.461
35.406
35.358
35.316
35.28
35.25
35.223
35.199
35.177
35.156
35.136
35.116
35.095
35.074
35.052
35.029
35.006
34.979
34.95
34.918
34.883
34.847
34.809
34.772
34.736
34.702
34.671
34.642
34.616
34.594
34.574
34.557
34.542
34.529
34.516
34.504
34.492
34.482
34.474
34.467
34.464
34.463
34.465
34.468
34.471
34.474
34.475
34.472
34.465
34.454
34.438
34.419
34.397
34.374
34.353
34.336
34.327
34.327
34.339
34.365
34.406
34.462
34.534
34.621
34.723
34.839
34.968
35.11
35.264
35.429
35.604
35.786
35.974
36.165
36.357
36.546
36.731
36.911
37.084
37.249
37.405
37.552
37.689
37.813
37.925
38.022
38.104
38.171
38.224
38.263
38.288
38.302
38.303
38.294
38.274
38.243
38.201
38.15
38.09
38.022
37.948
37.869
37.788
37.705
37.623
37.543
37.465
37.39
37.319
37.251
37.185
37.121
37.06
37.0
36.941
36.883
36.825
36.768
36.712
36.656
36.599
36.542
36.484
36.424
36.362
36.299
36.236
36.172
36.11
36.051
35.997
35.948
35.905
35.868
35.836
35.808
35.783
35.76
35.736
35.71
35.682
35.652
35.619
35.584
35.547
35.509
35.471
35.432
35.392
35.352
35.311
35.268
35.223
35.177
35.129
35.079
35.028
34.977
34.926
34.874
34.822
34.77
34.716
34.661
34.605
34.547
34.489
34.43
34.371
34.313
34.257
34.204
34.154
34.107
34.064
34.024
33.988
33.953
33.919
33.885
33.851
33.816
33.781
33.745
33.709
33.675
33.642
33.611
33.583
33.559
33.537
33.519
33.504
33.49
33.477
33.463
33.446
33.428
33.408
33.385
33.359
33.333
33.306
33.28
33.255
33.233
33.214
33.198
33.186
33.176
33.167
33.158
33.148
33.135
33.121
33.104
33.085
33.065
33.043
33.019
32.994
32.97
32.947
32.925
32.906
32.889
32.872
32.856
32.839
32.822
32.802
32.78
32.758
32.734
32.71
32.685
32.659
32.635
32.611
32.589
32.569
32.551
32.536
32.521
32.508
32.496
32.485
32.478
32.476
32.482
32.497
32.523
32.562
32.614
32.68
32.763
32.862
32.978
33.112
33.262
33.428
33.609
33.803
34.01
34.227
34.455
34.69
34.932
35.177
35.423
35.667
35.903
36.13
36.343
36.539
36.719
36.88
37.024
37.151
37.261
37.357
37.439
37.509
37.566
37.611
37.646
37.67
37.686
37.694
37.694
37.69
37.68
37.667
37.651
37.631
37.609
37.584
37.559
37.535
37.513
37.494
37.48
37.468
37.46
37.454
37.45
37.445
37.441
37.434
37.423
37.407
37.385
37.357
37.323
37.285
37.242
37.196
37.148
37.098
37.047
36.996
36.944
36.892
36.841
36.791
36.743
36.697
36.655
36.617
36.585
36.557
36.534
36.513
36.495
36.478
36.461
36.445
36.429
36.414
36.4
36.389
36.38
36.374
36.369
36.364
36.357
36.349
36.336
36.319
36.298
36.273
36.246
36.217
36.186
36.153
36.119
36.085
36.049
36.013
35.974
35.933
35.891
35.846
35.8
35.753
35.706
35.659
35.612
35.565
35.518
35.47
35.421
35.371
35.319
35.265
35.21
35.154
35.098
35.042
34.986
34.931
34.877
34.825
34.774
34.725
34.678
34.631
34.584
34.538
34.491
34.443
34.395
34.348
34.301
34.256
34.213
34.172
34.134
34.097
34.061
34.026
33.993
33.959
33.924
33.887
33.848
33.806
33.762
33.716
33.67
33.625
33.581
33.541
33.502
33.467
33.434
33.404
33.376
33.35
33.325
33.301
33.277
33.252
33.226
33.199
33.173
33.15
33.131
33.119
33.117
33.126
33.147
33.183
33.233
33.3
33.383
33.483
33.601
33.735
33.884
34.048
34.225
34.413
34.613
34.821
35.036
35.255
35.476
35.695
35.911
36.119
36.319
36.508
36.685
36.85
37.0
37.136
37.257
37.361
37.449
37.521
37.577
37.617
37.644
37.659
37.664
37.661
37.652
37.638
37.621
37.601
37.579
37.555
37.53
37.505
37.478
37.451
37.424
37.396
37.368
37.34
37.312
37.284
37.255
37.224
37.192
37.158
37.121
37.082
37.043
37.001
36.959
36.915
36.869
36.821
36.77
36.716
36.659
36.6
36.54
36.48
36.422
36.367
36.317
36.272
36.233
36.198
36.167
36.139
36.113
36.088
36.064
36.04
36.018
35.995
35.971
35.948
35.923
35.899
35.875
35.852
35.831
35.811
35.791
35.77
35.749
35.726
35.701
35.675
35.648
35.621
35.592
35.563
35.532
35.499
35.463
35.425
35.384
35.341
35.295
35.247
35.198
35.149
35.1
35.054
35.01
34.968
34.928
34.889
34.85
34.81
34.767
34.721
34.672
34.62
34.564
34.507
34.449
34.392
34.336
34.284
34.237
34.195
34.158
34.126
34.097
34.07
34.045
34.02
33.994
33.966
33.936
33.903
33.868
33.831
33.793
33.755
33.717
33.678
33.641
33.605
33.57
33.536
33.505
33.475
33.445
33.415
33.384
33.35
33.315
33.277
33.238
33.197
33.155
33.113
33.072
33.031
32.99
32.95
32.91
32.87
32.832
32.796
32.764
32.736
32.714
32.698
32.69
32.692
32.705
32.73
32.769
32.823
32.892
32.979
33.082
33.203
33.341
33.496
33.669
33.858
34.064
34.284
34.516
34.756
35.002
35.25
35.496
35.737
35.968
36.188
36.393
36.583
36.758
36.916
37.059
37.186
37.297
37.395
37.478
37.547
37.603
37.645
37.677
37.697
37.709
37.711
37.707
37.697
37.683
37.665
37.644
37.621
37.598
37.575
37.552
37.53
37.51
37.491
37.475
37.46
37.446
37.433
37.42
37.404
37.386
37.363
37.336
37.304
37.267
37.225
37.18
37.131
37.079
37.027
36.973
36.919
36.864
36.809
36.754
36.699
36.645
36.591
36.539
36.491
36.448
36.41
36.376
36.347
36.322
36.299
36.279
36.26
36.24
36.218
36.196
36.171
36.146
36.12
36.093
36.066
36.041
36.016
35.993
35.969
35.946
35.921
35.896
35.868
35.84
35.81
35.779
35.747
35.716
35.684
35.653
35.621
35.588
35.553
35.518
35.48
35.44
35.398
35.354
35.307
35.259
35.21
35.16
35.111
35.061
35.012
34.962
34.91
34.856
34.802
34.747
34.692
34.636
34.581
34.525
34.47
34.416
34.361
34.308
34.255
34.203
34.153
34.104
34.057
34.012
33.969
33.929
33.891
33.857
33.826
33.797
33.769
33.744
33.72
33.695
33.67
33.642
33.612
33.579
33.543
33.504
33.462
33.419
33.376
33.334
33.293
33.255
33.218
33.184
33.152
33.122
33.093
33.065
33.034
33.001
32.963
32.92
32.873
32.824
32.773
32.722
32.675
32.633
32.598
32.572
32.557
32.555
32.566
32.592
32.633
32.689
32.761
32.848
32.951
33.069
33.203
33.353
33.52
33.701
33.897
34.106
34.324
34.551
34.781
35.011
35.238
35.461
35.674
35.875
36.062
36.234
36.39
36.531
36.656
36.767
36.865
36.953
37.034
37.106
37.17
37.227
37.28
37.327
37.37
37.407
37.434
37.453
37.462
37.459
37.444
37.416
37.377
37.329
37.272
37.211
37.148
37.087
37.03
36.976
36.928
36.886
36.849
36.816
36.785
36.757
36.728
36.698
36.666
36.63
36.591
36.548
36.501
36.451
36.398
36.342
36.284
36.223
36.162
36.102
36.044
35.988
35.933
35.882
35.834
35.788
35.743
35.699
35.66
35.629
35.602
35.575
35.548
35.52
35.493
35.465
35.439
35.417
35.398
35.384
35.374
35.368
35.363
35.359
35.353
35.344
35.329
35.309
35.282
35.25
35.212
35.171
35.127
35.083
35.038
34.993
34.948
34.905
34.861
34.817
34.771
34.724
34.674
34.623
34.566
34.502
34.435
34.368
34.303
34.243
34.189
34.14
34.095
34.046
33.992
33.931
33.865
33.794
33.723
33.653
33.588
33.53
33.481
33.44
33.406
33.378
33.356
33.337
33.323
33.309
33.291
33.266
33.232
33.191
33.143
33.09
33.036
32.981
32.929
32.88
32.837
32.799
32.766
32.739
32.716
32.697
32.678
32.661
32.642
32.622
32.599
32.573
32.545
32.516
32.486
32.456
32.426
32.396
32.367
32.339
32.311
32.283
32.256
32.229
32.201
32.174
32.146
32.119
32.092
32.066
32.042
32.021
32.005
31.997
31.999
32.015
32.046
32.095
32.164
32.254
32.366
32.499
32.652
32.823
33.011
33.211
33.422
33.638
33.858
34.079
34.299
34.517
34.73
34.938
35.139
35.332
35.516
35.688
35.848
35.994
36.128
36.248
36.353
36.445
36.523
36.589
36.642
36.685
36.72
36.747
36.77
36.789
36.806
36.822
36.836
36.85
36.862
36.873
36.882
36.89
36.896
36.901
36.903
36.904
36.903
36.899
36.892
36.882
36.868
36.85
36.829
36.805
36.777
36.747
36.713
36.677
36.639
36.598
36.554
36.508
36.459
36.408
36.355
36.3
36.244
36.188
36.134
36.083
36.036
35.993
35.955
35.922
35.893
35.867
35.844
35.823
35.802
35.782
35.761
35.74
35.718
35.695
35.672
35.651
35.63
35.611
35.593
35.575
35.557
35.538
35.518
35.496
35.471
35.445
35.416
35.386
35.354
35.321
35.287
35.252
35.217
35.182
35.146
35.109
35.072
35.035
34.998
34.961
34.924
34.887
34.85
34.813
34.776
34.74
34.705
34.671
34.637
34.604
34.569
34.532
34.494
34.452
34.409
34.365
34.32
34.276
34.233
34.192
34.154
34.118
34.085
34.054
34.026
33.999
33.971
33.943
33.912
33.878
33.841
33.802
33.761
33.719
33.678
33.639
33.603
33.569
33.539
33.513
33.49
33.47
33.452
33.433
33.412
33.388
33.36
33.329
33.293
33.255
33.215
33.174
33.133
33.092
33.053
33.017
32.985
32.957
32.933
32.914
32.899
32.885
32.872
32.859
32.844
32.827
32.805
32.78
32.751
32.72
32.688
32.658
32.632
32.614
32.606
32.609
32.627
32.66
32.71
32.777
32.862
32.964
33.083
33.218
33.368
33.533
33.709
33.897
34.093
34.296
34.504
34.715
34.926
35.135
35.34
35.537
35.726
35.904
36.071
36.226
36.367
36.495
36.609
36.71
36.797
36.871
36.933
36.983
37.023
37.052
37.073
37.085
37.091
37.092
37.091
37.088
37.085
37.082
37.081
37.08
37.078
37.075
37.068
37.057
37.041
37.021
36.997
36.971
36.943
36.913
36.883
36.852
36.822
36.79
36.758
36.724
36.687
36.647
36.604
36.559
36.509
36.457
36.404
36.35
36.296
36.244
36.194
36.147
36.102
36.06
36.021
35.986
35.955
35.93
35.911
35.896
35.887
35.881
35.876
35.872
35.866
35.856
35.842
35.825
35.804
35.781
35.756
35.73
35.703
35.677
35.653
35.63
35.61
35.591
35.574
35.556
35.538
35.518
35.495
35.467
35.434
35.399
35.36
35.32
35.278
35.237
35.195
35.155
35.115
35.075
35.035
34.995
34.955
34.914
34.872
34.827
34.78
34.732
34.683
34.633
34.583
34.534
34.486
34.441
34.397
34.356
34.317
34.279
34.241
34.202
34.164
34.126
34.088
34.05
34.013
33.977
33.942
33.908
33.874
33.841
33.808
33.774
33.74
33.705
33.668
33.631
33.593
33.555
33.518
33.483
33.451
33.422
33.394
33.37
33.348
33.327
33.308
33.288
33.269
33.248
33.226
33.2
33.171
33.139
33.104
33.068
33.03
32.993
32.957
32.924
32.894
32.868
32.847
32.829
32.815
32.804
32.796
32.79
32.783
32.774
32.763
32.749
32.732
32.711
32.687
32.662
32.637
32.612
32.589
32.571
32.558
32.553
32.556
32.571
32.596
32.635
32.687
32.754
32.834
32.929
33.037
33.161
33.301
33.457
33.629
33.816
34.016
34.229
34.45
34.676
34.905
35.132
35.355
35.57
35.775
35.968
36.147
36.31
36.457
36.589
36.705
36.808
36.899
36.977
37.044
37.101
37.147
37.185
37.214
37.237
37.255
37.267
37.277
37.284
37.288
37.291
37.291
37.289
37.284
37.277
37.269
37.262
37.256
37.252
37.249
37.249
37.251
37.254
37.257
37.257
37.253
37.244
37.23
37.211
37.186
37.156
37.121
37.084
37.044
37.003
36.962
36.922
36.883
36.845
36.808
36.77
36.733
36.696
36.661
36.628
36.597
36.569
36.545
36.524
36.505
36.488
36.472
36.456
36.44
36.423
36.405
36.389
36.374
36.36
36.348
36.338
36.328
36.317
36.303
36.286
36.263
36.235
36.202
36.164
36.122
36.077
36.032
35.988
35.946
35.906
35.868
35.832
35.797
35.763
35.729
35.694
35.657
35.618
35.577
35.534
35.488
35.442
35.395
35.347
35.3
35.255
35.21
35.165
35.12
35.075
35.031
34.987
34.943
34.9
34.858
34.816
34.775
34.735
34.695
34.656
34.618
34.581
34.545
34.509
34.473
34.437
34.4
34.362
34.324
34.286
34.249
34.213
34.177
34.143
34.11
34.078
34.048
34.019
33.991
33.961
33.93
33.897
33.861
33.823
33.784
33.744
33.706
33.669
33.636
33.605
33.577
33.551
33.528
33.507
33.488
33.469
33.449
33.428
33.405
33.381
33.355
33.327
33.299
33.272
33.247
33.224
33.204
33.188
33.175
33.164
33.154
33.144
33.134
33.121
33.105
33.084
33.06
33.03
32.997
32.961
32.924
32.886
32.85
32.816
32.785
32.76
32.74
32.727
32.718
32.716
32.718
32.727
32.742
32.764
32.793
32.831
32.88
32.941
33.016
33.106
33.215
33.342
33.487
33.651
33.833
34.03
34.241
34.463
34.692
34.926
35.16
35.392
35.617
35.834
36.04
36.234
36.415
36.582
36.736
36.877
37.006
37.121
37.225
37.316
37.397
37.468
37.53
37.584
37.629
37.667
37.697
37.72
37.736
37.744
37.745
37.742
37.735
37.726
37.716
37.706
37.698
37.691
37.686
37.682
37.679
37.675
37.669
37.662
37.654
37.643
37.631
37.617
37.601
37.583
37.562
37.538
37.511
37.482
37.451
37.418
37.384
37.35
37.316
37.283
37.251
37.22
37.19
37.162
37.134
37.106
37.078
37.049
37.021
36.992
36.965
36.939
36.916
36.896
36.88
36.867
36.857
36.849
36.84
36.832
36.821
36.809
36.794
36.777
36.758
36.737
36.714
36.689
36.663
36.634
36.603
36.57
36.536
36.501
36.465
36.429
36.391
36.353
36.313
36.273
36.231
36.188
36.144
36.099
36.052
36.003
35.953
35.9
35.847
35.795
35.744
35.696
35.652
35.612
35.574
35.539
35.504
35.468
35.432
35.393
35.351
35.306
35.258
35.209
35.159
35.109
35.061
35.017
34.977
34.94
34.908
34.878
34.849
34.822
34.794
34.765
34.734
34.702
34.668
34.633
34.596
34.559
34.521
34.484
34.447
34.41
34.375
34.34
34.305
34.27
34.234
34.198
34.161
34.126
34.091
34.058
34.027
33.996
33.966
33.937
33.907
33.877
33.847
33.818
33.789
33.76
33.732
33.705
33.679
33.654
33.63
33.607
33.587
33.567
33.549
33.532
33.516
33.498
33.479
33.457
33.432
33.404
33.372
33.337
33.3
33.261
33.222
33.183
33.147
33.114
33.085
33.059
33.036
33.017
33.0
32.986
32.974
32.964
32.957
32.952
32.952
32.957
32.971
32.995
33.033
33.087
33.159
33.252
33.365
33.5
33.655
33.828
34.016
34.218
34.429
34.646
34.866
35.086
35.305
35.52
35.73
35.933
36.128
36.315
36.492
36.657
36.81
36.95
37.076
37.187
37.284
37.367
37.437
37.495
37.541
37.576
37.602
37.619
37.628
37.631
37.627
37.619
37.608
37.595
37.584
37.574
37.566
37.562
37.559
37.559
37.558
37.556
37.552
37.543
37.529
37.512
37.491
37.468
37.443
37.418
37.393
37.367
37.34
37.312
37.282
37.249
37.213
37.172
37.128
37.081
37.033
36.984
36.934
36.884
36.834
36.787
36.741
36.697
36.656
36.618
36.583
36.55
36.52
36.493
36.469
36.45
36.434
36.423
36.414
36.408
36.401
36.394
36.385
36.373
36.358
36.339
36.318
36.296
36.271
36.246
36.221
36.196
36.171
36.146
36.121
36.095
36.067
36.036
36.002
35.963
35.921
35.876
35.828
35.779
35.73
35.681
35.633
35.585
35.539
35.493
35.448
35.401
35.353
35.302
35.249
35.195
35.138
35.081
35.025
34.969
34.915
34.863
34.813
34.766
34.721
34.678
34.637
34.598
34.56
34.522
34.483
34.442
34.399
34.355
34.311
34.266
34.221
34.177
34.134
34.092
34.051
34.011
33.972
33.933
33.894
33.856
33.818
33.781
33.745
33.71
33.678
33.648
33.62
33.595
33.571
33.548
33.525
33.502
33.477
33.451
33.422
33.39
33.355
33.318
33.278
33.237
33.197
33.158
33.122
33.089
33.062
33.039
33.02
33.006
32.995
32.986
32.977
32.968
32.955
32.94
32.92
32.896
32.868
32.837
32.803
32.769
32.735
32.701
32.669
32.639
32.612
32.588
32.566
32.547
32.53
32.514
32.498
32.481
32.463
32.443
32.42
32.395
32.37
32.347
32.327
32.313
32.309
