Trial 3:3back
35.729
35.691
35.652
35.613
35.574
35.536
35.496
35.457
35.418
35.379
35.34
35.3
35.26
35.219
35.176
35.134
35.091
35.047
35.004
34.96
34.917
34.873
34.83
34.788
34.747
34.707
34.668
34.631
34.595
34.56
34.525
34.49
34.454
34.417
34.382
34.349
34.317
34.287
34.258
34.228
34.198
34.167
34.138
34.111
34.088
34.067
34.05
34.036
34.023
34.012
34.002
33.992
33.982
33.971
33.959
33.947
33.934
33.922
33.909
33.896
33.882
33.869
33.854
33.838
33.821
33.803
33.784
33.763
33.742
33.721
33.7
33.68
33.66
33.64
33.619
33.597
33.574
33.548
33.52
33.491
33.46
33.429
33.397
33.363
33.329
33.293
33.257
33.223
33.191
33.166
33.148
33.138
33.138
33.149
33.17
33.203
33.25
33.312
33.388
33.48
33.588
33.711
33.849
34.002
34.168
34.346
34.533
34.728
34.929
35.133
35.337
35.539
35.737
35.929
36.113
36.288
36.452
36.604
36.742
36.867
36.978
37.075
37.158
37.226
37.279
37.32
37.348
37.366
37.375
37.376
37.372
37.366
37.364
37.367
37.372
37.379
37.384
37.384
37.379
37.367
37.346
37.319
37.283
37.241
37.193
37.141
37.084
37.026
36.967
36.908
36.85
36.792
36.735
36.678
36.621
36.564
36.507
36.449
36.39
36.332
36.276
36.221
36.168
36.117
36.069
36.026
35.987
35.953
35.925
35.902
35.884
35.87
35.858
35.848
35.839
35.832
35.825
35.819
35.815
35.811
35.808
35.805
35.803
35.801
35.8
35.799
35.797
35.796
35.794
35.791
35.786
35.779
35.768
35.754
35.738
35.719
35.7
35.679
35.657
35.635
35.612
35.589
35.564
35.539
35.513
35.485
35.455
35.422
35.387
35.35
35.311
35.27
35.226
35.18
35.131
35.08
35.027
34.972
34.917
34.861
34.808
34.756
34.708
34.66
34.614
34.57
34.526
34.485
34.446
34.41
34.376
34.345
34.314
34.283
34.253
34.224
34.195
34.165
34.135
34.104
34.071
34.036
33.999
33.961
33.921
33.882
33.843
33.806
33.772
33.741
33.715
33.693
33.675
33.661
33.65
33.641
33.633
33.626
33.618
33.609
33.597
33.582
33.566
33.548
33.529
33.511
33.493
33.476
33.46
33.445
33.43
33.414
33.397
33.378
33.36
33.347
33.341
33.344
33.352
33.363
33.373
33.38
33.381
33.375
33.361
33.338
33.305
33.265
33.217
33.163
33.106
33.048
32.99
32.934
32.882
32.835
32.792
32.757
32.729
32.71
32.702
32.707
32.726
32.761
32.812
32.88
32.965
33.066
33.183
33.316
33.464
33.624
33.794
33.972
34.154
34.338
34.521
34.703
34.88
35.052
35.218
35.375
35.523
35.66
35.786
35.9
36.002
36.091
36.167
36.229
36.28
36.318
36.344
36.36
36.366
36.363
36.351
36.333
36.308
36.277
36.241
36.202
36.16
36.116
36.073
36.03
35.988
35.948
35.908
35.87
35.832
35.795
35.76
35.727
35.695
35.663
35.631
35.597
35.561
35.521
35.479
35.433
35.385
35.334
35.282
35.229
35.174
35.12
35.066
35.014
34.964
34.918
34.877
34.84
34.808
34.781
34.757
34.737
34.721
34.709
34.702
34.698
34.699
34.704
34.713
34.725
34.74
34.756
34.775
34.795
34.815
34.834
34.85
34.862
34.87
34.876
34.879
34.879
34.876
34.872
34.864
34.853
34.839
34.82
34.799
34.775
34.748
34.72
34.689
34.657
34.623
34.586
34.547
34.507
34.466
34.426
34.387
34.348
34.31
34.272
34.235
34.198
34.161
34.126
34.093
34.062
34.032
34.003
33.975
33.945
33.915
33.883
33.851
33.818
33.784
33.751
33.717
33.685
33.653
33.623
33.6
33.584
33.576
33.574
33.576
33.579
33.581
33.581
33.578
33.572
33.562
33.548
33.53
33.508
33.483
33.455
33.427
33.397
33.369
33.343
33.32
33.299
33.282
33.266
33.252
33.239
33.228
33.217
33.209
33.204
33.201
33.2
33.199
33.195
33.189
33.18
33.169
33.155
33.141
33.125
33.11
33.094
33.078
33.063
33.049
33.035
33.021
33.008
32.996
32.983
32.97
32.957
32.943
32.929
32.914
32.898
32.883
32.867
32.852
32.837
32.822
32.807
32.791
32.774
32.758
32.742
32.727
32.712
32.696
32.679
32.661
32.645
32.632
32.624
32.622
32.628
32.645
32.675
32.717
32.775
32.847
32.935
33.037
33.154
33.285
33.428
33.581
33.743
33.912
34.084
34.259
34.431
34.6
34.762
34.916
35.059
35.19
35.308
35.414
35.506
35.585
35.651
35.703
35.743
35.77
35.784
35.787
35.78
35.765
35.745
35.72
35.693
35.662
35.628
35.59
35.55
35.51
35.47
35.434
35.4
35.37
35.342
35.314
35.285
35.255
35.223
35.188
35.151
35.111
35.067
35.019
34.97
34.918
34.865
34.811
34.757
34.702
34.648
34.594
34.541
34.491
34.444
34.4
34.362
34.329
34.304
34.286
34.275
34.271
34.273
34.28
34.291
34.306
34.324
34.344
34.365
34.387
34.41
34.433
34.457
34.48
34.503
34.525
34.546
34.564
34.578
34.587
34.591
34.591
34.585
34.577
34.566
34.554
34.541
34.529
34.517
34.505
34.493
34.482
34.471
34.46
34.448
34.436
34.422
34.405
34.386
34.363
34.338
34.31
34.279
34.247
34.212
34.176
34.138
34.099
34.06
34.021
33.983
33.947
33.913
33.882
33.853
33.826
33.801
33.777
33.756
33.736
33.718
33.7
33.683
33.664
33.643
33.62
33.595
33.571
33.546
33.523
33.5
33.48
33.461
33.447
33.435
33.425
33.416
33.408
33.401
33.395
33.39
33.385
33.379
33.371
33.364
33.356
33.348
33.342
33.337
33.333
33.329
33.326
33.322
33.318
33.314
33.308
33.302
33.295
33.287
33.278
33.269
33.26
33.25
33.241
33.233
33.225
33.217
33.211
33.205
33.2
33.195
33.19
33.185
33.179
33.174
33.17
33.165
33.159
33.153
33.144
33.135
33.124
33.114
33.105
33.098
33.091
33.086
33.082
33.08
33.081
33.087
33.099
33.119
33.15
33.193
33.249
33.321
33.408
33.511
33.627
33.756
33.899
34.053
34.216
34.383
34.552
34.719
34.881
35.036
35.185
35.325
35.455
35.574
35.682
35.778
35.861
35.931
35.99
36.037
36.073
36.099
36.116
36.125
36.128
36.126
36.119
36.11
36.097
36.082
36.065
36.045
36.022
35.995
35.966
35.934
35.9
35.865
35.83
35.794
35.759
35.723
35.687
35.65
35.614
35.579
35.544
35.511
35.479
35.446
35.413
35.379
35.343
35.307
35.27
35.234
35.197
35.16
35.124
35.087
35.051
35.017
34.986
34.958
34.935
34.917
34.904
34.894
34.889
34.887
34.888
34.893
34.901
34.912
34.926
34.943
34.961
34.98
34.999
35.018
35.036
35.054
35.069
35.082
35.092
35.099
35.104
35.106
35.104
35.1
35.094
35.085
35.073
35.059
35.042
35.022
35.0
34.977
34.953
34.928
34.904
34.88
34.855
34.83
34.805
34.78
34.753
34.726
34.698
34.67
34.641
34.611
34.58
34.548
34.515
34.483
34.452
34.423
34.394
34.366
34.339
34.312
34.284
34.255
34.225
34.194
34.164
34.134
34.105
34.077
34.052
34.028
34.007
33.989
33.974
33.961
33.951
33.942
33.935
33.929
33.924
33.92
33.916
33.912
33.906
33.898
33.887
33.873
33.856
33.837
33.816
33.796
33.777
33.76
33.746
33.735
33.726
33.72
33.716
33.713
33.712
33.712
33.713
33.714
33.716
33.716
33.714
33.709
33.701
33.692
33.682
33.67
33.658
33.646
33.634
33.622
33.61
33.597
33.584
33.569
33.551
33.533
33.513
33.495
33.477
33.462
33.449
33.439
33.43
33.423
33.416
33.409
33.402
33.393
33.384
33.374
33.366
33.359
33.356
33.356
33.36
33.369
33.382
33.401
33.429
33.467
33.517
33.579
33.655
33.745
33.85
33.967
34.098
34.239
34.391
34.55
34.713
34.88
35.046
35.21
35.368
35.519
35.661
35.793
35.913
36.021
36.117
36.2
36.272
36.332
36.382
36.421
36.45
36.471
36.484
36.488
36.484
36.474
36.458
36.436
36.41
36.38
36.346
36.31
36.271
36.231
36.191
36.151
36.112
36.075
36.041
36.009
35.979
35.952
35.927
35.903
35.879
35.856
35.834
35.812
35.788
35.762
35.733
35.7
35.663
35.624
35.584
35.543
35.504
35.466
35.43
35.396
35.364
35.333
35.305
35.279
35.257
35.239
35.224
35.213
35.203
35.196
35.19
35.187
35.186
35.189
35.196
35.207
35.222
35.24
35.261
35.282
35.305
35.328
35.35
35.372
35.391
35.408
35.423
35.435
35.445
35.451
35.455
35.456
35.453
35.447
35.436
35.422
35.404
35.382
35.357
35.33
35.301
35.269
35.234
35.199
35.162
35.127
35.095
35.07
35.053
35.043
35.036
35.031
35.023
35.011
34.993
34.968
34.936
34.899
34.857
34.812
34.763
34.711
34.659
34.607
34.558
34.513
34.473
34.438
34.408
34.381
34.358
34.338
34.321
34.305
34.291
34.278
34.267
34.255
34.245
34.234
34.223
34.213
34.203
34.193
34.184
34.176
34.168
34.16
34.151
34.142
34.133
34.124
34.116
34.109
34.103
34.097
34.09
34.082
34.073
34.064
34.054
34.044
34.035
34.025
34.016
34.007
33.998
33.988
33.978
33.967
33.955
33.942
33.931
33.921
33.914
33.909
33.905
33.902
33.899
33.897
33.894
33.891
33.886
33.879
33.87
33.858
33.843
33.826
33.807
33.785
33.761
33.736
33.708
33.68
33.652
33.624
33.598
33.574
33.552
33.533
33.516
33.5
33.486
33.472
33.459
33.446
33.433
33.421
33.409
33.398
33.39
33.386
33.388
33.398
33.418
33.451
33.497
33.559
33.636
33.728
33.834
33.955
34.09
34.238
34.398
34.566
34.742
34.923
35.104
35.286
35.464
35.637
35.802
35.958
36.102
36.233
36.349
36.45
36.535
36.604
36.659
36.701
36.732
36.752
36.764
36.768
36.764
36.755
36.74
36.721
36.698
36.675
36.65
36.625
36.598
36.569
36.537
36.502
36.466
36.427
36.388
36.347
36.306
36.264
36.223
36.182
36.141
36.102
36.064
36.026
35.989
35.952
35.915
35.879
35.843
35.809
35.774
35.741
35.707
35.674
35.639
35.603
35.567
35.531
35.495
35.461
35.429
35.4
35.376
35.355
35.338
35.325
35.317
35.314
35.315
35.321
35.33
35.343
35.358
35.374
35.391
35.408
35.425
35.443
35.461
35.479
35.496
35.513
35.528
35.542
35.554
35.564
35.571
35.576
35.577
35.574
35.565
35.55
35.53
35.505
35.476
35.445
35.41
35.374
35.337
35.299
35.261
35.222
35.185
35.149
35.114
35.081
35.051
35.023
34.996
34.972
34.95
34.93
34.911
34.894
34.877
34.86
34.842
34.822
34.8
34.777
34.753
34.729
34.705
34.682
34.66
34.638
34.615
34.593
34.571
34.55
34.529
34.508
34.488
34.47
34.452
34.437
34.422
34.41
34.399
34.391
34.385
34.383
34.384
34.387
34.39
34.393
34.395
34.396
34.395
34.392
34.387
34.38
34.37
34.358
34.344
34.33
34.314
34.298
34.281
34.265
34.25
34.235
34.221
34.209
34.197
34.186
34.178
34.171
34.166
34.161
34.156
34.15
34.142
34.133
34.123
34.113
34.103
34.092
34.081
34.067
34.052
34.034
34.014
33.994
33.973
33.952
33.93
33.907
33.881
33.853
33.824
33.795
33.767
33.741
33.719
33.7
33.684
33.672
33.662
33.657
33.655
33.657
33.663
33.675
33.693
33.717
33.749
33.789
33.84
33.902
33.976
34.063
34.162
34.273
34.395
34.527
34.666
34.813
34.966
35.123
35.282
35.442
35.599
35.752
35.897
36.033
36.159
36.275
36.38
36.475
36.559
36.63
36.689
36.733
36.765
36.784
36.793
36.793
36.785
36.771
36.752
36.727
36.698
36.665
36.629
36.59
36.551
36.511
36.47
36.428
36.386
36.343
36.299
36.255
36.21
36.165
36.121
36.077
36.035
35.993
35.952
35.913
35.874
35.835
35.797
35.759
35.722
35.686
35.651
35.616
35.584
35.553
35.525
35.501
35.482
35.469
35.461
35.458
35.457
35.46
35.464
35.468
35.473
35.477
35.481
35.486
35.492
35.501
35.511
35.524
35.538
35.553
35.569
35.583
35.596
35.606
35.613
35.618
35.621
35.623
35.624
35.623
35.62
35.615
35.607
35.598
35.588
35.577
35.567
35.556
35.543
35.528
35.511
35.49
35.466
35.44
35.411
35.379
35.346
35.311
35.274
35.237
35.198
35.159
35.12
35.079
35.039
34.999
34.958
34.918
34.878
34.84
34.806
34.774
34.746
34.721
34.699
34.68
34.664
34.65
34.638
34.629
34.62
34.611
34.601
34.59
34.578
34.564
34.548
34.531
34.513
34.495
34.476
34.458
34.44
34.422
34.402
34.382
34.361
34.34
34.32
34.303
34.288
34.275
34.266
34.259
34.253
34.249
34.247
34.246
34.247
34.248
34.251
34.254
34.258
34.261
34.265
34.267
34.27
34.272
34.273
34.271
34.266
34.259
34.25
34.239
34.225
34.21
34.194
34.176
34.157
34.137
34.117
34.097
34.077
34.057
34.039
34.021
34.004
33.988
33.97
33.952
33.934
33.916
33.9
33.886
33.875
33.868
33.866
33.871
33.884
33.907
33.941
33.988
34.047
34.121
34.209
34.312
34.428
34.557
34.699
34.851
35.013
35.182
35.357
35.535
35.713
35.89
36.064
36.231
36.39
36.541
36.681
36.809
36.923
37.023
37.108
37.178
37.234
37.278
37.309
37.329
37.338
37.338
37.329
37.312
37.288
37.258
37.223
37.184
37.142
37.097
37.051
37.004
36.957
36.91
36.862
36.816
36.772
36.729
36.687
36.647
36.608
36.569
36.531
36.493
36.455
36.417
36.377
36.335
36.291
36.244
36.197
36.149
36.104
36.063
36.026
35.993
35.965
35.94
35.918
35.9
35.885
35.874
35.864
35.857
35.853
35.849
35.847
35.845
35.845
35.847
35.849
35.853
35.858
35.863
35.87
35.877
35.885
35.893
35.901
35.909
35.916
35.924
35.93
35.936
35.94
35.942
35.943
35.944
35.944
35.944
35.943
35.94
35.934
35.926
35.915
35.901
35.885
35.866
35.845
35.82
35.791
35.758
35.722
35.683
35.641
35.599
35.555
35.511
35.468
35.425
35.381
35.336
35.291
35.246
35.201
35.157
35.114
35.073
35.033
34.995
34.958
34.922
34.887
34.856
34.829
34.806
34.788
34.772
34.758
34.745
34.733
34.722
34.711
34.701
34.69
34.677
34.664
34.648
34.631
34.612
34.593
34.574
34.554
34.534
34.514
34.493
34.473
34.453
34.434
34.417
34.401
34.387
34.374
34.363
34.352
34.341
34.331
34.322
34.314
34.308
34.305
34.304
34.305
34.308
34.313
34.319
34.325
34.331
34.335
34.335
34.332
34.326
34.315
34.3
34.282
34.259
34.233
34.203
34.171
34.136
34.102
34.067
34.034
34.003
33.974
33.948
33.925
33.906
33.89
33.876
33.863
33.853
33.843
33.837
33.834
33.836
33.844
33.859
33.881
33.913
33.954
34.007
34.074
34.153
34.247
34.354
34.476
34.61
34.755
34.911
35.075
35.246
35.423
35.602
35.782
35.96
36.135
36.302
36.46
36.608
36.744
36.869
36.982
37.082
37.169
37.244
37.306
37.356
37.396
37.425
37.445
37.454
37.455
37.448
37.433
37.412
37.385
37.353
37.318
37.28
37.239
37.198
37.156
37.114
37.072
37.031
36.99
36.949
36.907
36.865
36.821
36.776
36.73
36.684
36.637
36.59
36.542
36.494
36.445
36.396
36.347
36.299
36.25
36.203
36.158
36.115
36.075
36.036
36.0
35.967
35.937
35.911
35.889
35.871
35.86
35.853
35.851
35.853
35.856
35.86
35.866
35.874
35.884
35.898
35.914
35.933
35.953
35.973
35.994
36.014
36.035
36.055
36.075
36.093
36.109
36.122
36.132
36.139
36.143
36.143
36.139
36.133
36.123
36.11
36.094
36.074
36.052
36.027
36.0
35.97
35.938
35.902
35.863
35.821
35.777
35.729
35.679
35.628
35.576
35.523
35.471
35.42
35.371
35.325
35.282
35.241
35.202
35.166
35.132
35.099
35.069
35.041
35.014
34.99
34.968
34.949
34.931
34.913
34.896
34.877
34.856
34.834
34.812
34.791
34.771
34.752
34.737
34.723
34.712
34.702
34.693
34.687
34.681
34.675
34.669
34.662
34.654
34.643
34.629
34.613
34.594
34.574
34.554
34.534
34.515
34.497
34.481
34.467
34.456
34.447
34.44
34.435
34.43
34.426
34.421
34.418
34.414
34.411
34.408
34.403
34.398
34.391
34.382
34.373
34.361
34.348
34.334
34.32
34.308
34.296
34.284
34.272
34.259
34.245
34.229
34.212
34.195
34.176
34.157
34.137
34.117
34.097
34.075
34.054
34.033
34.011
33.99
33.97
33.949
33.93
33.911
33.894
33.881
33.872
33.869
33.873
33.886
33.91
33.944
33.99
34.048
34.119
34.204
34.304
34.417
34.544
34.682
34.831
34.989
35.153
35.324
35.498
35.674
35.85
36.024
36.195
36.361
36.521
36.673
36.817
36.951
37.075
37.188
37.29
37.379
37.455
37.517
37.566
37.603
37.628
37.642
37.648
37.644
37.633
37.615
37.591
37.562
37.53
37.495
37.458
37.421
37.383
37.345
37.305
37.264
37.221
37.176
37.129
37.081
37.03
36.977
36.923
36.866
36.806
36.744
36.681
36.617
36.553
36.49
36.429
36.371
36.315
36.262
36.213
36.167
36.126
36.09
36.059
36.033
36.01
35.993
35.979
35.971
35.968
35.969
35.975
35.986
36.001
36.019
36.041
36.065
36.092
36.121
36.15
36.181
36.211
36.24
36.268
36.294
36.317
36.339
36.357
36.373
36.385
36.394
36.397
36.395
36.387
36.374
36.356
36.334
36.31
36.282
36.252
36.219
36.185
36.148
36.111
36.073
36.034
35.995
35.954
35.913
35.871
35.829
35.786
35.743
35.7
35.658
35.617
35.576
35.537
35.5
35.464
35.429
35.397
35.366
35.336
35.307
35.279
35.25
35.221
35.192
35.163
35.134
35.105
35.077
35.05
35.022
34.995
34.968
34.94
34.913
34.887
34.861
34.837
34.814
34.793
34.772
34.752
34.734
34.717
34.701
34.688
34.676
34.667
34.66
34.654
34.648
34.644
34.64
34.638
34.635
34.634
34.632
34.629
34.626
34.622
34.617
34.611
34.603
34.593
34.581
34.567
34.551
34.533
34.514
34.492
34.469
34.446
34.421
34.395
34.367
34.338
34.307
34.277
34.247
34.219
34.195
34.174
34.158
34.145
34.136
34.13
34.127
34.126
34.128
34.134
34.146
34.165
34.191
34.225
34.269
34.322
34.387
34.464
34.556
34.663
34.784
34.921
35.072
35.236
35.412
35.598
35.795
35.999
36.207
36.416
36.621
36.82
37.009
37.187
37.35
37.498
37.63
37.747
37.848
37.934
38.006
38.065
38.112
38.147
38.172
38.188
38.196
38.197
38.192
38.182
38.167
38.148
38.126
38.1
38.071
38.039
38.004
37.965
37.925
37.882
37.838
37.793
37.748
37.702
37.656
37.609
37.563
37.517
37.471
37.426
37.379
37.332
37.284
37.235
37.186
37.137
37.088
37.042
36.998
36.955
36.916
36.878
36.842
36.807
36.775
36.744
36.717
36.693
36.673
36.656
36.642
36.631
36.62
36.61
36.602
36.595
36.591
36.591
36.595
36.602
36.611
36.618
36.624
36.628
36.629
36.629
36.626
36.621
36.612
36.599
36.582
36.561
36.536
36.508
36.477
36.442
36.405
36.367
36.328
36.289
36.252
36.216
36.182
36.15
36.12
36.091
36.063
36.036
36.008
35.981
35.952
35.922
35.89
35.856
35.82
35.78
35.739
35.695
35.648
35.601
35.552
35.503
35.454
35.406
35.358
35.311
35.267
35.224
35.185
35.149
35.116
35.085
35.057
35.03
35.004
34.979
34.955
34.932
34.911
34.892
34.874
34.857
34.84
34.823
34.807
34.794
34.784
34.778
34.776
34.775
34.775
34.775
34.773
34.77
34.764
34.756
34.745
34.732
34.718
34.702
34.685
34.667
34.649
34.631
34.613
34.595
34.579
34.563
34.549
34.536
34.524
34.513
34.504
34.494
34.485
34.475
34.464
34.451
34.435
34.415
34.392
34.367
34.338
34.307
34.275
34.241
34.206
34.169
34.131
34.092
34.054
34.017
33.984
33.954
33.927
33.905
33.887
33.874
33.867
33.867
33.875
33.892
33.919
33.958
34.008
34.07
34.147
34.237
34.342
34.462
34.595
34.742
34.901
35.072
35.251
35.439
35.633
35.83
36.028
36.225
36.419
36.608
36.789
36.96
37.119
37.267
37.402
37.526
37.637
37.736
37.823
37.896
37.957
38.005
38.04
38.065
38.081
38.087
38.085
38.074
38.056
38.031
38.001
37.966
37.929
37.891
37.853
37.815
37.776
37.738
37.699
37.661
37.623
37.585
37.548
37.509
37.47
37.43
37.388
37.345
37.302
37.257
37.21
37.163
37.114
37.065
37.014
36.963
36.911
36.859
36.807
36.758
36.712
36.67
36.632
36.601
36.582
36.579
36.589
36.609
36.637
36.668
36.698
36.725
36.746
36.76
36.766
36.766
36.759
36.745
36.727
36.706
36.681
36.656
36.629
36.604
36.579
36.556
36.536
36.518
36.502
36.488
36.474
36.461
36.448
36.433
36.417
36.398
36.375
36.348
36.317
36.281
36.24
36.196
36.149
36.101
36.051
36.0
35.949
35.899
35.85
35.802
35.755
35.71
35.667
35.626
35.585
35.544
35.505
35.466
35.429
35.393
35.359
35.328
35.297
35.268
35.238
35.207
35.175
35.142
35.108
35.075
35.042
35.01
34.977
34.945
