Trial 3:3back
36.445
36.446
36.443
36.436
36.424
36.408
36.388
36.362
36.332
36.296
36.255
36.21
36.16
36.105
36.046
35.982
35.915
35.843
35.768
35.69
35.608
35.524
35.438
35.35
35.261
35.17
35.079
34.988
34.898
34.807
34.718
34.63
34.545
34.461
34.38
34.303
34.229
34.158
34.091
34.027
33.967
33.909
33.855
33.803
33.753
33.706
33.661
33.618
33.576
33.536
33.497
33.458
33.419
33.38
33.341
33.302
33.264
33.226
33.188
33.151
33.115
33.079
33.045
33.012
32.98
32.949
32.92
32.892
32.867
32.842
32.819
32.796
32.774
32.753
32.732
32.712
32.691
32.671
32.65
32.629
32.609
32.589
32.571
32.555
32.542
32.536
32.537
32.548
32.574
32.616
32.678
32.763
32.875
33.014
33.183
33.383
33.614
33.875
34.164
34.478
34.814
35.168
35.535
35.91
36.287
36.662
37.029
37.383
37.721
38.037
38.328
38.591
38.824
39.026
39.195
39.333
39.439
39.515
39.563
39.585
39.583
39.559
39.516
39.456
39.382
39.296
39.201
39.098
38.991
38.881
38.769
38.657
38.546
38.436
38.328
38.222
38.119
38.02
37.923
37.83
37.739
37.651
37.564
37.478
37.393
37.307
37.221
37.132
37.043
36.951
36.858
36.763
36.668
36.573
36.479
36.387
36.298
36.213
36.131
36.055
35.983
35.918
35.859
35.806
35.76
35.72
35.687
35.66
35.639
35.623
35.612
35.605
35.601
35.6
35.601
35.604
35.607
35.61
35.613
35.615
35.615
35.613
35.608
35.599
35.587
35.571
35.551
35.527
35.5
35.47
35.435
35.398
35.356
35.312
35.263
35.212
35.157
35.099
35.037
34.973
34.906
34.837
34.767
34.695
34.623
34.551
34.478
34.405
34.332
34.26
34.189
34.119
34.05
33.984
33.918
33.854
33.792
33.732
33.673
33.616
33.561
33.509
33.459
33.411
33.366
33.322
33.281
33.241
33.202
33.165
33.129
33.094
33.061
33.029
32.997
32.967
32.937
32.907
32.877
32.846
32.815
32.783
32.75
32.716
32.681
32.646
32.61
32.572
32.535
32.497
32.461
32.425
32.39
32.357
32.325
32.293
32.263
32.234
32.205
32.175
32.146
32.118
32.089
32.063
32.039
32.02
32.007
32.003
32.011
32.034
32.075
32.137
32.224
32.337
32.478
32.65
32.851
33.082
33.342
33.628
33.937
34.266
34.61
34.965
35.325
35.685
36.039
36.384
36.713
37.024
37.313
37.576
37.811
38.017
38.192
38.337
38.452
38.537
38.593
38.623
38.628
38.609
38.57
38.512
38.438
38.35
38.251
38.141
38.025
37.903
37.778
37.649
37.52
37.39
37.26
37.131
37.004
36.878
36.755
36.634
36.514
36.397
36.282
36.169
36.057
35.947
35.839
35.732
35.626
35.522
35.42
35.321
35.225
35.134
35.047
34.966
34.891
34.822
34.76
34.704
34.655
34.613
34.579
34.551
34.53
34.516
34.508
34.506
34.509
34.518
34.531
34.548
34.568
34.591
34.615
34.64
34.666
34.69
34.713
34.735
34.754
34.771
34.784
34.793
34.799
34.799
34.795
34.785
34.769
34.748
34.721
34.688
34.651
34.609
34.562
34.513
34.46
34.405
34.349
34.293
34.236
34.179
34.122
34.066
34.01
33.955
33.9
33.845
33.791
33.737
33.684
33.63
33.577
33.525
33.473
33.421
33.37
33.32
33.27
33.221
33.173
33.126
33.08
33.036
32.993
32.952
32.914
32.877
32.842
32.81
32.778
32.749
32.721
32.694
32.668
32.644
32.62
32.598
32.577
32.556
32.537
32.518
32.499
32.481
32.463
32.445
32.427
32.408
32.389
32.368
32.347
32.326
32.303
32.281
32.257
32.234
32.211
32.188
32.167
32.148
32.13
32.116
32.108
32.106
32.114
32.135
32.171
32.226
32.303
32.405
32.533
32.691
32.877
33.094
33.338
33.61
33.906
34.223
34.557
34.904
35.26
35.618
35.975
36.326
36.665
36.989
37.292
37.573
37.828
38.056
38.255
38.425
38.564
38.674
38.756
38.811
38.842
38.85
38.837
38.807
38.76
38.699
38.627
38.545
38.455
38.359
38.257
38.153
38.046
37.938
37.829
37.721
37.614
37.509
37.405
37.303
37.204
37.107
37.012
36.919
36.827
36.735
36.644
36.552
36.46
36.367
36.273
36.179
36.084
35.99
35.898
35.807
35.72
35.637
35.559
35.486
35.419
35.359
35.307
35.261
35.223
35.193
35.17
35.155
35.146
35.142
35.143
35.148
35.156
35.166
35.177
35.189
35.2
35.211
35.22
35.227
35.231
35.234
35.233
35.229
35.222
35.211
35.196
35.177
35.154
35.126
35.094
35.059
35.02
34.977
34.932
34.883
34.832
34.778
34.721
34.662
34.601
34.539
34.474
34.409
34.342
34.274
34.207
34.139
34.073
34.007
33.942
33.878
33.816
33.755
33.695
33.637
33.581
33.527
33.473
33.421
33.37
33.32
33.269
33.219
33.17
33.122
33.074
33.028
32.984
32.942
32.902
32.863
32.826
32.79
32.756
32.723
32.691
32.66
32.631
32.602
32.575
32.549
32.524
32.501
32.478
32.456
32.435
32.415
32.395
32.376
32.356
32.337
32.317
32.297
32.277
32.256
32.234
32.211
32.188
32.164
32.139
32.113
32.086
32.059
32.03
32.002
31.973
31.947
31.923
31.903
31.889
31.883
31.888
31.905
31.937
31.989
32.061
32.157
32.278
32.427
32.602
32.803
33.031
33.281
33.553
33.842
34.146
34.46
34.78
35.102
35.422
35.734
36.034
36.319
36.584
36.826
37.043
37.233
37.394
37.526
37.63
37.706
37.755
37.781
37.783
37.765
37.729
37.676
37.61
37.532
37.445
37.349
37.248
37.141
37.031
36.919
36.807
36.694
36.582
36.472
36.364
36.258
36.155
36.054
35.956
35.861
35.768
35.677
35.586
35.497
35.409
35.32
35.232
35.144
35.057
34.97
34.886
34.803
34.724
34.648
34.577
34.511
34.451
34.396
34.346
34.302
34.265
34.233
34.207
34.187
34.173
34.165
34.162
34.164
34.169
34.177
34.188
34.201
34.215
34.23
34.245
34.261
34.276
34.291
34.305
34.316
34.326
34.332
34.335
34.336
34.332
34.325
34.313
34.297
34.276
34.25
34.219
34.182
34.141
34.096
34.047
33.995
33.941
33.884
33.826
33.767
33.708
33.649
33.591
33.535
33.48
33.426
33.374
33.324
33.275
33.226
33.179
33.132
33.087
33.042
32.997
32.954
32.912
32.871
32.831
32.793
32.757
32.721
32.687
32.654
32.622
32.591
32.561
32.532
32.504
32.476
32.45
32.425
32.401
32.377
32.355
32.333
32.311
32.29
32.27
32.25
32.231
32.212
32.193
32.174
32.155
32.135
32.116
32.096
32.077
32.057
32.037
32.018
31.998
31.979
31.962
31.946
31.932
31.923
31.92
31.924
31.938
31.964
32.004
32.061
32.135
32.229
32.346
32.486
32.65
32.839
33.052
33.289
33.547
33.824
34.118
34.424
34.738
35.057
35.375
35.69
35.996
36.291
36.571
36.832
37.071
37.287
37.478
37.642
37.78
37.89
37.974
38.034
38.07
38.086
38.082
38.06
38.025
37.976
37.917
37.848
37.771
37.689
37.602
37.513
37.421
37.329
37.236
37.145
37.054
36.965
36.879
36.795
36.713
36.633
36.556
36.48
36.406
36.332
36.259
36.187
36.114
36.04
35.967
35.894
35.822
35.751
35.682
35.616
35.554
35.497
35.446
35.4
35.362
35.332
35.309
35.295
35.288
35.289
35.298
35.313
35.333
35.358
35.387
35.418
35.45
35.483
35.516
35.548
35.579
35.608
35.635
35.659
35.681
35.698
35.712
35.722
35.727
35.728
35.724
35.717
35.705
35.688
35.667
35.642
35.613
35.58
35.543
35.502
35.456
35.407
35.354
35.297
35.237
35.176
35.112
35.047
34.982
34.917
34.853
34.79
34.729
34.668
34.609
34.552
34.496
34.442
34.389
34.338
34.289
34.241
34.194
34.149
34.105
34.061
34.019
33.976
33.935
33.894
33.853
33.813
33.773
33.734
33.697
33.66
33.625
33.593
33.562
33.534
33.507
33.483
33.46
33.438
33.417
33.396
33.376
33.357
33.337
33.318
33.298
33.279
33.26
33.241
33.222
33.203
33.184
33.165
33.147
33.129
33.111
33.093
33.075
33.057
33.04
33.023
33.006
32.991
32.978
32.969
32.965
32.968
32.982
33.007
33.049
33.108
33.187
33.289
33.416
33.568
33.746
33.951
34.182
34.438
34.717
35.016
35.332
35.661
35.999
36.34
36.681
37.015
37.34
37.65
37.943
38.214
38.462
38.685
38.881
39.05
39.191
39.304
39.391
39.451
39.486
39.499
39.492
39.466
39.424
39.367
39.297
39.218
39.13
39.034
38.934
38.829
38.721
38.612
38.502
38.393
38.285
38.179
38.076
37.977
37.88
37.788
37.698
37.611
37.526
37.442
37.359
37.277
37.196
37.116
37.035
36.955
36.875
36.797
36.72
36.645
36.573
36.504
36.438
36.377
36.321
36.269
36.223
36.182
36.146
36.115
36.089
36.068
36.052
36.041
36.035
36.033
36.036
36.042
36.051
36.063
36.077
36.092
36.109
36.126
36.142
36.157
36.17
36.18
36.185
36.186
36.183
36.175
36.162
36.143
36.12
36.092
36.06
36.023
35.982
35.938
35.89
35.84
35.787
35.732
35.675
35.617
35.558
35.499
35.44
35.382
35.325
35.268
35.213
35.16
35.107
35.056
35.005
34.954
34.904
34.855
34.805
34.756
34.707
34.66
34.613
34.566
34.519
34.473
34.427
34.382
34.338
34.296
34.254
34.215
34.177
34.14
34.105
34.071
34.038
34.007
33.977
33.949
33.921
33.894
33.868
33.841
33.814
33.787
33.761
33.735
33.708
33.681
33.653
33.625
33.597
33.567
33.537
33.506
33.475
33.444
33.412
33.38
33.348
33.317
33.286
33.256
33.228
33.201
33.177
33.157
33.143
33.135
33.135
33.147
33.171
33.212
33.27
33.35
33.451
33.577
33.729
33.906
34.109
34.337
34.588
34.858
35.146
35.447
35.758
36.075
36.393
36.707
37.015
37.311
37.592
37.855
38.097
38.317
38.511
38.68
38.822
38.937
39.025
39.087
39.124
39.138
39.13
39.102
39.056
38.994
38.92
38.835
38.742
38.642
38.537
38.428
38.317
38.204
38.089
37.974
37.859
37.745
37.631
37.519
37.408
37.3
37.194
37.09
36.989
36.89
36.793
36.698
36.605
36.514
36.424
36.335
36.248
36.162
36.078
35.996
35.916
35.839
35.765
35.694
35.628
35.567
35.512
35.463
35.422
35.388
35.361
35.342
35.331
35.326
35.327
35.334
35.345
35.359
35.375
35.393
35.411
35.428
35.445
35.461
35.475
35.487
35.496
35.501
35.503
35.501
35.496
35.486
35.472
35.454
35.43
35.402
35.369
35.332
35.289
35.243
35.192
35.139
35.084
35.028
34.971
34.915
34.858
34.802
34.745
34.688
34.631
34.574
34.516
34.459
34.401
34.343
34.286
34.229
34.172
34.115
34.06
34.005
33.952
33.899
33.847
33.796
33.746
33.698
33.652
33.608
33.566
33.526
33.488
33.451
33.417
33.384
33.353
33.324
33.295
33.267
33.24
33.214
33.189
33.165
33.142
33.119
33.096
33.074
33.052
33.029
33.005
32.981
32.956
32.931
32.905
32.879
32.852
32.826
32.799
32.773
32.748
32.723
32.698
32.675
32.654
32.636
32.621
32.612
32.611
32.621
32.644
32.684
32.743
32.826
32.933
33.066
33.227
33.416
33.631
33.871
34.135
34.419
34.72
35.035
35.36
35.689
36.019
36.346
36.664
36.97
37.26
37.53
37.779
38.003
38.2
38.371
38.514
38.63
38.72
38.784
38.823
38.84
38.836
38.813
38.774
38.719
38.651
38.571
38.481
38.383
38.279
38.17
38.057
37.942
37.825
37.71
37.595
37.484
37.375
37.271
37.171
37.074
36.981
36.891
36.803
36.717
36.632
36.548
36.465
36.382
36.3
36.217
36.136
36.056
35.979
35.904
35.834
35.767
35.705
35.648
35.597
35.552
35.513
35.482
35.458
35.441
35.431
35.429
35.433
35.443
35.46
35.481
35.508
35.537
35.569
35.603
35.637
35.67
35.702
35.732
35.759
35.783
35.803
35.821
35.834
35.843
35.848
35.848
35.843
35.833
35.817
35.797
35.771
35.741
35.706
35.666
35.623
35.577
35.528
35.476
35.422
35.367
35.31
35.252
35.193
35.134
35.076
35.018
34.961
34.905
34.85
34.796
34.743
34.692
34.642
34.594
34.548
34.503
34.459
34.417
34.376
34.335
34.296
34.258
34.221
34.184
34.148
34.112
34.077
34.042
34.007
33.972
33.937
33.903
33.87
33.837
33.807
33.777
33.749
33.722
33.696
33.671
33.647
33.625
33.603
33.582
33.562
33.542
33.521
33.501
33.48
33.459
33.437
33.415
33.392
33.37
33.348
33.327
33.307
33.288
33.27
33.255
33.244
33.237
33.237
33.245
33.265
33.297
33.346
33.413
33.502
33.614
33.751
33.915
34.107
34.326
34.572
34.843
35.137
35.451
35.782
36.125
36.477
36.833
37.188
37.539
37.88
38.208
38.518
38.807
39.073
39.313
39.525
39.708
39.861
39.985
40.08
40.147
40.187
40.203
40.197
40.171
40.128
40.07
39.999
39.918
39.828
39.731
39.63
39.525
39.419
39.313
39.207
39.103
39.001
38.902
38.806
38.714
38.625
38.539
38.456
38.375
38.296
38.219
38.142
38.067
37.991
37.916
37.841
37.766
37.69
37.614
37.539
37.465
37.392
37.321
37.252
37.186
37.123
37.064
37.009
36.958
36.911
36.87
36.834
36.804
36.778
36.756
36.739
36.725
36.714
36.706
36.699
36.694
36.691
36.687
36.683
36.679
36.673
36.665
36.655
36.643
36.629
36.613
36.594
36.573
36.548
36.521
36.489
36.454
36.414
36.37
36.322
36.268
36.211
36.151
36.087
36.02
35.951
35.881
35.809
35.736
35.664
35.591
35.519
35.448
35.378
35.309
35.242
35.176
35.111
35.048
34.986
34.927
34.87
34.815
34.763
34.711
34.662
34.614
34.567
34.522
34.478
34.435
34.393
34.353
34.313
34.275
34.238
34.203
34.17
34.138
34.107
34.077
34.048
34.019
33.991
33.963
33.935
33.908
33.881
33.854
33.829
33.804
33.781
33.759
33.737
33.717
33.696
33.676
33.655
33.634
33.613
33.59
33.567
33.542
33.517
33.491
33.464
33.438
33.413
33.391
33.373
33.362
33.36
33.37
33.394
33.435
33.496
33.58
33.688
33.821
33.981
34.168
34.382
34.622
34.886
35.172
35.476
35.796
36.126
36.464
36.804
37.141
37.472
37.79
38.093
38.377
38.638
38.874
39.083
39.264
39.416
39.539
39.634
39.702
39.743
39.76
39.755
39.729
39.685
39.625
39.552
39.466
39.372
39.269
39.161
39.048
38.932
38.814
38.695
38.576
38.458
38.343
38.23
38.119
38.011
37.906
37.803
37.703
37.606
37.51
37.416
37.322
37.229
37.135
37.04
36.946
36.85
36.755
36.661
36.568
36.477
36.39
36.307
36.229
36.158
36.094
36.037
35.989
35.95
35.919
35.896
35.882
35.875
35.875
35.88
35.889
35.903
35.919
35.939
35.96
35.982
36.004
36.026
36.046
36.064
36.079
36.09
36.097
36.1
36.098
36.091
36.079
36.063
36.043
36.019
35.991
35.959
35.922
35.882
35.839
35.793
35.744
35.693
35.64
35.586
35.531
35.475
35.418
35.36
35.301
35.241
35.179
35.116
35.052
34.987
34.922
34.858
34.794
34.732
34.67
34.61
34.552
34.495
34.441
34.389
34.34
34.292
34.247
34.205
34.164
34.124
34.086
34.049
34.013
33.978
33.945
33.912
33.881
33.851
33.821
33.793
33.765
33.738
33.712
33.688
33.664
33.641
33.619
33.597
33.575
33.554
33.532
33.509
33.487
33.464
33.442
33.419
33.397
33.376
33.356
33.338
33.322
33.31
33.303
33.302
33.308
33.324
33.353
33.396
33.458
33.541
33.646
33.777
33.935
34.121
34.336
34.578
34.847
35.141
35.456
35.788
36.133
36.488
36.846
37.204
37.556
37.899
38.227
38.537
38.825
39.087
39.323
39.53
39.707
39.854
39.971
40.059
40.118
40.151
40.159
40.144
40.109
40.057
39.99
39.91
39.821
39.723
39.619
39.511
39.399
39.285
39.169
39.053
38.936
38.82
38.705
38.592
38.481
38.371
38.265
38.16
38.057
37.957
37.858
37.76
37.664
37.568
37.474
37.38
37.287
37.196
37.107
37.02
36.937
36.857
36.781
36.71
36.644
36.584
36.531
36.484
36.444
36.412
36.386
36.366
36.353
36.345
36.342
36.344
36.349
36.357
36.368
36.38
36.392
36.405
36.416
36.426
36.433
36.438
36.441
36.44
36.435
36.426
36.413
36.395
36.374
36.347
36.316
36.28
36.239
36.193
36.143
36.089
36.03
35.969
35.904
35.836
35.765
35.693
35.62
35.546
35.473
35.4
35.328
35.258
35.188
35.12
35.053
34.987
34.923
34.859
34.797
34.736
34.676
34.617
34.561
34.505
34.452
34.4
34.349
34.3
34.252
34.205
34.16
34.115
34.073
34.032
33.993
33.956
33.92
33.885
33.851
33.818
33.785
33.753
33.721
33.69
33.659
33.629
33.601
33.573
33.547
33.522
33.499
33.476
33.455
33.434
33.413
33.392
33.371
33.349
33.326
33.303
33.279
33.253
33.227
33.2
33.172
33.145
33.119
33.097
33.08
33.071
33.072
33.087
33.12
33.173
33.249
33.351
33.482
33.642
33.832
34.051
34.299
34.572
34.869
35.184
35.516
35.858
36.206
36.555
36.9
37.236
37.559
37.864
38.148
38.407
38.638
38.84
39.011
39.15
39.258
39.336
39.384
39.406
39.402
39.376
39.33
39.267
39.188
39.096
38.994
38.883
38.765
38.641
38.513
38.383
38.251
38.119
37.988
37.859
37.732
37.609
37.488
37.371
37.257
37.146
37.037
36.931
36.826
36.722
36.619
36.517
36.415
36.313
36.212
36.111
36.013
35.916
35.822
35.731
35.645
35.563
35.487
35.418
35.355
35.299
35.252
35.212
35.179
35.155
35.138
35.128
35.124
35.125
35.131
35.141
35.154
35.168
35.184
35.201
35.216
35.231
35.244
35.255
35.263
35.267
35.268
35.266
35.258
35.247
35.231
35.211
35.186
35.156
35.122
35.083
35.039
34.991
34.94
34.885
34.827
34.767
34.704
34.64
34.575
34.509
34.443
34.377
34.312
34.247
34.185
34.123
34.063
34.005
33.948
33.893
33.84
33.787
33.736
33.686
33.636
33.587
33.539
33.492
33.447
33.404
33.364
33.324
33.287
33.252
33.219
33.189
33.161
33.136
33.113
33.091
33.071
33.053
33.035
33.017
33.0
32.983
32.966
32.948
32.931
32.914
32.896
32.88
32.863
32.846
32.829
32.812
32.795
32.777
32.76
32.743
32.726
32.71
32.695
32.681
32.67
32.662
32.659
32.664
32.679
32.705
32.746
32.805
32.884
32.985
33.11
33.26
33.435
33.635
33.859
34.104
34.369
34.651
34.947
35.251
35.561
35.871
36.178
36.477
36.765
37.038
37.293
37.528
37.741
37.929
38.093
38.232
38.347
38.436
38.503
38.548
38.572
38.577
38.565
38.539
38.5
38.451
38.392
38.325
38.253
38.175
38.094
38.01
37.924
37.837
37.749
37.66
37.571
37.481
37.39
37.298
37.204
37.109
37.012
36.914
36.814
36.714
36.613
36.512
36.412
36.313
36.217
36.124
36.035
35.951
35.872
35.799
35.733
35.675
35.624
35.582
35.548
35.522
35.504
35.495
35.493
35.498
35.51
35.526
35.547
35.571
35.598
35.626
35.655
35.683
35.711
35.737
35.76
35.78
35.796
35.806
35.811
35.81
35.802
35.788
35.769
35.743
35.713
35.678
35.64
35.599
35.555
35.51
35.462
35.413
35.363
35.312
35.261
35.208
35.155
35.101
35.046
34.99
34.933
34.875
34.817
34.758
34.7
34.643
34.586
34.531
34.478
34.425
34.375
34.326
34.278
34.232
34.186
34.141
34.096
34.05
34.005
33.959
33.912
33.865
33.818
33.77
33.721
33.673
33.624
33.576
33.529
33.482
33.436
33.393
33.351
33.311
33.274
33.24
33.207
33.178
33.151
33.125
33.101
33.079
33.057
33.036
33.015
32.994
32.973
32.95
32.926
32.9
32.874
32.846
32.818
32.79
32.763
32.738
32.717
32.702
32.695
32.7
32.717
32.751
32.803
32.877
32.975
33.098
33.249
33.429
33.636
33.871
34.133
34.418
34.723
35.046
35.382
35.726
36.073
36.42
36.761
37.091
37.407
37.704
37.979
38.228
38.45
38.643
38.806
38.937
39.039
39.111
39.156
39.175
39.171
39.144
39.098
39.035
38.958
38.869
38.77
38.665
38.555
38.442
38.327
38.212
38.098
37.986
37.877
37.772
37.67
37.573
37.479
37.39
37.303
37.22
37.139
37.058
36.979
36.9
36.822
36.743
36.664
36.586
36.507
36.429
36.352
36.275
36.199
36.125
36.053
35.984
35.919
35.857
35.801
35.751
35.706
35.669
35.637
35.613
35.595
35.584
35.579
35.58
35.586
35.597
35.611
35.63
35.65
35.673
35.696
35.719
35.74
35.759
35.775
35.787
35.795
35.799
35.798
35.792
35.781
35.765
35.744
35.718
35.687
35.651
35.61
35.565
35.516
35.464
35.408
35.351
35.29
35.228
35.165
35.1
35.034
34.967
34.9
34.833
34.767
34.702
34.639
34.578
34.518
34.46
34.403
34.346
34.29
34.235
34.179
34.124
34.069
34.015
33.962
33.909
33.858
33.809
33.76
33.714
33.669
33.626
33.584
33.545
33.507
33.472
33.437
33.405
33.374
33.344
33.316
33.287
33.259
33.231
33.203
33.174
33.145
33.116
33.087
33.058
33.029
32.998
32.967
32.935
32.903
32.87
32.837
32.805
32.773
32.743
32.714
