Trial 3:3back
38.323
38.213
38.103
37.99
37.875
37.758
37.637
37.515
37.391
37.267
37.144
37.025
36.912
36.807
36.712
36.628
36.555
36.494
36.444
36.406
36.378
36.362
36.359
36.367
36.385
36.41
36.441
36.475
36.509
36.543
36.574
36.6
36.622
36.638
36.647
36.647
36.639
36.624
36.602
36.573
36.537
36.496
36.448
36.394
36.333
36.267
36.195
36.119
36.039
35.955
35.869
35.778
35.684
35.587
35.486
35.381
35.272
35.159
35.042
34.921
34.797
34.672
34.546
34.421
34.299
34.178
34.061
33.948
33.84
33.735
33.634
33.537
33.442
33.351
33.261
33.172
33.084
32.996
32.909
32.822
32.736
32.65
32.567
32.487
32.411
32.339
32.271
32.207
32.145
32.087
32.032
31.98
31.933
31.89
31.85
31.813
31.778
31.743
31.71
31.677
31.646
31.618
31.594
31.572
31.554
31.537
31.524
31.512
31.501
31.492
31.483
31.476
31.471
31.469
31.469
31.472
31.476
31.482
31.488
31.495
31.501
31.508
31.515
31.522
31.527
31.531
31.532
31.532
31.528
31.522
31.512
31.5
31.486
31.471
31.454
31.436
31.418
31.399
31.381
31.364
31.347
31.333
31.322
31.317
31.321
31.338
31.374
31.436
31.531
31.668
31.854
32.097
32.402
32.772
33.206
33.701
34.25
34.846
35.479
36.136
36.806
37.475
38.132
38.765
39.365
39.925
40.437
40.898
41.305
41.657
41.955
42.2
42.395
42.543
42.647
42.71
42.736
42.729
42.695
42.639
42.565
42.476
42.375
42.266
42.151
42.033
41.911
41.787
41.662
41.538
41.414
41.292
41.171
41.052
40.933
40.816
40.699
40.582
40.467
40.352
40.237
40.124
40.011
39.897
39.784
39.67
39.555
39.44
39.323
39.206
39.087
38.967
38.846
38.723
38.6
38.476
38.353
38.232
38.113
37.997
37.887
37.781
37.681
37.587
37.499
37.418
37.344
37.278
37.219
37.167
37.125
37.09
37.063
37.044
37.031
37.024
37.021
37.021
37.022
37.023
37.024
37.022
37.017
37.009
36.995
36.977
36.954
36.926
36.891
36.849
36.8
36.743
36.68
36.611
36.537
36.457
36.374
36.286
36.196
36.104
36.01
35.914
35.816
35.716
35.614
35.512
35.41
35.309
35.207
35.104
35.001
34.896
34.79
34.683
34.575
34.467
34.358
34.248
34.139
34.03
33.924
33.821
33.722
33.626
33.533
33.443
33.356
33.271
33.189
33.109
33.031
32.955
32.882
32.81
32.741
32.675
32.612
32.553
32.497
32.442
32.39
32.341
32.294
32.249
32.206
32.167
32.129
32.094
32.06
32.028
31.997
31.968
31.94
31.914
31.89
31.868
31.848
31.83
31.813
31.796
31.779
31.761
31.743
31.726
31.71
31.697
31.688
31.681
31.676
31.673
31.669
31.665
31.661
31.656
31.651
31.644
31.637
31.626
31.613
31.596
31.577
31.556
31.532
31.507
31.481
31.455
31.429
31.403
31.377
31.351
31.324
31.298
31.271
31.247
31.228
31.216
31.217
31.234
31.274
31.341
31.443
31.587
31.778
32.023
32.325
32.688
33.11
33.589
34.12
34.695
35.305
35.94
36.589
37.241
37.885
38.51
39.109
39.675
40.201
40.684
41.118
41.504
41.839
42.124
42.359
42.549
42.694
42.8
42.869
42.905
42.91
42.889
42.844
42.778
42.694
42.595
42.484
42.363
42.234
42.1
41.961
41.821
41.68
41.544
41.414
41.291
41.176
41.068
40.966
40.87
40.776
40.685
40.593
40.501
40.407
40.31
40.21
40.108
40.002
39.894
39.783
39.671
39.558
39.442
39.325
39.206
39.086
38.965
38.843
38.719
38.594
38.467
38.34
38.215
38.092
37.974
37.862
37.76
37.669
37.589
37.521
37.464
37.417
37.379
37.349
37.324
37.304
37.286
37.271
37.256
37.24
37.223
37.204
37.182
37.158
37.129
37.096
37.057
37.012
36.962
36.906
36.843
36.774
36.7
36.622
36.54
36.455
36.367
36.277
36.184
36.089
35.991
35.891
35.788
35.688
35.597
35.516
35.443
35.376
35.31
35.242
35.168
35.086
34.995
34.896
34.787
34.671
34.549
34.423
34.295
34.167
34.041
33.918
33.801
33.69
33.586
33.489
33.398
33.313
33.235
33.162
33.094
33.03
32.969
32.911
32.855
32.8
32.747
32.695
32.646
32.598
32.552
32.507
32.464
32.423
32.384
32.347
32.312
32.278
32.247
32.217
32.188
32.159
32.132
32.106
32.079
32.051
32.023
31.995
31.967
31.939
31.911
31.882
31.855
31.828
31.801
31.775
31.75
31.728
31.708
31.69
31.673
31.658
31.644
31.63
31.615
31.597
31.577
31.554
31.528
31.501
31.471
31.441
31.41
31.378
31.344
31.308
31.271
31.234
31.196
31.159
31.124
31.09
31.058
31.028
31.0
30.974
30.951
30.93
30.91
30.891
30.872
30.852
30.832
30.813
30.794
30.779
30.771
30.775
30.797
30.841
30.914
31.023
31.174
31.373
31.625
31.933
32.3
32.726
33.209
33.743
34.322
34.937
35.579
36.238
36.903
37.561
38.204
38.821
39.404
39.948
40.447
40.896
41.294
41.64
41.935
42.179
42.375
42.526
42.635
42.707
42.744
42.749
42.728
42.683
42.618
42.536
42.44
42.331
42.213
42.086
41.952
41.812
41.667
41.519
41.371
41.222
41.076
40.931
40.791
40.655
40.527
40.406
40.293
40.189
40.091
40.0
39.912
39.826
39.741
39.654
39.565
39.471
39.371
39.265
39.153
39.033
38.906
38.772
38.632
38.487
38.338
38.186
38.034
37.884
37.738
37.599
37.468
37.347
37.236
37.138
37.052
36.978
36.918
36.869
36.831
36.803
36.783
36.769
36.759
36.752
36.746
36.74
36.731
36.719
36.703
36.683
36.659
36.629
36.595
36.556
36.512
36.465
36.413
36.357
36.298
36.236
36.171
36.101
36.026
35.946
35.861
35.771
35.675
35.573
35.466
35.356
35.243
35.127
35.009
34.89
34.771
34.652
34.533
34.414
34.297
34.181
34.068
33.958
33.851
33.748
33.65
33.555
33.464
33.375
33.289
33.204
33.121
33.039
32.958
32.878
32.799
32.721
32.645
32.57
32.496
32.425
32.354
32.284
32.216
32.149
32.085
32.023
31.964
31.908
31.854
31.804
31.756
31.712
31.67
31.632
31.596
31.563
31.531
31.501
31.473
31.446
31.421
31.396
31.37
31.344
31.317
31.289
31.261
31.232
31.202
31.172
31.142
31.113
31.085
31.06
31.038
31.019
31.004
30.992
30.983
30.978
30.975
30.975
30.977
30.982
30.987
30.991
30.995
30.996
30.995
30.991
30.984
30.974
30.963
30.952
30.94
30.929
30.916
30.903
30.889
30.873
30.857
30.839
30.82
30.8
30.779
30.756
30.732
30.706
30.68
30.654
30.629
30.605
30.586
30.575
30.574
30.59
30.626
30.692
30.794
30.94
31.138
31.394
31.712
32.095
32.542
33.049
33.609
34.215
34.857
35.524
36.204
36.885
37.556
38.207
38.828
39.41
39.946
40.431
40.863
41.238
41.558
41.823
42.034
42.195
42.309
42.38
42.413
42.411
42.379
42.32
42.238
42.136
42.019
41.888
41.748
41.602
41.45
41.295
41.139
40.981
40.823
40.666
40.509
40.353
40.2
40.052
39.917
39.8
39.701
39.615
39.539
39.469
39.399
39.326
39.247
39.159
39.06
38.95
38.828
38.696
38.553
38.402
38.242
38.078
37.91
37.742
37.576
37.413
37.258
37.112
36.978
36.856
36.749
36.655
36.576
36.511
36.461
36.424
36.4
36.386
36.383
36.388
36.399
36.413
36.43
36.446
36.461
36.473
36.481
36.484
36.482
36.476
36.466
36.452
36.434
36.414
36.392
36.366
36.337
36.304
36.267
36.225
36.177
36.123
36.062
35.993
35.916
35.833
35.744
35.651
35.554
35.457
35.358
35.258
35.159
35.061
34.964
34.869
34.775
34.683
34.591
34.499
34.407
34.314
34.222
34.131
34.042
33.953
33.866
33.778
33.691
33.604
33.518
33.431
33.344
33.257
33.172
33.088
33.006
32.926
32.85
32.778
32.71
32.645
32.583
32.523
32.465
32.407
32.349
32.29
32.231
32.17
32.11
32.049
31.988
31.928
31.869
31.81
31.753
31.699
31.648
31.603
31.563
31.528
31.499
31.474
31.454
31.439
31.429
31.423
31.421
31.423
31.428
31.434
31.441
31.448
31.454
31.459
31.461
31.461
31.458
31.454
31.447
31.438
31.427
31.413
31.397
31.378
31.357
31.335
31.313
31.29
31.266
31.242
31.214
31.185
31.153
31.121
31.09
31.06
31.036
31.017
31.008
31.011
31.031
31.072
31.14
31.241
31.38
31.565
31.801
32.091
32.437
32.839
33.295
33.8
34.349
34.932
35.538
36.157
36.779
37.393
37.988
38.555
39.087
39.577
40.02
40.413
40.756
41.049
41.291
41.485
41.634
41.741
41.808
41.84
41.84
41.811
41.758
41.683
41.591
41.483
41.364
41.234
41.096
40.952
40.804
40.653
40.5
40.346
40.191
40.036
39.881
39.726
39.57
39.415
39.262
39.111
38.963
38.82
38.68
38.546
38.416
38.292
38.172
38.055
37.941
37.828
37.716
37.603
37.487
37.37
37.251
37.13
37.004
36.87
36.728
36.582
36.435
36.289
36.149
36.017
35.898
35.793
35.707
35.639
35.591
35.562
35.552
35.559
35.578
35.607
35.643
35.683
35.725
35.766
35.804
35.84
35.871
35.897
35.918
35.933
35.943
35.947
35.943
35.931
35.908
35.874
35.83
35.775
35.709
35.633
35.548
35.454
35.354
35.248
35.138
35.026
34.913
34.801
34.69
34.582
34.477
34.377
34.283
34.193
34.109
34.029
33.951
33.877
33.804
33.732
33.662
33.593
33.524
33.456
33.387
33.317
33.247
33.175
33.102
33.028
32.954
32.878
32.803
32.729
32.655
32.582
32.511
32.444
32.379
32.316
32.254
32.196
32.14
32.089
32.041
31.996
31.955
31.917
31.882
31.85
31.821
31.794
31.768
31.742
31.715
31.689
31.661
31.633
31.602
31.569
31.535
31.5
31.465
31.43
31.396
31.364
31.332
31.302
31.274
31.248
31.225
31.206
31.191
31.18
31.171
31.166
31.163
31.161
31.162
31.163
31.164
31.165
31.165
31.165
31.165
31.165
31.165
31.166
31.167
31.169
31.172
31.177
31.183
31.192
31.202
31.212
31.223
31.234
31.247
31.263
31.284
31.313
31.353
31.408
31.483
31.584
31.717
31.889
32.106
32.373
32.695
33.074
33.509
33.998
34.536
35.115
35.726
36.361
37.006
37.653
38.289
38.906
39.493
40.043
40.548
41.005
41.41
41.762
42.06
42.306
42.501
42.648
42.75
42.811
42.835
42.828
42.793
42.736
42.661
42.569
42.465
42.352
42.231
42.104
41.973
41.837
41.699
41.56
41.421
41.282
41.145
41.011
40.881
40.755
40.634
40.519
40.408
40.302
40.201
40.104
40.012
39.922
39.835
39.748
39.66
39.57
39.476
39.376
39.27
39.156
39.035
38.907
38.771
38.627
38.477
38.323
38.165
38.006
37.847
37.692
37.541
37.397
37.263
37.14
37.031
36.935
36.853
36.786
36.734
36.694
36.666
36.648
36.637
36.633
36.632
36.633
36.632
36.63
36.624
36.614
36.6
36.581
36.557
36.53
36.5
36.467
36.431
36.392
36.352
36.308
36.262
36.212
36.158
36.099
36.034
35.963
35.886
35.803
35.713
35.618
35.518
35.415
35.308
35.199
35.089
34.978
34.866
34.754
34.641
34.527
34.414
34.301
34.187
34.075
33.964
33.854
33.746
33.64
33.537
33.437
33.339
33.244
33.151
33.062
32.976
32.894
32.813
32.736
32.661
32.588
32.519
32.453
32.391
32.333
32.28
32.231
32.184
32.141
32.1
32.062
32.026
31.992
31.96
31.931
31.903
31.876
31.852
31.83
31.811
31.794
31.781
31.77
31.761
31.755
31.748
31.741
31.731
31.717
31.7
31.679
31.654
31.626
31.596
31.566
31.536
31.506
31.477
31.451
31.426
31.405
31.386
31.369
31.354
31.341
31.329
31.318
31.306
31.293
31.278
31.26
31.239
31.215
31.188
31.159
31.13
31.102
31.079
31.063
31.059
31.072
31.108
31.174
31.277
31.425
31.625
31.882
32.201
32.584
33.031
33.536
34.093
34.694
35.329
35.988
36.658
37.329
37.988
38.626
39.233
39.801
40.324
40.797
41.216
41.582
41.893
42.151
42.357
42.516
42.63
42.704
42.741
42.744
42.719
42.67
42.6
42.512
42.411
42.297
42.174
42.043
41.908
41.769
41.628
41.487
41.346
41.208
41.071
40.936
40.804
40.674
40.548
40.426
40.308
40.193
40.081
39.971
39.864
39.758
39.652
39.545
39.436
39.324
39.207
39.086
38.959
38.827
38.69
38.546
38.399
38.248
38.095
37.944
37.795
37.65
37.512
37.383
37.265
37.157
37.061
36.977
36.906
36.846
36.796
36.755
36.721
36.693
36.67
36.651
36.637
36.625
36.618
36.615
36.615
36.618
36.624
36.632
36.641
36.649
36.655
36.656
36.649
36.635
36.609
36.571
36.52
36.455
36.379
36.29
36.192
36.084
35.968
35.849
35.726
35.603
35.48
35.359
35.238
35.119
35.002
34.887
34.775
34.664
34.556
34.45
34.346
34.243
34.143
34.044
33.947
33.852
33.759
33.668
33.577
33.485
33.392
33.298
33.203
33.108
33.012
32.917
32.823
32.73
32.64
32.554
32.472
32.395
32.324
32.257
32.195
32.137
32.082
32.029
31.978
31.926
31.875
31.824
31.774
31.726
31.682
31.64
31.602
31.567
31.534
31.503
31.472
31.443
31.415
31.388
31.361
31.336
31.31
31.285
31.261
31.237
31.212
31.188
31.163
31.139
31.116
31.094
31.073
31.054
31.037
31.021
31.006
30.992
30.98
30.964
30.94
30.909
30.871
30.83
30.786
30.745
30.707
30.674
30.647
30.628
30.615
30.608
30.606
30.61
30.617
30.627
30.643
30.665
30.696
30.741
30.804
30.891
31.008
31.164
31.366
31.621
31.936
32.314
32.758
33.265
33.829
34.443
35.097
35.779
36.476
37.175
37.862
38.527
39.157
39.744
40.281
40.761
41.182
41.542
41.841
42.081
42.265
42.397
42.482
42.523
42.526
42.497
42.44
42.361
42.265
42.154
42.033
41.902
41.764
41.622
41.476
41.326
41.175
41.024
40.874
40.725
40.579
40.434
40.29
40.148
40.008
39.87
39.735
39.602
39.47
39.341
39.212
39.083
38.954
38.826
38.698
38.57
38.442
38.313
38.181
38.048
37.91
37.769
37.626
37.479
37.332
37.184
37.038
36.896
36.758
36.627
36.505
36.392
36.29
36.201
36.123
36.058
36.004
35.963
35.933
35.913
35.903
35.899
35.901
35.908
35.919
35.931
35.943
35.954
35.963
35.97
35.972
35.969
35.961
35.947
35.927
35.903
35.873
35.838
35.799
35.755
35.706
35.651
35.589
35.52
35.445
35.365
35.278
35.188
35.094
34.998
34.902
34.807
34.712
34.62
34.529
34.44
34.351
34.261
34.171
34.079
33.985
33.89
33.792
33.693
33.594
33.494
33.395
33.298
33.202
33.109
33.018
32.93
32.847
32.772
32.705
32.642
32.582
32.524
32.465
32.406
32.346
32.282
32.217
32.15
32.081
32.012
31.941
31.869
31.797
31.726
31.658
31.593
31.533
31.479
31.431
31.389
31.353
31.321
31.293
31.268
31.246
31.226
31.207
31.188
31.17
31.151
31.132
31.115
31.097
31.08
31.064
31.048
31.032
31.015
30.998
30.981
30.963
30.944
30.924
30.904
30.883
30.863
30.844
30.825
30.806
30.788
30.768
30.749
30.73
30.714
30.7
30.69
30.688
30.695
30.716
30.755
30.818
30.91
31.039
31.212
31.436
31.717
32.058
32.463
32.929
33.454
34.029
34.647
35.297
35.968
36.649
37.327
37.99
38.628
39.23
39.788
40.295
40.747
41.141
41.478
41.759
41.986
42.162
42.291
42.378
42.425
42.437
42.416
42.368
42.297
42.206
42.098
41.976
41.843
41.702
41.554
41.401
41.247
41.091
40.935
40.78
40.627
40.477
40.33
40.186
40.047
39.911
39.778
39.648
39.519
39.391
39.262
39.134
39.004
38.874
38.743
38.61
38.476
38.341
38.204
38.065
37.925
37.783
37.641
37.498
37.357
37.218
37.082
36.95
36.825
36.709
36.602
36.507
36.425
36.356
36.301
36.258
36.227
36.205
36.193
36.189
36.191
36.197
36.201
36.204
36.206
36.207
36.207
36.209
36.211
36.214
36.219
36.224
36.228
36.229
36.227
36.221
36.21
36.192
36.166
36.132
36.089
36.038
35.978
35.911
35.836
35.755
35.669
35.579
35.487
35.392
35.295
35.197
35.098
34.997
34.893
34.787
34.678
34.566
34.452
34.337
34.223
34.111
34.002
33.898
33.799
33.705
33.615
33.53
33.448
33.367
33.289
33.211
33.134
33.057
32.98
32.904
32.829
32.754
32.681
32.611
32.544
32.48
32.42
32.363
32.309
32.257
32.206
32.156
32.106
32.057
32.01
31.965
31.924
31.887
31.855
31.826
31.801
31.778
31.757
31.738
31.719
31.701
31.681
31.661
31.641
31.621
31.604
31.59
31.578
31.568
31.56
31.553
31.546
31.538
31.53
31.522
31.512
31.501
31.487
31.471
31.453
31.432
31.408
31.382
31.355
31.327
31.3
31.274
31.252
31.238
31.236
31.252
31.292
31.361
31.467
31.619
31.822
32.082
32.403
32.786
33.23
33.732
34.284
34.879
35.506
36.153
36.809
37.463
38.102
38.717
39.299
39.84
40.334
40.779
41.17
41.507
41.79
42.021
42.202
42.336
42.426
42.477
42.492
42.476
42.433
42.366
42.28
42.178
42.063
41.939
41.807
41.672
41.536
41.399
41.264
41.132
41.003
40.876
40.751
40.628
40.507
40.386
40.267
40.15
40.035
39.921
39.809
39.698
39.589
39.481
39.374
39.269
39.163
39.055
38.942
38.822
38.695
38.56
38.417
38.268
38.112
37.951
37.787
37.621
37.455
37.291
37.133
36.982
36.841
36.712
36.594
36.491
36.401
36.325
36.262
36.212
36.174
36.147
36.13
36.12
36.116
36.115
36.118
36.122
36.126
36.128
36.128
36.123
36.115
36.104
36.088
36.069
36.048
36.022
35.993
35.959
35.918
35.87
35.816
35.755
35.687
35.613
35.533
35.448
35.36
35.267
35.172
35.076
34.979
34.882
34.786
34.687
34.58
34.465
34.343
34.216
34.088
33.962
33.842
33.729
33.625
33.529
33.443
33.366
33.297
33.235
33.178
33.124
33.072
33.021
32.97
32.916
32.858
32.797
32.732
32.662
32.588
32.512
32.436
32.359
32.283
32.21
32.139
32.072
32.009
31.949
31.893
31.84
31.79
31.743
31.697
31.653
31.611
31.57
31.532
31.497
31.465
31.437
31.414
31.395
31.38
31.367
31.357
31.348
31.341
31.333
31.326
31.319
31.312
31.307
31.302
31.298
31.294
31.291
31.289
31.285
31.281
31.275
31.269
31.263
31.258
31.253
31.248
31.243
31.239
31.233
31.227
31.221
31.215
31.211
31.209
31.21
31.216
31.229
31.253
31.29
31.347
31.432
31.55
31.711
31.92
32.185
32.509
32.895
33.339
33.837
34.384
34.971
35.588
36.223
36.865
37.503
38.125
38.722
39.285
39.807
40.284
40.711
41.088
41.413
41.688
41.912
42.089
42.222
42.314
42.369
42.39
42.383
42.352
42.299
42.228
42.143
42.045
41.936
41.821
41.699
41.573
41.445
41.315
41.185
41.056
40.927
40.799
40.673
40.547
40.422
40.299
40.177
40.056
39.937
39.82
39.706
39.594
39.485
39.38
39.278
39.178
39.078
38.977
38.873
38.766
38.654
38.537
38.413
38.284
38.15
38.011
37.868
37.723
37.579
37.438
37.302
37.172
37.05
36.935
36.83
36.733
36.645
36.566
36.497
36.437
36.386
36.344
36.309
36.283
36.263
36.249
36.239
36.231
36.223
36.213
36.202
36.187
36.169
36.147
36.121
36.092
36.059
36.02
35.977
35.93
35.879
35.825
35.767
35.704
35.637
35.566
35.49
35.409
35.325
35.239
35.15
35.06
34.969
34.877
34.785
34.692
34.6
34.507
34.414
34.322
34.229
34.137
34.044
33.951
33.858
33.765
33.673
33.58
33.486
33.393
33.301
33.21
33.123
33.038
32.956
32.875
32.796
32.717
32.639
32.562
32.486
32.41
32.336
32.262
32.189
32.118
32.048
31.981
31.915
31.852
31.791
31.733
31.677
31.623
31.573
31.528
31.489
31.456
31.429
31.409
31.393
31.382
31.375
31.37
31.367
31.366
31.366
31.365
31.364
31.361
31.358
31.353
31.348
31.344
31.342
31.341
31.341
31.34
31.339
31.337
31.333
31.326
31.318
31.309
31.3
31.291
31.281
31.273
31.264
31.256
31.247
31.238
31.23
31.223
31.222
31.229
31.249
31.286
31.346
31.435
31.558
31.72
31.928
32.183
32.488
32.843
33.246
33.692
34.176
34.691
35.229
35.781
36.339
36.893
37.435
37.957
38.451
38.911
39.335
39.72
40.064
40.366
40.624
40.839
41.013
41.147
41.245
41.308
41.341
41.346
41.328
41.29
41.234
41.163
41.08
40.987
40.886
40.78
40.67
40.556
40.44
40.322
40.204
40.087
39.972
39.86
39.751
39.646
39.544
39.445
39.348
39.253
39.159
39.065
38.971
38.879
38.787
38.695
38.603
38.511
38.418
38.324
38.229
38.132
38.031
37.927
37.818
37.704
37.586
37.462
37.336
37.207
37.077
36.947
36.818
36.693
36.573
36.461
36.356
36.261
36.176
36.102
36.038
35.984
35.939
35.903
35.875
35.854
35.838
35.826
35.815
35.808
35.805
35.804
35.804
35.804
35.803
35.798
35.789
35.774
35.753
35.726
35.693
35.654
35.609
35.559
35.503
35.445
35.382
35.317
35.249
35.18
35.11
35.04
34.969
