Trial 3:3back
32.205
32.201
32.194
32.184
32.172
32.157
32.14
32.121
32.1
32.081
32.063
32.052
32.051
32.064
32.094
32.145
32.219
32.321
32.452
32.615
32.812
33.042
33.304
33.596
33.915
34.257
34.62
34.998
35.389
35.788
36.19
36.59
36.984
37.367
37.734
38.082
38.408
38.71
38.987
39.237
39.46
39.656
39.825
39.969
40.089
40.185
40.26
40.314
40.351
40.372
40.379
40.375
40.361
40.337
40.305
40.267
40.222
40.174
40.124
40.072
40.019
39.965
39.911
39.856
39.799
39.74
39.679
39.615
39.55
39.483
39.416
39.349
39.282
39.214
39.145
39.076
39.005
38.933
38.861
38.787
38.714
38.64
38.566
38.494
38.423
38.355
38.289
38.227
38.17
38.117
38.069
38.024
37.982
37.943
37.906
37.871
37.839
37.809
37.781
37.755
37.73
37.705
37.68
37.653
37.625
37.596
37.567
37.537
37.507
37.476
37.442
37.406
37.366
37.324
37.277
37.226
37.171
37.112
37.049
36.981
36.91
36.835
36.758
36.678
36.597
36.517
36.437
36.358
36.282
36.207
36.133
36.061
35.99
35.92
35.85
35.779
35.709
35.638
35.568
35.497
35.425
35.351
35.276
35.2
35.124
35.048
34.973
34.899
34.826
34.756
34.688
34.621
34.555
34.49
34.426
34.365
34.306
34.248
34.192
34.137
34.084
34.033
33.985
33.939
33.896
33.855
33.816
33.777
33.739
33.7
33.66
33.618
33.576
33.533
33.489
33.443
33.397
33.352
33.308
33.266
33.226
33.188
33.152
33.118
33.085
33.054
33.026
32.999
32.974
32.949
32.926
32.901
32.875
32.848
32.819
32.788
32.757
32.725
32.691
32.655
32.62
32.585
32.552
32.523
32.498
32.48
32.469
32.47
32.485
32.516
32.566
32.637
32.73
32.849
32.994
33.168
33.372
33.606
33.871
34.163
34.481
34.821
35.179
35.551
35.933
36.32
36.709
37.094
37.47
37.833
38.177
38.498
38.796
39.068
39.314
39.535
39.731
39.902
40.048
40.171
40.272
40.352
40.412
40.455
40.482
40.496
40.497
40.489
40.473
40.451
40.423
40.39
40.354
40.313
40.271
40.227
40.182
40.139
40.096
40.054
40.012
39.968
39.922
39.874
39.823
39.768
39.709
39.645
39.577
39.504
39.425
39.342
39.252
39.158
39.06
38.959
38.857
38.756
38.656
38.557
38.46
38.365
38.275
38.189
38.109
38.036
37.968
37.907
37.851
37.8
37.753
37.711
37.673
37.64
37.612
37.588
37.568
37.549
37.531
37.511
37.489
37.463
37.435
37.404
37.372
37.338
37.302
37.265
37.224
37.18
37.132
37.08
37.025
36.968
36.907
36.844
36.777
36.705
36.63
36.553
36.473
36.391
36.309
36.226
36.143
36.057
35.97
35.882
35.792
35.702
35.612
35.522
35.432
35.342
35.252
35.164
35.077
34.993
34.912
34.834
34.758
34.683
34.609
34.536
34.465
34.396
34.33
34.267
34.206
34.148
34.093
34.039
33.988
33.94
33.893
33.848
33.804
33.759
33.714
33.669
33.625
33.582
33.54
33.5
33.459
33.419
33.38
33.342
33.306
33.271
33.237
33.203
33.169
33.134
33.099
33.064
33.028
32.993
32.958
32.924
32.89
32.856
32.823
32.791
32.76
32.729
32.697
32.665
32.632
32.597
32.562
32.528
32.494
32.46
32.427
32.393
32.36
32.326
32.292
32.257
32.22
32.182
32.141
32.1
32.059
32.018
31.98
31.943
31.91
31.878
31.85
31.827
31.81
31.802
31.807
31.828
31.868
31.93
32.016
32.129
32.271
32.446
32.653
32.895
33.169
33.476
33.813
34.18
34.573
34.989
35.422
35.868
36.319
36.77
37.215
37.649
38.067
38.464
38.836
39.182
39.498
39.783
40.036
40.257
40.447
40.608
40.74
40.847
40.932
40.997
41.043
41.073
41.088
41.089
41.078
41.056
41.025
40.986
40.943
40.898
40.852
40.806
40.761
40.718
40.676
40.636
40.596
40.556
40.516
40.475
40.435
40.393
40.352
40.308
40.263
40.214
40.16
40.103
40.041
39.975
39.903
39.827
39.744
39.657
39.564
39.468
39.368
39.265
39.162
39.06
38.96
38.863
38.77
38.681
38.597
38.519
38.446
38.379
38.318
38.264
38.215
38.172
38.133
38.096
38.061
38.028
37.995
37.962
37.927
37.89
37.851
37.809
37.765
37.718
37.669
37.617
37.563
37.507
37.45
37.391
37.33
37.267
37.201
37.133
37.061
36.986
36.908
36.829
36.749
36.667
36.584
36.498
36.411
36.322
36.23
36.136
36.04
35.942
35.843
35.741
35.638
35.534
35.429
35.326
35.225
35.127
35.03
34.937
34.846
34.76
34.677
34.599
34.525
34.454
34.385
34.316
34.248
34.179
34.111
34.045
33.979
33.916
33.854
33.794
33.735
33.677
33.622
33.569
33.517
33.468
33.419
33.373
33.328
33.286
33.247
33.208
33.171
33.134
33.098
33.06
33.022
32.982
32.942
32.901
32.861
32.82
32.779
32.74
32.702
32.667
32.635
32.606
32.58
32.555
32.532
32.511
32.49
32.47
32.449
32.426
32.401
32.374
32.345
32.315
32.282
32.245
32.205
32.161
32.114
32.063
32.01
31.957
31.903
31.85
31.797
31.747
31.699
31.654
31.611
31.573
31.538
31.51
31.488
31.476
31.477
31.493
31.53
31.589
31.674
31.787
31.931
32.107
32.318
32.565
32.845
33.159
33.504
33.876
34.272
34.689
35.121
35.564
36.012
36.461
36.903
37.334
37.749
38.143
38.513
38.856
39.173
39.462
39.723
39.954
40.157
40.331
40.477
40.596
40.688
40.755
40.8
40.825
40.833
40.826
40.806
40.775
40.735
40.687
40.631
40.571
40.508
40.444
40.38
40.318
40.257
40.196
40.137
40.079
40.022
39.965
39.909
39.855
39.8
39.745
39.688
39.627
39.562
39.493
39.418
39.338
39.252
39.163
39.071
38.977
38.881
38.785
38.688
38.593
38.5
38.41
38.326
38.247
38.173
38.106
38.044
37.989
37.939
37.894
37.853
37.815
37.779
37.745
37.71
37.674
37.636
37.596
37.555
37.512
37.468
37.423
37.376
37.328
37.278
37.226
37.173
37.119
37.064
37.006
36.946
36.881
36.812
36.738
36.662
36.584
36.504
36.424
36.343
36.263
36.183
36.103
36.024
35.946
35.869
35.792
35.716
35.639
35.561
35.482
35.402
35.321
35.238
35.154
35.068
34.981
34.893
34.804
34.715
34.627
34.54
34.457
34.378
34.303
34.231
34.162
34.096
34.032
33.972
33.914
33.859
33.806
33.753
33.702
33.651
33.601
33.551
33.501
33.451
33.401
33.351
33.301
33.252
33.204
33.157
33.112
33.068
33.025
32.984
32.943
32.903
32.864
32.825
32.787
32.748
32.71
32.674
32.639
32.607
32.575
32.543
32.511
32.477
32.444
32.41
32.377
32.344
32.311
32.277
32.241
32.204
32.167
32.128
32.088
32.048
32.009
31.97
31.933
31.897
31.863
31.831
31.8
31.771
31.742
31.715
31.69
31.668
31.649
31.635
31.628
31.628
31.639
31.664
31.705
31.767
31.85
31.958
32.092
32.255
32.448
32.674
32.932
33.221
33.539
33.885
34.254
34.642
35.044
35.455
35.871
36.288
36.7
37.101
37.487
37.858
38.214
38.553
38.87
39.163
39.428
39.663
39.866
40.036
40.173
40.278
40.351
40.396
40.415
40.411
40.39
40.354
40.308
40.253
40.192
40.126
40.057
39.986
39.914
39.843
39.774
39.709
39.648
39.59
39.535
39.481
39.426
39.369
39.309
39.247
39.182
39.114
39.042
38.965
38.882
38.794
38.701
38.604
38.505
38.404
38.302
38.198
38.094
37.988
37.883
37.779
37.678
37.581
37.489
37.405
37.328
37.259
37.197
37.141
37.091
37.045
37.005
36.97
36.939
36.911
36.886
36.862
36.838
36.815
36.791
36.765
36.738
36.709
36.677
36.641
36.602
36.559
36.512
36.461
36.407
36.351
36.293
36.232
36.169
36.102
36.032
35.959
35.885
35.809
35.732
35.654
35.573
35.491
35.405
35.318
35.23
35.143
35.055
34.969
34.882
34.795
34.707
34.618
34.529
34.44
34.352
34.266
34.181
34.097
34.016
33.938
33.862
33.788
33.715
33.643
33.572
33.502
33.434
33.368
33.304
33.243
33.185
33.129
33.075
33.023
32.972
32.924
32.878
32.833
32.789
32.745
32.702
32.662
32.624
32.589
32.555
32.523
32.492
32.462
32.431
32.4
32.369
32.336
32.301
32.265
32.228
32.192
32.155
32.119
32.083
32.047
32.011
31.976
31.943
31.911
31.882
31.853
31.825
31.796
31.768
31.739
31.71
31.68
31.649
31.615
31.581
31.545
31.508
31.471
31.434
31.397
31.36
31.324
31.289
31.255
31.222
31.191
31.16
31.13
31.099
31.069
31.04
31.013
30.989
30.968
30.952
30.944
30.947
30.963
30.996
31.05
31.125
31.227
31.358
31.52
31.717
31.948
32.216
32.52
32.859
33.229
33.627
34.047
34.484
34.934
35.39
35.849
36.303
36.747
37.176
37.585
37.971
38.331
38.663
38.966
39.237
39.476
39.683
39.858
40.002
40.116
40.202
40.263
40.301
40.32
40.323
40.313
40.292
40.26
40.219
40.172
40.12
40.064
40.005
39.943
39.879
39.814
39.746
39.677
39.606
39.535
39.463
39.391
39.318
39.245
39.172
39.097
39.022
38.943
38.862
38.779
38.692
38.604
38.515
38.423
38.33
38.236
38.14
38.043
37.947
37.853
37.763
37.678
37.598
37.522
37.453
37.389
37.332
37.281
37.236
37.197
37.164
37.137
37.114
37.093
37.074
37.055
37.035
37.014
36.99
36.965
36.936
36.905
36.871
36.834
36.794
36.752
36.708
36.661
36.613
36.563
36.51
36.456
36.4
36.342
36.283
36.22
36.153
36.082
36.007
35.927
35.844
35.758
35.671
35.583
35.495
35.407
35.318
35.23
35.141
35.055
34.97
34.887
34.806
34.727
34.65
34.576
34.504
34.435
34.369
34.307
34.247
34.189
34.131
34.073
34.014
33.954
33.894
33.835
33.777
33.719
33.661
33.602
33.544
33.487
33.432
33.379
33.328
33.279
33.233
33.19
33.151
33.115
33.082
33.051
33.021
32.991
32.96
32.927
32.892
32.856
32.819
32.782
32.743
32.703
32.662
32.62
32.579
32.537
32.496
32.455
32.414
32.374
32.335
32.298
32.263
32.229
32.196
32.163
32.129
32.096
32.064
32.032
32.002
31.973
31.944
31.916
31.889
31.862
31.836
31.808
31.779
31.749
31.717
31.685
31.655
31.627
31.605
31.592
31.589
31.599
31.627
31.675
31.748
31.849
31.979
32.14
32.334
32.56
32.819
33.109
33.43
33.777
34.148
34.537
34.94
35.353
35.769
36.185
36.597
36.999
37.388
37.759
38.108
38.431
38.725
38.989
39.222
39.424
39.596
39.739
39.855
39.947
40.014
40.058
40.08
40.084
40.071
40.046
40.01
39.966
39.917
39.864
39.806
39.746
39.683
39.619
39.554
39.489
39.425
39.362
39.301
39.24
39.178
39.115
39.05
38.983
38.913
38.84
38.763
38.683
38.597
38.507
38.411
38.309
38.204
38.096
37.987
37.877
37.767
37.659
37.554
37.454
37.36
37.272
37.192
37.119
37.053
36.992
36.936
36.886
36.841
36.802
36.768
36.738
36.711
36.684
36.657
36.629
36.6
36.57
36.539
36.51
36.481
36.453
36.424
36.394
36.361
36.325
36.287
36.246
36.202
36.154
36.103
36.049
35.994
35.937
35.88
35.822
35.763
35.702
35.638
35.571
35.5
35.427
35.352
35.275
35.199
35.122
35.043
34.964
34.883
34.801
34.719
34.636
34.552
34.467
34.382
34.298
34.217
34.138
34.062
33.989
33.919
33.851
33.783
33.716
33.651
33.588
33.527
33.468
33.41
33.353
33.296
33.24
33.185
33.13
33.075
33.019
32.962
32.906
32.851
32.798
32.748
32.7
32.654
32.61
32.569
32.531
32.497
32.465
32.436
32.408
32.38
32.353
32.325
32.298
32.27
32.242
32.214
32.186
32.159
32.133
32.108
32.086
32.064
32.043
32.023
32.002
31.982
31.96
31.935
31.908
31.878
31.846
31.813
31.78
31.746
31.711
31.677
31.642
31.607
31.571
31.535
31.497
31.457
31.416
31.374
31.333
31.294
31.257
31.223
31.195
31.175
31.165
31.169
31.191
31.232
31.295
31.384
31.5
31.646
31.823
32.032
32.275
32.55
32.858
33.194
33.558
33.944
34.347
34.764
35.188
35.614
36.038
36.454
36.859
37.247
37.616
37.963
38.284
38.577
38.842
39.077
39.282
39.458
39.607
39.73
39.829
39.907
39.966
40.007
40.032
40.041
40.035
40.016
39.985
39.943
39.892
39.835
39.772
39.707
39.639
39.571
39.502
39.433
39.366
39.3
39.235
39.172
39.11
39.048
38.984
38.918
38.849
38.776
38.701
38.622
38.54
38.453
38.362
38.268
38.169
38.068
37.964
37.861
37.758
37.659
37.564
37.472
37.384
37.299
37.217
37.139
37.064
36.995
36.931
36.873
36.822
36.776
36.735
36.699
36.666
36.636
36.608
36.579
36.549
36.518
36.486
36.452
36.417
36.379
36.339
36.296
36.251
36.203
36.151
36.095
36.035
35.973
35.908
35.843
35.776
35.708
35.64
35.571
35.502
35.431
35.36
35.287
35.213
35.137
35.059
34.981
34.901
34.82
34.739
34.659
34.578
34.498
34.417
34.335
34.255
34.175
34.098
34.02
33.944
33.871
33.806
33.75
33.706
33.672
33.646
33.624
33.602
33.572
33.528
33.465
33.385
33.292
33.192
33.09
32.99
32.894
32.81
32.742
32.694
32.669
32.665
32.676
32.696
32.722
32.746
32.766
32.778
32.778
32.765
32.739
32.701
32.653
32.595
32.53
32.461
32.39
32.319
32.252
32.189
32.131
32.08
32.035
31.997
31.963
31.934
31.907
31.882
31.857
31.831
31.805
31.776
31.747
31.719
31.692
31.667
31.644
31.622
31.599
31.574
31.548
31.521
31.492
31.461
31.428
31.393
31.358
31.323
31.289
31.257
31.228
31.201
31.177
31.156
31.137
31.121
31.106
31.092
31.079
31.066
31.055
31.049
31.051
31.062
31.087
31.127
31.188
31.272
31.382
31.52
31.689
31.89
32.123
32.391
32.692
33.024
33.386
33.775
34.185
34.613
35.05
35.491
35.929
36.359
36.777
37.18
37.562
37.923
38.258
38.565
38.842
39.087
39.301
39.484
39.639
39.767
39.872
39.955
40.018
40.062
40.089
40.099
40.095
40.078
40.049
40.012
39.968
39.921
39.871
39.818
39.764
39.709
39.653
39.596
39.54
39.484
39.429
39.375
39.321
39.267
39.21
39.15
39.087
39.021
38.951
38.879
38.804
38.727
38.646
38.561
38.471
38.378
38.283
38.184
38.085
37.986
37.888
37.792
37.7
37.611
37.527
37.449
37.377
37.312
37.252
37.199
37.151
37.11
37.073
37.041
37.013
36.988
36.964
36.939
36.912
36.881
36.849
36.814
36.779
36.743
36.707
36.669
36.631
36.591
36.548
36.502
36.454
36.404
36.353
36.301
36.248
36.194
36.139
36.081
36.021
35.958
35.892
35.822
35.748
35.671
35.592
35.511
35.43
35.35
35.272
35.194
35.117
35.039
34.961
34.882
34.802
34.722
34.643
34.564
34.485
34.408
34.332
34.257
34.183
34.11
34.038
33.968
33.898
33.83
33.765
33.703
33.645
33.591
33.542
33.497
33.456
33.417
33.38
33.343
33.305
33.265
33.223
33.178
33.132
33.087
33.043
33.001
32.963
32.927
32.893
32.861
32.83
32.8
32.771
32.742
32.714
32.685
32.657
32.629
32.602
32.576
32.552
32.53
32.51
32.491
32.472
32.453
32.434
32.413
32.39
32.365
32.338
32.309
32.278
32.248
32.218
32.189
32.161
32.136
32.111
32.087
32.063
32.037
32.009
31.979
31.946
31.909
31.87
31.831
31.792
31.754
31.719
31.685
31.653
31.624
31.597
31.572
31.55
31.53
31.513
31.502
31.499
31.509
31.535
31.581
31.652
31.751
31.88
32.041
32.238
32.469
32.735
33.033
33.36
33.714
34.092
34.489
34.902
35.327
35.758
36.19
36.617
37.033
37.433
37.812
38.167
38.496
38.798
39.072
39.319
39.537
39.727
39.889
40.021
40.126
40.206
40.264
40.302
40.322
40.329
40.321
40.302
40.271
40.231
40.182
40.128
40.07
40.008
39.945
39.88
39.813
39.743
39.671
39.599
39.527
39.457
39.388
39.32
39.253
39.186
39.117
39.047
38.972
38.895
38.814
38.73
38.643
38.553
38.462
38.369
38.275
38.178
38.08
37.981
37.883
37.788
37.697
37.61
37.53
37.456
37.389
37.328
37.273
37.225
37.182
37.146
37.115
37.088
37.065
37.042
37.021
36.999
36.976
36.951
36.923
36.892
36.858
36.822
36.783
36.742
36.697
36.649
36.597
36.541
36.48
36.415
36.346
36.275
36.202
36.127
36.052
35.976
35.9
35.823
35.745
35.668
35.59
35.512
35.434
35.355
35.277
35.199
35.123
35.048
34.976
34.907
34.84
34.774
34.708
34.642
34.575
34.509
34.443
34.379
34.315
34.252
34.191
34.132
34.075
34.018
33.963
33.908
33.852
33.795
33.737
33.679
33.622
33.565
33.509
33.456
33.406
33.357
33.31
33.264
33.22
33.176
33.133
33.09
33.046
33.003
32.96
32.918
32.877
32.837
32.799
32.761
32.725
32.691
32.661
32.632
32.606
32.579
32.551
32.522
32.491
32.46
32.43
32.401
32.373
32.347
32.322
32.3
32.279
32.259
32.237
32.214
32.188
32.159
32.129
32.097
32.064
32.031
31.998
31.967
31.938
31.91
31.883
31.858
31.833
31.808
31.783
31.756
31.729
31.701
31.673
31.645
31.618
31.591
31.565
31.539
31.513
31.487
31.463
31.442
31.424
31.41
31.402
31.402
31.411
31.434
31.472
31.529
31.607
31.71
31.843
32.008
32.207
32.441
32.71
33.011
33.344
33.706
34.092
34.5
34.924
35.359
35.801
36.242
36.679
37.105
37.516
37.908
38.277
38.622
38.941
39.232
39.495
39.728
39.931
40.105
40.249
40.367
40.459
40.529
40.578
40.608
40.621
40.618
40.602
40.574
40.536
40.492
40.443
40.39
40.335
40.281
40.226
40.173
40.12
40.068
40.016
39.963
39.912
39.861
39.81
39.758
39.703
39.644
39.58
39.51
39.433
39.351
39.264
39.172
39.076
38.976
38.873
38.765
38.653
38.54
38.427
38.317
38.21
38.109
38.013
37.921
37.833
37.748
37.667
37.59
37.52
37.457
37.4
37.351
37.31
37.275
37.247
37.226
37.209
37.196
37.185
37.174
37.162
37.146
37.125
37.1
37.071
37.036
36.997
36.956
36.912
36.863
36.81
36.754
36.694
36.63
36.562
36.491
36.417
36.34
36.259
36.176
36.091
36.004
35.917
35.829
35.743
35.657
35.572
35.488
35.404
35.318
35.23
35.142
35.054
34.967
34.881
34.799
34.719
34.644
34.571
34.502
34.435
34.37
34.307
34.246
34.187
34.129
34.073
34.016
33.96
33.903
33.846
33.791
33.738
33.686
33.637
33.59
33.545
33.503
33.462
33.422
33.382
33.342
33.301
33.259
33.218
33.178
33.138
33.1
33.063
33.026
32.99
32.955
32.919
32.884
32.849
32.815
32.782
32.751
32.721
32.693
32.666
32.641
32.616
32.591
32.565
32.538
32.511
32.483
32.454
32.426
32.397
32.367
32.337
32.307
32.277
32.247
32.217
32.185
32.154
32.122
32.09
32.058
32.026
31.993
31.96
31.925
31.888
31.851
31.812
31.772
31.73
31.688
31.645
31.601
31.557
31.514
31.472
31.431
31.391
31.355
31.324
31.3
31.286
31.283
31.294
31.322
31.369
31.44
31.537
31.663
31.819
32.007
32.228
32.482
32.77
33.091
33.443
33.821
34.223
34.642
35.074
35.514
35.957
36.398
36.834
37.26
37.672
38.065
38.435
38.778
39.091
39.374
39.626
39.848
40.038
40.199
40.33
40.432
40.507
40.558
40.586
40.595
40.588
40.566
40.532
40.488
40.436
40.377
40.312
40.241
40.166
40.089
40.01
39.932
39.856
39.781
39.709
39.638
39.568
39.5
39.433
39.367
39.302
39.236
39.17
39.1
39.028
38.952
38.871
38.786
38.697
38.604
38.509
38.413
38.315
38.216
38.118
38.019
37.922
37.828
37.738
37.653
37.575
37.503
37.437
37.376
37.32
37.27
37.225
37.185
37.149
37.116
37.086
37.058
37.03
37.002
36.973
36.943
36.912
36.88
36.847
36.81
36.769
36.724
36.675
36.623
36.568
36.51
36.449
36.385
36.318
36.25
36.18
36.11
36.04
35.971
35.903
35.834
35.765
35.695
35.624
35.551
35.477
35.402
35.326
35.25
35.173
35.096
35.019
34.942
34.866
34.789
34.714
34.639
34.565
34.492
34.42
34.349
34.279
34.211
34.143
34.075
34.007
33.939
33.871
33.804
33.737
33.671
33.606
33.543
33.484
33.427
33.373
33.323
33.275
33.23
33.185
33.142
33.1
33.058
33.016
32.974
32.93
32.885
32.839
32.794
32.75
32.708
32.667
32.627
32.586
32.544
32.503
32.464
32.426
32.39
32.357
32.325
32.294
32.264
32.236
32.209
32.183
32.159
32.135
32.112
32.091
32.072
32.054
32.039
32.024
32.008
31.993
31.975
31.957
31.936
31.913
31.887
31.858
31.826
31.793
31.759
31.724
31.689
31.654
31.62
31.585
31.552
31.519
31.488
31.459
31.432
31.407
31.383
31.361
31.339
31.319
31.302
31.288
31.282
31.284
31.299
31.33
31.381
31.455
31.555
31.683
31.843
32.036
32.265
32.528
32.826
33.157
33.518
33.906
34.316
34.743
35.184
35.635
36.089
36.542
36.987
37.42
37.834
38.228
38.597
38.939
39.252
39.535
39.787
40.009
40.201
40.363
40.496
