Trial 3:3back
30.269
30.459
30.68
30.93
31.21
31.515
31.843
32.19
32.553
32.927
33.308
33.692
34.072
34.446
34.807
35.154
35.481
35.787
36.069
36.327
36.559
36.766
36.947
37.103
37.235
37.344
37.433
37.504
37.557
37.594
37.618
37.63
37.631
37.623
37.608
37.586
37.56
37.529
37.494
37.456
37.415
37.373
37.331
37.287
37.244
37.2
37.155
37.108
37.057
37.002
36.941
36.874
36.802
36.725
36.642
36.553
36.459
36.361
36.26
36.157
36.053
35.947
35.842
35.738
35.635
35.536
35.44
35.35
35.265
35.186
35.112
35.043
34.979
34.919
34.865
34.815
34.771
34.731
34.697
34.666
34.64
34.617
34.598
34.581
34.565
34.549
34.531
34.512
34.49
34.467
34.442
34.416
34.387
34.355
34.319
34.281
34.239
34.195
34.147
34.097
34.044
33.989
33.931
33.872
33.812
33.752
33.691
33.632
33.573
33.514
33.457
33.4
33.344
33.287
33.229
33.171
33.112
33.051
32.991
32.93
32.871
32.814
32.758
32.703
32.649
32.597
32.546
32.494
32.441
32.387
32.331
32.275
32.219
32.164
32.109
32.054
31.999
31.944
31.89
31.837
31.785
31.733
31.68
31.628
31.578
31.529
31.483
31.439
31.398
31.358
31.319
31.283
31.248
31.215
31.182
31.149
31.115
31.081
31.046
31.01
30.973
30.934
30.893
30.851
30.808
30.765
30.722
30.681
30.642
30.606
30.574
30.546
30.522
30.502
30.485
30.47
30.459
30.453
30.454
30.464
30.488
30.528
30.589
30.672
30.783
30.923
31.093
31.293
31.521
31.778
32.06
32.366
32.692
33.034
33.389
33.751
34.117
34.484
34.847
35.203
35.547
35.877
36.19
36.481
36.75
36.993
37.21
37.403
37.572
37.718
37.842
37.944
38.026
38.088
38.133
38.161
38.175
38.177
38.169
38.154
38.133
38.105
38.072
38.033
37.99
37.943
37.893
37.841
37.788
37.736
37.685
37.634
37.582
37.531
37.479
37.427
37.373
37.316
37.255
37.19
37.121
37.049
36.973
36.893
36.809
36.722
36.633
36.541
36.448
36.354
36.26
36.169
36.082
35.999
35.921
35.849
35.784
35.726
35.675
35.631
35.592
35.556
35.524
35.493
35.465
35.438
35.414
35.391
35.368
35.347
35.325
35.303
35.279
35.254
35.227
35.198
35.168
35.135
35.101
35.064
35.026
34.986
34.944
34.9
34.852
34.801
34.746
34.688
34.627
34.564
34.5
34.436
34.372
34.311
34.252
34.196
34.141
34.087
34.032
33.976
33.918
33.858
33.795
33.73
33.663
33.595
33.527
33.459
33.392
33.327
33.266
33.208
33.153
33.099
33.047
32.995
32.942
32.89
32.838
32.787
32.736
32.687
32.638
32.591
32.546
32.504
32.463
32.425
32.389
32.352
32.316
32.281
32.247
32.212
32.177
32.14
32.101
32.062
32.022
31.982
31.944
31.906
31.868
31.83
31.793
31.756
31.718
31.679
31.637
31.592
31.545
31.496
31.445
31.393
31.339
31.286
31.233
31.181
31.133
31.091
31.058
31.038
31.029
31.024
31.019
31.021
31.032
31.055
31.09
31.14
31.204
31.285
31.382
31.497
31.63
31.78
31.949
32.138
32.347
32.576
32.825
33.093
33.379
33.68
33.995
34.32
34.653
34.989
35.325
35.655
35.976
36.284
36.575
36.847
37.098
37.327
37.532
37.713
37.87
38.004
38.114
38.202
38.269
38.316
38.347
38.364
38.367
38.36
38.342
38.317
38.285
38.247
38.205
38.159
38.11
38.06
38.008
37.954
37.9
37.846
37.794
37.741
37.689
37.636
37.582
37.525
37.465
37.401
37.334
37.263
37.189
37.111
37.03
36.946
36.858
36.769
36.68
36.592
36.506
36.422
36.342
36.266
36.195
36.129
36.069
36.013
35.962
35.917
35.876
35.84
35.808
35.781
35.758
35.739
35.725
35.714
35.703
35.692
35.68
35.665
35.65
35.633
35.615
35.595
35.573
35.55
35.525
35.498
35.468
35.437
35.403
35.366
35.327
35.284
35.24
35.193
35.145
35.095
35.043
34.989
34.932
34.872
34.81
34.746
34.68
34.612
34.543
34.472
34.4
34.33
34.261
34.195
34.131
34.068
34.005
33.941
33.877
33.812
33.746
33.681
33.617
33.555
33.495
33.439
33.386
33.336
33.29
33.246
33.204
33.163
33.122
33.08
33.037
32.994
32.95
32.905
32.858
32.811
32.764
32.718
32.673
32.631
32.59
32.549
32.509
32.47
32.432
32.394
32.357
32.319
32.28
32.241
32.204
32.167
32.132
32.097
32.063
32.029
31.995
31.962
31.927
31.89
31.85
31.809
31.767
31.727
31.692
31.664
31.644
31.637
31.646
31.673
31.722
31.793
31.888
32.007
32.151
32.32
32.513
32.731
32.971
33.232
33.512
33.807
34.113
34.428
34.745
35.062
35.373
35.676
35.967
36.243
36.503
36.746
36.971
37.178
37.366
37.533
37.679
37.804
37.908
37.991
38.057
38.105
38.139
38.161
38.172
38.173
38.166
38.152
38.131
38.104
38.073
38.038
38.0
37.959
37.917
37.874
37.829
37.784
37.737
37.69
37.64
37.587
37.53
37.471
37.407
37.341
37.271
37.197
37.118
37.034
36.945
36.852
36.756
36.658
36.558
36.46
36.363
36.27
36.18
36.094
36.013
35.936
35.864
35.796
35.733
35.675
35.622
35.575
35.534
35.5
35.47
35.446
35.425
35.407
35.393
35.381
35.37
35.361
35.351
35.34
35.328
35.316
35.302
35.288
35.272
35.254
35.234
35.211
35.185
35.155
35.121
35.084
35.046
35.005
34.963
34.92
34.876
34.832
34.786
34.737
34.686
34.631
34.572
34.51
34.447
34.383
34.319
34.255
34.192
34.129
34.069
34.011
33.953
33.896
33.838
33.779
33.719
33.659
33.598
33.537
33.477
33.418
33.361
33.305
33.251
33.2
33.15
33.101
33.052
33.002
32.95
32.897
32.844
32.793
32.743
32.697
32.653
32.613
32.577
32.544
32.515
32.488
32.462
32.435
32.408
32.379
32.349
32.318
32.287
32.254
32.222
32.19
32.16
32.131
32.105
32.082
32.06
32.04
32.018
31.995
31.969
31.939
31.907
31.873
31.837
31.8
31.763
31.728
31.695
31.666
31.641
31.622
31.609
31.604
31.609
31.626
31.657
31.705
31.772
31.861
31.973
32.111
32.276
32.468
32.686
32.93
33.197
33.486
33.791
34.109
34.435
34.764
35.093
35.418
35.738
36.049
36.348
36.633
36.902
37.153
37.385
37.596
37.786
37.958
38.112
38.25
38.37
38.475
38.564
38.637
38.695
38.739
38.77
38.791
38.802
38.804
38.798
38.785
38.766
38.741
38.714
38.684
38.653
38.619
38.585
38.55
38.515
38.478
38.44
38.4
38.358
38.312
38.262
38.209
38.15
38.088
38.023
37.955
37.884
37.81
37.734
37.654
37.572
37.488
37.403
37.319
37.237
37.16
37.086
37.017
36.951
36.888
36.828
36.771
36.718
36.669
36.623
36.582
36.544
36.511
36.481
36.454
36.43
36.408
36.388
36.368
36.347
36.325
36.301
36.277
36.251
36.224
36.197
36.169
36.14
36.11
36.079
36.045
36.009
35.971
35.929
35.885
35.839
35.79
35.739
35.686
35.631
35.574
35.515
35.452
35.385
35.315
35.241
35.166
35.09
35.015
34.94
34.865
34.792
34.721
34.65
34.58
34.509
34.438
34.366
34.294
34.224
34.156
34.09
34.026
33.965
33.906
33.848
33.792
33.737
33.681
33.626
33.571
33.515
33.458
33.402
33.346
33.292
33.24
33.19
33.142
33.095
33.05
33.006
32.964
32.924
32.884
32.845
32.806
32.766
32.727
32.688
32.649
32.611
32.573
32.537
32.504
32.472
32.443
32.416
32.39
32.364
32.338
32.311
32.283
32.253
32.221
32.186
32.148
32.108
32.067
32.025
31.982
31.939
31.896
31.853
31.812
31.771
31.732
31.694
31.658
31.625
31.598
31.577
31.566
31.565
31.579
31.608
31.657
31.727
31.821
31.941
32.087
32.259
32.456
32.677
32.922
33.188
33.474
33.778
34.094
34.421
34.754
35.09
35.424
35.752
36.069
36.371
36.654
36.916
37.157
37.376
37.574
37.751
37.909
38.048
38.169
38.275
38.365
38.441
38.504
38.555
38.597
38.628
38.649
38.66
38.663
38.658
38.643
38.621
38.592
38.56
38.524
38.483
38.432
38.371
38.303
38.23
38.151
38.066
37.977
37.886
37.795
37.709
37.628
37.554
37.486
37.426
37.372
37.324
37.278
37.235
37.191
37.149
37.107
37.065
37.024
36.981
36.937
36.89
36.841
36.79
36.739
36.688
36.64
36.595
36.554
36.517
36.484
36.456
36.432
36.412
36.397
36.385
36.375
36.366
36.358
36.349
36.34
36.329
36.316
36.301
36.283
36.262
36.238
36.21
36.178
36.143
36.106
36.066
36.022
35.977
35.929
35.88
35.831
35.781
35.729
35.675
35.619
35.56
35.498
35.435
35.37
35.303
35.235
35.166
35.096
35.026
34.954
34.883
34.812
34.742
34.674
34.606
34.54
34.474
34.41
34.347
34.284
34.223
34.163
34.103
34.044
33.986
33.93
33.876
33.822
33.769
33.718
33.668
33.619
33.572
33.527
33.483
33.44
33.399
33.359
33.321
33.285
33.251
33.218
33.185
33.153
33.122
33.091
33.061
33.032
33.001
32.969
32.936
32.902
32.867
32.831
32.794
32.757
32.719
32.682
32.644
32.608
32.571
32.535
32.499
32.464
32.429
32.395
32.363
32.33
32.298
32.265
32.232
32.2
32.168
32.137
32.109
32.083
32.062
32.046
32.039
32.042
32.059
32.092
32.145
32.219
32.316
32.439
32.587
32.762
32.963
33.188
33.436
33.704
33.99
34.291
34.604
34.926
35.253
35.58
35.904
36.221
36.528
36.822
37.101
37.364
37.611
37.838
38.047
38.234
38.399
38.543
38.666
38.768
38.852
38.919
38.97
39.008
39.033
39.045
39.045
39.034
39.015
38.987
38.954
38.916
38.874
38.828
38.779
38.726
38.669
38.61
38.55
38.488
38.426
38.363
38.298
38.231
38.161
38.088
38.01
37.929
37.844
37.757
37.666
37.573
37.478
37.381
37.285
37.19
37.099
37.013
36.932
36.855
36.784
36.718
36.658
36.605
36.56
36.521
36.489
36.463
36.44
36.422
36.406
36.393
36.383
36.374
36.367
36.361
36.355
36.349
36.342
36.334
36.325
36.315
36.303
36.289
36.27
36.248
36.221
36.192
36.16
36.125
36.087
36.045
36.001
35.953
35.903
35.852
35.8
35.746
35.691
35.633
35.572
35.511
35.447
35.384
35.319
35.254
35.188
35.119
35.049
34.976
34.901
34.825
34.748
34.672
34.597
34.525
34.455
34.39
34.329
34.271
34.217
34.164
34.113
34.063
34.014
33.966
33.918
33.872
33.826
33.78
33.735
33.69
33.646
33.603
33.56
33.517
33.474
33.43
33.386
33.341
33.297
33.255
33.213
33.174
33.136
33.1
33.067
33.036
33.008
32.981
32.956
32.93
32.901
32.871
32.838
32.804
32.77
32.734
32.698
32.662
32.627
32.592
32.557
32.523
32.49
32.456
32.424
32.393
32.364
32.337
32.31
32.283
32.258
32.235
32.214
32.198
32.19
32.19
32.203
32.23
32.275
32.341
32.431
32.547
32.689
32.858
33.055
33.28
33.532
33.809
34.108
34.425
34.756
35.098
35.448
35.8
36.151
36.499
36.838
37.167
37.48
37.774
38.049
38.301
38.529
38.734
38.916
39.075
39.214
39.332
39.432
39.514
39.579
39.63
39.668
39.694
39.709
39.713
39.708
39.695
39.674
39.644
39.607
39.563
39.513
39.458
39.399
39.336
39.27
39.201
39.13
39.055
38.979
38.901
38.823
38.743
38.661
38.577
38.488
38.398
38.305
38.211
38.116
38.021
37.928
37.837
37.749
37.667
37.59
37.518
37.453
37.394
37.34
37.291
37.245
37.202
37.162
37.124
37.088
37.055
37.024
36.996
36.969
36.945
36.924
36.905
36.888
36.874
36.86
36.845
36.828
36.808
36.785
36.758
36.729
36.696
36.66
36.622
36.582
36.54
36.496
36.45
36.402
36.353
36.302
36.25
36.196
36.139
36.08
36.019
35.958
35.895
35.831
35.765
35.697
35.627
35.557
35.485
35.412
35.34
35.266
35.192
35.117
35.042
34.967
34.892
34.821
34.752
34.685
34.621
34.558
34.498
34.441
34.386
34.332
34.279
34.227
34.174
34.12
34.067
34.013
33.96
33.907
33.854
33.802
33.751
33.701
33.653
33.607
33.563
33.521
33.482
33.443
33.405
33.368
33.329
33.29
33.249
33.206
33.161
33.115
33.069
33.023
32.977
32.932
32.887
32.844
32.803
32.763
32.725
32.688
32.653
32.62
32.589
32.558
32.527
32.497
32.467
32.436
32.402
32.366
32.327
32.285
32.243
32.2
32.158
32.118
32.085
32.059
32.043
32.041
32.054
32.085
32.137
32.213
32.315
32.447
32.61
32.802
33.024
33.274
33.551
33.852
34.173
34.51
34.861
35.227
35.607
35.996
36.388
36.777
37.157
37.524
37.874
38.203
38.507
38.784
39.033
39.253
39.445
39.609
39.746
39.859
39.949
40.018
40.066
40.095
40.106
40.102
40.086
40.059
40.024
39.982
39.935
39.883
39.827
39.765
39.699
39.631
39.56
39.487
39.413
39.338
39.262
39.184
39.106
39.026
38.946
38.864
38.78
38.695
38.609
38.521
38.433
38.346
38.26
38.174
38.089
38.005
37.923
37.843
37.765
37.689
37.617
37.55
37.489
37.434
37.384
37.34
37.302
37.268
37.24
37.216
37.196
37.18
37.166
37.154
37.143
37.132
37.121
37.109
37.095
37.08
37.062
37.041
37.018
36.992
36.964
36.935
36.904
36.87
36.833
36.792
36.748
36.7
36.65
36.598
36.545
36.49
36.434
36.377
36.319
36.259
36.2
36.139
36.078
36.015
35.952
35.887
35.821
35.755
35.69
35.627
35.565
35.504
35.444
35.383
35.322
35.261
35.199
35.137
35.073
35.009
34.946
34.884
34.824
34.766
34.711
34.659
34.608
34.558
34.508
34.459
34.409
34.36
34.311
34.261
34.211
34.161
34.111
34.061
34.012
33.964
33.917
33.871
33.826
33.783
33.744
33.708
33.674
33.642
33.611
33.581
33.55
33.52
33.489
33.458
33.425
33.391
33.357
33.322
33.287
33.253
33.218
33.183
33.147
33.112
33.077
33.043
33.009
32.975
32.941
32.906
32.872
32.839
32.809
32.783
32.76
32.744
32.736
32.74
32.759
32.796
32.853
32.931
33.033
33.16
33.314
33.494
33.702
33.937
34.199
34.487
34.798
35.129
35.476
35.837
36.206
36.58
36.952
37.319
37.674
38.016
38.339
38.642
38.923
39.18
39.411
39.617
39.795
39.947
40.072
40.174
40.252
40.31
40.347
40.366
40.369
40.356
40.33
40.293
40.246
40.192
40.134
40.072
40.008
39.941
39.872
39.8
39.725
39.648
39.567
39.486
39.403
39.319
39.232
39.144
39.053
38.959
38.864
38.766
38.668
38.569
38.471
38.375
38.28
38.188
38.098
38.012
37.931
37.853
37.78
37.71
37.645
37.585
37.529
37.478
37.432
37.391
37.354
37.321
37.291
37.264
37.238
37.213
37.19
37.167
37.143
37.119
37.094
37.069
37.043
37.017
36.991
36.964
36.938
36.912
36.886
36.861
36.835
36.807
36.778
36.745
36.707
36.665
36.618
36.566
36.511
36.454
36.396
36.335
36.273
36.209
36.144
36.077
36.01
35.942
35.875
35.809
35.743
35.677
35.613
35.55
35.487
35.426
35.364
35.304
35.243
35.181
35.119
35.057
34.994
34.932
34.87
34.807
34.745
34.684
34.623
34.565
34.508
34.451
34.395
34.339
34.283
34.229
34.176
34.125
34.076
34.028
33.983
33.94
33.899
33.861
33.823
33.785
33.746
33.704
33.661
33.617
33.572
33.526
33.482
33.439
33.399
33.362
33.33
33.301
33.274
33.248
33.22
33.191
33.161
33.13
33.098
33.065
33.032
32.999
32.965
32.932
32.9
32.869
32.841
32.816
32.794
32.776
32.761
32.75
32.747
32.751
32.767
32.795
32.84
32.905
32.993
33.109
33.254
33.43
33.637
33.876
34.145
34.442
34.764
35.109
35.472
35.85
36.238
36.633
37.031
37.427
37.817
38.195
38.559
38.904
39.228
39.528
39.802
40.049
40.269
40.461
40.625
40.761
40.871
40.956
41.017
41.056
41.077
41.081
41.071
41.049
41.016
40.974
40.924
40.869
40.809
40.745
40.679
40.612
40.546
40.48
40.415
40.352
40.289
40.225
40.158
40.087
40.012
39.933
39.848
39.756
39.66
39.558
39.451
39.339
39.224
39.107
38.99
38.874
38.761
38.656
38.56
38.475
38.402
38.334
38.266
38.199
38.132
38.066
38.002
37.942
37.885
37.834
37.788
37.749
37.717
37.692
37.673
37.66
37.65
37.643
37.635
37.627
37.615
37.599
37.577
37.549
37.514
37.474
37.43
37.382
37.332
37.281
37.228
37.174
37.118
37.059
36.997
36.933
36.867
36.8
36.732
36.664
36.596
36.528
36.459
36.389
36.318
36.246
36.171
36.095
36.017
35.937
35.856
35.776
35.697
35.618
35.541
35.465
35.389
35.312
35.236
35.159
35.083
35.008
34.934
34.86
34.789
34.72
34.656
34.595
34.536
34.478
34.421
34.364
34.305
34.246
34.186
34.128
34.071
34.018
33.967
33.921
33.879
33.841
33.805
33.769
33.734
33.697
33.658
33.617
33.575
33.533
33.491
33.45
33.411
33.375
33.342
33.312
33.286
33.262
33.24
33.22
33.199
33.178
33.155
33.131
33.104
33.075
33.043
33.01
32.977
32.944
32.914
32.884
32.857
32.83
32.803
32.777
32.749
32.721
32.694
32.667
32.644
32.628
32.62
32.624
32.644
32.683
32.744
32.831
32.945
33.088
33.261
33.465
33.7
33.966
34.262
34.585
34.934
35.306
35.695
36.097
36.507
36.919
37.33
37.734
38.129
38.51
38.876
39.224
39.55
39.852
40.125
40.37
40.584
40.769
40.925
41.054
41.158
41.237
41.294
41.33
41.346
41.344
41.327
41.295
41.251
41.198
41.138
41.073
41.002
40.928
40.849
40.768
40.684
40.599
40.515
40.431
40.349
40.266
40.181
40.094
40.003
39.91
39.815
39.717
39.616
39.512
39.406
39.297
39.184
39.069
38.951
38.834
38.717
38.604
38.495
38.392
38.295
38.207
38.126
38.053
37.989
37.933
37.884
37.843
37.807
37.777
37.752
37.731
37.714
37.701
37.689
37.677
37.666
37.653
37.639
37.623
37.605
37.584
37.562
37.539
37.513
37.485
37.452
37.415
37.373
37.328
37.278
37.223
37.165
37.104
37.041
36.976
36.909
36.841
36.77
36.697
36.62
36.541
36.46
36.379
36.296
36.212
36.128
36.043
35.958
35.874
35.789
35.705
35.621
35.538
35.457
35.376
35.299
35.225
35.155
35.091
35.03
34.972
34.916
34.859
34.803
34.745
34.688
34.632
34.577
34.523
34.47
34.418
34.369
34.322
34.278
34.235
34.194
34.153
34.114
34.074
34.033
33.993
33.953
33.914
33.878
33.843
33.811
33.782
33.756
33.732
33.71
33.686
33.661
33.634
33.605
33.574
33.541
33.507
33.472
33.437
33.402
33.37
33.339
33.308
33.278
33.246
33.213
33.179
33.143
33.106
33.069
33.03
32.991
32.95
32.911
32.872
32.836
32.802
32.77
32.74
32.714
32.693
32.677
32.667
32.665
32.674
32.696
32.735
32.797
32.884
33.0
33.149
33.331
33.548
33.801
34.087
34.404
34.75
35.119
35.509
35.916
36.335
36.761
37.19
37.618
38.038
38.445
38.832
39.196
39.533
39.841
40.118
40.365
40.581
40.766
40.919
41.042
41.134
41.198
41.237
41.253
41.25
41.229
41.193
41.144
41.084
41.014
40.936
40.853
40.765
40.674
40.583
40.49
40.397
40.303
40.207
40.108
40.006
39.902
39.796
39.687
39.576
39.464
39.349
39.233
39.115
38.996
38.877
38.757
38.639
38.521
38.406
38.295
38.188
38.087
37.992
37.903
37.82
37.742
37.67
37.602
37.538
37.481
37.429
37.384
37.345
37.314
37.287
37.267
37.251
37.239
37.229
37.221
37.214
37.207
37.198
37.187
37.173
37.154
37.132
37.105
37.072
37.035
36.991
36.941
36.887
36.828
36.764
36.697
36.626
36.552
36.476
36.398
36.319
36.238
36.156
36.073
35.988
35.901
35.813
35.725
35.637
35.55
35.464
35.38
35.297
35.216
35.137
35.06
34.987
34.916
34.847
34.781
34.716
34.655
34.595
34.537
34.48
34.424
34.369
34.313
34.258
34.202
34.146
34.09
34.033
33.977
33.923
33.871
33.821
33.775
33.733
33.696
33.663
33.635
33.609
33.585
33.56
33.535
33.51
33.485
33.459
33.433
33.407
33.381
33.355
33.328
33.3
33.272
33.242
33.213
33.183
33.153
33.122
33.09
33.056
33.022
32.987
32.953
32.919
32.885
32.85
32.812
32.772
32.731
32.687
32.642
32.594
32.544
32.494
32.445
32.399
32.357
32.318
32.284
32.255
32.23
32.208
32.191
32.178
32.172
32.175
32.189
32.216
32.259
32.321
32.408
32.523
32.67
32.85
33.065
33.32
33.615
33.95
34.322
34.726
35.154
35.602
36.063
36.529
36.994
37.454
37.9
38.33
38.736
39.115
39.463
39.779
40.063
40.314
40.534
40.721
40.877
41.002
41.098
41.167
41.211
41.233
41.235
41.22
41.191
41.148
41.095
41.031
40.96
40.882
40.801
40.718
40.635
40.552
40.468
40.386
40.302
40.219
40.137
40.054
39.973
39.892
39.81
39.727
39.641
39.552
39.461
39.366
39.268
39.167
39.064
38.958
38.849
38.738
38.626
38.513
38.401
38.292
38.185
38.081
37.981
37.886
37.798
37.715
37.639
37.57
37.507
37.451
37.399
