Trial 3:3back
37.24
37.23
37.221
37.213
37.207
37.202
37.201
37.203
37.208
37.218
37.232
37.252
37.276
37.303
37.334
37.365
37.397
37.426
37.452
37.473
37.488
37.495
37.495
37.487
37.471
37.446
37.413
37.372
37.324
37.269
37.209
37.143
37.075
37.005
36.933
36.862
36.792
36.723
36.658
36.597
36.542
36.494
36.453
36.42
36.395
36.376
36.364
36.358
36.357
36.359
36.364
36.37
36.377
36.382
36.383
36.381
36.374
36.36
36.34
36.314
36.282
36.245
36.204
36.162
36.119
36.077
36.036
35.998
35.963
35.93
35.9
35.87
35.841
35.812
35.781
35.746
35.706
35.662
35.613
35.561
35.507
35.451
35.394
35.337
35.281
35.226
35.173
35.123
35.076
35.032
34.992
34.956
34.925
34.896
34.871
34.848
34.826
34.805
34.784
34.762
34.738
34.713
34.686
34.658
34.629
34.6
34.571
34.543
34.516
34.49
34.464
34.438
34.41
34.382
34.353
34.323
34.293
34.263
34.234
34.207
34.181
34.158
34.138
34.12
34.104
34.091
34.079
34.068
34.056
34.044
34.032
34.018
34.003
33.987
33.969
33.95
33.929
33.907
33.886
33.865
33.843
33.821
33.797
33.773
33.747
33.72
33.693
33.666
33.639
33.612
33.586
33.561
33.537
33.514
33.491
33.467
33.444
33.425
33.412
33.405
33.402
33.399
33.395
33.389
33.38
33.367
33.349
33.327
33.301
33.271
33.238
33.202
33.164
33.125
33.085
33.045
33.005
32.965
32.927
32.89
32.855
32.823
32.794
32.766
32.741
32.718
32.696
32.676
32.656
32.637
32.62
32.603
32.587
32.572
32.557
32.542
32.528
32.513
32.498
32.482
32.464
32.445
32.426
32.408
32.39
32.374
32.363
32.358
32.36
32.373
32.398
32.439
32.498
32.578
32.683
32.812
32.968
33.151
33.358
33.587
33.836
34.102
34.379
34.663
34.95
35.235
35.515
35.782
36.034
36.267
36.479
36.668
36.833
36.972
37.087
37.178
37.246
37.293
37.322
37.337
37.341
37.336
37.325
37.311
37.295
37.279
37.263
37.249
37.236
37.225
37.216
37.208
37.202
37.199
37.197
37.197
37.198
37.201
37.205
37.211
37.219
37.229
37.239
37.249
37.259
37.266
37.271
37.272
37.268
37.258
37.242
37.22
37.191
37.154
37.11
37.059
37.002
36.941
36.878
36.812
36.746
36.68
36.615
36.552
36.492
36.434
36.379
36.327
36.277
36.23
36.187
36.147
36.113
36.083
36.058
36.037
36.021
36.007
35.995
35.985
35.975
35.966
35.956
35.945
35.932
35.916
35.896
35.873
35.845
35.814
35.78
35.746
35.711
35.677
35.645
35.614
35.585
35.556
35.527
35.499
35.471
35.445
35.419
35.394
35.371
35.349
35.33
35.312
35.297
35.281
35.265
35.247
35.227
35.204
35.179
35.152
35.122
35.091
35.06
35.028
34.997
34.966
34.935
34.904
34.874
34.843
34.812
34.78
34.747
34.714
34.68
34.645
34.609
34.572
34.536
34.5
34.466
34.433
34.402
34.372
34.345
34.32
34.296
34.274
34.253
34.232
34.212
34.193
34.173
34.153
34.133
34.111
34.087
34.061
34.033
34.003
33.97
33.937
33.903
33.868
33.833
33.798
33.765
33.733
33.703
33.674
33.648
33.624
33.602
33.582
33.563
33.545
33.527
33.509
33.491
33.471
33.449
33.424
33.398
33.37
33.34
33.31
33.277
33.244
33.209
33.174
33.139
33.103
33.066
33.03
32.995
32.961
32.929
32.898
32.87
32.845
32.822
32.802
32.785
32.771
32.76
32.751
32.744
32.738
32.731
32.722
32.711
32.697
32.681
32.662
32.641
32.618
32.593
32.568
32.544
32.519
32.495
32.472
32.45
32.431
32.412
32.395
32.379
32.364
32.351
32.341
32.333
32.327
32.323
32.321
32.32
32.32
32.318
32.316
32.312
32.306
32.3
32.292
32.285
32.279
32.276
32.275
32.276
32.281
32.289
32.301
32.32
32.347
32.386
32.439
32.508
32.597
32.707
32.84
32.997
33.177
33.38
33.602
33.841
34.092
34.351
34.614
34.876
35.135
35.386
35.626
35.852
36.061
36.251
36.421
36.57
36.698
36.804
36.889
36.953
36.999
37.027
37.039
37.038
37.026
37.006
36.982
36.955
36.927
36.9
36.874
36.852
36.831
36.813
36.797
36.783
36.771
36.76
36.75
36.742
36.734
36.726
36.72
36.715
36.71
36.707
36.704
36.701
36.699
36.695
36.689
36.68
36.667
36.65
36.627
36.599
36.566
36.527
36.485
36.441
36.394
36.347
36.3
36.254
36.21
36.169
36.132
36.097
36.065
36.035
36.007
35.981
35.956
35.932
35.91
35.892
35.876
35.864
35.855
35.849
35.846
35.847
35.85
35.855
35.862
35.87
35.877
35.883
35.888
35.891
35.891
35.888
35.882
35.872
35.858
35.839
35.816
35.789
35.758
35.726
35.692
35.657
35.621
35.585
35.55
35.514
35.48
35.445
35.41
35.374
35.338
35.301
35.262
35.223
35.181
35.139
35.095
35.051
35.007
34.965
34.926
34.891
34.858
34.829
34.802
34.777
34.752
34.729
34.706
34.682
34.657
34.631
34.603
34.573
34.54
34.506
34.468
34.429
34.39
34.35
34.31
34.271
34.234
34.198
34.164
34.133
34.104
34.078
34.055
34.033
34.013
33.993
33.973
33.953
33.934
33.915
33.897
33.879
33.863
33.848
33.834
33.821
33.808
33.795
33.78
33.765
33.748
33.73
33.71
33.687
33.662
33.635
33.607
33.579
33.551
33.523
33.497
33.472
33.448
33.426
33.404
33.384
33.364
33.347
33.331
33.319
33.309
33.301
33.296
33.293
33.289
33.285
33.279
33.272
33.264
33.254
33.244
33.234
33.224
33.214
33.204
33.194
33.186
33.179
33.173
33.168
33.163
33.156
33.148
33.137
33.124
33.108
33.091
33.073
33.053
33.032
33.011
32.991
32.971
32.953
32.936
32.922
32.911
32.901
32.895
32.891
32.891
32.896
32.908
32.927
32.958
33.001
33.058
33.133
33.224
33.334
33.461
33.607
33.771
33.951
34.146
34.354
34.571
34.794
35.022
35.25
35.476
35.697
35.91
36.113
36.304
36.48
36.64
36.784
36.91
37.017
37.105
37.168
37.205
37.219
37.213
37.192
37.162
37.125
37.085
37.046
37.01
36.979
36.954
36.937
36.925
36.92
36.921
36.925
36.932
36.939
36.943
36.946
36.946
36.942
36.935
36.924
36.91
36.892
36.873
36.851
36.829
36.805
36.781
36.757
36.731
36.705
36.676
36.645
36.611
36.572
36.53
36.484
36.434
36.381
36.326
36.271
36.217
36.166
36.119
36.077
36.04
36.009
35.984
35.965
35.951
35.941
35.935
35.933
35.932
35.933
35.935
35.938
35.943
35.948
35.953
35.959
35.964
35.968
35.971
35.971
35.968
35.96
35.946
35.929
35.907
35.881
35.851
35.819
35.785
35.749
35.713
35.678
35.643
35.61
35.578
35.547
35.517
35.487
35.457
35.425
35.393
35.36
35.327
35.292
35.255
35.218
35.18
35.142
35.103
35.064
35.026
34.988
34.95
34.912
34.874
34.836
34.798
34.761
34.726
34.692
34.659
34.628
34.598
34.569
34.54
34.51
34.481
34.452
34.423
34.396
34.371
34.347
34.325
34.305
34.286
34.269
34.253
34.237
34.221
34.205
34.188
34.171
34.153
34.133
34.113
34.092
34.072
34.051
34.03
34.01
33.991
33.972
33.955
33.938
33.922
33.907
33.893
33.879
33.865
33.85
33.834
33.817
33.8
33.782
33.764
33.746
33.728
33.709
33.691
33.674
33.655
33.637
33.618
33.599
33.581
33.564
33.546
33.529
33.511
33.493
33.475
33.455
33.435
33.415
33.397
33.382
33.369
33.358
33.348
33.337
33.327
33.314
33.3
33.284
33.265
33.245
33.224
33.203
33.181
33.159
33.137
33.118
33.101
33.087
33.077
33.069
33.062
33.055
33.047
33.037
33.024
33.008
32.989
32.968
32.945
32.92
32.897
32.877
32.862
32.856
32.86
32.879
32.916
32.972
33.05
33.153
33.281
33.435
33.615
33.819
34.046
34.293
34.554
34.826
35.103
35.382
35.656
35.923
36.179
36.42
36.646
36.853
37.041
37.208
37.353
37.476
37.577
37.657
37.716
37.758
37.783
37.793
37.793
37.783
37.766
37.744
37.719
37.694
37.668
37.645
37.623
37.604
37.588
37.576
37.568
37.563
37.561
37.561
37.564
37.568
37.573
37.58
37.587
37.594
37.601
37.608
37.615
37.622
37.629
37.635
37.641
37.644
37.644
37.639
37.628
37.609
37.583
37.549
37.507
37.459
37.406
37.348
37.289
37.229
37.169
37.111
37.055
37.002
36.954
36.912
36.874
36.841
36.811
36.786
36.763
36.743
36.725
36.708
36.693
36.678
36.665
36.654
36.642
36.631
36.621
36.611
36.601
36.59
36.579
36.566
36.552
36.536
36.517
36.496
36.472
36.445
36.416
36.385
36.352
36.318
36.282
36.247
36.211
36.175
36.14
36.104
36.067
36.029
35.99
35.949
35.906
35.861
35.813
35.764
35.714
35.663
35.612
35.561
35.512
35.463
35.417
35.372
35.33
35.289
35.25
35.212
35.176
35.14
35.107
35.078
35.052
35.028
35.004
34.978
34.949
34.917
34.883
34.846
34.806
34.766
34.726
34.688
34.651
34.618
34.588
34.562
34.537
34.514
34.493
34.472
34.45
34.428
34.404
34.379
34.353
34.325
34.297
34.268
34.239
34.211
34.184
34.16
34.137
34.116
34.099
34.084
34.071
34.06
34.05
34.04
34.031
34.021
34.01
33.997
33.981
33.962
33.939
33.913
33.885
33.854
33.821
33.789
33.756
33.724
33.693
33.666
33.643
33.624
33.608
33.594
33.58
33.566
33.551
33.535
33.518
33.499
33.479
33.458
33.436
33.414
33.39
33.364
33.338
33.312
33.286
33.262
33.239
33.217
33.198
33.18
33.165
33.151
33.139
33.127
33.115
33.103
33.09
33.076
33.061
33.045
33.029
33.013
32.998
32.986
32.977
32.972
32.969
32.967
32.965
32.962
32.956
32.947
32.935
32.919
32.899
32.875
32.85
32.824
32.798
32.772
32.748
32.727
32.71
32.7
32.699
32.708
32.732
32.773
32.834
32.918
33.027
33.161
33.322
33.509
33.721
33.956
34.21
34.48
34.761
35.05
35.341
35.629
35.909
36.178
36.433
36.67
36.889
37.086
37.262
37.415
37.546
37.656
37.746
37.817
37.869
37.906
37.928
37.937
37.937
37.927
37.911
37.89
37.867
37.842
37.819
37.796
37.777
37.761
37.749
37.74
37.734
37.73
37.728
37.727
37.727
37.727
37.728
37.73
37.732
37.736
37.74
37.745
37.75
37.76
37.778
37.803
37.831
37.858
37.879
37.889
37.886
37.868
37.834
37.786
37.725
37.653
37.574
37.492
37.408
37.326
37.247
37.174
37.106
37.046
36.993
36.947
36.906
36.871
36.84
36.813
36.79
36.771
36.756
36.743
36.733
36.725
36.719
36.713
36.709
36.705
36.7
36.695
36.686
36.675
36.66
36.641
36.62
36.595
36.567
36.537
36.505
36.472
36.437
36.4
36.363
36.325
36.287
36.249
36.21
36.171
36.133
36.095
36.058
36.021
35.983
35.945
35.904
35.862
35.818
35.772
35.723
35.672
35.62
35.566
35.512
35.46
35.408
35.358
35.311
35.266
35.223
35.184
35.148
35.113
35.08
35.049
35.017
34.984
34.951
34.916
34.881
34.845
34.809
34.772
34.734
34.696
34.657
34.617
34.576
34.534
34.492
34.45
34.41
34.373
34.338
34.306
34.277
34.252
34.229
34.209
34.19
34.171
34.151
34.131
34.11
34.089
34.066
34.042
34.016
33.987
33.958
33.928
33.899
33.872
33.846
33.823
33.801
33.78
33.761
33.743
33.726
33.709
33.693
33.676
33.659
33.642
33.623
33.604
33.583
33.561
33.538
33.515
33.492
33.47
33.448
33.428
33.41
33.394
33.381
33.369
33.358
33.348
33.339
33.329
33.318
33.305
33.289
33.271
33.25
33.226
33.201
33.173
33.145
33.117
33.09
33.065
33.041
33.02
33.001
32.987
32.975
32.967
32.962
32.959
32.959
32.96
32.961
32.963
32.964
32.963
32.961
32.955
32.947
32.935
32.919
32.901
32.878
32.853
32.824
32.792
32.76
32.727
32.695
32.665
32.638
32.615
32.596
32.582
32.574
32.572
32.578
32.593
32.617
32.654
32.704
32.77
32.852
32.954
33.077
33.221
33.387
33.575
33.785
34.015
34.264
34.53
34.808
35.094
35.384
35.674
35.96
36.238
36.503
36.753
36.984
37.194
37.382
37.546
37.686
37.802
37.895
37.967
38.019
38.054
38.075
38.083
38.082
38.072
38.057
38.037
38.013
37.986
37.959
37.932
37.907
37.884
37.864
37.849
37.838
37.832
37.83
37.83
37.832
37.834
37.835
37.835
37.833
37.827
37.819
37.808
37.794
37.777
37.758
37.736
37.713
37.688
37.661
37.633
37.602
37.568
37.532
37.492
37.448
37.401
37.353
37.303
37.254
37.205
37.156
37.109
37.062
37.018
36.976
36.937
36.901
36.868
36.838
36.813
36.791
36.772
36.757
36.747
36.745
36.753
36.77
36.791
36.814
36.836
36.854
36.867
36.873
36.871
36.86
36.84
36.812
36.775
36.733
36.685
36.633
36.579
36.523
36.467
36.412
36.359
36.308
36.259
36.213
36.169
36.128
36.088
36.049
36.009
35.97
35.931
35.892
35.852
35.813
35.773
35.735
35.697
35.66
35.623
35.586
35.55
35.513
35.475
35.436
35.394
35.351
35.305
35.258
35.209
35.16
35.11
35.061
35.013
34.968
34.925
34.885
34.849
34.818
34.791
34.769
34.748
34.729
34.709
34.687
34.662
34.634
34.602
34.568
34.532
34.495
34.458
34.421
34.386
34.354
34.325
34.299
34.276
34.256
34.24
34.227
34.218
34.212
34.207
34.204
34.2
34.194
34.187
34.176
34.163
34.147
34.127
34.105
34.081
34.054
34.025
33.995
33.964
33.934
33.905
33.878
33.854
33.833
33.815
33.801
33.791
33.784
33.781
33.78
33.781
33.782
33.783
33.78
33.775
33.766
33.753
33.735
33.713
33.686
33.655
33.62
33.584
33.547
33.512
33.478
33.447
33.42
33.395
33.372
33.352
33.333
33.317
33.302
33.289
33.278
33.269
33.263
33.259
33.258
33.261
33.267
33.279
33.298
33.326
33.366
33.419
33.49
33.58
33.693
33.828
33.988
34.172
34.379
34.607
34.853
35.114
35.386
35.663
35.943
36.22
36.489
36.747
36.989
37.212
37.414
37.594
37.752
37.885
37.995
38.082
38.148
38.195
38.225
38.239
38.239
38.227
38.204
38.173
38.133
38.088
38.037
37.984
37.931
37.879
37.829
37.783
37.743
37.709
37.68
37.656
37.636
37.619
37.604
37.589
37.574
37.558
37.539
37.517
37.491
37.462
37.429
37.392
37.351
37.306
37.257
37.206
37.152
37.095
37.037
36.977
36.916
36.854
36.791
36.728
36.666
36.605
36.546
36.491
36.44
36.395
36.355
36.322
36.296
36.277
36.266
36.261
36.261
36.266
36.275
36.285
36.294
36.302
36.308
36.31
36.309
36.304
36.296
36.284
36.268
36.249
36.226
36.2
36.172
36.142
36.111
36.08
36.049
36.018
35.986
35.956
35.928
35.901
35.873
35.844
35.812
35.778
35.74
35.7
35.659
35.617
35.574
35.532
35.489
35.447
35.405
35.362
35.318
35.273
35.227
35.18
35.131
35.079
35.027
34.975
34.924
34.874
34.827
34.781
34.738
34.699
34.663
34.63
34.601
34.575
34.551
34.53
34.511
34.492
34.474
34.456
34.438
34.419
34.4
34.38
34.359
34.339
34.319
34.301
34.283
34.267
34.252
34.239
34.228
34.22
34.214
34.21
34.207
34.205
34.203
34.202
34.2
34.199
34.199
34.198
34.196
34.192
34.187
34.182
34.177
34.172
34.167
34.163
34.159
34.153
34.146
34.137
34.125
34.11
34.092
34.071
34.048
34.024
33.999
33.973
33.948
33.924
33.901
33.879
33.857
33.836
33.816
33.796
33.776
33.755
33.734
33.711
33.689
33.666
33.644
33.623
33.602
33.581
33.559
33.536
33.513
33.492
33.477
33.47
33.477
33.5
33.543
33.61
33.702
33.823
33.972
34.148
34.35
34.575
34.821
35.083
35.359
35.642
35.929
36.216
36.499
36.775
37.04
37.291
37.526
37.742
37.937
38.11
38.26
38.387
38.492
38.574
38.637
38.682
38.71
38.725
38.727
38.72
38.704
38.682
38.655
38.624
38.59
38.554
38.517
38.481
38.445
38.412
38.382
38.355
38.332
38.312
38.295
38.281
38.267
38.256
38.244
38.232
38.217
38.201
38.18
38.156
38.127
38.094
38.056
38.016
37.973
37.928
37.881
37.831
37.777
37.72
37.659
37.595
37.527
37.456
37.382
37.306
37.23
37.156
37.085
37.018
36.955
36.899
36.851
36.809
36.776
36.75
36.731
36.719
36.711
36.707
36.705
36.704
36.702
36.7
36.695
36.688
36.678
36.665
36.65
36.634
36.616
36.597
36.576
36.553
36.529
36.503
36.474
36.443
36.409
36.372
36.333
36.29
36.245
36.197
36.147
36.095
36.042
35.988
35.936
35.884
35.833
35.783
35.734
35.686
35.639
35.592
35.546
35.502
35.459
35.418
35.38
35.342
35.305
35.268
35.232
35.196
35.159
35.122
35.084
35.046
35.007
34.967
34.926
34.884
34.841
34.798
34.756
34.716
34.678
34.642
34.609
34.579
34.552
34.525
34.5
34.476
34.452
34.428
34.403
34.378
34.353
34.328
34.303
34.279
34.254
34.231
34.207
34.185
34.163
34.141
34.12
34.099
34.078
34.057
34.036
34.015
33.995
33.975
33.956
33.938
33.92
33.901
33.883
33.865
33.847
33.829
33.812
33.796
33.779
33.764
33.749
33.734
33.72
33.707
33.693
33.68
33.666
33.652
33.637
33.621
33.604
33.586
33.567
33.545
33.522
33.498
33.473
33.447
33.422
33.396
33.37
33.344
33.319
33.295
33.273
33.251
33.231
33.213
33.197
33.181
33.167
33.154
33.143
33.133
33.124
33.116
33.109
33.105
33.106
33.113
33.13
33.159
33.206
33.272
33.361
33.475
33.617
33.788
33.987
34.216
34.472
34.753
35.054
35.37
35.698
36.031
36.365
36.694
37.011
37.314
37.598
37.86
38.099
38.312
38.5
38.66
38.795
38.903
38.987
39.05
39.093
39.12
39.133
39.135
39.128
39.113
39.094
39.071
39.047
39.024
39.002
38.984
38.969
38.959
38.954
38.953
38.955
38.961
38.967
38.974
38.98
38.985
38.988
38.988
38.987
38.984
38.978
38.97
38.958
38.942
38.922
38.896
38.863
38.824
38.778
38.725
38.666
38.602
38.535
38.465
38.392
38.318
38.242
38.165
38.089
38.013
37.938
37.865
37.797
37.732
37.673
37.618
37.567
37.52
37.479
37.444
37.412
37.386
37.363
37.344
37.328
37.314
37.302
37.29
37.278
37.265
37.252
37.238
37.223
37.207
37.191
37.174
37.156
37.137
37.116
37.091
37.064
37.033
36.999
36.961
36.919
36.873
36.823
36.771
36.716
36.658
36.597
36.533
36.467
36.399
36.331
36.263
36.196
36.131
36.069
36.01
35.955
35.903
35.854
35.807
35.764
35.723
35.683
35.645
35.608
35.571
35.536
35.501
35.465
35.429
35.392
35.354
35.315
35.276
35.236
35.196
35.155
35.115
35.074
35.034
34.995
34.957
34.919
34.883
34.848
34.814
34.781
34.749
34.718
34.688
34.657
34.626
34.595
34.563
34.53
34.498
34.466
34.433
34.401
34.37
34.34
34.31
34.282
34.254
34.228
34.202
34.178
34.155
34.133
34.112
34.092
34.072
34.052
34.032
34.011
33.989
33.965
33.94
33.914
33.885
33.855
33.823
33.79
33.757
33.725
33.692
33.661
33.63
33.6
33.571
33.543
33.515
33.489
33.463
33.438
33.411
33.383
33.353
33.322
33.288
33.253
33.216
33.177
33.138
33.097
33.056
33.015
32.973
32.932
32.893
32.854
32.818
32.783
32.75
32.719
32.691
32.665
32.641
32.62
32.6
32.581
32.564
32.547
32.527
32.499
32.464
32.426
32.386
32.348
32.313
32.285
32.264
32.252
32.251
32.259
32.278
32.309
32.355
32.417
32.497
32.6
32.726
32.877
33.056
33.263
33.498
33.759
34.046
34.355
34.682
35.025
35.376
35.732
36.086
36.435
36.772
37.094
37.396
37.677
37.933
38.166
38.373
38.556
38.715
38.848
38.959
39.046
39.114
39.161
39.192
39.207
39.209
39.201
39.185
39.163
39.136
39.107
39.078
39.05
39.023
38.994
38.96
38.922
38.882
38.843
38.808
38.778
38.755
38.74
38.733
38.735
38.744
38.759
38.78
38.803
38.828
38.853
38.873
38.887
38.894
38.89
38.876
38.85
38.813
38.764
38.706
38.64
38.568
38.491
38.413
38.335
38.257
38.183
38.112
38.045
37.984
37.928
37.879
37.836
37.799
37.767
37.741
37.719
37.702
37.689
37.679
37.672
37.666
37.661
37.657
37.652
37.646
37.64
37.634
37.628
37.62
37.61
37.597
37.58
37.56
37.536
37.508
37.477
37.441
37.399
37.352
37.301
37.246
37.188
37.129
37.069
37.009
36.95
36.892
36.834
36.779
36.724
36.672
36.621
36.572
36.525
36.479
36.434
36.389
36.345
36.301
36.254
36.206
36.155
36.103
36.049
35.991
35.931
35.87
35.808
35.747
35.688
35.632
35.579
35.53
35.484
35.442
35.402
35.365
35.328
35.292
35.256
35.22
35.183
35.146
35.108
35.069
35.029
34.989
34.947
34.905
34.862
34.82
34.78
34.74
34.702
34.665
34.629
34.595
34.562
34.53
34.499
34.47
34.441
34.413
34.384
34.353
34.32
34.284
34.246
34.206
34.164
34.12
34.076
34.032
33.988
