Trial 3:3back
32.685
32.671
32.658
32.648
32.641
32.641
32.648
32.666
32.698
32.745
32.811
32.897
33.004
33.134
33.286
33.458
33.651
33.862
34.088
34.326
34.573
34.825
35.076
35.325
35.567
35.798
36.016
36.219
36.406
36.574
36.724
36.855
36.966
37.057
37.13
37.186
37.224
37.246
37.252
37.245
37.224
37.193
37.152
37.102
37.046
36.983
36.917
36.846
36.773
36.699
36.624
36.547
36.471
36.395
36.319
36.244
36.171
36.1
36.032
35.966
35.902
35.841
35.782
35.723
35.666
35.61
35.554
35.497
35.44
35.382
35.322
35.26
35.197
35.134
35.071
35.009
34.949
34.892
34.838
34.788
34.743
34.702
34.666
34.635
34.608
34.587
34.57
34.558
34.55
34.546
34.547
34.55
34.556
34.564
34.573
34.583
34.593
34.602
34.611
34.62
34.627
34.632
34.636
34.638
34.638
34.637
34.634
34.63
34.624
34.616
34.607
34.597
34.585
34.57
34.553
34.534
34.513
34.49
34.464
34.438
34.409
34.379
34.347
34.314
34.28
34.244
34.208
34.171
34.134
34.098
34.063
34.028
33.993
33.96
33.927
33.896
33.865
33.834
33.804
33.774
33.744
33.713
33.683
33.651
33.619
33.587
33.554
33.521
33.487
33.454
33.421
33.389
33.359
33.329
33.301
33.274
33.249
33.226
33.204
33.182
33.162
33.141
33.121
33.1
33.079
33.057
33.034
33.012
32.989
32.967
32.946
32.926
32.909
32.897
32.891
32.893
32.907
32.935
32.979
33.041
33.123
33.227
33.353
33.501
33.669
33.858
34.063
34.282
34.512
34.748
34.986
35.224
35.457
35.684
35.9
36.104
36.293
36.465
36.621
36.757
36.876
36.975
37.056
37.118
37.163
37.193
37.207
37.208
37.197
37.174
37.142
37.1
37.05
36.993
36.929
36.86
36.786
36.708
36.628
36.545
36.461
36.377
36.292
36.208
36.126
36.045
35.967
35.89
35.816
35.744
35.675
35.607
35.541
35.477
35.414
35.351
35.289
35.227
35.164
35.101
35.036
34.972
34.907
34.842
34.778
34.716
34.656
34.598
34.545
34.495
34.452
34.413
34.382
34.356
34.337
34.325
34.318
34.316
34.319
34.326
34.336
34.349
34.364
34.381
34.398
34.415
34.431
34.447
34.461
34.473
34.484
34.493
34.5
34.506
34.509
34.511
34.511
34.508
34.502
34.494
34.484
34.47
34.454
34.435
34.415
34.392
34.367
34.34
34.312
34.282
34.251
34.219
34.185
34.15
34.114
34.077
34.04
34.002
33.964
33.926
33.889
33.851
33.814
33.777
33.741
33.705
33.671
33.638
33.606
33.576
33.545
33.516
33.486
33.457
33.427
33.397
33.367
33.337
33.307
33.276
33.246
33.216
33.186
33.157
33.128
33.1
33.072
33.046
33.021
32.997
32.976
32.956
32.939
32.923
32.907
32.892
32.878
32.864
32.85
32.838
32.825
32.813
32.802
32.791
32.784
32.78
32.783
32.795
32.82
32.86
32.918
32.996
33.097
33.221
33.37
33.542
33.737
33.952
34.184
34.431
34.688
34.952
35.218
35.483
35.743
35.995
36.235
36.46
36.669
36.861
37.033
37.186
37.318
37.431
37.524
37.598
37.653
37.692
37.715
37.723
37.72
37.705
37.68
37.646
37.605
37.557
37.504
37.446
37.385
37.32
37.254
37.185
37.115
37.045
36.975
36.905
36.835
36.767
36.699
36.633
36.568
36.504
36.442
36.381
36.321
36.262
36.204
36.146
36.089
36.034
35.979
35.925
35.871
35.817
35.762
35.707
35.652
35.597
35.541
35.486
35.433
35.38
35.331
35.284
35.242
35.204
35.171
35.143
35.119
35.1
35.085
35.074
35.065
35.06
35.057
35.055
35.056
35.058
35.062
35.066
35.072
35.077
35.081
35.086
35.09
35.093
35.094
35.094
35.092
35.088
35.081
35.072
35.06
35.046
35.03
35.012
34.991
34.969
34.945
34.92
34.893
34.865
34.835
34.804
34.771
34.737
34.701
34.665
34.628
34.591
34.554
34.518
34.481
34.445
34.409
34.373
34.337
34.3
34.264
34.229
34.194
34.159
34.126
34.093
34.061
34.031
34.001
33.972
33.943
33.915
33.886
33.859
33.831
33.804
33.777
33.75
33.723
33.696
33.668
33.641
33.613
33.585
33.557
33.53
33.503
33.477
33.451
33.425
33.4
33.377
33.354
33.333
33.313
33.293
33.275
33.259
33.245
33.235
33.232
33.237
33.254
33.286
33.335
33.405
33.497
33.612
33.753
33.917
34.105
34.316
34.546
34.793
35.053
35.323
35.598
35.874
36.147
36.412
36.665
36.903
37.124
37.326
37.507
37.667
37.805
37.922
38.02
38.098
38.159
38.203
38.232
38.246
38.248
38.237
38.217
38.187
38.15
38.106
38.057
38.003
37.946
37.885
37.822
37.756
37.688
37.618
37.547
37.474
37.4
37.326
37.253
37.18
37.108
37.037
36.967
36.898
36.829
36.76
36.692
36.625
36.559
36.494
36.431
36.37
36.311
36.253
36.196
36.14
36.084
36.029
35.975
35.921
35.868
35.816
35.767
35.72
35.676
35.636
35.6
35.569
35.542
35.52
35.502
35.487
35.477
35.471
35.468
35.469
35.473
35.48
35.489
35.5
35.511
35.522
35.534
35.544
35.552
35.559
35.563
35.566
35.566
35.565
35.561
35.555
35.547
35.537
35.525
35.51
35.495
35.477
35.459
35.44
35.42
35.399
35.376
35.352
35.327
35.299
35.268
35.235
35.199
35.162
35.123
35.083
35.042
35.001
34.96
34.919
34.878
34.837
34.797
34.757
34.719
34.681
34.644
34.608
34.572
34.538
34.503
34.47
34.437
34.404
34.371
34.338
34.305
34.272
34.238
34.204
34.17
34.135
34.1
34.064
34.029
33.994
33.959
33.924
33.889
33.854
33.819
33.784
33.75
33.717
33.684
33.654
33.625
33.598
33.573
33.549
33.529
33.511
33.5
33.495
33.5
33.517
33.549
33.599
33.67
33.763
33.88
34.022
34.188
34.378
34.589
34.819
35.067
35.328
35.598
35.874
36.15
36.424
36.691
36.948
37.192
37.42
37.631
37.823
37.995
38.147
38.278
38.388
38.477
38.545
38.593
38.622
38.633
38.628
38.607
38.575
38.531
38.478
38.417
38.351
38.279
38.202
38.122
38.039
37.954
37.867
37.778
37.69
37.602
37.516
37.43
37.346
37.264
37.182
37.101
37.022
36.944
36.868
36.793
36.719
36.646
36.575
36.504
36.435
36.366
36.298
36.231
36.165
36.099
36.034
35.971
35.909
35.85
35.795
35.744
35.697
35.655
35.617
35.584
35.557
35.535
35.518
35.507
35.502
35.501
35.505
35.513
35.525
35.54
35.558
35.579
35.601
35.624
35.648
35.672
35.695
35.716
35.735
35.751
35.763
35.773
35.778
35.78
35.777
35.769
35.758
35.742
35.724
35.704
35.681
35.656
35.63
35.603
35.574
35.543
35.511
35.478
35.444
35.409
35.373
35.337
35.3
35.262
35.223
35.184
35.145
35.105
35.064
35.023
34.981
34.939
34.897
34.853
34.81
34.766
34.723
34.681
34.639
34.598
34.559
34.52
34.482
34.444
34.407
34.37
34.334
34.298
34.263
34.228
34.193
34.158
34.123
34.089
34.055
34.022
33.99
33.959
33.93
33.902
33.877
33.855
33.836
33.82
33.808
33.803
33.805
33.817
33.841
33.88
33.936
34.012
34.11
34.229
34.372
34.537
34.723
34.928
35.15
35.386
35.634
35.889
36.147
36.405
36.66
36.906
37.142
37.363
37.568
37.755
37.921
38.067
38.191
38.293
38.374
38.435
38.477
38.501
38.51
38.503
38.484
38.452
38.408
38.354
38.291
38.22
38.142
38.057
37.968
37.875
37.78
37.682
37.583
37.484
37.384
37.285
37.185
37.086
36.989
36.892
36.797
36.704
36.613
36.523
36.437
36.352
36.27
36.19
36.112
36.035
35.959
35.884
35.81
35.737
35.665
35.596
35.529
35.466
35.407
35.353
35.304
35.261
35.226
35.196
35.174
35.157
35.146
35.141
35.141
35.145
35.153
35.164
35.178
35.195
35.214
35.233
35.253
35.273
35.292
35.31
35.327
35.342
35.355
35.366
35.375
35.38
35.382
35.382
35.378
35.371
35.362
35.35
35.335
35.317
35.297
35.275
35.251
35.226
35.199
35.171
35.141
35.11
35.076
35.041
35.003
34.965
34.925
34.885
34.844
34.805
34.765
34.726
34.688
34.651
34.615
34.58
34.546
34.512
34.478
34.445
34.411
34.377
34.343
34.308
34.272
34.237
34.201
34.166
34.131
34.097
34.063
34.03
33.997
33.965
33.934
33.903
33.873
33.845
33.817
33.789
33.763
33.737
33.712
33.688
33.667
33.65
33.639
33.636
33.646
33.67
33.713
33.777
33.864
33.977
34.116
34.281
34.472
34.688
34.926
35.184
35.457
35.741
36.034
36.33
36.626
36.918
37.202
37.473
37.73
37.968
38.187
38.384
38.559
38.711
38.841
38.947
39.031
39.094
39.137
39.163
39.172
39.165
39.146
39.114
39.071
39.019
38.959
38.893
38.822
38.747
38.668
38.587
38.505
38.421
38.336
38.25
38.165
38.081
37.997
37.913
37.831
37.75
37.669
37.59
37.511
37.432
37.354
37.275
37.196
37.117
37.038
36.959
36.881
36.803
36.726
36.648
36.572
36.496
36.421
36.349
36.28
36.214
36.154
36.098
36.048
36.003
35.964
35.93
35.901
35.878
35.859
35.844
35.834
35.826
35.822
35.82
35.821
35.824
35.828
35.833
35.838
35.843
35.847
35.852
35.856
35.858
35.86
35.86
35.857
35.853
35.845
35.835
35.822
35.805
35.786
35.763
35.738
35.709
35.678
35.645
35.609
35.571
35.531
35.49
35.447
35.403
35.358
35.314
35.269
35.225
35.181
35.136
35.091
35.044
34.997
34.949
34.901
34.852
34.804
34.757
34.71
34.664
34.619
34.576
34.534
34.493
34.453
34.413
34.373
34.334
34.294
34.255
34.215
34.177
34.138
34.1
34.063
34.025
33.987
33.948
33.91
33.874
33.838
33.806
33.779
33.758
33.746
33.746
33.762
33.796
33.851
33.93
34.034
34.166
34.326
34.514
34.728
34.967
35.228
35.507
35.799
36.101
36.408
36.715
37.017
37.311
37.593
37.86
38.108
38.337
38.543
38.727
38.888
39.025
39.14
39.231
39.302
39.352
39.384
39.397
39.395
39.377
39.345
39.302
39.249
39.187
39.119
39.046
38.968
38.888
38.806
38.723
38.639
38.556
38.473
38.391
38.309
38.227
38.146
38.066
37.986
37.907
37.828
37.75
37.673
37.595
37.518
37.44
37.362
37.284
37.205
37.125
37.045
36.964
36.883
36.803
36.722
36.642
36.564
36.487
36.413
36.343
36.276
36.213
36.155
36.101
36.052
36.008
35.97
35.935
35.906
35.881
35.86
35.843
35.829
35.818
35.809
35.801
35.796
35.793
35.791
35.79
35.789
35.788
35.787
35.784
35.778
35.77
35.758
35.743
35.724
35.702
35.676
35.647
35.615
35.58
35.541
35.5
35.457
35.413
35.368
35.323
35.278
35.232
35.187
35.141
35.096
35.051
35.005
34.959
34.914
34.87
34.825
34.781
34.737
34.693
34.649
34.603
34.557
34.51
34.463
34.416
34.369
34.323
34.276
34.23
34.183
34.137
34.091
34.045
34.0
33.955
33.909
33.864
33.819
33.774
33.73
33.687
33.646
33.608
33.576
33.551
33.535
33.532
33.544
33.574
33.625
33.699
33.798
33.923
34.075
34.252
34.454
34.679
34.924
35.187
35.464
35.75
36.042
36.336
36.627
36.912
37.188
37.452
37.702
37.935
38.149
38.342
38.513
38.661
38.786
38.888
38.967
39.024
39.06
39.077
39.076
39.058
39.026
38.98
38.923
38.856
38.781
38.699
38.612
38.52
38.426
38.33
38.233
38.136
38.039
37.943
37.849
37.756
37.665
37.575
37.488
37.402
37.317
37.234
37.151
37.069
36.987
36.905
36.823
36.74
36.657
36.573
36.489
36.404
36.319
36.235
36.152
36.071
35.993
35.92
35.853
35.79
35.734
35.683
35.638
35.598
35.563
35.533
35.507
35.486
35.467
35.451
35.438
35.426
35.416
35.407
35.399
35.392
35.386
35.381
35.376
35.372
35.368
35.364
35.359
35.352
35.343
35.331
35.316
35.297
35.276
35.251
35.224
35.194
35.162
35.129
35.094
35.058
35.022
34.985
34.947
34.909
34.87
34.83
34.789
34.747
34.704
34.659
34.613
34.566
34.517
34.466
34.414
34.362
34.309
34.257
34.205
34.154
34.104
34.055
34.007
33.959
33.914
33.869
33.826
33.784
33.743
33.702
33.663
33.623
33.583
33.543
33.502
33.461
33.42
33.379
33.337
33.297
33.257
33.217
33.18
33.144
33.112
33.085
33.064
33.054
33.056
33.073
33.11
33.167
33.248
33.355
33.487
33.646
33.832
34.041
34.273
34.524
34.789
35.065
35.346
35.629
35.909
36.182
36.445
36.695
36.93
37.147
37.345
37.522
37.677
37.808
37.916
38.001
38.063
38.103
38.124
38.126
38.111
38.081
38.038
37.983
37.918
37.844
37.764
37.678
37.589
37.498
37.406
37.313
37.222
37.131
37.042
36.955
36.869
36.786
36.704
36.624
36.545
36.465
36.386
36.305
36.223
36.139
36.053
35.966
35.878
35.79
35.702
35.614
35.529
35.446
35.367
35.292
35.221
35.154
35.091
35.032
34.977
34.926
34.879
34.835
34.795
34.759
34.728
34.702
34.681
34.666
34.655
34.649
34.647
34.647
34.65
34.655
34.66
34.666
34.671
34.675
34.677
34.677
34.676
34.672
34.666
34.658
34.648
34.635
34.619
34.601
34.58
34.558
34.534
34.509
34.484
34.458
34.432
34.406
34.38
34.352
34.323
34.293
34.262
34.228
34.193
34.156
34.118
34.078
34.036
33.993
33.95
33.905
33.861
33.817
33.774
33.732
33.692
33.654
33.618
33.583
33.549
33.516
33.483
33.45
33.415
33.379
33.343
33.305
33.267
33.228
33.188
33.147
33.106
33.065
33.024
32.983
32.944
32.907
32.872
32.838
32.807
32.777
32.75
32.723
32.698
32.673
32.649
32.626
32.605
32.587
32.574
32.569
32.574
32.591
32.625
32.678
32.753
32.852
32.975
33.124
33.298
33.495
33.714
33.951
34.202
34.463
34.729
34.995
35.257
35.511
35.753
35.98
36.19
36.38
36.549
36.696
36.821
36.923
37.003
37.063
37.102
37.123
37.127
37.116
37.092
37.055
37.007
36.95
36.885
36.812
36.734
36.652
36.566
36.479
36.39
36.299
36.208
36.117
36.026
35.936
35.847
35.761
35.677
35.596
35.518
35.443
35.37
35.299
35.229
35.16
35.092
35.024
34.956
34.888
34.821
34.754
34.688
34.623
34.56
34.499
34.441
34.386
34.336
34.29
34.249
34.212
34.18
34.152
34.128
34.109
34.095
34.086
34.083
34.084
34.09
34.1
34.112
34.127
34.142
34.158
34.174
34.189
34.203
34.215
34.226
34.235
34.242
34.247
34.25
34.25
34.246
34.238
34.226
34.21
34.19
34.167
34.141
34.113
34.084
34.053
34.021
33.989
33.956
33.922
33.888
33.853
33.817
33.781
33.745
33.708
33.671
33.634
33.597
33.561
33.524
33.487
33.451
33.414
33.378
33.342
33.307
33.272
33.238
33.206
33.175
33.145
33.116
33.089
33.061
33.035
33.01
32.985
32.961
32.938
32.915
32.891
32.868
32.845
32.821
32.797
32.773
32.75
32.726
32.702
32.679
32.656
32.634
32.614
32.597
32.585
32.581
32.587
32.605
32.637
32.686
32.754
32.843
32.953
33.086
33.241
33.416
33.609
33.818
34.04
34.271
34.508
34.747
34.983
35.215
35.437
35.648
35.843
36.021
36.18
36.319
36.437
36.534
36.611
36.668
36.706
36.726
36.73
36.718
36.693
36.657
36.609
36.552
36.486
36.413
36.334
36.25
36.163
36.074
35.984
35.892
35.8
35.708
35.615
35.523
35.431
35.34
35.252
35.166
35.083
35.004
34.928
34.855
34.785
34.718
34.654
34.591
34.53
34.47
34.411
34.353
34.295
34.239
34.185
34.133
34.083
34.037
33.993
33.954
33.918
33.886
33.857
33.832
33.811
33.794
33.782
33.773
33.77
33.77
33.773
33.78
33.79
33.802
33.817
33.832
33.848
33.863
33.878
33.892
33.906
33.92
33.932
33.944
33.955
33.965
33.974
33.981
33.984
33.984
33.98
33.972
33.959
33.942
33.922
33.9
33.875
33.849
33.821
33.793
33.764
33.734
33.704
33.673
33.642
33.612
33.581
33.551
33.522
33.493
33.464
33.436
33.409
33.382
33.356
33.329
33.303
33.276
33.249
33.222
33.193
33.163
33.133
33.102
33.07
33.039
33.007
32.977
32.948
32.919
32.893
32.868
32.846
32.825
32.806
32.789
32.772
32.755
32.739
32.722
32.704
32.684
32.664
32.643
32.622
32.601
32.581
32.562
32.544
32.53
32.52
32.518
32.526
32.546
32.582
32.637
32.712
32.811
32.933
33.079
33.247
33.436
33.643
33.866
34.1
34.342
34.588
34.833
35.074
35.308
35.533
35.746
35.945
36.127
36.292
36.437
36.562
36.666
36.751
36.815
36.862
36.891
36.903
36.901
36.885
36.856
36.815
36.764
36.705
36.638
36.565
36.489
36.41
36.331
36.251
36.171
36.093
36.015
35.94
35.868
35.798
35.732
35.669
35.61
35.554
35.503
35.455
35.41
35.369
35.329
35.291
35.254
35.215
35.176
35.134
35.091
35.045
34.997
34.947
34.897
34.847
34.798
34.75
34.705
34.662
34.622
34.585
34.551
34.522
34.497
34.477
34.461
34.448
34.44
34.435
34.433
34.435
34.438
34.444
34.452
34.46
34.47
34.479
34.488
34.496
34.503
34.508
34.512
34.514
34.514
34.513
34.509
34.503
34.494
34.482
34.468
34.451
34.432
34.411
34.388
34.364
34.339
34.313
34.286
34.26
34.234
34.207
34.18
34.152
34.123
34.092
34.061
34.028
33.994
33.959
33.924
33.888
33.854
33.82
33.787
33.755
33.723
33.693
33.663
33.634
33.605
33.577
33.549
33.522
33.496
33.471
33.448
33.425
33.403
33.383
33.362
33.341
33.32
33.298
33.276
33.254
33.233
33.211
33.19
33.169
33.15
33.13
33.112
33.094
33.077
33.06
33.043
33.026
33.01
32.995
32.98
32.967
32.956
32.948
32.945
32.95
32.963
32.989
33.03
33.087
33.164
33.261
33.38
33.52
33.682
33.864
34.063
34.276
34.5
34.732
34.968
35.203
35.434
35.657
35.869
36.068
36.249
36.413
36.557
36.682
36.786
36.87
36.934
36.979
37.007
37.018
37.014
36.996
36.967
36.927
36.879
36.823
36.761
36.694
36.623
36.55
36.475
36.401
36.326
36.253
36.183
36.114
36.049
35.988
35.929
35.874
35.822
35.773
35.727
35.682
35.64
35.599
35.56
35.521
35.481
35.44
35.398
35.354
35.308
35.261
35.214
35.167
35.12
35.073
35.028
34.983
34.941
34.9
34.862
34.826
34.794
34.765
34.74
34.718
34.7
34.686
34.674
34.666
34.661
34.659
34.658
34.66
34.663
34.668
34.673
34.679
34.685
34.69
34.695
34.698
34.7
34.701
34.701
34.7
34.697
34.692
34.686
34.677
34.666
34.654
34.64
34.625
34.608
34.589
34.569
34.547
34.523
34.497
34.47
34.442
34.412
34.382
34.351
34.32
34.29
34.26
34.229
34.198
34.167
34.136
34.104
34.073
34.042
34.01
33.979
33.948
33.917
33.887
33.857
33.828
33.799
33.771
33.744
33.718
33.692
33.669
33.646
33.625
33.605
33.586
33.567
33.55
33.533
33.516
33.499
33.481
33.463
33.445
33.426
33.407
33.388
33.37
33.352
33.335
33.318
33.303
33.287
33.272
33.255
33.239
33.222
33.207
33.193
33.18
33.171
33.166
33.166
33.174
33.192
33.221
33.265
33.324
33.401
33.498
33.615
33.753
33.911
34.088
34.281
34.488
34.705
34.928
35.155
35.382
35.604
35.82
36.025
36.216
36.393
36.552
36.692
36.814
36.915
36.997
37.059
37.103
37.129
37.138
37.133
37.113
37.081
37.037
36.984
36.922
36.854
36.781
36.704
36.624
36.543
36.461
36.381
36.303
36.227
36.154
36.085
36.019
35.956
35.896
35.839
35.784
35.731
35.68
35.632
35.585
35.54
35.498
35.457
35.417
35.377
35.338
35.298
35.257
35.216
35.174
35.131
35.088
35.045
35.003
34.962
34.923
34.887
34.853
34.823
34.797
34.774
34.756
34.743
34.734
34.73
34.73
34.734
34.741
34.751
34.763
34.777
34.793
34.81
34.827
34.845
34.862
34.879
34.895
34.91
34.922
34.933
34.941
34.946
34.947
34.944
34.937
34.926
34.911
34.893
34.872
34.849
34.825
34.799
34.773
34.747
34.72
34.693
34.666
34.638
34.61
34.58
34.55
34.519
34.487
34.454
34.42
34.386
34.352
34.318
34.285
34.253
34.221
34.191
34.161
34.133
34.105
34.078
34.052
34.027
34.002
33.978
33.954
33.93
33.906
33.883
33.861
33.839
33.818
33.798
33.779
33.76
33.74
33.72
33.7
33.68
33.661
33.642
33.623
33.604
33.586
33.568
33.549
33.531
33.513
33.496
33.478
33.461
33.445
33.43
33.417
33.405
33.396
33.389
33.387
33.391
33.403
33.426
33.464
33.517
33.589
33.681
33.794
33.927
34.08
34.251
34.438
34.639
34.85
35.068
35.288
35.507
35.722
35.928
36.122
36.303
36.468
36.615
36.743
36.85
36.937
37.004
37.052
37.081
37.092
37.087
37.067
37.034
36.989
36.934
36.871
36.8
36.725
36.647
36.566
36.485
36.404
36.323
36.243
36.165
36.088
36.013
35.94
35.868
35.799
35.732
35.668
35.608
35.55
35.495
35.442
35.39
35.339
35.287
35.235
35.181
35.126
35.069
35.013
34.957
34.903
34.851
34.802
34.756
