Trial 3:3back
33.072
33.026
32.983
32.945
32.915
32.896
32.889
32.9
32.931
32.986
33.067
33.178
33.318
33.488
33.688
33.914
34.164
34.436
34.726
35.028
35.338
35.651
35.964
36.27
36.566
36.846
37.109
37.353
37.575
37.775
37.953
38.107
38.239
38.349
38.437
38.504
38.551
38.581
38.594
38.593
38.578
38.553
38.519
38.477
38.429
38.376
38.321
38.264
38.204
38.143
38.079
38.014
37.944
37.872
37.796
37.719
37.64
37.559
37.477
37.393
37.307
37.219
37.129
37.039
36.948
36.858
36.767
36.678
36.589
36.503
36.419
36.338
36.26
36.187
36.119
36.056
35.999
35.948
35.904
35.864
35.829
35.798
35.771
35.747
35.726
35.709
35.694
35.683
35.675
35.669
35.665
35.661
35.656
35.651
35.644
35.636
35.628
35.617
35.606
35.593
35.58
35.566
35.551
35.536
35.519
35.501
35.482
35.461
35.438
35.413
35.386
35.357
35.325
35.291
35.255
35.218
35.178
35.137
35.094
35.051
35.007
34.961
34.916
34.87
34.824
34.778
34.733
34.689
34.644
34.599
34.553
34.506
34.457
34.405
34.352
34.298
34.243
34.188
34.134
34.081
34.03
33.981
33.933
33.886
33.84
33.794
33.748
33.701
33.654
33.606
33.559
33.511
33.464
33.416
33.369
33.321
33.274
33.227
33.18
33.132
33.085
33.041
33.0
32.965
32.939
32.923
32.92
32.932
32.963
33.015
33.091
33.193
33.322
33.48
33.665
33.877
34.114
34.372
34.649
34.941
35.243
35.551
35.86
36.166
36.465
36.753
37.025
37.28
37.515
37.727
37.914
38.076
38.213
38.324
38.411
38.474
38.514
38.534
38.535
38.519
38.488
38.446
38.395
38.336
38.272
38.205
38.135
38.063
37.99
37.916
37.842
37.767
37.691
37.614
37.535
37.453
37.368
37.279
37.186
37.088
36.988
36.885
36.78
36.676
36.572
36.469
36.369
36.27
36.175
36.085
35.999
35.919
35.844
35.774
35.709
35.649
35.595
35.546
35.504
35.467
35.437
35.412
35.391
35.375
35.362
35.353
35.347
35.345
35.347
35.351
35.356
35.362
35.368
35.373
35.375
35.374
35.37
35.364
35.354
35.342
35.328
35.315
35.302
35.29
35.277
35.263
35.247
35.227
35.205
35.179
35.152
35.121
35.088
35.053
35.018
34.982
34.946
34.909
34.871
34.832
34.79
34.746
34.7
34.652
34.604
34.555
34.505
34.456
34.408
34.359
34.311
34.263
34.215
34.167
34.12
34.074
34.028
33.983
33.939
33.896
33.854
33.813
33.771
33.729
33.685
33.64
33.592
33.543
33.493
33.442
33.39
33.338
33.286
33.233
33.181
33.129
33.079
33.033
32.991
32.956
32.929
32.914
32.912
32.924
32.955
33.005
33.076
33.169
33.288
33.431
33.6
33.793
34.009
34.246
34.499
34.766
35.042
35.322
35.602
35.879
36.147
36.403
36.646
36.874
37.084
37.275
37.446
37.597
37.729
37.84
37.933
38.007
38.064
38.103
38.125
38.131
38.121
38.097
38.061
38.015
37.959
37.897
37.83
37.76
37.686
37.611
37.533
37.454
37.373
37.29
37.204
37.116
37.025
36.931
36.834
36.735
36.634
36.532
36.431
36.33
36.232
36.135
36.04
35.946
35.855
35.768
35.686
35.608
35.535
35.466
35.403
35.345
35.291
35.242
35.199
35.16
35.127
35.099
35.075
35.055
35.039
35.025
35.015
35.008
35.005
35.003
35.002
35.002
35.001
35.0
34.999
34.998
34.997
34.994
34.991
34.985
34.979
34.972
34.964
34.955
34.944
34.93
34.911
34.889
34.862
34.832
34.798
34.761
34.721
34.678
34.634
34.59
34.545
34.5
34.455
34.411
34.366
34.321
34.277
34.231
34.185
34.138
34.09
34.04
33.99
33.939
33.887
33.836
33.784
33.732
33.68
33.629
33.579
33.529
33.48
33.432
33.384
33.338
33.293
33.248
33.203
33.158
33.112
33.067
33.023
32.98
32.938
32.896
32.855
32.814
32.774
32.735
32.698
32.664
32.636
32.617
32.61
32.62
32.648
32.698
32.771
32.869
32.991
33.138
33.31
33.505
33.721
33.954
34.203
34.462
34.729
34.999
35.267
35.531
35.786
36.028
36.255
36.464
36.656
36.828
36.98
37.113
37.227
37.322
37.4
37.461
37.505
37.533
37.549
37.551
37.543
37.524
37.496
37.46
37.416
37.365
37.309
37.248
37.184
37.116
37.046
36.973
36.898
36.821
36.742
36.663
36.582
36.501
36.417
36.332
36.244
36.154
36.063
35.97
35.879
35.789
35.702
35.617
35.535
35.457
35.382
35.31
35.242
35.177
35.117
35.063
35.013
34.969
34.932
34.9
34.874
34.854
34.838
34.825
34.815
34.805
34.796
34.788
34.781
34.774
34.768
34.763
34.758
34.753
34.746
34.738
34.729
34.718
34.706
34.691
34.675
34.658
34.642
34.627
34.613
34.601
34.59
34.579
34.565
34.548
34.527
34.502
34.473
34.438
34.4
34.358
34.313
34.267
34.219
34.172
34.123
34.075
34.028
33.981
33.935
33.89
33.846
33.803
33.761
33.721
33.68
33.641
33.601
33.562
33.522
33.481
33.439
33.395
33.35
33.305
33.26
33.216
33.174
33.133
33.092
33.051
33.01
32.967
32.924
32.879
32.835
32.791
32.747
32.702
32.657
32.613
32.57
32.528
32.489
32.452
32.421
32.398
32.385
32.386
32.402
32.437
32.49
32.564
32.661
32.781
32.926
33.093
33.283
33.493
33.721
33.964
34.219
34.482
34.748
35.015
35.277
35.531
35.774
36.003
36.216
36.413
36.592
36.755
36.9
37.027
37.134
37.221
37.29
37.341
37.377
37.398
37.408
37.408
37.399
37.383
37.362
37.337
37.31
37.279
37.247
37.214
37.181
37.145
37.105
37.062
37.016
36.966
36.913
36.858
36.802
36.744
36.685
36.624
36.562
36.498
36.431
36.362
36.289
36.213
36.136
36.059
35.983
35.911
35.842
35.778
35.719
35.665
35.616
35.573
35.534
35.499
35.469
35.443
35.419
35.399
35.38
35.362
35.346
35.332
35.317
35.303
35.288
35.273
35.257
35.24
35.223
35.206
35.188
35.169
35.15
35.132
35.115
35.1
35.086
35.074
35.062
35.05
35.036
35.02
35.003
34.985
34.965
34.945
34.924
34.902
34.879
34.854
34.827
34.797
34.765
34.73
34.692
34.651
34.61
34.567
34.524
34.482
34.439
34.397
34.354
34.311
34.266
34.22
34.172
34.123
34.074
34.025
33.976
33.928
33.88
33.833
33.787
33.742
33.698
33.656
33.614
33.574
33.534
33.495
33.457
33.42
33.383
33.345
33.308
33.271
33.235
33.2
33.166
33.134
33.103
33.073
33.044
33.016
32.989
32.966
32.947
32.934
32.931
32.939
32.962
33.003
33.062
33.142
33.243
33.366
33.51
33.675
33.86
34.063
34.282
34.515
34.757
35.006
35.258
35.509
35.757
35.998
36.229
36.447
36.65
36.836
37.004
37.153
37.282
37.393
37.486
37.562
37.623
37.67
37.707
37.732
37.749
37.756
37.756
37.747
37.731
37.707
37.676
37.64
37.597
37.55
37.5
37.448
37.396
37.343
37.29
37.237
37.184
37.131
37.074
37.014
36.951
36.884
36.814
36.741
36.668
36.595
36.523
36.452
36.384
36.318
36.256
36.195
36.136
36.08
36.027
35.977
35.929
35.883
35.841
35.801
35.763
35.727
35.694
35.663
35.635
35.61
35.586
35.564
35.545
35.527
35.512
35.498
35.486
35.476
35.467
35.46
35.453
35.448
35.444
35.439
35.434
35.428
35.42
35.408
35.393
35.375
35.355
35.333
35.309
35.284
35.258
35.23
35.201
35.169
35.135
35.099
35.061
35.023
34.983
34.942
34.901
34.86
34.819
34.778
34.737
34.695
34.653
34.612
34.571
34.53
34.49
34.45
34.409
34.368
34.325
34.282
34.236
34.188
34.138
34.089
34.04
33.993
33.947
33.904
33.863
33.824
33.788
33.752
33.719
33.686
33.653
33.62
33.587
33.551
33.514
33.473
33.43
33.386
33.341
33.294
33.248
33.202
33.156
33.113
33.073
33.039
33.013
32.996
32.991
33.002
33.029
33.073
33.138
33.224
33.332
33.462
33.613
33.784
33.973
34.179
34.399
34.631
34.873
35.121
35.372
35.622
35.868
36.106
36.333
36.547
36.744
36.925
37.089
37.235
37.362
37.471
37.563
37.637
37.696
37.739
37.77
37.789
37.799
37.801
37.794
37.78
37.76
37.734
37.704
37.67
37.633
37.594
37.552
37.508
37.46
37.409
37.355
37.298
37.238
37.175
37.11
37.042
36.972
36.901
36.828
36.754
36.682
36.61
36.54
36.471
36.405
36.342
36.283
36.226
36.174
36.125
36.08
36.037
35.998
35.961
35.928
35.898
35.871
35.848
35.829
35.812
35.798
35.787
35.778
35.772
35.768
35.766
35.766
35.768
35.773
35.778
35.784
35.789
35.793
35.795
35.793
35.789
35.781
35.769
35.754
35.737
35.717
35.695
35.672
35.646
35.619
35.591
35.56
35.526
35.489
35.449
35.406
35.36
35.311
35.261
35.21
35.159
35.108
35.059
35.011
34.962
34.913
34.863
34.811
34.759
34.706
34.652
34.599
34.548
34.498
34.45
34.406
34.364
34.323
34.284
34.245
34.204
34.163
34.12
34.076
34.03
33.985
33.938
33.891
33.844
33.796
33.747
33.699
33.65
33.6
33.551
33.501
33.451
33.4
33.349
33.298
33.247
33.197
33.149
33.106
33.07
33.044
33.032
33.034
33.054
33.094
33.153
33.233
33.333
33.453
33.593
33.752
33.928
34.121
34.328
34.547
34.778
35.014
35.253
35.492
35.725
35.95
36.163
36.361
36.545
36.714
36.867
37.005
37.128
37.236
37.329
37.406
37.47
37.52
37.557
37.582
37.596
37.599
37.592
37.574
37.547
37.512
37.469
37.422
37.37
37.316
37.259
37.2
37.139
37.076
37.01
36.943
36.873
36.802
36.729
36.655
36.579
36.502
36.424
36.346
36.269
36.192
36.116
36.041
35.966
35.891
35.818
35.746
35.677
35.611
35.548
35.491
35.438
35.39
35.349
35.313
35.284
35.26
35.24
35.223
35.209
35.198
35.189
35.181
35.176
35.174
35.173
35.175
35.178
35.181
35.184
35.186
35.186
35.185
35.182
35.177
35.171
35.162
35.149
35.134
35.115
35.093
35.066
35.037
35.004
34.968
34.929
34.888
34.846
34.803
34.758
34.712
34.667
34.623
34.58
34.539
34.5
34.461
34.423
34.386
34.35
34.314
34.279
34.243
34.209
34.175
34.14
34.105
34.07
34.034
33.997
33.958
33.917
33.873
33.826
33.776
33.725
33.673
33.621
33.571
33.522
33.474
33.428
33.382
33.336
33.291
33.245
33.2
33.154
33.11
33.066
33.024
32.984
32.947
32.913
32.881
32.854
32.832
32.82
32.819
32.833
32.866
32.919
32.994
33.093
33.215
33.361
33.53
33.719
33.927
34.15
34.386
34.631
34.88
35.133
35.384
35.633
35.875
36.107
36.327
36.533
36.723
36.895
37.048
37.183
37.299
37.396
37.476
37.538
37.585
37.618
37.639
37.649
37.649
37.64
37.624
37.601
37.574
37.544
37.51
37.474
37.434
37.391
37.346
37.296
37.242
37.183
37.121
37.056
36.988
36.919
36.846
36.772
36.695
36.616
36.535
36.451
36.367
36.284
36.201
36.12
36.043
35.969
35.898
35.831
35.768
35.71
35.655
35.604
35.558
35.516
35.477
35.443
35.413
35.387
35.367
35.35
35.337
35.325
35.315
35.306
35.298
35.289
35.28
35.27
35.26
35.25
35.241
35.234
35.228
35.222
35.216
35.208
35.198
35.184
35.167
35.148
35.126
35.103
35.079
35.054
35.028
35.002
34.975
34.947
34.919
34.889
34.857
34.823
34.787
34.749
34.71
34.671
34.632
34.594
34.555
34.515
34.475
34.433
34.389
34.345
34.299
34.251
34.202
34.152
34.102
34.053
34.004
33.957
33.912
33.868
33.826
33.786
33.747
33.708
33.67
33.631
33.592
33.553
33.513
33.471
33.429
33.386
33.342
33.297
33.251
33.204
33.156
33.108
33.059
33.011
32.965
32.921
32.879
32.843
32.814
32.795
32.788
32.795
32.819
32.862
32.926
33.012
33.122
33.257
33.418
33.603
33.811
34.039
34.285
34.545
34.814
35.089
35.365
35.64
35.908
36.165
36.409
36.637
36.849
37.041
37.214
37.368
37.502
37.617
37.713
37.791
37.854
37.903
37.939
37.963
37.977
37.979
37.971
37.954
37.929
37.896
37.858
37.816
37.769
37.72
37.669
37.619
37.568
37.519
37.47
37.422
37.373
37.324
37.273
37.218
37.159
37.094
37.025
36.951
36.875
36.795
36.714
36.631
36.548
36.467
36.39
36.315
36.245
36.178
36.116
36.057
36.001
35.947
35.897
35.851
35.809
35.771
35.738
35.709
35.685
35.663
35.645
35.631
35.618
35.608
35.6
35.592
35.585
35.579
35.573
35.567
35.563
35.56
35.556
35.552
35.545
35.537
35.524
35.507
35.487
35.462
35.434
35.404
35.372
35.339
35.306
35.272
35.237
35.202
35.166
35.129
35.091
35.051
35.01
34.969
34.929
34.89
34.852
34.815
34.778
34.741
34.703
34.664
34.621
34.575
34.525
34.473
34.418
34.362
34.306
34.252
34.199
34.147
34.097
34.049
34.003
33.959
33.918
33.879
33.841
33.804
33.768
33.73
33.693
33.655
33.617
33.577
33.536
33.494
33.45
33.406
33.36
33.315
33.269
33.223
33.176
33.129
33.083
33.037
32.993
32.955
32.923
32.902
32.894
32.903
32.93
32.98
33.055
33.154
33.28
33.431
33.607
33.806
34.026
34.265
34.52
34.786
35.06
35.338
35.617
35.891
36.158
36.414
36.656
36.881
37.086
37.27
37.431
37.57
37.689
37.789
37.871
37.937
37.989
38.029
38.056
38.071
38.075
38.07
38.057
38.037
38.01
37.976
37.937
37.892
37.84
37.782
37.719
37.652
37.582
37.509
37.434
37.357
37.279
37.2
37.12
37.041
36.963
36.887
36.812
36.738
36.665
36.593
36.521
36.451
36.382
36.315
36.25
36.188
36.128
36.072
36.018
35.967
35.918
35.873
35.831
35.792
35.757
35.725
35.698
35.676
35.658
35.645
35.635
35.628
35.621
35.614
35.607
35.601
35.595
35.59
35.586
35.582
35.577
35.571
35.562
35.55
35.534
35.515
35.494
35.471
35.445
35.419
35.391
35.362
35.333
35.303
35.274
35.245
35.214
35.181
35.147
35.11
35.072
35.032
34.99
34.947
34.904
34.859
34.815
34.771
34.728
34.685
34.642
34.6
34.555
34.51
34.463
34.415
34.368
34.322
34.277
34.233
34.19
34.146
34.102
34.056
34.01
33.962
33.913
33.862
33.811
33.76
33.711
33.662
33.616
33.57
33.524
33.477
33.43
33.383
33.335
33.287
33.238
33.19
33.142
33.096
33.05
33.008
32.97
32.939
32.918
32.909
32.916
32.941
32.987
33.056
33.151
33.271
33.415
33.582
33.77
33.977
34.202
34.441
34.692
34.951
35.214
35.478
35.738
35.991
36.234
36.465
36.68
36.878
37.057
37.217
37.356
37.475
37.574
37.656
37.721
37.772
37.811
37.839
37.858
37.868
37.87
37.865
37.853
37.834
37.809
37.777
37.739
37.696
37.648
37.596
37.542
37.486
37.428
37.367
37.304
37.238
37.168
37.094
37.016
36.934
36.849
36.761
36.67
36.576
36.482
36.388
36.297
36.207
36.12
36.037
35.957
35.881
35.807
35.737
35.67
35.608
35.55
35.498
35.452
35.412
35.378
35.349
35.324
35.303
35.286
35.273
35.261
35.251
35.242
35.233
35.223
35.213
35.205
35.198
35.191
35.186
35.181
35.176
35.17
35.163
35.154
35.141
35.126
35.107
35.086
35.062
35.036
35.008
34.978
34.946
34.911
34.875
34.836
34.796
34.755
34.713
34.67
34.625
34.581
34.537
34.492
34.447
34.401
34.354
34.307
34.258
34.208
34.159
34.111
34.063
34.016
33.97
33.924
33.877
33.831
33.784
33.737
33.691
33.644
33.597
33.551
33.506
33.464
33.423
33.382
33.34
33.297
33.25
33.201
33.15
33.099
33.047
32.996
32.947
32.9
32.855
32.813
32.773
32.734
32.698
32.664
32.634
32.611
32.596
32.594
32.607
32.637
32.686
32.757
32.852
32.97
33.114
33.283
33.476
33.691
33.928
34.183
34.453
34.736
35.028
35.322
35.616
35.904
36.183
36.45
36.702
36.935
37.15
37.344
37.518
37.671
37.803
37.916
38.01
38.085
38.142
38.181
38.204
38.213
38.208
38.193
38.168
38.137
38.1
38.059
38.014
37.967
37.918
37.867
37.816
37.764
37.711
37.657
37.602
37.545
37.484
37.418
37.349
37.275
37.197
37.117
37.033
36.948
36.861
36.773
36.686
36.598
36.51
36.425
36.342
36.265
36.194
36.128
36.068
36.015
35.968
35.929
35.895
35.869
35.849
35.835
35.825
35.819
35.815
35.814
35.813
35.811
35.81
35.808
35.805
35.802
35.799
35.797
35.794
35.792
35.788
35.783
35.775
35.765
35.752
35.736
35.718
35.699
35.676
35.652
35.624
35.593
35.561
35.527
35.492
35.457
35.421
35.384
35.346
35.306
35.265
35.222
35.178
35.132
35.086
35.038
34.989
34.938
34.886
34.831
34.776
34.718
34.66
34.601
34.541
34.479
34.416
34.354
34.291
34.228
34.166
34.105
34.045
33.986
33.929
33.874
33.822
33.771
33.72
33.67
33.62
33.569
33.518
33.466
33.414
33.363
33.312
33.263
33.218
33.178
33.146
33.122
33.11
33.111
33.127
33.162
33.219
33.301
33.409
33.544
33.709
33.901
34.121
34.364
34.627
34.904
35.191
35.483
35.775
36.061
36.338
36.604
36.856
37.09
37.306
37.503
37.678
37.832
37.965
38.076
38.166
38.237
38.289
38.323
38.34
38.342
38.331
38.308
38.273
38.231
38.183
38.13
38.073
38.015
37.955
37.894
37.831
37.768
37.703
37.638
37.571
37.5
37.427
37.351
37.273
37.192
37.109
37.024
36.938
36.849
36.758
36.664
36.568
36.471
36.374
36.279
36.187
36.1
36.017
35.94
35.869
35.803
35.745
35.693
35.648
35.609
35.575
35.547
35.522
35.502
35.485
35.471
35.459
35.451
35.444
35.44
35.436
35.434
35.43
35.426
35.421
35.415
35.406
35.393
35.378
35.361
35.342
35.322
35.302
35.282
35.262
35.241
35.22
35.198
35.175
35.151
35.126
35.099
35.07
35.039
35.005
34.97
34.932
34.893
34.852
34.809
34.763
34.715
34.665
34.615
34.563
34.512
34.46
34.408
34.358
34.309
34.261
34.215
34.169
34.125
34.082
34.039
33.996
33.953
33.91
33.867
33.825
33.782
33.739
33.696
33.652
33.606
33.56
33.512
33.463
33.413
33.361
33.311
33.261
33.213
33.167
33.123
33.082
33.043
33.007
32.974
32.947
32.928
32.919
32.923
32.943
32.983
33.044
33.129
33.239
33.375
33.537
33.725
33.938
34.174
34.431
34.706
34.994
35.292
35.595
35.899
36.196
36.483
36.757
37.013
37.252
37.472
37.673
37.854
38.016
38.16
38.284
38.391
38.48
38.553
38.61
38.65
38.676
38.687
38.683
38.665
38.636
38.596
38.55
38.498
38.442
38.384
38.324
38.263
38.2
38.136
38.071
38.004
37.935
37.865
37.791
37.714
37.632
37.546
37.456
37.362
37.267
37.172
37.08
36.99
36.905
36.824
36.747
36.675
36.606
36.54
36.478
36.419
36.363
36.308
36.255
36.205
36.157
36.113
36.074
36.038
36.007
35.98
35.958
35.94
35.928
35.919
35.914
35.912
35.913
35.917
35.921
35.926
35.931
35.936
35.938
35.937
35.933
35.923
35.909
35.889
35.864
35.835
35.804
35.77
35.735
35.698
35.661
35.625
35.588
35.552
35.517
35.484
35.451
35.418
35.384
35.348
35.311
35.272
35.231
35.188
35.144
35.099
35.053
35.005
34.956
34.905
34.853
34.8
34.745
34.688
34.631
34.572
34.514
34.456
34.399
34.344
34.289
34.235
34.182
34.13
34.079
34.029
33.98
33.933
33.886
33.84
33.792
33.744
33.693
33.639
33.583
33.526
33.467
33.408
33.348
33.292
33.238
33.188
33.144
33.107
33.079
33.061
33.057
33.07
33.106
33.165
33.252
33.366
33.509
33.68
33.879
34.102
34.348
34.613
34.893
35.182
35.476
35.772
36.064
36.35
36.626
36.89
37.139
37.372
37.588
37.783
37.958
38.113
38.248
38.365
38.464
38.545
38.612
38.663
38.702
38.727
38.742
38.746
38.742
38.731
38.713
38.69
38.663
38.631
38.595
38.555
38.51
38.461
38.406
38.346
38.28
38.209
38.132
38.05
37.965
37.877
37.788
37.698
37.607
37.516
37.424
37.332
37.241
37.152
37.065
36.982
36.901
36.825
36.753
36.685
36.622
36.564
36.511
36.461
36.416
36.376
36.339
36.307
36.278
36.253
36.231
36.212
36.197
36.185
36.176
36.17
36.167
36.164
36.163
36.162
36.161
36.156
36.146
36.13
36.109
36.082
36.05
36.015
35.977
35.939
35.9
35.863
35.826
35.791
35.757
35.724
35.692
35.661
35.628
35.594
35.557
35.517
35.475
35.431
35.384
35.337
35.289
35.239
35.188
35.135
35.081
35.025
34.969
34.91
34.852
34.793
34.735
34.678
34.623
34.571
34.52
34.469
34.418
34.366
34.313
34.258
34.203
34.146
34.09
34.034
33.978
33.922
33.865
33.808
33.749
33.688
33.627
33.565
33.503
33.441
33.381
33.323
33.269
33.217
33.167
33.121
33.078
33.038
33.004
32.976
32.957
32.949
32.956
32.98
33.025
33.093
33.186
33.305
33.45
33.622
33.82
34.042
34.289
34.556
34.842
35.141
35.45
35.763
36.076
36.385
36.685
36.972
37.243
37.495
37.726
