Trial 3:3back
37.353
37.311
37.274
37.241
37.21
37.181
37.153
37.125
37.098
37.07
37.042
37.013
36.98
36.946
36.908
36.868
36.826
36.78
36.73
36.677
36.619
36.559
36.495
36.426
36.353
36.275
36.194
36.109
36.022
35.933
35.844
35.756
35.668
35.581
35.495
35.41
35.327
35.246
35.167
35.091
35.016
34.941
34.868
34.795
34.725
34.657
34.59
34.525
34.462
34.4
34.34
34.282
34.225
34.168
34.112
34.055
33.999
33.945
33.892
33.841
33.792
33.744
33.698
33.653
33.61
33.567
33.524
33.479
33.434
33.389
33.343
33.299
33.255
33.212
33.171
33.132
33.094
33.059
33.026
32.994
32.964
32.937
32.911
32.888
32.865
32.843
32.821
32.798
32.775
32.751
32.726
32.7
32.673
32.645
32.617
32.589
32.56
32.531
32.5
32.468
32.436
32.404
32.372
32.34
32.307
32.276
32.244
32.214
32.185
32.158
32.133
32.109
32.087
32.066
32.045
32.023
32.001
31.977
31.951
31.925
31.899
31.874
31.852
31.835
31.825
31.827
31.843
31.877
31.932
32.013
32.122
32.262
32.435
32.644
32.891
33.174
33.495
33.852
34.24
34.658
35.098
35.556
36.026
36.5
36.973
37.437
37.885
38.314
38.718
39.095
39.44
39.751
40.028
40.269
40.474
40.646
40.784
40.891
40.97
41.024
41.056
41.067
41.06
41.037
40.999
40.949
40.889
40.821
40.748
40.672
40.595
40.517
40.441
40.366
40.293
40.221
40.151
40.082
40.014
39.948
39.882
39.814
39.745
39.672
39.596
39.515
39.43
39.339
39.243
39.142
39.035
38.922
38.804
38.682
38.559
38.435
38.311
38.188
38.067
37.947
37.832
37.722
37.618
37.521
37.431
37.349
37.274
37.206
37.145
37.089
37.039
36.994
36.953
36.915
36.879
36.843
36.807
36.771
36.736
36.701
36.664
36.625
36.583
36.538
36.491
36.441
36.388
36.333
36.275
36.216
36.155
36.092
36.029
35.964
35.899
35.834
35.766
35.697
35.627
35.555
35.481
35.407
35.331
35.253
35.173
35.093
35.012
34.932
34.852
34.773
34.694
34.616
34.537
34.46
34.383
34.308
34.234
34.16
34.087
34.015
33.943
33.873
33.804
33.736
33.668
33.602
33.538
33.477
33.418
33.362
33.308
33.257
33.207
33.16
33.114
33.071
33.029
32.988
32.947
32.907
32.868
32.83
32.793
32.756
32.718
32.677
32.635
32.591
32.546
32.501
32.457
32.415
32.376
32.342
32.311
32.285
32.262
32.243
32.227
32.214
32.203
32.194
32.186
32.179
32.173
32.167
32.16
32.152
32.142
32.13
32.117
32.101
32.083
32.065
32.044
32.022
31.998
31.974
31.949
31.925
31.902
31.877
31.853
31.828
31.803
31.778
31.755
31.732
31.709
31.687
31.664
31.641
31.616
31.59
31.561
31.532
31.502
31.472
31.445
31.423
31.409
31.405
31.414
31.437
31.475
31.53
31.604
31.7
31.823
31.977
32.163
32.384
32.641
32.933
33.261
33.62
34.01
34.425
34.86
35.309
35.764
36.217
36.664
37.097
37.513
37.905
38.271
38.608
38.915
39.19
39.433
39.642
39.82
39.966
40.082
40.169
40.229
40.265
40.279
40.272
40.248
40.209
40.155
40.091
40.018
39.938
39.854
39.767
39.678
39.589
39.502
39.415
39.331
39.248
39.167
39.088
39.011
38.934
38.856
38.776
38.695
38.61
38.521
38.428
38.329
38.227
38.119
38.008
37.893
37.775
37.655
37.534
37.414
37.297
37.183
37.076
36.974
36.878
36.789
36.707
36.632
36.565
36.508
36.46
36.42
36.389
36.365
36.347
36.336
36.329
36.324
36.32
36.315
36.308
36.299
36.286
36.27
36.25
36.225
36.196
36.164
36.128
36.088
36.044
35.997
35.946
35.891
35.831
35.766
35.698
35.626
35.552
35.475
35.396
35.314
35.232
35.148
35.065
34.981
34.898
34.814
34.732
34.65
34.571
34.493
34.416
34.341
34.266
34.193
34.121
34.048
33.976
33.903
33.829
33.755
33.68
33.606
33.533
33.462
33.394
33.328
33.265
33.204
33.145
33.088
33.035
32.983
32.934
32.887
32.842
32.799
32.76
32.722
32.688
32.655
32.624
32.595
32.567
32.541
32.515
32.49
32.464
32.436
32.408
32.379
32.349
32.319
32.288
32.257
32.225
32.194
32.165
32.136
32.109
32.084
32.06
32.038
32.018
31.998
31.979
31.959
31.938
31.915
31.891
31.865
31.837
31.808
31.778
31.748
31.717
31.684
31.652
31.619
31.585
31.552
31.519
31.486
31.453
31.421
31.39
31.361
31.335
31.313
31.296
31.287
31.288
31.303
31.333
31.384
31.457
31.556
31.684
31.844
32.037
32.262
32.518
32.804
33.118
33.456
33.817
34.197
34.59
34.993
35.399
35.803
36.201
36.587
36.958
37.31
37.64
37.945
38.224
38.475
38.696
38.89
39.054
39.19
39.297
39.377
39.432
39.463
39.472
39.463
39.437
39.398
39.348
39.29
39.225
39.155
39.082
39.005
38.928
38.849
38.77
38.691
38.613
38.537
38.46
38.384
38.306
38.226
38.144
38.058
37.97
37.878
37.784
37.687
37.585
37.478
37.366
37.249
37.127
37.002
36.876
36.749
36.624
36.502
36.385
36.274
36.169
36.072
35.98
35.895
35.816
35.744
35.677
35.618
35.564
35.517
35.476
35.441
35.41
35.384
35.362
35.344
35.327
35.31
35.293
35.274
35.254
35.231
35.205
35.175
35.143
35.109
35.073
35.036
34.995
34.952
34.905
34.854
34.801
34.743
34.682
34.616
34.547
34.475
34.402
34.327
34.251
34.173
34.093
34.01
33.926
33.841
33.755
33.67
33.584
33.5
33.417
33.338
33.262
33.189
33.118
33.05
32.984
32.919
32.857
32.796
32.736
32.675
32.614
32.553
32.494
32.438
32.385
32.336
32.29
32.247
32.208
32.172
32.138
32.104
32.069
32.032
31.992
31.95
31.906
31.861
31.815
31.769
31.725
31.682
31.643
31.609
31.58
31.555
31.534
31.517
31.501
31.486
31.472
31.457
31.441
31.423
31.404
31.383
31.361
31.34
31.319
31.298
31.279
31.261
31.245
31.231
31.219
31.208
31.198
31.187
31.175
31.16
31.142
31.121
31.097
31.069
31.039
31.007
30.974
30.941
30.909
30.877
30.847
30.818
30.791
30.767
30.746
30.727
30.712
30.698
30.688
30.681
30.679
30.682
30.693
30.712
30.744
30.792
30.859
30.951
31.071
31.222
31.406
31.625
31.878
32.164
32.48
32.824
33.191
33.577
33.979
34.393
34.813
35.237
35.656
36.066
36.461
36.837
37.187
37.509
37.799
38.056
38.281
38.475
38.64
38.777
38.89
38.981
39.051
39.104
39.14
39.16
39.164
39.154
39.133
39.101
39.061
39.014
38.962
38.911
38.867
38.834
38.81
38.794
38.78
38.766
38.745
38.714
38.671
38.613
38.541
38.453
38.351
38.236
38.11
37.977
37.841
37.702
37.563
37.425
37.289
37.154
37.022
36.891
36.764
36.641
36.524
36.414
36.311
36.216
36.129
36.048
35.972
35.902
35.836
35.773
35.712
35.652
35.595
35.539
35.486
35.436
35.391
35.35
35.314
35.283
35.255
35.228
35.201
35.173
35.143
35.111
35.078
35.044
35.009
34.973
34.936
34.9
34.864
34.826
34.786
34.74
34.689
34.632
34.569
34.501
34.428
34.352
34.274
34.195
34.115
34.036
33.959
33.881
33.804
33.728
33.652
33.577
33.503
33.43
33.358
33.287
33.217
33.148
33.083
33.02
32.959
32.9
32.842
32.785
32.728
32.672
32.614
32.555
32.494
32.431
32.368
32.306
32.246
32.188
32.132
32.08
32.032
31.987
31.947
31.909
31.871
31.834
31.796
31.757
31.717
31.675
31.633
31.59
31.549
31.51
31.474
31.443
31.415
31.391
31.37
31.35
31.334
31.318
31.303
31.287
31.27
31.25
31.23
31.21
31.19
31.17
31.15
31.131
31.112
31.095
31.079
31.065
31.052
31.039
31.027
31.015
31.005
30.994
30.983
30.97
30.954
30.935
30.913
30.891
30.866
30.84
30.814
30.789
30.763
30.737
30.712
30.688
30.666
30.643
30.621
30.598
30.574
30.548
30.521
30.494
30.466
30.44
30.417
30.401
30.394
30.4
30.422
30.465
30.531
30.624
30.746
30.898
31.081
31.295
31.54
31.812
32.113
32.439
32.789
33.161
33.55
33.954
34.367
34.785
35.204
35.617
36.019
36.404
36.766
37.102
37.409
37.686
37.934
38.151
38.338
38.496
38.625
38.727
38.802
38.853
38.882
38.891
38.883
38.861
38.826
38.781
38.726
38.664
38.597
38.524
38.45
38.373
38.297
38.22
38.145
38.07
37.997
37.925
37.852
37.778
37.702
37.622
37.54
37.454
37.367
37.277
37.186
37.092
36.997
36.898
36.798
36.696
36.592
36.488
36.384
36.281
36.179
36.08
35.985
35.896
35.813
35.737
35.667
35.601
35.541
35.486
35.435
35.388
35.345
35.306
35.269
35.237
35.208
35.185
35.168
35.155
35.146
35.138
35.129
35.12
35.108
35.092
35.073
35.049
35.021
34.988
34.952
34.912
34.87
34.826
34.781
34.732
34.681
34.628
34.573
34.515
34.455
34.393
34.331
34.268
34.205
34.143
34.081
34.019
33.956
33.892
33.827
33.76
33.691
33.62
33.546
33.472
33.397
33.322
33.247
33.175
33.106
33.04
32.978
32.919
32.863
32.808
32.756
32.704
32.653
32.602
32.55
32.499
32.449
32.401
32.356
32.314
32.277
32.245
32.215
32.189
32.165
32.142
32.119
32.095
32.069
32.04
32.01
31.978
31.946
31.914
31.883
31.854
31.827
31.804
31.783
31.764
31.749
31.735
31.723
31.711
31.698
31.684
31.67
31.653
31.636
31.616
31.595
31.573
31.549
31.526
31.502
31.479
31.457
31.436
31.417
31.399
31.38
31.361
31.339
31.313
31.284
31.251
31.216
31.18
31.145
31.111
31.082
31.059
31.045
31.042
31.054
31.08
31.124
31.187
31.272
31.379
31.512
31.672
31.86
32.076
32.32
32.59
32.885
33.204
33.542
33.896
34.262
34.635
35.01
35.383
35.749
36.102
36.439
36.756
37.051
37.32
37.563
37.778
37.966
38.124
38.255
38.359
38.437
38.492
38.526
38.543
38.546
38.536
38.516
38.488
38.451
38.408
38.359
38.305
38.247
38.185
38.121
38.055
37.986
37.916
37.846
37.775
37.704
37.632
37.559
37.485
37.408
37.33
37.25
37.168
37.085
37.0
36.912
36.822
36.73
36.635
36.537
36.438
36.336
36.234
36.133
36.033
35.937
35.846
35.76
35.68
35.606
35.539
35.478
35.423
35.375
35.332
35.294
35.262
35.233
35.209
35.189
35.171
35.154
35.139
35.123
35.106
35.088
35.069
35.049
35.029
35.007
34.985
34.961
34.935
34.909
34.88
34.849
34.814
34.776
34.734
34.689
34.641
34.589
34.534
34.476
34.415
34.351
34.286
34.218
34.149
34.081
34.012
33.943
33.874
33.805
33.735
33.666
33.597
33.529
33.461
33.395
33.331
33.269
33.209
33.151
33.095
33.038
32.983
32.928
32.873
32.819
32.766
32.714
32.663
32.614
32.566
32.52
32.475
32.431
32.386
32.343
32.299
32.256
32.214
32.171
32.129
32.088
32.047
32.007
31.968
31.93
31.893
31.857
31.823
31.791
31.761
31.733
31.707
31.683
31.661
31.642
31.625
31.61
31.595
31.581
31.567
31.555
31.544
31.533
31.523
31.513
31.503
31.493
31.482
31.471
31.459
31.446
31.43
31.412
31.393
31.373
31.354
31.333
31.311
31.288
31.261
31.233
31.202
31.168
31.131
31.094
31.059
31.028
31.006
30.99
30.977
30.962
30.945
30.927
30.913
30.908
30.917
30.944
30.994
31.072
31.182
31.326
31.508
31.725
31.978
32.264
32.579
32.914
33.263
33.622
33.989
34.361
34.737
35.116
35.495
35.872
36.242
36.602
36.948
37.275
37.581
37.865
38.123
38.354
38.557
38.731
38.877
38.996
39.087
39.153
39.197
39.221
39.229
39.223
39.205
39.177
39.141
39.099
39.052
39.0
38.947
38.892
38.836
38.781
38.726
38.671
38.617
38.564
38.512
38.46
38.41
38.361
38.311
38.259
38.205
38.147
38.085
38.018
37.946
37.869
37.787
37.699
37.607
37.511
37.413
37.314
37.215
37.118
37.023
36.932
36.845
36.763
36.686
36.615
36.548
36.487
36.43
36.378
36.33
36.287
36.248
36.212
36.179
36.149
36.122
36.099
36.078
36.058
36.04
36.022
36.003
35.982
35.96
35.935
35.908
35.878
35.845
35.809
35.769
35.727
35.682
35.636
35.587
35.535
35.482
35.427
35.37
35.312
35.253
35.191
35.128
35.063
34.996
34.928
34.861
34.793
34.726
34.658
34.59
34.524
34.458
34.392
34.326
34.259
34.193
34.126
34.059
33.993
33.927
33.862
33.798
33.735
33.673
33.613
33.554
33.497
33.441
33.387
33.335
33.284
33.236
33.189
33.143
33.098
33.052
33.006
32.959
32.91
32.859
32.807
32.754
32.702
32.65
32.6
32.551
32.503
32.458
32.417
32.38
32.347
32.317
32.29
32.266
32.244
32.224
32.207
32.192
32.177
32.162
32.147
32.133
32.12
32.106
32.093
32.08
32.066
32.052
32.038
32.024
32.009
31.993
31.976
31.956
31.936
31.914
31.892
31.868
31.843
31.818
31.792
31.767
31.742
31.717
31.692
31.667
31.644
31.621
31.6
31.578
31.555
31.531
31.505
31.479
31.454
31.433
31.415
31.405
31.402
31.409
31.43
31.467
31.523
31.601
31.705
31.835
31.996
32.188
32.413
32.669
32.956
33.272
33.614
33.978
34.361
34.756
35.159
35.564
35.966
36.361
36.741
37.104
37.445
37.762
38.053
38.317
38.553
38.761
38.94
39.092
39.218
39.32
39.4
39.46
39.502
39.526
39.534
39.526
39.506
39.473
39.432
39.384
39.33
39.272
39.211
39.148
39.084
39.02
38.956
38.893
38.831
38.768
38.706
38.642
38.577
38.51
38.441
38.369
38.293
38.214
38.132
38.046
37.958
37.868
37.778
37.688
37.599
37.51
37.423
37.337
37.252
37.169
37.089
37.012
36.938
36.865
36.795
36.726
36.661
36.601
36.546
36.496
36.451
36.411
36.374
36.34
36.311
36.285
36.263
36.243
36.224
36.207
36.189
36.17
36.151
36.131
36.11
36.087
36.063
36.038
36.01
35.98
35.948
35.912
35.872
35.83
35.784
35.735
35.684
35.629
35.573
35.512
35.449
35.384
35.316
35.245
35.173
35.099
35.025
34.95
34.878
34.806
34.736
34.667
34.599
34.532
34.466
34.399
34.333
34.267
34.2
34.133
34.064
33.996
33.927
33.86
33.794
33.73
33.668
33.609
33.553
33.5
33.451
33.404
33.358
33.313
33.27
33.228
33.187
33.146
33.105
33.063
33.021
32.979
32.938
32.896
32.855
32.814
32.773
32.734
32.697
32.663
32.63
32.6
32.572
32.546
32.523
32.504
32.486
32.471
32.457
32.444
32.433
32.423
32.413
32.403
32.393
32.381
32.368
32.352
32.336
32.319
32.303
32.286
32.271
32.256
32.24
32.223
32.205
32.187
32.167
32.146
32.124
32.101
32.077
32.053
32.027
31.999
31.968
31.936
31.901
31.865
31.828
31.791
31.753
31.715
31.678
31.643
31.61
31.579
31.552
31.529
31.512
31.504
31.507
31.524
31.557
31.609
31.682
31.781
31.907
32.064
32.252
32.471
32.721
33.0
33.306
33.636
33.986
34.351
34.727
35.107
35.487
35.861
36.227
36.581
36.92
37.241
37.54
37.815
38.065
38.289
38.486
38.658
38.803
38.924
39.02
39.093
39.146
39.177
39.191
39.188
39.173
39.147
39.112
39.071
39.024
38.973
38.918
38.861
38.8
38.736
38.669
38.599
38.528
38.456
38.383
38.309
38.236
38.162
38.087
38.012
37.937
37.86
37.784
37.707
37.628
37.547
37.463
37.378
37.291
37.203
37.115
37.027
36.94
36.856
36.775
36.699
36.629
36.565
36.508
36.458
36.414
36.378
36.348
36.325
36.306
36.293
36.283
36.275
36.269
36.266
36.263
36.261
36.26
36.257
36.251
36.243
36.233
36.22
36.204
36.185
36.164
36.141
36.117
36.091
36.062
36.03
35.995
35.957
35.915
35.87
35.822
35.772
35.72
35.666
35.61
35.553
35.493
35.433
35.37
35.305
35.238
35.169
35.099
35.029
34.959
34.889
34.82
34.75
34.681
34.612
34.542
34.472
34.401
34.329
34.257
34.186
34.115
34.047
33.982
33.919
33.859
33.803
33.749
33.698
33.649
33.603
33.56
33.52
33.482
33.447
33.414
33.382
33.351
33.32
33.289
33.259
33.23
33.202
33.177
33.154
33.133
33.112
33.093
33.074
33.055
33.035
33.016
32.995
32.973
32.949
32.926
32.901
32.877
32.851
32.824
32.797
32.768
32.739
32.709
32.678
32.645
32.612
32.579
32.545
32.512
32.478
32.444
32.411
32.38
32.35
32.322
32.297
32.273
32.252
32.234
32.219
32.208
32.2
32.198
32.203
32.217
32.243
32.283
32.342
32.421
32.524
32.653
32.811
33.0
33.218
33.464
33.738
34.038
34.362
34.707
35.069
35.444
35.829
36.218
36.608
36.994
37.371
37.736
38.086
38.417
38.728
39.015
39.277
39.513
39.723
39.906
40.063
40.193
40.299
40.38
40.44
40.478
40.497
40.5
40.487
40.462
40.424
40.377
40.321
40.259
40.191
40.118
40.041
39.961
39.88
39.797
39.715
39.634
39.554
39.476
39.4
39.325
39.248
39.169
39.088
39.005
38.918
38.826
38.728
38.627
38.521
38.412
38.302
38.192
38.085
37.979
37.876
37.773
37.669
37.564
37.462
37.364
37.271
37.186
37.109
37.044
36.991
36.952
36.926
36.912
36.91
36.916
36.93
36.949
36.97
36.991
37.011
37.028
37.04
37.045
37.045
37.038
37.024
37.005
36.98
36.949
36.913
36.873
36.829
36.781
36.73
36.675
36.617
36.557
36.495
36.431
36.365
36.297
36.228
36.157
36.087
36.017
35.947
35.877
35.805
35.732
35.658
35.581
35.504
35.426
35.348
35.27
35.193
35.117
35.043
34.971
34.902
34.836
34.772
34.71
34.65
34.591
34.534
34.478
34.424
34.371
34.32
34.269
34.22
34.171
34.124
34.078
34.033
33.988
33.945
33.901
33.859
33.817
33.776
33.736
33.696
33.656
33.618
33.582
33.547
33.513
33.48
33.447
33.415
33.384
33.352
33.32
33.288
33.256
33.224
33.192
33.162
33.133
33.104
33.076
33.048
33.02
32.992
32.965
32.937
32.908
32.877
32.845
32.812
32.778
32.745
32.711
32.678
32.645
32.612
32.578
32.544
32.508
32.47
32.429
32.386
32.343
32.301
32.262
32.228
32.201
32.183
32.177
32.189
32.22
32.274
32.354
32.463
32.602
32.772
32.976
33.21
33.476
33.77
34.091
34.436
34.801
35.183
35.575
35.975
36.378
36.779
37.174
37.558
37.928
38.279
38.609
38.915
39.196
39.45
39.676
39.876
40.048
40.193
40.312
40.406
40.476
40.523
40.549
40.556
40.545
40.52
40.482
40.433
40.374
40.306
40.23
40.15
40.066
39.98
39.892
39.803
39.713
39.623
39.535
39.449
39.365
39.283
39.204
39.127
39.052
38.977
38.902
38.826
38.748
38.667
38.583
38.495
38.403
38.309
38.213
38.116
38.019
37.923
37.83
37.739
37.652
37.569
37.491
37.42
37.356
37.299
37.249
37.206
37.17
37.14
37.116
37.097
37.082
37.07
37.06
37.052
37.044
37.036
37.027
37.016
37.002
36.986
36.966
36.943
36.917
36.887
36.855
36.82
36.782
36.739
36.693
36.643
36.59
36.533
36.473
36.41
36.343
36.274
36.203
36.132
36.06
35.988
35.916
35.844
35.773
35.703
35.633
35.563
35.493
35.423
35.352
35.281
35.209
35.138
35.068
34.999
34.932
34.866
34.802
34.74
34.678
34.618
34.557
34.496
34.434
34.372
34.31
34.249
34.188
34.128
34.068
34.009
33.951
33.896
33.841
33.788
33.736
33.685
33.636
33.589
33.544
33.5
33.456
33.413
33.372
33.331
33.292
33.253
33.213
33.174
33.135
33.098
33.061
33.025
32.99
32.955
32.921
32.887
32.855
32.823
32.792
32.761
32.73
32.699
32.668
32.637
32.604
32.569
32.533
32.495
32.457
32.419
32.381
32.343
32.306
32.269
32.233
32.2
32.169
32.142
32.12
32.103
32.094
32.095
32.107
32.132
32.175
32.236
32.319
32.425
32.559
32.72
32.911
33.132
33.383
33.663
33.97
34.301
34.652
35.017
35.393
35.774
36.155
36.533
36.902
37.259
37.599
37.918
38.212
38.48
38.719
38.93
39.113
39.268
39.396
39.498
39.575
39.628
39.659
39.671
39.666
39.645
39.61
39.564
39.508
39.445
39.375
39.3
39.221
39.141
39.059
38.976
38.891
38.805
38.719
38.633
38.548
38.463
38.378
38.293
38.206
38.117
38.026
37.931
37.834
37.735
37.634
37.531
37.428
37.327
37.228
37.132
37.04
36.951
36.866
36.786
36.712
36.643
36.58
36.523
36.471
36.423
36.381
36.343
36.311
36.283
36.26
36.241
36.225
36.211
36.198
36.185
36.172
36.158
36.144
36.129
36.113
36.095
36.077
36.056
36.033
36.008
35.981
35.952
35.921
35.89
35.857
35.823
35.788
35.752
35.715
35.676
35.634
35.59
35.543
35.493
35.44
35.384
35.324
35.261
35.196
35.129
35.061
34.991
34.921
34.851
34.781
34.712
34.642
34.573
34.504
34.436
34.37
34.306
34.245
34.187
34.13
34.074
34.019
33.965
33.911
33.856
33.801
33.744
33.686
33.627
33.568
33.509
33.448
33.388
33.328
33.269
33.212
33.156
33.104
33.054
33.006
32.962
32.92
32.88
32.843
