Trial 3:3back
34.37
34.359
34.349
34.341
34.334
34.33
34.33
34.335
34.347
34.366
34.394
34.432
34.479
34.535
34.601
34.674
34.756
34.843
34.934
35.027
35.12
35.212
35.3
35.383
35.459
35.526
35.585
35.635
35.675
35.706
35.728
35.741
35.747
35.745
35.736
35.722
35.703
35.681
35.656
35.631
35.606
35.581
35.559
35.537
35.517
35.499
35.482
35.466
35.451
35.438
35.425
35.413
35.402
35.39
35.379
35.367
35.355
35.342
35.33
35.318
35.306
35.293
35.28
35.266
35.252
35.236
35.219
35.202
35.183
35.164
35.143
35.123
35.102
35.082
35.063
35.045
35.029
35.015
35.004
34.996
34.991
34.988
34.988
34.989
34.991
34.994
34.998
35.001
35.003
35.004
35.004
35.003
35.001
34.998
34.994
34.989
34.984
34.978
34.971
34.964
34.956
34.947
34.936
34.925
34.912
34.899
34.886
34.873
34.861
34.849
34.84
34.831
34.824
34.817
34.812
34.806
34.799
34.793
34.785
34.777
34.767
34.756
34.744
34.729
34.713
34.696
34.678
34.659
34.641
34.624
34.608
34.593
34.581
34.571
34.563
34.557
34.552
34.548
34.545
34.543
34.541
34.54
34.538
34.535
34.53
34.524
34.515
34.505
34.493
34.48
34.466
34.452
34.438
34.424
34.41
34.397
34.385
34.373
34.362
34.352
34.343
34.335
34.329
34.325
34.325
34.328
34.336
34.35
34.37
34.398
34.433
34.478
34.531
34.593
34.663
34.741
34.824
34.913
35.005
35.099
35.193
35.286
35.377
35.463
35.545
35.621
35.689
35.75
35.802
35.845
35.88
35.905
35.923
35.934
35.938
35.937
35.93
35.919
35.904
35.886
35.866
35.846
35.826
35.806
35.787
35.77
35.753
35.739
35.725
35.714
35.704
35.695
35.688
35.683
35.679
35.675
35.672
35.669
35.666
35.662
35.656
35.65
35.642
35.632
35.62
35.606
35.59
35.571
35.55
35.526
35.501
35.476
35.451
35.427
35.405
35.385
35.369
35.355
35.345
35.338
35.333
35.33
35.33
35.332
35.335
35.34
35.345
35.352
35.359
35.365
35.371
35.376
35.38
35.382
35.381
35.379
35.374
35.366
35.358
35.348
35.338
35.328
35.318
35.308
35.298
35.289
35.279
35.269
35.258
35.246
35.234
35.221
35.208
35.195
35.181
35.168
35.155
35.141
35.129
35.116
35.104
35.093
35.081
35.07
35.058
35.047
35.035
35.023
35.011
34.999
34.985
34.972
34.958
34.944
34.93
34.918
34.906
34.895
34.885
34.876
34.868
34.86
34.853
34.846
34.84
34.833
34.827
34.82
34.813
34.805
34.797
34.787
34.777
34.766
34.755
34.743
34.732
34.722
34.712
34.701
34.691
34.68
34.669
34.658
34.645
34.633
34.619
34.605
34.591
34.578
34.565
34.553
34.543
34.534
34.528
34.524
34.525
34.529
34.539
34.554
34.576
34.604
34.64
34.684
34.735
34.795
34.863
34.939
35.023
35.113
35.208
35.308
35.411
35.515
35.619
35.721
35.819
35.912
35.998
36.075
36.143
36.201
36.249
36.285
36.312
36.328
36.334
36.332
36.322
36.306
36.285
36.262
36.237
36.212
36.189
36.168
36.15
36.134
36.122
36.114
36.109
36.106
36.105
36.106
36.107
36.108
36.108
36.108
36.106
36.103
36.099
36.093
36.084
36.074
36.062
36.049
36.034
36.019
36.004
35.988
35.972
35.956
35.94
35.924
35.908
35.893
35.877
35.863
35.849
35.836
35.823
35.811
35.8
35.79
35.781
35.774
35.768
35.764
35.761
35.761
35.762
35.765
35.769
35.775
35.783
35.791
35.799
35.806
35.812
35.816
35.818
35.816
35.811
35.803
35.792
35.777
35.76
35.741
35.721
35.699
35.678
35.657
35.637
35.617
35.599
35.582
35.567
35.553
35.541
35.531
35.521
35.512
35.501
35.49
35.477
35.463
35.448
35.432
35.414
35.397
35.38
35.363
35.346
35.33
35.314
35.298
35.283
35.268
35.253
35.239
35.225
35.212
35.199
35.187
35.176
35.164
35.152
35.14
35.128
35.117
35.106
35.095
35.085
35.074
35.064
35.053
35.041
35.029
35.015
35.001
34.986
34.97
34.954
34.938
34.923
34.908
34.893
34.879
34.865
34.852
34.839
34.826
34.814
34.803
34.792
34.782
34.774
34.767
34.761
34.755
34.751
34.746
34.742
34.738
34.734
34.73
34.725
34.72
34.713
34.705
34.696
34.685
34.674
34.661
34.648
34.634
34.62
34.605
34.59
34.575
34.559
34.543
34.527
34.51
34.494
34.48
34.466
34.454
34.444
34.435
34.428
34.424
34.422
34.425
34.431
34.443
34.462
34.488
34.523
34.567
34.622
34.687
34.762
34.848
34.944
35.048
35.158
35.273
35.391
35.51
35.628
35.743
35.853
35.956
36.049
36.132
36.203
36.261
36.308
36.343
36.368
36.383
36.39
36.39
36.385
36.375
36.363
36.35
36.338
36.327
36.32
36.316
36.315
36.318
36.323
36.331
36.341
36.352
36.362
36.372
36.38
36.385
36.389
36.39
36.388
36.383
36.373
36.36
36.343
36.321
36.295
36.265
36.232
36.196
36.158
36.12
36.082
36.044
36.009
35.975
35.944
35.915
35.888
35.863
35.839
35.817
35.795
35.773
35.751
35.728
35.705
35.681
35.656
35.632
35.608
35.585
35.564
35.544
35.526
35.51
35.497
35.486
35.477
35.471
35.466
35.463
35.459
35.456
35.451
35.446
35.439
35.43
35.418
35.404
35.388
35.369
35.349
35.326
35.303
35.278
35.252
35.225
35.197
35.169
35.142
35.115
35.09
35.067
35.046
35.027
35.01
34.993
34.978
34.963
34.949
34.937
34.927
34.918
34.91
34.903
34.898
34.894
34.891
34.889
34.888
34.886
34.885
34.884
34.882
34.88
34.878
34.876
34.875
34.874
34.874
34.874
34.874
34.874
34.872
34.87
34.867
34.863
34.859
34.854
34.85
34.845
34.84
34.836
34.832
34.828
34.825
34.822
34.82
34.82
34.82
34.821
34.823
34.826
34.828
34.831
34.835
34.838
34.842
34.846
34.85
34.854
34.857
34.859
34.861
34.861
34.861
34.86
34.858
34.855
34.851
34.846
34.84
34.833
34.825
34.816
34.807
34.797
34.786
34.776
34.765
34.755
34.745
34.735
34.727
34.719
34.712
34.706
34.702
34.699
34.699
34.701
34.706
34.715
34.728
34.748
34.774
34.81
34.856
34.912
34.979
35.056
35.143
35.238
35.341
35.449
35.56
35.673
35.784
35.892
35.995
36.089
36.174
36.249
36.312
36.364
36.404
36.434
36.453
36.463
36.466
36.461
36.452
36.438
36.421
36.401
36.379
36.357
36.334
36.312
36.29
36.269
36.248
36.227
36.208
36.188
36.169
36.151
36.135
36.12
36.106
36.094
36.083
36.073
36.064
36.055
36.046
36.036
36.026
36.014
36.002
35.987
35.971
35.954
35.934
35.913
35.892
35.869
35.847
35.825
35.805
35.788
35.773
35.762
35.754
35.75
35.75
35.753
35.761
35.771
35.783
35.798
35.815
35.832
35.85
35.867
35.882
35.896
35.908
35.918
35.925
35.929
35.931
35.93
35.927
35.923
35.916
35.909
35.901
35.893
35.885
35.877
35.869
35.861
35.853
35.845
35.837
35.828
35.819
35.809
35.798
35.786
35.772
35.757
35.74
35.722
35.704
35.685
35.666
35.648
35.631
35.615
35.6
35.585
35.571
35.557
35.542
35.527
35.511
35.494
35.476
35.457
35.437
35.418
35.399
35.38
35.363
35.347
35.332
35.318
35.305
35.293
35.281
35.269
35.256
35.242
35.227
35.21
35.192
35.173
35.154
35.135
35.116
35.098
35.081
35.064
35.048
35.032
35.017
35.003
34.989
34.976
34.963
34.949
34.935
34.921
34.905
34.889
34.873
34.857
34.842
34.828
34.816
34.807
34.799
34.794
34.791
34.791
34.794
34.8
34.81
34.825
34.845
34.871
34.904
34.946
34.996
35.057
35.127
35.207
35.296
35.392
35.493
35.598
35.706
35.813
35.918
36.018
36.113
36.2
36.278
36.346
36.403
36.449
36.485
36.51
36.526
36.533
36.532
36.525
36.512
36.496
36.476
36.455
36.433
36.411
36.389
36.367
36.344
36.321
36.297
36.272
36.246
36.219
36.191
36.162
36.133
36.103
36.074
36.046
36.019
35.993
35.969
35.945
35.923
35.902
35.882
35.862
35.843
35.823
35.804
35.784
35.765
35.744
35.724
35.703
35.682
35.661
35.641
35.621
35.602
35.584
35.568
35.553
35.54
35.529
35.52
35.512
35.506
35.501
35.496
35.493
35.49
35.488
35.485
35.481
35.477
35.471
35.464
35.454
35.442
35.428
35.412
35.394
35.376
35.357
35.339
35.32
35.302
35.285
35.269
35.254
35.24
35.226
35.212
35.197
35.182
35.165
35.147
35.127
35.105
35.082
35.057
35.033
35.008
34.983
34.96
34.939
34.92
34.903
34.888
34.875
34.863
34.854
34.845
34.837
34.829
34.822
34.815
34.809
34.803
34.798
34.793
34.789
34.786
34.783
34.782
34.783
34.785
34.79
34.795
34.801
34.809
34.816
34.823
34.829
34.833
34.836
34.837
34.835
34.832
34.826
34.819
34.81
34.801
34.792
34.784
34.777
34.772
34.77
34.769
34.77
34.774
34.78
34.789
34.802
34.819
34.841
34.869
34.905
34.947
34.999
35.059
35.129
35.208
35.296
35.393
35.496
35.604
35.716
35.829
35.942
36.052
36.158
36.257
36.349
36.433
36.507
36.569
36.621
36.663
36.693
36.715
36.727
36.733
36.732
36.726
36.717
36.705
36.691
36.677
36.662
36.647
36.634
36.62
36.608
36.596
36.584
36.571
36.557
36.543
36.526
36.508
36.488
36.467
36.446
36.423
36.401
36.379
36.357
36.336
36.314
36.292
36.271
36.249
36.227
36.205
36.183
36.16
36.137
36.114
36.091
36.068
36.045
36.023
36.002
35.983
35.967
35.953
35.943
35.937
35.933
35.933
35.935
35.939
35.946
35.953
35.96
35.967
35.972
35.975
35.976
35.975
35.973
35.967
35.96
35.951
35.94
35.929
35.916
35.902
35.888
35.874
35.859
35.845
35.83
35.816
35.802
35.789
35.775
35.761
35.747
35.733
35.718
35.703
35.686
35.669
35.651
35.632
35.612
35.592
35.573
35.554
35.536
35.519
35.503
35.488
35.473
35.459
35.445
35.43
35.414
35.397
35.378
35.357
35.336
35.314
35.292
35.271
35.251
35.232
35.215
35.199
35.185
35.173
35.162
35.152
35.143
35.134
35.124
35.114
35.103
35.09
35.076
35.06
35.043
35.025
35.005
34.985
34.964
34.944
34.925
34.907
34.892
34.879
34.868
34.861
34.858
34.859
34.865
34.878
34.899
34.928
34.968
35.019
35.081
35.155
35.239
35.334
35.439
35.552
35.67
35.793
35.916
36.039
36.159
36.273
36.381
36.479
36.568
36.646
36.712
36.767
36.81
36.842
36.863
36.876
36.881
36.879
36.872
36.861
36.847
36.831
36.814
36.796
36.779
36.761
36.744
36.727
36.711
36.694
36.678
36.662
36.647
36.633
36.619
36.606
36.593
36.581
36.57
36.559
36.547
36.535
36.522
36.509
36.494
36.477
36.459
36.439
36.417
36.394
36.369
36.342
36.315
36.287
36.258
36.231
36.204
36.179
36.156
36.135
36.118
36.103
36.092
36.085
36.08
36.08
36.083
36.089
36.097
36.106
36.116
36.124
36.131
36.136
36.138
36.137
36.132
36.125
36.115
36.102
36.088
36.072
36.056
36.04
36.023
36.007
35.992
35.976
35.96
35.944
35.927
35.909
35.89
35.87
35.85
35.829
35.807
35.785
35.763
35.741
35.719
35.698
35.676
35.655
35.634
35.613
35.593
35.572
35.553
35.533
35.514
35.494
35.474
35.454
35.433
35.411
35.389
35.367
35.345
35.323
35.301
35.281
35.261
35.243
35.225
35.208
35.191
35.176
35.16
35.146
35.132
35.118
35.105
35.092
35.079
35.066
35.053
35.04
35.026
35.013
34.999
34.984
34.97
34.955
34.94
34.925
34.91
34.894
34.877
34.86
34.842
34.823
34.805
34.787
34.77
34.755
34.742
34.733
34.727
34.727
34.734
34.748
34.772
34.805
34.849
34.904
34.97
35.046
35.133
35.228
35.331
35.44
35.553
35.67
35.788
35.906
36.02
36.13
36.234
36.33
36.416
36.493
36.559
36.614
36.659
36.693
36.717
36.732
36.738
36.737
36.73
36.717
36.7
36.681
36.66
36.637
36.614
36.591
36.569
36.549
36.531
36.515
36.501
36.488
36.476
36.465
36.455
36.444
36.434
36.423
36.411
36.399
36.385
36.369
36.352
36.334
36.314
36.293
36.271
36.249
36.226
36.202
36.178
36.154
36.13
36.107
36.083
36.061
36.039
36.019
36.0
35.983
35.967
35.954
35.942
35.933
35.926
35.92
35.915
35.911
35.908
35.906
35.904
35.903
35.903
35.904
35.905
35.907
35.908
35.909
35.909
35.907
35.903
35.897
35.887
35.875
35.861
35.844
35.826
35.806
35.784
35.762
35.738
35.715
35.691
35.667
35.643
35.621
35.599
35.578
35.557
35.538
35.519
35.5
35.482
35.462
35.442
35.421
35.399
35.375
35.352
35.328
35.304
35.281
35.258
35.237
35.216
35.196
35.177
35.159
35.142
35.127
35.112
35.098
35.084
35.071
35.057
35.042
35.026
35.008
34.989
34.969
34.949
34.928
34.907
34.888
34.869
34.852
34.835
34.821
34.808
34.796
34.786
34.776
34.767
34.759
34.752
34.746
34.74
34.735
34.73
34.724
34.718
34.71
34.701
34.69
34.678
34.665
34.649
34.633
34.616
34.6
34.583
34.567
34.551
34.536
34.522
34.509
34.498
34.489
34.484
34.483
34.487
34.499
34.518
34.547
34.585
34.634
34.694
34.766
34.848
34.94
35.041
35.15
35.264
35.382
35.502
35.622
35.74
35.853
35.96
36.06
36.15
36.229
36.297
36.353
36.396
36.428
36.447
36.456
36.456
36.447
36.432
36.412
36.389
36.364
36.338
36.313
36.288
36.265
36.243
36.223
36.205
36.188
36.174
36.161
36.149
36.139
36.129
36.119
36.11
36.1
36.089
36.077
36.064
36.049
36.033
36.015
35.996
35.976
35.955
35.933
35.909
35.885
35.86
35.834
35.807
35.781
35.755
35.73
35.706
35.684
35.664
35.646
35.631
35.618
35.608
35.6
35.594
35.592
35.592
35.595
35.6
35.608
35.619
35.63
35.641
35.652
35.661
35.668
35.673
35.675
35.673
35.668
35.66
35.648
35.634
35.619
35.602
35.585
35.567
35.55
35.533
35.517
35.502
35.488
35.475
35.462
35.449
35.435
35.421
35.407
35.391
35.375
35.359
35.342
35.325
35.309
35.293
35.278
35.265
35.252
35.24
35.228
35.216
35.203
35.189
35.175
35.161
35.146
35.13
35.115
35.1
35.085
35.07
35.056
35.042
35.029
35.015
35.001
34.987
34.972
34.957
34.941
34.925
34.909
34.893
34.877
34.861
34.847
34.833
34.82
34.808
34.797
34.788
34.778
34.769
34.76
34.751
34.741
34.733
34.724
34.716
34.708
34.7
34.692
34.683
34.674
34.664
34.654
34.643
34.632
34.621
34.61
34.598
34.587
34.575
34.563
34.552
34.54
34.528
34.515
34.503
34.492
34.483
34.477
34.474
34.476
34.483
34.496
34.517
34.545
34.582
34.629
34.685
34.751
34.827
34.911
35.003
35.102
35.206
35.314
35.424
35.534
35.643
35.749
35.849
35.944
36.03
36.108
36.176
36.232
36.278
36.312
36.335
36.348
36.352
36.347
36.335
36.318
36.298
36.275
36.251
36.227
36.203
36.181
36.16
36.14
36.121
36.104
36.088
36.074
36.062
36.051
36.041
36.031
36.022
36.013
36.003
35.994
35.984
35.975
35.964
35.953
35.94
35.926
35.911
35.894
35.876
35.856
35.835
35.813
35.791
35.769
35.748
35.727
35.707
35.689
35.673
35.659
35.649
35.642
35.637
35.636
35.638
35.641
35.647
35.654
35.662
35.671
35.68
35.689
35.697
35.704
35.71
35.714
35.715
35.714
35.71
35.703
35.693
35.682
35.669
35.655
35.64
35.626
35.611
35.598
35.585
35.574
35.564
35.555
35.546
35.536
35.526
35.514
35.501
35.485
35.468
35.449
35.428
35.406
35.383
35.359
35.336
35.312
35.289
35.268
35.247
35.229
35.211
35.194
35.179
35.164
35.149
35.136
35.122
35.11
35.096
35.083
35.069
35.055
35.041
35.026
35.012
34.998
34.984
34.971
34.959
34.948
34.938
34.928
34.918
34.909
34.901
34.893
34.885
34.878
34.871
34.864
34.857
34.85
34.842
34.833
34.823
34.813
34.802
34.789
34.776
34.761
34.744
34.725
34.705
34.685
34.665
34.645
34.627
34.61
34.596
34.584
34.575
34.569
34.566
34.567
34.572
34.583
34.598
34.62
34.648
34.684
34.728
34.78
34.841
34.911
34.989
35.075
35.168
35.267
35.37
35.475
35.579
35.681
35.778
35.869
35.952
36.026
36.09
36.144
36.188
36.22
36.242
36.254
36.256
36.25
36.237
36.219
36.197
36.174
36.149
36.126
36.104
36.084
36.066
36.051
36.038
36.026
36.015
36.004
35.993
35.98
35.966
35.95
35.933
35.914
35.893
35.872
35.85
35.829
35.808
35.787
35.767
35.748
35.728
35.709
35.69
35.671
35.652
35.632
35.613
35.593
35.574
35.555
35.536
35.518
35.501
35.484
35.469
35.455
35.444
35.435
35.428
35.425
35.426
35.429
35.436
35.445
35.457
35.469
35.483
35.496
35.507
35.516
35.521
35.523
35.522
35.516
35.508
35.497
35.483
35.468
35.45
35.432
35.414
35.395
35.376
35.358
35.339
35.321
35.303
35.285
35.268
35.251
35.234
35.217
35.2
35.183
35.167
35.15
35.134
35.117
35.101
35.085
35.07
35.054
35.038
35.022
35.005
34.988
34.969
34.949
34.927
34.906
34.884
34.862
34.841
34.822
34.804
34.789
34.775
34.762
34.751
34.741
34.732
34.723
34.714
34.706
34.698
34.69
34.683
34.675
34.667
34.659
34.649
34.638
34.627
34.614
34.601
34.587
34.573
34.558
34.542
34.525
34.508
34.49
34.473
34.456
34.439
34.425
34.412
34.402
34.393
34.388
34.384
34.384
34.387
34.394
34.406
34.424
34.449
34.481
34.522
34.573
34.633
34.703
34.783
34.872
34.969
35.073
35.183
35.295
35.408
35.521
35.631
35.736
35.834
35.925
36.007
36.079
36.14
36.192
36.232
36.262
36.282
36.293
36.296
36.292
36.283
36.27
36.253
36.233
36.212
36.19
36.168
36.148
36.13
36.115
36.102
36.092
36.085
36.079
36.075
36.07
36.066
36.061
36.056
36.05
36.042
36.033
36.023
36.012
35.999
35.985
35.97
35.953
35.936
35.918
35.899
35.879
35.858
35.837
35.815
35.793
35.771
35.749
35.727
35.705
35.684
35.665
35.647
35.63
35.617
35.606
35.598
35.593
35.591
35.593
35.597
35.604
35.612
35.622
35.633
35.645
35.656
35.665
35.671
35.675
35.675
35.671
35.665
35.656
35.645
35.632
35.619
35.605
35.591
35.577
35.564
35.55
35.538
35.527
35.516
35.506
35.496
35.486
35.476
35.464
35.451
35.438
35.423
35.406
35.388
35.368
35.347
35.324
35.301
35.276
35.252
35.227
35.203
35.18
35.157
35.135
35.113
35.091
35.071
35.051
35.033
35.016
35.0
34.986
34.974
34.962
34.952
34.943
34.936
34.93
34.925
34.921
34.918
34.915
34.911
34.907
34.903
34.898
34.892
34.885
34.877
34.868
34.857
34.844
34.83
34.814
34.797
34.78
34.762
34.744
34.726
34.708
34.691
34.674
34.658
34.642
34.628
34.616
34.607
34.601
34.6
34.604
34.616
34.635
34.664
34.704
34.754
34.815
34.887
34.97
35.062
35.163
35.272
35.385
35.503
35.622
35.743
35.862
35.978
36.089
36.194
36.291
36.38
36.459
36.528
36.585
36.632
36.668
36.694
36.711
36.72
36.722
36.717
36.707
36.692
36.674
36.654
36.632
36.609
36.587
36.566
36.546
36.529
36.513
36.501
36.49
36.483
36.476
36.472
36.468
36.465
36.463
36.46
36.456
36.451
36.445
36.437
36.427
36.415
36.401
36.386
36.369
36.351
36.331
36.309
36.286
36.262
36.237
36.212
36.188
36.165
36.142
36.121
36.101
36.084
36.069
36.056
36.047
36.04
36.037
36.036
36.039
36.044
36.051
36.059
36.069
36.079
36.089
36.098
36.106
36.111
36.114
36.115
36.112
36.106
36.097
36.085
36.071
36.055
36.038
36.019
36.001
35.982
35.963
35.944
35.925
35.906
35.889
35.872
35.855
35.837
35.82
35.802
35.783
35.764
35.744
35.725
35.705
35.685
35.664
35.644
35.622
35.601
35.579
35.558
35.537
35.516
35.496
35.476
35.455
35.435
35.413
35.391
35.368
35.343
35.318
35.292
35.268
35.244
35.223
35.203
35.187
35.172
35.16
35.15
35.142
35.135
35.13
35.125
35.12
35.116
35.111
35.106
35.099
35.091
35.081
35.071
35.058
35.045
35.03
35.014
34.996
34.978
34.96
34.941
34.922
34.903
34.885
34.867
34.85
34.835
34.821
34.809
34.8
34.793
34.79
34.791
34.798
34.81
34.828
34.855
34.89
34.934
34.989
35.054
35.131
35.218
35.316
35.422
35.536
35.655
35.778
35.903
36.027
36.148
36.263
36.372
36.472
36.563
36.643
36.712
36.771
36.819
36.856
36.883
36.902
36.912
36.915
36.912
36.904
36.891
36.875
36.856
36.835
36.814
36.793
36.772
36.753
36.736
36.721
36.708
36.697
36.688
36.679
36.671
36.663
36.655
36.646
36.635
36.624
36.611
36.597
36.581
36.565
36.547
36.527
36.507
36.485
36.463
36.44
36.416
36.393
36.371
36.35
36.33
36.312
36.295
36.279
36.264
