Trial 3:3back
36.105
36.096
36.085
36.073
36.061
36.05
36.04
36.031
36.021
36.011
36.0
35.986
35.968
35.947
35.923
35.895
35.864
35.831
35.795
35.759
35.721
35.683
35.646
35.61
35.575
35.54
35.505
35.469
35.433
35.396
35.358
35.319
35.278
35.236
35.193
35.148
35.102
35.055
35.008
34.96
34.912
34.864
34.818
34.772
34.726
34.679
34.632
34.585
34.538
34.492
34.448
34.405
34.365
34.326
34.291
34.258
34.231
34.209
34.194
34.188
34.193
34.212
34.249
34.305
34.382
34.481
34.605
34.752
34.922
35.113
35.324
35.55
35.79
36.04
36.295
36.551
36.805
37.052
37.29
37.515
37.724
37.916
38.088
38.241
38.372
38.481
38.57
38.638
38.687
38.716
38.727
38.721
38.699
38.665
38.618
38.561
38.497
38.428
38.354
38.276
38.197
38.117
38.037
37.957
37.877
37.798
37.719
37.641
37.563
37.485
37.406
37.326
37.245
37.163
37.079
36.995
36.909
36.822
36.736
36.65
36.566
36.485
36.408
36.336
36.271
36.211
36.157
36.11
36.069
36.032
36.0
35.972
35.949
35.929
35.911
35.897
35.884
35.873
35.864
35.856
35.849
35.843
35.837
35.832
35.827
35.822
35.817
35.812
35.804
35.795
35.784
35.771
35.757
35.741
35.724
35.706
35.687
35.669
35.65
35.631
35.613
35.596
35.579
35.561
35.542
35.521
35.498
35.473
35.445
35.416
35.385
35.354
35.322
35.288
35.254
35.219
35.184
35.149
35.112
35.076
35.039
35.001
34.962
34.92
34.877
34.831
34.784
34.735
34.685
34.634
34.583
34.532
34.482
34.433
34.384
34.336
34.289
34.242
34.196
34.15
34.107
34.065
34.027
33.994
33.966
33.947
33.936
33.936
33.949
33.979
34.026
34.095
34.188
34.305
34.446
34.611
34.798
35.005
35.229
35.469
35.719
35.976
36.236
36.493
36.744
36.982
37.206
37.414
37.602
37.771
37.918
38.045
38.152
38.24
38.307
38.356
38.387
38.402
38.404
38.393
38.373
38.343
38.306
38.263
38.215
38.161
38.103
38.041
37.976
37.907
37.835
37.759
37.681
37.6
37.515
37.426
37.334
37.238
37.141
37.042
36.942
36.841
36.74
36.64
36.54
36.443
36.347
36.254
36.165
36.08
36.0
35.926
35.858
35.798
35.744
35.697
35.657
35.625
35.6
35.581
35.568
35.559
35.554
35.552
35.551
35.551
35.551
35.553
35.556
35.561
35.567
35.573
35.581
35.588
35.595
35.601
35.603
35.601
35.595
35.584
35.568
35.548
35.526
35.504
35.482
35.462
35.445
35.429
35.414
35.4
35.385
35.368
35.351
35.331
35.309
35.285
35.256
35.224
35.188
35.148
35.106
35.062
35.018
34.972
34.927
34.882
34.837
34.792
34.747
34.703
34.659
34.617
34.576
34.536
34.496
34.456
34.415
34.372
34.329
34.286
34.244
34.202
34.161
34.12
34.08
34.039
33.998
33.957
33.916
33.875
33.835
33.796
33.761
33.732
33.712
33.704
33.709
33.731
33.771
33.831
33.912
34.016
34.144
34.297
34.474
34.674
34.895
35.133
35.386
35.651
35.923
36.199
36.473
36.743
37.004
37.252
37.483
37.695
37.884
38.051
38.194
38.311
38.404
38.474
38.521
38.549
38.558
38.55
38.527
38.493
38.449
38.398
38.342
38.282
38.219
38.155
38.089
38.021
37.95
37.877
37.801
37.724
37.644
37.561
37.475
37.388
37.299
37.208
37.117
37.026
36.935
36.846
36.758
36.671
36.586
36.503
36.422
36.343
36.265
36.191
36.118
36.049
35.983
35.92
35.863
35.81
35.764
35.725
35.694
35.671
35.657
35.651
35.65
35.655
35.662
35.67
35.678
35.685
35.69
35.694
35.697
35.697
35.696
35.694
35.69
35.685
35.679
35.673
35.666
35.66
35.654
35.648
35.641
35.633
35.623
35.613
35.6
35.587
35.573
35.559
35.542
35.524
35.504
35.483
35.46
35.435
35.408
35.377
35.344
35.308
35.271
35.231
35.19
35.148
35.107
35.066
35.025
34.984
34.944
34.904
34.864
34.823
34.781
34.738
34.693
34.645
34.594
34.541
34.486
34.431
34.375
34.319
34.266
34.213
34.162
34.111
34.06
34.009
33.96
33.911
33.865
33.824
33.789
33.762
33.746
33.743
33.757
33.791
33.846
33.924
34.026
34.154
34.306
34.482
34.68
34.899
35.136
35.388
35.652
35.923
36.199
36.475
36.747
37.013
37.268
37.509
37.734
37.94
38.125
38.288
38.427
38.542
38.633
38.701
38.747
38.773
38.782
38.776
38.755
38.721
38.676
38.621
38.558
38.488
38.412
38.333
38.25
38.167
38.084
37.999
37.913
37.827
37.739
37.65
37.558
37.465
37.37
37.275
37.179
37.082
36.985
36.889
36.794
36.703
36.616
36.533
36.455
36.381
36.314
36.251
36.191
36.134
36.081
36.029
35.98
35.933
35.888
35.848
35.811
35.779
35.749
35.724
35.702
35.683
35.668
35.656
35.647
35.641
35.636
35.631
35.627
35.623
35.62
35.617
35.614
35.609
35.604
35.598
35.592
35.585
35.578
35.569
35.559
35.548
35.534
35.518
35.499
35.477
35.453
35.427
35.4
35.371
35.341
35.311
35.28
35.247
35.214
35.182
35.15
35.118
35.085
35.052
35.017
34.98
34.939
34.895
34.847
34.797
34.746
34.693
34.639
34.584
34.53
34.476
34.424
34.373
34.324
34.279
34.236
34.196
34.159
34.122
34.085
34.048
34.01
33.97
33.929
33.886
33.841
33.795
33.749
33.705
33.665
33.631
33.607
33.593
33.594
33.613
33.654
33.72
33.815
33.94
34.096
34.283
34.5
34.743
35.01
35.295
35.596
35.907
36.223
36.539
36.849
37.15
37.437
37.706
37.953
38.177
38.376
38.552
38.704
38.832
38.938
39.023
39.088
39.133
39.162
39.175
39.173
39.159
39.132
39.095
39.048
38.992
38.929
38.858
38.781
38.697
38.607
38.512
38.411
38.308
38.203
38.097
37.991
37.887
37.783
37.681
37.578
37.475
37.373
37.272
37.172
37.073
36.975
36.879
36.785
36.692
36.6
36.51
36.424
36.342
36.266
36.195
36.131
36.074
36.024
35.981
35.944
35.913
35.889
35.873
35.862
35.855
35.851
35.848
35.844
35.84
35.835
35.828
35.82
35.813
35.804
35.796
35.787
35.779
35.772
35.764
35.758
35.751
35.745
35.737
35.727
35.714
35.698
35.68
35.658
35.634
35.608
35.579
35.548
35.515
35.48
35.442
35.402
35.36
35.318
35.274
35.228
35.18
35.131
35.081
35.031
34.98
34.93
34.881
34.833
34.787
34.74
34.693
34.646
34.597
34.548
34.499
34.451
34.403
34.354
34.306
34.256
34.207
34.157
34.106
34.057
34.008
33.96
33.913
33.867
33.821
33.776
33.73
33.684
33.638
33.593
33.548
33.505
33.466
33.433
33.409
33.396
33.398
33.417
33.456
33.52
33.61
33.728
33.878
34.058
34.27
34.51
34.777
35.067
35.375
35.697
36.027
36.361
36.694
37.02
37.335
37.635
37.913
38.168
38.396
38.596
38.769
38.913
39.032
39.125
39.196
39.245
39.273
39.283
39.274
39.251
39.215
39.167
39.11
39.044
38.972
38.896
38.814
38.729
38.639
38.546
38.451
38.354
38.257
38.16
38.063
37.967
37.873
37.78
37.688
37.597
37.505
37.412
37.319
37.224
37.129
37.035
36.942
36.851
36.762
36.674
36.59
36.509
36.431
36.359
36.292
36.231
36.176
36.128
36.086
36.051
36.024
36.003
35.987
35.976
35.968
35.962
35.958
35.954
35.952
35.952
35.954
35.958
35.963
35.969
35.976
35.983
35.989
35.994
35.998
35.999
35.997
35.991
35.98
35.966
35.947
35.924
35.898
35.87
35.84
35.809
35.776
35.743
35.707
35.669
35.629
35.588
35.545
35.502
35.457
35.411
35.362
35.311
35.256
35.198
35.137
35.074
35.011
34.947
34.883
34.819
34.757
34.695
34.634
34.574
34.516
34.457
34.399
34.342
34.288
34.236
34.186
34.137
34.091
34.045
34.0
33.955
33.908
33.859
33.809
33.757
33.704
33.652
33.601
33.551
33.504
33.46
33.422
33.39
33.368
33.356
33.359
33.378
33.417
33.477
33.562
33.674
33.815
33.986
34.186
34.414
34.668
34.947
35.245
35.559
35.884
36.214
36.544
36.869
37.183
37.481
37.759
38.015
38.245
38.448
38.622
38.768
38.886
38.978
39.047
39.093
39.119
39.127
39.119
39.097
39.062
39.017
38.963
38.904
38.839
38.77
38.698
38.621
38.541
38.456
38.367
38.275
38.18
38.084
37.986
37.887
37.786
37.684
37.58
37.475
37.367
37.26
37.152
37.046
36.941
36.838
36.738
36.641
36.548
36.46
36.378
36.302
36.234
36.173
36.12
36.075
36.036
36.004
35.979
35.961
35.95
35.944
35.944
35.947
35.954
35.962
35.971
35.98
35.99
36.001
36.011
36.022
36.033
36.043
36.052
36.057
36.06
36.058
36.053
36.043
36.028
36.008
35.985
35.958
35.927
35.892
35.854
35.814
35.773
35.731
35.689
35.646
35.603
35.559
35.512
35.462
35.409
35.354
35.299
35.243
35.188
35.133
35.08
35.028
34.977
34.927
34.878
34.83
34.783
34.736
34.688
34.641
34.594
34.546
34.498
34.45
34.401
34.352
34.302
34.252
34.203
34.154
34.108
34.064
34.022
33.984
33.95
33.918
33.887
33.857
33.827
33.795
33.761
33.724
33.685
33.645
33.605
33.565
33.528
33.498
33.476
33.466
33.47
33.492
33.536
33.605
33.704
33.834
33.996
34.191
34.417
34.671
34.95
35.249
35.564
35.892
36.226
36.56
36.889
37.208
37.511
37.794
38.054
38.287
38.492
38.671
38.821
38.944
39.042
39.114
39.164
39.193
39.201
39.191
39.165
39.125
39.074
39.012
38.943
38.868
38.788
38.704
38.617
38.528
38.434
38.336
38.236
38.132
38.025
37.916
37.805
37.693
37.579
37.464
37.347
37.231
37.114
36.997
36.882
36.768
36.657
36.547
36.441
36.338
36.238
36.142
36.05
35.963
35.882
35.807
35.739
35.68
35.628
35.585
35.549
35.521
35.501
35.488
35.481
35.479
35.483
35.49
35.499
35.508
35.516
35.524
35.531
35.537
35.543
35.548
35.553
35.558
35.561
35.563
35.562
35.561
35.556
35.55
35.539
35.525
35.507
35.483
35.455
35.421
35.383
35.342
35.298
35.251
35.204
35.156
35.109
35.064
35.021
34.979
34.938
34.898
34.858
34.816
34.773
34.728
34.681
34.632
34.58
34.526
34.471
34.414
34.356
34.298
34.24
34.182
34.125
34.066
34.007
33.948
33.89
33.831
33.773
33.714
33.657
33.601
33.546
33.492
33.442
33.395
33.35
33.309
33.27
33.232
33.195
33.156
33.117
33.077
33.039
33.004
32.975
32.954
32.944
32.948
32.968
33.007
33.07
33.157
33.272
33.415
33.587
33.789
34.019
34.277
34.558
34.86
35.179
35.51
35.848
36.186
36.521
36.846
37.159
37.454
37.728
37.98
38.206
38.406
38.579
38.724
38.842
38.932
38.997
39.038
39.056
39.055
39.037
39.005
38.962
38.91
38.851
38.786
38.717
38.643
38.565
38.484
38.399
38.311
38.219
38.125
38.027
37.924
37.817
37.705
37.589
37.471
37.35
37.229
37.109
36.991
36.877
36.766
36.659
36.557
36.46
36.369
36.283
36.201
36.124
36.052
35.983
35.918
35.856
35.799
35.747
35.7
35.66
35.626
35.599
35.578
35.562
35.552
35.546
35.544
35.546
35.551
35.558
35.567
35.576
35.583
35.589
35.594
35.596
35.598
35.599
35.599
35.599
35.597
35.595
35.591
35.585
35.577
35.566
35.552
35.536
35.515
35.489
35.458
35.424
35.386
35.346
35.305
35.264
35.222
35.181
35.14
35.1
35.059
35.019
34.979
34.938
34.896
34.852
34.806
34.757
34.706
34.653
34.6
34.547
34.494
34.441
34.388
34.335
34.28
34.222
34.161
34.099
34.036
33.973
33.91
33.848
33.788
33.729
33.672
33.617
33.565
33.516
33.469
33.424
33.38
33.336
33.292
33.249
33.205
33.161
33.119
33.08
33.044
33.014
32.99
32.976
32.973
32.985
33.015
33.066
33.142
33.244
33.374
33.533
33.723
33.941
34.188
34.46
34.754
35.067
35.394
35.73
36.067
36.402
36.729
37.043
37.339
37.614
37.865
38.089
38.285
38.454
38.595
38.708
38.795
38.86
38.903
38.928
38.936
38.93
38.912
38.882
38.842
38.792
38.734
38.669
38.598
38.521
38.437
38.349
38.255
38.157
38.055
37.95
37.841
37.732
37.623
37.515
37.409
37.307
37.209
37.114
37.022
36.931
36.841
36.75
36.661
36.571
36.481
36.392
36.305
36.22
36.137
36.057
35.982
35.912
35.848
35.792
35.742
35.701
35.667
35.64
35.619
35.605
35.595
35.592
35.593
35.598
35.606
35.615
35.624
35.634
35.643
35.651
35.658
35.665
35.671
35.675
35.677
35.677
35.675
35.671
35.665
35.656
35.645
35.631
35.615
35.596
35.575
35.551
35.526
35.499
35.471
35.441
35.41
35.375
35.338
35.297
35.254
35.208
35.161
35.113
35.064
35.015
34.965
34.914
34.861
34.806
34.751
34.695
34.638
34.582
34.526
34.47
34.414
34.357
34.3
34.244
34.188
34.132
34.077
34.021
33.966
33.911
33.856
33.8
33.743
33.685
33.628
33.57
33.513
33.456
33.399
33.344
33.291
33.242
33.197
33.157
33.124
33.101
33.09
33.095
33.118
33.162
33.228
33.32
33.44
33.589
33.767
33.972
34.204
34.462
34.742
35.041
35.353
35.674
36.0
36.325
36.643
36.949
37.241
37.514
37.766
37.993
38.194
38.366
38.51
38.627
38.718
38.786
38.832
38.859
38.871
38.869
38.855
38.829
38.793
38.749
38.697
38.638
38.574
38.506
38.434
38.359
38.28
38.198
38.111
38.021
37.928
37.835
37.74
37.646
37.552
37.46
37.368
37.276
37.184
37.092
36.998
36.903
36.807
36.708
36.609
36.508
36.408
36.31
36.213
36.122
36.035
35.956
35.883
35.818
35.762
35.715
35.677
35.648
35.626
35.612
35.604
35.602
35.603
35.607
35.613
35.62
35.626
35.631
35.635
35.637
35.637
35.636
35.633
35.628
35.623
35.616
35.608
35.598
35.585
35.569
35.552
35.531
35.507
35.48
35.449
35.417
35.382
35.346
35.308
35.27
35.231
35.192
35.152
35.111
35.069
35.026
34.98
34.933
34.884
34.834
34.783
34.731
34.678
34.624
34.57
34.515
34.459
34.402
34.343
34.282
34.219
34.155
34.09
34.025
33.961
33.898
33.837
33.778
33.721
33.665
33.611
33.559
33.508
33.457
33.406
33.354
33.301
33.248
33.195
33.143
33.094
33.047
33.002
32.961
32.923
32.892
32.87
32.86
32.865
32.89
32.938
33.01
33.11
33.238
33.397
33.587
33.806
34.054
34.327
34.622
34.933
35.257
35.586
35.917
36.245
36.566
36.876
37.171
37.448
37.702
37.933
38.139
38.319
38.475
38.607
38.718
38.809
38.88
38.931
38.965
38.981
38.981
38.967
38.938
38.896
38.841
38.776
38.703
38.622
38.537
38.448
38.358
38.268
38.179
38.089
37.999
37.91
37.823
37.736
37.65
37.562
37.472
37.379
37.281
37.179
37.072
36.963
36.853
36.743
36.635
36.531
36.43
36.336
36.246
36.162
36.082
36.007
35.939
35.876
35.818
35.764
35.715
35.67
35.628
35.589
35.553
35.52
35.493
35.469
35.45
35.434
35.423
35.416
35.411
35.408
35.407
35.405
35.404
35.401
35.395
35.385
35.372
35.356
35.336
35.312
35.285
35.255
35.223
35.19
35.156
35.122
35.087
35.054
35.021
34.987
34.953
34.917
34.881
34.842
34.802
34.762
34.721
34.681
34.64
34.6
34.558
34.517
34.474
34.43
34.384
34.336
34.285
34.232
34.176
34.119
34.059
33.999
33.938
33.877
33.819
33.762
33.709
33.658
33.61
33.563
33.519
33.475
33.434
33.394
33.356
33.32
33.285
33.25
33.216
33.182
33.146
33.109
33.069
33.028
32.984
32.937
32.89
32.845
32.805
32.772
32.749
32.74
32.748
32.774
32.823
32.898
33.0
33.131
33.294
33.486
33.708
33.959
34.235
34.533
34.849
35.178
35.517
35.861
36.205
36.546
36.877
37.195
37.494
37.771
38.022
38.246
38.442
38.609
38.749
38.86
38.945
39.005
39.043
39.061
39.063
39.052
39.029
38.997
38.958
38.915
38.866
38.813
38.756
38.696
38.631
38.56
38.484
38.403
38.318
38.228
38.133
38.033
37.931
37.826
37.719
37.611
37.502
37.394
37.287
37.184
37.083
36.983
36.886
36.792
36.701
36.612
36.526
36.442
36.362
36.286
36.214
36.146
36.083
36.026
35.975
35.931
35.892
35.86
35.833
35.812
35.794
35.78
35.768
35.757
35.747
35.738
35.728
35.719
35.709
35.698
35.687
35.675
35.662
35.65
35.639
35.627
35.615
35.602
35.588
35.57
35.549
35.524
35.495
35.462
35.424
35.38
35.332
35.28
35.224
35.167
35.109
35.052
34.994
34.937
34.88
34.823
34.765
34.706
34.646
34.586
34.525
34.466
34.407
34.35
34.295
34.243
34.191
34.141
34.091
34.041
33.991
33.939
33.887
33.832
33.777
33.72
33.662
33.605
33.548
33.493
33.44
33.388
33.338
33.288
33.24
33.192
33.145
33.098
33.05
33.003
32.955
32.908
32.861
32.816
32.772
32.73
32.688
32.649
32.612
32.577
32.545
32.52
32.501
32.492
32.495
32.514
32.554
32.617
32.708
32.829
32.98
33.163
33.376
33.615
33.879
34.165
34.469
34.789
35.119
35.457
35.798
36.138
36.471
36.793
37.101
37.39
37.659
37.904
38.124
38.318
38.486
38.627
38.74
38.827
38.889
38.927
38.944
38.943
38.926
38.893
38.848
38.794
38.734
38.668
38.598
38.526
38.452
38.379
38.305
38.232
38.158
38.085
38.011
37.935
37.857
37.774
37.686
37.594
37.497
37.395
37.29
37.183
37.073
36.963
36.854
36.747
36.644
36.546
36.452
36.363
36.278
36.198
36.122
36.05
35.981
35.917
35.859
35.808
35.765
35.729
35.702
35.683
35.672
35.668
35.669
35.676
35.686
35.699
35.713
35.727
35.741
35.753
35.765
35.776
35.785
35.794
35.802
35.807
35.81
35.809
35.805
35.798
35.787
35.773
35.757
35.738
35.716
35.693
35.666
35.636
35.604
35.57
35.535
35.497
35.457
35.416
35.373
35.328
35.28
35.23
35.179
35.126
35.071
35.014
34.957
34.898
34.838
34.777
34.717
34.656
34.597
34.538
34.481
34.424
34.365
34.302
34.236
34.165
34.091
34.015
33.937
33.858
33.779
33.702
33.626
33.551
33.48
33.411
33.345
33.283
33.222
33.163
33.108
33.056
33.008
32.966
32.93
32.903
32.886
32.881
32.891
32.917
32.964
33.033
33.128
33.249
33.398
33.574
33.779
34.011
34.267
34.544
34.84
35.149
35.467
35.789
36.111
36.427
36.733
37.024
37.298
37.552
37.784
37.994
38.179
38.339
38.474
38.584
38.67
38.732
38.772
38.793
38.797
38.786
38.763
38.729
38.685
38.634
38.576
38.513
38.445
38.372
38.296
38.215
38.131
38.044
37.952
37.859
37.763
37.666
37.567
37.467
37.366
37.264
37.162
37.06
36.959
36.86
36.762
36.667
36.573
36.481
36.391
36.302
36.217
36.135
36.055
35.98
35.907
35.838
35.772
35.71
35.653
35.602
35.556
35.516
35.481
35.451
35.427
35.406
35.388
35.372
35.357
35.344
35.33
35.315
35.298
35.278
35.255
35.229
35.202
35.174
35.146
35.118
35.092
35.065
35.039
35.013
34.987
34.961
34.933
34.904
34.873
34.84
34.804
34.764
34.721
34.677
34.631
34.584
34.536
34.489
34.443
34.397
34.351
34.302
34.254
34.205
34.157
34.11
34.065
34.023
33.983
33.945
33.908
33.872
33.836
33.8
33.761
33.722
33.68
33.637
33.592
33.544
33.495
33.445
33.394
33.343
33.291
33.241
33.191
33.142
33.094
33.047
33.0
32.953
32.906
32.858
32.809
32.761
32.715
32.67
32.629
32.593
32.564
32.545
32.539
32.549
32.578
32.63
32.708
32.815
32.953
33.123
33.325
33.557
33.818
34.105
34.415
34.743
35.082
35.428
35.775
36.117
36.451
36.77
37.071
37.352
37.61
37.844
38.053
38.236
38.394
38.527
38.638
38.725
38.791
38.836
38.865
38.878
38.879
38.869
38.85
38.821
38.785
38.741
38.688
38.628
38.562
38.49
38.415
38.337
38.256
38.174
38.091
38.009
37.926
37.845
37.765
37.686
37.609
37.533
37.456
37.377
37.297
37.215
37.13
37.042
36.953
36.863
36.772
36.682
36.591
36.502
36.417
36.337
36.263
36.195
36.135
36.082
36.037
35.997
35.964
35.935
35.91
35.888
35.87
35.855
35.843
35.833
35.826
35.821
35.816
35.811
35.806
35.8
35.793
35.783
35.77
35.753
35.733
35.71
35.683
35.652
35.62
35.587
35.551
35.513
35.475
35.435
35.395
35.354
35.312
35.27
35.228
35.187
35.144
35.1
35.055
35.007
34.958
34.907
34.853
34.796
34.739
34.681
34.622
34.563
34.505
34.448
34.392
34.337
34.283
34.231
34.179
34.128
34.077
34.026
33.976
33.926
33.877
33.827
33.777
33.726
33.674
33.619
33.564
33.507
33.451
33.394
33.339
33.285
33.233
33.183
33.135
33.09
33.049
33.01
32.975
32.941
32.909
32.878
32.848
32.82
32.793
32.769
32.751
32.742
32.746
32.766
32.807
32.874
32.97
33.098
33.257
33.449
33.672
33.923
34.201
34.502
34.821
35.156
35.5
35.85
36.199
36.542
36.875
37.193
37.491
37.766
38.016
