Trial 3:3back
34.571
34.587
34.599
34.604
34.602
34.591
34.571
34.543
34.509
34.467
34.421
34.37
34.317
34.265
34.213
34.164
34.118
34.076
34.039
34.009
33.984
33.967
33.956
33.949
33.946
33.944
33.943
33.94
33.935
33.928
33.917
33.904
33.889
33.871
33.851
33.83
33.809
33.789
33.769
33.751
33.736
33.725
33.721
33.725
33.741
33.77
33.814
33.875
33.951
34.043
34.151
34.272
34.406
34.551
34.707
34.872
35.042
35.214
35.384
35.55
35.71
35.863
36.008
36.143
36.271
36.39
36.5
36.602
36.695
36.779
36.854
36.921
36.978
37.026
37.067
37.1
37.126
37.147
37.162
37.173
37.179
37.182
37.183
37.182
37.18
37.178
37.177
37.177
37.176
37.176
37.175
37.174
37.172
37.169
37.164
37.158
37.15
37.137
37.118
37.093
37.062
37.027
36.99
36.952
36.913
36.876
36.838
36.801
36.764
36.726
36.689
36.653
36.618
36.586
36.558
36.535
36.516
36.502
36.492
36.487
36.485
36.487
36.491
36.496
36.501
36.506
36.509
36.509
36.506
36.5
36.489
36.474
36.456
36.435
36.413
36.389
36.366
36.342
36.318
36.294
36.27
36.246
36.22
36.193
36.165
36.133
36.098
36.059
36.014
35.964
35.912
35.858
35.804
35.753
35.706
35.664
35.627
35.595
35.566
35.541
35.517
35.493
35.468
35.442
35.413
35.381
35.348
35.313
35.277
35.242
35.208
35.174
35.14
35.109
35.079
35.051
35.026
35.004
34.985
34.968
34.953
34.939
34.925
34.91
34.893
34.875
34.855
34.832
34.807
34.78
34.751
34.721
34.69
34.659
34.628
34.597
34.568
34.541
34.517
34.496
34.479
34.465
34.454
34.444
34.434
34.424
34.414
34.402
34.39
34.376
34.359
34.341
34.321
34.299
34.275
34.252
34.228
34.207
34.187
34.169
34.154
34.142
34.133
34.125
34.119
34.113
34.107
34.099
34.089
34.077
34.062
34.045
34.026
34.006
33.984
33.96
33.935
33.909
33.881
33.853
33.825
33.798
33.773
33.749
33.724
33.695
33.664
33.63
33.595
33.563
33.533
33.507
33.487
33.474
33.467
33.468
33.475
33.488
33.507
33.532
33.561
33.597
33.638
33.686
33.743
33.812
33.894
33.99
34.1
34.225
34.363
34.514
34.676
34.846
35.024
35.205
35.387
35.569
35.748
35.922
36.09
36.25
36.401
36.543
36.674
36.795
36.905
37.004
37.094
37.172
37.241
37.301
37.355
37.403
37.447
37.488
37.528
37.565
37.602
37.636
37.669
37.698
37.726
37.751
37.773
37.792
37.808
37.82
37.83
37.836
37.838
37.837
37.832
37.825
37.816
37.804
37.791
37.776
37.758
37.738
37.716
37.692
37.665
37.637
37.606
37.572
37.536
37.498
37.457
37.416
37.376
37.337
37.3
37.265
37.233
37.203
37.176
37.15
37.125
37.101
37.076
37.046
37.01
36.97
36.928
36.887
36.849
36.817
36.792
36.775
36.767
36.768
36.777
36.792
36.811
36.831
36.85
36.866
36.875
36.876
36.87
36.855
36.832
36.804
36.769
36.731
36.688
36.643
36.596
36.547
36.497
36.447
36.397
36.347
36.297
36.247
36.197
36.147
36.096
36.047
35.999
35.953
35.91
35.87
35.834
35.802
35.771
35.743
35.714
35.686
35.656
35.625
35.593
35.559
35.524
35.487
35.45
35.413
35.377
35.341
35.305
35.272
35.24
35.212
35.187
35.164
35.144
35.127
35.111
35.096
35.08
35.063
35.044
35.022
34.997
34.97
34.941
34.911
34.878
34.844
34.809
34.773
34.738
34.703
34.669
34.637
34.607
34.579
34.553
34.528
34.506
34.485
34.464
34.443
34.421
34.397
34.374
34.35
34.326
34.304
34.287
34.276
34.268
34.262
34.257
34.249
34.239
34.225
34.207
34.186
34.161
34.133
34.104
34.072
34.04
34.006
33.973
33.938
33.904
33.869
33.835
33.803
33.773
33.746
33.722
33.7
33.681
33.663
33.646
33.63
33.614
33.599
33.586
33.576
33.568
33.563
33.561
33.562
33.565
33.572
33.583
33.597
33.618
33.647
33.687
33.739
33.807
33.889
33.987
34.1
34.229
34.372
34.528
34.697
34.878
35.068
35.266
35.469
35.673
35.876
36.075
36.266
36.447
36.616
36.771
36.911
37.036
37.146
37.242
37.323
37.391
37.448
37.497
37.54
37.578
37.613
37.646
37.676
37.704
37.728
37.749
37.766
37.779
37.788
37.794
37.798
37.799
37.8
37.8
37.799
37.799
37.799
37.801
37.803
37.806
37.808
37.809
37.806
37.8
37.788
37.769
37.743
37.71
37.671
37.629
37.585
37.54
37.495
37.451
37.409
37.37
37.333
37.298
37.266
37.235
37.205
37.175
37.145
37.115
37.085
37.056
37.027
36.999
36.972
36.946
36.921
36.897
36.873
36.848
36.821
36.793
36.762
36.73
36.695
36.66
36.623
36.586
36.548
36.511
36.473
36.436
36.4
36.365
36.331
36.299
36.268
36.238
36.209
36.18
36.151
36.123
36.094
36.066
36.038
36.01
35.983
35.956
35.928
35.9
35.871
35.841
35.809
35.775
35.741
35.705
35.669
35.633
35.596
35.559
35.521
35.483
35.444
35.405
35.366
35.328
35.292
35.257
35.225
35.194
35.166
35.139
35.115
35.092
35.071
35.05
35.03
35.011
34.991
34.971
34.952
34.931
34.911
34.89
34.868
34.846
34.823
34.799
34.774
34.749
34.724
34.699
34.673
34.647
34.621
34.595
34.57
34.545
34.521
34.497
34.475
34.454
34.432
34.41
34.387
34.361
34.333
34.303
34.272
34.239
34.206
34.173
34.141
34.111
34.084
34.058
34.034
34.011
33.991
33.972
33.956
33.942
33.93
33.92
33.911
33.904
33.897
33.888
33.877
33.863
33.847
33.828
33.806
33.782
33.757
33.73
33.702
33.675
33.648
33.623
33.601
33.581
33.566
33.553
33.544
33.537
33.531
33.526
33.521
33.515
33.508
33.502
33.497
33.497
33.503
33.521
33.551
33.599
33.664
33.75
33.856
33.982
34.126
34.286
34.459
34.643
34.836
35.035
35.238
35.442
35.643
35.839
36.026
36.204
36.369
36.522
36.661
36.786
36.899
36.998
37.086
37.163
37.229
37.286
37.335
37.376
37.412
37.442
37.467
37.489
37.507
37.522
37.533
37.541
37.544
37.545
37.542
37.537
37.529
37.519
37.507
37.493
37.479
37.465
37.453
37.441
37.432
37.425
37.418
37.411
37.403
37.392
37.38
37.365
37.348
37.329
37.308
37.285
37.26
37.234
37.207
37.178
37.149
37.121
37.094
37.067
37.041
37.016
36.991
36.966
36.941
36.916
36.893
36.869
36.847
36.827
36.808
36.791
36.774
36.757
36.738
36.719
36.697
36.674
36.649
36.624
36.597
36.57
36.543
36.516
36.488
36.461
36.433
36.405
36.377
36.35
36.325
36.301
36.279
36.258
36.237
36.214
36.189
36.161
36.13
36.096
36.057
36.016
35.972
35.926
35.879
35.833
35.787
35.743
35.701
35.661
35.624
35.589
35.556
35.526
35.497
35.468
35.44
35.412
35.384
35.355
35.326
35.297
35.268
35.239
35.21
35.181
35.151
35.122
35.093
35.064
35.035
35.008
34.98
34.953
34.926
34.898
34.869
34.84
34.81
34.78
34.752
34.724
34.698
34.673
34.649
34.625
34.601
34.577
34.553
34.528
34.504
34.48
34.456
34.433
34.409
34.386
34.361
34.335
34.307
34.277
34.244
34.208
34.171
34.134
34.096
34.06
34.025
33.993
33.961
33.93
33.901
33.874
33.849
33.827
33.807
33.79
33.777
33.767
33.76
33.754
33.751
33.747
33.744
33.738
33.731
33.721
33.709
33.694
33.679
33.663
33.648
33.634
33.622
33.614
33.611
33.616
33.63
33.657
33.699
33.756
33.831
33.925
34.036
34.166
34.313
34.475
34.65
34.835
35.03
35.23
35.434
35.639
35.84
36.037
36.225
36.405
36.578
36.747
36.911
37.068
37.215
37.35
37.469
37.571
37.653
37.717
37.762
37.792
37.809
37.813
37.809
37.797
37.779
37.758
37.734
37.709
37.686
37.666
37.649
37.636
37.627
37.62
37.617
37.616
37.618
37.622
37.627
37.634
37.64
37.647
37.651
37.653
37.651
37.644
37.632
37.615
37.592
37.565
37.533
37.496
37.454
37.408
37.359
37.307
37.253
37.199
37.145
37.092
37.041
36.991
36.941
36.892
36.845
36.8
36.759
36.721
36.688
36.659
36.634
36.612
36.595
36.58
36.567
36.557
36.55
36.545
36.542
36.54
36.537
36.532
36.523
36.511
36.494
36.472
36.446
36.416
36.384
36.35
36.315
36.28
36.245
36.211
36.178
36.146
36.115
36.086
36.057
36.028
35.999
35.969
35.938
35.905
35.869
35.83
35.788
35.743
35.696
35.648
35.599
35.551
35.503
35.456
35.409
35.363
35.319
35.277
35.238
35.201
35.167
35.135
35.104
35.076
35.048
35.02
34.992
34.962
34.932
34.902
34.872
34.842
34.814
34.788
34.764
34.741
34.72
34.701
34.684
34.667
34.652
34.637
34.623
34.608
34.592
34.575
34.557
34.538
34.517
34.494
34.47
34.445
34.419
34.393
34.365
34.337
34.308
34.278
34.249
34.221
34.194
34.17
34.147
34.127
34.109
34.093
34.081
34.069
34.059
34.048
34.036
34.023
34.009
33.992
33.974
33.956
33.937
33.917
33.897
33.876
33.854
33.831
33.808
33.784
33.759
33.734
33.709
33.684
33.661
33.637
33.614
33.591
33.568
33.547
33.527
33.51
33.499
33.497
33.506
33.528
33.568
33.625
33.702
33.799
33.915
34.051
34.204
34.374
34.559
34.756
34.963
35.175
35.388
35.599
35.804
36.002
36.191
36.37
36.538
36.695
36.841
36.974
37.096
37.206
37.305
37.395
37.475
37.546
37.611
37.668
37.719
37.763
37.801
37.831
37.856
37.874
37.888
37.898
37.905
37.91
37.913
37.916
37.918
37.921
37.923
37.926
37.93
37.934
37.938
37.94
37.94
37.937
37.933
37.926
37.916
37.904
37.889
37.871
37.849
37.821
37.787
37.747
37.7
37.647
37.59
37.529
37.467
37.405
37.343
37.284
37.227
37.173
37.124
37.079
37.039
37.003
36.972
36.945
36.921
36.9
36.881
36.865
36.85
36.837
36.824
36.813
36.801
36.79
36.779
36.767
36.753
36.737
36.719
36.698
36.674
36.647
36.618
36.586
36.551
36.514
36.474
36.433
36.389
36.344
36.299
36.254
36.209
36.165
36.121
36.077
36.033
35.989
35.946
35.904
35.862
35.82
35.779
35.737
35.695
35.653
35.611
35.569
35.528
35.488
35.45
35.414
35.379
35.346
35.315
35.286
35.258
35.231
35.206
35.181
35.158
35.135
35.113
35.091
35.068
35.043
35.018
34.992
34.965
34.937
34.909
34.881
34.853
34.826
34.799
34.771
34.744
34.718
34.692
34.668
34.645
34.625
34.606
34.59
34.575
34.561
34.546
34.53
34.513
34.494
34.476
34.457
34.439
34.422
34.405
34.388
34.37
34.352
34.332
34.312
34.29
34.268
34.243
34.217
34.189
34.16
34.13
34.098
34.066
34.033
34.0
33.968
33.937
33.909
33.882
33.859
33.838
33.82
33.803
33.789
33.774
33.76
33.746
33.733
33.722
33.714
33.711
33.714
33.726
33.749
33.782
33.829
33.889
33.965
34.057
34.166
34.291
34.432
34.588
34.758
34.939
35.13
35.328
35.529
35.732
35.933
36.13
36.32
36.5
36.67
36.827
36.97
37.098
37.211
37.309
37.394
37.467
37.53
37.582
37.627
37.664
37.696
37.722
37.744
37.762
37.776
37.787
37.795
37.799
37.799
37.796
37.79
37.782
37.772
37.761
37.75
37.739
37.726
37.712
37.695
37.677
37.657
37.636
37.615
37.59
37.564
37.535
37.503
37.467
37.427
37.383
37.336
37.285
37.233
37.179
37.125
37.071
37.017
36.963
36.911
36.86
36.813
36.769
36.731
36.698
36.671
36.65
36.635
36.624
36.616
36.611
36.608
36.605
36.603
36.599
36.593
36.585
36.574
36.56
36.543
36.523
36.5
36.477
36.451
36.423
36.392
36.359
36.323
36.284
36.243
36.201
36.159
36.116
36.074
36.033
35.992
35.953
35.914
35.873
35.832
35.789
35.744
35.699
35.654
35.609
35.564
35.52
35.477
35.434
35.392
35.35
35.309
35.269
35.229
35.189
35.149
35.109
35.068
35.028
34.989
34.951
34.916
34.885
34.856
34.83
34.806
34.784
34.763
34.742
34.72
34.696
34.671
34.644
34.617
34.589
34.562
34.535
34.51
34.487
34.467
34.451
34.438
34.428
34.42
34.413
34.406
34.399
34.389
34.377
34.361
34.342
34.318
34.291
34.26
34.227
34.192
34.157
34.121
34.085
34.05
34.016
33.983
33.951
33.92
33.89
33.862
33.836
33.813
33.793
33.776
33.761
33.749
33.738
33.727
33.716
33.704
33.691
33.676
33.658
33.639
33.617
33.593
33.569
33.545
33.522
33.499
33.477
33.456
33.436
33.419
33.404
33.394
33.39
33.394
33.408
33.432
33.469
33.52
33.587
33.671
33.773
33.893
34.032
34.189
34.363
34.553
34.755
34.968
35.189
35.413
35.639
35.863
36.084
36.299
36.506
36.703
36.888
37.059
37.217
37.36
37.488
37.601
37.701
37.788
37.862
37.926
37.98
38.026
38.064
38.097
38.124
38.146
38.163
38.176
38.185
38.189
38.191
38.189
38.186
38.18
38.173
38.164
38.153
38.14
38.127
38.114
38.102
38.09
38.08
38.07
38.061
38.052
38.043
38.033
38.022
38.008
37.991
37.971
37.946
37.917
37.883
37.844
37.8
37.752
37.7
37.646
37.589
37.532
37.475
37.418
37.362
37.307
37.255
37.207
37.161
37.119
37.081
37.046
37.013
36.984
36.958
36.934
36.912
36.893
36.877
36.865
36.854
36.844
36.834
36.822
36.807
36.788
36.767
36.744
36.718
36.69
36.658
36.623
36.584
36.542
36.496
36.446
36.394
36.339
36.282
36.225
36.167
36.109
36.051
35.994
35.939
35.885
35.833
35.783
35.733
35.685
35.636
35.588
35.541
35.495
35.451
35.408
35.366
35.325
35.286
35.249
35.212
35.176
35.141
35.106
35.071
35.037
35.003
34.97
34.938
34.909
34.884
34.868
34.861
34.862
34.869
34.879
34.888
34.895
34.896
34.892
34.88
34.862
34.835
34.802
34.762
34.717
34.669
34.618
34.566
34.514
34.462
34.412
34.366
34.322
34.283
34.247
34.215
34.186
34.16
34.137
34.115
34.094
34.074
34.054
34.033
34.011
33.989
33.966
33.942
33.917
33.892
33.866
33.84
33.812
33.785
33.757
33.729
33.701
33.675
33.651
33.628
33.607
33.588
33.569
33.55
33.531
33.511
33.491
33.471
33.45
33.429
33.406
33.383
33.359
33.337
33.315
33.294
33.276
33.26
33.247
33.239
33.235
33.237
33.245
33.263
33.292
33.335
33.393
33.469
33.565
33.68
33.815
33.969
34.139
34.323
34.519
34.724
34.936
35.153
35.372
35.589
35.803
36.01
36.211
36.402
36.584
36.756
36.916
37.065
37.201
37.324
37.435
37.534
37.621
37.696
37.76
37.814
37.859
37.895
37.922
37.942
37.956
37.963
37.966
37.964
37.96
37.953
37.944
37.933
37.921
37.908
37.897
37.887
37.881
37.878
37.879
37.882
37.886
37.891
37.894
37.897
37.897
37.894
37.886
37.874
37.856
37.833
37.804
37.772
37.736
37.698
37.657
37.613
37.569
37.522
37.475
37.425
37.373
37.319
37.265
37.209
37.153
37.096
37.04
36.984
36.928
36.874
36.823
36.775
36.733
36.695
36.663
36.635
36.611
36.59
36.57
36.55
36.53
36.508
36.486
36.462
36.437
36.41
36.38
36.349
36.315
36.28
36.242
36.203
36.163
36.122
36.081
36.04
35.999
35.958
35.916
35.874
35.831
35.787
35.742
35.698
35.654
35.611
35.568
35.524
35.48
35.434
35.388
35.34
35.291
35.242
35.195
35.148
35.104
35.062
35.021
34.982
34.945
34.907
34.87
34.832
34.795
34.758
34.723
34.689
34.656
34.625
34.594
34.563
34.532
34.501
34.47
34.439
34.409
34.38
34.352
34.325
34.299
34.273
34.249
34.228
34.208
34.191
34.176
34.163
34.151
34.141
34.131
34.121
34.109
34.094
34.077
34.058
34.038
34.015
33.992
33.967
33.942
33.915
33.888
33.86
33.832
33.806
33.782
33.762
33.745
33.732
33.721
33.711
33.703
33.695
33.687
33.679
33.668
33.657
33.643
33.628
33.612
33.594
33.573
33.549
33.523
33.495
33.465
33.434
33.402
33.371
33.341
33.313
33.287
33.262
33.239
33.216
33.194
33.172
33.149
33.126
33.102
33.078
33.054
33.032
33.011
32.992
32.977
32.965
32.958
32.956
32.96
32.97
32.988
33.018
33.062
33.126
33.213
33.322
33.456
33.613
33.792
33.989
34.202
34.426
34.657
34.891
35.124
35.353
35.573
35.782
35.978
36.16
36.328
36.482
36.622
36.748
36.861
36.962
37.051
37.127
37.192
37.246
37.29
37.326
37.354
37.376
37.393
37.407
37.418
37.426
37.433
37.439
37.444
37.447
37.449
37.451
37.45
37.448
37.444
37.439
37.432
37.423
37.414
37.404
37.395
37.384
37.37
37.353
37.333
37.31
37.284
37.254
37.221
37.186
37.148
37.107
37.064
37.02
36.975
36.93
36.886
36.845
36.806
36.769
36.736
36.705
36.677
36.652
36.628
36.606
36.586
36.566
36.546
36.526
36.504
36.481
36.457
36.433
36.409
36.386
36.365
36.345
36.327
36.309
36.292
36.274
36.254
36.23
36.204
36.173
36.139
36.102
36.063
36.025
35.987
35.949
35.913
35.877
35.841
35.804
35.767
35.729
35.689
35.649
35.607
35.565
35.521
35.476
35.429
35.38
35.329
35.277
35.225
35.172
35.119
35.068
35.017
34.968
34.92
34.875
34.833
34.795
34.762
34.734
34.71
34.689
34.671
34.654
34.638
34.621
34.604
34.587
34.569
34.553
34.536
34.518
34.501
34.484
34.466
34.449
34.431
34.412
34.393
34.375
34.358
34.342
34.327
34.312
34.296
34.279
34.261
34.24
34.218
34.195
34.172
34.15
34.127
34.106
34.085
34.065
34.046
34.028
34.012
33.998
33.985
33.974
33.966
33.959
33.954
33.949
33.943
33.936
33.927
33.915
33.9
33.881
33.858
33.832
33.803
33.772
33.74
33.708
33.675
33.642
33.611
33.58
33.55
33.522
33.495
33.469
33.446
33.424
33.403
33.383
33.364
33.347
33.33
33.314
33.3
33.287
33.277
33.271
33.271
33.278
33.294
33.323
33.365
33.425
33.503
33.602
33.723
33.865
34.027
34.206
34.4
34.605
34.817
35.032
35.246
35.456
35.66
35.855
36.039
36.213
36.375
36.524
36.661
36.785
36.896
36.995
37.083
37.161
37.229
37.288
37.34
37.384
37.421
37.451
37.475
37.493
37.507
37.516
37.52
37.521
37.52
37.516
37.511
37.505
37.498
37.491
37.484
37.476
37.467
37.457
37.445
37.431
37.414
37.394
37.369
37.339
37.305
37.267
37.226
37.181
37.133
37.084
37.033
36.98
36.927
36.874
36.821
36.769
36.719
36.672
36.628
36.59
36.556
36.529
36.507
36.491
36.479
36.47
36.464
36.459
36.454
36.449
36.442
36.434
36.422
36.404
36.376
36.34
36.298
36.251
36.202
36.152
36.105
36.062
36.024
35.993
35.969
35.949
35.934
35.92
35.908
35.894
35.878
35.858
35.834
35.805
35.771
35.732
35.688
35.64
35.588
35.534
35.478
35.421
35.363
35.306
35.249
35.193
35.138
35.085
35.033
34.983
34.935
34.889
34.845
34.804
34.765
34.728
34.693
34.66
34.628
34.598
34.568
34.54
34.513
34.487
34.463
34.442
34.423
34.407
34.395
34.386
34.378
34.371
34.363
34.355
34.344
34.331
34.315
34.298
34.278
34.257
34.234
34.21
34.185
34.16
34.137
34.114
34.094
34.076
34.06
34.045
34.03
34.013
33.995
33.974
33.95
33.924
33.896
33.869
33.842
33.816
33.791
33.768
33.745
33.724
33.705
33.686
33.668
33.65
33.632
33.614
33.596
33.577
33.557
33.536
33.514
33.491
33.466
33.438
33.409
33.378
33.346
33.314
33.281
33.249
33.219
33.191
33.166
33.144
33.124
33.107
33.093
33.081
33.071
33.062
33.055
33.049
33.044
33.039
33.035
33.031
33.027
33.025
33.026
33.033
33.048
33.075
33.117
33.176
33.253
33.349
33.466
33.603
33.758
33.931
34.119
34.32
34.532
34.751
34.974
35.199
35.421
35.638
35.848
36.049
36.239
36.417
36.584
36.738
36.879
37.008
37.126
37.232
37.328
37.414
37.49
37.556
37.613
37.661
37.7
37.732
37.758
37.778
37.793
37.806
37.816
37.824
37.833
37.84
37.845
37.848
37.849
37.846
37.841
37.832
37.819
37.803
37.784
37.762
37.739
37.714
37.689
37.666
37.643
37.62
37.597
37.572
37.546
37.516
37.482
37.444
37.402
37.357
37.309
37.259
37.208
37.156
37.106
37.057
37.01
36.965
36.924
36.886
36.851
36.818
36.786
36.755
36.725
36.696
36.666
36.637
36.608
36.581
36.554
36.529
36.504
36.481
36.458
36.435
36.414
36.393
36.373
36.351
36.329
36.305
36.279
36.25
36.218
36.183
36.147
36.109
36.07
36.031
35.991
35.951
35.911
35.87
35.828
35.785
35.741
35.696
35.65
35.603
35.556
35.509
35.46
35.411
35.362
35.313
35.264
35.215
35.166
35.117
35.069
35.021
34.973
34.927
34.881
34.837
34.793
34.75
34.707
34.666
34.627
34.589
34.552
34.517
34.483
34.451
34.42
34.391
34.362
34.335
34.309
34.284
34.26
34.236
34.213
34.19
34.166
34.141
34.116
34.091
34.065
34.041
