Trial 3:3back
34.055
34.038
34.021
34.004
33.987
33.97
33.953
33.935
33.919
33.903
33.889
33.876
33.865
33.855
33.847
33.838
33.831
33.823
33.814
33.804
33.792
33.779
33.763
33.745
33.726
33.705
33.684
33.662
33.64
33.618
33.597
33.577
33.556
33.535
33.514
33.491
33.468
33.443
33.418
33.392
33.367
33.343
33.319
33.295
33.272
33.251
33.23
33.211
33.194
33.177
33.162
33.148
33.136
33.125
33.115
33.105
33.095
33.085
33.075
33.065
33.054
33.043
33.033
33.024
33.015
33.006
32.998
32.989
32.981
32.974
32.967
32.961
32.956
32.95
32.944
32.937
32.931
32.923
32.915
32.906
32.894
32.882
32.868
32.854
32.838
32.821
32.803
32.785
32.766
32.747
32.727
32.707
32.684
32.66
32.633
32.606
32.579
32.553
32.53
32.513
32.502
32.5
32.506
32.521
32.547
32.586
32.638
32.707
32.794
32.903
33.034
33.194
33.386
33.615
33.882
34.187
34.529
34.903
35.306
35.73
36.168
36.611
37.052
37.482
37.893
38.279
38.635
38.956
39.24
39.485
39.692
39.861
39.993
40.089
40.154
40.191
40.203
40.195
40.169
40.129
40.078
40.019
39.953
39.884
39.812
39.742
39.677
39.617
39.561
39.508
39.457
39.404
39.349
39.29
39.226
39.157
39.083
39.006
38.925
38.842
38.759
38.677
38.597
38.52
38.447
38.378
38.312
38.25
38.19
38.132
38.075
38.02
37.966
37.912
37.859
37.806
37.754
37.701
37.648
37.596
37.544
37.494
37.445
37.397
37.352
37.31
37.272
37.24
37.213
37.193
37.179
37.171
37.171
37.178
37.192
37.213
37.238
37.269
37.302
37.338
37.374
37.409
37.441
37.47
37.493
37.511
37.523
37.528
37.528
37.521
37.51
37.495
37.478
37.458
37.436
37.412
37.387
37.359
37.326
37.29
37.248
37.203
37.154
37.1
37.043
36.982
36.919
36.852
36.782
36.71
36.636
36.559
36.481
36.403
36.323
36.242
36.16
36.077
35.995
35.915
35.837
35.762
35.69
35.62
35.554
35.492
35.433
35.378
35.326
35.276
35.229
35.184
35.14
35.097
35.054
35.011
34.967
34.922
34.879
34.837
34.796
34.759
34.723
34.69
34.661
34.636
34.616
34.599
34.585
34.573
34.562
34.553
34.545
34.538
34.531
34.523
34.514
34.503
34.49
34.475
34.458
34.439
34.418
34.394
34.368
34.341
34.312
34.284
34.255
34.228
34.202
34.178
34.155
34.135
34.116
34.099
34.083
34.066
34.048
34.028
34.007
33.983
33.959
33.933
33.908
33.883
33.859
33.836
33.814
33.793
33.773
33.753
33.735
33.717
33.698
33.68
33.669
33.665
33.667
33.673
33.679
33.682
33.68
33.67
33.651
33.624
33.589
33.549
33.503
33.455
33.404
33.354
33.304
33.257
33.213
33.174
33.14
33.111
33.087
33.067
33.049
33.034
33.02
33.008
32.998
32.989
32.981
32.975
32.971
32.969
32.969
32.97
32.973
32.977
32.98
32.984
32.987
32.99
32.992
32.992
32.989
32.984
32.976
32.964
32.95
32.934
32.915
32.895
32.874
32.853
32.832
32.811
32.789
32.767
32.746
32.726
32.707
32.689
32.674
32.661
32.65
32.643
32.64
32.642
32.649
32.663
32.687
32.723
32.777
32.851
32.951
33.082
33.248
33.453
33.701
33.992
34.326
34.698
35.102
35.534
35.983
36.441
36.899
37.346
37.773
38.172
38.537
38.862
39.145
39.385
39.579
39.731
39.842
39.915
39.954
39.964
39.95
39.914
39.861
39.793
39.715
39.628
39.536
39.442
39.348
39.255
39.165
39.078
38.995
38.916
38.841
38.77
38.702
38.636
38.572
38.509
38.447
38.385
38.323
38.263
38.204
38.148
38.094
38.043
37.996
37.952
37.912
37.877
37.846
37.817
37.791
37.765
37.738
37.709
37.677
37.641
37.602
37.558
37.51
37.456
37.399
37.337
37.273
37.207
37.14
37.074
37.01
36.95
36.894
36.843
36.799
36.762
36.732
36.71
36.695
36.688
36.687
36.692
36.702
36.716
36.735
36.755
36.777
36.798
36.819
36.839
36.856
36.87
36.88
36.884
36.884
36.878
36.867
36.85
36.828
36.8
36.766
36.728
36.684
36.636
36.584
36.529
36.471
36.412
36.351
36.29
36.229
36.168
36.109
36.049
35.99
35.932
35.874
35.816
35.759
35.701
35.642
35.583
35.524
35.465
35.406
35.346
35.287
35.227
35.168
35.109
35.049
34.99
34.931
34.872
34.814
34.757
34.701
34.648
34.596
34.547
34.501
34.457
34.415
34.376
34.341
34.308
34.276
34.246
34.218
34.19
34.164
34.14
34.116
34.095
34.075
34.057
34.04
34.024
34.008
33.993
33.979
33.966
33.952
33.939
33.925
33.912
33.899
33.888
33.879
33.871
33.864
33.857
33.851
33.844
33.837
33.828
33.817
33.806
33.794
33.781
33.768
33.753
33.737
33.719
33.699
33.68
33.66
33.639
33.618
33.596
33.574
33.552
33.53
33.508
33.486
33.463
33.44
33.416
33.394
33.372
33.351
33.33
33.308
33.286
33.265
33.246
33.229
33.214
33.199
33.184
33.168
33.15
33.129
33.105
33.078
33.046
33.011
32.975
32.937
32.899
32.862
32.826
32.792
32.76
32.731
32.704
32.679
32.658
32.639
32.622
32.607
32.594
32.582
32.569
32.556
32.542
32.528
32.515
32.501
32.489
32.477
32.465
32.455
32.445
32.436
32.427
32.418
32.41
32.401
32.393
32.385
32.376
32.365
32.354
32.341
32.326
32.308
32.287
32.264
32.239
32.213
32.187
32.162
32.139
32.117
32.097
32.078
32.062
32.048
32.037
32.029
32.024
32.022
32.022
32.025
32.03
32.038
32.048
32.063
32.083
32.109
32.145
32.193
32.258
32.342
32.45
32.588
32.761
32.972
33.225
33.521
33.858
34.231
34.635
35.063
35.504
35.949
36.388
36.811
37.209
37.576
37.905
38.193
38.438
38.639
38.797
38.914
38.993
39.036
39.048
39.034
38.997
38.942
38.875
38.798
38.714
38.626
38.535
38.445
38.355
38.266
38.179
38.095
38.014
37.936
37.861
37.789
37.719
37.652
37.586
37.523
37.461
37.401
37.343
37.288
37.235
37.184
37.136
37.09
37.045
37.002
36.961
36.921
36.883
36.846
36.808
36.77
36.73
36.687
36.641
36.593
36.542
36.489
36.435
36.379
36.325
36.274
36.227
36.184
36.146
36.113
36.087
36.066
36.053
36.045
36.045
36.05
36.06
36.075
36.094
36.118
36.144
36.17
36.197
36.224
36.251
36.279
36.307
36.336
36.364
36.392
36.418
36.441
36.462
36.48
36.493
36.501
36.503
36.498
36.489
36.475
36.457
36.438
36.416
36.393
36.367
36.338
36.306
36.271
36.233
36.191
36.146
36.096
36.042
35.985
35.927
35.867
35.807
35.746
35.686
35.627
35.57
35.514
35.46
35.408
35.358
35.31
35.266
35.223
35.182
35.142
35.103
35.064
35.024
34.985
34.945
34.906
34.866
34.827
34.788
34.75
34.714
34.68
34.65
34.622
34.597
34.574
34.553
34.534
34.518
34.504
34.492
34.482
34.474
34.466
34.46
34.453
34.446
34.438
34.43
34.42
34.409
34.396
34.382
34.368
34.353
34.337
34.321
34.305
34.289
34.273
34.258
34.244
34.23
34.218
34.207
34.197
34.187
34.178
34.168
34.158
34.147
34.137
34.126
34.114
34.1
34.085
34.068
34.052
34.035
34.019
34.003
33.987
33.97
33.954
33.937
33.919
33.899
33.877
33.853
33.826
33.798
33.768
33.738
33.708
33.679
33.653
33.629
33.609
33.59
33.573
33.558
33.545
33.534
33.525
33.515
33.505
33.493
33.48
33.465
33.449
33.431
33.413
33.396
33.379
33.365
33.352
33.34
33.33
33.319
33.307
33.294
33.281
33.266
33.249
33.231
33.212
33.191
33.168
33.145
33.119
33.092
33.063
33.035
33.008
32.982
32.958
32.934
32.91
32.888
32.866
32.847
32.832
32.82
32.816
32.82
32.834
32.861
32.903
32.963
33.043
33.149
33.284
33.451
33.655
33.895
34.173
34.487
34.833
35.207
35.604
36.014
36.431
36.846
37.249
37.635
37.994
38.321
38.613
38.867
39.082
39.255
39.389
39.486
39.547
39.578
39.581
39.56
39.519
39.46
39.388
39.306
39.218
39.126
39.033
38.94
38.848
38.76
38.674
38.593
38.517
38.445
38.377
38.313
38.253
38.195
38.14
38.087
38.035
37.985
37.937
37.89
37.847
37.806
37.769
37.734
37.703
37.673
37.645
37.617
37.588
37.558
37.524
37.488
37.447
37.404
37.356
37.306
37.254
37.199
37.144
37.087
37.03
36.973
36.917
36.863
36.812
36.764
36.72
36.68
36.644
36.613
36.586
36.564
36.547
36.534
36.526
36.524
36.526
36.533
36.543
36.556
36.571
36.587
36.606
36.625
36.645
36.665
36.682
36.698
36.71
36.718
36.722
36.722
36.716
36.705
36.689
36.668
36.64
36.605
36.563
36.515
36.462
36.405
36.345
36.283
36.22
36.158
36.097
36.037
35.98
35.925
35.872
35.821
35.772
35.725
35.68
35.636
35.594
35.552
35.512
35.471
35.43
35.388
35.345
35.3
35.254
35.207
35.16
35.113
35.067
35.021
34.977
34.934
34.894
34.856
34.819
34.785
34.752
34.72
34.69
34.661
34.632
34.605
34.578
34.55
34.522
34.493
34.465
34.438
34.412
34.388
34.366
34.348
34.333
34.322
34.314
34.31
34.309
34.309
34.31
34.31
34.31
34.307
34.301
34.292
34.278
34.261
34.24
34.216
34.191
34.166
34.142
34.119
34.097
34.077
34.059
34.042
34.026
34.011
33.996
33.982
33.968
33.954
33.939
33.924
33.908
33.89
33.871
33.851
33.831
33.81
33.789
33.767
33.746
33.725
33.704
33.683
33.661
33.639
33.617
33.595
33.573
33.551
33.529
33.508
33.487
33.467
33.445
33.423
33.401
33.379
33.357
33.334
33.312
33.291
33.27
33.25
33.231
33.213
33.196
33.18
33.164
33.149
33.134
33.12
33.106
33.092
33.078
33.063
33.048
33.033
33.019
33.004
32.989
32.975
32.959
32.942
32.924
32.905
32.884
32.862
32.84
32.817
32.795
32.774
32.754
32.734
32.715
32.696
32.678
32.661
32.645
32.631
32.618
32.606
32.594
32.584
32.573
32.562
32.55
32.538
32.524
32.511
32.498
32.485
32.474
32.464
32.456
32.449
32.442
32.436
32.431
32.427
32.423
32.419
32.414
32.408
32.4
32.389
32.377
32.363
32.348
32.332
32.314
32.297
32.28
32.263
32.246
32.228
32.21
32.193
32.177
32.161
32.147
32.135
32.126
32.122
32.124
32.134
32.154
32.188
32.239
32.31
32.407
32.534
32.695
32.895
33.135
33.42
33.748
34.117
34.523
34.957
35.413
35.878
36.345
36.801
37.24
37.651
38.027
38.363
38.655
38.9
39.098
39.251
39.361
39.432
39.467
39.471
39.447
39.4
39.334
39.254
39.162
39.063
38.959
38.854
38.749
38.646
38.546
38.45
38.36
38.274
38.193
38.116
38.042
37.971
37.903
37.838
37.774
37.711
37.649
37.588
37.529
37.472
37.418
37.366
37.318
37.272
37.23
37.191
37.153
37.116
37.08
37.044
37.007
36.971
36.935
36.898
36.861
36.824
36.785
36.745
36.704
36.66
36.616
36.571
36.527
36.483
36.44
36.398
36.36
36.327
36.3
36.28
36.267
36.262
36.266
36.276
36.294
36.317
36.345
36.377
36.41
36.442
36.473
36.501
36.526
36.547
36.563
36.576
36.584
36.589
36.59
36.587
36.581
36.57
36.554
36.534
36.51
36.483
36.452
36.418
36.381
36.341
36.298
36.252
36.203
36.151
36.098
36.044
35.99
35.936
35.884
35.835
35.789
35.745
35.705
35.665
35.626
35.586
35.545
35.503
35.46
35.415
35.368
35.319
35.269
35.219
35.17
35.123
35.077
35.036
34.998
34.965
34.935
34.907
34.882
34.858
34.834
34.81
34.786
34.762
34.739
34.716
34.694
34.672
34.652
34.634
34.617
34.602
34.588
34.576
34.565
34.556
34.549
34.544
34.538
34.533
34.527
34.521
34.515
34.509
34.502
34.494
34.486
34.479
34.471
34.463
34.456
34.449
34.443
34.437
34.431
34.426
34.422
34.417
34.411
34.405
34.397
34.389
34.38
34.37
34.359
34.346
34.333
34.319
34.305
34.29
34.274
34.257
34.237
34.214
34.19
34.163
34.134
34.105
34.076
34.047
34.02
33.995
33.973
33.953
33.934
33.918
33.903
33.889
33.877
33.866
33.855
33.845
33.834
33.821
33.805
33.787
33.767
33.745
33.724
33.71
33.705
33.708
33.717
33.73
33.744
33.757
33.766
33.77
33.768
33.76
33.745
33.725
33.699
33.669
33.634
33.596
33.554
33.51
33.465
33.42
33.376
33.335
33.298
33.264
33.233
33.206
33.181
33.16
33.141
33.125
33.111
33.098
33.087
33.079
33.072
33.069
33.068
33.07
33.075
33.085
33.1
33.122
33.153
33.197
33.256
33.334
33.436
33.564
33.724
33.919
34.152
34.422
34.729
35.064
35.417
35.783
36.154
36.526
36.894
37.251
37.594
37.917
38.215
38.486
38.726
38.934
39.109
39.252
39.363
39.444
39.495
39.52
39.521
39.501
39.462
39.408
39.34
39.262
39.177
39.087
38.994
38.901
38.808
38.716
38.627
38.541
38.458
38.378
38.302
38.23
38.161
38.094
38.029
37.967
37.908
37.853
37.802
37.756
37.714
37.678
37.646
37.618
37.592
37.568
37.544
37.518
37.49
37.458
37.424
37.385
37.344
37.298
37.248
37.194
37.137
37.08
37.022
36.967
36.913
36.86
36.81
36.763
36.72
36.68
36.646
36.616
36.59
36.57
36.555
36.546
36.544
36.549
36.561
36.579
36.603
36.631
36.663
36.696
36.73
36.763
36.792
36.818
36.838
36.854
36.864
36.868
36.865
36.855
36.839
36.818
36.793
36.764
36.731
36.695
36.656
36.614
36.57
36.525
36.479
36.432
36.384
36.335
36.285
36.234
36.181
36.127
36.073
36.02
35.969
35.92
35.873
35.828
35.783
35.737
35.692
35.645
35.598
35.549
35.5
35.449
35.397
35.343
35.289
35.236
35.182
35.131
35.082
35.036
34.994
34.957
34.925
34.897
34.874
34.854
34.837
34.821
34.807
34.792
34.777
34.762
34.747
34.73
34.713
34.694
34.676
34.657
34.638
34.62
34.603
34.589
34.577
34.566
34.557
34.551
34.546
34.541
34.537
34.533
34.527
34.52
34.511
34.502
34.497
34.498
34.505
34.514
34.523
34.531
34.535
34.534
34.528
34.516
34.498
34.475
34.447
34.416
34.383
34.347
34.311
34.273
34.235
34.197
34.161
34.126
34.092
34.061
34.032
34.006
33.982
33.961
33.942
33.924
33.907
33.89
33.874
33.858
33.843
33.827
33.811
33.795
33.778
33.759
33.739
33.717
33.693
33.667
33.641
33.614
33.586
33.558
33.529
33.5
33.468
33.436
33.404
33.371
33.339
33.308
33.278
33.25
33.223
33.197
33.173
33.151
33.131
33.112
33.096
33.081
33.069
33.057
33.046
33.035
33.025
33.014
33.002
32.988
32.975
32.96
32.946
32.932
32.919
32.907
32.896
32.885
32.874
32.862
32.851
32.838
32.824
32.807
32.789
32.768
32.745
32.718
32.69
32.659
32.626
32.592
32.558
32.524
32.492
32.461
32.432
32.405
32.381
32.361
32.346
32.336
32.332
32.336
32.349
32.375
32.417
32.481
32.57
32.689
32.842
33.032
33.261
33.531
33.839
34.182
34.554
34.949
35.359
35.775
36.189
36.591
36.975
37.334
37.662
37.955
38.212
38.429
38.608
38.748
38.852
38.921
38.959
38.968
38.954
38.921
38.872
38.811
38.74
38.664
38.584
38.503
38.422
38.342
38.264
38.188
38.114
38.041
37.97
37.9
37.832
37.765
37.701
37.639
37.58
37.523
37.468
37.416
37.366
37.318
37.274
37.231
37.193
37.157
37.125
37.097
37.071
37.046
37.023
37.0
36.976
36.95
36.92
36.886
36.847
36.804
36.758
36.709
36.658
36.606
36.553
36.5
36.448
36.399
36.352
36.309
36.27
36.238
36.211
36.192
36.18
36.174
36.175
36.182
36.194
36.212
36.234
36.26
36.289
36.318
36.348
36.376
36.403
36.428
36.45
36.468
36.482
36.492
36.497
36.498
36.493
36.484
36.471
36.455
36.435
36.413
36.39
36.366
36.341
36.314
36.285
36.254
36.221
36.185
36.148
36.108
36.066
36.022
35.976
35.929
35.881
35.832
35.783
35.734
35.685
35.635
35.587
35.539
35.494
35.45
35.407
35.364
35.322
35.281
35.241
35.204
35.167
35.131
35.096
35.063
35.031
35.0
34.97
34.94
34.911
34.883
34.855
34.831
34.808
34.788
34.772
34.76
34.75
34.743
34.739
34.737
34.737
34.738
34.739
34.739
34.739
34.738
34.735
34.728
34.717
34.702
34.685
34.665
34.644
34.622
34.6
34.579
34.56
34.543
34.528
34.514
34.502
34.491
34.48
34.47
34.46
34.45
34.441
34.431
34.422
34.411
34.4
34.39
34.379
34.367
34.355
34.344
34.332
34.321
34.308
34.295
34.282
34.266
34.249
34.231
34.211
34.188
34.163
34.137
34.11
34.083
34.057
34.031
34.006
33.981
33.956
33.933
33.912
33.892
33.876
33.861
33.849
33.839
33.833
33.834
33.844
33.859
33.877
33.893
33.905
33.912
33.91
33.901
33.884
33.861
33.834
33.804
33.773
33.742
33.712
33.684
33.659
33.637
33.619
33.602
33.586
33.57
33.553
33.535
33.516
33.494
33.471
33.445
33.419
33.391
33.363
33.333
33.303
33.272
33.243
33.215
33.189
33.167
33.147
33.13
33.116
33.106
33.101
33.099
33.103
33.112
33.13
33.158
33.2
33.259
33.339
33.444
33.576
33.741
33.939
34.172
34.438
34.735
35.058
35.401
35.759
36.124
36.488
36.845
37.187
37.507
37.8
38.063
38.292
38.486
38.645
38.771
38.866
38.931
38.971
38.989
38.988
38.973
38.944
38.905
38.857
38.8
38.736
38.668
38.597
38.524
38.452
38.381
38.311
38.242
38.174
38.107
38.043
37.981
37.921
37.864
37.808
37.755
37.706
37.661
37.621
37.587
37.557
37.531
37.509
37.491
37.474
37.458
37.443
37.428
37.411
37.393
37.372
37.348
37.321
37.29
37.254
37.214
37.17
37.122
37.071
37.019
36.966
36.913
36.861
36.812
36.765
36.723
36.685
36.652
36.625
36.603
36.586
36.575
36.569
36.568
36.573
36.582
36.596
36.614
36.634
36.656
36.679
36.702
36.722
36.741
36.755
36.766
36.771
36.771
36.765
36.754
36.739
36.719
36.695
36.666
36.633
36.596
36.557
36.515
36.472
36.429
36.385
36.344
36.304
36.267
36.231
36.198
36.165
36.132
36.098
36.063
36.024
35.982
35.936
35.887
35.836
35.784
35.731
35.677
35.624
35.573
35.523
35.476
35.431
35.388
35.348
35.31
35.274
35.24
35.208
35.176
35.145
35.115
35.085
35.057
35.029
35.003
34.977
34.951
34.925
34.9
34.875
34.852
34.829
34.807
34.786
34.765
34.746
34.728
34.712
34.697
34.682
34.668
34.653
34.637
34.621
34.604
34.587
34.568
34.549
34.529
34.51
34.49
34.469
34.449
34.426
34.402
34.376
34.35
34.323
34.297
34.271
34.246
34.222
34.199
34.177
34.156
34.134
34.112
34.091
34.071
34.053
34.037
34.021
34.005
33.99
33.975
33.96
33.944
33.928
33.91
33.89
33.869
33.847
33.824
33.799
33.773
33.745
33.715
33.685
33.655
33.624
33.592
33.561
33.529
33.497
33.466
33.436
33.405
33.376
33.346
33.319
33.292
33.268
33.246
33.223
33.199
33.173
33.145
33.118
33.091
33.068
33.047
33.031
33.017
33.007
32.999
32.993
32.989
32.986
32.983
32.98
32.977
32.974
32.972
32.968
32.963
32.957
32.951
32.944
32.939
32.934
32.93
32.925
32.919
32.912
32.903
32.892
32.878
32.861
32.841
32.819
32.795
32.772
32.748
32.724
32.702
32.68
32.658
32.636
32.614
32.593
32.574
32.555
32.538
32.522
32.51
32.501
32.498
32.499
32.508
32.524
32.551
32.591
32.648
32.727
32.833
32.968
33.135
33.338
33.578
33.853
34.163
34.502
34.865
35.246
35.637
36.03
36.417
36.791
37.145
37.472
37.768
38.03
38.256
38.444
38.596
38.712
38.795
38.847
38.871
38.871
38.851
38.815
38.766
38.707
38.64
38.568
38.493
38.418
38.343
38.27
38.199
38.13
38.063
37.997
37.933
37.87
37.808
37.747
37.689
37.632
37.578
37.527
37.48
37.437
37.398
37.364
37.333
37.303
37.271
37.238
37.202
37.165
37.127
37.089
37.052
37.016
36.984
36.954
36.926
36.898
36.87
36.84
36.808
36.772
36.734
36.694
36.652
36.609
36.565
36.523
36.482
36.446
36.413
36.384
36.36
36.341
36.328
36.321
36.321
36.327
36.338
36.355
36.375
36.4
36.426
36.453
36.48
36.506
36.53
36.553
36.572
36.589
36.602
36.613
36.62
36.624
36.623
36.618
36.608
36.594
36.577
36.557
36.535
36.512
36.486
36.458
36.427
36.393
36.354
36.311
36.264
36.213
36.159
36.103
36.047
35.992
35.938
35.884
35.832
35.781
35.731
35.682
35.633
35.585
35.537
35.491
35.446
35.402
35.359
35.319
35.28
35.244
35.209
35.176
35.145
35.116
35.09
35.067
35.047
35.028
35.01
34.993
34.976
34.958
34.938
34.916
34.893
34.869
34.845
34.821
34.796
34.773
34.749
34.727
34.705
34.683
34.661
34.641
34.623
34.609
34.598
34.592
34.589
34.59
34.593
34.597
34.601
34.604
34.605
34.604
34.6
34.593
34.584
34.572
34.558
