Trial 3:3back
36.748
36.891
37.01
37.106
37.179
37.234
37.273
37.3
37.317
37.327
37.331
37.331
37.327
37.321
37.312
37.301
37.287
37.27
37.249
37.225
37.196
37.165
37.131
37.096
37.06
37.025
36.992
36.962
36.935
36.91
36.889
36.871
36.855
36.84
36.825
36.809
36.79
36.769
36.744
36.712
36.675
36.632
36.582
36.526
36.465
36.401
36.336
36.27
36.204
36.14
36.079
36.021
35.967
35.916
35.869
35.826
35.787
35.752
35.719
35.689
35.659
35.63
35.601
35.572
35.543
35.516
35.491
35.47
35.454
35.442
35.435
35.432
35.433
35.437
35.443
35.452
35.461
35.471
35.479
35.485
35.488
35.486
35.479
35.467
35.45
35.429
35.402
35.37
35.331
35.286
35.233
35.174
35.11
35.041
34.968
34.893
34.818
34.744
34.671
34.603
34.54
34.483
34.434
34.392
34.356
34.325
34.298
34.275
34.254
34.233
34.21
34.187
34.161
34.132
34.099
34.061
34.019
33.973
33.925
33.876
33.83
33.787
33.747
33.713
33.685
33.662
33.644
33.631
33.621
33.614
33.609
33.603
33.597
33.589
33.579
33.566
33.548
33.527
33.504
33.48
33.458
33.44
33.429
33.429
33.441
33.47
33.519
33.591
33.686
33.806
33.951
34.121
34.313
34.526
34.755
34.995
35.243
35.493
35.741
35.98
36.206
36.418
36.611
36.782
36.931
37.056
37.158
37.234
37.287
37.319
37.333
37.333
37.323
37.306
37.285
37.263
37.243
37.226
37.212
37.2
37.189
37.179
37.168
37.156
37.142
37.125
37.105
37.08
37.052
37.02
36.987
36.952
36.918
36.884
36.854
36.826
36.802
36.782
36.765
36.75
36.737
36.724
36.709
36.688
36.66
36.625
36.58
36.527
36.465
36.396
36.322
36.246
36.17
36.096
36.024
35.956
35.894
35.837
35.787
35.744
35.708
35.679
35.657
35.64
35.627
35.616
35.607
35.597
35.586
35.575
35.562
35.549
35.534
35.52
35.506
35.492
35.479
35.466
35.454
35.443
35.434
35.425
35.417
35.41
35.405
35.399
35.393
35.386
35.376
35.363
35.345
35.322
35.295
35.264
35.228
35.187
35.142
35.092
35.037
34.978
34.915
34.849
34.781
34.711
34.639
34.565
34.49
34.417
34.346
34.279
34.218
34.166
34.122
34.087
34.061
34.043
34.031
34.023
34.016
34.011
34.005
33.998
33.989
33.979
33.969
33.956
33.94
33.922
33.901
33.877
33.851
33.822
33.792
33.761
33.729
33.696
33.662
33.628
33.592
33.555
33.519
33.484
33.453
33.426
33.405
33.39
33.384
33.388
33.404
33.434
33.48
33.545
33.63
33.738
33.868
34.019
34.19
34.377
34.575
34.783
34.996
35.214
35.432
35.648
35.86
36.067
36.263
36.449
36.62
36.775
36.913
37.031
37.129
37.208
37.269
37.313
37.34
37.353
37.352
37.339
37.316
37.285
37.248
37.208
37.166
37.126
37.089
37.055
37.026
37.001
36.983
36.97
36.961
36.955
36.952
36.95
36.946
36.94
36.931
36.918
36.901
36.88
36.855
36.827
36.795
36.76
36.722
36.68
36.635
36.587
36.535
36.482
36.427
36.37
36.313
36.255
36.198
36.141
36.086
36.033
35.982
35.934
35.891
35.852
35.816
35.783
35.751
35.72
35.688
35.656
35.623
35.59
35.56
35.533
35.511
35.493
35.48
35.472
35.47
35.471
35.476
35.484
35.495
35.507
35.52
35.53
35.538
35.541
35.537
35.524
35.501
35.47
35.43
35.384
35.332
35.276
35.218
35.16
35.102
35.046
34.991
34.938
34.888
34.84
34.795
34.753
34.713
34.677
34.648
34.628
34.616
34.612
34.61
34.61
34.606
34.596
34.576
34.547
34.507
34.457
34.398
34.33
34.254
34.175
34.093
34.013
33.936
33.865
33.803
33.75
33.706
33.671
33.644
33.625
33.615
33.611
33.612
33.618
33.627
33.636
33.645
33.65
33.652
33.647
33.637
33.621
33.598
33.57
33.536
33.497
33.454
33.41
33.367
33.327
33.294
33.272
33.264
33.274
33.305
33.358
33.438
33.545
33.679
33.841
34.029
34.241
34.475
34.726
34.991
35.263
35.536
35.805
36.063
36.304
36.523
36.718
36.887
37.029
37.143
37.231
37.294
37.336
37.358
37.364
37.356
37.339
37.315
37.288
37.26
37.232
37.206
37.184
37.165
37.148
37.132
37.117
37.1
37.08
37.056
37.029
36.998
36.966
36.933
36.9
36.868
36.839
36.812
36.788
36.766
36.745
36.727
36.71
36.693
36.676
36.658
36.637
36.614
36.585
36.549
36.507
36.458
36.403
36.342
36.277
36.211
36.145
36.08
36.018
35.96
35.905
35.855
35.809
35.767
35.731
35.7
35.675
35.655
35.64
35.629
35.621
35.615
35.608
35.602
35.596
35.589
35.581
35.574
35.567
35.56
35.554
35.55
35.547
35.544
35.541
35.537
35.533
35.526
35.517
35.505
35.49
35.472
35.45
35.424
35.393
35.358
35.318
35.275
35.227
35.174
35.117
35.055
34.99
34.922
34.853
34.782
34.712
34.646
34.587
34.536
34.493
34.461
34.438
34.423
34.413
34.405
34.395
34.382
34.362
34.335
34.299
34.252
34.194
34.128
34.055
33.976
33.895
33.815
33.737
33.664
33.597
33.538
33.488
33.445
33.41
33.382
33.358
33.34
33.325
33.313
33.304
33.298
33.294
33.293
33.293
33.294
33.297
33.303
33.311
33.324
33.342
33.368
33.403
33.449
33.508
33.583
33.676
33.788
33.921
34.076
34.253
34.449
34.661
34.882
35.108
35.335
35.557
35.771
35.974
36.163
36.337
36.494
36.633
36.754
36.854
36.935
36.997
37.039
37.062
37.066
37.056
37.032
36.997
36.953
36.902
36.849
36.796
36.743
36.692
36.645
36.602
36.562
36.525
36.493
36.464
36.438
36.415
36.394
36.375
36.356
36.337
36.317
36.295
36.271
36.244
36.214
36.181
36.144
36.105
36.062
36.016
35.967
35.914
35.859
35.802
35.743
35.683
35.624
35.566
35.51
35.457
35.406
35.356
35.308
35.262
35.216
35.17
35.125
35.08
35.035
34.993
34.953
34.916
34.885
34.857
34.834
34.817
34.806
34.801
34.803
34.813
34.83
34.853
34.881
34.912
34.945
34.977
35.008
35.034
35.055
35.07
35.077
35.077
35.069
35.052
35.028
34.995
34.955
34.908
34.853
34.794
34.732
34.666
34.6
34.533
34.467
34.401
34.336
34.273
34.213
34.155
34.101
34.05
34.003
33.96
33.922
33.886
33.855
33.826
33.799
33.772
33.745
33.717
33.687
33.654
33.617
33.575
33.53
33.484
33.436
33.388
33.341
33.296
33.253
33.212
33.174
33.138
33.105
33.075
33.049
33.026
33.009
33.0
33.0
33.011
33.03
33.061
33.104
33.164
33.242
33.341
33.462
33.607
33.776
33.966
34.175
34.398
34.63
34.866
35.1
35.33
35.552
35.762
35.957
36.138
36.301
36.445
36.571
36.678
36.766
36.836
36.888
36.925
36.947
36.956
36.952
36.937
36.912
36.879
36.838
36.792
36.743
36.692
36.643
36.598
36.558
36.523
36.496
36.475
36.46
36.45
36.442
36.436
36.43
36.423
36.413
36.398
36.377
36.35
36.317
36.277
36.229
36.176
36.119
36.057
35.992
35.926
35.861
35.798
35.737
35.68
35.627
35.579
35.532
35.487
35.441
35.395
35.349
35.302
35.256
35.211
35.17
35.133
35.1
35.073
35.051
35.035
35.025
35.02
35.019
35.022
35.029
35.039
35.052
35.065
35.08
35.094
35.108
35.122
35.134
35.144
35.153
35.159
35.163
35.163
35.159
35.149
35.133
35.11
35.08
35.044
35.003
34.956
34.906
34.852
34.796
34.739
34.681
34.625
34.57
34.518
34.471
34.427
34.386
34.348
34.31
34.272
34.232
34.189
34.142
34.092
34.038
33.98
33.917
33.852
33.784
33.714
33.644
33.573
33.505
33.441
33.382
33.333
33.294
33.268
33.256
33.261
33.283
33.326
33.391
33.479
33.59
33.726
33.885
34.065
34.263
34.476
34.698
34.925
35.151
35.373
35.586
35.787
35.972
36.139
36.286
36.412
36.518
36.604
36.67
36.72
36.757
36.782
36.799
36.807
36.805
36.792
36.768
36.736
36.697
36.652
36.606
36.561
36.518
36.479
36.444
36.413
36.388
36.368
36.354
36.343
36.337
36.335
36.334
36.334
36.334
36.333
36.331
36.327
36.32
36.308
36.292
36.27
36.242
36.206
36.162
36.11
36.052
35.987
35.917
35.843
35.767
35.691
35.614
35.539
35.465
35.393
35.325
35.262
35.205
35.153
35.109
35.072
35.042
35.018
34.998
34.984
34.975
34.97
34.969
34.973
34.98
34.991
35.005
35.02
35.035
35.051
35.064
35.076
35.085
35.09
35.092
35.09
35.085
35.078
35.069
35.058
35.044
35.029
35.013
34.995
34.975
34.953
34.928
34.902
34.872
34.838
34.797
34.752
34.699
34.639
34.573
34.502
34.428
34.352
34.276
34.202
34.131
34.065
34.003
33.946
33.895
33.849
33.81
33.776
33.748
33.723
33.7
33.679
33.66
33.644
33.631
33.623
33.622
33.629
33.647
33.678
33.725
33.788
33.868
33.967
34.083
34.217
34.368
34.534
34.713
34.903
35.1
35.301
35.503
35.702
35.894
36.075
36.245
36.403
36.546
36.674
36.787
36.883
36.963
37.025
37.071
37.1
37.112
37.11
37.094
37.069
37.037
36.999
36.96
36.922
36.884
36.85
36.818
36.79
36.765
36.743
36.721
36.7
36.679
36.656
36.631
36.601
36.567
36.527
36.482
36.433
36.381
36.327
36.272
36.217
36.163
36.111
36.062
36.016
35.973
35.933
35.895
35.856
35.813
35.765
35.712
35.655
35.592
35.526
35.458
35.389
35.321
35.253
35.187
35.126
35.071
35.023
34.984
34.955
34.934
34.923
34.918
34.921
34.929
34.943
34.961
34.983
35.008
35.035
35.065
35.095
35.126
35.155
35.182
35.205
35.222
35.232
35.232
35.222
35.201
35.17
35.131
35.083
35.029
34.969
34.907
34.842
34.777
34.714
34.655
34.599
34.549
34.503
34.463
34.428
34.396
34.366
34.338
34.31
34.28
34.249
34.216
34.179
34.138
34.095
34.047
33.998
33.947
33.895
33.843
33.791
33.74
33.689
33.639
33.59
33.543
33.498
33.46
33.429
33.409
33.402
33.412
33.441
33.491
33.565
33.664
33.789
33.942
34.12
34.321
34.541
34.775
35.018
35.262
35.503
35.734
35.951
36.15
36.328
36.485
36.62
36.733
36.826
36.9
36.959
37.003
37.036
37.059
37.075
37.084
37.087
37.086
37.082
37.075
37.064
37.05
37.033
37.012
36.985
36.954
36.917
36.876
36.832
36.786
36.74
36.695
36.654
36.617
36.585
36.557
36.534
36.513
36.494
36.476
36.457
36.437
36.414
36.39
36.363
36.332
36.298
36.259
36.214
36.163
36.106
36.045
35.978
35.909
35.838
35.767
35.695
35.626
35.56
35.498
35.439
35.387
35.343
35.306
35.28
35.263
35.256
35.255
35.259
35.266
35.273
35.279
35.282
35.283
35.281
35.276
35.27
35.26
35.248
35.235
35.22
35.204
35.186
35.169
35.153
35.138
35.124
35.111
35.099
35.087
35.075
35.061
35.045
35.024
35.0
34.97
34.935
34.895
34.85
34.801
34.747
34.69
34.631
34.569
34.506
34.442
34.375
34.308
34.239
34.17
34.102
34.038
33.977
33.922
33.871
33.827
33.788
33.754
33.723
33.696
33.672
33.65
33.63
33.613
33.599
33.588
33.579
33.574
33.573
33.577
33.589
33.611
33.646
33.696
33.766
33.856
33.968
34.103
34.259
34.434
34.626
34.83
35.044
35.264
35.487
35.708
35.923
36.13
36.324
36.504
36.665
36.807
36.929
37.031
37.112
37.174
37.218
37.246
37.259
37.258
37.247
37.226
37.196
37.161
37.121
37.079
37.036
36.994
36.955
36.921
36.892
36.867
36.846
36.83
36.817
36.806
36.795
36.785
36.773
36.758
36.741
36.719
36.693
36.662
36.623
36.578
36.525
36.467
36.403
36.335
36.266
36.197
36.129
36.064
36.0
35.94
35.882
35.827
35.774
35.722
35.671
35.621
35.572
35.522
35.472
35.422
35.374
35.326
35.282
35.242
35.206
35.175
35.15
35.133
35.123
35.121
35.127
35.14
35.159
35.18
35.202
35.222
35.241
35.256
35.266
35.27
35.269
35.262
35.248
35.228
35.201
35.169
35.131
35.091
35.046
34.999
34.949
34.898
34.845
34.789
34.733
34.677
34.622
34.57
34.519
34.471
34.426
34.383
34.343
34.306
34.272
34.241
34.212
34.185
34.16
34.134
34.107
34.077
34.044
34.007
33.967
33.925
33.88
33.834
33.788
33.742
33.696
33.651
33.607
33.565
33.524
33.485
33.449
33.414
33.382
33.35
33.321
33.294
33.272
33.258
33.252
33.262
33.29
33.341
33.418
33.524
33.66
33.823
34.011
34.219
34.444
34.68
34.924
35.17
35.413
35.649
35.872
36.078
36.264
36.428
36.57
36.691
36.79
36.869
36.931
36.978
37.013
37.035
37.048
37.053
37.051
37.043
37.03
37.012
36.99
36.966
36.94
36.912
36.883
36.853
36.821
36.788
36.753
36.715
36.675
36.635
36.597
36.56
36.525
36.492
36.461
36.432
36.402
36.373
36.343
36.313
36.283
36.252
36.221
36.189
36.158
36.125
36.088
36.048
36.002
35.95
35.891
35.826
35.754
35.677
35.597
35.514
35.432
35.352
35.275
35.203
35.139
35.084
35.04
35.007
34.985
34.974
34.973
34.98
34.992
35.006
35.022
35.037
35.052
35.065
35.075
35.083
35.09
35.092
35.091
35.085
35.075
35.061
35.042
35.019
34.994
34.967
34.938
34.909
34.879
34.848
34.817
34.785
34.752
34.719
34.686
34.652
34.617
34.582
34.547
34.51
34.47
34.427
34.381
34.331
34.278
34.222
34.162
34.1
34.035
33.968
33.9
33.833
33.77
33.712
33.659
33.614
33.576
33.546
33.523
33.505
33.492
33.482
33.476
33.471
33.465
33.458
33.447
33.432
33.412
33.388
33.361
33.332
33.301
33.27
33.239
33.21
33.182
33.154
33.128
33.104
33.085
33.073
33.068
33.073
33.092
33.128
33.186
33.267
33.374
33.507
33.667
33.852
34.061
34.291
34.536
34.793
35.055
35.317
35.572
35.814
36.039
36.244
36.425
36.581
36.713
36.822
36.908
36.974
37.023
37.057
37.078
37.087
37.084
37.07
37.048
37.019
36.984
36.946
36.906
36.864
36.823
36.782
36.74
36.7
36.66
36.623
36.587
36.554
36.522
36.491
36.46
36.429
36.396
36.36
36.322
36.282
36.242
36.202
36.16
36.119
36.079
36.039
36.0
35.96
35.92
35.881
35.843
35.805
35.768
35.731
35.694
35.656
35.615
35.57
35.522
35.471
35.416
35.358
35.299
35.238
35.178
35.121
35.068
35.02
34.977
34.942
34.913
34.893
34.882
34.88
34.886
34.899
34.918
34.942
34.967
34.992
35.015
35.036
35.052
35.063
35.067
35.066
35.059
35.046
35.027
35.003
34.974
34.939
34.899
34.852
34.801
34.746
34.687
34.626
34.562
34.498
34.434
34.369
34.307
34.247
34.191
34.14
34.094
34.052
34.016
33.983
33.953
33.924
33.895
33.866
33.837
33.805
33.771
33.735
33.697
33.656
33.612
33.566
33.519
33.472
33.425
33.381
33.338
33.299
33.261
33.227
33.195
33.168
33.144
33.125
33.112
33.104
33.101
33.1
33.101
33.104
33.107
33.11
33.114
33.117
33.119
33.118
33.113
33.102
33.085
33.06
33.03
32.994
32.956
32.917
32.881
32.851
32.83
32.824
32.835
32.868
32.926
33.014
33.134
33.285
33.468
33.679
33.914
34.169
34.438
34.716
34.997
35.274
35.542
35.798
36.036
36.254
36.449
36.62
36.765
36.883
36.974
37.04
37.084
37.105
37.107
37.094
37.067
37.03
36.986
36.937
36.886
36.837
36.79
36.747
36.71
36.679
36.653
36.633
36.617
36.603
36.589
36.574
36.555
36.532
36.504
36.472
36.433
36.389
36.342
36.294
36.247
36.204
36.165
36.13
36.1
36.074
36.051
36.03
36.011
35.991
35.971
35.947
35.919
35.883
35.839
35.786
35.725
35.657
35.583
35.506
35.427
35.349
35.273
35.201
35.136
35.079
35.031
34.993
34.966
34.95
34.944
34.946
34.955
34.971
34.99
35.012
35.034
35.055
35.075
35.093
35.109
35.121
35.129
35.131
35.126
35.114
35.094
35.068
35.036
34.998
34.957
34.913
34.867
34.818
34.769
34.721
34.673
34.627
34.583
34.541
34.501
34.463
34.426
34.388
34.349
34.308
34.264
34.217
34.166
34.112
34.057
33.998
33.939
33.879
33.819
33.76
33.701
33.645
33.591
33.542
33.496
33.455
33.416
33.38
33.347
33.314
33.283
33.253
33.226
33.201
33.181
33.166
33.156
33.152
33.152
33.157
33.165
33.175
33.188
33.201
33.213
33.223
33.229
33.23
33.225
33.215
33.199
33.179
33.154
33.125
33.095
33.063
33.031
32.998
32.966
32.935
32.907
32.883
32.865
32.856
32.858
32.875
32.91
32.966
33.048
33.159
33.302
33.48
33.691
33.934
34.203
34.494
34.8
35.113
35.426
35.731
36.021
36.291
36.535
36.748
36.93
37.078
37.192
37.274
37.326
37.35
37.352
37.334
37.302
37.259
37.212
37.163
37.116
37.072
37.032
36.996
36.964
36.934
36.905
36.875
36.844
36.812
36.777
36.74
36.702
36.665
36.626
36.588
36.55
36.514
36.479
36.446
36.413
36.38
36.348
36.315
36.283
36.25
36.215
36.178
36.138
36.096
36.05
36.003
35.952
35.899
35.845
35.79
35.734
35.677
35.621
35.564
35.509
35.455
35.404
35.355
35.311
35.27
35.233
35.199
35.168
35.14
35.115
35.093
35.075
35.061
35.052
35.046
35.045
35.047
35.051
35.056
35.061
35.065
35.069
35.071
35.072
35.073
35.073
35.071
35.068
35.064
35.058
35.051
35.04
35.025
35.006
34.981
34.95
34.912
34.866
34.814
34.754
34.687
34.613
34.533
34.448
34.359
34.268
34.178
34.089
34.002
33.917
33.837
33.762
33.692
33.629
33.571
33.52
33.475
33.436
33.4
33.369
33.34
33.316
33.294
33.275
33.257
33.24
33.224
33.206
33.186
33.163
33.136
33.106
33.073
33.037
32.996
32.952
32.906
32.858
32.809
32.76
32.715
32.675
32.643
32.624
32.619
32.633
32.667
32.725
32.81
32.925
33.07
33.247
33.455
33.693
33.956
34.24
34.539
34.847
35.156
35.459
35.749
36.021
36.27
36.492
36.686
36.849
36.981
37.081
37.151
37.192
37.207
37.197
37.169
37.125
37.071
37.011
36.95
36.889
36.831
36.778
36.73
36.687
36.648
36.612
36.58
36.55
36.52
36.489
36.456
36.42
36.38
36.336
36.289
36.241
36.191
36.141
36.091
36.044
36.0
35.96
35.923
35.889
35.857
35.824
35.789
35.75
35.705
35.654
35.596
35.533
35.463
35.39
35.313
35.232
35.147
35.06
34.971
34.885
34.803
34.728
34.661
34.604
34.558
34.524
34.505
34.5
34.508
34.529
34.562
34.604
34.655
34.712
34.772
34.834
34.894
34.952
35.003
35.048
35.083
35.108
35.124
35.129
35.124
35.107
35.079
35.041
34.994
34.94
34.88
34.817
34.754
34.691
34.632
34.575
34.522
34.473
34.427
34.383
34.34
34.298
34.257
34.216
34.175
34.133
34.09
34.046
34.001
33.955
33.909
33.862
33.816
33.771
33.727
33.684
33.642
33.6
33.557
33.513
33.468
33.421
33.373
33.325
33.276
33.228
33.18
33.133
33.087
33.043
33.002
32.964
32.932
32.909
32.896
32.899
32.921
32.965
33.034
33.132
33.262
33.427
33.625
33.857
34.12
34.408
34.716
35.037
35.364
35.688
36.004
36.302
36.578
36.825
37.04
37.22
37.365
37.475
37.551
37.596
37.614
37.61
37.588
37.552
37.506
37.456
37.405
37.357
37.312
37.273
37.239
37.208
37.18
37.153
37.125
37.097
37.066
37.031
36.993
36.951
36.905
36.857
36.805
36.752
36.698
36.644
36.591
36.54
36.493
36.45
36.411
36.376
36.344
36.313
36.28
36.245
36.205
36.161
36.111
36.056
35.996
35.931
35.862
35.79
35.717
35.643
35.571
35.499
35.43
35.365
35.307
35.257
35.216
35.186
35.165
35.154
35.151
35.155
35.167
35.184
35.207
35.233
35.263
35.295
35.328
35.359
35.387
35.411
35.431
35.444
35.45
35.448
35.439
35.423
35.401
35.375
35.345
35.312
35.275
35.235
35.194
35.153
35.111
35.071
35.032
34.994
34.956
34.918
34.879
34.837
34.793
34.745
34.694
34.641
34.585
34.528
34.47
34.411
34.35
34.29
34.229
34.169
34.111
34.057
34.008
33.966
33.93
33.9
33.873
33.848
33.821
33.794
33.766
33.737
33.707
33.677
33.647
33.619
33.595
33.574
33.559
33.549
33.547
33.556
33.579
33.621
33.686
33.777
33.897
34.045
34.221
34.424
34.652
34.9
35.163
35.436
35.715
35.993
36.264
36.523
36.764
36.982
37.175
37.34
37.476
37.583
37.663
37.718
37.751
37.763
37.758
37.739
37.708
37.667
37.618
37.565
37.509
37.452
37.396
37.342
37.292
37.247
37.205
37.167
37.131
37.098
37.065
37.034
37.003
36.972
36.942
36.911
36.88
36.848
36.814
36.779
36.744
36.707
36.669
36.629
36.586
36.541
36.492
36.44
36.383
36.322
36.258
36.19
36.12
36.049
35.978
35.908
35.838
35.769
35.703
35.639
35.578
35.52
35.465
35.414
35.366
35.323
35.283
35.249
35.221
35.199
35.185
35.177
35.177
35.184
35.198
35.216
35.24
35.267
35.296
35.324
35.349
35.369
