Trial 3:3back
35.365
35.34
35.315
35.292
35.271
35.252
35.235
35.222
35.212
35.208
35.208
35.212
35.222
35.235
35.252
35.272
35.295
35.32
35.345
35.369
35.392
35.412
35.43
35.443
35.452
35.458
35.459
35.457
35.452
35.445
35.435
35.425
35.415
35.405
35.394
35.383
35.37
35.357
35.343
35.329
35.314
35.3
35.286
35.271
35.253
35.234
35.212
35.188
35.165
35.141
35.118
35.096
35.073
35.053
35.034
35.018
35.004
34.993
34.984
34.977
34.97
34.965
34.96
34.954
34.948
34.941
34.934
34.927
34.919
34.91
34.902
34.892
34.883
34.872
34.861
34.85
34.839
34.83
34.821
34.814
34.807
34.801
34.796
34.792
34.788
34.785
34.783
34.782
34.78
34.778
34.774
34.77
34.767
34.763
34.759
34.755
34.75
34.746
34.743
34.741
34.739
34.738
34.737
34.734
34.731
34.726
34.72
34.714
34.709
34.703
34.698
34.693
34.69
34.689
34.689
34.691
34.694
34.695
34.695
34.694
34.69
34.686
34.679
34.672
34.663
34.653
34.643
34.634
34.625
34.616
34.61
34.604
34.599
34.596
34.593
34.591
34.59
34.589
34.588
34.586
34.585
34.584
34.583
34.583
34.583
34.582
34.58
34.575
34.568
34.559
34.546
34.531
34.512
34.493
34.474
34.456
34.442
34.432
34.425
34.423
34.424
34.427
34.431
34.436
34.44
34.443
34.444
34.444
34.443
34.44
34.437
34.435
34.433
34.432
34.433
34.434
34.435
34.436
34.437
34.438
34.44
34.442
34.443
34.444
34.444
34.444
34.443
34.441
34.44
34.439
34.438
34.437
34.438
34.438
34.438
34.438
34.438
34.437
34.436
34.434
34.431
34.428
34.425
34.422
34.418
34.414
34.409
34.404
34.398
34.39
34.382
34.372
34.362
34.351
34.341
34.332
34.326
34.323
34.326
34.337
34.356
34.385
34.426
34.478
34.544
34.625
34.72
34.83
34.955
35.093
35.244
35.406
35.575
35.751
35.929
36.107
36.281
36.448
36.606
36.751
36.883
36.999
37.098
37.179
37.24
37.281
37.304
37.309
37.3
37.278
37.246
37.207
37.164
37.118
37.07
37.023
36.976
36.931
36.889
36.848
36.81
36.775
36.743
36.715
36.691
36.671
36.655
36.642
36.631
36.623
36.615
36.61
36.605
36.601
36.598
36.594
36.591
36.587
36.581
36.573
36.563
36.55
36.535
36.517
36.496
36.472
36.446
36.418
36.39
36.36
36.33
36.301
36.271
36.239
36.207
36.175
36.144
36.115
36.088
36.066
36.046
36.03
36.017
36.008
36.003
36.002
36.004
36.008
36.015
36.022
36.03
36.037
36.044
36.051
36.058
36.063
36.067
36.068
36.067
36.063
36.056
36.047
36.035
36.02
36.004
35.986
35.967
35.946
35.925
35.904
35.883
35.86
35.836
35.811
35.785
35.759
35.733
35.706
35.68
35.656
35.633
35.611
35.592
35.575
35.562
35.551
35.541
35.532
35.522
35.513
35.502
35.491
35.48
35.468
35.455
35.443
35.429
35.415
35.401
35.386
35.37
35.355
35.338
35.32
35.303
35.286
35.271
35.26
35.258
35.266
35.284
35.308
35.333
35.355
35.373
35.384
35.387
35.382
35.369
35.349
35.323
35.293
35.262
35.23
35.199
35.17
35.144
35.121
35.101
35.085
35.072
35.061
35.054
35.047
35.041
35.036
35.031
35.027
35.024
35.021
35.017
35.013
35.008
35.002
34.996
34.989
34.982
34.973
34.963
34.952
34.938
34.924
34.909
34.894
34.88
34.867
34.855
34.843
34.833
34.825
34.819
34.813
34.809
34.804
34.8
34.796
34.792
34.788
34.784
34.781
34.778
34.776
34.774
34.771
34.767
34.762
34.755
34.747
34.736
34.725
34.713
34.703
34.693
34.686
34.68
34.676
34.673
34.672
34.673
34.674
34.677
34.68
34.684
34.687
34.689
34.691
34.691
34.691
34.688
34.683
34.676
34.666
34.653
34.638
34.621
34.605
34.591
34.58
34.573
34.569
34.568
34.57
34.574
34.579
34.583
34.586
34.586
34.584
34.579
34.571
34.563
34.553
34.544
34.536
34.529
34.525
34.523
34.523
34.525
34.532
34.542
34.558
34.58
34.609
34.646
34.691
34.746
34.812
34.887
34.972
35.066
35.17
35.284
35.406
35.536
35.673
35.814
35.958
36.102
36.243
36.383
36.52
36.652
36.778
36.892
36.994
37.079
37.148
37.198
37.231
37.248
37.249
37.238
37.214
37.181
37.141
37.097
37.05
37.003
36.957
36.911
36.868
36.827
36.789
36.755
36.724
36.698
36.676
36.657
36.642
36.63
36.622
36.615
36.611
36.607
36.605
36.603
36.603
36.602
36.6
36.596
36.591
36.583
36.572
36.56
36.545
36.528
36.508
36.486
36.462
36.437
36.412
36.386
36.358
36.328
36.297
36.264
36.23
36.196
36.163
36.133
36.105
36.081
36.061
36.044
36.03
36.02
36.014
36.011
36.01
36.012
36.015
36.02
36.027
36.036
36.046
36.055
36.063
36.069
36.071
36.069
36.062
36.051
36.037
36.02
36.002
35.984
35.965
35.946
35.928
35.909
35.892
35.875
35.859
35.842
35.825
35.808
35.789
35.77
35.75
35.73
35.71
35.69
35.671
35.652
35.634
35.618
35.602
35.587
35.572
35.558
35.543
35.528
35.513
35.499
35.485
35.472
35.458
35.443
35.428
35.413
35.397
35.382
35.368
35.355
35.343
35.331
35.321
35.311
35.303
35.297
35.291
35.285
35.279
35.274
35.267
35.261
35.254
35.247
35.239
35.231
35.223
35.213
35.203
35.193
35.183
35.172
35.163
35.155
35.149
35.144
35.14
35.137
35.133
35.13
35.126
35.121
35.114
35.106
35.095
35.082
35.066
35.046
35.024
35.001
34.979
34.959
34.941
34.927
34.916
34.907
34.901
34.898
34.896
34.896
34.895
34.893
34.888
34.881
34.873
34.864
34.855
34.847
34.841
34.838
34.837
34.838
34.842
34.847
34.853
34.858
34.861
34.861
34.858
34.854
34.848
34.841
34.834
34.826
34.817
34.808
34.799
34.789
34.78
34.771
34.762
34.753
34.745
34.738
34.732
34.727
34.723
34.721
34.719
34.718
34.716
34.715
34.713
34.709
34.703
34.695
34.685
34.673
34.66
34.648
34.637
34.629
34.622
34.618
34.615
34.614
34.615
34.618
34.623
34.628
34.633
34.637
34.639
34.64
34.639
34.638
34.636
34.635
34.636
34.64
34.647
34.66
34.679
34.707
34.744
34.791
34.849
34.918
34.999
35.092
35.196
35.312
35.438
35.571
35.71
35.851
35.992
36.132
36.267
36.397
36.521
36.636
36.741
36.835
36.916
36.984
37.037
37.078
37.104
37.118
37.12
37.111
37.093
37.068
37.037
37.002
36.966
36.929
36.891
36.854
36.816
36.779
36.744
36.712
36.684
36.662
36.644
36.63
36.619
36.611
36.604
36.599
36.593
36.586
36.578
36.567
36.555
36.542
36.527
36.512
36.496
36.48
36.462
36.443
36.421
36.397
36.371
36.342
36.312
36.28
36.247
36.214
36.181
36.15
36.122
36.097
36.075
36.057
36.043
36.032
36.025
36.02
36.018
36.019
36.023
36.029
36.037
36.045
36.055
36.064
36.072
36.077
36.08
36.08
36.077
36.07
36.061
36.049
36.036
36.021
36.005
35.987
35.967
35.946
35.924
35.902
35.879
35.857
35.835
35.813
35.792
35.771
35.751
35.732
35.716
35.701
35.688
35.676
35.663
35.651
35.638
35.625
35.613
35.601
35.589
35.576
35.564
35.55
35.534
35.518
35.5
35.48
35.46
35.438
35.416
35.395
35.375
35.358
35.343
35.332
35.324
35.319
35.315
35.311
35.307
35.302
35.295
35.286
35.276
35.263
35.249
35.234
35.219
35.206
35.193
35.182
35.172
35.163
35.155
35.146
35.136
35.125
35.113
35.101
35.089
35.078
35.069
35.061
35.055
35.05
35.045
35.039
35.033
35.025
35.017
35.008
34.998
34.989
34.98
34.972
34.966
34.96
34.956
34.954
34.953
34.952
34.951
34.948
34.942
34.934
34.924
34.913
34.901
34.889
34.877
34.867
34.857
34.848
34.839
34.83
34.822
34.814
34.806
34.799
34.791
34.783
34.775
34.767
34.758
34.749
34.74
34.731
34.722
34.714
34.707
34.701
34.695
34.691
34.687
34.685
34.683
34.682
34.683
34.684
34.685
34.687
34.689
34.691
34.691
34.69
34.686
34.679
34.671
34.661
34.65
34.639
34.63
34.623
34.618
34.617
34.619
34.623
34.629
34.637
34.644
34.651
34.655
34.657
34.656
34.655
34.651
34.647
34.642
34.635
34.628
34.62
34.612
34.604
34.594
34.583
34.57
34.557
34.544
34.532
34.522
34.517
34.524
34.546
34.579
34.62
34.664
34.708
34.747
34.78
34.803
34.819
34.828
34.833
34.837
34.843
34.857
34.88
34.916
34.966
35.033
35.117
35.218
35.334
35.465
35.607
35.757
35.911
36.067
36.222
36.371
36.512
36.642
36.759
36.86
36.945
37.013
37.064
37.099
37.119
37.125
37.118
37.101
37.076
37.044
37.007
36.967
36.927
36.887
36.849
36.814
36.781
36.751
36.722
36.697
36.674
36.656
36.641
36.631
36.624
36.62
36.618
36.618
36.619
36.62
36.622
36.623
36.623
36.621
36.617
36.611
36.602
36.59
36.576
36.56
36.541
36.52
36.495
36.468
36.438
36.407
36.375
36.342
36.308
36.274
36.24
36.207
36.174
36.143
36.114
36.089
36.068
36.05
36.035
36.024
36.015
36.01
36.007
36.006
36.007
36.008
36.01
36.012
36.013
36.014
36.016
36.017
36.018
36.019
36.02
36.02
36.021
36.023
36.025
36.028
36.03
36.031
36.029
36.025
36.017
36.006
35.993
35.975
35.954
35.928
35.898
35.864
35.828
35.79
35.752
35.715
35.68
35.647
35.616
35.589
35.565
35.544
35.524
35.507
35.492
35.477
35.464
35.451
35.44
35.429
35.42
35.411
35.403
35.396
35.388
35.38
35.37
35.36
35.35
35.338
35.326
35.312
35.297
35.28
35.264
35.247
35.232
35.218
35.205
35.193
35.182
35.173
35.165
35.159
35.153
35.147
35.141
35.135
35.129
35.122
35.115
35.107
35.098
35.088
35.076
35.063
35.05
35.037
35.026
35.016
35.007
34.999
34.991
34.985
34.978
34.971
34.965
34.957
34.948
34.938
34.926
34.914
34.902
34.89
34.88
34.87
34.862
34.854
34.849
34.844
34.839
34.835
34.83
34.824
34.817
34.807
34.797
34.786
34.775
34.764
34.753
34.743
34.734
34.725
34.72
34.718
34.719
34.723
34.728
34.733
34.737
34.74
34.74
34.739
34.737
34.733
34.728
34.722
34.714
34.706
34.697
34.687
34.676
34.664
34.651
34.639
34.626
34.614
34.603
34.593
34.585
34.577
34.57
34.565
34.56
34.556
34.554
34.553
34.553
34.551
34.549
34.547
34.544
34.541
34.536
34.531
34.525
34.518
34.51
34.501
34.493
34.484
34.477
34.47
34.463
34.456
34.45
34.443
34.436
34.428
34.42
34.411
34.402
34.393
34.385
34.377
34.371
34.365
34.362
34.36
34.36
34.363
34.37
34.382
34.4
34.426
34.461
34.505
34.558
34.62
34.693
34.776
34.87
34.975
35.09
35.213
35.344
35.48
35.619
35.76
35.9
36.038
36.17
36.295
36.409
36.513
36.605
36.685
36.751
36.805
36.845
36.872
36.886
36.887
36.878
36.859
36.832
36.799
36.761
36.722
36.681
36.641
36.603
36.566
36.531
36.5
36.474
36.452
36.434
36.42
36.409
36.401
36.396
36.393
36.392
36.393
36.395
36.396
36.395
36.393
36.388
36.38
36.371
36.359
36.345
36.328
36.309
36.286
36.259
36.23
36.198
36.163
36.126
36.088
36.048
36.009
35.971
35.936
35.903
35.874
35.847
35.823
35.801
35.78
35.762
35.748
35.737
35.731
35.728
35.728
35.731
35.738
35.747
35.759
35.772
35.786
35.799
35.811
35.82
35.827
35.831
35.833
35.832
35.828
35.82
35.808
35.794
35.778
35.761
35.744
35.728
35.712
35.696
35.68
35.664
35.647
35.628
35.608
35.586
35.561
35.535
35.508
35.479
35.45
35.42
35.39
35.36
35.331
35.304
35.278
35.254
35.233
35.216
35.201
35.189
35.18
35.172
35.165
35.159
35.152
35.145
35.138
35.129
35.119
35.109
35.099
35.089
35.081
35.074
35.067
35.061
35.054
35.045
35.036
35.028
35.022
35.018
35.015
35.013
35.013
35.013
35.013
35.014
35.013
35.011
35.008
35.002
34.993
34.983
34.972
34.959
34.947
34.934
34.922
34.91
34.899
34.888
34.878
34.868
34.857
34.846
34.833
34.82
34.805
34.791
34.775
34.76
34.746
34.732
34.719
34.707
34.698
34.691
34.687
34.685
34.685
34.685
34.686
34.687
34.687
34.686
34.684
34.679
34.672
34.662
34.651
34.64
34.629
34.62
34.612
34.605
34.598
34.593
34.587
34.583
34.579
34.575
34.572
34.568
34.563
34.558
34.552
34.547
34.541
34.536
34.53
34.524
34.518
34.512
34.508
34.506
34.506
34.506
34.508
34.51
34.51
34.509
34.507
34.503
34.498
34.491
34.482
34.473
34.464
34.457
34.45
34.444
34.439
34.434
34.428
34.421
34.413
34.404
34.395
34.386
34.378
34.371
34.367
34.364
34.365
34.368
34.374
34.38
34.386
34.389
34.392
34.394
34.395
34.396
34.398
34.4
34.403
34.411
34.423
34.442
34.468
34.502
34.545
34.596
34.656
34.725
34.803
34.891
34.988
35.095
35.208
35.328
35.453
35.58
35.707
35.832
35.953
36.066
36.172
36.267
36.35
36.421
36.479
36.523
36.556
36.575
36.582
36.578
36.563
36.54
36.509
36.473
36.434
36.394
36.353
36.314
36.276
36.24
36.207
36.179
36.155
36.135
36.119
36.107
36.097
36.088
36.081
36.074
36.069
36.064
36.059
36.054
36.048
36.041
36.032
36.02
36.006
35.989
35.968
35.945
35.918
35.89
35.86
35.829
35.799
35.769
35.741
35.712
35.684
35.657
35.63
35.606
35.584
35.564
35.548
35.536
35.528
35.525
35.526
35.531
35.538
35.547
35.555
35.562
35.567
35.571
35.574
35.575
35.575
35.576
35.578
35.58
35.583
35.586
35.588
35.589
35.587
35.583
35.575
35.564
35.55
35.534
35.516
35.498
35.48
35.461
35.441
35.42
35.398
35.375
35.35
35.324
35.297
35.27
35.244
35.218
35.194
35.173
35.155
35.138
35.124
35.111
35.099
35.089
35.079
35.07
35.061
35.052
35.042
35.032
35.022
35.013
35.004
34.997
34.99
34.984
34.977
34.97
34.962
34.954
34.944
34.934
34.922
34.91
34.897
34.883
34.87
34.858
34.847
34.836
34.827
34.82
34.814
34.809
34.804
34.801
34.797
34.795
34.792
34.79
34.787
34.784
34.78
34.776
34.771
34.764
34.757
34.748
34.738
34.728
34.718
34.709
34.701
34.694
34.688
34.685
34.683
34.682
34.683
34.683
34.683
34.682
34.68
34.677
34.673
34.668
34.662
34.656
34.649
34.641
34.633
34.625
34.617
34.609
34.599
34.59
34.58
34.57
34.56
34.552
34.545
34.539
34.534
34.531
34.528
34.525
34.523
34.52
34.516
34.511
34.504
34.496
34.486
34.475
34.465
34.455
34.447
34.441
34.438
34.436
34.437
34.44
34.444
34.448
34.452
34.456
34.46
34.463
34.467
34.47
34.473
34.474
34.475
34.475
34.474
34.473
34.472
34.471
34.469
34.467
34.465
34.462
34.46
34.458
34.455
34.455
34.461
34.473
34.491
34.511
34.531
34.549
34.562
34.569
34.569
34.562
34.548
34.527
34.501
34.471
34.438
34.404
34.37
34.338
34.309
34.284
34.264
34.25
34.24
34.237
34.24
34.25
34.266
34.291
34.325
34.368
34.42
34.483
34.556
34.64
34.736
34.848
34.978
35.124
35.282
35.448
35.617
35.784
35.945
36.097
36.236
36.36
36.467
36.554
36.622
36.671
36.703
36.719
36.722
36.713
36.694
36.668
36.636
36.601
36.563
36.524
36.484
36.443
36.402
36.36
36.32
36.283
36.249
36.22
36.195
36.175
36.158
36.145
36.135
36.128
36.121
36.113
36.102
36.09
36.076
36.062
36.049
36.039
36.033
36.029
36.027
36.026
36.025
36.022
36.018
36.011
36.001
35.988
35.972
35.954
35.934
35.914
35.894
35.873
35.853
35.832
35.811
35.789
35.769
35.749
35.731
35.715
35.701
35.689
35.678
35.667
35.657
35.646
35.635
35.623
35.612
35.601
35.591
35.584
35.578
35.573
35.571
35.57
35.57
35.572
35.574
35.577
35.581
35.584
35.588
35.591
35.592
35.592
35.588
35.582
35.572
35.559
35.543
35.524
35.501
35.477
35.451
35.424
35.397
35.371
35.345
35.32
35.296
35.273
35.253
35.235
35.22
35.206
35.192
35.179
35.166
35.152
35.137
35.122
35.107
35.093
35.08
35.067
35.057
35.047
35.04
35.034
35.029
35.024
35.019
35.012
35.003
34.991
34.977
34.962
34.947
34.932
34.918
34.905
34.896
34.888
34.883
34.88
34.878
34.876
34.874
34.871
34.867
34.862
34.858
34.855
34.853
34.852
34.851
34.851
34.85
34.847
34.843
34.836
34.828
34.817
34.804
34.791
34.778
34.765
34.754
34.745
34.737
34.731
34.726
34.723
34.72
34.717
34.714
34.71
34.704
34.697
34.688
34.679
34.67
34.661
34.653
34.646
34.639
34.634
34.631
34.628
34.627
34.627
34.627
34.626
34.624
34.621
34.617
34.613
34.608
34.603
34.597
34.592
34.586
34.58
34.574
34.568
34.562
34.556
34.55
34.543
34.535
34.528
34.522
34.515
34.508
34.501
34.493
34.486
34.478
34.471
34.464
34.456
34.449
34.442
34.436
34.43
34.426
34.423
34.421
34.421
34.42
34.418
34.417
34.416
34.413
34.411
34.407
34.404
34.402
34.4
34.399
34.4
34.403
34.407
34.411
34.415
34.418
34.42
34.421
34.421
34.419
34.415
34.411
34.406
34.401
34.397
34.394
34.392
34.389
34.384
34.379
34.371
34.36
34.348
34.334
34.321
34.308
34.299
34.294
34.294
34.3
34.313
34.333
34.361
34.397
34.441
34.494
34.557
34.631
34.715
34.81
34.916
35.034
35.163
35.3
35.443
35.589
35.736
35.88
36.019
36.15
36.271
36.381
36.477
36.559
36.627
36.68
36.718
36.742
36.754
36.754
36.745
36.727
36.702
36.671
36.636
36.597
36.555
36.512
36.468
36.424
36.382
36.342
36.305
36.272
36.243
36.217
36.193
36.171
36.15
36.131
36.115
36.101
36.091
36.083
36.077
36.074
36.071
36.069
36.066
36.063
36.059
36.052
36.042
36.03
36.013
35.994
35.971
35.945
35.916
35.884
35.85
35.814
35.778
35.743
35.711
35.682
35.658
35.638
35.623
35.612
35.606
35.604
35.605
35.609
35.615
35.622
35.63
35.64
35.65
35.661
35.672
35.681
35.689
35.696
35.7
35.702
35.702
35.701
35.697
35.692
35.686
35.679
35.671
35.662
35.653
35.643
35.632
35.62
35.606
35.59
35.572
35.552
35.531
35.508
35.484
35.46
35.437
35.414
35.392
35.371
35.35
35.33
35.308
35.286
35.265
35.243
35.222
35.202
35.183
35.165
35.149
35.134
35.121
35.11
35.102
35.095
35.089
35.085
35.081
35.078
35.075
35.072
35.068
35.064
35.059
35.053
35.047
35.041
35.036
35.03
35.025
35.02
35.014
35.007
35.0
34.991
34.982
34.972
34.961
34.95
34.938
34.926
34.915
34.903
34.893
34.883
34.873
34.863
34.854
34.845
34.836
34.827
34.819
34.811
34.804
34.798
34.792
34.787
34.778
34.76
34.734
34.701
34.665
34.628
34.594
34.566
34.544
34.531
34.525
34.527
34.536
34.551
34.57
34.591
34.615
34.638
34.66
34.68
34.698
34.713
34.724
34.733
34.738
34.739
34.736
34.73
34.72
34.707
34.692
34.676
34.66
34.645
34.632
34.621
34.615
34.611
34.609
34.609
34.611
34.612
34.614
34.616
34.617
34.618
34.619
34.619
34.618
34.617
34.616
34.614
34.613
34.611
34.607
34.602
34.596
34.589
34.582
34.575
34.568
34.562
34.558
34.554
34.551
34.549
34.548
34.546
34.543
34.538
34.53
34.519
34.506
34.491
34.473
34.455
34.437
34.422
34.41
34.402
34.397
34.397
34.4
34.406
34.414
34.424
34.437
34.454
34.475
34.5
34.531
34.568
34.612
34.664
34.726
34.799
34.883
34.978
35.084
35.201
35.328
35.462
35.603
35.746
35.89
36.03
36.165
36.291
36.406
36.509
36.598
36.672
36.73
36.774
36.802
36.817
36.819
36.809
36.789
36.759
36.722
36.677
36.627
36.574
36.519
36.464
36.412
36.362
36.317
36.278
36.243
36.212
36.186
36.164
36.147
36.132
36.119
36.107
36.096
36.085
36.075
36.066
36.058
36.051
36.044
36.038
36.031
36.022
36.01
35.995
35.976
35.954
35.93
35.903
35.875
35.847
35.819
35.791
35.765
35.74
35.716
35.693
35.671
35.652
35.635
35.621
35.611
35.606
35.605
35.607
35.612
35.619
35.629
35.64
35.651
35.661
35.669
35.676
35.68
35.683
35.684
35.684
35.684
35.683
35.681
35.68
35.678
35.677
35.675
35.672
35.668
35.661
35.652
35.639
35.623
35.606
35.586
35.565
35.543
35.52
35.496
35.473
35.45
35.429
35.408
35.388
35.367
35.346
35.324
35.303
35.281
35.261
35.241
35.221
35.201
35.182
35.165
35.149
35.134
35.122
35.112
35.104
35.097
35.093
35.091
35.09
35.09
35.091
35.092
35.091
35.089
35.085
35.079
35.072
35.064
35.054
35.043
35.032
35.021
35.01
35.0
34.989
34.979
34.968
34.957
34.946
34.937
34.928
34.921
34.915
