Trial 3:3back
35.135
35.15
35.165
35.178
35.19
35.201
35.211
35.22
35.228
35.235
35.241
35.246
35.249
35.251
35.251
35.249
35.244
35.237
35.227
35.215
35.202
35.188
35.173
35.157
35.142
35.126
35.112
35.098
35.086
35.074
35.063
35.052
35.041
35.031
35.021
35.01
35.0
34.99
34.979
34.968
34.958
34.947
34.935
34.923
34.911
34.897
34.884
34.87
34.855
34.841
34.826
34.812
34.798
34.785
34.773
34.762
34.752
34.743
34.734
34.726
34.718
34.711
34.704
34.697
34.692
34.687
34.684
34.682
34.681
34.682
34.684
34.687
34.691
34.695
34.7
34.704
34.708
34.712
34.715
34.717
34.718
34.718
34.718
34.717
34.716
34.716
34.715
34.714
34.713
34.711
34.708
34.705
34.7
34.694
34.687
34.679
34.669
34.659
34.647
34.635
34.623
34.611
34.601
34.59
34.581
34.571
34.563
34.555
34.549
34.545
34.542
34.543
34.546
34.552
34.561
34.575
34.594
34.619
34.649
34.686
34.728
34.777
34.832
34.892
34.958
35.028
35.103
35.181
35.261
35.343
35.424
35.503
35.578
35.65
35.717
35.778
35.831
35.877
35.915
35.944
35.965
35.978
35.984
35.982
35.973
35.959
35.94
35.917
35.893
35.867
35.84
35.813
35.786
35.759
35.733
35.709
35.687
35.665
35.645
35.625
35.606
35.587
35.568
35.549
35.531
35.513
35.497
35.481
35.466
35.452
35.438
35.424
35.408
35.392
35.375
35.357
35.338
35.319
35.299
35.279
35.259
35.24
35.221
35.202
35.185
35.168
35.153
35.14
35.129
35.121
35.115
35.112
35.112
35.113
35.118
35.127
35.138
35.153
35.169
35.187
35.205
35.224
35.242
35.259
35.275
35.29
35.303
35.313
35.322
35.328
35.332
35.333
35.331
35.327
35.321
35.312
35.301
35.289
35.276
35.262
35.248
35.234
35.22
35.208
35.196
35.185
35.174
35.163
35.152
35.14
35.129
35.117
35.105
35.093
35.081
35.068
35.057
35.046
35.035
35.024
35.013
35.003
34.992
34.981
34.971
34.96
34.949
34.938
34.927
34.915
34.902
34.889
34.875
34.859
34.843
34.827
34.811
34.796
34.781
34.768
34.756
34.747
34.74
34.736
34.735
34.734
34.735
34.736
34.738
34.74
34.741
34.742
34.743
34.743
34.741
34.739
34.735
34.731
34.726
34.72
34.715
34.709
34.705
34.701
34.698
34.696
34.694
34.692
34.691
34.69
34.69
34.69
34.69
34.69
34.689
34.688
34.686
34.684
34.682
34.678
34.674
34.669
34.664
34.659
34.653
34.647
34.642
34.637
34.635
34.636
34.64
34.647
34.66
34.677
34.7
34.729
34.764
34.807
34.855
34.91
34.97
35.036
35.105
35.177
35.252
35.327
35.402
35.475
35.545
35.611
35.673
35.73
35.782
35.827
35.866
35.897
35.922
35.939
35.95
35.954
35.952
35.944
35.932
35.915
35.896
35.874
35.851
35.827
35.803
35.779
35.755
35.731
35.707
35.682
35.658
35.633
35.609
35.586
35.563
35.542
35.522
35.502
35.484
35.466
35.448
35.429
35.41
35.389
35.366
35.343
35.318
35.293
35.268
35.242
35.217
35.192
35.169
35.148
35.129
35.113
35.099
35.087
35.078
35.072
35.068
35.066
35.067
35.07
35.074
35.08
35.087
35.095
35.103
35.112
35.119
35.127
35.133
35.14
35.147
35.154
35.162
35.171
35.181
35.192
35.203
35.214
35.224
35.233
35.241
35.247
35.251
35.253
35.252
35.248
35.242
35.235
35.225
35.214
35.201
35.187
35.172
35.157
35.141
35.124
35.108
35.092
35.076
35.061
35.048
35.036
35.025
35.016
35.008
35.001
34.994
34.986
34.978
34.969
34.958
34.947
34.935
34.921
34.907
34.893
34.878
34.864
34.849
34.836
34.823
34.81
34.799
34.788
34.778
34.768
34.759
34.75
34.741
34.731
34.722
34.713
34.704
34.696
34.689
34.683
34.678
34.674
34.671
34.669
34.667
34.665
34.664
34.663
34.662
34.66
34.659
34.657
34.655
34.653
34.651
34.648
34.645
34.642
34.638
34.633
34.629
34.624
34.617
34.61
34.602
34.594
34.586
34.577
34.57
34.563
34.558
34.554
34.551
34.55
34.552
34.555
34.559
34.564
34.569
34.575
34.58
34.586
34.594
34.603
34.614
34.63
34.649
34.674
34.704
34.741
34.784
34.834
34.891
34.954
35.023
35.095
35.17
35.247
35.323
35.397
35.469
35.536
35.597
35.652
35.7
35.741
35.774
35.799
35.817
35.828
35.832
35.83
35.824
35.813
35.798
35.78
35.758
35.733
35.706
35.676
35.646
35.616
35.586
35.558
35.53
35.504
35.479
35.455
35.432
35.41
35.388
35.367
35.345
35.322
35.299
35.274
35.249
35.223
35.198
35.172
35.148
35.125
35.104
35.085
35.068
35.054
35.043
35.033
35.025
35.018
35.013
35.009
35.006
35.004
35.002
35.0
34.998
34.997
34.997
34.999
35.003
35.009
35.016
35.025
35.034
35.043
35.052
35.061
35.072
35.084
35.097
35.112
35.127
35.142
35.156
35.17
35.183
35.194
35.205
35.213
35.219
35.223
35.224
35.222
35.217
35.209
35.199
35.187
35.174
35.159
35.143
35.128
35.112
35.096
35.081
35.067
35.054
35.042
35.031
35.022
35.014
35.006
34.998
34.989
34.98
34.969
34.958
34.946
34.933
34.919
34.904
34.888
34.872
34.856
34.842
34.828
34.816
34.805
34.795
34.786
34.779
34.773
34.767
34.762
34.757
34.751
34.744
34.736
34.727
34.716
34.705
34.693
34.681
34.669
34.657
34.646
34.636
34.627
34.62
34.613
34.609
34.606
34.606
34.607
34.609
34.611
34.614
34.616
34.617
34.616
34.614
34.611
34.607
34.602
34.598
34.593
34.589
34.585
34.583
34.581
34.58
34.58
34.583
34.588
34.596
34.607
34.622
34.642
34.665
34.692
34.724
34.76
34.801
34.845
34.893
34.945
34.999
35.055
35.114
35.174
35.236
35.297
35.359
35.418
35.475
35.529
35.58
35.626
35.667
35.702
35.732
35.755
35.772
35.782
35.787
35.785
35.778
35.766
35.749
35.729
35.707
35.683
35.658
35.632
35.606
35.581
35.558
35.536
35.516
35.499
35.482
35.467
35.452
35.437
35.422
35.405
35.385
35.363
35.338
35.311
35.282
35.252
35.221
35.19
35.159
35.128
35.098
35.069
35.042
35.018
34.996
34.978
34.963
34.951
34.944
34.941
34.942
34.947
34.955
34.965
34.978
34.994
35.012
35.032
35.053
35.076
35.099
35.123
35.147
35.171
35.194
35.215
35.234
35.252
35.267
35.281
35.292
35.301
35.308
35.313
35.316
35.317
35.316
35.313
35.309
35.303
35.295
35.286
35.274
35.262
35.248
35.233
35.219
35.204
35.191
35.179
35.167
35.157
35.146
35.137
35.128
35.12
35.113
35.107
35.101
35.097
35.092
35.087
35.081
35.075
35.066
35.057
35.046
35.033
35.02
35.006
34.993
34.98
34.967
34.956
34.946
34.938
34.931
34.926
34.922
34.917
34.912
34.906
34.9
34.892
34.883
34.873
34.863
34.853
34.842
34.831
34.821
34.81
34.8
34.789
34.779
34.77
34.762
34.755
34.75
34.746
34.743
34.74
34.739
34.738
34.738
34.738
34.737
34.737
34.737
34.737
34.738
34.738
34.739
34.74
34.739
34.739
34.739
34.739
34.739
34.74
34.743
34.748
34.754
34.763
34.773
34.786
34.801
34.819
34.842
34.869
34.901
34.939
34.982
35.031
35.084
35.143
35.205
35.271
35.339
35.41
35.481
35.553
35.623
35.691
35.756
35.817
35.873
35.922
35.966
36.002
36.032
36.055
36.071
36.081
36.083
36.08
36.069
36.054
36.033
36.009
35.981
35.951
35.92
35.889
35.858
35.828
35.799
35.771
35.743
35.716
35.688
35.661
35.633
35.605
35.577
35.549
35.521
35.494
35.468
35.444
35.422
35.401
35.382
35.364
35.347
35.33
35.315
35.301
35.287
35.274
35.261
35.248
35.236
35.225
35.215
35.207
35.201
35.197
35.194
35.194
35.195
35.198
35.202
35.209
35.216
35.225
35.235
35.245
35.255
35.266
35.277
35.287
35.298
35.308
35.316
35.323
35.328
35.332
35.334
35.334
35.334
35.332
35.329
35.326
35.323
35.32
35.318
35.317
35.316
35.314
35.312
35.309
35.305
35.3
35.295
35.289
35.282
35.273
35.263
35.252
35.241
35.23
35.22
35.21
35.2
35.19
35.179
35.169
35.157
35.145
35.131
35.117
35.101
35.085
35.066
35.047
35.025
35.003
34.981
34.96
34.94
34.922
34.907
34.893
34.882
34.874
34.868
34.864
34.863
34.863
34.865
34.867
34.87
34.873
34.876
34.879
34.882
34.884
34.886
34.886
34.887
34.887
34.885
34.882
34.878
34.871
34.864
34.856
34.848
34.84
34.832
34.825
34.819
34.814
34.811
34.81
34.809
34.809
34.809
34.809
34.809
34.809
34.807
34.804
34.801
34.798
34.794
34.79
34.787
34.785
34.784
34.786
34.791
34.801
34.816
34.837
34.864
34.898
34.939
34.987
35.042
35.103
35.171
35.245
35.322
35.401
35.482
35.563
35.642
35.72
35.793
35.862
35.924
35.98
36.029
36.069
36.101
36.124
36.139
36.146
36.146
36.14
36.128
36.112
36.09
36.065
36.036
36.005
35.973
35.94
35.906
35.872
35.838
35.805
35.773
35.743
35.715
35.69
35.666
35.645
35.626
35.608
35.592
35.576
35.561
35.546
35.53
35.515
35.499
35.483
35.467
35.449
35.43
35.41
35.389
35.368
35.346
35.324
35.304
35.284
35.266
35.251
35.238
35.23
35.224
35.222
35.223
35.226
35.231
35.239
35.248
35.258
35.268
35.278
35.287
35.296
35.304
35.312
35.319
35.327
35.334
35.341
35.35
35.359
35.369
35.38
35.391
35.401
35.412
35.422
35.43
35.437
35.442
35.445
35.445
35.443
35.44
35.434
35.427
35.417
35.404
35.39
35.375
35.358
35.339
35.321
35.301
35.282
35.264
35.247
35.231
35.216
35.202
35.19
35.178
35.168
35.158
35.149
35.139
35.129
35.119
35.108
35.097
35.086
35.075
35.065
35.056
35.047
35.04
35.033
35.028
35.023
35.019
35.015
35.011
35.007
35.004
35.0
34.997
34.993
34.988
34.982
34.975
34.968
34.96
34.952
34.944
34.936
34.929
34.924
34.919
34.917
34.916
34.916
34.917
34.918
34.92
34.921
34.922
34.921
34.919
34.916
34.911
34.906
34.9
34.892
34.883
34.873
34.862
34.852
34.842
34.834
34.828
34.825
34.823
34.825
34.829
34.836
34.845
34.857
34.871
34.887
34.907
34.93
34.957
34.989
35.027
35.07
35.12
35.175
35.236
35.301
35.37
35.442
35.515
35.589
35.661
35.732
35.798
35.859
35.915
35.964
36.006
36.043
36.073
36.096
36.113
36.123
36.126
36.123
36.113
36.098
36.079
36.055
36.028
35.998
35.966
35.933
35.899
35.865
35.831
35.798
35.766
35.735
35.706
35.679
35.653
35.629
35.606
35.583
35.561
35.54
35.518
35.496
35.475
35.454
35.434
35.414
35.394
35.375
35.355
35.335
35.315
35.296
35.278
35.262
35.247
35.234
35.222
35.212
35.205
35.2
35.199
35.201
35.206
35.214
35.223
35.235
35.248
35.262
35.276
35.29
35.304
35.317
35.33
35.341
35.352
35.363
35.372
35.38
35.388
35.394
35.399
35.402
35.404
35.404
35.402
35.399
35.394
35.389
35.382
35.374
35.366
35.358
35.349
35.34
35.332
35.323
35.315
35.307
35.3
35.293
35.286
35.279
35.273
35.266
35.26
35.253
35.246
35.237
35.228
35.216
35.204
35.19
35.176
35.162
35.149
35.135
35.122
35.108
35.095
35.082
35.069
35.056
35.044
35.031
35.019
35.007
34.995
34.982
34.969
34.955
34.941
34.927
34.914
34.9
34.888
34.875
34.864
34.853
34.842
34.833
34.825
34.819
34.815
34.812
34.812
34.813
34.816
34.82
34.824
34.829
34.835
34.84
34.845
34.851
34.855
34.859
34.862
34.864
34.865
34.866
34.868
34.868
34.868
34.867
34.864
34.86
34.853
34.844
34.835
34.824
34.814
34.805
34.8
34.798
34.801
34.808
34.822
34.842
34.869
34.902
34.944
34.993
35.049
35.112
35.18
35.254
35.332
35.413
35.495
35.578
35.659
35.738
35.813
35.884
35.949
36.007
36.057
36.1
36.134
36.16
36.178
36.188
36.192
36.188
36.179
36.166
36.149
36.129
36.107
36.083
36.058
36.031
36.004
35.976
35.949
35.922
35.896
35.87
35.845
35.821
35.797
35.773
35.75
35.727
35.704
35.681
35.657
35.634
35.611
35.588
35.567
35.546
35.525
35.504
35.483
35.463
35.444
35.425
35.407
35.39
35.372
35.356
35.339
35.324
35.31
35.297
35.286
35.277
35.272
35.27
35.27
35.274
35.281
35.289
35.301
35.314
35.328
35.344
35.359
35.374
35.388
35.401
35.412
35.421
35.429
35.435
35.44
35.444
35.447
35.45
35.452
35.454
35.456
35.457
35.457
35.455
35.454
35.451
35.447
35.441
35.435
35.429
35.421
35.413
35.403
35.393
35.382
35.37
35.356
35.342
35.327
35.312
35.297
35.282
35.266
35.25
35.235
35.221
35.206
35.192
35.179
35.165
35.152
35.139
35.125
35.111
35.097
35.082
35.068
35.054
35.04
35.027
35.015
35.004
34.995
34.987
34.981
34.977
34.975
34.974
34.975
34.977
34.98
34.984
34.988
34.991
34.993
34.994
34.994
34.993
34.992
34.991
34.989
34.985
34.978
34.97
34.959
34.946
34.933
34.919
34.905
34.892
34.879
34.868
34.858
34.849
34.842
34.836
34.831
34.829
34.829
34.831
34.834
34.84
34.847
34.856
34.867
34.88
34.895
34.912
34.933
34.957
34.987
35.021
35.06
35.105
35.154
35.208
35.267
35.33
35.398
35.47
35.544
35.619
35.693
35.765
35.835
35.9
35.96
36.014
36.06
36.098
36.129
36.152
36.167
36.175
36.177
36.173
36.164
36.151
36.134
36.114
36.091
36.066
36.038
36.01
35.98
35.949
35.916
35.881
35.845
35.809
35.773
35.738
35.706
35.675
35.647
35.621
35.598
35.576
35.556
35.537
35.52
35.503
35.485
35.466
35.447
35.426
35.406
35.385
35.364
35.344
35.325
35.308
35.294
35.282
35.273
35.266
35.261
35.259
35.258
35.261
35.265
35.273
35.283
35.296
35.31
35.325
35.342
35.359
35.377
35.394
35.411
35.426
35.439
35.451
35.462
35.471
35.478
35.484
35.489
35.492
35.494
35.495
35.494
35.493
35.491
35.488
35.484
35.48
35.475
35.468
35.46
35.45
35.439
35.427
35.414
35.4
35.386
35.372
35.358
35.345
35.333
35.322
35.312
35.301
35.29
35.278
35.266
35.255
35.243
35.231
35.219
35.207
35.195
35.183
35.171
35.159
35.147
35.135
35.122
35.109
35.095
35.081
35.066
35.052
35.038
35.026
35.015
35.005
34.998
34.993
34.989
34.988
34.988
34.988
34.989
34.99
34.99
34.989
34.987
34.984
34.98
34.974
34.968
34.961
34.954
34.948
34.942
34.937
34.933
34.929
34.925
34.922
34.92
34.919
34.919
34.92
34.921
34.923
34.925
34.926
34.928
34.93
34.932
34.934
34.938
34.944
34.953
34.965
34.983
35.007
35.037
35.074
35.118
35.168
35.225
35.289
35.359
35.434
35.514
35.596
35.68
35.764
35.845
35.923
35.996
36.065
36.126
36.181
36.226
36.262
36.29
36.309
36.321
36.326
36.325
36.32
36.309
36.294
36.275
36.254
36.23
36.204
36.178
36.152
36.126
36.101
36.077
36.053
36.029
36.006
35.983
35.961
35.938
35.916
35.893
35.87
35.847
35.823
35.799
35.775
35.751
35.727
35.702
35.677
35.652
35.627
35.601
35.575
35.549
35.525
35.501
35.479
35.459
35.441
35.426
35.412
35.401
35.393
35.388
35.385
35.385
35.388
35.392
35.399
35.407
35.416
35.427
35.439
35.452
35.466
35.48
35.495
35.511
35.528
35.545
35.562
35.578
35.594
35.608
35.621
35.631
35.637
35.639
35.636
35.63
35.621
35.609
35.595
35.579
35.56
35.541
35.521
35.501
35.483
35.467
35.453
35.441
35.43
35.42
35.411
35.403
35.396
35.389
35.382
35.376
35.369
35.362
35.355
35.347
35.339
35.331
35.322
35.314
35.305
35.295
35.286
35.277
35.267
35.258
35.248
35.238
35.228
35.217
35.205
35.193
35.179
35.165
35.151
35.135
35.118
35.101
35.084
35.067
35.051
35.036
35.023
35.011
35.0
34.992
34.985
34.981
34.978
34.977
34.978
34.981
34.985
34.99
34.995
35.001
35.005
35.008
35.01
35.01
35.009
35.005
35.001
34.996
34.99
34.984
34.978
34.972
34.966
34.961
34.957
34.955
34.955
34.958
34.964
34.973
34.985
35.002
35.023
35.049
35.081
35.119
35.164
35.215
35.271
35.334
35.401
35.473
35.547
35.622
35.696
35.77
35.841
35.911
35.977
36.04
36.098
36.151
36.198
36.238
36.271
36.297
36.317
36.33
36.337
36.338
36.333
36.322
36.306
36.286
36.263
36.237
36.209
36.18
36.15
36.12
36.09
36.061
36.033
36.005
35.977
35.95
35.924
35.898
35.872
35.846
35.822
35.799
35.777
35.755
35.734
35.712
35.69
35.667
35.644
35.621
35.597
35.574
35.55
35.528
35.506
35.487
35.47
35.457
35.445
35.437
35.431
35.428
35.427
35.429
35.434
35.441
35.45
35.461
35.474
35.488
35.504
35.52
35.537
35.554
35.571
35.587
35.601
35.614
35.626
35.636
35.646
35.654
35.66
35.666
35.67
35.673
35.675
35.676
35.675
35.674
35.672
35.669
35.666
35.662
35.659
35.656
35.652
35.647
35.641
35.633
35.623
35.61
35.595
35.579
35.56
35.541
35.521
35.5
35.479
35.458
35.437
35.418
35.401
35.386
35.371
35.358
35.345
35.332
35.32
35.307
35.294
35.281
35.268
35.256
35.244
35.234
35.226
35.219
35.212
35.207
35.203
35.2
35.197
35.194
35.192
35.191
35.189
35.188
35.186
35.184
35.182
35.179
35.176
35.172
35.168
35.164
35.159
35.153
35.146
35.139
35.131
35.123
35.115
35.107
35.099
35.093
35.086
35.081
35.077
35.074
35.071
35.069
35.067
35.065
35.065
35.065
35.067
35.071
35.078
35.088
35.102
35.122
35.147
35.179
35.219
35.265
35.318
35.377
35.442
35.512
35.588
35.666
35.747
35.829
35.911
35.99
36.066
36.135
36.198
36.254
36.301
36.34
36.372
36.396
36.412
36.421
36.422
36.417
36.405
36.388
36.365
36.34
36.312
36.283
36.254
36.224
36.196
36.169
36.142
36.117
36.092
36.068
36.045
36.022
36.001
35.979
35.957
35.934
35.911
35.886
35.862
35.836
35.811
35.785
35.759
35.732
35.707
35.681
35.656
35.633
35.61
35.589
35.57
35.553
35.536
35.521
35.506
35.493
35.482
35.474
35.468
35.464
35.464
35.467
35.473
35.482
35.494
35.509
35.525
35.543
35.562
35.582
35.602
35.622
35.642
35.661
35.678
35.693
35.707
35.718
35.726
35.733
35.737
35.74
35.741
35.74
35.736
35.73
35.723
35.713
35.701
35.688
35.673
35.657
35.639
35.62
35.6
35.58
35.56
35.541
35.522
35.505
35.489
35.474
35.46
35.448
35.436
35.426
35.417
35.408
35.4
35.392
35.384
35.376
35.368
35.359
35.35
35.34
35.329
35.317
35.304
35.29
35.277
35.263
35.248
35.234
35.22
35.207
35.194
35.182
35.171
35.162
35.155
35.149
35.144
35.14
35.137
35.134
35.132
35.129
35.126
35.123
35.12
35.118
35.115
35.111
35.107
35.102
35.097
35.092
35.085
35.079
35.071
35.063
35.056
35.049
35.043
35.038
35.034
35.03
35.026
35.023
35.021
35.02
35.019
35.018
35.017
35.017
35.016
35.014
35.012
35.01
35.006
35.002
34.998
34.995
34.993
34.992
34.993
34.996
35.001
35.009
35.02
35.034
35.053
35.077
35.106
35.14
35.181
35.229
35.285
35.348
35.419
35.497
35.58
35.668
35.759
35.852
35.945
36.035
36.121
36.203
36.277
36.344
36.403
36.452
36.492
36.522
36.543
36.556
36.561
36.558
36.548
36.53
36.507
36.478
36.446
36.413
36.378
36.344
36.311
36.28
36.25
36.222
36.196
36.172
36.15
36.13
36.112
36.095
36.079
36.065
36.051
36.038
36.025
36.011
35.995
35.978
35.96
35.94
35.92
35.899
35.878
35.856
35.835
35.815
35.794
35.773
35.752
35.731
35.711
35.693
35.675
35.659
35.645
35.633
35.624
35.617
35.614
35.615
35.618
35.624
35.633
35.643
35.656
35.67
35.684
35.7
35.715
35.73
35.744
35.757
35.769
35.78
35.79
35.798
35.804
35.807
35.808
35.805
35.801
35.793
35.783
35.77
35.755
35.739
35.722
35.704
35.686
35.669
35.652
35.637
35.623
35.61
35.598
35.587
35.575
35.564
35.553
35.542
35.53
35.518
35.505
35.492
35.479
35.465
35.451
35.437
35.423
35.409
35.395
35.38
35.366
35.352
35.338
35.325
35.312
35.299
35.288
35.277
35.267
35.258
35.249
35.24
35.23
35.22
35.209
35.199
35.19
35.181
35.173
35.165
35.156
35.148
35.14
35.131
35.122
35.113
35.104
35.095
35.087
35.079
35.072
35.067
35.062
35.058
35.057
35.056
35.057
35.059
35.06
35.061
35.062
35.063
35.062
35.06
35.058
35.054
35.048
35.042
35.035
35.027
35.018
35.009
35.0
34.991
34.982
34.974
34.966
34.959
34.951
34.945
34.938
34.932
34.927
34.923
34.921
34.92
34.922
34.924
34.929
34.936
34.945
34.956
34.969
34.986
35.005
