Trial 3:3back
35.033
35.025
35.017
35.01
35.003
34.996
34.988
34.981
34.973
34.966
34.959
34.952
34.946
34.939
34.933
34.926
34.919
34.911
34.902
34.893
34.882
34.87
34.858
34.845
34.831
34.818
34.805
34.791
34.779
34.768
34.757
34.748
34.741
34.734
34.729
34.725
34.722
34.72
34.718
34.716
34.713
34.711
34.707
34.704
34.7
34.697
34.695
34.694
34.696
34.701
34.709
34.721
34.739
34.762
34.792
34.83
34.874
34.927
34.986
35.053
35.126
35.205
35.289
35.377
35.467
35.558
35.649
35.738
35.825
35.908
35.987
36.06
36.126
36.186
36.238
36.281
36.315
36.341
36.36
36.37
36.373
36.369
36.358
36.342
36.322
36.298
36.273
36.246
36.218
36.191
36.163
36.136
36.109
36.082
36.055
36.03
36.005
35.982
35.961
35.942
35.923
35.905
35.886
35.867
35.848
35.829
35.81
35.79
35.771
35.751
35.729
35.707
35.684
35.66
35.635
35.61
35.584
35.558
35.532
35.507
35.483
35.461
35.442
35.425
35.411
35.401
35.393
35.388
35.386
35.386
35.388
35.393
35.399
35.408
35.417
35.427
35.439
35.45
35.461
35.472
35.482
35.491
35.499
35.505
35.51
35.513
35.514
35.513
35.511
35.509
35.505
35.501
35.497
35.493
35.487
35.481
35.473
35.465
35.455
35.444
35.431
35.417
35.4
35.381
35.361
35.34
35.319
35.297
35.276
35.256
35.236
35.218
35.202
35.188
35.176
35.166
35.158
35.152
35.146
35.141
35.136
35.129
35.12
35.109
35.097
35.084
35.07
35.055
35.04
35.025
35.01
34.995
34.982
34.97
34.959
34.949
34.939
34.929
34.92
34.911
34.903
34.896
34.888
34.88
34.871
34.862
34.852
34.841
34.83
34.817
34.805
34.792
34.778
34.766
34.755
34.745
34.737
34.73
34.724
34.72
34.718
34.716
34.716
34.717
34.719
34.72
34.722
34.723
34.723
34.722
34.72
34.718
34.716
34.715
34.716
34.72
34.728
34.741
34.759
34.783
34.814
34.852
34.898
34.951
35.011
35.077
35.147
35.22
35.296
35.375
35.455
35.535
35.614
35.692
35.767
35.837
35.903
35.962
36.013
36.055
36.09
36.116
36.135
36.147
36.153
36.154
36.151
36.144
36.135
36.123
36.11
36.097
36.083
36.068
36.053
36.035
36.017
35.996
35.973
35.948
35.922
35.894
35.865
35.836
35.808
35.779
35.752
35.725
35.699
35.672
35.646
35.619
35.592
35.565
35.538
35.51
35.483
35.455
35.427
35.401
35.375
35.351
35.329
35.309
35.292
35.278
35.267
35.259
35.253
35.249
35.247
35.246
35.246
35.248
35.252
35.257
35.264
35.273
35.284
35.295
35.308
35.321
35.336
35.35
35.364
35.378
35.391
35.403
35.416
35.429
35.442
35.455
35.466
35.475
35.483
35.489
35.493
35.496
35.496
35.492
35.485
35.474
35.459
35.44
35.417
35.393
35.366
35.34
35.313
35.288
35.265
35.244
35.226
35.21
35.196
35.183
35.173
35.164
35.157
35.15
35.144
35.136
35.127
35.117
35.107
35.095
35.082
35.069
35.054
35.038
35.023
35.007
34.993
34.979
34.967
34.956
34.946
34.937
34.929
34.921
34.913
34.905
34.898
34.891
34.885
34.879
34.873
34.868
34.863
34.859
34.854
34.849
34.844
34.839
34.834
34.828
34.823
34.818
34.813
34.81
34.806
34.803
34.799
34.796
34.792
34.788
34.784
34.78
34.776
34.772
34.768
34.763
34.759
34.754
34.749
34.745
34.741
34.738
34.735
34.734
34.734
34.736
34.742
34.752
34.768
34.789
34.816
34.851
34.892
34.941
34.997
35.061
35.131
35.206
35.286
35.369
35.453
35.537
35.62
35.7
35.776
35.849
35.916
35.977
36.032
36.079
36.118
36.148
36.171
36.187
36.196
36.199
36.197
36.189
36.176
36.16
36.14
36.119
36.097
36.075
36.053
36.031
36.009
35.986
35.962
35.936
35.909
35.882
35.853
35.823
35.793
35.762
35.731
35.699
35.668
35.638
35.608
35.579
35.551
35.523
35.496
35.47
35.444
35.42
35.397
35.375
35.354
35.335
35.317
35.3
35.284
35.269
35.256
35.245
35.236
35.229
35.224
35.222
35.222
35.224
35.23
35.238
35.249
35.264
35.28
35.299
35.318
35.337
35.357
35.376
35.395
35.414
35.432
35.448
35.461
35.472
35.48
35.486
35.489
35.491
35.49
35.488
35.485
35.479
35.472
35.464
35.454
35.444
35.433
35.42
35.407
35.393
35.378
35.362
35.346
35.328
35.31
35.29
35.27
35.25
35.23
35.21
35.191
35.172
35.153
35.137
35.121
35.107
35.095
35.084
35.073
35.063
35.053
35.044
35.034
35.023
35.012
35.0
34.988
34.974
34.959
34.944
34.927
34.91
34.893
34.876
34.859
34.843
34.828
34.816
34.807
34.8
34.795
34.792
34.791
34.79
34.789
34.789
34.787
34.785
34.782
34.778
34.773
34.768
34.762
34.756
34.75
34.744
34.739
34.733
34.729
34.725
34.722
34.72
34.718
34.716
34.715
34.715
34.714
34.712
34.71
34.705
34.7
34.694
34.688
34.681
34.673
34.666
34.658
34.651
34.644
34.638
34.633
34.63
34.628
34.629
34.633
34.64
34.652
34.669
34.69
34.718
34.752
34.793
34.84
34.896
34.96
35.032
35.113
35.201
35.296
35.395
35.497
35.599
35.699
35.794
35.882
35.963
36.035
36.098
36.151
36.195
36.229
36.254
36.272
36.282
36.286
36.283
36.276
36.265
36.249
36.23
36.208
36.184
36.158
36.131
36.104
36.079
36.055
36.033
36.013
35.994
35.977
35.961
35.945
35.93
35.913
35.896
35.877
35.856
35.834
35.811
35.786
35.762
35.737
35.712
35.687
35.662
35.636
35.611
35.587
35.563
35.541
35.52
35.502
35.485
35.47
35.456
35.443
35.43
35.418
35.406
35.396
35.387
35.381
35.377
35.375
35.374
35.375
35.378
35.382
35.389
35.397
35.406
35.417
35.429
35.442
35.457
35.472
35.489
35.505
35.521
35.535
35.548
35.558
35.564
35.567
35.566
35.562
35.554
35.542
35.528
35.512
35.494
35.475
35.455
35.436
35.418
35.4
35.383
35.368
35.354
35.341
35.329
35.319
35.309
35.299
35.289
35.278
35.265
35.251
35.235
35.217
35.199
35.18
35.16
35.14
35.12
35.1
35.08
35.061
35.042
35.024
35.007
34.99
34.975
34.961
34.947
34.935
34.924
34.914
34.905
34.898
34.892
34.886
34.882
34.878
34.874
34.871
34.867
34.863
34.859
34.854
34.849
34.842
34.835
34.827
34.82
34.812
34.805
34.798
34.79
34.782
34.775
34.768
34.762
34.758
34.756
34.755
34.756
34.756
34.757
34.757
34.757
34.756
34.754
34.751
34.745
34.738
34.729
34.718
34.705
34.692
34.679
34.667
34.657
34.648
34.641
34.635
34.632
34.629
34.627
34.625
34.623
34.622
34.62
34.618
34.616
34.615
34.618
34.624
34.634
34.651
34.673
34.703
34.74
34.785
34.837
34.897
34.964
35.036
35.113
35.193
35.275
35.359
35.444
35.529
35.613
35.695
35.773
35.847
35.916
35.98
36.036
36.085
36.127
36.16
36.185
36.204
36.215
36.22
36.219
36.212
36.2
36.183
36.163
36.14
36.115
36.089
36.062
36.034
36.006
35.978
35.95
35.923
35.896
35.87
35.844
35.818
35.793
35.767
35.742
35.717
35.693
35.668
35.644
35.62
35.597
35.573
35.549
35.525
35.501
35.475
35.449
35.423
35.396
35.37
35.344
35.32
35.296
35.275
35.255
35.238
35.225
35.214
35.207
35.203
35.202
35.205
35.211
35.22
35.231
35.244
35.257
35.27
35.283
35.296
35.308
35.32
35.33
35.341
35.351
35.361
35.371
35.381
35.391
35.402
35.412
35.423
35.431
35.438
35.443
35.445
35.444
35.439
35.431
35.419
35.405
35.388
35.368
35.347
35.325
35.304
35.282
35.262
35.243
35.225
35.209
35.195
35.182
35.171
35.162
35.154
35.148
35.142
35.136
35.13
35.124
35.115
35.106
35.094
35.08
35.065
35.05
35.033
35.016
34.999
34.983
34.966
34.951
34.937
34.925
34.914
34.906
34.899
34.893
34.888
34.884
34.879
34.875
34.871
34.867
34.862
34.857
34.852
34.847
34.841
34.834
34.826
34.817
34.806
34.795
34.782
34.769
34.756
34.743
34.731
34.72
34.71
34.703
34.697
34.692
34.689
34.687
34.686
34.685
34.685
34.685
34.685
34.685
34.686
34.687
34.687
34.685
34.682
34.678
34.672
34.664
34.656
34.647
34.638
34.63
34.623
34.617
34.613
34.611
34.613
34.617
34.624
34.636
34.653
34.675
34.703
34.737
34.779
34.829
34.887
34.953
35.027
35.107
35.193
35.282
35.372
35.462
35.549
35.632
35.708
35.776
35.835
35.885
35.926
35.958
35.982
35.998
36.007
36.008
36.004
35.995
35.982
35.965
35.945
35.924
35.901
35.877
35.852
35.826
35.801
35.776
35.751
35.727
35.704
35.681
35.658
35.636
35.613
35.591
35.57
35.549
35.528
35.508
35.487
35.466
35.445
35.423
35.399
35.375
35.351
35.326
35.301
35.276
35.25
35.224
35.199
35.174
35.15
35.129
35.111
35.097
35.087
35.081
35.079
35.08
35.084
35.09
35.098
35.107
35.116
35.126
35.136
35.145
35.153
35.162
35.171
35.181
35.19
35.2
35.21
35.22
35.23
35.239
35.247
35.253
35.257
35.259
35.26
35.257
35.252
35.245
35.236
35.224
35.212
35.198
35.185
35.171
35.157
35.144
35.131
35.119
35.107
35.097
35.088
35.079
35.071
35.061
35.051
35.039
35.027
35.013
34.998
34.982
34.963
34.943
34.923
34.902
34.882
34.862
34.844
34.828
34.812
34.798
34.785
34.774
34.763
34.754
34.747
34.74
34.734
34.729
34.724
34.72
34.715
34.708
34.701
34.693
34.684
34.675
34.664
34.653
34.641
34.629
34.616
34.604
34.593
34.583
34.574
34.566
34.559
34.553
34.548
34.544
34.542
34.54
34.538
34.538
34.538
34.539
34.539
34.54
34.541
34.542
34.542
34.543
34.544
34.546
34.548
34.551
34.554
34.555
34.555
34.554
34.55
34.544
34.536
34.526
34.515
34.502
34.488
34.474
34.458
34.444
34.43
34.418
34.41
34.405
34.404
34.406
34.412
34.419
34.429
34.441
34.455
34.471
34.49
34.511
34.535
34.563
34.595
34.632
34.674
34.721
34.773
34.83
34.891
34.957
35.027
35.1
35.176
35.252
35.329
35.404
35.477
35.546
35.611
35.67
35.723
35.769
35.808
35.839
35.863
35.879
35.889
35.892
35.889
35.88
35.867
35.849
35.827
35.8
35.77
35.737
35.702
35.667
35.633
35.599
35.567
35.536
35.507
35.478
35.451
35.426
35.403
35.383
35.365
35.35
35.336
35.324
35.312
35.3
35.288
35.275
35.261
35.246
35.229
35.211
35.191
35.171
35.151
35.13
35.109
35.087
35.065
35.043
35.023
35.006
34.991
34.98
34.973
34.971
34.972
34.977
34.985
34.996
35.009
35.023
35.038
35.055
35.071
35.087
35.101
35.114
35.125
35.135
35.142
35.149
35.155
35.159
35.161
35.16
35.156
35.15
35.142
35.132
35.121
35.108
35.095
35.081
35.067
35.054
35.042
35.031
35.021
35.012
35.003
34.995
34.986
34.978
34.969
34.961
34.952
34.943
34.933
34.923
34.912
34.901
34.889
34.876
34.862
34.846
34.83
34.812
34.794
34.776
34.757
34.738
34.72
34.704
34.688
34.674
34.661
34.648
34.636
34.625
34.616
34.607
34.6
34.594
34.588
34.583
34.578
34.574
34.57
34.565
34.561
34.556
34.551
34.546
34.54
34.535
34.53
34.526
34.522
34.518
34.514
34.51
34.507
34.505
34.504
34.503
34.503
34.502
34.502
34.501
34.5
34.499
34.498
34.497
34.494
34.492
34.488
34.484
34.48
34.475
34.47
34.466
34.462
34.457
34.453
34.447
34.442
34.437
34.432
34.428
34.425
34.423
34.423
34.423
34.424
34.426
34.429
34.432
34.435
34.439
34.442
34.445
34.449
34.454
34.461
34.471
34.485
34.503
34.528
34.56
34.599
34.646
34.701
34.763
34.832
34.905
34.983
35.064
35.146
35.228
35.309
35.386
35.459
35.527
35.59
35.645
35.693
35.734
35.765
35.788
35.803
35.811
35.81
35.803
35.79
35.771
35.747
35.719
35.688
35.656
35.622
35.589
35.556
35.524
35.495
35.468
35.444
35.424
35.406
35.39
35.376
35.364
35.352
35.34
35.328
35.315
35.3
35.284
35.264
35.243
35.219
35.193
35.167
35.14
35.113
35.086
35.061
35.036
35.013
34.991
34.972
34.954
34.939
34.926
34.916
34.909
34.906
34.905
34.908
34.914
34.923
34.933
34.946
34.961
34.976
34.993
35.01
35.028
35.045
35.062
35.078
35.092
35.105
35.115
35.122
35.126
35.129
35.13
35.131
35.131
35.13
35.13
35.129
35.128
35.127
35.126
35.125
35.123
35.12
35.115
35.11
35.103
35.095
35.086
35.076
35.066
35.054
35.042
35.029
35.017
35.005
34.993
34.981
34.97
34.958
34.946
34.934
34.922
34.911
34.899
34.888
34.877
34.867
34.858
34.849
34.841
34.834
34.829
34.825
34.823
34.822
34.821
34.82
34.818
34.815
34.811
34.806
34.799
34.791
34.782
34.773
34.763
34.754
34.745
34.736
34.728
34.721
34.714
34.708
34.701
34.695
34.689
34.686
34.684
34.685
34.687
34.691
34.696
34.701
34.705
34.709
34.711
34.712
34.71
34.708
34.703
34.697
34.69
34.681
34.671
34.66
34.649
34.639
34.63
34.623
34.618
34.616
34.617
34.62
34.628
34.639
34.655
34.677
34.703
34.736
34.775
34.819
34.868
34.922
34.981
35.043
35.108
35.175
35.243
35.311
35.378
35.442
35.503
35.559
35.611
35.657
35.697
35.73
35.758
35.779
35.794
35.804
35.808
35.808
35.804
35.797
35.787
35.775
35.762
35.747
35.73
35.712
35.691
35.669
35.645
35.62
35.593
35.566
35.538
35.51
35.482
35.455
35.428
35.402
35.377
35.352
35.328
35.304
35.28
35.256
35.231
35.205
35.179
35.154
35.128
35.103
35.079
35.057
35.036
35.017
35.001
34.989
34.979
34.973
34.97
34.969
34.97
34.973
34.978
34.984
34.991
35.0
35.01
35.021
35.032
35.045
35.058
35.07
35.082
35.095
35.107
35.119
35.131
35.143
35.156
35.169
35.182
35.194
35.205
35.214
35.22
35.225
35.228
35.228
35.226
35.222
35.218
35.212
35.206
35.199
35.191
35.182
35.173
35.163
35.153
35.142
35.131
35.118
35.104
35.089
35.074
35.058
35.041
35.025
35.009
34.993
34.976
34.959
34.942
34.926
34.909
34.892
34.875
34.859
34.843
34.829
34.816
34.803
34.792
34.781
34.77
34.761
34.753
34.746
34.74
34.737
34.734
34.733
34.731
34.728
34.726
34.723
34.721
34.718
34.714
34.71
34.705
34.699
34.692
34.685
34.677
34.668
34.658
34.647
34.636
34.624
34.613
34.602
34.593
34.586
34.581
34.578
34.577
34.578
34.579
34.581
34.583
34.585
34.587
34.589
34.591
34.593
34.596
34.599
34.603
34.61
34.62
34.634
34.653
34.676
34.703
34.736
34.775
34.819
34.87
34.927
34.991
35.061
35.136
35.216
35.3
35.386
35.474
35.561
35.646
35.727
35.802
35.872
35.933
35.985
36.027
36.06
36.083
36.097
36.103
36.101
36.092
36.078
36.059
36.036
36.01
35.982
35.952
35.921
35.889
35.858
35.827
35.797
35.769
35.743
35.719
35.697
35.676
35.658
35.64
35.624
35.608
35.593
35.578
35.563
35.547
35.529
35.51
35.488
35.465
35.439
35.413
35.386
35.359
35.333
35.309
35.287
35.266
35.248
35.231
35.216
35.203
35.193
35.185
35.181
35.179
35.18
35.184
35.19
35.198
35.209
35.22
35.232
35.245
35.256
35.267
35.277
35.286
35.294
35.301
35.308
35.315
35.322
35.329
35.335
35.341
35.346
35.351
35.354
35.356
35.356
35.354
35.348
35.34
35.331
35.32
35.31
35.299
35.29
35.282
35.274
35.268
35.263
35.259
35.255
35.251
35.245
35.238
35.228
35.215
35.201
35.185
35.168
35.151
35.133
35.115
35.098
35.081
35.066
35.053
35.042
35.032
35.025
35.019
35.014
35.009
35.005
35.001
34.997
34.992
34.987
34.98
34.972
34.962
34.951
34.938
34.924
34.91
34.895
34.881
34.868
34.854
34.842
34.831
34.821
34.811
34.802
34.795
34.789
34.784
34.78
34.776
34.774
34.772
34.771
34.771
34.772
34.773
34.775
34.776
34.777
34.777
34.777
34.775
34.773
34.769
34.765
34.759
34.754
34.749
34.744
34.742
34.741
34.743
34.749
34.76
34.778
34.803
34.836
34.877
34.926
34.983
35.049
35.122
35.202
35.287
35.376
35.466
35.556
35.642
35.725
35.802
35.872
35.935
35.991
36.038
36.076
36.105
36.125
36.136
36.141
36.139
36.132
36.119
36.104
36.086
36.065
36.044
36.021
35.997
35.974
35.952
35.931
35.911
35.891
35.871
35.851
35.829
35.806
35.782
35.757
35.732
35.707
35.682
35.656
35.63
35.604
35.58
35.557
35.535
35.515
35.496
35.478
35.461
35.444
35.428
35.413
35.398
35.383
35.368
35.354
35.341
35.328
35.316
35.306
35.296
35.288
35.281
35.277
35.276
35.277
35.281
35.288
35.296
35.306
35.318
35.329
35.34
35.351
35.36
35.368
35.375
35.381
35.386
35.39
35.394
35.397
35.4
35.403
35.406
35.41
35.414
35.418
35.421
35.423
35.423
35.422
35.419
35.415
35.409
35.401
35.391
35.378
35.363
35.345
35.325
35.304
35.282
35.26
35.238
35.219
35.201
35.186
35.173
35.163
35.154
35.146
35.139
35.132
35.126
35.119
35.112
35.105
35.097
35.087
35.077
35.066
35.055
35.043
35.031
35.02
35.008
34.997
34.986
34.976
34.965
34.953
34.941
34.929
34.917
34.906
34.896
34.887
34.879
34.872
34.868
34.866
34.866
34.867
34.869
34.871
34.872
34.872
34.87
34.868
34.865
34.863
34.861
34.859
34.858
34.858
34.857
34.857
34.856
34.855
34.854
34.853
34.851
34.847
34.843
34.837
34.829
34.821
34.812
34.803
34.793
34.784
34.775
34.767
34.76
34.753
34.748
34.743
34.74
34.738
34.737
34.737
34.738
34.741
34.745
34.752
34.76
34.772
34.788
34.808
34.834
34.866
34.904
34.95
35.002
35.061
35.126
35.196
35.271
35.349
35.43
35.512
35.593
35.672
35.749
35.82
35.887
35.947
36.002
36.05
36.091
36.124
36.151
36.17
36.183
36.189
36.188
36.182
36.171
36.155
36.134
36.11
36.082
36.053
36.022
35.992
35.962
35.933
35.904
35.876
35.849
35.822
35.796
35.77
35.744
35.719
35.695
35.671
35.647
35.623
35.599
35.574
35.548
35.523
35.499
35.475
35.452
35.43
35.41
35.39
35.373
35.358
35.345
35.334
35.325
35.318
35.313
35.309
35.306
35.305
35.306
35.309
35.314
35.322
35.331
35.342
35.354
35.369
35.385
35.401
35.419
35.435
35.45
35.463
35.474
35.484
35.492
35.499
35.504
35.509
35.512
35.515
35.516
35.515
35.514
35.512
35.509
35.506
35.502
35.497
35.491
35.485
35.478
35.47
35.461
35.451
35.441
35.43
35.418
35.406
35.393
35.38
35.368
35.356
35.343
35.331
35.317
35.303
35.288
35.274
35.259
35.243
35.225
35.207
35.188
35.168
35.149
35.13
35.112
35.095
35.081
35.067
35.055
35.045
35.036
35.028
35.022
35.016
35.011
35.007
35.002
34.997
34.991
34.984
34.976
34.966
34.956
34.945
34.934
34.922
34.911
34.9
34.889
34.879
34.871
34.865
34.859
34.854
34.85
34.847
34.845
34.843
34.843
34.845
34.847
34.849
34.853
34.856
34.861
34.865
34.87
34.875
34.88
34.884
34.887
34.89
34.894
34.898
34.903
34.91
34.92
34.932
34.948
34.969
34.996
35.028
35.067
35.113
35.165
35.223
35.288
35.358
35.433
35.511
35.591
35.671
35.751
35.828
35.903
35.972
36.037
36.096
36.148
36.192
36.229
36.257
36.275
36.285
36.285
36.275
36.256
36.229
36.196
36.156
36.113
36.068
36.022
35.977
35.933
35.892
35.856
35.824
35.796
35.773
35.752
35.733
35.715
35.699
35.683
35.668
35.652
35.636
35.62
35.602
35.583
35.563
35.542
35.52
35.496
35.471
35.446
35.419
35.393
35.367
35.342
35.319
35.298
35.279
35.264
35.252
35.245
35.24
35.239
35.242
35.247
35.255
35.266
35.279
35.295
35.312
35.33
35.349
35.367
35.384
35.4
35.414
35.427
35.437
35.445
35.452
35.459
35.466
35.473
35.479
35.486
35.492
35.497
35.502
35.505
35.507
35.508
35.507
35.504
35.499
35.493
35.485
35.475
35.464
35.451
35.437
35.422
35.405
35.388
35.371
35.353
35.336
35.318
35.301
35.284
35.267
35.252
35.236
35.221
35.207
35.192
35.179
35.166
35.154
35.141
35.128
35.114
35.099
35.084
35.068
35.052
35.037
35.023
35.01
34.999
34.99
34.983
34.978
34.974
34.971
34.968
34.965
34.961
34.955
34.949
34.941
34.933
34.925
34.916
34.908
34.9
34.891
34.883
34.875
34.868
34.862
34.857
34.853
34.851
34.849
34.848
34.847
34.846
34.844
34.842
34.838
34.834
34.828
34.821
34.812
34.803
34.794
34.786
34.777
34.77
34.763
34.757
34.751
34.746
34.743
34.743
34.747
34.756
34.769
34.788
34.814
34.847
34.887
34.936
34.992
35.056
35.126
35.201
35.281
35.364
35.449
35.534
35.619
35.701
