Trial 3:3back
35.585
35.588
35.588
35.586
35.581
35.574
35.563
35.549
35.531
35.51
35.485
35.458
35.428
35.395
35.362
35.327
35.291
35.255
35.219
35.183
35.147
35.112
35.077
35.042
35.007
34.971
34.936
34.901
34.866
34.829
34.792
34.753
34.713
34.673
34.633
34.593
34.553
34.515
34.477
34.441
34.407
34.374
34.343
34.312
34.283
34.254
34.225
34.197
34.169
34.142
34.116
34.09
34.065
34.04
34.016
33.993
33.969
33.946
33.922
33.898
33.873
33.848
33.823
33.799
33.775
33.751
33.729
33.707
33.685
33.664
33.642
33.622
33.602
33.583
33.566
33.551
33.539
33.533
33.534
33.544
33.567
33.604
33.658
33.729
33.82
33.932
34.064
34.215
34.385
34.571
34.769
34.978
35.194
35.412
35.63
35.845
36.053
36.253
36.441
36.616
36.776
36.919
37.045
37.153
37.244
37.317
37.373
37.413
37.437
37.447
37.445
37.431
37.408
37.378
37.34
37.298
37.25
37.198
37.143
37.084
37.022
36.958
36.892
36.825
36.759
36.692
36.627
36.563
36.502
36.442
36.385
36.331
36.279
36.229
36.182
36.136
36.092
36.049
36.007
35.965
35.923
35.882
35.841
35.799
35.758
35.717
35.677
35.637
35.597
35.559
35.523
35.49
35.459
35.431
35.407
35.385
35.367
35.352
35.34
35.33
35.323
35.318
35.314
35.313
35.313
35.316
35.321
35.327
35.336
35.348
35.36
35.374
35.388
35.401
35.412
35.42
35.426
35.427
35.425
35.418
35.407
35.392
35.373
35.349
35.323
35.294
35.262
35.23
35.197
35.164
35.131
35.099
35.066
35.034
35.003
34.971
34.938
34.906
34.873
34.84
34.807
34.773
34.739
34.705
34.671
34.637
34.603
34.569
34.535
34.5
34.466
34.43
34.395
34.359
34.324
34.288
34.253
34.218
34.184
34.15
34.116
34.084
34.054
34.025
33.997
33.971
33.945
33.92
33.895
33.872
33.848
33.826
33.804
33.782
33.76
33.737
33.714
33.691
33.668
33.645
33.621
33.597
33.574
33.552
33.532
33.514
33.498
33.484
33.474
33.467
33.464
33.466
33.474
33.489
33.513
33.549
33.597
33.66
33.74
33.838
33.954
34.089
34.241
34.409
34.591
34.785
34.988
35.197
35.41
35.622
35.831
36.035
36.229
36.412
36.582
36.736
36.875
36.996
37.098
37.182
37.248
37.296
37.327
37.344
37.345
37.334
37.312
37.28
37.239
37.193
37.14
37.084
37.024
36.962
36.897
36.83
36.762
36.692
36.621
36.549
36.476
36.404
36.332
36.262
36.195
36.13
36.068
36.011
35.957
35.907
35.859
35.814
35.771
35.73
35.69
35.649
35.609
35.568
35.526
35.484
35.441
35.399
35.357
35.317
35.28
35.245
35.212
35.183
35.158
35.135
35.117
35.102
35.091
35.084
35.081
35.081
35.086
35.093
35.103
35.115
35.129
35.144
35.161
35.178
35.196
35.214
35.231
35.245
35.258
35.268
35.274
35.277
35.276
35.27
35.261
35.247
35.23
35.209
35.185
35.158
35.127
35.094
35.06
35.023
34.984
34.945
34.906
34.866
34.826
34.787
34.748
34.708
34.668
34.628
34.586
34.544
34.502
34.459
34.417
34.376
34.336
34.297
34.259
34.223
34.188
34.155
34.122
34.091
34.061
34.031
34.001
33.971
33.941
33.91
33.88
33.849
33.819
33.79
33.76
33.731
33.703
33.676
33.65
33.625
33.601
33.579
33.558
33.538
33.519
33.501
33.483
33.466
33.449
33.433
33.416
33.4
33.383
33.366
33.35
33.333
33.318
33.304
33.293
33.288
33.29
33.301
33.324
33.362
33.416
33.488
33.579
33.689
33.819
33.967
34.133
34.315
34.51
34.717
34.931
35.15
35.371
35.589
35.803
36.008
36.202
36.381
36.545
36.692
36.821
36.932
37.024
37.099
37.157
37.197
37.222
37.23
37.225
37.207
37.179
37.141
37.095
37.042
36.985
36.923
36.858
36.791
36.722
36.652
36.582
36.511
36.441
36.372
36.303
36.236
36.171
36.107
36.045
35.985
35.928
35.872
35.817
35.764
35.712
35.661
35.611
35.561
35.513
35.465
35.417
35.37
35.324
35.278
35.233
35.19
35.148
35.108
35.07
35.036
35.006
34.979
34.957
34.94
34.928
34.922
34.92
34.923
34.93
34.94
34.953
34.967
34.983
34.999
35.015
35.031
35.045
35.058
35.069
35.078
35.086
35.091
35.094
35.096
35.095
35.092
35.088
35.082
35.075
35.066
35.055
35.041
35.024
35.004
34.98
34.954
34.924
34.893
34.86
34.826
34.791
34.755
34.72
34.684
34.649
34.613
34.578
34.543
34.508
34.473
34.438
34.403
34.367
34.331
34.294
34.256
34.217
34.177
34.138
34.099
34.062
34.026
33.991
33.957
33.926
33.896
33.868
33.842
33.819
33.796
33.776
33.757
33.738
33.719
33.7
33.681
33.661
33.64
33.619
33.597
33.574
33.552
33.53
33.508
33.487
33.466
33.446
33.425
33.404
33.383
33.362
33.34
33.319
33.299
33.279
33.259
33.24
33.222
33.204
33.189
33.176
33.168
33.165
33.171
33.186
33.213
33.255
33.313
33.389
33.483
33.597
33.729
33.881
34.051
34.237
34.439
34.653
34.876
35.107
35.34
35.572
35.801
36.022
36.232
36.43
36.613
36.778
36.925
37.052
37.159
37.247
37.315
37.365
37.398
37.415
37.419
37.409
37.389
37.358
37.32
37.275
37.223
37.167
37.105
37.04
36.973
36.903
36.832
36.761
36.69
36.62
36.551
36.484
36.421
36.36
36.302
36.248
36.198
36.151
36.107
36.067
36.029
35.994
35.961
35.93
35.9
35.871
35.842
35.813
35.783
35.752
35.719
35.686
35.651
35.617
35.584
35.552
35.522
35.495
35.47
35.449
35.43
35.415
35.403
35.394
35.387
35.383
35.382
35.383
35.386
35.39
35.397
35.405
35.415
35.425
35.437
35.448
35.459
35.47
35.478
35.485
35.489
35.49
35.488
35.484
35.478
35.47
35.459
35.447
35.433
35.417
35.4
35.38
35.357
35.332
35.305
35.276
35.244
35.211
35.176
35.14
35.103
35.066
35.028
34.989
34.95
34.91
34.869
34.828
34.786
34.745
34.704
34.663
34.623
34.584
34.545
34.507
34.469
34.434
34.4
34.368
34.338
34.31
34.284
34.261
34.239
34.218
34.197
34.177
34.155
34.132
34.109
34.085
34.06
34.034
34.007
33.979
33.951
33.923
33.894
33.864
33.833
33.802
33.77
33.739
33.709
33.679
33.652
33.626
33.602
33.579
33.559
33.54
33.524
33.51
33.498
33.489
33.484
33.485
33.493
33.511
33.54
33.584
33.643
33.719
33.813
33.927
34.06
34.212
34.382
34.569
34.769
34.981
35.202
35.428
35.654
35.879
36.098
36.309
36.509
36.695
36.866
37.02
37.157
37.275
37.375
37.456
37.518
37.562
37.589
37.601
37.597
37.582
37.555
37.519
37.474
37.423
37.367
37.307
37.244
37.179
37.112
37.045
36.978
36.912
36.847
36.783
36.72
36.659
36.599
36.54
36.482
36.426
36.371
36.318
36.266
36.216
36.168
36.122
36.077
36.034
35.992
35.952
35.912
35.872
35.833
35.795
35.757
35.72
35.684
35.648
35.614
35.58
35.548
35.518
35.491
35.466
35.444
35.426
35.41
35.396
35.386
35.378
35.372
35.37
35.371
35.374
35.38
35.387
35.396
35.404
35.413
35.422
35.431
35.439
35.445
35.451
35.454
35.455
35.454
35.451
35.444
35.434
35.421
35.405
35.386
35.364
35.339
35.311
35.281
35.249
35.216
35.181
35.146
35.112
35.077
35.043
35.011
34.98
34.95
34.92
34.892
34.863
34.834
34.804
34.774
34.741
34.708
34.673
34.638
34.602
34.567
34.532
34.497
34.463
34.43
34.398
34.366
34.336
34.306
34.276
34.248
34.22
34.192
34.164
34.136
34.109
34.082
34.056
34.03
34.004
33.979
33.955
33.93
33.906
33.883
33.861
33.838
33.817
33.797
33.777
33.758
33.74
33.723
33.706
33.689
33.673
33.657
33.642
33.627
33.613
33.602
33.595
33.593
33.598
33.611
33.636
33.675
33.73
33.802
33.894
34.004
34.133
34.281
34.446
34.626
34.82
35.024
35.237
35.456
35.677
35.897
36.114
36.324
36.524
36.712
36.886
37.044
37.183
37.304
37.405
37.487
37.551
37.597
37.625
37.639
37.638
37.624
37.598
37.562
37.517
37.464
37.406
37.342
37.275
37.204
37.133
37.06
36.987
36.914
36.842
36.771
36.702
36.635
36.57
36.507
36.448
36.39
36.335
36.282
36.23
36.179
36.129
36.079
36.029
35.981
35.932
35.885
35.839
35.794
35.75
35.706
35.664
35.624
35.585
35.548
35.514
35.482
35.454
35.429
35.408
35.392
35.379
35.372
35.368
35.369
35.372
35.38
35.389
35.401
35.415
35.43
35.444
35.459
35.473
35.487
35.5
35.512
35.524
35.534
35.543
35.55
35.555
35.557
35.556
35.552
35.544
35.533
35.518
35.5
35.478
35.453
35.426
35.396
35.364
35.331
35.297
35.263
35.229
35.196
35.162
35.128
35.092
35.056
35.018
34.979
34.94
34.901
34.862
34.823
34.786
34.749
34.714
34.68
34.648
34.617
34.587
34.557
34.528
34.499
34.469
34.438
34.406
34.374
34.341
34.309
34.276
34.244
34.213
34.182
34.152
34.124
34.097
34.071
34.046
34.021
33.998
33.974
33.951
33.928
33.904
33.88
33.855
33.83
33.804
33.778
33.752
33.727
33.702
33.678
33.655
33.634
33.616
33.603
33.597
33.599
33.613
33.64
33.683
33.744
33.823
33.923
34.043
34.182
34.341
34.516
34.707
34.909
35.119
35.336
35.555
35.773
35.987
36.193
36.39
36.573
36.742
36.895
37.029
37.143
37.239
37.316
37.374
37.416
37.441
37.452
37.45
37.435
37.409
37.374
37.331
37.281
37.225
37.164
37.1
37.033
36.963
36.89
36.815
36.738
36.66
36.582
36.504
36.427
36.352
36.28
36.211
36.146
36.084
36.027
35.973
35.923
35.876
35.831
35.789
35.749
35.71
35.672
35.633
35.593
35.553
35.513
35.472
35.432
35.393
35.355
35.318
35.284
35.254
35.228
35.207
35.192
35.182
35.177
35.177
35.18
35.186
35.195
35.206
35.217
35.23
35.242
35.254
35.266
35.278
35.289
35.299
35.307
35.315
35.32
35.324
35.326
35.325
35.322
35.317
35.31
35.299
35.285
35.268
35.248
35.225
35.199
35.171
35.141
35.108
35.074
35.039
35.003
34.967
34.93
34.895
34.86
34.827
34.794
34.763
34.733
34.703
34.673
34.644
34.614
34.584
34.553
34.521
34.489
34.456
34.424
34.392
34.361
34.331
34.302
34.273
34.245
34.217
34.19
34.164
34.138
34.113
34.089
34.065
34.043
34.021
34.0
33.98
33.961
33.943
33.925
33.907
33.889
33.872
33.855
33.836
33.818
33.798
33.777
33.755
33.733
33.709
33.685
33.66
33.635
33.61
33.586
33.563
33.541
33.524
33.51
33.503
33.504
33.514
33.537
33.573
33.627
33.698
33.791
33.904
34.04
34.196
34.373
34.569
34.781
35.005
35.24
35.48
35.723
35.965
36.203
36.433
36.653
36.861
37.054
37.231
37.39
37.53
37.651
37.753
37.836
37.9
37.948
37.98
37.996
37.998
37.988
37.967
37.936
37.895
37.847
37.792
37.732
37.668
37.601
37.532
37.461
37.39
37.32
37.251
37.183
37.118
37.054
36.994
36.936
36.881
36.829
36.781
36.735
36.692
36.652
36.613
36.576
36.539
36.502
36.466
36.428
36.39
36.351
36.31
36.268
36.225
36.181
36.136
36.091
36.047
36.005
35.964
35.926
35.89
35.858
35.831
35.807
35.788
35.773
35.763
35.757
35.755
35.757
35.762
35.768
35.776
35.784
35.791
35.798
35.803
35.807
35.809
35.81
35.81
35.808
35.805
35.801
35.796
35.789
35.781
35.771
35.759
35.745
35.729
35.71
35.689
35.665
35.638
35.609
35.578
35.545
35.511
35.476
35.44
35.403
35.366
35.328
35.289
35.249
35.208
35.168
35.126
35.085
35.044
35.003
34.963
34.924
34.886
34.849
34.813
34.778
34.745
34.713
34.681
34.651
34.622
34.594
34.566
34.538
34.51
34.483
34.455
34.427
34.399
34.372
34.345
34.319
34.294
34.269
34.245
34.222
34.198
34.176
34.153
34.129
34.106
34.082
34.058
34.033
34.008
33.983
33.958
33.934
33.911
33.89
33.871
33.855
33.841
33.832
33.828
33.831
33.841
33.862
33.895
33.943
34.006
34.087
34.188
34.309
34.451
34.612
34.794
34.994
35.209
35.437
35.675
35.918
36.162
36.405
36.642
36.872
37.09
37.295
37.484
37.656
37.811
37.947
38.064
38.161
38.239
38.299
38.342
38.367
38.377
38.373
38.355
38.325
38.285
38.236
38.181
38.119
38.054
37.986
37.916
37.845
37.774
37.703
37.633
37.563
37.494
37.426
37.359
37.295
37.235
37.177
37.122
37.07
37.021
36.974
36.929
36.888
36.848
36.811
36.774
36.739
36.703
36.666
36.629
36.59
36.549
36.506
36.461
36.415
36.369
36.323
36.279
36.237
36.198
36.162
36.129
36.1
36.076
36.055
36.038
36.025
36.016
36.011
36.009
36.009
36.011
36.014
36.018
36.021
36.025
36.028
36.03
36.032
36.033
36.033
36.031
36.029
36.024
36.018
36.009
35.999
35.985
35.969
35.951
35.928
35.903
35.875
35.845
35.812
35.778
35.743
35.706
35.667
35.628
35.588
35.547
35.505
35.463
35.419
35.375
35.331
35.288
35.244
35.201
35.158
35.117
35.076
35.035
34.995
34.956
34.916
34.877
34.838
34.8
34.762
34.724
34.688
34.652
34.618
34.585
34.555
34.525
34.497
34.47
34.444
34.417
34.391
34.364
34.336
34.308
34.281
34.253
34.226
34.199
34.173
34.147
34.122
34.097
34.073
34.049
34.026
34.002
33.979
33.955
33.931
33.907
33.884
33.862
33.841
33.821
33.804
33.789
33.778
33.772
33.773
33.784
33.805
33.84
33.891
33.959
34.047
34.156
34.285
34.436
34.607
34.797
35.004
35.225
35.458
35.699
35.945
36.193
36.439
36.678
36.909
37.126
37.328
37.513
37.679
37.825
37.951
38.056
38.141
38.206
38.252
38.28
38.292
38.29
38.274
38.247
38.211
38.167
38.117
38.062
38.002
37.938
37.871
37.801
37.729
37.655
37.579
37.503
37.427
37.351
37.277
37.204
37.133
37.064
36.998
36.935
36.875
36.818
36.763
36.711
36.66
36.611
36.563
36.516
36.468
36.42
36.372
36.324
36.276
36.229
36.182
36.137
36.094
36.051
36.012
35.975
35.941
35.911
35.886
35.866
35.85
35.84
35.834
35.832
35.834
35.839
35.847
35.857
35.868
35.881
35.895
35.909
35.923
35.936
35.948
35.958
35.966
35.97
35.971
35.969
35.963
35.954
35.94
35.924
35.903
35.88
35.853
35.824
35.792
35.759
35.724
35.689
35.653
35.617
35.581
35.545
35.509
35.473
35.437
35.4
35.363
35.325
35.287
35.247
35.206
35.165
35.121
35.077
35.031
34.984
34.935
34.887
34.839
34.793
34.748
34.704
34.662
34.622
34.582
34.544
34.507
34.47
34.434
34.4
34.366
34.334
34.303
34.272
34.242
34.213
34.185
34.158
34.132
34.106
34.082
34.059
34.036
34.013
33.99
33.966
33.941
33.914
33.887
33.858
33.83
33.803
33.776
33.751
33.728
33.708
33.692
33.68
33.675
33.677
33.69
33.716
33.756
33.815
33.892
33.99
34.108
34.247
34.406
34.582
34.775
34.982
35.199
35.424
35.653
35.882
36.109
36.331
36.544
36.747
36.938
37.113
37.272
37.413
37.537
37.641
37.726
37.792
37.839
37.867
37.876
37.869
37.847
37.812
37.766
37.71
37.647
37.578
37.505
37.428
37.348
37.266
37.182
37.097
37.011
36.926
36.841
36.757
36.675
36.595
36.517
36.443
36.372
36.305
36.241
36.181
36.123
36.067
36.013
35.959
35.905
35.851
35.796
35.74
35.685
35.63
35.575
35.522
35.471
35.422
35.376
35.334
35.296
35.263
35.234
35.212
35.194
35.182
35.174
35.172
35.175
35.183
35.195
35.211
35.23
35.25
35.272
35.294
35.316
35.337
35.355
35.371
35.383
35.392
35.396
35.396
35.393
35.386
35.375
35.362
35.346
35.327
35.306
35.282
35.256
35.227
35.196
35.162
35.127
35.091
35.054
35.016
34.979
34.941
34.904
34.866
34.828
34.789
34.75
34.71
34.669
34.626
34.583
34.539
34.494
34.449
34.405
34.361
34.319
34.279
34.241
34.204
34.169
34.134
34.101
34.068
34.034
34.001
33.969
33.936
33.903
33.871
33.839
33.808
33.776
33.745
33.714
33.684
33.654
33.624
33.596
33.567
33.54
33.514
33.489
33.465
33.444
33.423
33.404
33.387
33.37
33.353
33.337
33.32
33.303
33.286
33.269
33.254
33.242
33.235
33.235
33.244
33.265
33.3
33.351
33.422
33.514
33.629
33.767
33.928
34.111
34.314
34.534
34.769
35.014
35.266
35.521
35.775
36.024
36.265
36.494
36.71
36.911
37.093
37.257
37.402
37.526
37.63
37.714
37.78
37.827
37.857
37.871
37.871
37.858
37.835
37.801
37.759
37.71
37.655
37.595
37.53
37.463
37.393
37.322
37.249
37.175
37.101
37.027
36.954
36.881
36.81
36.741
36.675
36.611
36.55
36.492
36.436
36.382
36.331
36.281
36.233
36.187
36.143
36.099
36.057
36.014
35.972
35.93
35.887
35.845
35.802
35.76
35.719
35.679
35.642
35.606
35.574
35.545
35.521
35.5
35.484
35.473
35.464
35.459
35.457
35.456
35.457
35.458
35.461
35.463
35.466
35.47
35.473
35.476
35.479
35.482
35.485
35.486
35.485
35.482
35.476
35.467
35.455
35.44
35.421
35.399
35.374
35.347
35.318
35.288
35.257
35.226
35.194
35.162
35.128
35.093
35.056
35.018
34.978
34.937
34.895
34.854
34.812
34.771
34.73
34.69
34.65
34.611
34.571
34.531
34.492
34.452
34.412
34.373
34.334
34.297
34.262
34.228
34.196
34.166
34.139
34.113
34.089
34.065
34.04
34.015
33.989
33.963
33.937
33.91
33.884
33.859
33.833
33.808
33.783
33.758
33.734
33.71
33.687
33.664
33.641
33.618
33.595
33.574
33.552
33.531
33.51
33.49
33.471
33.455
33.442
33.434
33.433
33.442
33.463
33.498
33.549
33.619
33.709
33.82
33.952
34.106
34.279
34.47
34.678
34.9
35.131
35.369
35.61
35.851
36.088
36.318
36.539
36.748
36.942
37.12
37.281
37.423
37.545
37.647
37.729
37.791
37.835
37.861
37.871
37.867
37.851
37.824
37.787
37.743
37.691
37.634
37.571
37.504
37.435
37.363
37.29
37.218
37.145
37.074
37.004
36.936
36.87
36.805
36.742
36.681
36.623
36.568
36.516
36.467
36.422
36.38
36.34
36.302
36.265
36.229
36.191
36.152
36.111
36.069
36.025
35.98
35.934
35.89
35.846
35.803
35.763
35.725
35.69
35.659
35.631
35.605
35.583
35.563
35.546
35.532
35.519
35.508
35.499
35.492
35.486
35.481
35.477
35.474
35.471
35.468
35.464
35.459
35.454
35.448
35.442
35.434
35.425
35.415
35.403
35.389
35.374
35.356
35.336
35.314
35.29
35.263
35.234
35.202
35.168
35.132
35.094
35.054
35.013
34.971
34.929
34.887
34.845
34.804
34.762
34.722
34.682
34.643
34.606
34.57
34.535
34.502
34.469
34.438
34.407
34.377
34.347
34.318
34.29
34.261
34.232
34.203
34.174
34.144
34.114
34.083
34.051
34.019
33.987
33.954
33.922
33.89
33.859
33.828
33.797
33.767
33.736
33.705
33.674
33.642
33.61
33.578
33.545
33.512
33.479
33.447
33.416
33.387
33.36
33.336
33.315
33.299
33.286
33.28
33.281
33.291
33.313
33.349
33.4
33.467
33.553
33.659
33.785
33.932
34.099
34.285
34.487
34.702
34.927
35.16
35.397
35.634
35.868
36.096
36.314
36.521
36.713
36.89
37.05
37.19
37.311
37.413
37.495
37.558
37.603
37.632
37.645
37.645
37.632
37.607
37.573
37.531
37.482
37.427
37.366
37.301
37.232
37.16
37.085
37.009
36.932
36.857
36.782
36.71
36.641
36.574
36.511
36.451
36.394
36.34
36.287
36.236
36.187
36.138
36.089
36.039
35.99
35.94
35.889
35.839
35.788
35.738
35.688
35.638
35.589
35.541
35.494
35.449
35.407
35.368
35.333
35.3
35.271
35.246
35.225
35.208
35.194
35.184
35.176
35.17
35.167
35.165
35.165
35.166
35.167
35.169
35.171
35.173
35.175
35.175
35.173
35.168
35.159
35.147
35.13
35.11
35.087
35.062
35.036
35.009
34.983
34.958
34.933
34.909
34.887
34.865
34.844
34.823
34.802
34.779
34.754
34.728
34.699
34.668
34.635
34.6
34.564
34.526
34.489
34.451
34.415
34.379
34.343
34.308
34.273
34.239
34.204
34.169
34.135
34.1
34.065
34.029
33.994
33.959
33.924
33.89
33.855
33.821
33.786
33.751
33.717
33.682
33.648
33.614
33.58
33.547
33.514
33.482
33.451
33.42
33.389
33.359
33.328
33.298
33.268
33.24
33.214
33.191
33.172
33.16
33.156
33.162
33.178
33.207
33.25
33.309
33.385
33.48
33.594
33.728
33.88
34.049
34.233
34.43
34.637
34.851
35.07
35.289
35.506
35.718
35.922
36.115
36.295
36.458
36.604
36.732
36.84
36.929
37.0
37.053
37.089
37.11
37.116
37.108
37.088
37.057
37.017
36.968
36.912
36.85
36.784
36.714
36.642
36.567
36.491
36.414
36.337
36.26
36.184
36.108
36.034
35.962
35.891
35.823
35.756
35.692
35.63
35.569
