Trial 3:3back
36.97
37.085
37.189
37.279
37.356
37.42
37.47
37.509
37.536
37.554
37.563
37.564
37.558
37.547
37.53
37.51
37.487
37.462
37.435
37.407
37.379
37.35
37.321
37.291
37.259
37.226
37.192
37.158
37.122
37.084
37.044
37.002
36.958
36.911
36.861
36.809
36.756
36.702
36.647
36.592
36.538
36.483
36.428
36.375
36.325
36.277
36.234
36.194
36.158
36.127
36.101
36.081
36.066
36.057
36.054
36.056
36.062
36.07
36.081
36.094
36.106
36.12
36.134
36.15
36.166
36.183
36.2
36.215
36.23
36.243
36.255
36.266
36.274
36.28
36.283
36.282
36.277
36.267
36.253
36.233
36.21
36.183
36.153
36.121
36.087
36.05
36.012
35.973
35.934
35.894
35.856
35.818
35.78
35.742
35.704
35.666
35.627
35.587
35.547
35.506
35.466
35.425
35.383
35.34
35.295
35.248
35.2
35.152
35.106
35.063
35.023
34.988
34.956
34.927
34.903
34.881
34.862
34.844
34.828
34.812
34.795
34.778
34.759
34.739
34.717
34.693
34.668
34.642
34.614
34.586
34.559
34.532
34.507
34.484
34.464
34.448
34.436
34.428
34.423
34.421
34.419
34.417
34.411
34.402
34.39
34.376
34.36
34.343
34.327
34.311
34.297
34.285
34.275
34.268
34.263
34.259
34.257
34.254
34.249
34.242
34.232
34.218
34.2
34.179
34.157
34.133
34.109
34.083
34.055
34.026
33.997
33.969
33.942
33.918
33.898
33.883
33.875
33.875
33.884
33.903
33.932
33.973
34.025
34.089
34.165
34.253
34.353
34.466
34.591
34.728
34.877
35.037
35.206
35.382
35.562
35.744
35.923
36.099
36.269
36.434
36.592
36.74
36.878
37.005
37.119
37.22
37.307
37.382
37.445
37.496
37.537
37.567
37.588
37.6
37.605
37.603
37.594
37.579
37.557
37.531
37.501
37.471
37.44
37.41
37.38
37.351
37.322
37.292
37.26
37.226
37.19
37.15
37.107
37.061
37.013
36.963
36.91
36.856
36.8
36.742
36.681
36.619
36.557
36.497
36.442
36.392
36.349
36.312
36.28
36.253
36.229
36.21
36.194
36.182
36.173
36.167
36.165
36.164
36.166
36.17
36.176
36.184
36.192
36.201
36.21
36.218
36.224
36.229
36.232
36.234
36.235
36.235
36.233
36.232
36.229
36.226
36.222
36.217
36.211
36.205
36.199
36.193
36.188
36.181
36.172
36.16
36.142
36.119
36.09
36.055
36.016
35.974
35.93
35.885
35.839
35.792
35.745
35.699
35.654
35.609
35.566
35.523
35.481
35.44
35.4
35.36
35.322
35.284
35.247
35.21
35.173
35.136
35.098
35.058
35.018
34.977
34.937
34.899
34.865
34.834
34.807
34.784
34.764
34.747
34.732
34.72
34.708
34.696
34.684
34.671
34.657
34.642
34.627
34.612
34.597
34.585
34.574
34.565
34.556
34.549
34.541
34.532
34.523
34.513
34.503
34.493
34.484
34.476
34.469
34.466
34.469
34.477
34.488
34.502
34.515
34.526
34.531
34.531
34.523
34.507
34.485
34.456
34.421
34.382
34.339
34.293
34.246
34.199
34.156
34.116
34.084
34.061
34.049
34.051
34.066
34.094
34.134
34.186
34.248
34.321
34.406
34.505
34.616
34.739
34.875
35.021
35.175
35.337
35.503
35.673
35.844
36.016
36.187
36.356
36.52
36.677
36.825
36.962
37.088
37.201
37.303
37.391
37.467
37.53
37.58
37.618
37.646
37.662
37.669
37.667
37.656
37.636
37.608
37.574
37.533
37.489
37.441
37.392
37.342
37.292
37.242
37.193
37.144
37.095
37.046
36.999
36.953
36.907
36.861
36.814
36.765
36.714
36.66
36.604
36.545
36.484
36.42
36.354
36.287
36.22
36.154
36.092
36.034
35.983
35.939
35.904
35.878
35.86
35.85
35.847
35.85
35.858
35.87
35.885
35.904
35.925
35.947
35.971
35.995
36.019
36.04
36.059
36.075
36.087
36.096
36.1
36.101
36.098
36.092
36.084
36.074
36.061
36.047
36.031
36.014
35.995
35.974
35.951
35.927
35.902
35.876
35.848
35.82
35.789
35.755
35.718
35.678
35.634
35.587
35.539
35.491
35.443
35.398
35.355
35.313
35.272
35.233
35.194
35.156
35.119
35.081
35.043
35.004
34.964
34.923
34.88
34.838
34.796
34.755
34.716
34.679
34.644
34.612
34.581
34.554
34.528
34.505
34.484
34.465
34.447
34.432
34.417
34.403
34.39
34.376
34.363
34.351
34.339
34.327
34.315
34.303
34.291
34.278
34.265
34.251
34.237
34.224
34.211
34.197
34.183
34.167
34.149
34.13
34.11
34.09
34.07
34.052
34.037
34.025
34.02
34.021
34.029
34.042
34.061
34.085
34.115
34.15
34.19
34.235
34.286
34.344
34.411
34.487
34.575
34.676
34.789
34.915
35.052
35.199
35.354
35.516
35.683
35.852
36.023
36.192
36.358
36.517
36.667
36.808
36.937
37.053
37.156
37.246
37.323
37.388
37.44
37.481
37.511
37.532
37.545
37.552
37.553
37.55
37.542
37.529
37.511
37.489
37.462
37.432
37.399
37.363
37.324
37.28
37.233
37.182
37.127
37.068
37.006
36.943
36.878
36.812
36.745
36.678
36.611
36.545
36.479
36.416
36.356
36.3
36.247
36.199
36.155
36.115
36.08
36.048
36.021
35.997
35.976
35.958
35.941
35.926
35.913
35.9
35.889
35.881
35.877
35.875
35.878
35.884
35.894
35.907
35.922
35.94
35.959
35.98
36.001
36.023
36.044
36.063
36.079
36.091
36.099
36.102
36.101
36.095
36.084
36.07
36.052
36.031
36.007
35.982
35.955
35.928
35.901
35.874
35.846
35.815
35.783
35.747
35.709
35.669
35.625
35.58
35.532
35.483
35.432
35.381
35.328
35.276
35.226
35.177
35.131
35.088
35.049
35.013
34.979
34.949
34.92
34.893
34.867
34.842
34.817
34.792
34.767
34.742
34.715
34.688
34.66
34.632
34.605
34.58
34.557
34.535
34.516
34.499
34.483
34.468
34.455
34.443
34.432
34.421
34.411
34.401
34.391
34.38
34.369
34.356
34.343
34.329
34.314
34.298
34.282
34.266
34.249
34.233
34.218
34.205
34.194
34.185
34.18
34.177
34.179
34.186
34.199
34.222
34.254
34.298
34.357
34.43
34.518
34.622
34.741
34.875
35.021
35.179
35.347
35.525
35.711
35.904
36.1
36.298
36.494
36.686
36.871
37.046
37.209
37.358
37.492
37.611
37.715
37.804
37.88
37.944
37.996
38.037
38.068
38.088
38.098
38.097
38.088
38.071
38.048
38.02
37.988
37.954
37.917
37.877
37.832
37.783
37.731
37.677
37.623
37.57
37.518
37.468
37.421
37.376
37.333
37.292
37.25
37.206
37.162
37.114
37.064
37.011
36.956
36.898
36.838
36.777
36.714
36.651
36.588
36.527
36.468
36.411
36.359
36.312
36.272
36.24
36.218
36.203
36.197
36.196
36.199
36.205
36.214
36.225
36.238
36.25
36.263
36.275
36.286
36.295
36.303
36.309
36.314
36.318
36.32
36.32
36.32
36.318
36.314
36.309
36.302
36.293
36.282
36.268
36.25
36.23
36.206
36.179
36.149
36.116
36.079
36.041
36.001
35.959
35.914
35.866
35.815
35.76
35.704
35.647
35.591
35.535
35.482
35.431
35.383
35.338
35.295
35.254
35.214
35.176
35.139
35.103
35.065
35.028
34.99
34.952
34.914
34.876
34.838
34.801
34.764
34.728
34.693
34.658
34.624
34.59
34.559
34.53
34.503
34.479
34.456
34.435
34.416
34.398
34.382
34.367
34.354
34.342
34.333
34.325
34.318
34.309
34.299
34.288
34.276
34.262
34.247
34.231
34.215
34.197
34.177
34.153
34.127
34.097
34.066
34.034
33.999
33.965
33.93
33.898
33.866
33.837
33.811
33.787
33.765
33.745
33.726
33.71
33.694
33.678
33.663
33.65
33.637
33.628
33.622
33.62
33.625
33.635
33.652
33.675
33.707
33.75
33.804
33.872
33.954
34.051
34.163
34.291
34.435
34.595
34.769
34.956
35.154
35.361
35.574
35.791
36.008
36.224
36.434
36.637
36.83
37.011
37.176
37.326
37.459
37.575
37.672
37.753
37.818
37.869
37.906
37.933
37.949
37.956
37.955
37.947
37.934
37.917
37.899
37.879
37.859
37.839
37.819
37.796
37.771
37.743
37.712
37.677
37.64
37.6
37.558
37.513
37.466
37.418
37.368
37.316
37.261
37.205
37.148
37.089
37.029
36.967
36.904
36.841
36.779
36.718
36.66
36.604
36.552
36.504
36.46
36.42
36.384
36.352
36.324
36.3
36.28
36.264
36.25
36.238
36.229
36.221
36.215
36.212
36.212
36.214
36.217
36.222
36.228
36.233
36.237
36.239
36.241
36.241
36.241
36.241
36.239
36.235
36.229
36.22
36.208
36.194
36.177
36.157
36.134
36.107
36.077
36.043
36.007
35.97
35.932
35.895
35.859
35.824
35.79
35.755
35.719
35.682
35.642
35.6
35.555
35.508
35.458
35.406
35.352
35.298
35.243
35.189
35.136
35.085
35.037
34.992
34.95
34.912
34.876
34.844
34.813
34.785
34.759
34.733
34.709
34.686
34.663
34.639
34.615
34.588
34.561
34.533
34.506
34.48
34.455
34.43
34.407
34.385
34.364
34.344
34.325
34.306
34.289
34.272
34.256
34.241
34.225
34.209
34.194
34.178
34.163
34.149
34.135
34.122
34.109
34.096
34.082
34.067
34.051
34.035
34.018
34.0
33.979
33.956
33.931
33.902
33.872
33.838
33.803
33.767
33.73
33.694
33.659
33.623
33.587
33.552
33.518
33.486
33.455
33.427
33.402
33.38
33.36
33.342
33.328
33.318
33.316
33.322
33.34
33.369
33.41
33.463
33.53
33.612
33.711
33.826
33.958
34.106
34.27
34.447
34.637
34.836
35.042
35.255
35.47
35.687
35.903
36.114
36.318
36.512
36.694
36.863
37.017
37.155
37.278
37.385
37.477
37.553
37.612
37.654
37.679
37.688
37.684
37.668
37.642
37.608
37.568
37.523
37.475
37.425
37.376
37.328
37.282
37.239
37.198
37.161
37.125
37.091
37.058
37.025
36.993
36.96
36.924
36.884
36.838
36.786
36.726
36.659
36.586
36.506
36.416
36.316
36.21
36.102
35.997
35.897
35.807
35.729
35.666
35.618
35.588
35.572
35.57
35.579
35.596
35.618
35.644
35.673
35.702
35.731
35.758
35.782
35.803
35.821
35.835
35.845
35.853
35.859
35.862
35.864
35.864
35.862
35.859
35.854
35.848
35.84
35.83
35.818
35.803
35.786
35.767
35.745
35.72
35.692
35.662
35.632
35.6
35.567
35.533
35.498
35.459
35.417
35.372
35.324
35.274
35.223
35.173
35.122
35.071
35.02
34.969
34.918
34.868
34.819
34.772
34.726
34.683
34.641
34.601
34.562
34.525
34.49
34.455
34.422
34.39
34.359
34.328
34.298
34.268
34.24
34.212
34.186
34.162
34.141
34.123
34.11
34.099
34.091
34.084
34.078
34.072
34.064
34.056
34.045
34.034
34.021
34.007
33.994
33.98
33.968
33.957
33.949
33.942
33.936
33.931
33.925
33.919
33.911
33.903
33.894
33.883
33.872
33.86
33.847
33.831
33.814
33.794
33.771
33.748
33.723
33.699
33.675
33.652
33.629
33.606
33.582
33.558
33.534
33.51
33.486
33.462
33.438
33.416
33.396
33.379
33.367
33.362
33.364
33.377
33.402
33.439
33.489
33.554
33.632
33.725
33.832
33.953
34.087
34.233
34.392
34.562
34.742
34.93
35.125
35.325
35.528
35.732
35.934
36.131
36.32
36.498
36.663
36.812
36.945
37.062
37.162
37.247
37.316
37.369
37.406
37.429
37.438
37.435
37.422
37.401
37.373
37.341
37.305
37.267
37.227
37.186
37.144
37.1
37.055
37.008
36.958
36.905
36.848
36.788
36.723
36.655
36.584
36.51
36.434
36.356
36.276
36.193
36.11
36.025
35.941
35.859
35.781
35.708
35.639
35.574
35.514
35.458
35.406
35.358
35.317
35.281
35.251
35.228
35.211
35.201
35.197
35.201
35.212
35.23
35.254
35.283
35.316
35.353
35.391
35.43
35.467
35.501
35.53
35.555
35.574
35.589
35.599
35.604
35.604
35.598
35.585
35.567
35.544
35.518
35.49
35.462
35.432
35.4
35.365
35.329
35.291
35.253
35.215
35.177
35.141
35.105
35.07
35.035
35.001
34.967
34.933
34.901
34.869
34.839
34.809
34.777
34.742
34.704
34.662
34.617
34.568
34.516
34.462
34.407
34.352
34.298
34.246
34.198
34.154
34.115
34.08
34.05
34.023
34.0
33.979
33.96
33.943
33.928
33.914
33.902
33.892
33.883
33.876
33.869
33.864
33.859
33.855
33.851
33.848
33.844
33.841
33.836
33.831
33.824
33.816
33.807
33.797
33.786
33.775
33.765
33.754
33.743
33.732
33.72
33.707
33.694
33.682
33.671
33.661
33.652
33.643
33.635
33.627
33.619
33.613
33.608
33.607
33.61
33.618
33.634
33.657
33.688
33.73
33.782
33.846
33.922
34.011
34.113
34.227
34.354
34.493
34.642
34.803
34.975
35.158
35.352
35.555
35.766
35.981
36.198
36.413
36.624
36.827
37.021
37.204
37.375
37.531
37.673
37.798
37.906
37.997
38.072
38.13
38.172
38.199
38.214
38.217
38.211
38.195
38.174
38.147
38.117
38.085
38.052
38.019
37.985
37.951
37.917
37.881
37.845
37.808
37.769
37.727
37.681
37.631
37.576
37.516
37.45
37.382
37.311
37.24
37.17
37.1
37.031
36.963
36.895
36.83
36.766
36.704
36.644
36.586
36.531
36.479
36.431
36.386
36.345
36.308
36.275
36.246
36.22
36.196
36.175
36.157
36.141
36.129
36.12
36.115
36.113
36.116
36.122
36.13
36.139
36.146
36.152
36.156
36.159
36.161
36.161
36.161
36.159
36.155
36.149
36.14
36.127
36.111
36.092
36.07
36.044
36.014
35.982
35.948
35.913
35.877
35.84
35.801
35.761
35.718
35.673
35.626
35.576
35.523
35.469
35.413
35.357
35.301
35.247
35.195
35.145
35.096
35.048
35.001
34.954
34.908
34.863
34.818
34.774
34.732
34.69
34.649
34.61
34.571
34.535
34.501
34.469
34.44
34.412
34.385
34.359
34.332
34.304
34.277
34.251
34.226
34.202
34.179
34.158
34.139
34.122
34.107
34.093
34.079
34.066
34.053
34.041
34.028
34.015
34.002
33.989
33.975
33.962
33.949
33.935
33.92
33.905
33.889
33.871
33.853
33.834
33.814
33.795
33.777
33.761
33.746
33.732
33.718
33.704
33.689
33.672
33.654
33.634
33.613
33.589
33.564
33.538
33.511
33.482
33.454
33.427
33.404
33.386
33.375
33.372
33.379
33.396
33.427
33.472
33.533
33.612
33.71
33.828
33.966
34.127
34.307
34.507
34.722
34.951
35.188
35.431
35.676
35.919
36.157
36.386
36.604
36.81
37.001
37.176
37.335
37.477
37.6
37.706
37.793
37.864
37.92
37.962
37.991
38.011
38.021
38.024
38.02
38.01
37.994
37.971
37.943
37.91
37.872
37.831
37.787
37.74
37.69
37.639
37.587
37.535
37.483
37.43
37.378
37.325
37.271
37.218
37.164
37.109
37.055
37.0
36.943
36.886
36.827
36.767
36.705
36.641
36.575
36.508
36.442
36.378
36.316
36.257
36.201
36.148
36.098
36.052
36.009
35.971
35.937
35.908
35.884
35.866
35.854
35.847
35.847
35.852
35.862
35.878
35.896
35.917
35.938
35.959
35.978
35.994
36.006
36.014
36.017
36.015
36.008
35.995
35.978
35.957
35.932
35.905
35.874
35.842
35.809
35.776
35.743
35.71
35.676
35.641
35.605
35.568
35.53
35.492
35.453
35.413
35.373
35.333
35.292
35.252
35.211
35.169
35.127
35.084
35.039
34.992
34.941
34.887
34.831
34.773
34.715
34.658
34.604
34.553
34.504
34.458
34.415
34.375
34.337
34.302
34.268
34.237
34.205
34.172
34.138
34.105
34.075
34.05
34.031
34.017
34.007
34.0
33.994
33.987
33.98
33.97
33.959
33.947
33.934
33.92
33.905
33.889
33.872
33.853
33.833
33.812
33.791
33.771
33.753
33.738
33.725
33.715
33.706
33.699
33.693
33.686
33.68
33.674
33.668
33.662
33.654
33.645
33.634
33.622
33.608
33.593
33.578
33.561
33.543
33.523
33.502
33.478
33.452
33.423
33.393
33.361
33.329
33.297
33.264
33.232
33.2
33.169
33.139
33.111
33.085
33.061
33.04
33.022
33.007
32.996
32.99
32.991
33.001
33.024
33.062
33.117
33.19
33.285
33.4
33.536
33.693
33.869
34.063
34.274
34.499
34.734
34.977
35.223
35.469
35.712
35.948
36.174
36.388
36.588
36.773
36.94
37.091
37.223
37.338
37.435
37.515
37.579
37.629
37.667
37.692
37.706
37.711
37.706
37.695
37.677
37.654
37.627
37.594
37.558
37.517
37.473
37.424
37.372
37.317
37.261
37.203
37.144
37.084
37.023
36.961
36.899
36.834
36.768
36.7
36.631
36.559
36.485
36.409
36.331
36.252
36.172
36.093
36.016
35.942
35.872
35.805
35.743
35.686
35.634
35.588
35.549
35.516
35.491
35.471
35.457
35.449
35.446
35.448
35.456
35.468
35.485
35.508
35.536
35.568
35.603
35.643
35.684
35.728
35.772
35.817
35.859
35.899
35.935
35.966
35.991
36.011
36.024
36.03
36.031
36.025
36.012
35.994
35.968
35.935
35.896
35.852
35.803
35.751
35.699
35.646
35.595
35.545
35.495
35.446
35.398
35.348
35.298
35.247
35.194
35.139
35.082
35.024
34.966
34.907
34.85
34.795
34.742
34.693
34.648
34.606
34.568
34.531
34.496
34.463
34.431
34.399
34.369
34.34
34.312
34.284
34.256
34.229
34.203
34.178
34.155
34.135
34.118
34.104
34.093
34.084
34.077
34.072
34.07
34.069
34.07
34.072
34.075
34.078
34.079
34.079
34.076
34.071
34.065
34.06
34.055
34.051
34.049
34.047
34.046
34.044
34.041
34.036
34.029
34.019
34.007
33.992
33.975
33.957
33.937
33.912
33.881
33.843
33.8
33.755
33.71
33.667
33.626
33.589
33.557
33.53
33.511
33.501
33.501
33.512
33.537
33.578
33.635
33.711
33.807
33.924
34.061
34.218
34.392
34.581
34.783
34.995
35.213
35.436
35.66
35.884
36.105
36.321
36.53
36.73
36.917
37.091
37.252
37.397
37.528
37.645
37.748
37.838
37.914
37.977
38.028
38.066
38.093
38.109
38.115
38.111
38.098
38.077
38.049
38.013
37.97
37.922
37.869
37.81
37.748
37.682
37.613
37.542
37.469
37.396
37.324
37.251
37.18
37.108
37.036
36.963
36.889
36.813
36.736
36.657
36.579
36.501
36.425
36.35
36.276
36.202
36.129
36.057
35.989
35.924
35.865
35.812
35.765
35.726
35.695
35.674
35.662
35.66
35.669
35.685
35.709
35.737
35.768
35.801
35.834
35.866
35.896
35.923
35.949
35.972
35.992
36.009
36.021
36.028
36.03
36.027
36.02
36.009
35.995
35.979
35.961
35.941
35.919
35.895
35.87
35.842
35.813
35.781
35.746
35.709
35.669
35.626
35.582
35.537
35.491
35.447
35.403
35.358
35.311
35.261
35.206
35.146
35.083
35.017
34.951
34.885
34.821
34.759
34.7
34.645
34.593
34.544
34.498
34.453
34.409
34.366
34.323
34.28
34.237
34.195
34.154
34.114
34.076
34.041
34.008
33.979
33.954
33.931
33.909
33.888
33.867
33.846
33.826
33.806
33.787
33.77
33.753
33.738
33.724
33.712
33.702
33.695
33.69
33.688
33.688
33.69
33.693
33.697
33.7
33.701
33.702
33.701
33.698
33.694
33.687
33.678
33.664
33.647
33.627
33.604
33.579
33.553
33.527
33.499
33.471
33.442
33.412
33.38
33.349
33.318
33.288
33.261
33.237
33.217
33.202
33.193
33.192
33.201
33.223
33.26
33.314
33.387
33.48
33.594
33.732
33.891
34.073
34.275
34.496
34.732
34.982
35.244
35.517
35.799
36.088
36.377
36.661
36.934
37.193
37.431
37.646
37.835
37.997
38.13
38.237
38.318
38.377
38.416
38.438
38.446
38.441
38.426
38.403
38.376
38.346
38.314
38.282
38.25
38.219
38.187
38.154
38.12
38.084
38.045
38.003
37.958
37.909
37.857
37.802
37.742
37.679
37.613
37.545
37.475
37.404
37.333
37.263
37.192
37.12
37.049
36.977
36.907
36.839
36.774
36.712
36.654
36.598
36.545
36.493
36.442
36.393
36.347
36.304
36.264
36.229
36.197
36.169
36.144
36.123
36.106
36.094
36.086
36.083
36.084
36.089
36.097
36.107
36.121
36.136
36.154
36.173
36.193
36.213
36.233
36.251
36.265
36.276
36.281
36.28
36.273
36.261
36.243
36.22
36.192
36.159
36.121
36.08
36.036
35.99
35.943
35.896
35.847
35.795
35.741
35.685
35.625
35.564
35.5
35.435
35.37
35.304
35.238
35.171
35.104
35.038
34.972
34.907
34.844
34.782
34.722
34.662
34.605
34.549
34.495
34.443
34.394
34.346
34.301
34.257
34.215
34.175
34.136
34.098
34.062
34.027
33.995
33.964
33.935
33.907
33.881
33.856
33.831
33.807
33.783
33.76
33.738
33.72
33.707
33.698
33.693
33.689
33.686
33.683
33.679
33.673
33.667
33.659
33.65
33.637
33.622
33.604
33.584
33.562
33.54
33.517
33.493
33.469
33.444
33.417
33.39
33.362
33.333
33.305
33.277
33.251
33.225
33.2
33.175
33.15
33.124
33.098
33.07
33.042
33.014
32.986
32.961
32.938
32.917
32.899
32.883
32.871
32.865
32.868
32.881
32.908
32.95
33.011
33.092
33.196
33.323
33.475
33.652
33.852
34.074
34.315
34.573
34.846
35.129
35.419
35.712
36.002
36.285
36.558
