Trial 3:3back
32.595
32.563
32.533
32.505
32.482
32.466
32.461
32.467
32.488
32.524
32.579
32.654
32.75
32.867
33.002
33.155
33.324
33.505
33.697
33.895
34.096
34.295
34.49
34.676
34.851
35.012
35.159
35.291
35.408
35.509
35.596
35.668
35.726
35.77
35.802
35.823
35.832
35.832
35.822
35.804
35.778
35.746
35.709
35.666
35.62
35.57
35.518
35.464
35.407
35.348
35.287
35.223
35.157
35.088
35.018
34.946
34.873
34.8
34.726
34.652
34.58
34.508
34.439
34.373
34.311
34.253
34.199
34.149
34.102
34.058
34.017
33.979
33.945
33.916
33.892
33.872
33.859
33.849
33.844
33.841
33.839
33.839
33.839
33.84
33.841
33.843
33.846
33.85
33.854
33.858
33.862
33.866
33.869
33.871
33.872
33.872
33.871
33.869
33.866
33.863
33.861
33.858
33.856
33.853
33.847
33.84
33.828
33.813
33.795
33.775
33.753
33.731
33.71
33.69
33.672
33.655
33.637
33.62
33.602
33.585
33.568
33.55
33.533
33.515
33.497
33.479
33.459
33.437
33.413
33.388
33.36
33.33
33.297
33.264
33.229
33.194
33.159
33.125
33.092
33.06
33.03
33.001
32.974
32.949
32.925
32.899
32.872
32.844
32.815
32.787
32.76
32.736
32.716
32.702
32.695
32.696
32.707
32.731
32.768
32.821
32.893
32.985
33.098
33.232
33.383
33.55
33.729
33.917
34.111
34.307
34.502
34.692
34.875
35.047
35.207
35.353
35.483
35.597
35.694
35.774
35.836
35.881
35.91
35.925
35.928
35.919
35.9
35.872
35.838
35.798
35.754
35.707
35.657
35.606
35.554
35.502
35.45
35.397
35.343
35.286
35.228
35.166
35.103
35.039
34.973
34.908
34.842
34.777
34.713
34.649
34.586
34.525
34.464
34.405
34.348
34.293
34.24
34.191
34.145
34.104
34.065
34.03
33.997
33.969
33.943
33.921
33.902
33.887
33.873
33.862
33.852
33.843
33.838
33.835
33.834
33.835
33.838
33.842
33.848
33.855
33.863
33.871
33.88
33.89
33.898
33.907
33.914
33.92
33.924
33.926
33.926
33.924
33.92
33.915
33.909
33.903
33.895
33.887
33.877
33.867
33.856
33.843
33.829
33.814
33.797
33.778
33.759
33.738
33.718
33.696
33.673
33.649
33.625
33.6
33.573
33.546
33.517
33.486
33.456
33.425
33.395
33.365
33.337
33.309
33.283
33.259
33.238
33.219
33.202
33.187
33.172
33.158
33.143
33.127
33.109
33.089
33.067
33.045
33.022
33.0
32.978
32.956
32.935
32.913
32.892
32.874
32.86
32.851
32.85
32.86
32.883
32.922
32.979
33.055
33.151
33.266
33.4
33.552
33.719
33.899
34.088
34.284
34.482
34.678
34.868
35.051
35.223
35.383
35.527
35.654
35.764
35.856
35.93
35.988
36.031
36.061
36.08
36.089
36.091
36.087
36.077
36.063
36.046
36.026
36.004
35.978
35.949
35.915
35.878
35.835
35.788
35.736
35.68
35.621
35.56
35.496
35.431
35.364
35.296
35.228
35.159
35.092
35.026
34.962
34.901
34.842
34.786
34.734
34.685
34.64
34.599
34.562
34.528
34.497
34.468
34.441
34.416
34.394
34.374
34.358
34.346
34.338
34.334
34.334
34.337
34.342
34.349
34.358
34.369
34.38
34.393
34.405
34.418
34.429
34.438
34.445
34.45
34.454
34.458
34.46
34.461
34.46
34.457
34.453
34.446
34.438
34.429
34.419
34.409
34.4
34.39
34.38
34.37
34.361
34.352
34.343
34.334
34.324
34.312
34.297
34.28
34.26
34.238
34.214
34.189
34.163
34.136
34.109
34.08
34.051
34.021
33.991
33.959
33.927
33.895
33.863
33.832
33.804
33.777
33.752
33.729
33.706
33.685
33.663
33.642
33.621
33.601
33.579
33.558
33.536
33.514
33.492
33.47
33.447
33.423
33.398
33.372
33.346
33.32
33.297
33.276
33.258
33.246
33.241
33.243
33.254
33.276
33.311
33.358
33.421
33.5
33.598
33.715
33.851
34.004
34.172
34.353
34.543
34.739
34.937
35.133
35.325
35.508
35.679
35.838
35.982
36.11
36.222
36.319
36.399
36.464
36.516
36.555
36.583
36.6
36.608
36.609
36.602
36.59
36.571
36.548
36.521
36.489
36.453
36.414
36.371
36.326
36.279
36.23
36.18
36.128
36.074
36.019
35.961
35.901
35.839
35.775
35.709
35.642
35.575
35.507
35.44
35.374
35.312
35.253
35.199
35.15
35.105
35.066
35.032
35.003
34.979
34.959
34.944
34.933
34.926
34.921
34.92
34.921
34.924
34.928
34.934
34.939
34.944
34.948
34.951
34.952
34.952
34.949
34.943
34.936
34.928
34.92
34.913
34.908
34.903
34.901
34.9
34.902
34.907
34.912
34.919
34.925
34.93
34.934
34.937
34.939
34.94
34.939
34.937
34.933
34.928
34.919
34.908
34.894
34.876
34.856
34.833
34.807
34.781
34.754
34.728
34.702
34.677
34.653
34.627
34.6
34.572
34.544
34.516
34.488
34.46
34.434
34.409
34.385
34.364
34.346
34.329
34.314
34.301
34.291
34.281
34.272
34.263
34.253
34.24
34.224
34.205
34.183
34.158
34.13
34.1
34.069
34.036
34.003
33.97
33.939
33.91
33.883
33.86
33.843
33.832
33.832
33.843
33.868
33.908
33.965
34.04
34.134
34.246
34.375
34.52
34.678
34.846
35.023
35.203
35.385
35.565
35.74
35.908
36.066
36.214
36.348
36.47
36.578
36.673
36.754
36.821
36.874
36.912
36.936
36.948
36.949
36.941
36.926
36.906
36.883
36.857
36.83
36.802
36.773
36.744
36.715
36.685
36.655
36.622
36.588
36.55
36.51
36.467
36.42
36.369
36.316
36.259
36.2
36.139
36.079
36.018
35.958
35.897
35.835
35.773
35.713
35.654
35.598
35.545
35.496
35.451
35.41
35.374
35.343
35.318
35.298
35.284
35.275
35.27
35.268
35.269
35.273
35.278
35.287
35.298
35.31
35.324
35.337
35.35
35.36
35.367
35.372
35.373
35.371
35.365
35.356
35.343
35.328
35.31
35.291
35.27
35.249
35.229
35.209
35.189
35.17
35.15
35.131
35.112
35.094
35.078
35.065
35.052
35.041
35.03
35.02
35.009
34.998
34.987
34.975
34.962
34.948
34.932
34.915
34.895
34.873
34.848
34.82
34.79
34.758
34.725
34.692
34.661
34.631
34.605
34.58
34.558
34.538
34.518
34.5
34.481
34.462
34.442
34.421
34.4
34.379
34.358
34.338
34.317
34.296
34.273
34.251
34.23
34.209
34.19
34.173
34.159
34.148
34.143
34.145
34.155
34.175
34.206
34.25
34.31
34.385
34.477
34.586
34.711
34.852
35.006
35.172
35.348
35.529
35.715
35.9
36.082
36.259
36.429
36.589
36.736
36.871
36.992
37.097
37.187
37.262
37.322
37.368
37.402
37.424
37.436
37.437
37.43
37.414
37.391
37.362
37.328
37.288
37.243
37.195
37.143
37.087
37.03
36.971
36.912
36.855
36.799
36.746
36.695
36.647
36.6
36.555
36.51
36.465
36.42
36.372
36.322
36.27
36.215
36.159
36.103
36.045
35.989
35.934
35.881
35.832
35.788
35.75
35.717
35.69
35.669
35.652
35.64
35.631
35.625
35.622
35.624
35.629
35.637
35.649
35.664
35.681
35.699
35.718
35.736
35.752
35.765
35.774
35.78
35.781
35.78
35.775
35.769
35.759
35.747
35.734
35.719
35.701
35.683
35.662
35.64
35.618
35.595
35.572
35.548
35.524
35.499
35.474
35.45
35.425
35.402
35.38
35.359
35.339
35.318
35.296
35.273
35.248
35.222
35.195
35.168
35.139
35.111
35.083
35.054
35.026
34.998
34.971
34.945
34.92
34.896
34.872
34.849
34.825
34.8
34.773
34.746
34.717
34.688
34.659
34.631
34.603
34.575
34.547
34.52
34.493
34.466
34.441
34.417
34.394
34.372
34.352
34.336
34.327
34.327
34.339
34.365
34.407
34.467
34.545
34.642
34.758
34.892
35.043
35.208
35.385
35.572
35.765
35.962
36.158
36.351
36.537
36.714
36.879
37.029
37.165
37.285
37.389
37.477
37.55
37.607
37.649
37.677
37.693
37.698
37.693
37.681
37.663
37.64
37.612
37.579
37.542
37.499
37.453
37.404
37.352
37.297
37.242
37.185
37.128
37.071
37.015
36.96
36.906
36.853
36.801
36.749
36.698
36.647
36.595
36.541
36.487
36.43
36.373
36.315
36.257
36.201
36.146
36.094
36.045
36.001
35.962
35.927
35.896
35.868
35.844
35.824
35.806
35.792
35.782
35.777
35.775
35.775
35.775
35.776
35.776
35.778
35.779
35.779
35.779
35.778
35.775
35.769
35.76
35.749
35.735
35.719
35.702
35.684
35.666
35.648
35.631
35.614
35.6
35.587
35.576
35.566
35.558
35.549
35.54
35.53
35.519
35.505
35.488
35.47
35.449
35.426
35.401
35.375
35.347
35.318
35.288
35.259
35.229
35.2
35.17
35.139
35.108
35.075
35.043
35.01
34.977
34.946
34.915
34.885
34.856
34.829
34.802
34.777
34.752
34.728
34.705
34.683
34.661
34.64
34.62
34.6
34.579
34.558
34.534
34.508
34.48
34.451
34.422
34.392
34.364
34.338
34.318
34.307
34.307
34.32
34.348
34.392
34.453
34.531
34.627
34.742
34.872
35.017
35.175
35.342
35.517
35.698
35.883
36.071
36.259
36.445
36.627
36.801
36.966
37.119
37.26
37.387
37.501
37.6
37.684
37.753
37.807
37.846
37.872
37.885
37.888
37.88
37.864
37.841
37.812
37.779
37.742
37.702
37.659
37.614
37.565
37.514
37.462
37.407
37.351
37.294
37.235
37.176
37.116
37.055
36.994
36.933
36.873
36.812
36.752
36.69
36.628
36.565
36.5
36.437
36.376
36.318
36.264
36.215
36.171
36.134
36.102
36.076
36.055
36.038
36.024
36.012
36.001
35.992
35.984
35.975
35.967
35.957
35.947
35.935
35.924
35.913
35.903
35.893
35.884
35.874
35.865
35.856
35.847
35.838
35.831
35.824
35.818
35.813
35.81
35.807
35.806
35.807
35.807
35.805
35.8
35.792
35.781
35.764
35.744
35.719
35.692
35.662
35.63
35.597
35.562
35.528
35.493
35.458
35.423
35.388
35.353
35.317
35.282
35.245
35.209
35.173
35.137
35.103
35.071
35.04
35.011
34.983
34.956
34.931
34.906
34.883
34.86
34.837
34.814
34.79
34.766
34.743
34.719
34.695
34.671
34.647
34.623
34.598
34.573
34.546
34.518
34.487
34.456
34.423
34.389
34.354
34.32
34.287
34.255
34.224
34.196
34.174
34.158
34.151
34.157
34.178
34.216
34.275
34.355
34.457
34.582
34.728
34.895
35.08
35.281
35.494
35.715
35.942
36.172
36.4
36.624
36.841
37.049
37.244
37.426
37.592
37.742
37.875
37.991
38.09
38.17
38.232
38.277
38.307
38.322
38.325
38.316
38.299
38.274
38.243
38.207
38.167
38.124
38.077
38.028
37.975
37.92
37.86
37.796
37.728
37.658
37.585
37.51
37.433
37.356
37.277
37.199
37.121
37.045
36.97
36.899
36.832
36.768
36.708
36.651
36.598
36.548
36.501
36.457
36.415
36.376
36.339
36.305
36.274
36.246
36.22
36.196
36.176
36.159
36.145
36.135
36.126
36.119
36.113
36.108
36.103
36.098
36.096
36.095
36.094
36.094
36.095
36.096
36.097
36.098
36.099
36.099
36.098
36.095
36.089
36.081
36.069
36.055
36.037
36.017
35.995
35.969
35.941
35.91
35.879
35.847
35.815
35.783
35.751
35.718
35.685
35.652
35.62
35.59
35.562
35.536
35.512
35.49
35.468
35.447
35.426
35.403
35.379
35.353
35.324
35.293
35.26
35.225
35.19
35.154
35.118
35.083
35.049
35.015
34.983
34.951
34.92
34.889
34.858
34.826
34.794
34.761
34.729
34.696
34.663
34.63
34.596
34.563
34.53
34.497
34.464
34.432
34.4
34.368
34.338
34.309
34.284
34.264
34.251
34.248
34.257
34.281
34.322
34.382
34.461
34.561
34.681
34.821
34.98
35.159
35.354
35.563
35.785
36.015
36.249
36.484
36.716
36.943
37.161
37.368
37.562
37.739
37.898
38.039
38.161
38.265
38.351
38.42
38.473
38.511
38.535
38.547
38.546
38.536
38.516
38.49
38.456
38.416
38.371
38.32
38.265
38.204
38.139
38.07
37.997
37.922
37.846
37.77
37.695
37.622
37.55
37.481
37.415
37.35
37.287
37.224
37.162
37.1
37.036
36.97
36.902
36.832
36.762
36.692
36.622
36.555
36.491
36.433
36.38
36.335
36.297
36.266
36.241
36.221
36.206
36.195
36.188
36.182
36.178
36.175
36.173
36.172
36.172
36.171
36.17
36.168
36.164
36.16
36.155
36.149
36.143
36.135
36.127
36.118
36.107
36.094
36.08
36.064
36.048
36.03
36.009
35.987
35.963
35.937
35.911
35.883
35.854
35.822
35.787
35.75
35.711
35.671
35.631
35.591
35.551
35.512
35.474
35.438
35.402
35.367
35.333
35.298
35.263
35.227
35.191
35.154
35.117
35.077
35.036
34.993
34.949
34.904
34.859
34.814
34.769
34.724
34.68
34.636
34.594
34.554
34.516
34.48
34.446
34.415
34.385
34.356
34.328
34.301
34.272
34.242
34.209
34.175
34.14
34.104
34.069
34.036
34.006
33.982
33.967
33.962
33.972
33.998
34.042
34.106
34.193
34.302
34.435
34.592
34.774
34.978
35.201
35.441
35.693
35.954
36.219
36.485
36.746
36.998
37.238
37.463
37.669
37.855
38.018
38.159
38.278
38.375
38.451
38.507
38.544
38.565
38.57
38.562
38.543
38.513
38.473
38.424
38.368
38.305
38.238
38.165
38.091
38.014
37.936
37.857
37.778
37.699
37.62
37.542
37.465
37.39
37.316
37.242
37.169
37.095
37.022
36.948
36.874
36.8
36.724
36.648
36.573
36.499
36.428
36.361
36.298
36.24
36.186
36.137
36.092
36.052
36.017
35.986
35.959
35.936
35.916
35.898
35.882
35.868
35.856
35.845
35.836
35.828
35.821
35.814
35.807
35.802
35.797
35.794
35.79
35.786
35.779
35.77
35.758
35.744
35.728
35.712
35.694
35.675
35.654
35.632
35.609
35.583
35.556
35.526
35.495
35.462
35.429
35.395
35.362
35.329
35.295
35.258
35.219
35.178
35.134
35.091
35.047
35.004
34.962
34.921
34.882
34.846
34.811
34.779
34.748
34.718
34.689
34.661
34.631
34.6
34.566
34.529
34.489
34.448
34.406
34.363
34.321
34.281
34.242
34.204
34.168
34.132
34.097
34.062
34.026
33.991
33.956
33.92
33.885
33.849
33.815
33.781
33.748
33.716
33.684
33.652
33.621
33.591
33.562
33.535
33.512
33.494
33.485
33.487
33.502
33.534
33.586
33.658
33.754
33.874
34.019
34.188
34.38
34.591
34.821
35.064
35.317
35.575
35.834
36.09
36.339
36.578
36.803
37.013
37.207
37.383
37.54
37.678
37.796
37.896
37.977
38.041
38.089
38.121
38.137
38.138
38.126
38.101
38.065
38.019
37.965
37.902
37.834
37.761
37.683
37.6
37.515
37.425
37.333
37.239
37.143
37.047
36.95
36.855
36.762
36.671
36.583
36.498
36.418
36.342
36.269
36.2
36.134
36.071
36.01
35.952
35.895
35.839
35.783
35.728
35.674
35.623
35.574
35.529
35.489
35.452
35.42
35.391
35.365
35.344
35.327
35.315
35.305
35.299
35.294
35.292
35.292
35.293
35.295
35.298
35.301
35.303
35.306
35.309
35.31
35.31
35.308
35.304
35.298
35.288
35.276
35.26
35.243
35.223
35.203
35.182
35.161
35.139
35.118
35.095
35.07
35.042
35.011
34.976
34.939
34.899
34.857
34.814
34.769
34.724
34.679
34.634
34.59
34.547
34.505
34.464
34.424
34.386
34.349
34.314
34.279
34.246
34.214
34.183
34.152
34.121
34.091
34.061
34.031
33.999
33.967
33.934
33.9
33.866
33.832
33.798
33.762
33.726
33.689
33.65
33.612
33.573
33.535
33.498
33.461
33.426
33.393
33.362
33.333
33.305
33.28
33.256
33.233
33.213
33.195
33.182
33.174
33.173
33.182
33.202
33.237
33.289
33.359
33.449
33.561
33.693
33.848
34.024
34.22
34.432
34.659
34.895
35.138
35.383
35.628
35.869
36.104
36.328
36.539
36.734
36.911
37.07
37.211
37.333
37.437
37.522
37.588
37.636
37.667
37.682
37.681
37.667
37.641
37.604
37.557
37.502
37.44
37.374
37.304
37.232
37.158
37.083
37.005
36.927
36.847
36.767
36.686
36.607
36.527
36.448
36.37
36.293
36.218
36.143
36.07
36.0
35.931
35.865
35.799
35.735
35.673
35.613
35.556
35.503
35.455
35.411
35.371
35.334
35.3
35.269
35.241
35.214
35.19
35.168
35.149
35.133
35.12
35.109
35.102
35.097
35.095
35.096
35.099
35.105
35.112
35.119
35.125
35.13
35.134
35.135
35.135
35.134
35.131
35.126
35.119
35.11
35.1
35.088
35.074
35.058
35.04
35.021
34.998
34.972
34.944
34.914
34.881
34.848
34.814
34.78
34.746
34.714
34.683
34.653
34.624
34.595
34.565
34.535
34.502
34.468
34.433
34.397
34.361
34.325
34.292
34.261
34.233
34.207
34.182
34.159
34.137
34.115
34.094
34.074
34.053
34.033
34.014
33.994
33.973
33.952
33.929
33.903
33.876
33.845
33.812
33.776
33.738
33.699
33.659
33.618
33.576
33.534
33.492
33.451
33.41
33.371
33.335
33.302
33.275
33.255
33.245
33.246
33.259
33.287
33.331
33.394
33.477
33.582
33.709
33.859
34.031
34.223
34.434
34.659
34.896
35.141
35.39
35.639
35.884
36.123
36.351
36.568
36.769
36.954
37.12
37.267
37.394
37.501
37.589
37.658
37.708
37.742
37.76
37.764
37.755
37.735
37.706
37.67
37.629
37.584
37.535
37.484
37.431
37.374
37.315
37.253
37.188
37.119
37.047
36.972
36.895
36.815
36.734
36.649
36.564
36.476
36.388
36.3
36.214
36.129
36.047
35.97
35.896
35.828
35.763
35.704
35.649
35.598
35.551
35.508
35.47
35.434
35.401
35.371
35.344
35.321
35.299
35.28
35.26
35.241
35.221
35.203
35.185
35.17
35.158
35.148
35.141
35.135
35.13
35.128
35.127
35.129
35.132
35.137
35.142
35.148
35.153
35.156
35.157
35.154
35.148
35.139
35.128
35.114
35.097
35.078
35.057
35.033
35.005
34.973
34.939
34.902
34.863
34.823
34.782
34.742
34.702
34.663
34.625
34.587
34.548
34.51
34.471
34.432
34.392
34.353
34.315
34.277
34.239
34.201
34.163
34.126
34.088
34.051
34.013
33.976
33.939
33.903
33.866
33.83
33.793
33.757
33.721
33.685
33.649
33.614
33.579
33.543
33.507
33.471
33.434
33.398
33.361
33.325
33.29
33.256
33.225
33.199
33.178
33.167
33.167
33.182
33.214
33.265
33.338
33.433
33.553
33.697
33.863
34.052
34.262
34.491
34.736
34.995
35.264
35.539
35.815
36.09
36.358
36.615
36.857
37.081
37.284
37.464
37.619
37.749
37.853
37.933
37.99
38.027
38.045
38.046
38.034
38.01
37.976
37.934
37.884
37.829
37.769
37.706
37.64
37.571
37.499
37.425
37.347
37.265
37.181
37.093
37.004
36.914
36.825
36.737
36.648
36.561
36.474
36.388
36.303
36.221
36.14
36.063
35.989
35.919
35.852
35.788
35.728
35.671
35.618
35.568
35.522
35.48
35.441
35.406
35.374
35.345
35.317
35.294
35.273
35.255
35.24
35.228
35.218
35.212
35.209
35.209
35.213
35.219
35.228
35.236
35.244
35.251
35.257
35.26
35.262
35.261
35.258
35.253
35.245
35.234
35.221
35.205
35.188
35.168
35.146
35.121
35.095
35.067
35.038
35.007
34.975
34.941
34.907
34.873
34.84
34.807
34.776
34.744
34.712
34.68
34.647
34.612
34.577
34.541
34.505
34.468
34.43
34.394
34.359
34.325
34.292
34.26
34.229
34.197
34.164
34.131
34.097
34.062
34.028
33.995
33.962
33.93
33.899
33.868
33.836
33.802
33.766
33.729
33.691
33.653
33.614
33.577
33.54
33.504
33.47
33.437
33.407
33.378
33.351
33.326
33.303
33.284
33.271
33.266
33.272
33.291
33.326
33.38
33.455
33.552
33.675
33.824
33.998
34.199
34.422
34.666
34.928
35.205
35.492
35.786
36.08
36.372
36.656
36.931
37.192
37.438
37.667
37.875
38.064
38.23
38.374
38.495
38.591
38.663
38.712
38.738
38.743
38.728
38.695
38.645
38.582
38.508
38.425
38.336
38.243
38.147
38.05
37.954
37.858
37.765
37.674
37.586
37.502
37.421
37.341
37.263
37.186
37.109
37.033
36.957
36.881
36.804
36.727
36.65
36.573
36.497
36.421
36.348
36.276
36.208
36.142
36.079
36.02
35.964
35.911
35.862
35.816
35.774
35.736
35.702
35.673
35.65
35.631
35.616
35.605
35.597
35.59
35.585
35.58
35.575
35.569
35.563
35.555
35.547
35.538
35.529
35.52
35.51
35.5
35.488
35.476
35.464
35.451
35.438
35.424
35.408
35.391
35.371
35.349
35.326
35.3
35.274
35.248
35.221
35.193
35.164
35.134
35.103
35.071
35.039
35.005
34.969
34.933
34.895
34.856
34.817
34.777
34.738
34.698
34.66
34.622
34.584
34.547
34.509
34.47
34.431
34.392
34.351
34.31
34.268
34.227
34.188
34.148
34.109
34.07
34.032
33.995
33.958
33.92
33.883
33.845
33.806
33.766
33.727
33.689
33.652
33.615
33.58
33.543
33.506
33.469
33.431
33.394
33.359
33.327
33.3
33.282
33.276
33.285
33.312
33.36
33.431
33.527
33.648
33.796
33.968
34.165
34.384
34.622
34.876
35.143
35.419
35.698
