Trial 3:3back
36.612
36.56
36.509
36.459
36.411
36.365
36.322
36.282
36.247
36.218
36.196
36.18
36.17
36.163
36.158
36.152
36.144
36.135
36.124
36.111
36.099
36.086
36.073
36.06
36.047
36.033
36.018
36.001
35.983
35.963
35.941
35.917
35.889
35.858
35.823
35.784
35.742
35.696
35.647
35.596
35.544
35.491
35.44
35.389
35.34
35.292
35.245
35.198
35.152
35.105
35.058
35.009
34.959
34.909
34.858
34.808
34.76
34.713
34.669
34.626
34.584
34.544
34.503
34.462
34.421
34.38
34.338
34.296
34.256
34.216
34.179
34.143
34.109
34.077
34.047
34.018
33.989
33.962
33.936
33.912
33.89
33.871
33.856
33.842
33.83
33.818
33.806
33.793
33.779
33.763
33.746
33.728
33.709
33.69
33.671
33.653
33.634
33.614
33.595
33.575
33.554
33.532
33.511
33.491
33.472
33.455
33.442
33.432
33.427
33.427
33.434
33.447
33.469
33.501
33.545
33.6
33.669
33.752
33.851
33.965
34.095
34.24
34.398
34.57
34.754
34.947
35.149
35.355
35.564
35.771
35.975
36.172
36.36
36.535
36.698
36.845
36.978
37.096
37.201
37.293
37.373
37.442
37.499
37.547
37.583
37.61
37.628
37.637
37.638
37.629
37.613
37.59
37.561
37.526
37.488
37.446
37.403
37.361
37.32
37.281
37.243
37.205
37.166
37.126
37.083
37.037
36.986
36.931
36.871
36.807
36.741
36.672
36.602
36.53
36.459
36.387
36.317
36.249
36.184
36.12
36.06
36.002
35.947
35.895
35.846
35.8
35.756
35.715
35.677
35.644
35.614
35.588
35.566
35.547
35.53
35.517
35.506
35.497
35.489
35.48
35.471
35.461
35.452
35.441
35.429
35.414
35.397
35.378
35.358
35.337
35.316
35.294
35.272
35.248
35.223
35.197
35.167
35.135
35.098
35.057
35.013
34.967
34.918
34.868
34.815
34.761
34.707
34.652
34.598
34.544
34.491
34.439
34.388
34.341
34.298
34.258
34.223
34.191
34.162
34.134
34.108
34.081
34.054
34.025
33.994
33.961
33.926
33.889
33.851
33.812
33.775
33.738
33.702
33.669
33.638
33.61
33.584
33.559
33.536
33.513
33.49
33.468
33.448
33.428
33.41
33.393
33.375
33.357
33.339
33.321
33.301
33.282
33.263
33.245
33.228
33.213
33.2
33.189
33.18
33.172
33.164
33.155
33.145
33.132
33.119
33.107
33.094
33.084
33.077
33.074
33.076
33.083
33.099
33.124
33.158
33.204
33.262
33.331
33.414
33.509
33.618
33.738
33.871
34.014
34.166
34.328
34.496
34.67
34.848
35.028
35.207
35.381
35.549
35.709
35.858
35.996
36.122
36.235
36.336
36.426
36.503
36.568
36.621
36.663
36.694
36.714
36.725
36.727
36.722
36.709
36.69
36.665
36.635
36.6
36.562
36.522
36.481
36.439
36.397
36.355
36.312
36.268
36.222
36.175
36.125
36.073
36.019
35.963
35.906
35.848
35.79
35.733
35.676
35.62
35.564
35.509
35.455
35.402
35.35
35.299
35.251
35.205
35.163
35.124
35.089
35.059
35.033
35.012
34.996
34.984
34.977
34.974
34.973
34.975
34.98
34.986
34.994
35.003
35.012
35.021
35.03
35.04
35.049
35.058
35.064
35.068
35.068
35.063
35.052
35.037
35.017
34.993
34.967
34.939
34.911
34.883
34.854
34.824
34.792
34.758
34.723
34.684
34.645
34.603
34.562
34.521
34.483
34.447
34.413
34.38
34.348
34.315
34.281
34.244
34.206
34.166
34.125
34.084
34.043
34.003
33.965
33.929
33.894
33.86
33.827
33.795
33.763
33.73
33.697
33.664
33.631
33.601
33.573
33.545
33.513
33.478
33.441
33.403
33.367
33.333
33.3
33.271
33.245
33.225
33.209
33.198
33.192
33.19
33.189
33.189
33.188
33.185
33.181
33.176
33.169
33.161
33.153
33.144
33.135
33.128
33.123
33.121
33.124
33.134
33.15
33.175
33.209
33.253
33.309
33.379
33.461
33.558
33.669
33.793
33.931
34.079
34.237
34.401
34.569
34.738
34.906
35.07
35.228
35.379
35.521
35.654
35.777
35.891
35.994
36.088
36.172
36.246
36.309
36.362
36.404
36.435
36.456
36.466
36.467
36.458
36.442
36.421
36.396
36.37
36.345
36.32
36.298
36.276
36.255
36.232
36.208
36.181
36.15
36.116
36.077
36.036
35.99
35.94
35.886
35.831
35.773
35.713
35.653
35.592
35.531
35.471
35.413
35.356
35.302
35.25
35.201
35.155
35.113
35.075
35.042
35.014
34.991
34.974
34.962
34.954
34.95
34.949
34.95
34.952
34.954
34.957
34.959
34.962
34.964
34.966
34.968
34.97
34.972
34.974
34.975
34.974
34.971
34.966
34.959
34.949
34.937
34.924
34.909
34.893
34.877
34.859
34.84
34.819
34.795
34.768
34.737
34.704
34.668
34.632
34.595
34.559
34.522
34.486
34.45
34.416
34.381
34.347
34.312
34.276
34.241
34.207
34.172
34.137
34.103
34.069
34.034
33.999
33.964
33.928
33.892
33.856
33.822
33.789
33.759
33.731
33.707
33.685
33.667
33.65
33.636
33.624
33.613
33.602
33.591
33.58
33.567
33.554
33.54
33.525
33.509
33.494
33.48
33.467
33.455
33.444
33.434
33.424
33.415
33.406
33.397
33.386
33.376
33.365
33.355
33.347
33.338
33.33
33.321
33.312
33.303
33.294
33.286
33.28
33.278
33.28
33.288
33.303
33.326
33.358
33.398
33.448
33.508
33.581
33.668
33.768
33.882
34.009
34.146
34.292
34.444
34.601
34.761
34.92
35.079
35.234
35.386
35.533
35.674
35.808
35.935
36.053
36.161
36.259
36.347
36.426
36.495
36.555
36.607
36.653
36.691
36.722
36.746
36.764
36.777
36.783
36.785
36.781
36.772
36.757
36.738
36.716
36.69
36.663
36.636
36.608
36.582
36.557
36.534
36.512
36.49
36.467
36.44
36.41
36.376
36.337
36.296
36.251
36.205
36.159
36.112
36.066
36.021
35.977
35.934
35.892
35.852
35.813
35.777
35.743
35.711
35.681
35.654
35.631
35.612
35.597
35.586
35.577
35.571
35.566
35.563
35.562
35.561
35.56
35.559
35.557
35.553
35.548
35.542
35.535
35.526
35.516
35.503
35.49
35.474
35.458
35.44
35.422
35.401
35.38
35.358
35.334
35.309
35.283
35.255
35.227
35.199
35.171
35.143
35.115
35.087
35.058
35.028
34.996
34.963
34.928
34.889
34.849
34.806
34.762
34.718
34.676
34.635
34.596
34.559
34.526
34.494
34.464
34.434
34.403
34.372
34.341
34.31
34.279
34.249
34.22
34.193
34.168
34.144
34.12
34.097
34.073
34.049
34.027
34.006
33.986
33.968
33.95
33.934
33.918
33.903
33.889
33.876
33.863
33.85
33.838
33.826
33.814
33.803
33.791
33.779
33.766
33.754
33.742
33.732
33.721
33.709
33.697
33.684
33.67
33.658
33.645
33.634
33.625
33.619
33.617
33.622
33.634
33.654
33.682
33.719
33.764
33.82
33.887
33.964
34.052
34.151
34.261
34.382
34.512
34.651
34.797
34.948
35.103
35.26
35.418
35.574
35.729
35.879
36.021
36.156
36.281
36.395
36.499
36.593
36.676
36.749
36.814
36.87
36.918
36.96
36.994
37.021
37.04
37.052
37.056
37.053
37.041
37.02
36.99
36.955
36.915
36.874
36.831
36.79
36.75
36.715
36.684
36.658
36.636
36.616
36.597
36.576
36.553
36.526
36.495
36.459
36.42
36.378
36.333
36.289
36.245
36.202
36.159
36.116
36.072
36.029
35.986
35.946
35.908
35.871
35.838
35.807
35.781
35.759
35.74
35.724
35.71
35.699
35.69
35.684
35.679
35.675
35.671
35.665
35.658
35.65
35.64
35.63
35.619
35.608
35.597
35.588
35.58
35.573
35.565
35.554
35.541
35.524
35.504
35.481
35.454
35.424
35.392
35.359
35.325
35.291
35.257
35.22
35.183
35.144
35.104
35.064
35.025
34.987
34.95
34.914
34.879
34.846
34.814
34.782
34.751
34.72
34.689
34.659
34.63
34.603
34.576
34.55
34.525
34.501
34.475
34.448
34.419
34.388
34.356
34.323
34.292
34.262
34.234
34.208
34.185
34.165
34.147
34.129
34.11
34.09
34.068
34.046
34.024
34.004
33.985
33.968
33.953
33.939
33.925
33.911
33.896
33.88
33.862
33.843
33.824
33.805
33.788
33.771
33.756
33.742
33.73
33.719
33.707
33.696
33.683
33.669
33.653
33.637
33.62
33.604
33.588
33.575
33.565
33.559
33.558
33.563
33.577
33.598
33.629
33.67
33.723
33.789
33.868
33.961
34.066
34.182
34.307
34.442
34.583
34.728
34.877
35.029
35.181
35.334
35.487
35.637
35.784
35.925
36.06
36.187
36.306
36.417
36.518
36.611
36.695
36.769
36.834
36.889
36.933
36.966
36.986
36.995
36.994
36.985
36.969
36.948
36.922
36.894
36.865
36.837
36.81
36.783
36.757
36.73
36.702
36.672
36.641
36.607
36.571
36.533
36.493
36.453
36.413
36.374
36.336
36.299
36.262
36.223
36.184
36.144
36.104
36.062
36.019
35.976
35.934
35.895
35.859
35.827
35.799
35.775
35.757
35.743
35.735
35.73
35.729
35.731
35.734
35.74
35.748
35.756
35.764
35.771
35.775
35.776
35.776
35.774
35.772
35.768
35.765
35.761
35.757
35.751
35.744
35.734
35.721
35.703
35.682
35.657
35.629
35.599
35.568
35.536
35.503
35.47
35.438
35.405
35.37
35.334
35.297
35.26
35.224
35.189
35.155
35.122
35.088
35.055
35.022
34.988
34.954
34.919
34.884
34.849
34.814
34.779
34.745
34.71
34.675
34.64
34.604
34.569
34.533
34.499
34.465
34.434
34.404
34.376
34.351
34.326
34.302
34.278
34.253
34.228
34.202
34.176
34.152
34.13
34.111
34.095
34.083
34.073
34.063
34.053
34.042
34.03
34.017
34.003
33.988
33.974
33.961
33.948
33.937
33.926
33.915
33.904
33.892
33.88
33.869
33.86
33.854
33.851
33.854
33.863
33.879
33.903
33.936
33.979
34.032
34.095
34.171
34.257
34.356
34.466
34.586
34.716
34.855
35.0
35.149
35.301
35.454
35.606
35.756
35.901
36.039
36.168
36.288
36.397
36.494
36.578
36.65
36.71
36.76
36.802
36.837
36.866
36.89
36.91
36.926
36.938
36.945
36.945
36.94
36.928
36.91
36.887
36.858
36.825
36.788
36.748
36.707
36.666
36.625
36.585
36.545
36.507
36.469
36.431
36.394
36.355
36.314
36.27
36.223
36.173
36.121
36.067
36.013
35.958
35.904
35.851
35.801
35.754
35.709
35.668
35.631
35.599
35.571
35.548
35.528
35.512
35.499
35.489
35.481
35.476
35.473
35.472
35.473
35.476
35.481
35.489
35.497
35.506
35.513
35.518
35.521
35.521
35.517
35.509
35.497
35.48
35.459
35.436
35.411
35.386
35.359
35.331
35.301
35.27
35.237
35.203
35.168
35.129
35.089
35.048
35.007
34.967
34.93
34.894
34.859
34.825
34.791
34.757
34.723
34.689
34.653
34.616
34.579
34.542
34.506
34.471
34.437
34.405
34.374
34.346
34.319
34.294
34.27
34.247
34.223
34.199
34.173
34.147
34.12
34.092
34.065
34.038
34.013
33.989
33.968
33.948
33.929
33.91
33.891
33.871
33.852
33.833
33.814
33.797
33.781
33.766
33.754
33.743
33.733
33.724
33.715
33.706
33.695
33.684
33.672
33.661
33.651
33.644
33.642
33.644
33.65
33.662
33.681
33.706
33.738
33.779
33.828
33.888
33.958
34.041
34.135
34.236
34.345
34.461
34.584
34.716
34.857
35.004
35.159
35.321
35.486
35.655
35.825
35.994
36.159
36.319
36.472
36.616
36.749
36.871
36.98
37.078
37.162
37.233
37.292
37.338
37.372
37.395
37.408
37.411
37.407
37.396
37.379
37.359
37.336
37.311
37.283
37.253
37.221
37.188
37.153
37.118
37.082
37.046
37.008
36.968
36.927
36.883
36.836
36.786
36.734
36.679
36.624
36.568
36.513
36.46
36.408
36.358
36.31
36.264
36.218
36.174
36.13
36.087
36.045
36.006
35.97
35.939
35.911
35.888
35.869
35.854
35.844
35.836
35.83
35.825
35.821
35.82
35.821
35.823
35.826
35.828
35.83
35.832
35.832
35.832
35.83
35.827
35.822
35.816
35.809
35.799
35.786
35.771
35.751
35.728
35.702
35.674
35.644
35.613
35.581
35.547
35.513
35.478
35.442
35.405
35.366
35.326
35.284
35.241
35.198
35.154
35.11
35.066
35.021
34.978
34.935
34.893
34.852
34.81
34.769
34.728
34.687
34.647
34.608
34.569
34.53
34.493
34.459
34.427
34.398
34.372
34.347
34.324
34.302
34.281
34.26
34.24
34.219
34.197
34.176
34.155
34.135
34.117
34.1
34.085
34.072
34.06
34.049
34.036
34.023
34.007
33.99
33.973
33.957
33.942
33.927
33.914
33.902
33.891
33.881
33.871
33.862
33.854
33.847
33.842
33.84
33.843
33.851
33.866
33.889
33.921
33.962
34.014
34.076
34.148
34.232
34.328
34.436
34.558
34.693
34.841
35.001
35.172
35.352
35.537
35.725
35.912
36.096
36.274
36.445
36.606
36.758
36.898
37.027
37.143
37.248
37.339
37.417
37.482
37.535
37.578
37.611
37.637
37.656
37.669
37.676
37.677
37.673
37.664
37.651
37.633
37.612
37.589
37.562
37.534
37.504
37.472
37.439
37.405
37.369
37.333
37.297
37.261
37.224
37.185
37.142
37.096
37.046
36.991
36.933
36.872
36.809
36.745
36.682
36.62
36.561
36.505
36.454
36.406
36.362
36.322
36.285
36.252
36.222
36.196
36.172
36.149
36.128
36.108
36.09
36.073
36.059
36.048
36.039
36.034
36.032
36.032
36.034
36.035
36.035
36.033
36.028
36.02
36.008
35.993
35.976
35.957
35.937
35.916
35.893
35.87
35.844
35.815
35.783
35.748
35.711
35.672
35.632
35.59
35.548
35.505
35.463
35.422
35.382
35.343
35.305
35.266
35.227
35.187
35.147
35.106
35.064
35.022
34.979
34.938
34.898
34.859
34.82
34.78
34.741
34.701
34.662
34.623
34.584
34.546
34.508
34.471
34.434
34.4
34.367
34.337
34.31
34.286
34.264
34.246
34.229
34.212
34.195
34.176
34.157
34.137
34.115
34.092
34.069
34.045
34.023
34.004
33.986
33.971
33.957
33.943
33.929
33.915
33.9
33.884
33.868
33.851
33.834
33.82
33.807
33.797
33.787
33.778
33.768
33.757
33.744
33.73
33.715
33.699
33.686
33.676
33.672
33.675
33.686
33.705
33.734
33.771
33.818
33.875
33.944
34.026
34.121
34.23
34.353
34.491
34.643
34.806
34.98
35.161
35.348
35.537
35.725
35.911
36.092
36.266
36.43
36.583
36.723
36.849
36.962
37.062
37.149
37.225
37.289
37.342
37.385
37.419
37.444
37.46
37.468
37.469
37.462
37.449
37.429
37.404
37.374
37.34
37.305
37.269
37.233
37.196
37.16
37.124
37.089
37.054
37.019
36.983
36.945
36.904
36.86
36.813
36.763
36.71
36.655
36.597
36.538
36.479
36.42
36.361
36.304
36.247
36.193
36.14
36.09
36.042
35.997
35.954
35.913
35.877
35.845
35.819
35.798
35.782
35.771
35.764
35.762
35.762
35.764
35.767
35.769
35.769
35.769
35.767
35.764
35.76
35.754
35.746
35.738
35.728
35.716
35.704
35.689
35.671
35.651
35.629
35.603
35.575
35.544
35.51
35.476
35.441
35.407
35.373
35.338
35.303
35.268
35.232
35.196
35.158
35.118
35.076
35.033
34.99
34.947
34.906
34.866
34.827
34.79
34.754
34.719
34.685
34.651
34.617
34.583
34.548
34.514
34.481
34.448
34.415
34.383
34.351
34.32
34.29
34.259
34.228
34.196
34.164
34.131
34.099
34.068
34.04
34.014
33.992
33.973
33.957
33.943
33.93
33.916
33.9
33.884
33.866
33.848
33.831
33.814
33.798
33.782
33.767
33.753
33.739
33.724
33.708
33.691
33.673
33.655
33.638
33.623
33.613
33.608
33.61
33.62
33.641
33.672
33.715
33.77
33.837
33.916
34.006
34.108
34.221
34.345
34.479
34.622
34.773
34.93
35.092
35.256
35.419
35.578
35.733
35.88
36.019
36.15
36.271
36.383
36.484
36.575
36.656
36.725
36.784
36.833
36.872
36.902
36.923
36.936
36.94
36.936
36.924
36.905
36.88
36.849
36.814
36.775
36.735
36.692
36.649
36.605
36.56
36.516
36.473
36.431
36.389
36.348
36.306
36.262
36.214
36.162
36.103
36.04
35.971
35.899
35.825
35.751
35.677
35.607
35.54
35.479
35.422
35.371
35.324
35.28
35.239
35.202
35.168
35.139
35.114
35.096
35.083
35.076
35.075
35.078
35.085
35.095
35.105
35.114
35.122
35.128
35.133
35.136
35.139
35.141
35.144
35.146
35.148
35.149
35.147
35.143
35.137
35.127
35.114
35.099
35.083
35.065
35.046
35.026
35.005
34.982
34.957
34.932
34.905
34.877
34.848
34.817
34.784
34.749
34.712
34.674
34.634
34.593
34.551
34.508
34.466
34.425
34.386
34.348
34.312
34.276
34.24
34.204
34.168
34.133
34.099
34.066
34.033
34.003
33.974
33.946
33.921
33.895
33.87
33.841
33.809
33.773
33.734
33.696
33.659
33.626
33.597
33.574
33.556
33.544
33.537
33.533
33.531
33.532
33.533
33.534
33.534
33.533
33.532
33.531
33.53
33.531
33.532
33.534
33.538
33.545
33.556
33.572
33.593
33.621
33.658
33.705
33.764
33.836
33.92
34.016
34.123
34.241
34.369
34.504
34.647
34.796
34.95
35.108
35.269
35.432
35.595
35.756
35.912
36.064
36.207
36.341
36.465
36.576
36.673
36.757
36.825
36.879
36.919
36.946
36.962
36.969
36.967
36.959
36.947
36.931
36.911
36.887
36.859
36.826
36.79
36.751
36.706
36.653
36.589
36.518
36.442
36.365
36.289
36.217
36.151
36.092
36.041
35.997
35.96
35.928
35.899
35.872
35.846
35.821
35.796
35.77
35.742
35.712
35.681
35.648
35.615
35.58
35.544
35.507
35.468
35.431
35.395
35.361
35.331
35.305
35.283
35.267
35.257
35.253
35.254
35.26
35.268
35.277
35.286
35.294
35.3
35.304
35.304
35.302
35.297
35.292
35.287
35.281
35.275
35.268
35.258
35.246
35.23
35.212
35.192
35.168
35.142
35.116
35.089
35.063
35.037
35.013
34.987
34.96
34.931
34.899
34.864
34.827
34.788
34.747
34.706
34.665
34.626
34.588
34.552
34.517
34.483
34.449
34.413
34.376
34.337
34.295
34.252
34.207
34.164
34.123
34.086
34.055
34.028
34.005
33.987
33.972
33.96
33.949
33.94
33.93
33.921
33.911
33.901
33.89
33.879
33.866
33.851
33.833
33.814
33.793
33.771
33.748
33.727
33.706
33.689
33.673
33.66
33.648
33.639
33.633
33.629
33.626
33.624
33.622
33.621
33.621
33.626
33.635
33.65
33.672
33.702
33.742
33.791
33.85
33.92
33.999
34.087
34.184
34.293
34.411
34.54
34.679
34.827
34.982
35.144
35.31
35.478
35.644
35.808
35.967
36.119
36.264
36.4
36.525
36.638
36.739
36.83
36.91
36.98
37.043
37.098
37.145
37.186
37.22
37.247
37.267
37.28
37.285
37.284
37.275
37.26
37.239
37.214
37.186
37.155
37.124
37.092
37.06
37.029
36.998
36.966
36.934
36.899
36.863
36.825
36.783
36.738
36.69
36.64
36.588
36.536
36.483
36.431
36.381
36.333
36.288
36.245
36.205
36.166
36.128
36.09
36.053
36.017
35.984
35.954
35.928
35.905
35.887
35.871
35.858
35.848
35.84
35.833
35.827
35.821
35.814
35.808
35.8
35.792
35.784
35.774
35.764
35.753
35.74
35.727
35.713
35.697
35.679
35.66
35.639
35.616
35.59
35.563
35.534
35.505
35.476
35.447
35.42
35.393
35.367
35.34
35.313
35.284
35.252
35.218
35.181
35.142
35.101
35.061
35.021
34.982
34.945
34.91
34.874
34.838
34.803
34.767
34.731
34.696
34.663
34.631
34.602
34.576
34.553
34.533
34.515
34.5
34.486
34.472
34.457
34.441
34.424
34.405
34.383
34.359
34.334
34.308
34.283
34.26
34.239
34.22
34.203
34.188
34.176
34.165
34.155
34.147
34.139
34.131
34.123
34.114
34.105
34.097
34.088
34.078
34.067
34.054
34.041
34.028
34.015
34.001
33.987
33.971
33.955
33.941
33.929
33.92
33.917
33.918
33.927
33.946
33.975
34.017
34.071
34.137
34.215
34.303
34.402
34.511
34.63
34.758
34.894
35.037
35.184
35.336
35.489
35.642
35.792
35.938
36.08
36.217
36.349
36.475
36.595
36.708
36.815
36.913
37.002
37.082
37.152
37.212
37.262
37.303
37.335
37.359
37.374
37.38
37.379
37.37
37.356
37.337
37.315
37.29
37.265
37.239
37.214
37.189
37.165
37.14
37.113
37.082
37.049
37.012
36.973
36.931
36.887
36.84
36.791
36.742
36.693
36.646
36.599
36.555
36.511
36.469
36.427
36.385
36.344
36.302
36.259
36.216
36.174
36.133
36.096
36.062
36.033
36.007
35.986
35.967
35.952
35.938
35.926
35.915
35.904
35.894
35.885
35.877
35.872
35.868
35.865
35.861
35.858
35.854
35.848
35.84
35.831
35.819
35.805
35.791
35.774
35.756
35.735
35.711
35.685
35.657
35.628
35.598
35.566
35.534
35.501
35.467
35.432
35.396
35.357
35.316
35.275
35.232
35.19
35.148
35.108
35.07
35.033
34.999
34.965
34.932
34.899
34.866
34.831
34.797
34.762
34.729
34.696
34.665
34.634
34.605
34.577
34.549
34.523
34.496
34.47
34.444
34.417
34.39
34.363
