Trial 3:3back
34.306
34.297
34.292
34.29
34.291
34.297
34.306
34.319
34.338
34.362
34.393
34.431
34.477
34.531
34.594
34.666
34.747
34.839
34.941
35.053
35.173
35.302
35.436
35.574
35.713
35.852
35.989
36.121
36.247
36.364
36.472
36.567
36.649
36.718
36.772
36.813
36.839
36.853
36.853
36.84
36.817
36.783
36.742
36.695
36.645
36.592
36.538
36.485
36.434
36.385
36.34
36.3
36.266
36.238
36.215
36.198
36.185
36.175
36.167
36.161
36.155
36.149
36.141
36.131
36.117
36.099
36.075
36.047
36.016
35.981
35.945
35.91
35.876
35.844
35.816
35.793
35.775
35.763
35.757
35.757
35.765
35.784
35.816
35.858
35.908
35.96
36.011
36.057
36.095
36.124
36.141
36.146
36.138
36.12
36.092
36.055
36.012
35.963
35.911
35.858
35.804
35.751
35.7
35.651
35.604
35.561
35.521
35.485
35.453
35.425
35.4
35.379
35.359
35.338
35.317
35.294
35.269
35.242
35.212
35.179
35.142
35.102
35.058
35.012
34.964
34.917
34.871
34.828
34.788
34.752
34.721
34.694
34.672
34.655
34.643
34.635
34.632
34.633
34.635
34.639
34.641
34.642
34.64
34.635
34.626
34.614
34.598
34.579
34.557
34.533
34.506
34.478
34.449
34.423
34.398
34.376
34.357
34.343
34.331
34.322
34.317
34.315
34.315
34.318
34.321
34.324
34.328
34.332
34.337
34.343
34.351
34.363
34.378
34.4
34.429
34.468
34.517
34.58
34.656
34.747
34.851
34.968
35.095
35.231
35.374
35.521
35.67
35.819
35.964
36.102
36.232
36.35
36.455
36.547
36.624
36.686
36.733
36.763
36.778
36.778
36.765
36.741
36.709
36.669
36.625
36.578
36.53
36.481
36.434
36.39
36.35
36.316
36.287
36.263
36.244
36.23
36.219
36.211
36.204
36.197
36.19
36.181
36.167
36.149
36.123
36.091
36.053
36.01
35.963
35.916
35.868
35.823
35.781
35.743
35.711
35.685
35.667
35.655
35.652
35.654
35.663
35.676
35.693
35.713
35.734
35.756
35.777
35.797
35.815
35.829
35.84
35.845
35.847
35.843
35.835
35.823
35.808
35.79
35.771
35.75
35.728
35.704
35.68
35.656
35.633
35.609
35.585
35.562
35.54
35.518
35.495
35.471
35.445
35.417
35.387
35.355
35.32
35.284
35.246
35.206
35.165
35.123
35.079
35.036
34.993
34.951
34.913
34.877
34.845
34.817
34.792
34.77
34.752
34.738
34.726
34.717
34.711
34.705
34.699
34.692
34.683
34.672
34.657
34.64
34.621
34.6
34.577
34.552
34.525
34.498
34.469
34.441
34.414
34.389
34.366
34.347
34.332
34.321
34.314
34.31
34.309
34.31
34.312
34.314
34.317
34.32
34.322
34.324
34.326
34.329
34.333
34.34
34.351
34.369
34.395
34.43
34.478
34.539
34.613
34.701
34.802
34.915
35.039
35.172
35.311
35.455
35.601
35.746
35.886
36.018
36.141
36.251
36.348
36.429
36.494
36.545
36.58
36.601
36.609
36.605
36.59
36.567
36.539
36.506
36.471
36.435
36.399
36.364
36.331
36.3
36.271
36.246
36.224
36.203
36.184
36.165
36.145
36.124
36.101
36.077
36.051
36.024
35.995
35.966
35.935
35.902
35.868
35.833
35.797
35.763
35.73
35.701
35.675
35.654
35.636
35.623
35.614
35.609
35.61
35.615
35.624
35.636
35.649
35.662
35.674
35.685
35.693
35.697
35.697
35.694
35.688
35.679
35.668
35.656
35.642
35.627
35.612
35.596
35.581
35.566
35.552
35.538
35.524
35.511
35.498
35.484
35.469
35.452
35.432
35.409
35.383
35.354
35.322
35.287
35.25
35.212
35.172
35.131
35.09
35.049
35.009
34.971
34.934
34.9
34.866
34.835
34.806
34.781
34.758
34.737
34.72
34.705
34.691
34.678
34.663
34.648
34.631
34.613
34.593
34.571
34.549
34.525
34.5
34.473
34.446
34.42
34.394
34.371
34.35
34.332
34.317
34.305
34.294
34.286
34.28
34.281
34.289
34.307
34.331
34.359
34.387
34.41
34.428
34.437
34.435
34.422
34.398
34.365
34.323
34.277
34.229
34.183
34.143
34.111
34.09
34.084
34.093
34.119
34.164
34.227
34.309
34.407
34.522
34.649
34.786
34.93
35.077
35.225
35.371
35.511
35.644
35.766
35.877
35.976
36.061
36.13
36.185
36.225
36.252
36.268
36.273
36.269
36.258
36.24
36.218
36.192
36.166
36.138
36.112
36.086
36.062
36.038
36.014
35.989
35.963
35.936
35.906
35.875
35.842
35.808
35.772
35.735
35.695
35.655
35.614
35.574
35.535
35.498
35.463
35.432
35.405
35.383
35.365
35.351
35.341
35.335
35.332
35.332
35.333
35.336
35.339
35.34
35.339
35.336
35.329
35.32
35.309
35.296
35.284
35.271
35.26
35.251
35.243
35.237
35.232
35.23
35.231
35.235
35.239
35.244
35.249
35.252
35.253
35.25
35.242
35.231
35.214
35.193
35.165
35.132
35.094
35.052
35.006
34.956
34.904
34.85
34.797
34.745
34.695
34.649
34.606
34.567
34.533
34.502
34.475
34.452
34.431
34.414
34.398
34.383
34.368
34.352
34.335
34.316
34.294
34.27
34.244
34.216
34.187
34.158
34.131
34.105
34.081
34.06
34.042
34.027
34.016
34.01
34.007
34.008
34.011
34.016
34.022
34.027
34.03
34.032
34.031
34.027
34.021
34.01
33.996
33.979
33.959
33.936
33.911
33.886
33.861
33.838
33.819
33.804
33.795
33.794
33.8
33.815
33.838
33.872
33.916
33.973
34.041
34.122
34.213
34.314
34.424
34.539
34.659
34.781
34.903
35.024
35.142
35.255
35.361
35.461
35.553
35.636
35.709
35.774
35.829
35.875
35.913
35.944
35.966
35.979
35.985
35.983
35.975
35.962
35.943
35.921
35.895
35.867
35.836
35.804
35.769
35.734
35.698
35.662
35.625
35.589
35.554
35.52
35.489
35.459
35.431
35.405
35.381
35.359
35.34
35.322
35.307
35.292
35.279
35.267
35.255
35.243
35.232
35.22
35.209
35.199
35.189
35.18
35.173
35.166
35.161
35.157
35.155
35.155
35.159
35.165
35.175
35.187
35.201
35.218
35.235
35.252
35.27
35.288
35.305
35.321
35.334
35.343
35.348
35.346
35.339
35.326
35.307
35.284
35.256
35.225
35.19
35.153
35.114
35.075
35.036
34.998
34.961
34.927
34.895
34.867
34.841
34.819
34.8
34.782
34.766
34.75
34.733
34.716
34.697
34.678
34.657
34.635
34.611
34.587
34.561
34.534
34.505
34.477
34.449
34.424
34.4
34.379
34.361
34.346
34.333
34.322
34.314
34.308
34.305
34.304
34.305
34.306
34.306
34.304
34.299
34.292
34.282
34.269
34.255
34.239
34.224
34.208
34.193
34.178
34.165
34.154
34.146
34.144
34.148
34.16
34.18
34.209
34.248
34.298
34.358
34.429
34.511
34.603
34.704
34.813
34.929
35.048
35.17
35.291
35.409
35.523
35.631
35.732
35.828
35.923
36.017
36.109
36.194
36.27
36.333
36.384
36.421
36.443
36.449
36.439
36.416
36.381
36.337
36.286
36.229
36.17
36.11
36.05
35.992
35.936
35.882
35.832
35.785
35.741
35.702
35.666
35.634
35.607
35.584
35.564
35.546
35.53
35.515
35.5
35.485
35.472
35.459
35.447
35.435
35.423
35.411
35.398
35.384
35.369
35.355
35.341
35.327
35.315
35.303
35.294
35.286
35.282
35.28
35.281
35.286
35.293
35.302
35.314
35.327
35.341
35.356
35.37
35.382
35.393
35.401
35.406
35.407
35.404
35.396
35.385
35.368
35.348
35.323
35.294
35.261
35.227
35.191
35.155
35.12
35.086
35.054
35.023
34.995
34.97
34.946
34.925
34.906
34.888
34.87
34.852
34.833
34.814
34.794
34.772
34.75
34.728
34.704
34.681
34.656
34.63
34.604
34.577
34.551
34.526
34.502
34.481
34.462
34.444
34.427
34.41
34.395
34.381
34.368
34.358
34.35
34.345
34.341
34.338
34.336
34.334
34.33
34.325
34.316
34.306
34.293
34.278
34.261
34.244
34.227
34.211
34.198
34.187
34.18
34.178
34.182
34.193
34.214
34.246
34.288
34.343
34.409
34.488
34.577
34.677
34.786
34.903
35.026
35.152
35.279
35.404
35.525
35.64
35.747
35.844
35.932
36.01
36.079
36.138
36.186
36.224
36.252
36.271
36.282
36.287
36.286
36.28
36.27
36.255
36.236
36.212
36.185
36.153
36.118
36.08
36.04
35.999
35.957
35.914
35.871
35.831
35.794
35.761
35.732
35.709
35.69
35.675
35.664
35.657
35.651
35.648
35.645
35.642
35.638
35.634
35.629
35.622
35.614
35.604
35.593
35.582
35.571
35.559
35.548
35.538
35.53
35.522
35.518
35.515
35.515
35.516
35.518
35.522
35.526
35.532
35.538
35.546
35.555
35.563
35.571
35.577
35.581
35.584
35.583
35.58
35.572
35.561
35.545
35.524
35.498
35.47
35.438
35.404
35.37
35.335
35.299
35.263
35.227
35.191
35.156
35.122
35.089
35.059
35.031
35.006
34.983
34.961
34.94
34.92
34.9
34.879
34.857
34.834
34.809
34.784
34.757
34.728
34.697
34.665
34.633
34.601
34.571
34.543
34.518
34.496
34.478
34.464
34.453
34.445
34.439
34.435
34.431
34.427
34.424
34.42
34.416
34.409
34.401
34.39
34.376
34.36
34.341
34.32
34.299
34.277
34.255
34.234
34.214
34.195
34.179
34.164
34.152
34.145
34.144
34.149
34.162
34.182
34.21
34.247
34.293
34.349
34.416
34.492
34.579
34.674
34.776
34.883
34.994
35.106
35.217
35.327
35.434
35.536
35.634
35.725
35.81
35.885
35.953
36.011
36.06
36.101
36.132
36.153
36.166
36.169
36.164
36.15
36.13
36.104
36.073
36.037
35.999
35.958
35.918
35.877
35.838
35.801
35.765
35.732
35.702
35.675
35.651
35.63
35.612
35.597
35.585
35.574
35.565
35.556
35.547
35.537
35.528
35.517
35.505
35.49
35.474
35.454
35.432
35.408
35.382
35.356
35.331
35.308
35.289
35.277
35.275
35.278
35.285
35.293
35.302
35.31
35.319
35.328
35.338
35.347
35.355
35.363
35.368
35.372
35.373
35.369
35.362
35.35
35.334
35.312
35.285
35.254
35.219
35.183
35.146
35.109
35.073
35.039
35.007
34.979
34.954
34.931
34.911
34.893
34.876
34.861
34.846
34.832
34.817
34.801
34.783
34.763
34.742
34.718
34.691
34.662
34.632
34.601
34.57
34.54
34.512
34.485
34.459
34.436
34.415
34.398
34.384
34.374
34.367
34.361
34.358
34.354
34.351
34.347
34.343
34.337
34.33
34.321
34.311
34.3
34.286
34.271
34.253
34.234
34.214
34.193
34.173
34.155
34.138
34.124
34.112
34.104
34.099
34.097
34.1
34.106
34.117
34.131
34.15
34.173
34.2
34.232
34.27
34.313
34.362
34.417
34.479
34.549
34.628
34.714
34.808
34.909
35.014
35.122
35.232
35.342
35.451
35.558
35.662
35.76
35.85
35.932
36.003
36.061
36.105
36.136
36.153
36.158
36.151
36.134
36.108
36.074
36.033
35.988
35.94
35.891
35.842
35.795
35.751
35.711
35.675
35.643
35.616
35.592
35.572
35.555
35.541
35.53
35.522
35.515
35.508
35.5
35.49
35.478
35.463
35.447
35.428
35.409
35.389
35.368
35.346
35.325
35.304
35.284
35.267
35.252
35.242
35.237
35.236
35.24
35.248
35.261
35.277
35.297
35.318
35.339
35.36
35.379
35.395
35.408
35.417
35.42
35.419
35.412
35.4
35.383
35.361
35.336
35.31
35.282
35.254
35.226
35.198
35.172
35.147
35.125
35.106
35.089
35.074
35.059
35.045
35.03
35.012
34.992
34.971
34.947
34.922
34.895
34.866
34.835
34.802
34.768
34.732
34.695
34.659
34.625
34.594
34.565
34.541
34.519
34.501
34.487
34.476
34.469
34.465
34.464
34.465
34.467
34.468
34.469
34.468
34.463
34.455
34.444
34.428
34.411
34.391
34.37
34.349
34.328
34.309
34.293
34.279
34.267
34.258
34.252
34.247
34.245
34.245
34.246
34.249
34.252
34.256
34.261
34.265
34.269
34.273
34.278
34.285
34.295
34.311
34.333
34.363
34.402
34.45
34.508
34.577
34.657
34.746
34.844
34.95
35.063
35.18
35.299
35.419
35.536
35.648
35.754
35.852
35.939
36.015
36.077
36.126
36.161
36.183
36.193
36.192
36.182
36.162
36.135
36.103
36.067
36.029
35.99
35.951
35.912
35.876
35.844
35.815
35.791
35.771
35.755
35.742
35.731
35.721
35.71
35.699
35.685
35.669
35.65
35.628
35.603
35.574
35.542
35.507
35.469
35.431
35.395
35.361
35.33
35.304
35.283
35.266
35.254
35.248
35.247
35.252
35.261
35.275
35.291
35.308
35.326
35.344
35.36
35.375
35.387
35.397
35.404
35.408
35.409
35.406
35.4
35.39
35.378
35.364
35.349
35.334
35.318
35.303
35.288
35.274
35.259
35.245
35.229
35.213
35.196
35.177
35.157
35.136
35.114
35.091
35.065
35.038
35.007
34.975
34.94
34.903
34.866
34.83
34.794
34.759
34.726
34.694
34.664
34.637
34.612
34.592
34.575
34.562
34.552
34.544
34.536
34.528
34.519
34.509
34.497
34.483
34.467
34.449
34.43
34.411
34.391
34.374
34.358
34.344
34.331
34.318
34.305
34.292
34.28
34.27
34.26
34.251
34.243
34.236
34.228
34.22
34.212
34.203
34.193
34.183
34.171
34.159
34.148
34.136
34.126
34.117
34.112
34.11
34.113
34.124
34.142
34.17
34.209
34.258
34.319
34.39
34.473
34.566
34.667
34.776
34.89
35.006
35.121
35.234
35.342
35.443
35.536
35.619
35.692
35.754
35.803
35.841
35.869
35.886
35.895
35.897
35.893
35.884
35.872
35.858
35.843
35.827
35.809
35.792
35.774
35.755
35.737
35.718
35.698
35.677
35.655
35.631
35.605
35.578
35.548
35.516
35.483
35.449
35.416
35.383
35.351
35.321
35.292
35.265
35.242
35.222
35.206
35.194
35.186
35.181
35.18
35.18
35.181
35.183
35.185
35.188
35.19
35.191
35.192
35.191
35.188
35.182
35.173
35.163
35.152
35.141
35.133
35.127
35.124
35.125
35.128
35.135
35.144
35.156
35.169
35.184
35.198
35.211
35.221
35.225
35.225
35.218
35.205
35.185
35.16
35.13
35.096
35.058
35.018
34.976
34.933
34.89
34.848
34.809
34.772
34.739
34.711
34.687
34.667
34.651
34.637
34.626
34.616
34.607
34.597
34.586
34.572
34.557
34.537
34.514
34.486
34.455
34.421
34.385
34.347
34.311
34.276
34.244
34.217
34.194
34.176
34.163
34.155
34.151
34.151
34.155
34.161
34.17
34.18
34.19
34.197
34.202
34.202
34.197
34.186
34.17
34.151
34.128
34.102
34.074
34.044
34.016
33.988
33.963
33.943
33.928
33.919
33.918
33.925
33.941
33.966
34.001
34.044
34.096
34.156
34.223
34.299
34.381
34.469
34.56
34.655
34.752
34.85
34.948
35.044
35.137
35.226
35.31
35.389
35.461
35.528
35.588
35.641
35.686
35.723
35.753
35.774
35.789
35.798
35.8
35.797
35.789
35.775
35.756
35.731
35.701
35.669
35.634
35.597
35.559
35.521
35.483
35.447
35.412
35.38
35.351
35.327
35.306
35.291
35.28
35.272
35.267
35.264
35.261
35.258
35.254
35.25
35.244
35.237
35.228
35.217
35.205
35.192
35.179
35.166
35.154
35.143
35.135
35.13
35.128
35.129
35.132
35.139
35.149
35.162
35.177
35.195
35.214
35.235
35.255
35.275
35.294
35.31
35.324
35.333
35.337
35.336
35.33
35.319
35.305
35.287
35.265
35.241
35.216
35.189
35.161
35.134
35.108
35.084
35.062
35.042
35.024
35.007
34.991
34.975
34.959
34.944
34.929
34.913
34.898
34.88
34.861
34.84
34.817
34.791
34.763
34.735
34.706
34.678
34.651
34.626
34.602
34.585
34.579
34.581
34.586
34.591
34.592
34.588
34.579
34.566
34.548
34.526
34.502
34.477
34.452
34.427
34.403
34.381
34.36
34.341
34.324
34.309
34.296
34.284
34.274
34.266
34.26
34.256
34.256
34.259
34.268
34.281
34.3
34.324
34.353
34.388
34.428
34.473
34.524
34.581
34.644
34.712
34.786
34.864
34.945
35.029
35.116
35.205
35.296
35.387
35.478
35.568
35.654
35.735
35.81
35.878
35.938
35.99
36.033
36.067
36.092
36.109
36.116
36.114
36.103
36.085
36.06
36.029
35.995
35.956
35.914
35.87
35.826
35.781
35.738
35.697
35.659
35.623
35.592
35.564
35.539
35.517
35.498
35.481
35.466
35.452
35.44
35.427
35.414
35.399
35.383
35.364
35.344
35.323
35.3
35.276
35.252
35.229
35.208
35.189
35.173
35.16
35.151
35.146
35.145
35.148
35.155
35.165
35.179
35.196
35.214
35.233
35.252
35.27
35.285
35.298
35.306
35.31
35.31
35.304
35.294
35.278
35.258
35.234
35.206
35.178
35.149
35.12
35.093
35.067
35.043
35.021
35.001
34.982
34.966
34.951
34.938
34.926
34.914
34.901
34.888
34.873
34.855
34.835
34.811
34.785
34.756
34.726
34.694
34.661
34.628
34.595
34.564
34.533
34.504
34.477
34.454
34.433
34.416
34.402
34.391
34.383
34.378
34.375
34.372
34.371
34.368
34.365
34.36
34.353
34.343
34.331
34.317
34.3
34.282
34.263
34.244
34.224
34.206
34.19
34.177
34.167
34.162
34.16
34.163
34.169
34.181
34.199
34.223
34.254
34.293
34.338
34.391
34.451
34.517
34.589
34.665
34.745
34.829
34.917
35.007
35.099
35.192
35.285
35.376
35.465
35.55
35.63
35.705
35.774
35.836
35.891
35.938
35.975
36.004
36.022
36.032
36.031
36.021
36.003
35.978
35.945
35.906
35.862
35.816
35.767
35.718
35.671
35.627
35.587
35.551
35.52
35.494
35.472
35.454
35.441
35.43
35.422
35.416
35.411
35.405
35.398
35.39
35.378
35.365
35.348
35.329
35.307
35.283
35.259
35.236
35.213
35.193
35.176
35.162
35.153
35.148
35.148
35.153
35.163
35.177
35.195
35.216
35.239
35.263
35.288
35.31
35.33
35.347
35.359
35.367
35.37
35.368
35.359
35.345
35.327
35.305
35.28
35.254
35.228
35.202
35.177
35.154
35.133
35.113
35.096
35.08
35.067
35.056
35.046
35.037
35.027
35.016
35.002
34.985
34.965
34.941
34.915
34.886
34.855
34.821
34.786
34.751
34.716
34.682
34.651
34.622
34.596
34.573
34.553
34.537
34.524
34.514
34.507
34.502
34.498
34.494
34.489
34.483
34.474
34.462
34.442
34.414
34.378
34.335
34.288
34.24
34.195
34.153
34.118
34.09
34.07
34.06
34.058
34.066
34.08
34.099
34.123
34.149
34.175
34.202
34.226
34.248
34.267
34.283
34.297
34.309
34.32
34.331
34.344
34.36
34.382
34.412
34.451
34.501
34.561
34.633
34.714
34.805
34.905
35.011
35.122
35.235
35.348
35.458
35.562
35.656
35.74
35.81
35.867
35.91
35.938
35.953
35.954
35.943
35.921
35.888
35.848
35.801
35.752
35.701
35.65
35.602
35.556
35.516
35.482
35.453
35.432
35.415
35.404
35.397
35.392
35.388
35.384
35.378
35.369
35.357
35.339
35.317
35.289
35.257
35.222
35.183
35.143
35.104
35.066
35.03
34.998
34.969
34.946
34.929
34.92
34.918
34.924
34.937
34.956
34.979
35.006
35.033
35.06
35.084
35.105
35.121
35.133
35.138
35.139
35.133
35.122
35.106
35.087
35.067
35.046
35.025
35.005
34.986
34.968
34.952
34.938
34.925
34.912
34.902
34.891
34.882
34.873
34.863
34.852
34.839
34.823
34.803
34.778
34.75
34.719
34.685
34.649
34.613
34.576
34.54
34.504
34.469
34.435
34.404
34.376
34.352
34.331
34.314
34.3
34.288
34.277
34.267
34.255
34.243
34.229
34.214
34.198
34.181
34.163
34.143
34.123
34.101
34.079
34.058
34.038
34.02
34.005
33.992
33.983
33.977
33.974
33.972
33.972
33.973
33.975
33.977
33.979
33.98
33.981
33.981
33.979
33.975
33.969
33.961
33.951
33.942
33.933
33.928
33.928
33.935
33.952
33.979
34.017
34.067
34.129
34.203
34.288
34.385
34.492
34.607
34.729
34.854
34.979
35.103
35.221
35.333
35.437
35.53
35.613
35.683
35.741
35.786
35.819
35.839
35.848
35.849
35.842
35.83
35.814
35.795
35.774
35.752
35.728
35.704
35.681
35.658
35.635
35.613
35.591
35.569
35.547
35.524
35.498
35.47
35.439
35.406
35.371
35.335
35.298
35.261
35.225
35.191
35.159
35.129
35.102
35.079
35.06
35.044
35.034
35.029
35.03
35.034
35.042
35.052
35.064
35.076
35.087
35.097
35.106
35.113
35.119
35.122
35.124
35.125
35.123
35.12
35.117
35.114
35.112
35.112
35.113
35.115
35.119
35.123
35.129
35.136
35.143
35.15
35.155
35.158
35.157
35.151
35.141
35.124
35.103
35.076
35.047
35.015
34.982
34.949
34.916
34.885
34.855
34.826
34.798
34.772
34.748
34.726
34.706
34.689
34.674
34.662
34.651
34.639
34.628
34.616
34.602
34.586
34.568
34.547
34.524
34.499
34.473
34.447
34.421
34.395
34.37
34.347
34.325
34.306
34.291
34.278
34.269
34.262
34.257
34.254
34.252
34.251
34.248
34.245
34.24
34.235
34.23
34.225
34.22
34.217
34.215
34.216
34.22
34.23
34.247
34.273
34.31
34.36
34.422
34.497
34.58
34.672
34.77
34.873
34.979
35.087
35.196
35.302
35.405
35.503
35.595
35.679
35.754
