Trial 3:3back
33.428
33.923
34.459
35.027
35.615
36.212
36.806
37.386
37.942
38.466
38.949
39.385
39.769
40.099
40.374
40.594
40.762
40.881
40.955
40.989
40.987
40.955
40.898
40.821
40.728
40.622
40.508
40.387
40.262
40.134
40.003
39.871
39.736
39.6
39.464
39.326
39.188
39.05
38.911
38.773
38.636
38.5
38.365
38.232
38.102
37.973
37.847
37.721
37.596
37.47
37.344
37.215
37.086
36.956
36.823
36.688
36.55
36.408
36.262
36.117
35.973
35.834
35.701
35.574
35.456
35.348
35.251
35.165
35.089
35.024
34.97
34.927
34.894
34.871
34.857
34.852
34.854
34.862
34.874
34.89
34.908
34.927
34.945
34.962
34.976
34.986
34.99
34.988
34.98
34.965
34.944
34.917
34.885
34.847
34.806
34.761
34.714
34.663
34.609
34.552
34.493
34.43
34.366
34.301
34.234
34.164
34.094
34.023
33.952
33.88
33.807
33.734
33.659
33.584
33.509
33.433
33.357
33.283
33.209
33.137
33.067
32.998
32.93
32.864
32.8
32.739
32.678
32.62
32.563
32.508
32.453
32.398
32.341
32.284
32.227
32.172
32.119
32.068
32.018
31.971
31.925
31.88
31.838
31.798
31.76
31.725
31.693
31.664
31.638
31.615
31.595
31.577
31.56
31.545
31.532
31.523
31.516
31.512
31.51
31.51
31.511
31.512
31.514
31.516
31.517
31.518
31.52
31.521
31.523
31.526
31.527
31.529
31.53
31.531
31.531
31.531
31.53
31.528
31.526
31.521
31.515
31.506
31.497
31.486
31.475
31.464
31.454
31.447
31.445
31.449
31.465
31.497
31.553
31.641
31.77
31.947
32.18
32.473
32.827
33.242
33.712
34.232
34.793
35.383
35.991
36.604
37.209
37.791
38.341
38.849
39.307
39.712
40.059
40.347
40.576
40.748
40.866
40.933
40.956
40.939
40.889
40.811
40.71
40.59
40.457
40.315
40.167
40.017
39.867
39.72
39.576
39.437
39.304
39.175
39.051
38.931
38.815
38.703
38.596
38.492
38.391
38.294
38.199
38.107
38.017
37.929
37.842
37.756
37.671
37.586
37.5
37.415
37.329
37.242
37.154
37.063
36.969
36.869
36.766
36.658
36.546
36.431
36.313
36.194
36.076
35.959
35.844
35.732
35.626
35.527
35.437
35.357
35.286
35.225
35.173
35.13
35.096
35.069
35.05
35.036
35.027
35.022
35.02
35.021
35.023
35.026
35.029
35.03
35.029
35.024
35.015
35.002
34.983
34.959
34.93
34.896
34.857
34.815
34.769
34.721
34.671
34.62
34.568
34.516
34.462
34.409
34.355
34.3
34.244
34.186
34.126
34.064
34.002
33.94
33.878
33.816
33.752
33.689
33.624
33.557
33.49
33.422
33.356
33.29
33.226
33.165
33.105
33.049
32.995
32.943
32.893
32.845
32.799
32.754
32.712
32.672
32.632
32.593
32.552
32.511
32.467
32.422
32.375
32.328
32.28
32.233
32.186
32.138
32.092
32.045
31.999
31.955
31.912
31.871
31.834
31.8
31.769
31.741
31.714
31.689
31.665
31.643
31.621
31.6
31.58
31.561
31.543
31.524
31.505
31.485
31.465
31.445
31.427
31.409
31.394
31.38
31.37
31.361
31.353
31.347
31.34
31.333
31.325
31.316
31.306
31.294
31.281
31.267
31.25
31.233
31.214
31.196
31.178
31.162
31.149
31.141
31.139
31.148
31.172
31.216
31.29
31.4
31.554
31.761
32.026
32.352
32.741
33.188
33.689
34.235
34.816
35.42
36.037
36.652
37.254
37.831
38.372
38.869
39.316
39.709
40.044
40.32
40.54
40.705
40.819
40.885
40.91
40.897
40.853
40.784
40.693
40.586
40.466
40.336
40.198
40.055
39.908
39.759
39.61
39.462
39.317
39.174
39.035
38.899
38.767
38.64
38.518
38.4
38.285
38.172
38.062
37.955
37.849
37.746
37.645
37.546
37.449
37.353
37.257
37.162
37.066
36.969
36.87
36.769
36.664
36.558
36.452
36.346
36.24
36.135
36.032
35.932
35.836
35.744
35.657
35.575
35.5
35.432
35.372
35.32
35.275
35.237
35.206
35.182
35.165
35.154
35.15
35.151
35.158
35.168
35.182
35.198
35.214
35.23
35.243
35.253
35.258
35.257
35.251
35.239
35.222
35.2
35.172
35.139
35.099
35.052
34.997
34.936
34.87
34.8
34.727
34.653
34.579
34.504
34.43
34.357
34.284
34.21
34.135
34.06
33.985
33.91
33.833
33.756
33.677
33.598
33.517
33.435
33.352
33.27
33.188
33.108
33.028
32.949
32.871
32.794
32.72
32.649
32.581
32.517
32.457
32.401
32.35
32.301
32.255
32.211
32.167
32.125
32.083
32.041
32.0
31.96
31.921
31.882
31.842
31.801
31.76
31.718
31.677
31.637
31.599
31.563
31.529
31.497
31.467
31.439
31.413
31.389
31.369
31.352
31.339
31.33
31.324
31.321
31.32
31.321
31.321
31.32
31.319
31.316
31.31
31.3
31.286
31.269
31.247
31.222
31.193
31.161
31.127
31.092
31.056
31.019
30.982
30.945
30.909
30.874
30.841
30.81
30.782
30.759
30.741
30.727
30.719
30.716
30.723
30.74
30.774
30.828
30.91
31.027
31.189
31.401
31.671
32.001
32.395
32.85
33.36
33.919
34.514
35.135
35.769
36.402
37.022
37.616
38.175
38.689
39.149
39.551
39.891
40.169
40.384
40.542
40.645
40.693
40.685
40.627
40.526
40.394
40.24
40.073
39.902
39.732
39.567
39.411
39.264
39.126
38.996
38.873
38.756
38.645
38.538
38.434
38.331
38.228
38.124
38.019
37.911
37.8
37.688
37.574
37.459
37.343
37.227
37.11
36.992
36.872
36.752
36.63
36.507
36.383
36.258
36.133
36.006
35.879
35.752
35.626
35.503
35.382
35.265
35.153
35.048
34.95
34.86
34.779
34.707
34.645
34.593
34.552
34.52
34.497
34.483
34.476
34.478
34.487
34.501
34.52
34.541
34.562
34.581
34.597
34.609
34.617
34.624
34.628
34.63
34.63
34.628
34.622
34.613
34.601
34.584
34.562
34.535
34.503
34.466
34.426
34.382
34.335
34.284
34.231
34.175
34.118
34.059
33.998
33.935
33.87
33.804
33.737
33.669
33.601
33.531
33.46
33.39
33.319
33.25
33.181
33.115
33.051
32.989
32.929
32.871
32.815
32.76
32.707
32.656
32.608
32.562
32.517
32.473
32.432
32.39
32.349
32.308
32.266
32.224
32.182
32.138
32.093
32.046
31.999
31.953
31.908
31.864
31.821
31.779
31.739
31.699
31.661
31.624
31.591
31.561
31.536
31.516
31.499
31.486
31.477
31.472
31.47
31.47
31.473
31.478
31.483
31.489
31.492
31.493
31.492
31.487
31.481
31.472
31.461
31.447
31.433
31.417
31.401
31.383
31.365
31.347
31.33
31.313
31.297
31.284
31.274
31.268
31.265
31.267
31.274
31.29
31.318
31.365
31.435
31.537
31.678
31.867
32.111
32.414
32.777
33.2
33.677
34.204
34.772
35.369
35.983
36.602
37.213
37.803
38.363
38.882
39.353
39.769
40.127
40.426
40.667
40.851
40.982
41.064
41.1
41.097
41.059
40.991
40.899
40.789
40.663
40.524
40.375
40.219
40.058
39.894
39.728
39.561
39.393
39.225
39.057
38.889
38.722
38.557
38.393
38.231
38.07
37.91
37.751
37.592
37.434
37.276
37.119
36.963
36.808
36.655
36.503
36.352
36.201
36.05
35.899
35.75
35.601
35.455
35.312
35.174
35.043
34.92
34.805
34.7
34.605
34.521
34.448
34.386
34.337
34.299
34.273
34.257
34.252
34.257
34.271
34.294
34.324
34.36
34.402
34.449
34.499
34.551
34.605
34.659
34.712
34.76
34.805
34.844
34.877
34.904
34.924
34.938
34.945
34.947
34.942
34.93
34.911
34.885
34.854
34.817
34.774
34.726
34.673
34.617
34.556
34.493
34.426
34.356
34.284
34.21
34.134
34.059
33.983
33.907
33.831
33.755
33.68
33.605
33.531
33.458
33.387
33.319
33.254
33.191
33.131
33.073
33.016
32.959
32.902
32.846
32.79
32.736
32.682
32.628
32.575
32.521
32.468
32.414
32.358
32.3
32.24
32.18
32.12
32.061
32.005
31.952
31.904
31.859
31.818
31.782
31.75
31.722
31.698
31.677
31.659
31.644
31.632
31.622
31.613
31.604
31.596
31.587
31.578
31.567
31.555
31.542
31.527
31.512
31.497
31.482
31.468
31.456
31.446
31.438
31.431
31.425
31.422
31.421
31.421
31.422
31.424
31.425
31.427
31.429
31.431
31.434
31.439
31.448
31.465
31.494
31.54
31.61
31.713
31.857
32.052
32.306
32.624
33.009
33.462
33.978
34.549
35.167
35.82
36.497
37.184
37.867
38.53
39.159
39.743
40.274
40.744
41.15
41.488
41.76
41.967
42.112
42.201
42.238
42.232
42.188
42.115
42.017
41.901
41.77
41.63
41.484
41.335
41.184
41.032
40.881
40.732
40.584
40.438
40.294
40.151
40.008
39.865
39.721
39.577
39.432
39.287
39.143
39.001
38.86
38.722
38.586
38.454
38.325
38.198
38.072
37.947
37.822
37.697
37.573
37.448
37.324
37.2
37.077
36.954
36.832
36.71
36.591
36.474
36.362
36.256
36.159
36.071
35.994
35.927
35.871
35.825
35.789
35.76
35.738
35.722
35.713
35.711
35.716
35.727
35.743
35.764
35.79
35.817
35.846
35.874
35.902
35.929
35.954
35.974
35.99
35.999
36.002
35.998
35.985
35.964
35.936
35.901
35.86
35.814
35.765
35.711
35.654
35.593
35.528
35.458
35.385
35.309
35.23
35.148
35.064
34.978
34.89
34.801
34.71
34.617
34.522
34.425
34.326
34.227
34.128
34.03
33.933
33.839
33.748
33.659
33.572
33.486
33.404
33.324
33.246
33.171
33.099
33.031
32.967
32.907
32.85
32.794
32.739
32.684
32.631
32.578
32.526
32.475
32.424
32.375
32.328
32.283
32.239
32.198
32.16
32.124
32.091
32.059
32.03
32.002
31.976
31.951
31.927
31.905
31.886
31.871
31.86
31.853
31.85
31.851
31.855
31.863
31.873
31.885
31.9
31.916
31.933
31.951
31.968
31.985
32.0
32.014
32.026
32.036
32.043
32.047
32.048
32.045
32.039
32.029
32.015
31.999
31.979
31.956
31.929
31.901
31.873
31.847
31.824
31.808
31.802
31.812
31.849
31.92
32.035
32.204
32.436
32.738
33.113
33.561
34.078
34.657
35.288
35.958
36.653
37.357
38.055
38.733
39.378
39.979
40.529
41.02
41.448
41.81
42.106
42.337
42.505
42.615
42.671
42.68
42.648
42.581
42.484
42.363
42.221
42.064
41.895
41.719
41.538
41.355
41.173
40.994
40.82
40.65
40.485
40.326
40.17
40.018
39.869
39.723
39.58
39.439
39.3
39.163
39.028
38.895
38.766
38.64
38.517
38.395
38.274
38.153
38.032
37.909
37.786
37.66
37.534
37.406
37.279
37.154
37.03
36.91
36.794
36.683
36.578
36.48
36.388
36.303
36.227
36.158
36.098
36.047
36.006
35.974
35.95
35.935
35.927
35.927
35.934
35.947
35.965
35.987
36.012
36.038
36.065
36.09
36.111
36.128
36.14
36.145
36.143
36.135
36.12
36.099
36.072
36.038
35.999
35.955
35.906
35.852
35.795
35.736
35.674
35.611
35.546
35.478
35.409
35.337
35.263
35.186
35.107
35.027
34.946
34.866
34.786
34.707
34.628
34.548
34.469
34.389
34.309
34.227
34.145
34.063
33.981
33.899
33.819
33.74
33.661
33.584
33.509
33.436
33.364
33.293
33.224
33.155
33.086
33.017
32.948
32.88
32.813
32.749
32.687
32.629
32.575
32.525
32.48
32.438
32.398
32.361
32.326
32.293
32.263
32.236
32.211
32.188
32.167
32.146
32.125
32.103
32.08
32.056
32.032
32.006
31.98
31.953
31.927
31.901
31.876
31.853
31.832
31.813
31.797
31.783
31.771
31.761
31.753
31.745
31.738
31.73
31.722
31.713
31.702
31.69
31.677
31.669
31.673
31.689
31.714
31.744
31.774
31.801
31.82
31.831
31.835
31.831
31.825
31.82
31.823
31.844
31.893
31.981
32.118
32.317
32.585
32.927
33.345
33.835
34.39
35.003
35.66
36.349
37.053
37.757
38.445
39.103
39.72
40.284
40.79
41.232
41.605
41.91
42.147
42.321
42.434
42.494
42.507
42.48
42.418
42.329
42.218
42.089
41.949
41.799
41.642
41.481
41.317
41.151
40.985
40.821
40.658
40.497
40.337
40.178
40.022
39.867
39.716
39.566
39.418
39.271
39.125
38.979
38.835
38.691
38.549
38.41
38.272
38.136
38.0
37.865
37.731
37.597
37.465
37.334
37.206
37.082
36.963
36.848
36.739
36.635
36.538
36.447
36.363
36.284
36.211
36.146
36.09
36.043
36.006
35.978
35.959
35.949
35.947
35.952
35.963
35.981
36.005
36.035
36.071
36.111
36.153
36.196
36.237
36.274
36.306
36.331
36.349
36.361
36.366
36.366
36.359
36.345
36.324
36.294
36.256
36.211
36.159
36.102
36.04
35.975
35.908
35.837
35.765
35.691
35.616
35.54
35.46
35.378
35.294
35.208
35.122
35.037
34.954
34.873
34.794
34.718
34.645
34.575
34.507
34.441
34.377
34.315
34.255
34.197
34.139
34.083
34.026
33.968
33.91
33.852
33.794
33.735
33.676
33.615
33.554
33.493
33.431
33.369
33.308
33.247
33.188
33.132
33.078
33.026
32.976
32.929
32.885
32.843
32.805
32.77
32.739
32.712
32.687
32.665
32.645
32.625
32.606
32.587
32.568
32.55
32.531
32.513
32.495
32.476
32.456
32.435
32.414
32.392
32.371
32.35
32.329
32.307
32.285
32.263
32.241
32.22
32.201
32.184
32.17
32.158
32.146
32.136
32.125
32.114
32.103
32.091
32.079
32.07
32.066
32.071
32.091
32.131
32.198
32.302
32.45
32.648
32.903
33.218
33.596
34.037
34.536
35.087
35.681
36.306
36.949
37.596
38.234
38.852
39.436
39.979
40.473
40.913
41.293
41.614
41.876
42.082
42.235
42.339
42.398
42.416
42.4
42.353
42.28
42.186
42.073
41.945
41.804
41.655
41.499
41.339
41.176
41.013
40.849
40.687
40.525
40.363
40.203
40.044
39.886
39.729
39.575
39.424
39.277
39.133
38.993
38.855
38.717
38.58
38.442
38.304
38.166
38.025
37.883
37.74
37.596
37.451
37.307
37.163
37.021
36.883
36.75
36.623
36.505
36.396
36.298
36.214
36.143
36.086
36.043
36.013
35.997
35.994
36.004
36.024
36.055
36.095
36.142
36.194
36.248
36.303
36.357
36.408
36.455
36.498
36.536
36.57
36.597
36.619
36.634
36.641
36.641
36.633
36.618
36.594
36.561
36.521
36.472
36.417
36.356
36.288
36.216
36.141
36.064
35.986
35.909
35.832
35.756
35.68
35.604
35.527
35.447
35.364
35.277
35.185
35.089
34.99
34.887
34.783
34.679
34.576
34.474
34.376
34.281
34.19
34.104
34.022
33.947
33.877
33.812
33.753
33.699
33.649
33.603
33.56
33.52
33.483
33.448
33.416
33.385
33.354
33.324
33.293
33.26
33.225
33.187
33.146
33.103
33.058
33.011
32.962
32.912
32.86
32.809
32.757
32.707
32.657
32.609
32.564
32.521
32.48
32.443
32.409
32.377
32.349
32.323
32.299
32.279
32.26
32.244
32.229
32.219
32.212
32.209
32.208
32.209
32.21
32.21
32.207
32.201
32.191
32.177
32.16
32.141
32.12
32.099
32.078
32.06
32.044
32.032
32.024
32.02
32.02
32.025
32.034
32.049
32.071
32.1
32.14
32.193
32.264
32.359
32.484
32.646
32.854
33.113
33.429
33.807
34.246
34.744
35.295
35.892
36.525
37.182
37.852
38.522
39.178
39.81
40.405
40.954
41.45
41.887
42.262
42.575
42.827
43.022
43.162
43.253
43.301
43.311
43.289
43.237
43.16
43.062
42.944
42.81
42.664
42.507
42.344
42.177
42.008
41.839
41.671
41.505
41.342
41.18
41.021
40.863
40.708
40.556
40.41
40.268
40.132
40.001
39.873
39.749
39.626
39.504
39.381
39.258
39.134
39.008
38.882
38.757
38.632
38.507
38.383
38.259
38.135
38.011
37.889
37.768
37.651
37.537
37.428
37.326
37.232
37.145
37.067
36.998
36.938
36.887
36.845
36.81
36.785
36.767
36.758
36.755
36.758
36.766
36.778
36.791
36.805
36.817
36.827
36.835
36.838
36.837
36.832
36.821
36.806
36.787
36.763
36.734
36.701
36.662
36.618
36.57
36.515
36.455
36.388
36.316
36.238
36.157
36.072
35.984
35.893
35.8
35.705
35.609
35.512
35.416
35.32
35.227
35.135
35.047
34.961
34.878
34.799
34.724
34.652
34.583
34.515
34.447
34.379
34.311
34.242
34.172
34.1
34.027
33.953
33.877
33.799
33.721
33.641
33.561
33.483
33.406
33.332
33.261
33.194
33.132
33.075
33.023
32.977
32.935
32.899
32.865
32.835
32.807
32.781
32.757
32.735
32.714
32.693
32.673
32.652
32.632
32.611
32.59
32.566
32.542
32.515
32.488
32.461
32.434
32.407
32.381
32.355
32.33
32.305
32.281
32.259
32.239
32.221
32.205
32.193
32.182
32.173
32.164
32.153
32.142
32.128
32.112
32.092
32.068
32.04
32.008
31.972
31.935
31.897
31.862
31.831
31.808
31.797
31.803
31.831
31.888
31.982
32.12
32.31
32.557
32.866
33.237
33.67
34.158
34.697
35.276
35.887
36.517
37.155
37.788
38.406
38.998
39.555
40.069
40.535
40.949
41.309
41.616
41.87
42.073
42.229
42.341
42.414
42.45
42.453
42.428
42.379
42.311
42.227
42.13
42.021
41.904
41.779
41.65
41.518
41.384
41.251
41.119
40.989
40.861
40.736
40.612
40.49
40.368
40.247
40.127
40.007
39.886
39.764
39.64
39.515
39.39
39.264
39.138
39.013
38.888
38.763
38.636
38.509
38.382
38.255
38.129
38.004
37.879
37.755
37.633
37.514
37.398
37.286
37.179
37.079
36.986
36.901
36.826
36.76
36.705
36.66
36.625
36.601
36.586
36.578
36.579
36.587
36.601
36.621
36.644
36.668
36.692
36.714
36.731
36.742
36.747
36.746
36.738
36.723
36.701
36.672
36.636
36.593
36.544
36.489
36.429
36.365
36.297
36.224
36.149
36.072
35.994
35.914
35.835
35.756
35.677
35.598
35.519
35.441
35.362
35.282
35.201
35.119
35.038
34.956
34.873
34.791
34.709
34.627
34.545
34.464
34.385
34.306
34.229
34.154
34.079
34.005
33.932
33.858
33.786
33.714
33.643
33.571
33.499
33.428
33.359
33.291
33.226
33.162
33.103
33.048
32.998
32.953
32.913
32.877
32.844
32.815
32.788
32.763
32.735
32.701
32.661
32.616
32.569
32.521
32.476
32.435
32.4
32.371
32.348
32.331
32.32
32.314
32.312
32.312
32.313
32.314
32.312
32.307
32.299
32.288
32.274
32.258
32.241
32.224
32.206
32.189
32.172
32.155
32.14
32.126
32.113
32.104
32.099
32.1
32.109
32.131
32.17
32.233
32.324
32.452
32.624
32.848
33.127
33.466
33.863
34.317
34.822
35.372
35.958
36.568
37.193
37.819
38.436
39.033
39.601
40.133
40.62
41.057
41.442
41.771
42.045
42.265
42.433
42.555
42.633
42.673
42.678
42.653
42.603
42.53
42.438
42.329
42.206
42.07
41.924
41.772
41.614
41.452
41.286
41.119
40.949
40.778
40.606
40.434
40.261
40.09
39.921
39.753
39.588
39.426
39.269
39.116
38.966
38.818
38.671
38.524
38.376
38.228
38.079
37.93
37.78
37.631
37.483
37.336
37.191
37.048
36.909
36.773
36.643
36.521
36.407
36.302
36.208
36.127
36.058
36.002
35.959
35.929
35.912
35.906
35.911
35.925
35.947
35.975
36.007
36.042
36.079
36.115
36.149
36.181
36.209
36.231
36.248
36.258
36.261
36.258
36.247
36.229
36.205
36.174
36.136
36.092
36.042
35.987
35.926
35.861
35.791
35.717
35.638
35.556
35.472
35.386
35.298
35.21
35.122
35.036
34.951
34.866
34.781
34.696
34.61
34.526
34.443
34.361
34.281
34.203
34.126
34.05
33.974
33.898
33.823
33.749
33.675
33.602
33.529
33.456
33.383
33.311
33.239
33.167
33.094
33.022
32.95
32.879
32.808
32.736
32.665
32.596
32.528
32.463
32.401
32.342
32.288
32.237
32.191
32.15
32.113
32.08
32.051
32.028
32.011
32.0
31.993
31.991
31.99
31.99
31.988
31.984
31.977
31.967
31.954
31.938
31.919
31.899
31.878
31.857
31.837
31.819
31.803
31.789
31.777
31.766
31.753
31.74
31.726
31.711
31.695
31.678
31.661
31.644
31.629
31.616
31.609
31.614
31.637
31.686
31.768
31.891
32.065
32.296
32.591
32.951
33.378
33.868
34.418
35.02
35.665
36.34
37.035
37.736
38.429
39.102
39.744
40.346
40.901
41.404
41.853
42.244
42.579
42.858
43.082
43.255
43.38
43.462
43.503
43.509
43.483
43.431
43.356
43.262
43.154
43.034
42.906
42.772
42.632
42.49
42.346
42.201
42.056
41.91
41.764
41.616
41.467
41.318
41.169
41.021
40.876
40.733
40.592
40.453
40.316
40.18
40.046
39.912
39.779
39.647
39.516
39.383
39.248
39.11
38.97
38.828
38.684
38.539
38.395
38.253
38.115
37.981
37.854
37.734
37.624
37.522
37.429
37.345
37.269
37.203
37.148
37.103
37.068
37.043
37.027
37.02
37.019
37.023
37.03
37.04
37.051
37.064
37.077
37.089
37.099
37.107
37.108
37.104
37.093
37.075
37.05
37.019
36.982
36.939
36.893
36.841
36.785
36.724
36.658
36.587
36.511
36.43
36.345
36.254
36.159
36.06
35.956
35.849
35.74
35.628
35.515
35.401
35.286
35.172
