Trial 3:3back
34.093
34.155
34.228
34.313
34.408
34.514
34.629
34.752
34.883
35.019
35.158
35.299
35.441
35.58
35.717
35.849
35.975
36.093
36.202
36.302
36.391
36.468
36.532
36.585
36.627
36.659
36.681
36.696
36.703
36.704
36.701
36.693
36.683
36.671
36.657
36.641
36.623
36.6
36.573
36.543
36.511
36.477
36.442
36.406
36.371
36.339
36.309
36.282
36.259
36.236
36.214
36.19
36.164
36.137
36.107
36.076
36.042
36.006
35.968
35.929
35.888
35.847
35.805
35.765
35.726
35.689
35.654
35.622
35.592
35.566
35.542
35.523
35.509
35.5
35.496
35.496
35.5
35.507
35.517
35.529
35.543
35.558
35.574
35.591
35.607
35.623
35.638
35.653
35.667
35.68
35.691
35.699
35.705
35.708
35.707
35.701
35.691
35.678
35.662
35.642
35.62
35.595
35.569
35.542
35.514
35.485
35.455
35.424
35.392
35.358
35.324
35.289
35.254
35.221
35.188
35.157
35.127
35.1
35.075
35.051
35.03
35.009
34.99
34.97
34.949
34.929
34.908
34.888
34.869
34.851
34.834
34.818
34.802
34.786
34.769
34.752
34.734
34.715
34.695
34.674
34.653
34.631
34.609
34.587
34.566
34.546
34.527
34.51
34.494
34.478
34.463
34.449
34.437
34.425
34.415
34.404
34.394
34.383
34.373
34.363
34.354
34.347
34.341
34.335
34.329
34.323
34.317
34.311
34.304
34.296
34.288
34.28
34.272
34.264
34.256
34.248
34.239
34.23
34.22
34.21
34.201
34.191
34.182
34.173
34.164
34.155
34.145
34.136
34.127
34.12
34.114
34.113
34.119
34.133
34.157
34.192
34.239
34.297
34.368
34.449
34.542
34.644
34.756
34.874
34.998
35.128
35.26
35.394
35.527
35.657
35.783
35.903
36.016
36.12
36.216
36.302
36.379
36.447
36.506
36.557
36.598
36.631
36.654
36.669
36.677
36.677
36.672
36.661
36.647
36.629
36.608
36.586
36.561
36.536
36.51
36.483
36.455
36.427
36.398
36.37
36.341
36.311
36.281
36.249
36.216
36.181
36.144
36.106
36.067
36.027
35.986
35.943
35.9
35.855
35.808
35.761
35.715
35.671
35.632
35.597
35.567
35.542
35.524
35.51
35.502
35.499
35.5
35.506
35.514
35.524
35.536
35.549
35.562
35.577
35.591
35.605
35.618
35.631
35.644
35.654
35.664
35.671
35.676
35.679
35.679
35.675
35.668
35.658
35.644
35.629
35.612
35.595
35.576
35.556
35.534
35.51
35.486
35.462
35.44
35.418
35.397
35.377
35.358
35.339
35.321
35.302
35.282
35.261
35.239
35.214
35.187
35.158
35.128
35.095
35.062
35.028
34.993
34.959
34.926
34.894
34.865
34.837
34.812
34.788
34.766
34.745
34.724
34.703
34.684
34.665
34.648
34.632
34.617
34.602
34.586
34.57
34.554
34.538
34.524
34.511
34.499
34.489
34.48
34.471
34.464
34.457
34.452
34.447
34.443
34.44
34.438
34.436
34.433
34.429
34.422
34.413
34.402
34.39
34.378
34.365
34.354
34.343
34.333
34.323
34.315
34.306
34.298
34.288
34.278
34.267
34.256
34.243
34.23
34.217
34.204
34.192
34.18
34.17
34.16
34.15
34.139
34.127
34.112
34.093
34.07
34.044
34.017
33.991
33.969
33.952
33.944
33.945
33.958
33.983
34.023
34.076
34.144
34.227
34.322
34.43
34.549
34.679
34.816
34.961
35.11
35.262
35.414
35.564
35.711
35.853
35.989
36.118
36.24
36.353
36.457
36.552
36.638
36.715
36.784
36.846
36.899
36.944
36.981
37.011
37.032
37.046
37.054
37.057
37.055
37.05
37.042
37.032
37.021
37.009
36.997
36.986
36.975
36.966
36.956
36.947
36.938
36.929
36.92
36.911
36.901
36.889
36.875
36.858
36.839
36.815
36.789
36.76
36.728
36.693
36.655
36.615
36.572
36.528
36.483
36.439
36.396
36.356
36.319
36.286
36.257
36.234
36.217
36.205
36.198
36.196
36.198
36.203
36.209
36.217
36.227
36.237
36.247
36.257
36.267
36.275
36.282
36.288
36.292
36.295
36.297
36.298
36.296
36.291
36.283
36.273
36.26
36.245
36.228
36.208
36.186
36.16
36.133
36.104
36.076
36.048
36.021
35.995
35.971
35.948
35.926
35.904
35.884
35.863
35.844
35.824
35.803
35.782
35.759
35.736
35.712
35.687
35.66
35.633
35.604
35.573
35.543
35.512
35.481
35.451
35.421
35.392
35.363
35.333
35.303
35.273
35.241
35.21
35.178
35.147
35.116
35.086
35.057
35.03
35.006
34.984
34.964
34.947
34.932
34.919
34.909
34.902
34.897
34.893
34.89
34.887
34.884
34.88
34.876
34.871
34.864
34.855
34.843
34.829
34.814
34.796
34.777
34.758
34.738
34.717
34.695
34.673
34.65
34.626
34.601
34.575
34.55
34.526
34.504
34.483
34.462
34.441
34.419
34.396
34.372
34.348
34.324
34.3
34.276
34.253
34.23
34.209
34.19
34.174
34.16
34.15
34.144
34.143
34.147
34.157
34.176
34.203
34.24
34.289
34.349
34.422
34.508
34.607
34.717
34.837
34.968
35.107
35.254
35.406
35.559
35.713
35.865
36.015
36.161
36.302
36.435
36.559
36.673
36.777
36.87
36.953
37.026
37.087
37.138
37.179
37.211
37.234
37.25
37.259
37.262
37.26
37.253
37.242
37.229
37.213
37.194
37.174
37.153
37.131
37.108
37.084
37.058
37.03
37.002
36.974
36.947
36.92
36.894
36.869
36.843
36.818
36.793
36.767
36.742
36.715
36.688
36.66
36.631
36.601
36.569
36.537
36.503
36.47
36.437
36.405
36.375
36.347
36.321
36.298
36.28
36.265
36.253
36.243
36.234
36.228
36.223
36.219
36.218
36.219
36.221
36.225
36.231
36.238
36.247
36.257
36.267
36.276
36.282
36.284
36.284
36.28
36.274
36.264
36.253
36.24
36.225
36.207
36.186
36.162
36.136
36.109
36.081
36.053
36.024
35.994
35.962
35.928
35.894
35.859
35.824
35.787
35.749
35.709
35.668
35.626
35.582
35.537
35.491
35.445
35.398
35.351
35.306
35.261
35.219
35.178
35.14
35.103
35.069
35.036
35.006
34.979
34.954
34.932
34.913
34.897
34.882
34.869
34.857
34.844
34.831
34.818
34.805
34.791
34.776
34.76
34.742
34.724
34.705
34.686
34.668
34.651
34.634
34.617
34.6
34.584
34.568
34.551
34.533
34.516
34.497
34.478
34.458
34.439
34.419
34.401
34.383
34.366
34.35
34.336
34.324
34.313
34.303
34.296
34.289
34.284
34.278
34.271
34.261
34.247
34.23
34.21
34.186
34.161
34.134
34.107
34.079
34.051
34.023
33.996
33.971
33.949
33.928
33.909
33.891
33.872
33.853
33.835
33.818
33.805
33.795
33.79
33.79
33.797
33.812
33.835
33.867
33.91
33.965
34.032
34.112
34.205
34.31
34.426
34.553
34.688
34.829
34.975
35.123
35.271
35.416
35.558
35.696
35.828
35.954
36.071
36.179
36.276
36.363
36.439
36.505
36.561
36.607
36.643
36.671
36.689
36.7
36.703
36.701
36.694
36.683
36.669
36.652
36.633
36.613
36.591
36.568
36.545
36.522
36.498
36.474
36.448
36.42
36.391
36.359
36.326
36.291
36.255
36.217
36.178
36.139
36.1
36.061
36.021
35.982
35.942
35.902
35.862
35.821
35.782
35.744
35.71
35.679
35.652
35.629
35.609
35.594
35.582
35.575
35.573
35.575
35.583
35.596
35.612
35.631
35.652
35.674
35.697
35.721
35.743
35.762
35.778
35.79
35.798
35.803
35.803
35.8
35.793
35.783
35.769
35.754
35.736
35.717
35.698
35.678
35.659
35.639
35.619
35.598
35.577
35.556
35.536
35.518
35.499
35.481
35.462
35.442
35.42
35.397
35.374
35.35
35.326
35.301
35.274
35.246
35.217
35.187
35.156
35.126
35.096
35.066
35.038
35.012
34.987
34.963
34.939
34.915
34.89
34.867
34.844
34.821
34.799
34.777
34.756
34.736
34.717
34.7
34.684
34.669
34.654
34.64
34.626
34.614
34.603
34.593
34.583
34.573
34.563
34.554
34.549
34.546
34.548
34.552
34.558
34.564
34.569
34.573
34.574
34.572
34.565
34.555
34.54
34.52
34.498
34.471
34.442
34.41
34.378
34.344
34.312
34.281
34.252
34.224
34.199
34.175
34.153
34.131
34.111
34.091
34.072
34.054
34.036
34.019
34.002
33.986
33.971
33.957
33.945
33.935
33.929
33.929
33.935
33.948
33.969
33.998
34.035
34.08
34.136
34.203
34.282
34.372
34.473
34.584
34.702
34.828
34.96
35.096
35.233
35.371
35.506
35.637
35.763
35.88
35.99
36.089
36.178
36.256
36.323
36.379
36.425
36.459
36.484
36.498
36.505
36.506
36.502
36.493
36.48
36.463
36.442
36.418
36.391
36.361
36.328
36.293
36.257
36.221
36.185
36.15
36.115
36.08
36.042
36.003
35.962
35.92
35.878
35.836
35.794
35.753
35.713
35.673
35.633
35.593
35.554
35.517
35.482
35.449
35.418
35.388
35.36
35.335
35.312
35.294
35.281
35.273
35.269
35.267
35.267
35.268
35.27
35.274
35.28
35.288
35.297
35.307
35.318
35.329
35.339
35.35
35.36
35.37
35.379
35.388
35.396
35.404
35.411
35.418
35.423
35.427
35.429
35.428
35.424
35.417
35.407
35.394
35.378
35.36
35.339
35.316
35.289
35.26
35.227
35.191
35.154
35.115
35.077
35.038
34.999
34.961
34.924
34.888
34.854
34.822
34.792
34.763
34.735
34.707
34.679
34.653
34.627
34.602
34.576
34.549
34.521
34.491
34.461
34.431
34.402
34.376
34.351
34.328
34.307
34.288
34.271
34.256
34.245
34.236
34.23
34.227
34.228
34.232
34.238
34.246
34.256
34.265
34.272
34.278
34.281
34.282
34.28
34.276
34.269
34.26
34.25
34.238
34.225
34.208
34.188
34.166
34.141
34.117
34.092
34.068
34.045
34.024
34.005
33.99
33.976
33.966
33.958
33.953
33.949
33.947
33.945
33.942
33.938
33.932
33.923
33.911
33.896
33.876
33.854
33.83
33.804
33.778
33.753
33.73
33.707
33.687
33.668
33.652
33.638
33.628
33.623
33.625
33.634
33.65
33.675
33.709
33.754
33.809
33.876
33.955
34.045
34.146
34.259
34.381
34.512
34.651
34.795
34.944
35.095
35.246
35.394
35.538
35.677
35.81
35.934
36.049
36.154
36.248
36.328
36.397
36.452
36.497
36.531
36.555
36.571
36.579
36.579
36.575
36.566
36.554
36.541
36.527
36.513
36.499
36.485
36.472
36.459
36.448
36.436
36.424
36.412
36.399
36.384
36.367
36.349
36.328
36.305
36.28
36.252
36.222
36.189
36.153
36.114
36.073
36.031
35.988
35.943
35.897
35.852
35.806
35.762
35.72
35.681
35.645
35.614
35.588
35.566
35.55
35.539
35.534
35.534
35.538
35.546
35.56
35.578
35.6
35.624
35.649
35.673
35.696
35.715
35.73
35.74
35.744
35.744
35.74
35.733
35.724
35.711
35.694
35.667
35.633
35.591
35.546
35.501
35.459
35.422
35.39
35.364
35.344
35.329
35.318
35.312
35.308
35.306
35.303
35.3
35.295
35.288
35.279
35.267
35.253
35.237
35.218
35.197
35.173
35.148
35.121
35.092
35.063
35.033
35.002
34.971
34.938
34.905
34.873
34.84
34.809
34.779
34.75
34.722
34.694
34.667
34.642
34.619
34.599
34.582
34.568
34.557
34.546
34.536
34.527
34.518
34.509
34.499
34.488
34.475
34.461
34.446
34.431
34.417
34.403
34.39
34.378
34.367
34.358
34.35
34.343
34.337
34.331
34.326
34.321
34.316
34.312
34.307
34.302
34.297
34.291
34.284
34.276
34.267
34.258
34.247
34.236
34.225
34.214
34.204
34.194
34.183
34.172
34.157
34.14
34.121
34.1
34.079
34.058
34.037
34.017
33.996
33.975
33.955
33.935
33.917
33.901
33.887
33.875
33.864
33.854
33.846
33.84
33.834
33.83
33.825
33.82
33.815
33.809
33.804
33.8
33.798
33.8
33.807
33.822
33.848
33.885
33.934
33.996
34.071
34.158
34.257
34.366
34.485
34.612
34.745
34.882
35.023
35.166
35.309
35.451
35.589
35.722
35.848
35.968
36.079
36.182
36.277
36.362
36.438
36.505
36.561
36.608
36.646
36.676
36.697
36.711
36.716
36.713
36.703
36.686
36.663
36.635
36.603
36.567
36.528
36.487
36.445
36.403
36.361
36.321
36.283
36.247
36.213
36.18
36.149
36.12
36.092
36.064
36.036
36.009
35.98
35.95
35.917
35.882
35.847
35.811
35.775
35.741
35.709
35.679
35.651
35.626
35.604
35.584
35.568
35.554
35.542
35.533
35.526
35.52
35.516
35.513
35.512
35.512
35.513
35.515
35.517
35.52
35.524
35.528
35.532
35.536
35.538
35.54
35.541
35.54
35.54
35.539
35.539
35.538
35.536
35.533
35.528
35.522
35.516
35.509
35.502
35.495
35.486
35.476
35.463
35.447
35.429
35.407
35.381
35.352
35.318
35.281
35.242
35.201
35.16
35.12
35.081
35.045
35.011
34.979
34.948
34.917
34.886
34.855
34.824
34.793
34.761
34.729
34.698
34.667
34.637
34.608
34.58
34.553
34.526
34.5
34.475
34.45
34.427
34.405
34.387
34.371
34.358
34.347
34.337
34.328
34.32
34.313
34.307
34.302
34.296
34.29
34.284
34.277
34.27
34.263
34.257
34.25
34.242
34.233
34.222
34.209
34.196
34.181
34.167
34.153
34.139
34.126
34.113
34.101
34.09
34.078
34.067
34.057
34.046
34.035
34.023
34.01
33.996
33.981
33.964
33.947
33.929
33.912
33.894
33.875
33.857
33.839
33.821
33.804
33.787
33.77
33.753
33.735
33.716
33.695
33.674
33.653
33.631
33.61
33.589
33.569
33.549
33.531
33.514
33.498
33.485
33.475
33.47
33.47
33.477
33.492
33.518
33.555
33.604
33.666
33.74
33.824
33.919
34.022
34.134
34.252
34.375
34.503
34.635
34.767
34.9
35.03
35.158
35.281
35.399
35.51
35.613
35.707
35.792
35.868
35.934
35.99
36.038
36.076
36.105
36.125
36.135
36.136
36.13
36.118
36.101
36.08
36.055
36.026
35.995
35.963
35.93
35.898
35.867
35.836
35.807
35.779
35.751
35.724
35.698
35.673
35.648
35.623
35.598
35.571
35.541
35.509
35.475
35.441
35.406
35.371
35.337
35.303
35.27
35.239
35.209
35.183
35.159
35.14
35.124
35.111
35.1
35.089
35.081
35.074
35.07
35.068
35.069
35.071
35.077
35.085
35.094
35.106
35.12
35.134
35.148
35.162
35.175
35.189
35.202
35.214
35.226
35.237
35.247
35.256
35.263
35.269
35.273
35.275
35.274
35.271
35.264
35.254
35.24
35.224
35.204
35.183
35.16
35.137
35.113
35.089
35.062
35.033
35.002
34.97
34.936
34.9
34.865
34.829
34.793
34.758
34.723
34.688
34.654
34.621
34.588
34.555
34.522
34.49
34.459
34.429
34.4
34.373
34.347
34.323
34.3
34.28
34.263
34.248
34.236
34.227
34.22
34.215
34.211
34.208
34.205
34.202
34.199
34.196
34.193
34.19
34.185
34.178
34.168
34.157
34.145
34.134
34.123
34.113
34.103
34.093
34.082
34.071
34.059
34.048
34.035
34.02
33.999
33.972
33.941
33.907
33.873
33.84
33.811
33.785
33.764
33.748
33.736
33.729
33.725
33.725
33.727
33.731
33.734
33.738
33.74
33.74
33.738
33.733
33.726
33.718
33.707
33.696
33.683
33.67
33.659
33.649
33.643
33.642
33.645
33.654
33.669
33.691
33.721
33.761
33.813
33.876
33.952
34.039
34.137
34.245
34.363
34.489
34.622
34.762
34.905
35.051
35.195
35.337
35.474
35.605
35.729
35.843
35.947
36.041
36.124
36.196
36.258
36.311
36.354
36.389
36.417
36.437
36.452
36.461
36.465
36.464
36.46
36.453
36.444
36.433
36.419
36.405
36.389
36.375
36.361
36.348
36.335
36.323
36.311
36.298
36.285
36.272
36.257
36.241
36.224
36.205
36.184
36.162
36.138
36.111
36.083
36.053
36.022
35.988
35.951
35.913
35.873
35.833
35.793
35.754
35.717
35.681
35.648
35.618
35.59
35.567
35.547
35.533
35.526
35.524
35.529
35.541
35.558
35.581
35.608
35.639
35.675
35.715
35.758
35.799
35.838
35.871
35.896
35.913
35.92
35.917
35.903
35.881
35.851
35.814
35.772
35.728
35.682
35.634
35.588
35.542
35.498
35.458
35.422
35.389
35.361
35.336
35.314
35.295
35.279
35.264
35.249
35.234
35.218
35.2
35.18
35.158
35.133
35.107
35.079
35.05
35.02
34.989
34.956
34.921
34.884
34.846
34.807
34.769
34.73
34.692
34.655
34.618
34.581
34.545
34.509
34.473
34.437
34.401
34.365
34.329
34.293
34.257
34.223
34.19
34.159
34.131
34.103
34.077
34.052
34.028
34.005
33.982
33.96
33.938
33.915
33.893
33.871
33.851
33.832
33.816
33.803
33.791
33.783
33.777
33.773
33.773
33.775
33.78
33.789
33.799
33.811
33.822
33.832
33.84
33.847
33.854
33.86
33.866
33.87
33.873
33.875
33.875
33.874
33.872
33.867
33.861
33.853
33.841
33.827
33.81
33.792
33.775
33.76
33.747
33.74
33.737
33.741
33.753
33.772
33.801
33.839
33.886
33.945
34.016
34.099
34.193
34.299
34.414
34.539
34.671
34.809
34.95
35.091
35.23
35.366
35.497
35.621
35.738
35.85
35.954
36.049
36.134
36.208
36.273
36.329
36.375
36.414
36.445
36.469
36.487
36.499
36.506
36.509
36.508
36.503
36.494
36.481
36.465
36.446
36.424
36.401
36.376
36.35
36.323
36.297
36.272
36.247
36.224
36.201
36.179
36.157
36.136
36.115
36.092
36.067
36.042
36.016
35.99
35.964
35.937
35.907
35.873
35.835
35.795
35.753
35.711
35.67
35.63
35.593
35.558
35.526
35.499
35.476
35.458
35.444
35.436
35.433
35.435
35.442
35.453
35.468
35.485
35.505
35.526
35.546
35.565
35.582
35.597
35.61
35.622
35.631
35.637
35.639
35.638
35.634
35.627
35.619
35.611
35.604
35.598
35.594
35.59
35.587
35.583
35.577
35.568
35.555
35.537
35.515
35.488
35.458
35.424
35.389
35.353
35.315
35.277
35.237
35.197
35.156
35.114
35.073
35.034
34.995
34.959
34.924
34.891
34.86
34.829
34.801
34.774
34.749
34.725
34.703
34.682
34.662
34.642
34.623
34.605
34.589
34.574
34.559
34.543
34.525
34.503
34.474
34.438
34.395
34.349
34.302
34.257
34.216
34.182
34.155
34.136
34.126
34.123
34.127
34.135
34.148
34.164
34.181
34.197
34.213
34.227
34.239
34.246
34.25
34.25
34.247
34.24
34.23
34.217
34.202
34.185
34.166
34.148
34.128
34.109
34.091
34.074
34.058
34.042
34.025
34.008
33.992
33.978
33.963
33.95
33.936
33.92
33.903
33.884
33.864
33.843
33.821
33.799
33.778
33.756
33.735
33.714
33.693
33.675
33.658
33.644
33.632
33.625
33.621
33.624
33.633
33.651
33.678
33.715
33.763
33.823
33.895
33.979
34.075
34.182
34.299
34.425
34.559
34.699
34.842
34.988
35.133
35.276
35.415
35.55
35.678
35.8
35.914
36.018
36.113
36.199
36.274
36.34
36.395
36.441
36.476
36.502
36.52
36.529
36.533
36.534
36.533
36.531
36.528
36.523
36.517
36.509
36.5
36.489
36.476
36.461
36.443
36.423
36.401
36.378
36.353
36.327
36.302
36.278
36.254
36.232
36.211
36.192
36.174
36.155
36.134
36.111
36.084
36.053
36.019
35.981
35.941
35.899
35.856
35.813
35.771
35.73
35.692
35.658
35.627
35.602
35.583
35.569
35.56
35.556
35.555
35.559
35.566
35.576
35.59
35.605
35.62
35.636
35.65
35.663
35.673
35.683
35.691
35.699
35.705
35.712
35.718
35.724
35.73
35.734
35.736
35.737
35.734
35.728
35.719
35.706
35.69
35.671
35.649
35.625
35.598
35.568
35.536
35.501
35.466
35.43
35.395
35.359
35.323
35.288
35.253
35.219
35.186
35.155
35.126
35.098
35.071
35.046
35.023
35.001
34.98
34.961
34.944
34.927
34.912
34.897
34.883
34.869
34.855
34.841
34.828
34.813
34.798
34.781
34.763
34.743
34.722
34.701
34.68
34.658
34.636
34.615
34.593
34.572
34.552
34.533
34.516
34.501
34.489
34.48
34.472
34.466
34.46
34.455
34.449
34.443
34.436
34.428
34.417
34.405
34.392
34.379
34.366
34.355
34.346
34.338
34.332
34.327
34.323
34.32
34.316
34.312
34.306
34.299
34.289
34.278
34.265
34.249
34.231
34.21
34.185
34.158
34.129
34.097
34.065
34.033
34.002
33.973
33.945
33.919
33.896
33.875
33.857
33.842
33.831
33.823
33.821
33.823
33.829
33.841
33.86
33.885
33.92
33.966
34.024
34.093
34.173
34.263
34.362
34.47
34.586
34.709
34.838
34.969
35.103
35.238
35.372
35.505
35.636
35.762
35.883
35.997
36.103
36.2
36.288
36.366
36.434
36.492
36.54
36.578
36.606
36.624
36.632
36.632
36.624
36.61
36.591
36.566
36.537
36.503
36.466
36.426
36.384
36.342
36.301
36.259
36.218
36.178
36.139
36.1
36.063
36.026
35.991
35.956
35.922
35.889
35.854
35.819
35.782
35.744
35.705
35.667
35.629
35.594
35.561
35.533
35.508
35.488
35.472
35.46
35.451
35.446
35.442
35.441
35.441
35.443
35.447
35.453
35.46
35.467
35.473
35.478
35.482
35.486
35.49
35.495
35.5
35.506
35.512
35.519
35.526
35.533
35.541
35.548
35.555
35.56
35.565
35.57
35.574
