Trial 3:3back
35.398
35.331
35.263
35.193
35.121
35.05
34.978
34.905
34.834
34.763
34.693
34.624
34.556
34.489
34.423
34.356
34.289
34.223
34.156
34.091
34.026
33.962
33.899
33.836
33.775
33.714
33.655
33.597
33.541
33.486
33.433
33.381
33.332
33.283
33.234
33.185
33.136
33.087
33.036
32.985
32.934
32.883
32.832
32.782
32.733
32.685
32.638
32.593
32.551
32.511
32.477
32.447
32.426
32.415
32.418
32.439
32.483
32.553
32.654
32.787
32.955
33.161
33.404
33.683
33.996
34.342
34.716
35.113
35.53
35.961
36.401
36.843
37.282
37.712
38.128
38.526
38.901
39.251
39.572
39.863
40.123
40.35
40.545
40.707
40.837
40.938
41.009
41.052
41.07
41.064
41.036
40.988
40.922
40.841
40.745
40.638
40.52
40.393
40.259
40.119
39.975
39.827
39.676
39.524
39.372
39.219
39.067
38.916
38.767
38.62
38.475
38.331
38.189
38.047
37.905
37.764
37.622
37.48
37.339
37.198
37.058
36.92
36.785
36.655
36.53
36.413
36.303
36.201
36.108
36.024
35.95
35.885
35.829
35.782
35.743
35.712
35.688
35.672
35.662
35.658
35.659
35.665
35.676
35.69
35.708
35.727
35.747
35.768
35.787
35.806
35.823
35.837
35.848
35.856
35.859
35.857
35.849
35.835
35.816
35.791
35.76
35.723
35.682
35.636
35.586
35.532
35.475
35.415
35.352
35.287
35.22
35.151
35.081
35.011
34.94
34.868
34.795
34.721
34.646
34.57
34.494
34.418
34.341
34.264
34.187
34.111
34.035
33.959
33.884
33.81
33.737
33.666
33.595
33.526
33.457
33.39
33.325
33.26
33.197
33.136
33.075
33.016
32.958
32.901
32.846
32.792
32.74
32.688
32.637
32.587
32.536
32.486
32.435
32.384
32.333
32.282
32.231
32.182
32.136
32.095
32.061
32.038
32.028
32.037
32.068
32.126
32.215
32.339
32.5
32.699
32.937
33.214
33.526
33.871
34.245
34.643
35.061
35.492
35.93
36.371
36.807
37.234
37.648
38.042
38.415
38.761
39.079
39.366
39.62
39.841
40.028
40.182
40.303
40.394
40.455
40.488
40.496
40.481
40.444
40.389
40.318
40.231
40.132
40.021
39.899
39.769
39.632
39.489
39.342
39.193
39.042
38.889
38.737
38.584
38.431
38.28
38.13
37.981
37.835
37.69
37.548
37.408
37.269
37.131
36.995
36.859
36.724
36.59
36.456
36.323
36.192
36.063
35.937
35.815
35.698
35.588
35.484
35.389
35.301
35.222
35.152
35.091
35.039
34.996
34.96
34.932
34.91
34.895
34.886
34.882
34.883
34.887
34.894
34.904
34.914
34.925
34.935
34.945
34.952
34.957
34.959
34.958
34.953
34.944
34.932
34.915
34.895
34.871
34.843
34.812
34.777
34.738
34.696
34.651
34.603
34.552
34.499
34.444
34.388
34.33
34.271
34.21
34.148
34.084
34.019
33.952
33.884
33.816
33.747
33.677
33.609
33.54
33.472
33.404
33.336
33.269
33.203
33.137
33.073
33.009
32.946
32.885
32.825
32.765
32.707
32.65
32.594
32.54
32.487
32.435
32.383
32.333
32.283
32.234
32.186
32.139
32.093
32.048
32.003
31.958
31.914
31.87
31.828
31.786
31.745
31.706
31.668
31.634
31.603
31.578
31.56
31.553
31.559
31.584
31.63
31.701
31.803
31.937
32.106
32.313
32.557
32.839
33.156
33.507
33.886
34.289
34.711
35.145
35.587
36.03
36.47
36.901
37.317
37.716
38.091
38.442
38.764
39.056
39.316
39.544
39.739
39.902
40.033
40.134
40.205
40.25
40.269
40.265
40.239
40.195
40.133
40.057
39.967
39.866
39.756
39.637
39.513
39.384
39.251
39.117
38.983
38.848
38.715
38.582
38.45
38.319
38.188
38.058
37.928
37.798
37.668
37.539
37.409
37.28
37.15
37.021
36.893
36.767
36.642
36.52
36.401
36.287
36.176
36.07
35.97
35.874
35.784
35.699
35.621
35.548
35.481
35.42
35.365
35.315
35.272
35.235
35.204
35.179
35.159
35.145
35.135
35.129
35.126
35.126
35.127
35.129
35.132
35.134
35.134
35.133
35.13
35.125
35.119
35.111
35.1
35.086
35.07
35.05
35.028
35.002
34.973
34.94
34.903
34.861
34.817
34.768
34.717
34.662
34.604
34.545
34.483
34.419
34.353
34.286
34.217
34.147
34.077
34.005
33.934
33.862
33.79
33.719
33.648
33.579
33.512
33.446
33.381
33.318
33.256
33.195
33.134
33.073
33.012
32.951
32.888
32.826
32.762
32.699
32.635
32.573
32.511
32.451
32.393
32.337
32.284
32.234
32.187
32.142
32.099
32.058
32.016
31.975
31.934
31.893
31.851
31.81
31.768
31.726
31.685
31.646
31.609
31.577
31.552
31.535
31.53
31.541
31.571
31.625
31.705
31.816
31.96
32.138
32.352
32.602
32.886
33.203
33.549
33.921
34.314
34.723
35.142
35.566
35.989
36.403
36.806
37.19
37.553
37.891
38.2
38.48
38.729
38.946
39.13
39.283
39.405
39.499
39.565
39.605
39.622
39.618
39.595
39.556
39.502
39.435
39.358
39.272
39.178
39.078
38.973
38.863
38.748
38.63
38.508
38.384
38.258
38.131
38.004
37.876
37.747
37.619
37.492
37.365
37.24
37.117
36.995
36.875
36.756
36.639
36.523
36.409
36.297
36.188
36.082
35.979
35.879
35.783
35.69
35.602
35.519
35.44
35.367
35.298
35.235
35.177
35.126
35.08
35.041
35.007
34.98
34.959
34.943
34.932
34.927
34.927
34.93
34.937
34.947
34.958
34.97
34.982
34.993
35.002
35.008
35.012
35.012
35.009
35.002
34.991
34.976
34.957
34.933
34.905
34.874
34.839
34.802
34.763
34.721
34.678
34.632
34.584
34.534
34.481
34.425
34.366
34.305
34.242
34.176
34.109
34.04
33.971
33.9
33.829
33.758
33.687
33.617
33.547
33.478
33.411
33.346
33.282
33.22
33.159
33.1
33.043
32.986
32.931
32.877
32.825
32.774
32.724
32.675
32.625
32.576
32.526
32.476
32.425
32.374
32.322
32.27
32.219
32.169
32.12
32.072
32.025
31.979
31.933
31.89
31.849
31.812
31.779
31.754
31.74
31.74
31.757
31.795
31.857
31.946
32.065
32.216
32.399
32.614
32.86
33.135
33.435
33.757
34.096
34.447
34.806
35.166
35.523
35.872
36.21
36.532
36.834
37.116
37.373
37.606
37.812
37.992
38.147
38.275
38.378
38.456
38.511
38.545
38.56
38.556
38.535
38.499
38.45
38.388
38.315
38.232
38.141
38.042
37.937
37.826
37.709
37.588
37.463
37.336
37.207
37.077
36.948
36.819
36.692
36.568
36.445
36.326
36.208
36.092
35.977
35.863
35.749
35.636
35.523
35.411
35.3
35.19
35.083
34.98
34.88
34.785
34.695
34.61
34.532
34.46
34.396
34.339
34.29
34.249
34.215
34.189
34.17
34.158
34.151
34.15
34.154
34.162
34.173
34.188
34.205
34.225
34.247
34.27
34.294
34.318
34.34
34.362
34.38
34.395
34.406
34.412
34.412
34.408
34.398
34.383
34.365
34.343
34.317
34.289
34.26
34.229
34.198
34.166
34.131
34.094
34.054
34.009
33.96
33.907
33.85
33.791
33.729
33.667
33.604
33.544
33.485
33.43
33.377
33.327
33.28
33.235
33.192
33.151
33.11
33.071
33.033
32.998
32.964
32.935
32.91
32.891
32.878
32.872
32.872
32.877
32.885
32.896
32.907
32.917
32.925
32.929
32.927
32.918
32.902
32.878
32.849
32.814
32.777
32.738
32.702
32.671
32.65
32.643
32.654
32.687
32.747
32.834
32.952
33.101
33.281
33.492
33.731
33.996
34.283
34.587
34.903
35.226
35.552
35.873
36.187
36.489
36.774
37.039
37.282
37.501
37.695
37.863
38.006
38.123
38.217
38.287
38.336
38.364
38.373
38.365
38.341
38.301
38.249
38.184
38.11
38.026
37.935
37.836
37.732
37.623
37.508
37.389
37.267
37.141
37.012
36.881
36.748
36.615
36.481
36.348
36.217
36.087
35.958
35.83
35.702
35.576
35.451
35.328
35.205
35.082
34.961
34.84
34.72
34.602
34.487
34.375
34.269
34.169
34.077
33.993
33.917
33.849
33.789
33.737
33.692
33.654
33.623
33.597
33.578
33.565
33.557
33.555
33.559
33.568
33.582
33.601
33.624
33.651
33.681
33.714
33.748
33.782
33.814
33.842
33.864
33.879
33.885
33.883
33.873
33.856
33.831
33.799
33.762
33.719
33.671
33.619
33.565
33.509
33.453
33.398
33.344
33.292
33.242
33.192
33.142
33.091
33.037
32.979
32.916
32.846
32.77
32.687
32.598
32.503
32.403
32.298
32.19
32.081
31.97
31.861
31.753
31.649
31.548
31.452
31.36
31.274
31.192
31.114
31.04
30.971
30.906
30.845
30.788
30.736
30.687
30.642
30.599
30.558
30.52
30.484
30.45
30.42
30.393
30.37
30.354
30.346
30.351
30.371
30.411
30.472
30.56
30.676
30.822
31.0
31.211
31.454
31.729
32.031
32.359
32.708
33.073
33.448
33.83
34.212
34.591
34.963
35.324
35.67
35.998
36.307
36.593
36.854
37.089
37.297
37.477
37.628
37.751
37.849
37.924
37.977
38.011
38.029
38.032
38.024
38.005
37.979
37.945
37.904
37.858
37.807
37.751
37.69
37.625
37.556
37.484
37.408
37.33
37.25
37.167
37.082
36.996
36.909
36.822
36.734
36.645
36.557
36.469
36.381
36.294
36.207
36.12
36.034
35.948
35.862
35.775
35.689
35.603
35.518
35.435
35.354
35.275
35.199
35.124
35.051
34.979
34.908
34.839
34.771
34.705
34.642
34.582
34.526
34.475
34.431
34.392
34.361
34.336
34.32
34.31
34.307
34.31
34.317
34.327
34.338
34.349
34.359
34.368
34.373
34.375
34.374
34.369
34.361
34.35
34.337
34.322
34.305
34.286
34.267
34.247
34.227
34.207
34.185
34.162
34.137
34.111
34.081
34.05
34.015
33.977
33.937
33.893
33.845
33.795
33.743
33.688
33.632
33.575
33.518
33.46
33.402
33.343
33.283
33.223
33.161
33.098
33.034
32.969
32.901
32.833
32.762
32.69
32.616
32.541
32.465
32.389
32.313
32.239
32.166
32.096
32.03
31.967
31.908
31.854
31.805
31.762
31.725
31.694
31.671
31.658
31.657
31.671
31.703
31.756
31.834
31.938
32.07
32.232
32.425
32.647
32.899
33.177
33.48
33.803
34.143
34.494
34.852
35.212
35.568
35.916
36.251
36.57
36.869
37.146
37.399
37.626
37.828
38.003
38.152
38.276
38.375
38.45
38.503
38.535
38.548
38.545
38.526
38.493
38.448
38.392
38.327
38.254
38.176
38.093
38.006
37.917
37.827
37.735
37.645
37.555
37.466
37.379
37.295
37.212
37.133
37.056
36.981
36.909
36.839
36.769
36.701
36.634
36.567
36.501
36.435
36.369
36.303
36.238
36.173
36.108
36.044
35.981
35.918
35.858
35.801
35.748
35.7
35.657
35.62
35.589
35.565
35.548
35.538
35.535
35.54
35.552
35.57
35.595
35.626
35.662
35.703
35.747
35.793
35.842
35.891
35.94
35.986
36.03
36.068
36.1
36.125
36.14
36.144
36.138
36.12
36.09
36.049
35.997
35.934
35.862
35.781
35.694
35.601
35.503
35.401
35.297
35.19
35.083
34.974
34.866
34.757
34.649
34.541
34.434
34.327
34.222
34.118
34.014
33.912
33.811
33.71
33.611
33.514
33.419
33.326
33.235
33.147
33.062
32.979
32.899
32.822
32.748
32.677
32.608
32.543
32.481
32.421
32.365
32.311
32.26
32.211
32.165
32.12
32.076
32.034
31.993
31.953
31.913
31.874
31.836
31.8
31.767
31.739
31.716
31.702
31.698
31.709
31.738
31.787
31.86
31.958
32.082
32.233
32.41
32.612
32.837
33.082
33.344
33.619
33.902
34.19
34.478
34.761
35.036
35.3
35.549
35.78
35.992
36.183
36.353
36.499
36.623
36.724
36.804
36.861
36.898
36.917
36.917
36.903
36.874
36.833
36.781
36.72
36.652
36.578
36.498
36.413
36.324
36.232
36.137
36.041
35.944
35.846
35.749
35.653
35.56
35.469
35.38
35.295
35.214
35.135
35.06
34.987
34.915
34.844
34.773
34.701
34.628
34.553
34.477
34.399
34.322
34.244
34.166
34.09
34.016
33.945
33.878
33.815
33.757
33.704
33.657
33.616
33.58
33.55
33.525
33.505
33.489
33.478
33.471
33.467
33.466
33.467
33.469
33.472
33.475
33.477
33.479
33.481
33.482
33.482
33.481
33.48
33.477
33.472
33.467
33.46
33.451
33.441
33.429
33.415
33.399
33.38
33.358
33.334
33.307
33.276
33.243
33.208
33.171
33.133
33.093
33.052
33.01
32.967
32.923
32.879
32.835
32.79
32.747
32.703
32.661
32.62
32.58
32.542
32.504
32.468
32.432
32.397
32.362
32.328
32.293
32.258
32.222
32.185
32.148
32.111
32.074
32.037
32.0
31.964
31.928
31.893
31.858
31.825
31.792
31.759
31.726
31.694
31.663
31.634
31.607
31.585
31.569
31.561
31.563
31.578
31.609
31.659
31.731
31.825
31.945
32.09
32.26
32.454
32.67
32.905
33.155
33.416
33.686
33.959
34.231
34.499
34.759
35.008
35.242
35.458
35.657
35.835
35.992
36.128
36.242
36.336
36.408
36.462
36.497
36.516
36.519
36.509
36.486
36.451
36.406
36.35
36.287
36.215
36.137
36.053
35.966
35.876
35.784
35.691
35.598
35.505
35.413
35.321
35.231
35.144
35.058
34.975
34.895
34.816
34.739
34.664
34.589
34.515
34.441
34.367
34.293
34.22
34.146
34.074
34.002
33.93
33.86
33.791
33.725
33.661
33.602
33.546
33.496
33.452
33.414
33.382
33.356
33.335
33.32
33.309
33.301
33.296
33.294
33.293
33.293
33.295
33.298
33.302
33.306
33.311
33.315
33.317
33.318
33.318
33.316
33.312
33.306
33.298
33.288
33.276
33.261
33.244
33.225
33.202
33.176
33.147
33.115
33.08
33.044
33.007
32.97
32.933
32.897
32.862
32.827
32.793
32.759
32.724
32.689
32.652
32.613
32.573
32.532
32.49
32.448
32.406
32.365
32.325
32.286
32.249
32.212
32.177
32.143
32.109
32.076
32.043
32.009
31.975
31.941
31.906
31.871
31.836
31.8
31.763
31.726
31.689
31.652
31.615
31.58
31.546
31.513
31.482
31.452
31.424
31.398
31.374
31.351
31.331
31.315
31.304
31.301
31.309
31.332
31.371
31.432
31.516
31.626
31.763
31.927
32.118
32.332
32.568
32.823
33.092
33.371
33.656
33.942
34.224
34.498
34.76
35.007
35.236
35.445
35.634
35.801
35.946
36.069
36.172
36.253
36.314
36.357
36.382
36.391
36.385
36.366
36.335
36.294
36.245
36.188
36.124
36.055
35.981
35.903
35.823
35.742
35.659
35.576
35.493
35.41
35.327
35.246
35.167
35.088
35.012
34.939
34.868
34.801
34.737
34.676
34.619
34.563
34.51
34.457
34.404
34.351
34.297
34.242
34.186
34.128
34.07
34.01
33.951
33.891
33.833
33.775
33.72
33.667
33.618
33.574
33.535
33.502
33.474
33.451
33.435
33.424
33.418
33.416
33.418
33.422
33.43
33.438
33.448
33.459
33.469
33.479
33.488
33.496
33.503
33.507
33.51
33.511
33.51
33.507
33.5
33.491
33.479
33.465
33.447
33.428
33.406
33.382
33.357
33.331
33.304
33.275
33.245
33.215
33.183
33.152
33.12
33.087
33.055
33.023
32.99
32.958
32.926
32.893
32.861
32.829
32.797
32.764
32.73
32.695
32.66
32.624
32.588
32.551
32.515
32.48
32.445
32.411
32.378
32.346
32.314
32.284
32.255
32.226
32.197
32.168
32.139
32.109
32.08
32.051
32.021
31.992
31.963
31.934
31.905
31.876
31.848
31.82
31.794
31.771
31.753
31.741
31.738
31.746
31.769
31.81
31.871
31.955
32.063
32.196
32.353
32.532
32.733
32.952
33.186
33.431
33.685
33.942
34.2
34.453
34.699
34.934
35.156
35.362
35.551
35.72
35.869
35.997
36.103
36.188
36.252
36.296
36.321
36.328
36.319
36.296
36.26
36.214
36.16
36.099
36.033
35.963
35.891
35.817
35.741
35.665
35.59
35.515
35.442
35.371
35.302
35.234
35.169
35.105
35.044
34.983
34.924
34.865
34.808
34.751
34.694
34.638
34.583
34.529
34.476
34.425
34.374
34.324
34.275
34.227
34.179
34.132
34.087
34.043
33.999
33.958
33.918
33.881
33.846
33.815
33.787
33.762
33.739
33.72
33.702
33.687
33.674
33.663
33.654
33.647
33.642
33.639
33.639
33.639
33.642
33.646
33.651
33.657
33.663
33.669
33.673
33.676
33.677
33.676
33.671
33.664
33.654
33.64
33.624
33.604
33.583
33.559
33.535
33.51
33.484
33.458
33.432
33.405
33.378
33.351
33.323
33.293
33.263
33.23
33.197
33.163
33.128
33.095
33.061
33.028
32.996
32.964
32.932
32.9
32.869
32.838
32.807
32.776
32.746
32.715
32.685
32.655
32.625
32.595
32.566
32.537
32.509
32.482
32.456
32.43
32.406
32.382
32.359
32.335
32.312
32.289
32.266
32.243
32.219
32.195
32.17
32.146
32.121
32.096
32.071
32.049
32.028
32.012
32.0
31.996
32.001
32.017
32.047
32.094
32.159
32.246
32.355
32.487
32.641
32.818
33.014
33.228
33.456
33.696
33.942
34.193
34.442
34.686
34.921
35.145
35.353
35.544
35.715
35.865
35.994
36.102
36.19
36.258
36.308
36.34
36.357
36.359
36.349
36.327
36.296
36.255
36.207
36.152
36.09
36.022
35.95
35.874
35.795
35.715
35.634
35.552
35.472
35.393
35.317
35.243
35.172
35.104
35.04
34.978
34.92
34.864
34.81
34.758
34.708
34.658
34.608
34.559
34.509
34.459
34.408
34.357
34.306
34.255
34.205
34.156
34.109
34.065
34.025
33.988
33.955
33.927
33.903
33.884
33.869
33.858
33.85
33.846
33.845
33.845
33.848
33.853
33.858
33.866
33.874
33.883
33.893
33.904
33.915
33.927
33.939
33.95
33.96
33.97
33.977
33.984
33.988
33.99
33.991
33.99
33.986
33.98
33.971
33.961
33.947
33.931
33.913
33.893
33.872
33.85
33.827
33.803
33.779
33.754
33.73
33.705
33.68
33.656
33.631
33.606
33.581
33.556
33.53
33.504
33.477
33.45
33.421
33.392
33.363
33.333
33.303
33.273
33.243
33.214
33.187
33.16
33.134
33.108
33.084
33.061
33.039
33.017
32.997
32.977
32.958
32.94
32.922
32.904
32.885
32.866
32.846
32.824
32.803
32.781
32.76
32.739
32.719
32.699
32.681
32.665
32.652
32.644
32.642
32.648
32.665
32.696
32.743
32.81
32.897
33.006
33.138
33.29
33.464
33.655
33.862
34.083
34.314
34.55
34.789
35.026
35.257
35.478
35.686
35.878
36.052
36.205
36.337
36.447
36.535
36.601
36.647
36.674
36.684
36.677
36.657
36.624
36.581
36.53
36.471
36.408
36.34
36.27
36.198
36.125
36.051
35.977
35.903
35.829
35.756
35.685
35.614
35.544
35.475
35.407
35.339
35.273
35.208
35.145
35.083
35.022
34.963
34.905
34.848
34.792
34.736
34.68
34.624
34.569
34.514
34.461
34.411
34.364
34.321
34.281
34.245
34.213
34.185
34.161
34.14
34.123
34.109
34.099
34.092
34.087
34.085
34.085
34.088
34.092
34.099
34.108
34.118
34.13
34.143
34.156
34.171
34.185
34.199
34.212
34.224
34.235
34.243
34.249
34.252
34.252
34.249
34.242
34.232
34.219
34.204
34.186
34.167
34.147
34.125
34.103
34.079
34.053
34.027
34.0
33.972
33.944
33.916
33.888
33.859
33.831
33.802
33.772
33.742
33.712
33.68
33.649
33.617
33.586
33.555
33.525
33.495
33.466
33.438
33.411
33.385
33.36
33.336
33.315
33.294
33.276
33.258
33.241
33.224
33.206
33.188
33.168
33.148
33.127
33.107
33.087
33.068
33.049
33.03
33.012
32.994
32.977
32.959
32.941
32.924
32.907
32.892
32.879
32.87
32.866
32.869
32.881
32.906
32.946
33.006
33.086
33.189
33.315
33.464
33.635
33.825
34.033
34.256
34.489
34.729
34.973
35.215
35.452
35.681
35.899
36.102
36.289
36.458
36.607
36.736
36.844
36.934
37.004
37.055
37.09
37.108
37.111
37.1
37.077
37.042
36.997
36.944
36.883
36.817
36.746
36.672
36.597
36.52
36.443
36.367
36.291
36.215
36.141
36.068
35.997
35.926
35.858
35.791
35.725
35.661
35.598
35.537
35.477
35.419
35.362
35.307
35.253
35.2
35.147
35.095
35.042
34.99
34.938
34.887
34.836
34.786
34.739
34.693
34.65
34.61
34.574
34.541
34.513
34.488
34.468
34.453
34.442
34.435
34.432
34.433
34.437
34.444
34.453
34.464
34.477
34.491
34.506
34.522
34.537
34.551
34.564
34.575
34.585
34.592
34.598
34.6
34.601
34.598
34.593
34.586
34.576
34.565
34.552
34.538
34.523
34.507
34.491
34.473
34.455
34.435
34.413
34.391
34.366
34.34
34.313
34.283
34.251
34.218
34.184
34.15
34.115
34.081
34.047
34.015
33.983
33.952
33.922
33.893
33.865
33.838
33.812
33.787
33.764
33.742
33.722
33.703
33.684
33.666
33.647
33.628
33.608
33.587
33.565
33.541
33.516
33.491
33.465
33.438
33.412
33.387
33.362
33.337
33.315
33.294
33.274
33.256
33.239
33.223
33.207
33.192
33.179
33.167
33.158
33.152
33.15
33.154
33.168
33.193
33.234
33.292
33.371
33.473
33.599
33.749
33.924
34.121
34.339
34.574
34.823
35.081
35.345
35.61
35.87
36.123
36.365
36.592
36.803
