Trial 3:3back
34.243
34.101
33.96
33.818
33.678
33.541
33.406
33.276
33.15
33.027
32.908
32.794
32.684
32.579
32.478
32.382
32.289
32.202
32.119
32.041
31.97
31.905
31.847
31.795
31.75
31.712
31.679
31.651
31.627
31.605
31.585
31.565
31.544
31.523
31.501
31.478
31.455
31.433
31.413
31.395
31.379
31.365
31.352
31.34
31.33
31.322
31.315
31.311
31.312
31.319
31.337
31.37
31.423
31.502
31.612
31.762
31.957
32.204
32.507
32.869
33.293
33.778
34.32
34.914
35.552
36.223
36.918
37.623
38.328
39.019
39.685
40.314
40.896
41.422
41.887
42.285
42.614
42.874
43.065
43.191
43.255
43.262
43.217
43.127
42.997
42.835
42.646
42.437
42.212
41.975
41.731
41.482
41.232
40.981
40.732
40.485
40.241
39.997
39.755
39.514
39.275
39.039
38.805
38.572
38.339
38.107
37.874
37.64
37.406
37.171
36.935
36.7
36.464
36.229
35.995
35.762
35.532
35.306
35.086
34.874
34.672
34.481
34.303
34.14
33.995
33.868
33.762
33.677
33.613
33.569
33.546
33.541
33.555
33.586
33.634
33.698
33.778
33.871
33.976
34.09
34.21
34.335
34.464
34.596
34.729
34.86
34.988
35.11
35.225
35.33
35.424
35.506
35.575
35.632
35.677
35.71
35.731
35.74
35.736
35.721
35.695
35.658
35.612
35.558
35.497
35.43
35.359
35.285
35.208
35.129
35.048
34.965
34.88
34.792
34.703
34.611
34.519
34.426
34.335
34.244
34.153
34.063
33.974
33.886
33.798
33.711
33.625
33.539
33.452
33.366
33.28
33.195
33.111
33.028
32.948
32.872
32.8
32.734
32.672
32.614
32.561
32.513
32.469
32.428
32.39
32.353
32.316
32.278
32.237
32.192
32.143
32.09
32.035
31.979
31.924
31.871
31.821
31.776
31.737
31.703
31.677
31.661
31.657
31.667
31.697
31.749
31.829
31.943
32.096
32.294
32.544
32.849
33.214
33.64
34.126
34.668
35.259
35.886
36.539
37.21
37.889
38.565
39.229
39.872
40.483
41.053
41.575
42.043
42.451
42.797
43.079
43.298
43.455
43.553
43.594
43.584
43.53
43.437
43.311
43.158
42.982
42.789
42.583
42.368
42.146
41.921
41.694
41.466
41.239
41.013
40.787
40.563
40.341
40.12
39.901
39.684
39.468
39.255
39.044
38.835
38.628
38.423
38.218
38.013
37.808
37.603
37.397
37.192
36.987
36.783
36.58
36.378
36.178
35.983
35.795
35.615
35.447
35.29
35.146
35.015
34.898
34.795
34.706
34.631
34.572
34.528
34.5
34.489
34.493
34.512
34.546
34.592
34.649
34.716
34.792
34.874
34.961
35.053
35.147
35.242
35.337
35.428
35.515
35.596
35.67
35.735
35.789
35.833
35.866
35.887
35.898
35.897
35.886
35.865
35.834
35.793
35.743
35.683
35.616
35.544
35.467
35.388
35.307
35.223
35.136
35.047
34.954
34.859
34.761
34.661
34.559
34.455
34.35
34.243
34.137
34.03
33.925
33.82
33.718
33.617
33.518
33.424
33.333
33.248
33.167
33.09
33.018
32.948
32.882
32.819
32.758
32.7
32.643
32.588
32.535
32.484
32.436
32.39
32.346
32.304
32.263
32.223
32.183
32.145
32.106
32.066
32.028
31.99
31.952
31.915
31.879
31.843
31.809
31.777
31.749
31.724
31.704
31.689
31.682
31.684
31.698
31.725
31.77
31.837
31.931
32.058
32.227
32.444
32.715
33.046
33.438
33.892
34.406
34.975
35.593
36.25
36.936
37.64
38.348
39.048
39.727
40.374
40.977
41.527
42.018
42.444
42.802
43.092
43.314
43.47
43.564
43.6
43.585
43.524
43.425
43.295
43.138
42.961
42.768
42.564
42.352
42.137
41.92
41.704
41.488
41.274
41.061
40.85
40.641
40.435
40.232
40.031
39.833
39.636
39.44
39.245
39.05
38.856
38.66
38.464
38.267
38.069
37.87
37.67
37.469
37.267
37.064
36.862
36.661
36.463
36.267
36.076
35.892
35.715
35.547
35.39
35.245
35.113
34.995
34.893
34.806
34.735
34.679
34.64
34.616
34.607
34.612
34.631
34.662
34.705
34.759
34.818
34.881
34.948
35.017
35.088
35.163
35.239
35.316
35.393
35.469
35.545
35.619
35.689
35.754
35.812
35.862
35.902
35.93
35.944
35.944
35.93
35.904
35.864
35.814
35.754
35.686
35.611
35.531
35.446
35.356
35.261
35.163
35.061
34.957
34.852
34.745
34.637
34.53
34.423
34.316
34.21
34.105
34.0
33.898
33.797
33.698
33.603
33.511
33.422
33.336
33.253
33.172
33.094
33.017
32.943
32.871
32.802
32.735
32.67
32.607
32.546
32.485
32.427
32.371
32.318
32.27
32.227
32.187
32.151
32.118
32.088
32.062
32.038
32.018
32.001
31.987
31.976
31.967
31.958
31.95
31.941
31.931
31.922
31.913
31.905
31.897
31.891
31.885
31.879
31.874
31.869
31.863
31.858
31.852
31.847
31.843
31.84
31.842
31.849
31.862
31.886
31.924
31.982
32.066
32.183
32.339
32.542
32.797
33.11
33.484
33.92
34.419
34.977
35.589
36.246
36.937
37.65
38.373
39.093
39.796
40.469
41.101
41.68
42.198
42.649
43.028
43.335
43.57
43.733
43.831
43.867
43.848
43.781
43.672
43.528
43.354
43.157
42.942
42.714
42.477
42.234
41.989
41.743
41.499
41.256
41.017
40.78
40.548
40.319
40.095
39.875
39.66
39.448
39.24
39.035
38.833
38.632
38.433
38.235
38.037
37.84
37.644
37.448
37.251
37.053
36.856
36.658
36.461
36.266
36.073
35.885
35.701
35.524
35.356
35.199
35.054
34.923
34.808
34.71
34.628
34.564
34.517
34.488
34.477
34.484
34.507
34.547
34.601
34.667
34.744
34.83
34.924
35.024
35.129
35.236
35.345
35.452
35.556
35.654
35.745
35.828
35.902
35.966
36.02
36.062
36.091
36.107
36.111
36.102
36.082
36.051
36.01
35.958
35.897
35.826
35.747
35.662
35.571
35.476
35.377
35.275
35.171
35.065
34.958
34.85
34.743
34.638
34.535
34.434
34.335
34.238
34.143
34.049
33.957
33.867
33.778
33.689
33.602
33.516
33.43
33.345
33.26
33.177
33.094
33.012
32.93
32.85
32.771
32.695
32.621
32.55
32.482
32.416
32.353
32.292
32.234
32.18
32.129
32.081
32.036
31.995
31.956
31.921
31.89
31.862
31.838
31.819
31.805
31.794
31.787
31.783
31.78
31.779
31.779
31.778
31.778
31.778
31.779
31.782
31.785
31.789
31.793
31.798
31.803
31.807
31.81
31.812
31.813
31.814
31.815
31.816
31.816
31.817
31.818
31.818
31.819
31.82
31.822
31.826
31.832
31.841
31.855
31.876
31.905
31.948
32.01
32.097
32.215
32.371
32.573
32.826
33.135
33.504
33.934
34.425
34.972
35.57
36.209
36.878
37.566
38.259
38.943
39.604
40.231
40.813
41.34
41.807
42.208
42.541
42.804
42.998
43.126
43.19
43.198
43.154
43.064
42.937
42.777
42.591
42.384
42.162
41.93
41.691
41.448
41.206
40.964
40.725
40.49
40.259
40.032
39.811
39.593
39.379
39.171
38.97
38.776
38.587
38.402
38.218
38.032
37.843
37.649
37.45
37.245
37.035
36.82
36.602
36.383
36.164
35.946
35.73
35.52
35.317
35.124
34.942
34.774
34.622
34.487
34.372
34.275
34.199
34.143
34.106
34.088
34.088
34.106
34.138
34.185
34.244
34.312
34.39
34.475
34.567
34.664
34.766
34.871
34.977
35.081
35.183
35.28
35.373
35.459
35.538
35.609
35.669
35.719
35.757
35.784
35.799
35.802
35.793
35.773
35.742
35.701
35.652
35.594
35.528
35.455
35.377
35.295
35.209
35.12
35.03
34.938
34.845
34.752
34.659
34.566
34.474
34.383
34.293
34.203
34.112
34.021
33.93
33.839
33.748
33.658
33.569
33.482
33.396
33.312
33.228
33.147
33.066
32.987
32.91
32.836
32.764
32.696
32.632
32.571
32.514
32.461
32.412
32.367
32.326
32.289
32.255
32.223
32.194
32.167
32.143
32.122
32.104
32.088
32.074
32.063
32.054
32.046
32.04
32.036
32.034
32.034
32.035
32.038
32.04
32.042
32.044
32.045
32.046
32.048
32.051
32.053
32.054
32.053
32.048
32.041
32.03
32.018
32.004
31.989
31.975
31.963
31.955
31.951
31.952
31.959
31.974
32.0
32.04
32.101
32.186
32.301
32.453
32.645
32.884
33.171
33.508
33.896
34.334
34.819
35.345
35.904
36.487
37.084
37.683
38.273
38.841
39.378
39.875
40.322
40.714
41.047
41.319
41.53
41.68
41.772
41.811
41.802
41.75
41.662
41.543
41.398
41.233
41.051
40.856
40.653
40.444
40.232
40.019
39.805
39.592
39.379
39.167
38.956
38.747
38.539
38.332
38.126
37.92
37.715
37.512
37.311
37.111
36.914
36.717
36.519
36.319
36.116
35.912
35.708
35.506
35.307
35.111
34.922
34.739
34.565
34.401
34.249
34.112
33.991
33.887
33.8
33.731
33.68
33.646
33.63
33.631
33.648
33.683
33.733
33.8
33.881
33.975
34.079
34.193
34.314
34.439
34.567
34.697
34.826
34.953
35.076
35.195
35.307
35.412
35.506
35.591
35.664
35.724
35.771
35.804
35.824
35.831
35.826
35.81
35.784
35.749
35.706
35.654
35.595
35.529
35.457
35.379
35.297
35.21
35.119
35.025
34.928
34.829
34.73
34.63
34.53
34.431
34.333
34.236
34.14
34.046
33.953
33.863
33.773
33.685
33.596
33.509
33.422
33.335
33.251
33.17
33.093
33.02
32.952
32.888
32.829
32.774
32.721
32.672
32.624
32.579
32.535
32.493
32.453
32.414
32.376
32.34
32.305
32.274
32.247
32.223
32.203
32.187
32.172
32.158
32.146
32.135
32.126
32.118
32.113
32.111
32.111
32.112
32.114
32.115
32.115
32.114
32.11
32.103
32.093
32.083
32.072
32.063
32.055
32.052
32.056
32.07
32.099
32.147
32.22
32.323
32.462
32.644
32.872
33.151
33.483
33.869
34.309
34.797
35.326
35.89
36.478
37.079
37.684
38.28
38.857
39.405
39.914
40.376
40.783
41.132
41.419
41.644
41.805
41.905
41.948
41.939
41.885
41.793
41.67
41.521
41.355
41.175
40.986
40.792
40.596
40.4
40.205
40.013
39.822
39.632
39.443
39.256
39.068
38.88
38.691
38.501
38.312
38.123
37.936
37.752
37.57
37.392
37.216
37.041
36.867
36.694
36.522
36.35
36.179
36.01
35.841
35.673
35.507
35.343
35.182
35.027
34.878
34.737
34.604
34.482
34.371
34.272
34.186
34.115
34.059
34.017
33.991
33.978
33.979
33.995
34.026
34.072
34.132
34.205
34.289
34.383
34.485
34.592
34.702
34.814
34.925
35.033
35.136
35.232
35.32
35.398
35.467
35.525
35.572
35.607
35.631
35.643
35.644
35.634
35.614
35.584
35.544
35.496
35.441
35.379
35.311
35.238
35.161
35.082
35.0
34.917
34.834
34.749
34.663
34.575
34.485
34.393
34.301
34.207
34.113
34.018
33.924
33.829
33.733
33.638
33.542
33.449
33.357
33.268
33.183
33.101
33.023
32.947
32.873
32.802
32.733
32.666
32.602
32.541
32.483
32.428
32.375
32.325
32.277
32.232
32.19
32.152
32.12
32.091
32.068
32.048
32.031
32.015
32.001
31.989
31.978
31.97
31.965
31.963
31.963
31.964
31.966
31.969
31.973
31.975
31.978
31.98
31.982
31.984
31.985
31.984
31.982
31.979
31.975
31.972
31.968
31.964
31.961
31.959
31.959
31.961
31.968
31.983
32.007
32.045
32.101
32.181
32.29
32.434
32.618
32.848
33.128
33.462
33.851
34.294
34.787
35.323
35.892
36.484
37.088
37.692
38.285
38.855
39.391
39.884
40.328
40.715
41.044
41.313
41.522
41.672
41.765
41.806
41.799
41.749
41.661
41.542
41.396
41.23
41.048
40.857
40.658
40.455
40.252
40.049
39.847
39.647
39.45
39.256
39.065
38.879
38.696
38.517
38.342
38.17
38.001
37.836
37.674
37.515
37.359
37.204
37.05
36.898
36.747
36.599
36.451
36.303
36.155
36.006
35.855
35.703
35.551
35.399
35.25
35.105
34.966
34.833
34.71
34.596
34.493
34.402
34.324
34.258
34.207
34.169
34.146
34.139
34.147
34.17
34.207
34.255
34.313
34.38
34.454
34.533
34.617
34.704
34.795
34.886
34.977
35.068
35.155
35.237
35.314
35.383
35.444
35.495
35.535
35.565
35.582
35.588
35.583
35.566
35.54
35.506
35.464
35.415
35.361
35.3
35.234
35.163
35.087
35.008
34.926
34.842
34.755
34.668
34.579
34.489
34.399
34.309
34.22
34.131
34.044
33.956
33.868
33.777
33.685
33.592
33.499
33.408
33.319
33.233
33.15
33.07
32.993
32.918
32.845
32.774
32.705
32.639
32.576
32.516
32.46
32.406
32.354
32.305
32.258
32.214
32.173
32.135
32.1
32.067
32.036
32.007
31.98
31.955
31.933
31.914
31.898
31.884
31.873
31.866
31.862
31.86
31.86
31.863
31.869
31.878
31.89
31.905
31.923
31.944
31.965
31.987
32.009
32.029
32.047
32.062
32.072
32.079
32.081
32.081
32.077
32.073
32.067
32.06
32.053
32.045
32.038
32.033
32.028
32.025
32.025
32.031
32.042
32.061
32.091
32.136
32.199
32.286
32.405
32.561
32.758
33.003
33.298
33.646
34.046
34.497
34.994
35.53
36.096
36.682
37.275
37.865
38.438
38.985
39.495
39.961
40.374
40.731
41.028
41.263
41.436
41.55
41.608
41.615
41.576
41.497
41.385
41.245
41.085
40.91
40.725
40.534
40.338
40.141
39.943
39.746
39.549
39.356
39.165
38.976
38.789
38.605
38.423
38.243
38.067
37.893
37.723
37.554
37.386
37.219
37.052
36.886
36.721
36.557
36.396
36.236
36.078
35.921
35.765
35.61
35.457
35.306
35.159
35.016
34.877
34.743
34.615
34.492
34.377
34.27
34.172
34.087
34.014
33.955
33.912
33.885
33.872
33.876
33.895
33.929
33.978
34.039
34.111
34.193
34.281
34.375
34.472
34.571
34.671
34.77
34.865
34.956
35.041
35.118
35.186
35.245
35.295
35.335
35.364
35.384
35.393
35.392
35.381
35.361
35.333
35.297
35.255
35.208
35.156
35.1
35.04
34.976
34.908
34.837
34.762
34.686
34.606
34.525
34.441
34.355
34.266
34.175
34.083
33.99
33.897
33.805
33.712
33.621
33.529
33.438
33.349
33.263
33.179
33.099
33.021
32.947
32.875
32.807
32.742
32.681
32.622
32.566
32.511
32.457
32.405
32.353
32.302
32.252
32.202
32.154
32.108
32.064
32.023
31.984
31.948
31.914
31.884
31.857
31.833
31.812
31.793
31.777
31.765
31.757
31.751
31.747
31.745
31.745
31.746
31.749
31.755
31.763
31.772
31.785
31.799
31.815
31.833
31.852
31.872
31.893
31.915
31.938
31.961
31.985
32.008
32.031
32.053
32.074
32.093
32.111
32.127
32.142
32.154
32.163
32.169
32.174
32.178
32.182
32.186
32.191
32.197
32.204
32.212
32.219
32.226
32.229
32.228
32.223
32.212
32.198
32.18
32.16
32.137
32.114
32.091
32.069
32.051
32.04
32.039
32.053
32.087
32.146
32.238
32.367
32.542
32.766
33.044
33.381
33.777
34.231
34.737
35.291
35.882
36.502
37.137
37.776
38.405
39.012
39.585
40.114
40.591
41.01
41.367
41.659
41.888
42.052
42.156
42.204
42.2
42.151
42.063
41.94
41.789
41.616
41.424
41.22
41.008
40.792
40.575
40.358
40.143
39.931
39.721
39.514
39.31
39.108
38.909
38.712
38.52
38.33
38.144
37.96
37.78
37.601
37.425
37.252
37.08
36.91
36.741
36.574
36.408
36.244
36.08
35.916
35.753
35.591
35.429
35.271
35.118
34.971
34.832
34.702
34.583
34.476
34.381
34.301
34.235
34.183
34.145
34.122
34.114
34.122
34.146
34.186
34.242
34.311
34.392
34.483
34.58
34.683
34.788
34.896
35.003
35.107
35.209
35.305
35.394
35.476
35.548
35.611
35.663
35.705
35.736
35.756
35.766
35.765
35.754
35.733
35.704
35.666
35.62
35.568
35.508
35.443
35.373
35.299
35.22
35.138
35.053
34.965
34.873
34.779
34.682
34.584
34.485
34.385
34.285
34.185
34.085
33.984
33.883
33.784
33.685
33.588
33.496
33.407
33.322
33.242
33.164
33.09
33.019
32.949
32.882
32.815
32.749
32.684
32.619
32.554
32.49
32.428
32.368
32.311
32.256
32.206
32.159
32.115
32.074
32.036
31.999
31.964
31.932
31.902
31.875
31.851
31.83
31.813
31.799
31.79
31.783
31.78
31.78
31.782
31.788
31.798
31.812
31.83
31.852
31.877
31.905
31.935
31.965
31.996
32.026
32.055
32.084
32.11
32.135
32.157
32.176
32.192
32.203
32.21
32.214
32.214
32.211
32.205
32.196
32.184
32.17
32.156
32.141
32.128
32.116
32.107
32.103
32.104
32.112
32.128
32.156
32.197
32.258
32.342
32.455
32.604
32.795
33.033
33.323
33.666
34.063
34.512
35.01
35.549
36.121
36.717
37.325
37.932
38.525
39.093
39.625
40.112
40.548
40.926
41.244
41.499
41.691
41.822
41.894
41.912
41.882
41.809
41.699
41.557
41.392
41.206
41.006
40.796
40.578
40.357
40.134
39.913
39.695
39.478
39.264
39.052
38.842
38.633
38.426
38.221
38.019
37.82
37.624
37.431
37.241
37.055
36.871
36.69
36.511
36.335
36.16
35.987
35.816
35.647
35.48
35.313
35.148
34.984
34.823
34.665
34.512
34.366
34.229
34.103
33.992
33.894
33.813
33.748
33.701
33.672
33.661
33.668
33.692
33.733
33.789
33.858
33.94
34.032
34.134
34.244
34.359
34.479
34.601
34.725
34.849
34.97
35.088
35.201
35.306
35.403
35.489
35.565
35.629
35.683
35.727
35.759
35.781
35.792
35.791
35.78
35.759
35.728
35.688
35.639
35.582
35.519
35.45
35.375
35.296
35.214
35.128
35.04
34.949
34.859
34.771
34.686
34.604
34.522
34.441
34.358
34.274
34.187
34.097
34.005
33.909
33.812
33.712
33.612
33.513
33.417
33.325
33.237
33.154
33.075
33.002
32.933
32.87
32.812
32.759
32.712
32.671
32.634
32.603
32.576
32.552
32.53
32.51
32.492
32.474
32.457
32.441
32.425
32.41
32.396
32.382
32.369
32.357
32.345
32.333
32.32
32.306
32.291
32.274
32.255
32.234
32.211
32.187
32.164
32.143
32.126
32.114
32.108
32.111
32.124
32.15
32.192
32.252
32.334
32.443
32.584
32.763
32.983
33.249
33.565
33.931
34.349
34.813
35.32
35.863
36.433
37.02
37.612
38.198
38.765
39.304
39.804
40.258
40.659
41.005
41.293
41.522
41.693
41.808
41.87
41.884
41.854
41.784
41.681
41.549
41.394
41.22
41.033
40.836
40.632
40.424
40.213
40.003
39.794
39.587
39.381
39.178
38.977
38.778
38.581
38.385
38.191
37.999
37.808
37.619
37.43
37.242
37.054
36.866
36.679
36.492
36.305
36.119
35.932
35.746
35.56
35.374
35.19
35.008
34.832
34.662
34.502
34.351
34.212
34.086
33.974
33.876
33.795
33.731
33.684
33.655
33.644
33.65
33.672
33.709
33.76
33.825
33.904
33.995
34.097
34.209
34.328
34.453
34.582
34.714
34.844
34.971
35.094
35.21
35.318
35.417
35.507
35.587
35.657
35.716
35.764
35.802
35.827
35.841
35.842
35.832
35.81
35.778
35.734
35.68
35.618
35.548
35.472
35.391
35.305
35.216
35.124
35.03
34.935
34.839
34.744
34.648
34.553
34.457
34.361
34.265
34.17
34.075
33.98
33.886
33.793
33.701
33.61
33.519
33.43
33.344
33.26
33.18
33.103
33.03
32.959
32.891
32.827
32.767
32.711
32.661
32.615
32.575
32.538
32.505
32.474
32.444
32.416
32.388
32.36
32.333
32.306
32.279
32.253
32.229
32.207
32.188
32.174
32.163
32.156
32.151
32.148
32.145
32.142
32.137
32.131
32.123
32.114
32.104
32.094
32.085
32.078
32.074
32.075
32.086
32.11
32.152
32.217
32.312
32.443
32.616
32.838
33.115
33.45
33.845
34.3
34.812
35.376
35.983
36.622
37.282
37.95
38.613
39.259
39.874
40.45
40.976
41.446
41.854
42.196
42.473
42.683
42.83
42.916
42.946
42.925
42.859
42.756
42.621
42.461
42.283
42.091
41.891
41.686
41.477
41.267
41.056
40.846
40.638
40.432
40.228
40.026
39.827
39.629
39.432
39.237
39.044
38.854
38.665
38.479
38.295
38.113
37.933
37.757
37.583
37.412
37.244
37.078
36.913
36.748
36.584
36.419
36.254
36.09
35.928
35.768
35.611
35.458
35.312
35.175
35.049
34.936
34.837
34.752
34.684
34.632
34.597
34.577
34.572
34.582
34.605
34.64
34.687
34.743
34.808
34.881
34.96
35.045
35.133
35.225
35.317
35.411
35.503
35.592
35.678
35.759
35.834
35.902
35.962
36.013
36.054
36.084
36.103
36.111
36.108
36.094
36.07
36.037
35.994
35.941
35.881
35.811
35.735
35.653
35.567
35.479
35.39
35.299
35.207
35.113
35.017
34.92
34.821
34.722
34.621
34.52
34.419
34.319
34.22
34.122
34.026
33.93
33.836
33.741
33.647
33.552
33.458
33.364
33.272
33.184
33.099
33.019
32.944
32.874
32.81
32.751
32.698
32.649
32.605
32.565
32.526
32.49
32.456
32.425
32.397
32.372
32.349
32.33
32.314
32.299
32.286
32.275
32.264
32.255
32.247
32.241
32.236
32.233
32.229
32.225
32.218
32.21
32.199
32.185
32.169
32.151
32.132
32.113
32.094
32.077
