Trial 3:3back
34.805
34.795
34.784
34.77
34.755
34.738
34.72
34.701
34.682
34.662
34.641
34.62
34.6
34.58
34.561
34.542
34.524
34.506
34.491
34.478
34.466
34.457
34.448
34.44
34.432
34.424
34.416
34.409
34.403
34.397
34.394
34.394
34.399
34.41
34.428
34.455
34.49
34.535
34.589
34.654
34.728
34.811
34.901
34.996
35.096
35.2
35.307
35.415
35.523
35.629
35.731
35.828
35.921
36.008
36.089
36.164
36.233
36.296
36.354
36.406
36.453
36.494
36.529
36.559
36.585
36.608
36.626
36.642
36.654
36.665
36.673
36.679
36.682
36.683
36.682
36.679
36.675
36.669
36.661
36.654
36.647
36.64
36.633
36.625
36.615
36.605
36.594
36.582
36.57
36.557
36.544
36.528
36.51
36.491
36.469
36.446
36.42
36.394
36.367
36.34
36.312
36.284
36.256
36.228
36.201
36.175
36.151
36.129
36.11
36.094
36.081
36.072
36.066
36.062
36.061
36.061
36.063
36.068
36.074
36.082
36.089
36.095
36.098
36.099
36.096
36.089
36.077
36.06
36.04
36.018
35.995
35.972
35.949
35.927
35.908
35.891
35.875
35.861
35.847
35.833
35.82
35.808
35.794
35.78
35.765
35.749
35.731
35.712
35.689
35.664
35.636
35.606
35.574
35.541
35.508
35.474
35.44
35.407
35.375
35.344
35.316
35.29
35.265
35.242
35.219
35.197
35.175
35.154
35.131
35.108
35.083
35.057
35.03
35.002
34.974
34.946
34.917
34.887
34.858
34.83
34.802
34.776
34.751
34.727
34.703
34.681
34.66
34.641
34.624
34.607
34.593
34.579
34.566
34.555
34.544
34.533
34.522
34.51
34.499
34.486
34.472
34.458
34.444
34.429
34.414
34.398
34.382
34.365
34.348
34.332
34.316
34.302
34.289
34.279
34.272
34.269
34.272
34.28
34.296
34.319
34.35
34.389
34.438
34.496
34.563
34.64
34.726
34.819
34.919
35.024
35.134
35.245
35.358
35.469
35.579
35.686
35.79
35.891
35.988
36.081
36.169
36.252
36.329
36.401
36.466
36.524
36.574
36.619
36.656
36.689
36.717
36.74
36.759
36.773
36.782
36.786
36.786
36.782
36.775
36.766
36.753
36.737
36.72
36.701
36.68
36.659
36.634
36.608
36.581
36.554
36.528
36.506
36.485
36.466
36.449
36.432
36.416
36.4
36.384
36.367
36.349
36.33
36.309
36.286
36.263
36.238
36.212
36.185
36.157
36.128
36.1
36.074
36.052
36.032
36.016
36.003
35.994
35.988
35.985
35.982
35.981
35.981
35.981
35.982
35.984
35.986
35.987
35.989
35.989
35.987
35.984
35.979
35.972
35.965
35.957
35.947
35.935
35.921
35.904
35.884
35.86
35.835
35.806
35.775
35.743
35.71
35.677
35.645
35.613
35.581
35.548
35.515
35.481
35.447
35.412
35.377
35.341
35.306
35.273
35.24
35.209
35.18
35.152
35.124
35.097
35.07
35.044
35.019
34.995
34.971
34.948
34.926
34.905
34.884
34.864
34.844
34.823
34.801
34.778
34.754
34.729
34.703
34.675
34.646
34.618
34.589
34.562
34.534
34.507
34.482
34.458
34.437
34.417
34.399
34.382
34.367
34.353
34.341
34.33
34.319
34.308
34.297
34.287
34.278
34.269
34.262
34.256
34.25
34.245
34.242
34.238
34.236
34.236
34.239
34.245
34.257
34.276
34.302
34.335
34.377
34.426
34.483
34.548
34.621
34.701
34.789
34.883
34.982
35.088
35.198
35.311
35.428
35.545
35.662
35.777
35.889
35.998
36.102
36.201
36.294
36.381
36.461
36.534
36.599
36.656
36.706
36.748
36.782
36.809
36.828
36.841
36.848
36.85
36.849
36.845
36.837
36.826
36.812
36.798
36.782
36.766
36.748
36.73
36.712
36.693
36.674
36.655
36.634
36.61
36.585
36.556
36.525
36.489
36.448
36.404
36.356
36.305
36.254
36.202
36.151
36.101
36.053
36.009
35.968
35.931
35.898
35.869
35.844
35.825
35.81
35.799
35.792
35.788
35.787
35.788
35.79
35.794
35.797
35.8
35.804
35.807
35.811
35.814
35.814
35.812
35.807
35.799
35.79
35.779
35.767
35.754
35.742
35.73
35.718
35.709
35.699
35.691
35.682
35.673
35.663
35.652
35.64
35.628
35.614
35.599
35.583
35.564
35.544
35.521
35.496
35.468
35.438
35.405
35.37
35.334
35.298
35.262
35.227
35.193
35.16
35.129
35.1
35.073
35.048
35.025
35.004
34.983
34.961
34.939
34.917
34.894
34.87
34.845
34.819
34.792
34.764
34.736
34.708
34.68
34.652
34.624
34.596
34.571
34.548
34.528
34.512
34.499
34.488
34.479
34.47
34.463
34.454
34.445
34.434
34.421
34.406
34.389
34.371
34.352
34.333
34.313
34.293
34.275
34.259
34.246
34.236
34.229
34.225
34.226
34.232
34.244
34.263
34.289
34.323
34.366
34.418
34.481
34.552
34.632
34.721
34.817
34.921
35.032
35.15
35.272
35.399
35.528
35.659
35.79
35.918
36.043
36.161
36.273
36.378
36.475
36.562
36.641
36.71
36.77
36.823
36.867
36.903
36.93
36.948
36.959
36.964
36.964
36.959
36.949
36.935
36.917
36.897
36.874
36.85
36.824
36.799
36.774
36.751
36.729
36.706
36.684
36.662
36.638
36.613
36.586
36.557
36.527
36.496
36.464
36.431
36.396
36.36
36.323
36.285
36.248
36.211
36.175
36.14
36.107
36.076
36.049
36.027
36.009
35.996
35.987
35.981
35.978
35.978
35.98
35.983
35.987
35.99
35.991
35.989
35.984
35.976
35.964
35.949
35.932
35.912
35.892
35.873
35.856
35.842
35.831
35.824
35.819
35.816
35.813
35.81
35.805
35.799
35.791
35.781
35.769
35.754
35.737
35.718
35.695
35.669
35.64
35.609
35.574
35.538
35.5
35.462
35.424
35.385
35.347
35.309
35.272
35.235
35.2
35.167
35.135
35.105
35.076
35.049
35.023
34.997
34.971
34.945
34.918
34.891
34.864
34.838
34.812
34.786
34.76
34.734
34.709
34.684
34.658
34.632
34.605
34.577
34.55
34.523
34.497
34.473
34.451
34.431
34.412
34.395
34.378
34.362
34.346
34.331
34.316
34.303
34.29
34.277
34.265
34.252
34.238
34.224
34.209
34.194
34.178
34.163
34.147
34.132
34.117
34.103
34.089
34.076
34.065
34.055
34.049
34.046
34.049
34.057
34.074
34.1
34.137
34.186
34.247
34.319
34.403
34.498
34.603
34.717
34.838
34.965
35.096
35.231
35.369
35.509
35.65
35.79
35.928
36.063
36.194
36.32
36.441
36.555
36.663
36.763
36.856
36.942
37.02
37.092
37.155
37.211
37.259
37.3
37.332
37.357
37.373
37.382
37.384
37.379
37.367
37.349
37.326
37.298
37.267
37.233
37.197
37.159
37.12
37.082
37.044
37.007
36.971
36.935
36.901
36.868
36.834
36.8
36.764
36.725
36.683
36.64
36.595
36.55
36.505
36.459
36.414
36.369
36.325
36.283
36.243
36.205
36.17
36.138
36.11
36.085
36.062
36.042
36.024
36.009
35.997
35.988
35.981
35.977
35.974
35.974
35.976
35.977
35.978
35.978
35.977
35.974
35.97
35.964
35.957
35.948
35.938
35.925
35.911
35.896
35.879
35.861
35.841
35.819
35.796
35.773
35.749
35.725
35.701
35.676
35.649
35.621
35.593
35.564
35.535
35.504
35.473
35.442
35.41
35.378
35.346
35.313
35.279
35.244
35.208
35.17
35.131
35.092
35.054
35.017
34.982
34.949
34.917
34.885
34.855
34.825
34.795
34.765
34.736
34.707
34.68
34.654
34.63
34.608
34.586
34.566
34.546
34.526
34.505
34.484
34.462
34.438
34.414
34.389
34.364
34.339
34.315
34.29
34.263
34.237
34.21
34.184
34.159
34.137
34.118
34.102
34.089
34.079
34.072
34.068
34.065
34.064
34.063
34.062
34.061
34.062
34.065
34.069
34.077
34.089
34.106
34.129
34.158
34.195
34.239
34.29
34.351
34.421
34.501
34.591
34.692
34.802
34.922
35.049
35.183
35.321
35.463
35.606
35.748
35.887
36.023
36.154
36.277
36.394
36.502
36.6
36.689
36.766
36.834
36.891
36.939
36.979
37.011
37.037
37.056
37.071
37.082
37.089
37.091
37.089
37.083
37.072
37.058
37.042
37.025
37.008
36.99
36.973
36.956
36.939
36.923
36.907
36.891
36.875
36.858
36.838
36.814
36.785
36.748
36.703
36.651
36.593
36.53
36.465
36.399
36.335
36.275
36.218
36.166
36.12
36.079
36.044
36.016
35.994
35.978
35.966
35.959
35.955
35.953
35.952
35.951
35.95
35.946
35.939
35.93
35.918
35.903
35.886
35.869
35.851
35.834
35.818
35.804
35.791
35.781
35.773
35.765
35.758
35.751
35.743
35.734
35.724
35.712
35.698
35.681
35.661
35.637
35.611
35.581
35.548
35.512
35.473
35.433
35.39
35.346
35.3
35.254
35.208
35.164
35.12
35.079
35.039
35.003
34.97
34.941
34.914
34.89
34.868
34.847
34.827
34.807
34.786
34.765
34.744
34.722
34.699
34.676
34.651
34.626
34.598
34.569
34.539
34.508
34.476
34.444
34.412
34.38
34.348
34.318
34.29
34.264
34.241
34.219
34.198
34.18
34.162
34.148
34.135
34.124
34.116
34.109
34.103
34.099
34.096
34.092
34.087
34.079
34.069
34.057
34.045
34.031
34.019
34.008
34.0
33.996
33.996
34.002
34.014
34.032
34.057
34.09
34.132
34.182
34.243
34.315
34.397
34.49
34.593
34.706
34.828
34.957
35.092
35.231
35.373
35.514
35.653
35.789
35.919
36.042
36.157
36.263
36.36
36.448
36.527
36.598
36.661
36.717
36.765
36.806
36.839
36.865
36.884
36.896
36.901
36.9
36.893
36.881
36.866
36.846
36.823
36.797
36.768
36.735
36.699
36.662
36.623
36.583
36.543
36.504
36.464
36.426
36.387
36.35
36.312
36.273
36.233
36.193
36.153
36.114
36.077
36.042
36.006
35.969
35.93
35.889
35.848
35.805
35.763
35.723
35.686
35.651
35.619
35.591
35.569
35.552
35.538
35.529
35.522
35.518
35.516
35.516
35.518
35.52
35.523
35.526
35.528
35.529
35.531
35.533
35.534
35.534
35.534
35.533
35.53
35.526
35.52
35.512
35.501
35.489
35.473
35.456
35.436
35.414
35.391
35.368
35.343
35.318
35.293
35.268
35.243
35.219
35.195
35.17
35.143
35.115
35.087
35.06
35.034
35.008
34.983
34.957
34.932
34.906
34.879
34.85
34.821
34.789
34.757
34.725
34.694
34.665
34.638
34.611
34.586
34.561
34.536
34.513
34.49
34.467
34.444
34.421
34.398
34.375
34.352
34.331
34.311
34.293
34.275
34.259
34.244
34.23
34.216
34.203
34.19
34.178
34.167
34.158
34.149
34.141
34.133
34.125
34.117
34.107
34.098
34.09
34.084
34.082
34.084
34.092
34.108
34.132
34.166
34.209
34.263
34.327
34.402
34.487
34.583
34.688
34.802
34.923
35.05
35.181
35.314
35.448
35.58
35.709
35.835
35.954
36.067
36.172
36.269
36.357
36.435
36.504
36.561
36.609
36.648
36.68
36.706
36.727
36.742
36.754
36.761
36.764
36.765
36.763
36.757
36.748
36.735
36.719
36.7
36.678
36.653
36.626
36.595
36.562
36.525
36.485
36.442
36.397
36.351
36.304
36.258
36.211
36.166
36.122
36.079
36.039
36.002
35.967
35.934
35.903
35.873
35.845
35.818
35.791
35.765
35.738
35.712
35.686
35.661
35.636
35.612
35.589
35.567
35.548
35.531
35.517
35.508
35.501
35.498
35.496
35.496
35.497
35.501
35.506
35.513
35.521
35.53
35.539
35.548
35.557
35.563
35.567
35.568
35.566
35.56
35.549
35.535
35.517
35.495
35.471
35.445
35.417
35.388
35.36
35.332
35.305
35.278
35.25
35.223
35.195
35.167
35.14
35.114
35.088
35.062
35.035
35.009
34.983
34.958
34.934
34.91
34.887
34.864
34.841
34.818
34.795
34.77
34.744
34.717
34.689
34.66
34.633
34.605
34.579
34.553
34.527
34.504
34.481
34.461
34.441
34.422
34.403
34.384
34.366
34.349
34.332
34.315
34.295
34.272
34.247
34.219
34.191
34.163
34.136
34.113
34.093
34.077
34.065
34.057
34.051
34.049
34.049
34.052
34.055
34.059
34.064
34.069
34.074
34.078
34.082
34.088
34.096
34.107
34.125
34.148
34.18
34.221
34.272
34.333
34.405
34.488
34.582
34.687
34.802
34.926
35.058
35.196
35.338
35.482
35.625
35.766
35.902
36.033
36.159
36.278
36.389
36.49
36.581
36.662
36.732
36.792
36.843
36.883
36.914
36.936
36.95
36.958
36.96
36.957
36.948
36.936
36.92
36.901
36.882
36.861
36.84
36.819
36.8
36.78
36.761
36.742
36.722
36.701
36.678
36.653
36.625
36.595
36.562
36.527
36.49
36.452
36.412
36.371
36.329
36.288
36.248
36.21
36.175
36.144
36.115
36.089
36.066
36.045
36.025
36.006
35.986
35.967
35.948
35.93
35.914
35.9
35.888
35.875
35.862
35.849
35.836
35.824
35.811
35.8
35.791
35.783
35.778
35.775
35.775
35.775
35.777
35.778
35.779
35.779
35.777
35.773
35.768
35.761
35.751
35.74
35.727
35.711
35.692
35.671
35.646
35.618
35.586
35.551
35.513
35.473
35.433
35.393
35.353
35.315
35.277
35.242
35.208
35.176
35.145
35.115
35.087
35.06
35.035
35.012
34.989
34.967
34.945
34.923
34.901
34.879
34.857
34.834
34.811
34.786
34.76
34.732
34.703
34.673
34.643
34.612
34.581
34.549
34.518
34.488
34.46
34.434
34.41
34.389
34.369
34.351
34.334
34.318
34.302
34.287
34.271
34.255
34.24
34.227
34.215
34.205
34.194
34.184
34.173
34.162
34.15
34.137
34.123
34.108
34.092
34.076
34.061
34.05
34.042
34.038
34.039
34.044
34.056
34.073
34.097
34.128
34.167
34.216
34.275
34.344
34.424
34.515
34.616
34.725
34.84
34.962
35.088
35.218
35.348
35.48
35.61
35.739
35.864
35.984
36.1
36.209
36.311
36.405
36.491
36.57
36.641
36.704
36.76
36.808
36.848
36.881
36.907
36.926
36.939
36.948
36.952
36.953
36.95
36.943
36.933
36.919
36.903
36.883
36.861
36.838
36.813
36.789
36.765
36.742
36.72
36.698
36.676
36.655
36.635
36.616
36.598
36.579
36.56
36.539
36.517
36.492
36.466
36.437
36.406
36.372
36.336
36.298
36.258
36.219
36.181
36.144
36.109
36.075
36.043
36.014
35.987
35.963
35.942
35.924
35.908
35.893
35.88
35.868
35.857
35.848
35.84
35.832
35.825
35.819
35.813
35.808
35.802
35.796
35.788
35.78
35.771
35.761
35.749
35.735
35.719
35.699
35.677
35.652
35.624
35.595
35.565
35.534
35.502
35.469
35.435
35.401
35.367
35.334
35.301
35.268
35.235
35.203
35.172
35.142
35.112
35.083
35.053
35.023
34.992
34.96
34.928
34.895
34.861
34.826
34.789
34.752
34.715
34.678
34.643
34.608
34.574
34.54
34.506
34.47
34.434
34.399
34.364
34.331
34.302
34.277
34.256
34.241
34.229
34.219
34.211
34.203
34.196
34.189
34.183
34.176
34.168
34.159
34.15
34.14
34.128
34.116
34.102
34.086
34.068
34.047
34.027
34.006
33.987
33.971
33.956
33.945
33.938
33.934
33.933
33.936
33.943
33.954
33.972
33.996
34.028
34.069
34.119
34.18
34.25
34.329
34.417
34.513
34.616
34.725
34.838
34.954
35.072
35.192
35.312
35.432
35.551
35.667
35.78
35.889
35.994
36.095
36.192
36.284
36.37
36.452
36.526
36.593
36.653
36.704
36.748
36.783
36.811
36.831
36.843
36.85
36.852
36.85
36.844
36.836
36.824
36.811
36.796
36.781
36.767
36.754
36.742
36.732
36.723
36.713
36.702
36.69
36.675
36.657
36.636
36.611
36.583
36.551
36.516
36.477
36.435
36.391
36.345
36.297
36.251
36.205
36.161
36.119
36.078
36.039
36.003
35.969
35.938
35.911
35.886
35.864
35.846
35.83
35.818
35.809
35.803
35.799
35.796
35.794
35.794
35.794
35.794
35.795
35.796
35.797
35.797
35.797
35.795
35.791
35.783
35.772
35.757
35.739
35.719
35.698
35.675
35.651
35.628
35.604
35.579
35.553
35.526
35.498
35.47
35.44
35.409
35.377
35.346
35.315
35.284
35.254
35.223
35.193
35.163
35.133
35.103
35.073
35.042
35.011
34.979
34.946
34.912
34.878
34.844
34.809
34.775
34.744
34.723
34.713
34.712
34.719
34.73
34.74
34.747
34.75
34.748
34.739
34.723
34.7
34.67
34.634
34.594
34.551
34.507
34.464
34.423
34.384
34.35
34.319
34.294
34.273
34.256
34.243
34.231
34.221
34.213
34.206
34.199
34.193
34.187
34.182
34.178
34.175
34.174
34.176
34.181
34.191
34.206
34.229
34.26
34.3
34.35
34.411
34.483
34.565
34.658
34.76
34.87
34.988
35.112
35.239
35.369
35.5
35.629
35.757
35.881
35.999
36.112
36.216
36.313
36.402
36.484
36.559
36.627
36.688
36.742
36.788
36.826
36.857
36.881
36.897
36.907
36.912
36.913
36.909
36.903
36.893
36.88
36.865
36.846
36.824
36.8
36.775
36.749
36.721
36.69
36.658
36.623
36.587
36.549
36.509
36.47
36.43
36.391
36.353
36.315
36.278
36.242
36.206
36.171
36.135
36.1
36.063
36.025
35.987
35.948
35.909
35.87
35.832
35.796
35.762
35.733
35.707
35.686
35.669
35.656
35.648
35.644
35.645
35.649
35.655
35.664
35.674
35.685
35.695
35.705
35.713
35.718
35.721
35.72
35.717
35.71
35.7
35.685
35.666
35.642
35.614
35.583
35.549
35.513
35.477
35.44
35.404
35.37
35.337
35.306
35.277
35.249
35.224
35.199
35.176
35.152
35.13
35.107
35.085
35.061
35.036
35.01
34.981
34.95
34.918
34.884
34.849
34.812
34.775
34.739
34.707
34.68
34.657
34.638
34.621
34.607
34.594
34.582
34.57
34.557
34.543
34.526
34.507
34.486
34.462
34.436
34.408
34.379
34.349
34.321
34.293
34.268
34.244
34.221
34.2
34.179
34.159
34.141
34.124
34.109
34.094
34.079
34.065
34.051
34.039
34.028
34.018
34.009
34.001
33.994
33.987
33.981
33.976
33.971
33.969
33.969
33.972
33.981
33.995
34.017
34.049
34.089
34.14
34.203
34.276
34.36
34.455
34.561
34.676
34.801
34.934
35.075
35.222
35.373
35.525
35.678
35.828
35.975
36.115
36.249
36.375
36.492
36.602
36.703
36.795
36.879
36.955
37.023
37.082
37.132
37.173
37.206
37.23
37.247
37.259
37.265
37.266
37.262
37.254
37.242
37.227
37.21
37.192
37.172
37.152
37.132
37.112
37.092
37.071
37.048
37.024
36.998
36.969
36.939
36.906
36.872
36.837
36.801
36.765
36.727
36.687
36.646
36.604
36.56
36.514
36.466
36.417
36.368
36.319
36.272
36.228
36.185
36.146
36.108
36.075
36.045
36.019
35.997
35.979
35.965
35.954
35.947
35.943
35.942
35.941
35.942
35.942
35.942
35.941
35.94
35.938
35.935
35.929
35.92
35.908
35.893
35.873
35.85
35.824
35.795
35.764
35.731
35.697
35.663
35.628
35.592
35.557
35.523
35.49
35.459
35.429
35.4
35.373
35.347
35.322
35.298
35.272
35.246
35.218
35.189
35.158
35.124
35.089
35.051
35.013
34.975
34.939
34.905
34.871
34.839
34.808
34.776
34.745
34.714
34.682
34.651
34.622
34.594
34.569
34.546
34.525
34.507
34.491
34.476
34.462
34.45
34.438
34.425
34.411
34.396
34.379
34.361
34.342
34.322
34.301
34.278
34.252
34.226
34.198
34.172
34.146
34.121
34.098
34.078
34.06
34.046
34.035
34.026
34.02
34.016
34.012
34.008
34.005
34.001
33.997
33.992
33.986
33.98
33.974
33.97
33.968
33.969
33.974
33.985
34.003
34.03
34.066
34.113
34.171
34.24
34.321
34.413
34.517
34.631
34.754
34.886
35.025
35.17
35.319
35.47
35.622
35.774
35.925
36.073
36.216
36.353
36.483
36.602
36.706
36.795
36.867
36.926
36.972
37.01
37.041
37.067
37.091
37.113
37.133
37.153
37.174
37.195
37.217
37.238
37.259
37.277
37.292
37.303
37.308
37.308
37.303
37.291
37.274
37.252
37.227
37.199
37.168
37.135
37.1
37.064
37.026
36.987
36.946
36.905
36.863
36.819
36.774
36.728
36.681
36.634
36.586
36.538
36.489
36.441
36.393
36.346
36.302
36.261
36.223
36.188
36.155
36.124
36.095
36.068
36.043
36.021
36.0
35.981
35.962
35.945
35.928
35.914
35.9
35.887
35.875
35.864
35.854
35.845
35.835
35.825
35.814
35.8
35.785
35.769
35.751
35.731
35.709
35.683
35.655
35.623
35.589
35.552
35.512
35.47
35.427
35.384
35.344
35.31
35.284
35.265
35.249
35.234
35.217
35.196
35.17
35.138
35.102
35.06
35.014
34.965
34.913
34.86
34.807
34.754
34.704
34.655
34.61
34.568
34.529
34.494
34.461
34.432
34.407
34.384
34.363
34.344
34.326
34.308
34.291
34.273
34.253
34.233
34.211
34.19
34.167
34.145
34.123
34.103
34.082
34.062
34.043
34.024
34.006
33.988
33.97
33.951
33.933
33.917
33.902
33.89
33.88
33.872
33.866
33.862
33.859
33.856
33.852
33.848
33.842
33.836
33.829
33.821
33.812
33.802
33.79
33.777
33.764
33.751
33.739
33.728
33.718
33.711
33.707
33.707
33.712
33.725
33.747
33.776
33.815
33.864
33.922
33.993
34.075
34.169
34.274
34.39
34.516
34.651
34.795
34.944
35.098
