Trial 3:3back
38.166
38.095
38.024
37.954
37.884
37.816
37.749
37.683
37.618
37.554
37.492
37.431
37.372
37.314
37.258
37.203
37.148
37.093
37.037
36.981
36.924
36.867
36.809
36.751
36.692
36.634
36.577
36.521
36.466
36.415
36.366
36.321
36.279
36.242
36.21
36.183
36.161
36.144
36.131
36.123
36.119
36.119
36.122
36.129
36.138
36.149
36.161
36.174
36.188
36.2
36.212
36.221
36.228
36.232
36.232
36.229
36.223
36.213
36.201
36.186
36.169
36.151
36.131
36.109
36.087
36.063
36.039
36.013
35.987
35.961
35.934
35.906
35.877
35.846
35.814
35.78
35.745
35.709
35.671
35.633
35.594
35.554
35.515
35.474
35.434
35.393
35.353
35.313
35.274
35.235
35.196
35.159
35.122
35.086
35.05
35.016
34.981
34.948
34.916
34.885
34.854
34.824
34.793
34.762
34.731
34.698
34.664
34.63
34.596
34.562
34.529
34.498
34.469
34.441
34.418
34.398
34.385
34.381
34.388
34.409
34.446
34.501
34.577
34.674
34.792
34.934
35.096
35.28
35.483
35.702
35.934
36.177
36.426
36.678
36.93
37.179
37.42
37.652
37.871
38.075
38.263
38.433
38.583
38.713
38.823
38.913
38.982
39.033
39.065
39.082
39.084
39.073
39.052
39.021
38.982
38.936
38.884
38.828
38.768
38.706
38.642
38.577
38.51
38.444
38.377
38.311
38.246
38.182
38.119
38.058
38.0
37.944
37.891
37.84
37.79
37.742
37.693
37.645
37.597
37.548
37.498
37.446
37.394
37.339
37.283
37.226
37.167
37.108
37.049
36.991
36.934
36.879
36.827
36.778
36.733
36.692
36.655
36.623
36.595
36.572
36.553
36.538
36.527
36.52
36.516
36.516
36.518
36.523
36.53
36.537
36.545
36.552
36.558
36.562
36.564
36.562
36.557
36.548
36.536
36.521
36.502
36.479
36.455
36.428
36.4
36.37
36.34
36.31
36.279
36.248
36.216
36.183
36.149
36.114
36.078
36.04
35.999
35.958
35.914
35.87
35.825
35.779
35.735
35.69
35.647
35.606
35.566
35.528
35.49
35.454
35.418
35.383
35.348
35.312
35.276
35.239
35.201
35.162
35.123
35.083
35.043
35.003
34.963
34.923
34.884
34.846
34.81
34.776
34.744
34.713
34.683
34.653
34.624
34.594
34.563
34.531
34.499
34.466
34.434
34.402
34.372
34.345
34.322
34.305
34.297
34.301
34.32
34.356
34.41
34.486
34.585
34.707
34.853
35.022
35.213
35.423
35.65
35.891
36.142
36.4
36.661
36.922
37.177
37.425
37.663
37.886
38.095
38.286
38.458
38.61
38.741
38.853
38.944
39.015
39.068
39.103
39.123
39.127
39.118
39.098
39.068
39.028
38.981
38.928
38.87
38.808
38.744
38.677
38.609
38.541
38.473
38.406
38.341
38.277
38.215
38.156
38.099
38.044
37.992
37.941
37.892
37.843
37.795
37.747
37.697
37.647
37.595
37.543
37.489
37.435
37.38
37.326
37.272
37.218
37.165
37.114
37.063
37.015
36.97
36.927
36.888
36.853
36.821
36.793
36.769
36.748
36.732
36.718
36.707
36.699
36.694
36.691
36.691
36.691
36.694
36.697
36.701
36.705
36.708
36.711
36.712
36.711
36.707
36.702
36.694
36.683
36.67
36.653
36.635
36.613
36.59
36.564
36.537
36.509
36.48
36.451
36.42
36.389
36.357
36.324
36.29
36.255
36.219
36.182
36.145
36.106
36.066
36.026
35.985
35.943
35.901
35.858
35.814
35.769
35.724
35.677
35.629
35.582
35.534
35.487
35.44
35.394
35.347
35.3
35.251
35.2
35.148
35.094
35.041
34.988
34.937
34.889
34.843
34.801
34.761
34.723
34.687
34.651
34.616
34.58
34.544
34.508
34.471
34.432
34.393
34.353
34.313
34.272
34.232
34.194
34.158
34.126
34.101
34.084
34.077
34.084
34.108
34.15
34.214
34.301
34.412
34.547
34.706
34.888
35.091
35.313
35.551
35.801
36.06
36.324
36.59
36.853
37.109
37.357
37.592
37.811
38.014
38.198
38.362
38.506
38.629
38.733
38.818
38.885
38.934
38.966
38.982
38.984
38.972
38.949
38.916
38.873
38.822
38.766
38.705
38.64
38.572
38.502
38.431
38.358
38.286
38.214
38.143
38.073
38.004
37.937
37.87
37.805
37.74
37.675
37.612
37.548
37.485
37.422
37.359
37.295
37.231
37.167
37.101
37.036
36.971
36.906
36.843
36.783
36.725
36.671
36.62
36.573
36.53
36.492
36.458
36.428
36.403
36.383
36.368
36.357
36.351
36.349
36.351
36.357
36.365
36.376
36.388
36.399
36.411
36.423
36.435
36.446
36.455
36.463
36.467
36.467
36.463
36.454
36.441
36.423
36.401
36.376
36.348
36.317
36.285
36.253
36.219
36.185
36.15
36.115
36.079
36.042
36.005
35.967
35.928
35.888
35.848
35.808
35.767
35.726
35.685
35.644
35.602
35.56
35.518
35.475
35.431
35.387
35.343
35.298
35.253
35.208
35.162
35.117
35.07
35.025
34.979
34.935
34.892
34.851
34.811
34.772
34.733
34.695
34.658
34.621
34.583
34.546
34.508
34.469
34.43
34.391
34.351
34.31
34.27
34.23
34.191
34.153
34.118
34.084
34.055
34.031
34.014
34.006
34.009
34.026
34.06
34.113
34.187
34.285
34.406
34.552
34.721
34.912
35.122
35.35
35.591
35.844
36.105
36.369
36.633
36.893
37.145
37.386
37.613
37.823
38.014
38.185
38.334
38.46
38.565
38.648
38.711
38.755
38.782
38.792
38.788
38.77
38.74
38.699
38.649
38.591
38.526
38.456
38.381
38.304
38.225
38.145
38.066
37.988
37.91
37.834
37.758
37.682
37.607
37.533
37.458
37.384
37.31
37.236
37.162
37.087
37.013
36.938
36.862
36.786
36.71
36.634
36.56
36.486
36.415
36.345
36.278
36.215
36.155
36.099
36.049
36.004
35.963
35.929
35.899
35.875
35.857
35.844
35.835
35.831
35.831
35.835
35.842
35.852
35.864
35.879
35.895
35.911
35.928
35.943
35.956
35.967
35.974
35.978
35.977
35.972
35.964
35.951
35.934
35.913
35.889
35.862
35.832
35.8
35.766
35.731
35.694
35.656
35.618
35.579
35.539
35.499
35.459
35.417
35.374
35.331
35.286
35.241
35.194
35.147
35.1
35.051
35.003
34.954
34.906
34.858
34.811
34.764
34.719
34.674
34.629
34.584
34.541
34.498
34.456
34.416
34.377
34.339
34.302
34.266
34.231
34.197
34.164
34.131
34.099
34.068
34.037
34.006
33.975
33.944
33.914
33.884
33.855
33.827
33.799
33.772
33.745
33.718
33.691
33.665
33.639
33.613
33.588
33.564
33.542
33.526
33.516
33.517
33.53
33.559
33.606
33.675
33.765
33.88
34.02
34.184
34.372
34.582
34.814
35.063
35.327
35.602
35.885
36.172
36.457
36.739
37.012
37.275
37.524
37.755
37.968
38.159
38.328
38.473
38.595
38.693
38.769
38.824
38.859
38.877
38.88
38.869
38.848
38.818
38.781
38.737
38.688
38.635
38.577
38.516
38.451
38.384
38.315
38.246
38.176
38.107
38.038
37.97
37.904
37.84
37.777
37.716
37.658
37.601
37.545
37.49
37.436
37.381
37.326
37.27
37.212
37.152
37.089
37.024
36.956
36.888
36.819
36.751
36.684
36.62
36.559
36.502
36.449
36.399
36.354
36.313
36.276
36.242
36.212
36.185
36.163
36.144
36.128
36.115
36.106
36.1
36.096
36.094
36.094
36.095
36.096
36.096
36.096
36.094
36.09
36.083
36.074
36.063
36.048
36.03
36.009
35.985
35.957
35.927
35.895
35.861
35.826
35.789
35.752
35.714
35.676
35.636
35.596
35.553
35.509
35.464
35.416
35.367
35.316
35.264
35.211
35.157
35.103
35.049
34.995
34.941
34.887
34.835
34.783
34.732
34.683
34.635
34.588
34.543
34.498
34.454
34.411
34.368
34.326
34.285
34.244
34.205
34.165
34.127
34.089
34.051
34.014
33.978
33.942
33.906
33.871
33.837
33.803
33.771
33.739
33.707
33.676
33.645
33.615
33.585
33.556
33.528
33.5
33.473
33.447
33.42
33.392
33.365
33.337
33.309
33.282
33.258
33.237
33.221
33.213
33.214
33.226
33.253
33.298
33.361
33.446
33.555
33.689
33.849
34.034
34.243
34.474
34.725
34.99
35.267
35.552
35.841
36.129
36.414
36.692
36.959
37.213
37.451
37.671
37.872
38.051
38.207
38.341
38.452
38.539
38.605
38.65
38.676
38.685
38.679
38.659
38.627
38.586
38.537
38.482
38.421
38.356
38.288
38.217
38.144
38.07
37.997
37.924
37.851
37.78
37.71
37.642
37.575
37.51
37.447
37.386
37.328
37.271
37.215
37.16
37.106
37.051
36.995
36.939
36.881
36.821
36.761
36.698
36.634
36.569
36.502
36.434
36.366
36.298
36.232
36.17
36.11
36.056
36.006
35.962
35.923
35.891
35.864
35.842
35.825
35.811
35.799
35.79
35.783
35.778
35.773
35.77
35.767
35.766
35.765
35.764
35.763
35.761
35.758
35.753
35.746
35.736
35.723
35.708
35.689
35.667
35.643
35.616
35.587
35.556
35.523
35.488
35.451
35.412
35.372
35.33
35.287
35.242
35.197
35.15
35.101
35.051
34.999
34.946
34.891
34.835
34.777
34.72
34.662
34.604
34.547
34.491
34.437
34.385
34.335
34.287
34.24
34.194
34.149
34.105
34.061
34.018
33.977
33.936
33.897
33.858
33.82
33.783
33.747
33.711
33.675
33.639
33.603
33.566
33.529
33.491
33.454
33.417
33.381
33.347
33.314
33.282
33.251
33.22
33.19
33.16
33.129
33.1
33.071
33.043
33.017
32.992
32.968
32.946
32.925
32.905
32.887
32.869
32.852
32.835
32.819
32.802
32.785
32.769
32.756
32.746
32.742
32.746
32.762
32.792
32.839
32.907
32.997
33.111
33.25
33.414
33.601
33.811
34.042
34.29
34.553
34.827
35.11
35.398
35.686
35.97
36.246
36.51
36.759
36.99
37.199
37.386
37.55
37.691
37.809
37.905
37.979
38.033
38.069
38.086
38.088
38.074
38.048
38.01
37.962
37.907
37.846
37.78
37.712
37.642
37.571
37.499
37.428
37.356
37.285
37.215
37.147
37.08
37.014
36.95
36.888
36.827
36.769
36.712
36.656
36.601
36.547
36.493
36.437
36.381
36.322
36.262
36.2
36.137
36.072
36.006
35.939
35.872
35.807
35.742
35.681
35.622
35.567
35.516
35.471
35.431
35.396
35.367
35.344
35.324
35.309
35.298
35.289
35.284
35.281
35.28
35.282
35.285
35.289
35.295
35.301
35.307
35.314
35.32
35.325
35.329
35.331
35.33
35.327
35.32
35.31
35.296
35.278
35.257
35.232
35.204
35.173
35.139
35.104
35.067
35.028
34.988
34.946
34.904
34.859
34.814
34.769
34.722
34.675
34.628
34.58
34.533
34.487
34.441
34.396
34.351
34.307
34.264
34.22
34.178
34.135
34.093
34.052
34.01
33.968
33.926
33.883
33.841
33.799
33.757
33.715
33.675
33.635
33.597
33.559
33.521
33.485
33.449
33.414
33.379
33.344
33.31
33.277
33.243
33.21
33.177
33.144
33.111
33.079
33.046
33.014
32.983
32.953
32.925
32.898
32.873
32.849
32.826
32.805
32.785
32.766
32.747
32.727
32.708
32.688
32.668
32.648
32.629
32.611
32.596
32.584
32.577
32.576
32.585
32.605
32.639
32.689
32.757
32.846
32.956
33.089
33.244
33.421
33.618
33.832
34.062
34.304
34.555
34.811
35.068
35.323
35.573
35.813
36.042
36.256
36.453
36.632
36.792
36.931
37.049
37.146
37.222
37.279
37.317
37.338
37.342
37.332
37.309
37.274
37.229
37.175
37.114
37.047
36.974
36.897
36.817
36.735
36.653
36.571
36.49
36.41
36.331
36.254
36.18
36.107
36.036
35.966
35.898
35.832
35.767
35.703
35.641
35.579
35.518
35.457
35.396
35.336
35.277
35.217
35.158
35.1
35.042
34.985
34.93
34.877
34.826
34.779
34.735
34.695
34.659
34.627
34.6
34.577
34.56
34.548
34.541
34.539
34.541
34.546
34.554
34.564
34.576
34.589
34.603
34.616
34.628
34.639
34.649
34.656
34.662
34.664
34.664
34.661
34.654
34.645
34.632
34.616
34.598
34.578
34.554
34.529
34.501
34.472
34.441
34.408
34.373
34.336
34.298
34.259
34.22
34.18
34.14
34.1
34.06
34.019
33.978
33.937
33.896
33.854
33.813
33.771
33.729
33.687
33.645
33.603
33.562
33.52
33.479
33.439
33.401
33.363
33.326
33.291
33.255
33.221
33.188
33.155
33.124
33.093
33.063
33.034
33.005
32.977
32.95
32.923
32.895
32.868
32.841
32.814
32.786
32.758
32.729
32.701
32.674
32.649
32.624
32.601
32.578
32.557
32.536
32.517
32.498
32.48
32.462
32.444
32.425
32.406
32.386
32.366
32.346
32.327
32.312
32.302
32.299
32.308
32.33
32.369
32.427
32.506
32.608
32.732
32.879
33.049
33.239
33.449
33.675
33.915
34.165
34.42
34.679
34.935
35.187
35.431
35.663
35.882
36.085
36.27
36.437
36.585
36.713
36.821
36.911
36.982
37.036
37.074
37.097
37.106
37.101
37.084
37.057
37.021
36.976
36.925
36.869
36.807
36.742
36.675
36.606
36.535
36.464
36.394
36.325
36.257
36.192
36.128
36.067
36.007
35.948
35.892
35.837
35.783
35.732
35.681
35.632
35.583
35.533
35.483
35.433
35.381
35.329
35.275
35.222
35.168
35.115
35.064
35.013
34.965
34.919
34.876
34.835
34.798
34.765
34.735
34.709
34.687
34.668
34.652
34.64
34.632
34.626
34.624
34.623
34.625
34.629
34.635
34.642
34.649
34.657
34.665
34.672
34.679
34.685
34.69
34.693
34.694
34.693
34.687
34.679
34.668
34.653
34.636
34.616
34.594
34.571
34.546
34.521
34.496
34.471
34.445
34.417
34.388
34.357
34.324
34.287
34.248
34.207
34.165
34.121
34.076
34.031
33.986
33.941
33.897
33.855
33.815
33.776
33.74
33.705
33.671
33.639
33.606
33.573
33.541
33.508
33.474
33.44
33.406
33.372
33.338
33.305
33.272
33.24
33.209
33.179
33.15
33.122
33.094
33.068
33.042
33.018
32.993
32.97
32.947
32.924
32.902
32.88
32.86
32.84
32.82
32.802
32.784
32.768
32.751
32.735
32.72
32.704
32.688
32.671
32.653
32.635
32.617
32.599
32.58
32.56
32.541
32.523
32.507
32.493
32.484
32.48
32.484
32.499
32.527
32.572
32.635
32.719
32.826
32.956
33.109
33.285
33.482
33.698
33.931
34.177
34.433
34.695
34.96
35.223
35.481
35.731
35.97
36.196
36.406
36.598
36.772
36.926
37.061
37.175
37.271
37.347
37.406
37.448
37.474
37.486
37.485
37.473
37.45
37.418
37.379
37.333
37.281
37.224
37.164
37.101
37.036
36.969
36.901
36.834
36.768
36.703
36.64
36.579
36.52
36.462
36.408
36.355
36.305
36.257
36.21
36.165
36.122
36.079
36.036
35.993
35.949
35.904
35.858
35.811
35.762
35.712
35.66
35.607
35.554
35.501
35.449
35.398
35.351
35.307
35.268
35.232
35.202
35.176
35.154
35.138
35.125
35.116
35.11
35.107
35.106
35.107
35.11
35.114
35.12
35.126
35.133
35.14
35.146
35.151
35.155
35.157
35.156
35.154
35.149
35.141
35.132
35.121
35.108
35.094
35.077
35.058
35.037
35.013
34.987
34.958
34.928
34.895
34.861
34.826
34.79
34.753
34.716
34.678
34.64
34.602
34.563
34.525
34.486
34.448
34.409
34.37
34.331
34.292
34.253
34.214
34.174
34.134
34.093
34.053
34.013
33.972
33.932
33.892
33.854
33.816
33.78
33.745
33.711
33.678
33.647
33.616
33.587
33.559
33.532
33.506
33.48
33.455
33.43
33.407
33.383
33.36
33.338
33.315
33.292
33.269
33.247
33.224
33.203
33.181
33.159
33.136
33.113
33.09
33.067
33.044
33.021
32.998
32.975
32.953
32.931
32.91
32.89
32.872
32.857
32.845
32.837
32.835
32.84
32.856
32.883
32.925
32.985
33.064
33.165
33.289
33.435
33.605
33.797
34.008
34.239
34.484
34.741
35.006
35.275
35.543
35.808
36.064
36.309
36.54
36.754
36.95
37.125
37.28
37.414
37.527
37.619
37.693
37.747
37.786
37.809
37.819
37.816
37.803
37.78
37.75
37.712
37.668
37.619
37.565
37.508
37.447
37.383
37.318
37.251
37.183
37.116
37.049
36.984
36.92
36.857
36.797
36.739
36.684
36.63
36.577
36.524
36.472
36.42
36.367
36.315
36.262
36.209
36.157
36.104
36.051
35.998
35.945
35.891
35.838
35.785
35.733
35.681
35.632
35.584
35.539
35.499
35.463
35.432
35.407
35.388
35.375
35.367
35.364
35.364
35.369
35.376
35.385
35.396
35.407
35.419
35.43
35.441
35.452
35.463
35.472
35.481
35.488
35.493
35.496
35.496
35.493
35.487
35.479
35.467
35.454
35.438
35.42
35.401
35.379
35.355
35.33
35.303
35.273
35.242
35.209
35.174
35.137
35.097
35.057
35.014
34.97
34.925
34.878
34.83
34.782
34.733
34.685
34.638
34.593
34.549
34.507
34.467
34.428
34.392
34.356
34.321
34.287
34.255
34.223
34.192
34.161
34.13
34.099
34.067
34.034
34.001
33.967
33.934
33.9
33.867
33.835
33.803
33.771
33.74
33.709
33.678
33.648
33.618
33.589
33.561
33.533
33.507
33.481
33.455
33.43
33.405
33.38
33.356
33.333
33.31
33.288
33.268
33.251
33.236
33.227
33.223
33.227
33.24
33.266
33.307
33.365
33.442
33.541
33.661
33.805
33.97
34.156
34.362
34.585
34.821
35.068
35.321
35.577
35.832
36.083
36.326
36.559
36.78
36.985
37.174
37.345
37.496
37.629
37.742
37.836
37.912
37.97
38.012
38.038
38.05
38.048
38.033
38.006
37.968
37.92
37.863
37.798
37.726
37.648
37.565
37.48
37.393
37.304
37.216
37.129
37.043
36.959
36.878
36.799
36.724
36.652
36.583
36.518
36.455
36.395
36.336
36.278
36.22
36.161
36.101
36.039
35.976
35.913
35.849
35.786
35.724
35.664
35.606
35.55
35.498
35.448
35.403
35.361
35.324
35.29
35.261
35.237
35.217
35.203
35.193
35.187
35.185
35.187
35.192
35.199
35.208
35.218
35.23
35.242
35.255
35.268
35.281
35.292
35.303
35.312
35.318
35.321
35.322
35.319
35.313
35.303
35.29
35.273
35.253
35.231
35.205
35.177
35.146
35.112
35.076
35.038
34.997
34.955
34.911
34.867
34.822
34.777
34.733
34.688
34.644
34.6
34.556
34.513
34.469
34.426
34.383
34.342
34.302
34.263
34.225
34.187
34.15
34.114
34.077
34.041
34.005
33.969
33.932
33.896
33.859
33.822
33.785
33.747
33.71
33.673
33.637
33.601
33.567
33.534
33.502
33.471
33.441
33.413
33.385
33.359
33.333
33.309
33.284
33.261
33.237
33.213
33.189
33.165
33.14
33.115
33.092
33.071
33.053
33.04
33.035
33.038
33.054
33.085
33.133
33.202
33.292
33.404
33.54
33.699
33.88
34.082
34.302
34.538
34.788
35.047
35.312
35.58
35.846
36.109
36.363
36.607
36.837
37.051
37.249
37.428
37.587
37.727
37.845
37.943
38.019
38.076
38.114
38.135
38.141
38.132
38.11
38.078
38.037
37.988
37.933
37.872
37.807
37.739
37.668
37.595
37.522
37.447
37.373
37.3
37.227
37.156
37.085
37.016
36.948
36.881
36.816
36.753
36.691
36.63
36.57
36.51
36.451
36.392
36.333
36.273
36.213
36.151
36.089
36.026
35.964
35.902
35.84
35.779
35.72
35.663
35.608
35.555
35.505
35.458
35.415
35.378
35.345
35.318
35.296
35.28
35.269
35.263
35.262
35.264
35.271
35.28
35.291
35.303
35.316
35.329
35.342
35.354
35.365
35.375
35.383
35.389
35.393
35.395
35.394
35.389
35.382
35.372
35.358
35.341
35.322
35.299
35.273
35.244
35.212
35.178
35.14
35.1
35.057
35.012
34.964
34.915
34.865
34.815
34.766
34.719
34.673
34.629
34.587
34.547
34.507
34.468
34.43
34.391
34.351
34.31
34.268
34.225
34.181
34.137
34.093
34.048
34.005
33.962
33.92
33.88
33.842
33.805
33.771
33.738
33.706
33.676
33.648
33.62
33.593
33.567
33.541
33.514
33.488
33.461
33.434
33.408
33.383
33.357
33.331
33.305
33.279
33.253
33.226
33.201
33.175
33.148
33.122
33.096
33.069
33.043
33.019
32.996
32.977
32.962
32.954
32.956
32.97
32.999
33.046
33.114
33.205
33.321
33.464
33.632
33.825
34.042
34.281
34.537
34.808
35.091
35.381
35.674
35.966
36.252
36.53
36.795
37.044
37.277
37.49
37.683
37.855
38.006
38.135
38.244
38.334
38.404
38.457
38.493
38.513
38.52
38.515
38.497
38.469
38.432
38.385
38.33
38.269
38.201
38.129
38.052
37.973
37.891
37.809
37.726
37.643
37.561
37.48
37.401
37.323
37.247
37.174
37.104
37.036
36.97
36.906
36.844
36.782
36.721
36.659
36.598
36.535
36.473
36.41
36.346
36.283
36.22
36.158
36.098
36.04
35.985
35.934
35.887
35.845
35.806
35.773
35.744
35.719
35.699
35.683
35.671
35.663
35.659
35.658
35.66
35.665
35.672
35.679
35.687
35.695
35.703
35.71
35.716
35.72
35.723
35.723
35.721
35.717
35.71
35.701
35.688
35.672
35.653
35.63
35.604
35.573
35.539
35.502
35.462
35.419
35.375
35.329
35.282
35.235
35.188
35.142
35.096
35.05
35.005
34.96
34.915
34.869
34.824
34.777
34.73
34.682
34.634
34.587
34.539
34.492
