Trial 3:3back
36.482
36.442
36.4
36.357
36.314
36.273
36.233
36.195
36.161
36.13
36.102
36.078
36.058
36.04
36.025
36.012
36.0
35.989
35.978
35.967
35.955
35.943
35.93
35.917
35.902
35.888
35.872
35.858
35.843
35.829
35.816
35.805
35.796
35.789
35.786
35.784
35.786
35.791
35.797
35.806
35.815
35.826
35.836
35.846
35.856
35.863
35.869
35.866
35.851
35.824
35.787
35.742
35.692
35.639
35.587
35.539
35.495
35.458
35.427
35.403
35.384
35.371
35.361
35.355
35.351
35.348
35.345
35.341
35.336
35.328
35.318
35.306
35.292
35.276
35.257
35.237
35.213
35.187
35.159
35.129
35.097
35.063
35.028
34.991
34.952
34.912
34.871
34.832
34.795
34.761
34.733
34.708
34.689
34.674
34.663
34.656
34.653
34.651
34.652
34.652
34.653
34.652
34.649
34.644
34.635
34.624
34.61
34.592
34.573
34.551
34.53
34.508
34.487
34.467
34.449
34.434
34.423
34.419
34.422
34.433
34.454
34.485
34.526
34.577
34.64
34.715
34.802
34.902
35.012
35.131
35.255
35.382
35.511
35.639
35.763
35.882
35.994
36.097
36.19
36.272
36.342
36.401
36.448
36.485
36.511
36.529
36.538
36.54
36.535
36.526
36.512
36.495
36.477
36.459
36.44
36.422
36.403
36.384
36.364
36.343
36.321
36.298
36.272
36.244
36.213
36.18
36.145
36.109
36.073
36.037
36.002
35.968
35.937
35.908
35.881
35.857
35.836
35.818
35.805
35.796
35.791
35.791
35.794
35.8
35.807
35.816
35.825
35.833
35.841
35.846
35.849
35.849
35.845
35.84
35.833
35.826
35.819
35.813
35.808
35.805
35.803
35.804
35.806
35.811
35.817
35.823
35.828
35.831
35.832
35.831
35.828
35.822
35.813
35.8
35.783
35.763
35.739
35.711
35.68
35.645
35.608
35.569
35.528
35.486
35.444
35.402
35.361
35.322
35.285
35.251
35.219
35.191
35.166
35.144
35.124
35.106
35.091
35.077
35.064
35.052
35.04
35.028
35.014
34.998
34.978
34.955
34.927
34.895
34.859
34.821
34.78
34.74
34.701
34.664
34.631
34.603
34.58
34.564
34.552
34.545
34.541
34.537
34.535
34.534
34.532
34.531
34.529
34.526
34.521
34.514
34.505
34.493
34.481
34.467
34.455
34.445
34.438
34.437
34.442
34.455
34.478
34.513
34.559
34.619
34.693
34.781
34.881
34.992
35.113
35.24
35.371
35.503
35.634
35.76
35.879
35.988
36.087
36.173
36.245
36.304
36.349
36.38
36.4
36.408
36.405
36.392
36.37
36.341
36.308
36.27
36.23
36.188
36.146
36.106
36.068
36.034
36.003
35.977
35.956
35.938
35.923
35.909
35.895
35.88
35.864
35.847
35.827
35.804
35.779
35.749
35.717
35.681
35.643
35.604
35.566
35.53
35.497
35.468
35.443
35.423
35.408
35.399
35.397
35.4
35.409
35.423
35.44
35.459
35.479
35.497
35.513
35.527
35.538
35.546
35.549
35.547
35.541
35.531
35.517
35.501
35.483
35.464
35.445
35.426
35.409
35.392
35.376
35.362
35.348
35.335
35.323
35.311
35.299
35.287
35.274
35.26
35.244
35.225
35.204
35.18
35.153
35.122
35.087
35.048
35.006
34.961
34.913
34.866
34.818
34.773
34.73
34.69
34.653
34.62
34.59
34.563
34.539
34.519
34.503
34.488
34.474
34.462
34.449
34.437
34.425
34.413
34.401
34.387
34.372
34.354
34.333
34.309
34.283
34.256
34.227
34.199
34.173
34.149
34.127
34.109
34.094
34.082
34.074
34.068
34.066
34.067
34.068
34.069
34.07
34.07
34.07
34.071
34.075
34.084
34.098
34.12
34.15
34.189
34.238
34.297
34.367
34.448
34.538
34.638
34.746
34.86
34.979
35.101
35.224
35.346
35.464
35.578
35.684
35.781
35.869
35.946
36.012
36.066
36.109
36.141
36.161
36.171
36.171
36.161
36.142
36.116
36.084
36.048
36.009
35.97
35.931
35.894
35.86
35.828
35.801
35.778
35.76
35.746
35.736
35.729
35.723
35.718
35.712
35.705
35.695
35.683
35.668
35.651
35.63
35.605
35.577
35.547
35.515
35.483
35.451
35.421
35.394
35.37
35.35
35.335
35.325
35.321
35.323
35.33
35.343
35.36
35.381
35.404
35.429
35.454
35.478
35.501
35.521
35.537
35.548
35.555
35.555
35.551
35.54
35.523
35.502
35.476
35.447
35.416
35.385
35.353
35.321
35.29
35.261
35.235
35.211
35.189
35.171
35.154
35.138
35.123
35.108
35.093
35.077
35.06
35.041
35.021
34.999
34.975
34.949
34.921
34.893
34.863
34.833
34.804
34.775
34.748
34.723
34.7
34.679
34.66
34.644
34.631
34.621
34.614
34.61
34.607
34.606
34.605
34.605
34.603
34.6
34.596
34.589
34.579
34.567
34.552
34.534
34.513
34.49
34.465
34.438
34.412
34.386
34.362
34.341
34.324
34.312
34.305
34.305
34.312
34.326
34.349
34.38
34.42
34.469
34.527
34.594
34.671
34.756
34.849
34.947
35.049
35.153
35.258
35.362
35.463
35.562
35.656
35.745
35.827
35.902
35.968
36.027
36.076
36.119
36.153
36.181
36.201
36.215
36.222
36.226
36.232
36.242
36.255
36.27
36.284
36.292
36.294
36.286
36.268
36.24
36.202
36.156
36.103
36.045
35.983
35.921
35.86
35.801
35.746
35.695
35.65
35.612
35.579
35.552
35.531
35.514
35.503
35.496
35.492
35.491
35.492
35.494
35.497
35.499
35.501
35.501
35.499
35.495
35.49
35.483
35.474
35.464
35.452
35.441
35.431
35.422
35.416
35.413
35.412
35.414
35.417
35.421
35.425
35.427
35.429
35.43
35.43
35.427
35.421
35.412
35.4
35.384
35.365
35.343
35.317
35.289
35.257
35.223
35.186
35.147
35.107
35.066
35.027
34.99
34.956
34.924
34.896
34.872
34.85
34.832
34.816
34.803
34.793
34.783
34.774
34.764
34.751
34.737
34.719
34.699
34.675
34.649
34.62
34.591
34.561
34.531
34.502
34.474
34.447
34.423
34.402
34.383
34.368
34.357
34.349
34.343
34.338
34.334
34.331
34.329
34.328
34.327
34.327
34.325
34.323
34.319
34.314
34.307
34.298
34.288
34.276
34.263
34.251
34.24
34.232
34.229
34.233
34.245
34.266
34.3
34.345
34.402
34.471
34.551
34.641
34.741
34.848
34.962
35.08
35.201
35.321
35.44
35.555
35.663
35.763
35.855
35.937
36.009
36.07
36.122
36.163
36.195
36.218
36.233
36.241
36.242
36.238
36.229
36.217
36.203
36.186
36.169
36.152
36.135
36.118
36.102
36.087
36.072
36.056
36.039
36.02
35.997
35.972
35.944
35.916
35.888
35.858
35.828
35.798
35.767
35.738
35.711
35.686
35.664
35.644
35.626
35.612
35.6
35.59
35.585
35.583
35.585
35.588
35.592
35.596
35.6
35.603
35.606
35.606
35.606
35.603
35.6
35.596
35.591
35.586
35.58
35.574
35.567
35.562
35.557
35.553
35.55
35.547
35.546
35.544
35.542
35.54
35.537
35.536
35.542
35.556
35.575
35.598
35.618
35.633
35.637
35.63
35.608
35.572
35.523
35.462
35.392
35.315
35.235
35.155
35.078
35.007
34.944
34.889
34.844
34.809
34.783
34.765
34.755
34.753
34.756
34.763
34.772
34.782
34.789
34.794
34.794
34.791
34.782
34.77
34.754
34.733
34.71
34.683
34.655
34.628
34.603
34.581
34.564
34.551
34.544
34.541
34.543
34.549
34.557
34.566
34.576
34.586
34.594
34.6
34.604
34.604
34.6
34.592
34.579
34.561
34.539
34.515
34.488
34.461
34.434
34.408
34.384
34.363
34.348
34.338
34.336
34.343
34.359
34.385
34.421
34.468
34.525
34.594
34.673
34.762
34.86
34.966
35.078
35.193
35.31
35.424
35.534
35.64
35.74
35.834
35.92
35.997
36.065
36.124
36.173
36.213
36.244
36.268
36.284
36.294
36.299
36.298
36.293
36.285
36.275
36.264
36.25
36.235
36.217
36.198
36.176
36.152
36.126
36.098
36.068
36.037
36.004
35.97
35.934
35.899
35.863
35.829
35.797
35.767
35.738
35.712
35.688
35.666
35.646
35.628
35.612
35.6
35.59
35.583
35.579
35.577
35.575
35.573
35.572
35.569
35.567
35.563
35.559
35.553
35.546
35.537
35.526
35.515
35.504
35.495
35.486
35.48
35.474
35.47
35.466
35.463
35.461
35.458
35.455
35.451
35.445
35.436
35.425
35.41
35.392
35.37
35.344
35.315
35.281
35.244
35.205
35.165
35.122
35.08
35.038
34.998
34.959
34.922
34.889
34.86
34.835
34.813
34.796
34.782
34.772
34.764
34.758
34.755
34.752
34.749
34.744
34.738
34.729
34.717
34.702
34.683
34.662
34.637
34.611
34.583
34.557
34.531
34.509
34.489
34.472
34.46
34.45
34.444
34.438
34.434
34.431
34.428
34.425
34.423
34.421
34.419
34.416
34.411
34.405
34.396
34.384
34.369
34.352
34.332
34.31
34.286
34.26
34.232
34.205
34.179
34.154
34.132
34.114
34.099
34.088
34.082
34.081
34.085
34.095
34.111
34.135
34.166
34.205
34.254
34.311
34.377
34.451
34.534
34.623
34.718
34.818
34.922
35.027
35.133
35.238
35.341
35.44
35.533
35.621
35.702
35.776
35.842
35.9
35.95
35.992
36.026
36.051
36.069
36.079
36.081
36.075
36.063
36.044
36.019
35.989
35.954
35.918
35.879
35.841
35.802
35.764
35.727
35.692
35.658
35.627
35.599
35.574
35.553
35.535
35.52
35.507
35.497
35.489
35.483
35.479
35.474
35.47
35.466
35.461
35.455
35.447
35.438
35.428
35.417
35.404
35.391
35.377
35.364
35.351
35.34
35.33
35.323
35.319
35.318
35.321
35.328
35.337
35.349
35.362
35.376
35.39
35.404
35.417
35.428
35.437
35.443
35.444
35.441
35.432
35.419
35.4
35.377
35.349
35.317
35.281
35.242
35.201
35.16
35.119
35.08
35.043
35.009
34.98
34.954
34.932
34.913
34.898
34.885
34.876
34.867
34.86
34.852
34.842
34.831
34.817
34.799
34.779
34.756
34.731
34.704
34.676
34.649
34.622
34.598
34.575
34.556
34.54
34.527
34.518
34.511
34.507
34.506
34.506
34.509
34.512
34.515
34.518
34.521
34.523
34.524
34.523
34.52
34.514
34.505
34.494
34.481
34.467
34.451
34.434
34.417
34.399
34.381
34.364
34.348
34.334
34.323
34.314
34.31
34.312
34.318
34.331
34.352
34.38
34.416
34.461
34.513
34.572
34.638
34.712
34.793
34.88
34.974
35.073
35.176
35.282
35.388
35.495
35.599
35.699
35.794
35.882
35.961
36.031
36.092
36.143
36.185
36.218
36.243
36.259
36.266
36.266
36.258
36.244
36.223
36.197
36.167
36.133
36.097
36.058
36.019
35.979
35.94
35.902
35.865
35.832
35.801
35.773
35.747
35.725
35.706
35.69
35.677
35.666
35.657
35.649
35.643
35.638
35.635
35.632
35.63
35.627
35.624
35.619
35.611
35.601
35.589
35.573
35.557
35.539
35.522
35.507
35.495
35.485
35.48
35.478
35.48
35.486
35.495
35.506
35.519
35.533
35.548
35.564
35.58
35.594
35.607
35.616
35.622
35.624
35.62
35.611
35.595
35.573
35.545
35.513
35.477
35.439
35.399
35.358
35.319
35.28
35.245
35.212
35.184
35.16
35.139
35.121
35.105
35.091
35.078
35.066
35.054
35.041
35.028
35.013
34.997
34.978
34.957
34.934
34.909
34.882
34.855
34.827
34.8
34.772
34.746
34.721
34.698
34.677
34.659
34.642
34.629
34.619
34.611
34.606
34.603
34.603
34.603
34.605
34.606
34.607
34.608
34.607
34.604
34.598
34.588
34.575
34.558
34.538
34.515
34.492
34.469
34.446
34.424
34.404
34.385
34.368
34.355
34.348
34.347
34.353
34.366
34.387
34.415
34.452
34.498
34.553
34.616
34.689
34.769
34.856
34.95
35.048
35.15
35.254
35.36
35.466
35.571
35.673
35.771
35.865
35.952
36.033
36.106
36.171
36.23
36.281
36.325
36.361
36.389
36.41
36.422
36.427
36.425
36.416
36.402
36.382
36.358
36.33
36.299
36.266
36.23
36.194
36.158
36.123
36.087
36.053
36.019
35.988
35.959
35.933
35.911
35.891
35.875
35.861
35.849
35.837
35.827
35.819
35.811
35.804
35.797
35.789
35.78
35.77
35.758
35.744
35.729
35.714
35.699
35.685
35.672
35.659
35.647
35.637
35.628
35.624
35.622
35.625
35.631
35.641
35.653
35.667
35.68
35.694
35.708
35.721
35.732
35.74
35.747
35.75
35.748
35.74
35.725
35.705
35.678
35.647
35.612
35.573
35.531
35.487
35.442
35.398
35.355
35.316
35.279
35.247
35.218
35.194
35.173
35.155
35.139
35.124
35.11
35.096
35.082
35.067
35.049
35.029
35.006
34.981
34.953
34.924
34.893
34.862
34.831
34.8
34.768
34.737
34.708
34.681
34.657
34.636
34.618
34.603
34.591
34.582
34.576
34.573
34.574
34.578
34.584
34.59
34.596
34.601
34.603
34.603
34.599
34.592
34.581
34.567
34.551
34.533
34.511
34.489
34.465
34.442
34.419
34.398
34.377
34.358
34.342
34.327
34.316
34.309
34.305
34.304
34.306
34.312
34.322
34.337
34.356
34.381
34.412
34.448
34.491
34.541
34.601
34.67
34.75
34.839
34.936
35.041
35.151
35.267
35.386
35.506
35.627
35.746
35.861
35.971
36.075
36.172
36.26
36.339
36.408
36.465
36.51
36.543
36.563
36.571
36.567
36.553
36.529
36.498
36.462
36.421
36.378
36.333
36.288
36.244
36.203
36.166
36.133
36.104
36.08
36.059
36.043
36.03
36.02
36.015
36.012
36.011
36.009
36.007
36.002
35.994
35.983
35.969
35.95
35.927
35.9
35.871
35.839
35.808
35.776
35.746
35.719
35.697
35.678
35.665
35.658
35.656
35.66
35.669
35.681
35.696
35.714
35.732
35.75
35.766
35.78
35.791
35.797
35.8
35.798
35.792
35.782
35.768
35.75
35.728
35.702
35.673
35.642
35.61
35.579
35.548
35.519
35.491
35.465
35.44
35.417
35.397
35.378
35.361
35.345
35.329
35.312
35.293
35.271
35.246
35.218
35.188
35.155
35.12
35.084
35.046
35.008
34.97
34.932
34.895
34.859
34.825
34.794
34.764
34.738
34.714
34.694
34.678
34.663
34.651
34.639
34.629
34.621
34.614
34.61
34.606
34.604
34.601
34.598
34.594
34.587
34.579
34.568
34.554
34.538
34.52
34.502
34.482
34.464
34.446
34.431
34.418
34.407
34.398
34.392
34.388
34.385
34.384
34.383
34.382
34.379
34.375
34.369
34.359
34.347
34.331
34.313
34.294
34.274
34.254
34.236
34.222
34.212
34.208
34.214
34.23
34.258
34.299
34.355
34.424
34.508
34.604
34.711
34.828
34.952
35.081
35.214
35.347
35.478
35.604
35.723
35.832
35.929
36.012
36.081
36.136
36.177
36.203
36.217
36.22
36.214
36.199
36.177
36.152
36.123
36.093
36.063
36.033
36.003
35.975
35.948
35.922
35.898
35.876
35.854
35.834
35.816
35.797
35.779
35.76
35.741
35.722
35.701
35.68
35.657
35.633
35.608
35.582
35.557
35.533
35.511
35.493
35.478
35.466
35.457
35.452
35.45
35.452
35.456
35.463
35.473
35.483
35.494
35.505
35.514
35.522
35.528
35.532
35.534
35.534
35.532
35.529
35.525
35.519
35.513
35.506
35.498
35.491
35.484
35.477
35.471
35.466
35.461
35.456
35.451
35.446
35.441
35.434
35.426
35.416
35.404
35.387
35.366
35.341
35.311
35.277
35.238
35.196
35.152
35.106
35.06
35.014
34.97
34.929
34.892
34.86
34.832
34.81
34.792
34.777
34.765
34.756
34.749
34.744
34.741
34.738
34.733
34.727
34.717
34.705
34.69
34.673
34.654
34.634
34.612
34.591
34.57
34.549
34.529
34.51
34.492
34.476
34.462
34.45
34.441
34.434
34.431
34.429
34.429
34.43
34.432
34.434
34.435
34.434
34.431
34.425
34.416
34.405
34.391
34.375
34.357
34.338
34.318
34.299
34.281
34.265
34.251
34.239
34.23
34.222
34.218
34.216
34.219
34.225
34.236
34.252
34.273
34.299
34.332
34.372
34.419
34.475
34.538
34.61
34.689
34.777
34.873
34.976
35.084
35.196
35.309
35.423
35.534
35.641
35.742
35.834
35.919
35.996
36.063
36.122
36.172
36.212
36.243
36.264
36.276
36.279
36.273
36.26
36.24
36.214
36.182
36.145
36.104
36.062
36.018
35.975
35.934
35.895
35.86
35.827
35.799
35.776
35.756
35.74
35.726
35.715
35.706
35.698
35.69
35.683
35.675
35.665
35.652
35.637
35.62
35.601
35.58
35.558
35.534
35.51
35.486
35.463
35.441
35.423
35.409
35.4
35.397
35.399
35.405
35.416
35.431
35.45
35.472
35.495
35.519
35.542
35.563
35.58
35.593
35.602
35.605
35.605
35.6
35.591
35.578
35.56
35.539
35.514
35.486
35.456
35.425
35.394
35.364
35.335
35.306
35.278
35.251
35.226
35.203
35.181
35.162
35.144
35.129
35.113
35.098
35.081
35.064
35.045
35.024
35.0
34.974
34.945
34.914
34.881
34.846
34.811
34.775
34.74
34.708
34.678
34.652
34.629
34.609
34.593
34.581
34.572
34.567
34.566
34.567
34.57
34.573
34.576
34.577
34.577
34.574
34.568
34.558
34.546
34.531
34.514
34.496
34.478
34.459
34.44
34.421
34.405
34.391
34.379
34.37
34.363
34.359
34.355
34.352
34.35
34.349
34.348
34.346
34.343
34.338
34.331
34.321
34.308
34.292
34.275
34.258
34.242
34.227
34.216
34.21
34.21
34.216
34.231
34.255
34.289
34.334
34.392
34.464
34.547
34.643
34.75
34.867
34.991
35.121
35.253
35.385
35.515
35.639
35.756
35.863
35.959
36.041
36.11
36.165
36.207
36.237
36.256
36.265
36.266
36.258
36.244
36.225
36.201
36.175
36.147
36.118
36.089
36.06
36.031
36.002
35.974
35.948
35.923
35.9
35.878
35.858
35.837
35.816
35.795
35.772
35.749
35.725
35.7
35.672
35.644
35.615
35.587
35.56
35.536
35.516
35.499
35.487
35.479
35.475
35.474
35.476
35.482
35.49
35.5
35.511
35.523
35.533
35.542
35.548
35.551
35.551
35.549
35.545
35.54
35.533
35.527
35.52
35.513
35.507
35.502
35.498
35.495
35.494
35.493
35.492
35.489
35.484
35.476
35.464
35.45
35.433
35.413
35.391
35.367
35.34
35.313
35.284
35.255
35.225
35.196
35.167
35.138
35.109
35.08
35.05
35.02
34.99
34.958
34.928
34.898
34.87
34.843
34.818
34.795
34.775
34.756
34.739
34.724
34.71
34.698
34.686
34.675
34.664
34.652
34.638
34.624
34.608
34.592
34.576
34.558
34.54
34.522
34.503
34.484
34.465
34.448
34.433
34.421
34.412
34.406
34.401
34.399
34.399
34.399
34.401
34.402
34.404
34.404
34.403
34.4
34.393
34.383
34.371
34.358
34.344
34.33
34.316
34.302
34.289
34.276
34.263
34.251
34.242
34.235
34.231
34.231
34.235
34.245
34.261
34.282
34.311
34.347
34.391
34.445
34.508
34.58
34.662
34.753
34.852
34.958
35.069
35.183
35.299
35.416
35.532
35.645
35.754
35.856
35.951
36.037
36.116
36.187
36.25
36.305
36.35
36.387
36.412
36.428
36.434
36.431
36.421
36.403
36.378
36.346
36.309
36.268
36.225
36.181
36.137
36.095
36.054
36.017
35.983
35.953
35.925
35.9
35.878
35.858
35.841
35.824
35.81
35.797
35.785
35.775
35.764
35.753
35.741
35.73
35.719
35.707
35.694
35.68
35.666
35.652
35.638
35.625
35.614
35.606
35.601
35.6
35.601
35.604
35.61
35.62
35.631
35.645
35.66
35.676
35.691
35.705
35.718
35.728
35.736
35.742
35.744
35.743
35.739
35.73
35.717
35.699
35.678
35.652
35.622
35.591
35.558
35.525
35.492
35.459
35.427
35.397
35.368
35.342
35.319
35.3
35.282
35.266
35.25
35.234
35.218
35.2
35.182
35.163
35.142
35.119
35.094
35.067
35.037
35.005
34.973
34.94
34.909
34.879
34.851
34.826
34.804
34.785
34.77
34.759
34.749
34.742
34.737
34.732
34.729
34.725
34.722
34.717
34.712
34.706
34.698
34.689
34.678
34.666
34.651
34.637
34.621
34.605
34.588
34.57
34.552
34.536
34.522
34.511
34.503
34.498
34.497
34.5
34.505
34.512
34.52
34.528
34.535
34.539
34.539
34.534
34.526
34.514
34.5
34.483
34.465
34.449
34.434
34.425
34.422
34.429
34.449
34.481
34.528
34.589
34.664
34.751
34.849
34.957
35.074
35.199
35.328
35.46
35.593
35.723
35.848
35.966
36.076
36.175
36.263
36.339
36.4
36.447
36.48
36.499
36.505
36.5
36.485
36.462
36.433
36.401
36.367
36.334
36.302
36.271
36.243
36.218
36.196
36.176
36.159
36.143
36.128
36.113
36.099
36.084
36.069
36.051
36.032
36.011
35.987
35.961
35.931
35.899
35.864
35.828
35.792
35.756
35.722
35.691
35.663
35.641
35.623
35.612
35.608
35.61
35.618
35.631
35.646
35.664
35.682
35.699
35.715
35.729
35.74
35.749
35.755
35.759
35.76
35.758
35.753
35.746
35.737
35.727
35.716
35.704
35.691
35.677
35.661
35.645
35.629
35.614
35.599
35.584
35.57
35.555
35.54
35.524
35.506
35.487
35.466
35.443
35.416
35.386
35.353
35.316
35.277
35.238
35.197
35.157
35.117
35.08
35.045
35.012
34.983
34.956
34.933
34.913
34.896
34.881
34.868
34.855
34.842
34.83
34.818
