Trial 3:3back
37.457
37.397
37.343
37.295
37.253
37.217
37.187
37.162
37.144
37.131
37.124
37.121
37.123
37.126
37.131
37.137
37.141
37.144
37.143
37.139
37.131
37.12
37.105
37.086
37.064
37.04
37.013
36.984
36.953
36.92
36.885
36.849
36.811
36.769
36.723
36.673
36.617
36.557
36.494
36.429
36.363
36.298
36.233
36.169
36.106
36.043
35.98
35.916
35.853
35.791
35.732
35.675
35.619
35.565
35.511
35.459
35.408
35.358
35.31
35.261
35.213
35.164
35.114
35.061
35.006
34.95
34.894
34.838
34.784
34.73
34.677
34.625
34.575
34.527
34.482
34.438
34.397
34.359
34.324
34.291
34.26
34.231
34.205
34.182
34.162
34.144
34.129
34.116
34.103
34.091
34.078
34.065
34.048
34.029
34.006
33.98
33.952
33.922
33.892
33.862
33.835
33.81
33.788
33.769
33.753
33.741
33.73
33.722
33.715
33.707
33.699
33.689
33.676
33.66
33.639
33.613
33.585
33.556
33.526
33.498
33.471
33.445
33.42
33.396
33.372
33.349
33.325
33.3
33.274
33.247
33.22
33.195
33.17
33.148
33.128
33.11
33.096
33.085
33.074
33.065
33.056
33.046
33.035
33.023
33.009
32.993
32.976
32.958
32.939
32.919
32.898
32.877
32.857
32.837
32.817
32.795
32.771
32.744
32.714
32.68
32.642
32.601
32.556
32.51
32.465
32.42
32.379
32.342
32.311
32.288
32.274
32.27
32.277
32.298
32.335
32.391
32.467
32.567
32.693
32.848
33.032
33.248
33.493
33.765
34.064
34.384
34.723
35.078
35.442
35.81
36.176
36.536
36.885
37.219
37.534
37.826
38.093
38.333
38.546
38.73
38.886
39.014
39.116
39.193
39.248
39.285
39.306
39.315
39.313
39.305
39.293
39.276
39.256
39.232
39.206
39.176
39.143
39.108
39.072
39.036
39.001
38.967
38.934
38.903
38.873
38.844
38.816
38.789
38.764
38.741
38.719
38.7
38.682
38.665
38.649
38.63
38.609
38.584
38.554
38.518
38.475
38.425
38.367
38.304
38.235
38.163
38.087
38.008
37.927
37.846
37.764
37.684
37.606
37.53
37.457
37.389
37.326
37.27
37.22
37.175
37.134
37.097
37.065
37.036
37.011
36.99
36.971
36.956
36.943
36.932
36.923
36.916
36.909
36.903
36.898
36.892
36.885
36.877
36.866
36.853
36.836
36.815
36.789
36.758
36.722
36.682
36.637
36.588
36.534
36.477
36.417
36.354
36.291
36.227
36.164
36.1
36.038
35.978
35.919
35.862
35.808
35.756
35.706
35.657
35.607
35.557
35.505
35.451
35.396
35.34
35.283
35.225
35.167
35.109
35.053
35.0
34.949
34.902
34.858
34.817
34.779
34.742
34.707
34.671
34.635
34.597
34.558
34.518
34.477
34.436
34.394
34.352
34.316
34.288
34.269
34.257
34.251
34.247
34.244
34.239
34.23
34.215
34.195
34.168
34.134
34.094
34.048
33.998
33.946
33.893
33.84
33.791
33.744
33.702
33.664
33.632
33.604
33.579
33.558
33.539
33.522
33.505
33.489
33.473
33.455
33.437
33.419
33.399
33.379
33.358
33.334
33.309
33.283
33.255
33.225
33.195
33.163
33.131
33.1
33.07
33.041
33.014
32.99
32.969
32.951
32.937
32.925
32.916
32.909
32.903
32.899
32.895
32.889
32.882
32.873
32.861
32.846
32.826
32.802
32.772
32.738
32.701
32.663
32.626
32.591
32.56
32.535
32.515
32.5
32.489
32.48
32.473
32.466
32.458
32.447
32.433
32.416
32.395
32.372
32.347
32.32
32.293
32.267
32.243
32.223
32.205
32.192
32.182
32.176
32.175
32.179
32.188
32.203
32.227
32.263
32.313
32.382
32.471
32.584
32.724
32.895
33.096
33.329
33.592
33.884
34.201
34.54
34.896
35.264
35.637
36.009
36.374
36.727
37.062
37.376
37.665
37.926
38.159
38.361
38.534
38.678
38.795
38.886
38.954
39.002
39.033
39.048
39.052
39.046
39.033
39.014
38.99
38.962
38.93
38.896
38.861
38.825
38.79
38.755
38.722
38.69
38.662
38.636
38.614
38.595
38.579
38.568
38.559
38.554
38.55
38.547
38.543
38.536
38.527
38.512
38.493
38.467
38.435
38.397
38.351
38.299
38.24
38.176
38.107
38.036
37.963
37.89
37.817
37.746
37.677
37.612
37.551
37.495
37.443
37.395
37.353
37.315
37.284
37.258
37.238
37.221
37.208
37.2
37.194
37.192
37.191
37.192
37.194
37.195
37.196
37.196
37.194
37.189
37.182
37.172
37.159
37.142
37.121
37.096
37.068
37.036
37.001
36.963
36.922
36.879
36.835
36.79
36.744
36.697
36.649
36.6
36.55
36.498
36.444
36.387
36.329
36.268
36.206
36.141
36.076
36.01
35.945
35.88
35.818
35.756
35.697
35.639
35.584
35.53
35.477
35.424
35.371
35.318
35.264
35.209
35.154
35.099
35.044
34.991
34.939
34.889
34.842
34.797
34.754
34.713
34.672
34.632
34.592
34.552
34.512
34.473
34.436
34.402
34.369
34.337
34.305
34.273
34.241
34.208
34.174
34.136
34.096
34.052
34.006
33.957
33.905
33.853
33.8
33.748
33.697
33.649
33.604
33.562
33.524
33.491
33.461
33.434
33.409
33.386
33.364
33.342
33.32
33.298
33.274
33.251
33.228
33.206
33.186
33.165
33.145
33.123
33.1
33.077
33.053
33.03
33.006
32.984
32.963
32.942
32.924
32.907
32.892
32.879
32.868
32.859
32.85
32.841
32.831
32.821
32.809
32.795
32.779
32.763
32.748
32.733
32.721
32.71
32.7
32.691
32.681
32.671
32.661
32.65
32.639
32.628
32.617
32.607
32.597
32.587
32.576
32.564
32.551
32.538
32.523
32.508
32.494
32.481
32.47
32.461
32.454
32.448
32.445
32.444
32.444
32.444
32.445
32.446
32.447
32.447
32.446
32.445
32.444
32.443
32.441
32.439
32.436
32.433
32.432
32.433
32.439
32.451
32.472
32.503
32.548
32.61
32.693
32.799
32.932
33.092
33.282
33.501
33.748
34.022
34.319
34.635
34.965
35.305
35.65
35.995
36.336
36.667
36.984
37.284
37.562
37.816
38.044
38.243
38.414
38.557
38.673
38.763
38.831
38.878
38.909
38.925
38.93
38.925
38.912
38.893
38.869
38.842
38.812
38.782
38.753
38.724
38.697
38.673
38.652
38.634
38.617
38.602
38.587
38.572
38.555
38.536
38.515
38.492
38.467
38.441
38.415
38.387
38.358
38.327
38.295
38.259
38.22
38.177
38.13
38.078
38.023
37.963
37.901
37.837
37.772
37.705
37.64
37.576
37.514
37.455
37.401
37.351
37.306
37.267
37.234
37.206
37.185
37.169
37.16
37.156
37.155
37.157
37.16
37.164
37.167
37.168
37.168
37.166
37.161
37.155
37.147
37.137
37.125
37.11
37.093
37.073
37.049
37.02
36.987
36.949
36.906
36.859
36.809
36.756
36.702
36.646
36.589
36.533
36.476
36.419
36.363
36.306
36.25
36.196
36.143
36.091
36.038
35.985
35.931
35.876
35.82
35.764
35.709
35.654
35.601
35.547
35.495
35.441
35.388
35.334
35.279
35.225
35.17
35.115
35.059
35.004
34.95
34.897
34.844
34.793
34.743
34.696
34.65
34.607
34.564
34.524
34.486
34.45
34.416
34.383
34.353
34.324
34.297
34.271
34.247
34.225
34.202
34.18
34.158
34.137
34.114
34.091
34.068
34.043
34.017
33.991
33.966
33.94
33.913
33.887
33.86
33.834
33.808
33.781
33.755
33.729
33.702
33.674
33.644
33.613
33.58
33.546
33.512
33.476
33.441
33.406
33.372
33.339
33.307
33.276
33.246
33.217
33.19
33.165
33.141
33.118
33.095
33.072
33.05
33.027
33.004
32.98
32.955
32.93
32.905
32.881
32.858
32.838
32.822
32.808
32.798
32.79
32.782
32.776
32.769
32.761
32.753
32.744
32.735
32.727
32.721
32.716
32.712
32.707
32.702
32.696
32.689
32.68
32.67
32.659
32.645
32.629
32.611
32.589
32.565
32.538
32.508
32.476
32.442
32.407
32.373
32.34
32.31
32.284
32.263
32.247
32.238
32.236
32.24
32.252
32.273
32.305
32.35
32.41
32.488
32.588
32.711
32.861
33.038
33.245
33.483
33.75
34.044
34.362
34.699
35.052
35.414
35.779
36.143
36.498
36.84
37.165
37.47
37.751
38.006
38.235
38.437
38.612
38.762
38.887
38.989
39.068
39.128
39.169
39.193
39.203
39.202
39.19
39.172
39.148
39.12
39.089
39.057
39.025
38.993
38.963
38.942
38.929
38.925
38.928
38.935
38.945
38.955
38.963
38.967
38.967
38.962
38.95
38.933
38.909
38.881
38.846
38.807
38.763
38.716
38.665
38.612
38.555
38.497
38.436
38.373
38.307
38.239
38.17
38.1
38.029
37.958
37.889
37.821
37.756
37.694
37.635
37.58
37.529
37.483
37.441
37.403
37.37
37.341
37.315
37.294
37.276
37.26
37.248
37.238
37.229
37.222
37.214
37.206
37.198
37.187
37.174
37.157
37.137
37.113
37.086
37.055
37.019
36.98
36.939
36.896
36.853
36.81
36.766
36.722
36.677
36.631
36.584
36.537
36.487
36.435
36.38
36.324
36.264
36.203
36.14
36.077
36.013
35.95
35.888
35.827
35.769
35.713
35.658
35.606
35.553
35.501
35.447
35.393
35.336
35.279
35.221
35.164
35.107
35.053
35.0
34.95
34.903
34.857
34.813
34.77
34.728
34.687
34.646
34.605
34.564
34.523
34.484
34.447
34.413
34.38
34.351
34.324
34.301
34.28
34.261
34.242
34.224
34.206
34.186
34.165
34.142
34.117
34.092
34.066
34.041
34.018
33.995
33.974
33.954
33.935
33.919
33.903
33.888
33.873
33.858
33.842
33.825
33.806
33.785
33.764
33.742
33.719
33.697
33.675
33.654
33.634
33.617
33.601
33.588
33.577
33.566
33.557
33.547
33.536
33.524
33.509
33.491
33.471
33.449
33.424
33.398
33.372
33.345
33.319
33.293
33.268
33.243
33.219
33.194
33.171
33.148
33.125
33.102
33.079
33.056
33.034
33.012
32.99
32.97
32.95
32.929
32.904
32.876
32.846
32.814
32.783
32.754
32.727
32.704
32.685
32.67
32.659
32.653
32.649
32.647
32.646
32.644
32.641
32.636
32.628
32.617
32.602
32.583
32.561
32.537
32.511
32.485
32.46
32.437
32.415
32.396
32.377
32.359
32.342
32.327
32.313
32.302
32.296
32.295
32.304
32.326
32.362
32.418
32.497
32.602
32.735
32.899
33.093
33.319
33.574
33.858
34.168
34.5
34.851
35.214
35.586
35.96
36.332
36.696
37.046
37.379
37.687
37.967
38.214
38.429
38.611
38.763
38.886
38.985
39.062
39.12
39.161
39.188
39.202
39.205
39.199
39.185
39.165
39.139
39.11
39.078
39.046
39.013
38.981
38.951
38.922
38.894
38.868
38.843
38.819
38.798
38.778
38.761
38.747
38.736
38.726
38.717
38.708
38.696
38.681
38.661
38.637
38.606
38.571
38.531
38.487
38.437
38.384
38.327
38.266
38.201
38.134
38.065
37.995
37.925
37.858
37.795
37.736
37.681
37.632
37.587
37.547
37.513
37.482
37.455
37.431
37.409
37.39
37.373
37.358
37.345
37.334
37.325
37.316
37.308
37.299
37.289
37.277
37.264
37.249
37.232
37.214
37.194
37.173
37.151
37.13
37.107
37.081
37.053
37.021
36.985
36.945
36.9
36.85
36.797
36.742
36.685
36.627
36.569
36.511
36.454
36.396
36.339
36.282
36.225
36.166
36.106
36.044
35.981
35.918
35.853
35.789
35.726
35.665
35.606
35.549
35.494
35.44
35.388
35.335
35.283
35.231
35.178
35.124
35.07
35.016
34.963
34.91
34.855
34.796
34.735
34.674
34.615
34.559
34.508
34.462
34.422
34.389
34.362
34.34
34.321
34.305
34.29
34.275
34.258
34.239
34.215
34.188
34.157
34.122
34.085
34.047
34.008
33.971
33.934
33.898
33.865
33.833
33.804
33.777
33.753
33.732
33.711
33.691
33.671
33.651
33.629
33.606
33.582
33.557
33.531
33.504
33.477
33.449
33.421
33.391
33.361
33.33
33.299
33.266
33.234
33.202
33.172
33.143
33.116
33.091
33.067
33.045
33.025
33.006
32.988
32.97
32.953
32.936
32.92
32.904
32.887
32.869
32.851
32.833
32.815
32.797
32.779
32.762
32.744
32.728
32.712
32.696
32.68
32.664
32.647
32.629
32.609
32.588
32.566
32.543
32.52
32.498
32.477
32.457
32.439
32.423
32.409
32.398
32.387
32.379
32.371
32.365
32.359
32.353
32.348
32.342
32.336
32.33
32.324
32.317
32.312
32.31
32.313
32.322
32.338
32.364
32.402
32.455
32.526
32.618
32.734
32.874
33.042
33.237
33.459
33.71
33.987
34.287
34.607
34.943
35.291
35.642
35.992
36.335
36.666
36.982
37.28
37.557
37.811
38.04
38.244
38.423
38.579
38.711
38.82
38.907
38.974
39.022
39.054
39.07
39.074
39.067
39.051
39.029
39.001
38.971
38.937
38.903
38.868
38.833
38.799
38.767
38.735
38.704
38.673
38.644
38.615
38.586
38.556
38.526
38.494
38.459
38.423
38.384
38.341
38.296
38.247
38.195
38.14
38.084
38.024
37.963
37.9
37.835
37.77
37.704
37.637
37.57
37.503
37.438
37.374
37.313
37.255
37.203
37.155
37.114
37.077
37.046
37.019
36.997
36.979
36.967
36.959
36.955
36.955
36.958
36.963
36.97
36.978
36.984
36.988
36.989
36.985
36.977
36.963
36.944
36.919
36.889
36.854
36.815
36.773
36.729
36.684
36.638
36.591
36.545
36.499
36.453
36.407
36.361
36.313
36.264
36.214
36.16
36.105
36.047
35.986
35.923
35.857
35.79
35.722
35.655
35.588
35.523
35.459
35.395
35.333
35.273
35.215
35.159
35.105
35.052
35.001
34.952
34.904
34.857
34.81
34.764
34.717
34.671
34.626
34.583
34.541
34.501
34.464
34.429
34.397
34.368
34.338
34.31
34.281
34.252
34.222
34.19
34.157
34.123
34.089
34.057
34.025
33.995
33.966
33.94
33.915
33.891
33.868
33.845
33.823
33.801
33.779
33.757
33.735
33.713
33.692
33.672
33.654
33.637
33.622
33.607
33.592
33.577
33.562
33.546
33.527
33.507
33.484
33.458
33.431
33.4
33.368
33.336
33.304
33.273
33.244
33.217
33.192
33.168
33.148
33.128
33.11
33.093
33.074
33.055
33.035
33.011
32.985
32.955
32.921
32.885
32.847
32.81
32.774
32.741
32.711
32.686
32.667
32.654
32.646
32.641
32.64
32.639
32.64
32.639
32.636
32.631
32.622
32.611
32.596
32.578
32.557
32.536
32.513
32.49
32.465
32.44
32.414
32.389
32.365
32.344
32.324
32.307
32.294
32.286
32.286
32.294
32.313
32.347
32.4
32.475
32.577
32.709
32.871
33.066
33.293
33.552
33.841
34.156
34.493
34.847
35.213
35.585
35.958
36.326
36.684
37.028
37.355
37.662
37.946
38.206
38.439
38.646
38.827
38.982
39.113
39.221
39.305
39.369
39.414
39.441
39.454
39.452
39.439
39.416
39.385
39.349
39.308
39.265
39.221
39.178
39.137
39.1
39.069
39.042
39.022
39.007
38.998
38.993
38.993
38.995
39.0
39.004
39.008
39.01
39.009
39.002
38.989
38.97
38.944
38.91
38.871
38.824
38.772
38.715
38.653
38.588
38.521
38.451
38.382
38.313
38.245
38.18
38.117
38.056
37.998
37.942
37.89
37.844
37.807
37.777
37.753
37.734
37.717
37.699
37.679
37.657
37.633
37.607
37.579
37.551
37.522
37.492
37.462
37.433
37.405
37.378
37.351
37.324
37.297
37.269
37.24
37.21
37.179
37.147
37.113
37.078
37.04
36.998
36.952
36.902
36.847
36.787
36.724
36.657
36.588
36.517
36.446
36.375
36.306
36.237
36.169
36.104
36.04
35.978
35.918
35.859
35.802
35.747
35.695
35.647
35.602
35.558
35.515
35.473
35.43
35.385
35.338
35.288
35.235
35.18
35.123
35.065
35.008
34.953
34.9
34.851
34.806
34.764
34.725
34.688
34.653
34.62
34.588
34.557
34.526
34.495
34.464
34.433
34.403
34.373
34.346
34.321
34.299
34.28
34.262
34.245
34.226
34.207
34.185
34.16
34.131
34.098
34.061
34.023
33.984
33.945
33.909
33.875
33.844
33.817
33.793
33.772
33.754
33.736
33.72
33.702
33.682
33.658
33.632
33.602
33.572
33.541
33.51
33.48
33.45
33.421
33.394
33.37
33.347
33.324
33.302
33.279
33.256
33.231
33.204
33.176
33.147
33.116
33.086
33.058
33.03
33.003
32.977
32.951
32.925
32.898
32.87
32.842
32.814
32.786
32.758
32.731
32.704
32.679
32.654
32.631
32.608
32.586
32.565
32.544
32.522
32.5
32.478
32.454
32.429
32.403
32.376
32.347
32.319
32.291
32.265
32.241
32.22
32.202
32.186
32.172
32.16
32.149
32.14
32.132
32.123
32.115
32.107
32.101
32.097
32.098
32.105
32.121
32.149
32.193
32.256
32.341
32.451
32.589
32.757
32.956
33.187
33.451
33.745
34.068
34.417
34.787
35.174
35.57
35.971
36.37
36.76
37.137
37.496
37.833
38.144
38.43
38.687
38.914
39.113
39.282
39.422
39.535
39.62
39.68
39.718
39.735
39.735
39.722
39.7
39.671
39.637
39.6
39.562
39.524
39.488
39.455
39.425
39.4
39.379
39.364
39.354
39.348
39.346
39.347
39.352
39.36
39.372
39.385
39.397
39.407
39.412
39.411
39.402
39.383
39.353
39.312
39.26
39.197
39.125
39.046
38.96
38.869
38.774
38.677
38.579
38.48
38.381
38.284
38.188
38.097
38.01
37.928
37.853
37.784
37.722
37.664
37.612
37.564
37.52
37.48
37.442
37.406
37.373
37.341
37.311
37.285
37.262
37.242
37.224
37.205
37.185
37.161
37.132
37.097
37.057
37.011
36.959
36.903
36.844
36.782
36.719
36.654
36.588
36.521
36.453
36.384
36.316
36.246
36.174
36.102
36.029
35.955
35.882
35.81
35.74
35.672
35.607
35.545
35.486
35.429
35.374
35.32
35.266
35.213
35.16
35.106
35.054
35.002
34.953
34.906
34.861
34.819
34.78
34.743
34.708
34.674
34.637
34.596
34.552
34.506
34.459
34.411
34.363
34.315
34.267
34.221
34.177
34.136
34.098
34.063
34.032
34.004
33.978
33.953
33.927
33.9
33.871
33.841
33.81
33.779
33.747
33.716
33.687
33.661
33.637
33.615
33.596
33.58
33.566
33.554
33.543
33.531
33.519
33.507
33.494
33.48
33.464
33.446
33.427
33.406
33.384
33.361
33.338
33.314
33.291
33.268
33.246
33.224
33.202
33.179
33.157
33.134
33.11
33.086
33.062
33.038
33.014
32.991
32.968
32.945
32.925
32.906
32.889
32.874
32.861
32.846
32.831
32.813
32.794
32.772
32.749
32.723
32.697
32.672
32.648
32.626
32.607
32.59
32.575
32.564
32.555
32.548
32.542
32.537
32.532
32.526
32.519
32.51
32.5
32.487
32.473
32.458
32.441
32.422
32.402
32.382
32.361
32.342
32.324
32.307
32.292
32.28
32.27
32.262
32.258
32.255
32.255
32.258
32.264
32.276
32.296
32.325
32.369
32.43
32.513
32.621
32.755
32.919
33.114
33.338
33.592
33.873
34.178
34.502
34.841
35.192
35.548
35.904
36.256
36.6
36.931
37.246
37.541
37.815
38.065
38.289
38.488
38.66
38.805
38.923
39.016
39.087
39.137
39.17
39.188
39.192
39.183
39.165
39.137
39.102
39.062
39.019
38.973
38.928
38.885
38.846
38.811
38.778
38.749
38.723
38.7
38.677
38.655
38.633
38.609
38.584
38.558
38.529
38.498
38.463
38.422
38.376
38.323
38.263
38.197
38.125
38.048
37.967
37.883
37.799
37.715
37.633
37.553
37.476
37.403
37.334
37.27
37.211
37.157
37.11
37.07
37.036
37.009
36.988
36.974
36.966
36.966
36.97
36.979
36.99
37.003
37.015
37.025
37.033
37.036
37.035
37.029
37.018
37.003
36.982
36.956
36.925
36.89
36.85
36.807
36.759
36.707
36.652
36.593
36.532
36.468
36.403
36.338
36.271
36.205
36.14
36.075
36.011
35.946
35.88
35.814
35.745
35.676
35.604
35.53
35.456
35.381
35.305
35.23
35.155
35.082
35.012
34.945
34.881
34.821
34.765
34.713
34.664
34.619
34.576
34.534
34.494
34.455
34.418
34.383
34.35
34.319
34.291
34.266
34.244
34.223
34.203
34.185
34.167
34.15
34.136
34.123
34.113
34.105
34.098
34.093
34.09
34.086
34.082
34.078
34.072
34.066
34.058
34.049
34.039
34.029
34.019
34.009
34.0
33.991
33.983
33.975
33.968
33.96
33.951
33.941
33.929
33.916
33.902
33.887
33.871
33.854
33.837
33.82
33.804
33.788
33.771
33.755
33.739
33.722
33.705
33.687
33.669
33.649
33.628
33.606
33.584
33.563
33.541
33.52
33.5
33.48
33.461
33.443
33.425
33.408
33.391
33.375
33.359
33.342
33.324
33.304
33.281
33.257
33.231
33.201
33.168
33.134
33.098
33.063
33.029
32.998
32.971
32.95
32.939
32.939
32.952
32.98
33.027
33.093
33.183
33.298
33.44
33.61
33.809
34.038
34.298
34.587
34.901
35.237
35.589
35.952
36.319
36.684
37.042
37.388
37.717
38.027
38.314
38.577
38.814
39.024
39.207
39.364
39.495
39.601
39.681
39.739
39.777
39.798
39.804
39.798
39.781
39.757
39.727
39.692
39.653
39.613
39.572
39.531
39.494
39.458
39.427
39.398
39.372
39.348
39.325
39.304
39.282
39.262
39.243
39.224
39.206
39.188
39.169
39.149
39.127
39.102
39.073
39.041
39.003
38.959
38.908
38.85
38.785
