Trial 3:3back
36.277
36.292
36.297
36.294
36.283
36.266
36.244
36.217
36.186
36.154
36.122
36.091
36.063
36.038
36.014
35.993
35.971
35.95
35.929
35.907
35.886
35.864
35.841
35.817
35.79
35.761
35.73
35.696
35.661
35.624
35.585
35.545
35.504
35.463
35.422
35.381
35.342
35.304
35.269
35.235
35.205
35.177
35.153
35.133
35.119
35.11
35.104
35.101
35.101
35.102
35.106
35.112
35.119
35.129
35.14
35.152
35.166
35.181
35.197
35.214
35.232
35.25
35.268
35.285
35.3
35.315
35.327
35.337
35.344
35.347
35.346
35.341
35.33
35.315
35.296
35.273
35.248
35.221
35.193
35.164
35.137
35.11
35.085
35.061
35.039
35.018
34.997
34.977
34.956
34.935
34.912
34.888
34.861
34.833
34.804
34.774
34.742
34.709
34.675
34.641
34.606
34.572
34.537
34.502
34.468
34.434
34.401
34.372
34.347
34.326
34.309
34.297
34.287
34.279
34.273
34.268
34.262
34.256
34.249
34.242
34.235
34.226
34.216
34.205
34.193
34.18
34.166
34.152
34.137
34.122
34.108
34.092
34.074
34.053
34.031
34.007
33.981
33.956
33.932
33.911
33.893
33.878
33.866
33.856
33.849
33.845
33.841
33.84
33.838
33.837
33.835
33.83
33.822
33.813
33.801
33.787
33.772
33.755
33.738
33.72
33.7
33.681
33.662
33.644
33.629
33.615
33.604
33.595
33.591
33.591
33.598
33.613
33.635
33.668
33.71
33.763
33.828
33.905
33.996
34.099
34.217
34.347
34.488
34.639
34.799
34.964
35.133
35.303
35.472
35.637
35.795
35.943
36.08
36.203
36.314
36.41
36.492
36.561
36.616
36.658
36.689
36.708
36.718
36.722
36.719
36.713
36.702
36.689
36.674
36.656
36.638
36.617
36.595
36.572
36.548
36.521
36.493
36.465
36.435
36.404
36.373
36.342
36.312
36.282
36.253
36.225
36.197
36.167
36.137
36.104
36.069
36.031
35.991
35.948
35.904
35.859
35.814
35.768
35.724
35.682
35.643
35.607
35.576
35.55
35.528
35.511
35.5
35.495
35.495
35.5
35.508
35.52
35.535
35.55
35.564
35.578
35.59
35.6
35.608
35.613
35.617
35.618
35.617
35.615
35.611
35.607
35.604
35.602
35.601
35.602
35.605
35.609
35.614
35.62
35.626
35.63
35.631
35.628
35.62
35.607
35.587
35.562
35.531
35.496
35.456
35.413
35.367
35.319
35.271
35.224
35.18
35.138
35.098
35.062
35.027
34.996
34.967
34.94
34.915
34.891
34.868
34.846
34.824
34.802
34.78
34.757
34.734
34.71
34.684
34.657
34.629
34.6
34.57
34.539
34.509
34.479
34.448
34.417
34.386
34.357
34.33
34.306
34.286
34.27
34.258
34.251
34.246
34.244
34.243
34.243
34.243
34.241
34.236
34.229
34.218
34.205
34.189
34.172
34.153
34.133
34.112
34.091
34.07
34.049
34.029
34.011
33.993
33.976
33.959
33.942
33.926
33.911
33.897
33.884
33.873
33.864
33.856
33.851
33.847
33.846
33.845
33.846
33.845
33.842
33.838
33.83
33.819
33.805
33.787
33.765
33.74
33.713
33.683
33.651
33.619
33.589
33.56
33.536
33.518
33.505
33.498
33.495
33.496
33.5
33.509
33.522
33.542
33.568
33.603
33.647
33.703
33.773
33.857
33.956
34.071
34.202
34.349
34.51
34.683
34.865
35.055
35.249
35.444
35.636
35.822
35.998
36.164
36.318
36.458
36.585
36.698
36.798
36.885
36.961
37.027
37.083
37.131
37.172
37.205
37.231
37.251
37.265
37.273
37.275
37.271
37.261
37.244
37.221
37.191
37.157
37.12
37.081
37.042
37.004
36.967
36.933
36.904
36.879
36.858
36.843
36.831
36.822
36.815
36.807
36.799
36.787
36.773
36.754
36.731
36.701
36.664
36.62
36.569
36.514
36.458
36.402
36.348
36.297
36.252
36.213
36.18
36.154
36.134
36.12
36.111
36.106
36.103
36.103
36.103
36.103
36.105
36.108
36.113
36.119
36.126
36.133
36.14
36.148
36.158
36.168
36.18
36.192
36.203
36.213
36.221
36.226
36.227
36.223
36.215
36.202
36.184
36.162
36.137
36.109
36.079
36.048
36.014
35.979
35.941
35.901
35.86
35.819
35.78
35.742
35.705
35.67
35.636
35.602
35.568
35.534
35.499
35.463
35.425
35.388
35.35
35.313
35.277
35.243
35.21
35.179
35.149
35.119
35.09
35.061
35.032
35.004
34.977
34.95
34.923
34.897
34.871
34.845
34.821
34.799
34.78
34.763
34.747
34.734
34.722
34.711
34.701
34.69
34.68
34.668
34.656
34.642
34.627
34.611
34.594
34.576
34.559
34.542
34.526
34.51
34.495
34.48
34.465
34.451
34.438
34.425
34.413
34.401
34.388
34.375
34.359
34.343
34.325
34.306
34.285
34.263
34.239
34.215
34.191
34.165
34.141
34.116
34.093
34.069
34.047
34.025
34.005
33.986
33.969
33.952
33.934
33.916
33.896
33.874
33.85
33.825
33.8
33.775
33.749
33.724
33.699
33.675
33.655
33.64
33.631
33.631
33.639
33.658
33.687
33.729
33.784
33.854
33.938
34.037
34.151
34.28
34.423
34.578
34.747
34.927
35.117
35.314
35.513
35.713
35.911
36.104
36.289
36.465
36.63
36.781
36.917
37.037
37.141
37.23
37.303
37.362
37.408
37.441
37.463
37.475
37.478
37.475
37.466
37.454
37.44
37.424
37.408
37.392
37.376
37.36
37.345
37.329
37.312
37.295
37.276
37.256
37.235
37.212
37.189
37.164
37.138
37.109
37.078
37.045
37.011
36.975
36.939
36.903
36.866
36.828
36.789
36.749
36.709
36.668
36.627
36.585
36.543
36.499
36.453
36.407
36.362
36.319
36.279
36.242
36.21
36.182
36.16
36.144
36.133
36.129
36.13
36.138
36.15
36.166
36.185
36.205
36.226
36.246
36.262
36.275
36.284
36.287
36.285
36.278
36.267
36.252
36.233
36.212
36.189
36.164
36.137
36.109
36.08
36.052
36.025
35.999
35.975
35.951
35.927
35.902
35.876
35.849
35.819
35.788
35.754
35.717
35.677
35.637
35.596
35.557
35.518
35.479
35.44
35.4
35.36
35.319
35.279
35.239
35.201
35.163
35.126
35.088
35.051
35.015
34.98
34.947
34.916
34.885
34.852
34.816
34.776
34.733
34.689
34.643
34.6
34.559
34.522
34.491
34.466
34.446
34.432
34.421
34.414
34.41
34.407
34.404
34.4
34.394
34.387
34.38
34.372
34.363
34.353
34.342
34.328
34.313
34.298
34.281
34.264
34.247
34.23
34.213
34.197
34.181
34.165
34.15
34.135
34.119
34.104
34.089
34.073
34.058
34.042
34.025
34.009
33.991
33.973
33.954
33.934
33.914
33.894
33.875
33.858
33.842
33.825
33.809
33.792
33.773
33.754
33.733
33.711
33.688
33.664
33.64
33.616
33.593
33.57
33.548
33.524
33.501
33.476
33.452
33.428
33.405
33.385
33.368
33.356
33.35
33.352
33.364
33.388
33.425
33.478
33.548
33.636
33.742
33.865
34.006
34.161
34.331
34.513
34.707
34.908
35.115
35.324
35.533
35.738
35.938
36.13
36.313
36.484
36.641
36.783
36.908
37.016
37.107
37.182
37.24
37.284
37.315
37.335
37.343
37.344
37.337
37.326
37.311
37.294
37.274
37.254
37.233
37.21
37.185
37.159
37.132
37.104
37.075
37.047
37.02
36.994
36.97
36.949
36.929
36.91
36.892
36.874
36.853
36.832
36.808
36.782
36.754
36.722
36.686
36.647
36.603
36.557
36.508
36.457
36.404
36.351
36.299
36.248
36.201
36.157
36.119
36.087
36.06
36.039
36.022
36.008
35.997
35.989
35.984
35.982
35.983
35.985
35.988
35.993
35.997
36.003
36.009
36.016
36.022
36.028
36.033
36.036
36.039
36.041
36.04
36.038
36.032
36.025
36.016
36.006
35.994
35.98
35.964
35.947
35.928
35.906
35.881
35.853
35.823
35.79
35.755
35.718
35.678
35.636
35.591
35.544
35.494
35.444
35.392
35.341
35.292
35.245
35.2
35.158
35.12
35.087
35.06
35.036
35.015
34.995
34.975
34.955
34.933
34.909
34.882
34.854
34.823
34.79
34.755
34.718
34.681
34.645
34.609
34.575
34.542
34.51
34.481
34.453
34.428
34.405
34.383
34.362
34.342
34.321
34.3
34.279
34.259
34.241
34.224
34.208
34.193
34.178
34.164
34.151
34.138
34.125
34.114
34.103
34.093
34.084
34.074
34.064
34.053
34.041
34.027
34.012
33.995
33.977
33.957
33.935
33.913
33.889
33.866
33.843
33.821
33.798
33.776
33.754
33.734
33.714
33.695
33.678
33.661
33.645
33.629
33.613
33.596
33.581
33.567
33.554
33.541
33.529
33.516
33.503
33.489
33.474
33.457
33.438
33.416
33.391
33.364
33.336
33.306
33.275
33.245
33.216
33.19
33.167
33.146
33.129
33.117
33.111
33.111
33.12
33.138
33.167
33.208
33.264
33.336
33.424
33.53
33.653
33.792
33.947
34.116
34.296
34.484
34.679
34.877
35.076
35.273
35.467
35.653
35.832
36.0
36.157
36.303
36.436
36.557
36.664
36.757
36.839
36.908
36.967
37.017
37.059
37.094
37.121
37.142
37.155
37.16
37.158
37.148
37.13
37.105
37.073
37.034
36.991
36.944
36.896
36.847
36.798
36.752
36.707
36.665
36.627
36.593
36.565
36.54
36.519
36.5
36.481
36.46
36.437
36.41
36.377
36.339
36.295
36.247
36.193
36.137
36.079
36.021
35.963
35.908
35.857
35.811
35.769
35.734
35.704
35.682
35.667
35.66
35.659
35.663
35.672
35.684
35.7
35.717
35.735
35.755
35.776
35.799
35.823
35.846
35.867
35.886
35.901
35.912
35.92
35.923
35.924
35.921
35.915
35.907
35.896
35.881
35.861
35.837
35.809
35.777
35.744
35.709
35.673
35.636
35.598
35.56
35.522
35.484
35.447
35.411
35.375
35.34
35.305
35.27
35.235
35.2
35.165
35.129
35.093
35.056
35.02
34.984
34.949
34.913
34.879
34.845
34.813
34.782
34.75
34.718
34.685
34.652
34.619
34.588
34.559
34.531
34.505
34.479
34.454
34.429
34.404
34.378
34.353
34.328
34.304
34.28
34.257
34.233
34.209
34.186
34.165
34.145
34.127
34.109
34.094
34.08
34.069
34.06
34.053
34.047
34.041
34.033
34.024
34.014
34.002
33.99
33.977
33.963
33.95
33.938
33.927
33.916
33.905
33.893
33.881
33.867
33.853
33.837
33.821
33.804
33.786
33.768
33.748
33.728
33.707
33.685
33.663
33.64
33.616
33.593
33.569
33.546
33.522
33.498
33.473
33.449
33.426
33.405
33.386
33.368
33.351
33.335
33.321
33.31
33.304
33.306
33.319
33.344
33.382
33.435
33.502
33.584
33.681
33.792
33.917
34.057
34.208
34.371
34.544
34.727
34.916
35.111
35.31
35.511
35.711
35.907
36.097
36.279
36.451
36.613
36.761
36.896
37.015
37.119
37.207
37.28
37.336
37.379
37.408
37.425
37.433
37.432
37.423
37.41
37.392
37.372
37.349
37.326
37.303
37.279
37.255
37.232
37.209
37.187
37.165
37.142
37.118
37.091
37.061
37.029
36.995
36.959
36.921
36.882
36.842
36.801
36.76
36.719
36.679
36.64
36.602
36.564
36.526
36.488
36.45
36.412
36.373
36.335
36.296
36.256
36.215
36.176
36.14
36.107
36.08
36.058
36.04
36.027
36.017
36.012
36.011
36.014
36.022
36.033
36.048
36.063
36.08
36.096
36.112
36.127
36.14
36.149
36.155
36.157
36.155
36.149
36.138
36.124
36.107
36.087
36.065
36.039
36.012
35.982
35.951
35.92
35.888
35.855
35.821
35.787
35.752
35.716
35.679
35.642
35.605
35.566
35.527
35.486
35.444
35.402
35.358
35.314
35.269
35.224
35.178
35.132
35.086
35.04
34.995
34.952
34.91
34.872
34.835
34.801
34.77
34.741
34.714
34.69
34.669
34.649
34.63
34.611
34.592
34.572
34.551
34.53
34.507
34.484
34.46
34.435
34.409
34.383
34.357
34.331
34.305
34.279
34.253
34.228
34.203
34.179
34.157
34.137
34.119
34.103
34.088
34.074
34.061
34.048
34.036
34.024
34.012
34.001
33.989
33.976
33.962
33.947
33.931
33.915
33.899
33.882
33.865
33.848
33.83
33.813
33.796
33.78
33.763
33.746
33.729
33.712
33.695
33.677
33.66
33.642
33.624
33.605
33.587
33.567
33.546
33.524
33.501
33.478
33.455
33.433
33.41
33.387
33.364
33.34
33.316
33.293
33.272
33.253
33.237
33.223
33.213
33.208
33.208
33.215
33.231
33.256
33.291
33.34
33.402
33.48
33.575
33.687
33.815
33.96
34.121
34.296
34.483
34.682
34.889
35.103
35.321
35.542
35.76
35.973
36.179
36.375
36.56
36.733
36.891
37.035
37.165
37.28
37.38
37.465
37.536
37.594
37.637
37.668
37.687
37.696
37.696
37.689
37.675
37.657
37.635
37.61
37.581
37.549
37.516
37.482
37.446
37.409
37.37
37.332
37.296
37.261
37.228
37.196
37.166
37.137
37.109
37.082
37.055
37.029
37.002
36.976
36.949
36.921
36.892
36.861
36.827
36.791
36.752
36.711
36.667
36.623
36.578
36.533
36.489
36.447
36.406
36.367
36.331
36.299
36.271
36.247
36.229
36.217
36.21
36.209
36.211
36.216
36.224
36.233
36.241
36.25
36.258
36.265
36.271
36.276
36.281
36.284
36.285
36.283
36.279
36.272
36.262
36.249
36.234
36.217
36.198
36.177
36.153
36.126
36.096
36.064
36.03
35.992
35.952
35.91
35.866
35.821
35.776
35.73
35.684
35.638
35.592
35.545
35.5
35.454
35.409
35.365
35.321
35.277
35.234
35.192
35.152
35.113
35.075
35.038
35.002
34.967
34.934
34.901
34.87
34.84
34.81
34.781
34.752
34.723
34.694
34.664
34.634
34.603
34.571
34.538
34.505
34.47
34.435
34.401
34.367
34.336
34.308
34.282
34.259
34.238
34.22
34.203
34.187
34.172
34.156
34.141
34.124
34.105
34.086
34.066
34.047
34.029
34.012
33.997
33.982
33.968
33.952
33.933
33.913
33.89
33.866
33.841
33.816
33.792
33.768
33.746
33.727
33.711
33.696
33.683
33.669
33.655
33.64
33.626
33.612
33.599
33.585
33.571
33.555
33.537
33.517
33.495
33.472
33.447
33.421
33.395
33.367
33.34
33.312
33.283
33.254
33.226
33.198
33.173
33.149
33.128
33.109
33.093
33.08
33.071
33.069
33.075
33.092
33.119
33.157
33.207
33.27
33.347
33.438
33.543
33.664
33.8
33.95
34.115
34.293
34.483
34.683
34.89
35.102
35.316
35.53
35.74
35.946
36.146
36.337
36.518
36.688
36.844
36.987
37.115
37.229
37.326
37.408
37.474
37.525
37.561
37.583
37.592
37.591
37.581
37.563
37.538
37.508
37.475
37.438
37.4
37.361
37.322
37.283
37.245
37.209
37.174
37.141
37.11
37.081
37.053
37.025
36.997
36.968
36.937
36.905
36.871
36.836
36.799
36.762
36.724
36.684
36.644
36.602
36.56
36.517
36.476
36.434
36.393
36.353
36.313
36.273
36.233
36.194
36.156
36.118
36.082
36.047
36.015
35.986
35.961
35.941
35.927
35.918
35.914
35.915
35.92
35.929
35.941
35.957
35.975
35.993
36.01
36.025
36.036
36.043
36.046
36.044
36.037
36.025
36.009
35.989
35.966
35.94
35.912
35.882
35.852
35.821
35.788
35.753
35.718
35.682
35.646
35.611
35.576
35.541
35.504
35.465
35.424
35.383
35.34
35.298
35.255
35.213
35.172
35.133
35.096
35.06
35.024
34.988
34.952
34.915
34.877
34.838
34.798
34.758
34.717
34.677
34.637
34.598
34.558
34.519
34.48
34.442
34.408
34.375
34.346
34.319
34.294
34.27
34.249
34.23
34.211
34.193
34.176
34.158
34.139
34.118
34.096
34.073
34.049
34.023
33.996
33.97
33.944
33.919
33.895
33.874
33.854
33.836
33.819
33.803
33.789
33.775
33.762
33.75
33.742
33.736
33.733
33.731
33.73
33.729
33.726
33.721
33.714
33.705
33.693
33.677
33.658
33.637
33.612
33.586
33.558
33.529
33.5
33.47
33.44
33.41
33.38
33.35
33.321
33.292
33.264
33.237
33.211
33.188
33.166
33.146
33.128
33.112
33.098
33.084
33.07
33.055
33.039
33.024
33.011
33.002
33.0
33.003
33.014
33.033
33.063
33.104
33.16
33.23
33.317
33.421
33.542
33.683
33.842
34.018
34.21
34.413
34.625
34.843
35.063
35.283
35.499
35.71
35.914
36.108
36.291
36.462
36.619
36.762
36.892
37.007
37.109
37.196
37.267
37.324
37.365
37.391
37.404
37.404
37.394
37.373
37.344
37.309
37.269
37.227
37.183
37.139
37.095
37.053
37.013
36.975
36.937
36.901
36.866
36.832
36.798
36.766
36.733
36.7
36.666
36.632
36.596
36.557
36.516
36.471
36.423
36.371
36.317
36.26
36.202
36.145
36.088
36.034
35.982
35.933
35.887
35.844
35.803
35.767
35.735
35.707
35.682
35.661
35.643
35.628
35.618
35.612
35.61
35.613
35.62
35.63
35.642
35.657
35.673
35.69
35.707
35.725
35.742
35.759
35.773
35.784
35.793
35.798
35.799
35.797
35.79
35.78
35.765
35.747
35.726
35.703
35.679
35.653
35.624
35.593
35.558
35.518
35.474
35.426
35.375
35.323
35.271
35.22
35.17
35.123
35.079
35.039
35.002
34.967
34.935
34.903
34.87
34.837
34.802
34.767
34.73
34.693
34.654
34.613
34.571
34.527
34.484
34.441
34.402
34.365
34.332
34.304
34.279
34.258
34.241
34.226
34.214
34.204
34.194
34.185
34.175
34.164
34.153
34.14
34.126
34.109
34.09
34.07
34.048
34.024
34.0
33.977
33.953
33.93
33.908
33.888
33.869
33.853
33.838
33.825
33.814
33.803
33.793
33.782
33.77
33.758
33.745
33.732
33.72
33.707
33.694
33.681
33.668
33.654
33.641
33.629
33.617
33.605
33.592
33.578
33.563
33.548
33.531
33.515
33.498
33.481
33.463
33.444
33.424
33.404
33.384
33.362
33.34
33.317
33.292
33.267
33.241
33.215
33.191
33.17
33.153
33.143
33.14
33.147
33.165
33.195
33.239
33.299
33.374
33.465
33.572
33.696
33.836
33.99
34.158
34.339
34.53
34.73
34.936
35.144
35.352
35.558
35.759
35.951
36.133
36.302
36.456
36.593
36.714
36.819
36.908
36.983
37.044
37.093
37.13
37.155
37.17
37.177
37.176
37.17
37.158
37.14
37.118
37.091
37.061
37.028
36.991
36.952
36.911
36.867
36.821
36.773
36.724
36.674
36.623
36.57
36.516
36.46
36.403
36.345
36.288
36.233
36.18
36.129
36.082
36.035
35.99
35.946
35.903
35.86
35.82
35.781
35.743
35.708
35.674
35.642
35.613
35.585
35.559
35.536
35.516
35.499
35.485
35.475
35.469
35.468
35.472
35.482
35.496
35.513
35.532
35.552
35.571
35.591
35.61
35.627
35.644
35.658
35.67
35.679
35.685
35.688
35.687
35.684
35.677
35.667
35.654
35.639
35.621
35.602
35.582
35.559
35.535
35.508
35.478
35.444
35.407
35.367
35.324
35.279
35.233
35.185
35.136
35.087
35.039
34.991
34.945
34.9
34.858
34.817
34.778
34.739
34.7
34.662
34.625
34.589
34.555
34.522
34.491
34.461
34.432
34.404
34.377
34.35
34.323
34.296
34.269
34.242
34.215
34.189
34.165
34.144
34.124
34.105
34.086
34.068
34.05
34.031
34.012
33.993
33.973
33.953
33.933
33.915
33.898
33.882
33.867
33.853
33.839
33.826
33.813
33.802
33.791
33.78
33.77
33.76
33.75
33.741
33.733
33.725
33.719
33.714
33.71
33.707
33.704
33.7
33.694
33.686
33.676
33.663
33.647
33.629
33.608
33.584
33.557
33.529
33.499
33.468
33.438
33.408
33.38
33.354
33.333
33.319
33.312
33.315
33.329
33.357
33.399
33.456
33.529
33.618
33.724
33.848
33.988
34.144
34.314
34.497
34.691
34.892
35.099
35.309
35.519
35.726
35.929
36.124
36.31
36.483
36.642
36.785
36.912
37.022
37.114
37.19
37.25
37.296
37.331
37.355
37.37
37.377
37.377
37.372
37.36
37.342
37.319
37.291
37.259
37.222
37.182
37.137
37.09
37.041
36.991
36.942
36.894
36.848
36.804
36.764
36.727
36.694
36.666
36.641
36.617
36.595
36.571
36.546
36.52
36.492
36.462
36.429
36.393
36.353
36.307
36.258
36.204
36.148
36.09
36.033
35.979
35.929
35.885
35.848
35.819
35.799
35.789
35.788
35.795
35.81
35.829
35.853
35.878
35.903
35.928
35.952
35.973
35.992
36.007
36.019
36.027
36.032
36.036
36.037
36.037
36.035
36.031
36.026
36.02
36.013
36.005
35.995
35.985
35.973
35.959
35.944
35.926
35.906
35.883
35.857
35.827
35.793
35.755
35.713
35.668
35.62
35.569
35.517
35.464
35.411
35.357
35.305
35.255
35.208
35.166
35.128
35.094
35.064
35.034
35.005
34.975
34.944
34.913
34.88
34.847
34.812
34.778
34.743
34.709
34.676
34.645
34.616
34.589
34.564
34.539
34.516
34.494
34.473
34.453
34.435
34.417
34.4
34.384
34.369
34.356
34.344
34.334
34.325
34.318
34.311
34.305
34.298
34.291
34.282
34.273
34.262
34.249
34.235
34.217
34.197
34.175
34.15
34.123
34.093
34.062
34.028
33.992
33.954
33.914
33.875
33.835
33.796
33.758
33.722
33.688
33.658
33.632
33.611
33.596
33.587
33.587
33.597
33.617
33.65
33.694
33.751
33.822
33.907
34.007
34.12
34.247
34.386
34.537
34.699
34.87
35.049
35.235
