Trial 3:3back
36.133
36.335
36.531
36.718
36.895
37.059
37.21
37.348
37.47
37.577
37.668
37.744
37.805
37.852
37.887
37.909
37.921
37.923
37.917
37.904
37.885
37.862
37.835
37.805
37.772
37.737
37.701
37.663
37.624
37.584
37.543
37.502
37.46
37.419
37.377
37.335
37.293
37.252
37.209
37.167
37.123
37.077
37.03
36.982
36.933
36.883
36.833
36.782
36.733
36.684
36.638
36.594
36.552
36.512
36.475
36.441
36.409
36.38
36.354
36.33
36.309
36.29
36.275
36.261
36.25
36.241
36.234
36.229
36.226
36.225
36.227
36.23
36.234
36.238
36.242
36.244
36.244
36.243
36.239
36.233
36.225
36.214
36.201
36.186
36.17
36.151
36.131
36.11
36.087
36.063
36.038
36.011
35.984
35.956
35.928
35.9
35.87
35.84
35.809
35.777
35.744
35.709
35.673
35.636
35.598
35.56
35.522
35.484
35.446
35.408
35.37
35.333
35.297
35.262
35.228
35.194
35.161
35.129
35.098
35.068
35.038
35.009
34.981
34.953
34.926
34.9
34.874
34.85
34.827
34.804
34.782
34.76
34.738
34.717
34.696
34.675
34.654
34.633
34.612
34.589
34.567
34.543
34.52
34.497
34.475
34.454
34.433
34.414
34.396
34.381
34.369
34.361
34.36
34.366
34.38
34.404
34.44
34.49
34.555
34.636
34.734
34.849
34.982
35.131
35.296
35.475
35.665
35.865
36.071
36.281
36.491
36.699
36.901
37.095
37.277
37.448
37.603
37.743
37.867
37.974
38.063
38.136
38.191
38.23
38.255
38.265
38.262
38.248
38.223
38.189
38.148
38.1
38.048
37.993
37.934
37.874
37.813
37.752
37.69
37.63
37.569
37.51
37.451
37.392
37.334
37.277
37.219
37.161
37.102
37.043
36.983
36.922
36.86
36.797
36.734
36.67
36.605
36.541
36.477
36.414
36.353
36.293
36.236
36.181
36.129
36.081
36.036
35.995
35.959
35.928
35.902
35.881
35.865
35.853
35.846
35.841
35.841
35.842
35.846
35.851
35.857
35.863
35.869
35.874
35.877
35.879
35.879
35.877
35.872
35.864
35.854
35.84
35.822
35.801
35.776
35.748
35.716
35.681
35.644
35.605
35.564
35.522
35.477
35.431
35.384
35.335
35.286
35.237
35.187
35.139
35.093
35.048
35.006
34.967
34.929
34.893
34.859
34.826
34.794
34.762
34.73
34.698
34.665
34.63
34.595
34.559
34.522
34.484
34.446
34.407
34.367
34.328
34.289
34.251
34.213
34.176
34.141
34.106
34.073
34.041
34.011
33.982
33.953
33.926
33.9
33.875
33.851
33.828
33.805
33.784
33.764
33.745
33.727
33.711
33.698
33.689
33.685
33.689
33.702
33.726
33.764
33.816
33.884
33.969
34.071
34.191
34.329
34.484
34.656
34.842
35.042
35.254
35.473
35.699
35.926
36.154
36.377
36.594
36.801
36.996
37.178
37.346
37.497
37.632
37.749
37.849
37.931
37.996
38.045
38.078
38.098
38.105
38.1
38.086
38.062
38.031
37.994
37.953
37.906
37.857
37.805
37.751
37.695
37.639
37.582
37.525
37.467
37.408
37.348
37.288
37.227
37.166
37.103
37.039
36.974
36.908
36.841
36.774
36.707
36.641
36.577
36.514
36.454
36.396
36.342
36.292
36.246
36.204
36.167
36.135
36.107
36.083
36.064
36.049
36.039
36.032
36.027
36.026
36.026
36.029
36.032
36.036
36.041
36.045
36.049
36.053
36.056
36.059
36.061
36.062
36.063
36.062
36.059
36.055
36.048
36.038
36.026
36.012
35.995
35.975
35.953
35.928
35.901
35.872
35.842
35.81
35.777
35.743
35.708
35.673
35.636
35.6
35.564
35.529
35.495
35.462
35.431
35.402
35.374
35.348
35.323
35.298
35.275
35.251
35.228
35.205
35.181
35.157
35.133
35.108
35.083
35.057
35.031
35.004
34.976
34.947
34.918
34.889
34.859
34.83
34.8
34.77
34.741
34.711
34.681
34.651
34.621
34.59
34.561
34.532
34.504
34.478
34.453
34.43
34.408
34.387
34.367
34.348
34.329
34.311
34.294
34.278
34.264
34.254
34.25
34.254
34.268
34.296
34.338
34.397
34.476
34.575
34.695
34.838
35.001
35.186
35.389
35.609
35.843
36.087
36.338
36.592
36.846
37.095
37.337
37.569
37.787
37.99
38.176
38.344
38.493
38.623
38.733
38.824
38.896
38.95
38.988
39.01
39.019
39.015
39.001
38.976
38.943
38.902
38.855
38.802
38.743
38.681
38.614
38.545
38.473
38.399
38.324
38.249
38.174
38.098
38.022
37.945
37.868
37.79
37.712
37.634
37.555
37.477
37.4
37.324
37.249
37.176
37.105
37.036
36.97
36.905
36.844
36.785
36.73
36.68
36.633
36.591
36.554
36.522
36.495
36.472
36.455
36.441
36.432
36.426
36.423
36.423
36.424
36.426
36.429
36.433
36.436
36.438
36.439
36.439
36.437
36.434
36.428
36.421
36.411
36.399
36.385
36.369
36.349
36.328
36.304
36.279
36.252
36.225
36.197
36.168
36.14
36.111
36.081
36.051
36.021
35.99
35.959
35.926
35.891
35.855
35.817
35.777
35.736
35.693
35.649
35.604
35.557
35.508
35.459
35.408
35.357
35.305
35.253
35.201
35.149
35.098
35.048
35.0
34.954
34.909
34.867
34.827
34.789
34.754
34.721
34.689
34.658
34.627
34.597
34.567
34.536
34.506
34.474
34.442
34.41
34.377
34.344
34.31
34.275
34.239
34.204
34.168
34.133
34.1
34.07
34.045
34.026
34.016
34.017
34.031
34.06
34.106
34.17
34.254
34.357
34.481
34.625
34.789
34.972
35.172
35.387
35.613
35.849
36.09
36.332
36.573
36.808
37.034
37.249
37.451
37.636
37.805
37.954
38.083
38.192
38.281
38.349
38.399
38.429
38.443
38.44
38.422
38.392
38.35
38.299
38.241
38.175
38.105
38.03
37.952
37.872
37.789
37.706
37.623
37.539
37.455
37.37
37.286
37.201
37.117
37.033
36.949
36.866
36.782
36.698
36.615
36.532
36.45
36.368
36.288
36.207
36.128
36.051
35.977
35.905
35.837
35.773
35.714
35.659
35.611
35.567
35.53
35.499
35.474
35.454
35.441
35.432
35.428
35.429
35.432
35.438
35.446
35.455
35.464
35.473
35.48
35.486
35.488
35.486
35.481
35.471
35.456
35.437
35.414
35.386
35.355
35.32
35.282
35.241
35.198
35.152
35.104
35.055
35.005
34.954
34.904
34.853
34.803
34.755
34.707
34.66
34.614
34.57
34.527
34.485
34.442
34.4
34.358
34.315
34.273
34.23
34.187
34.145
34.104
34.063
34.023
33.983
33.944
33.906
33.867
33.829
33.791
33.753
33.715
33.678
33.641
33.605
33.569
33.534
33.499
33.465
33.43
33.396
33.362
33.327
33.293
33.259
33.225
33.192
33.159
33.127
33.096
33.066
33.037
33.01
32.987
32.968
32.956
32.952
32.959
32.979
33.015
33.069
33.141
33.235
33.351
33.488
33.647
33.827
34.026
34.242
34.472
34.712
34.961
35.212
35.465
35.713
35.955
36.187
36.406
36.61
36.796
36.962
37.109
37.236
37.343
37.429
37.496
37.544
37.575
37.59
37.589
37.574
37.547
37.508
37.46
37.404
37.34
37.271
37.197
37.12
37.04
36.958
36.874
36.789
36.701
36.613
36.523
36.432
36.341
36.248
36.154
36.059
35.963
35.867
35.77
35.673
35.577
35.483
35.39
35.301
35.215
35.134
35.058
34.987
34.922
34.864
34.811
34.764
34.723
34.689
34.659
34.635
34.616
34.601
34.59
34.582
34.579
34.578
34.581
34.586
34.593
34.601
34.61
34.619
34.628
34.636
34.642
34.645
34.646
34.643
34.636
34.626
34.611
34.592
34.57
34.544
34.515
34.484
34.451
34.417
34.381
34.345
34.308
34.27
34.233
34.196
34.16
34.123
34.087
34.051
34.015
33.98
33.944
33.909
33.874
33.839
33.804
33.769
33.734
33.699
33.664
33.629
33.594
33.559
33.524
33.489
33.454
33.42
33.385
33.349
33.312
33.274
33.235
33.194
33.152
33.109
33.065
33.021
32.978
32.935
32.893
32.853
32.813
32.775
32.738
32.704
32.672
32.643
32.617
32.596
32.58
32.572
32.572
32.582
32.606
32.644
32.698
32.772
32.865
32.98
33.118
33.278
33.46
33.665
33.89
34.133
34.392
34.664
34.944
35.229
35.514
35.797
36.072
36.337
36.589
36.824
37.042
37.241
37.419
37.576
37.711
37.824
37.916
37.989
38.042
38.079
38.099
38.104
38.096
38.076
38.046
38.007
37.96
37.907
37.849
37.786
37.719
37.648
37.574
37.497
37.419
37.338
37.256
37.173
37.089
37.004
36.919
36.833
36.746
36.658
36.57
36.482
36.393
36.305
36.217
36.13
36.044
35.96
35.879
35.801
35.727
35.657
35.592
35.532
35.479
35.432
35.391
35.358
35.332
35.313
35.302
35.297
35.297
35.302
35.31
35.321
35.334
35.348
35.363
35.379
35.394
35.409
35.423
35.435
35.446
35.453
35.458
35.46
35.458
35.453
35.445
35.433
35.417
35.398
35.376
35.351
35.324
35.295
35.264
35.231
35.197
35.161
35.125
35.088
35.05
35.012
34.974
34.937
34.901
34.865
34.829
34.793
34.757
34.722
34.686
34.65
34.614
34.579
34.545
34.511
34.478
34.445
34.414
34.382
34.35
34.318
34.286
34.252
34.218
34.184
34.149
34.114
34.08
34.046
34.013
33.981
33.95
33.92
33.891
33.863
33.836
33.809
33.782
33.755
33.73
33.707
33.688
33.674
33.667
33.669
33.684
33.713
33.759
33.824
33.911
34.021
34.156
34.315
34.498
34.704
34.932
35.179
35.442
35.718
36.003
36.293
36.584
36.873
37.155
37.426
37.685
37.927
38.15
38.353
38.533
38.691
38.825
38.936
39.023
39.087
39.13
39.153
39.159
39.148
39.124
39.087
39.042
38.988
38.927
38.86
38.788
38.714
38.636
38.558
38.478
38.398
38.318
38.238
38.16
38.082
38.005
37.929
37.854
37.78
37.707
37.633
37.559
37.485
37.41
37.336
37.261
37.186
37.113
37.041
36.972
36.906
36.844
36.785
36.732
36.682
36.638
36.597
36.561
36.529
36.501
36.475
36.453
36.433
36.415
36.4
36.387
36.376
36.367
36.361
36.356
36.352
36.349
36.347
36.344
36.341
36.337
36.332
36.325
36.317
36.306
36.294
36.28
36.263
36.246
36.226
36.205
36.182
36.158
36.131
36.103
36.072
36.039
36.004
35.966
35.926
35.884
35.838
35.791
35.741
35.69
35.637
35.582
35.526
35.47
35.413
35.355
35.297
35.24
35.182
35.125
35.069
35.015
34.961
34.91
34.86
34.813
34.767
34.724
34.683
34.643
34.604
34.567
34.53
34.495
34.46
34.426
34.393
34.361
34.33
34.299
34.269
34.239
34.21
34.181
34.153
34.127
34.104
34.084
34.069
34.06
34.058
34.067
34.087
34.123
34.176
34.248
34.341
34.456
34.594
34.753
34.933
35.133
35.351
35.585
35.831
36.087
36.35
36.616
36.88
37.139
37.39
37.629
37.852
38.059
38.246
38.413
38.557
38.679
38.778
38.855
38.91
38.946
38.964
38.966
38.952
38.924
38.884
38.833
38.773
38.705
38.631
38.552
38.469
38.382
38.294
38.205
38.115
38.026
37.937
37.85
37.763
37.677
37.592
37.508
37.424
37.34
37.256
37.172
37.087
37.002
36.917
36.832
36.748
36.666
36.585
36.507
36.432
36.36
36.291
36.227
36.168
36.113
36.062
36.016
35.975
35.937
35.903
35.873
35.847
35.825
35.807
35.793
35.782
35.774
35.769
35.765
35.763
35.763
35.763
35.763
35.763
35.762
35.758
35.753
35.745
35.734
35.72
35.703
35.683
35.66
35.634
35.604
35.573
35.539
35.504
35.466
35.428
35.389
35.348
35.307
35.265
35.223
35.18
35.137
35.094
35.05
35.006
34.961
34.916
34.868
34.82
34.769
34.717
34.664
34.609
34.553
34.496
34.437
34.378
34.318
34.258
34.198
34.139
34.081
34.026
33.973
33.922
33.875
33.831
33.79
33.753
33.719
33.688
33.66
33.634
33.61
33.587
33.565
33.544
33.523
33.503
33.485
33.468
33.453
33.441
33.434
33.434
33.443
33.461
33.493
33.54
33.604
33.687
33.79
33.913
34.058
34.223
34.407
34.608
34.824
35.052
35.289
35.531
35.774
36.014
36.248
36.471
36.68
36.875
37.052
37.211
37.35
37.469
37.568
37.648
37.708
37.749
37.774
37.782
37.776
37.758
37.728
37.688
37.639
37.583
37.52
37.452
37.38
37.304
37.225
37.144
37.063
36.98
36.898
36.816
36.735
36.654
36.574
36.493
36.413
36.332
36.251
36.17
36.089
36.008
35.927
35.847
35.767
35.689
35.613
35.541
35.473
35.409
35.35
35.296
35.248
35.205
35.168
35.137
35.112
35.092
35.077
35.067
35.06
35.058
35.06
35.064
35.072
35.082
35.093
35.105
35.118
35.131
35.142
35.153
35.162
35.17
35.175
35.178
35.179
35.177
35.172
35.165
35.154
35.141
35.124
35.104
35.081
35.055
35.026
34.993
34.958
34.921
34.882
34.842
34.801
34.759
34.717
34.675
34.632
34.59
34.548
34.508
34.47
34.433
34.398
34.365
34.333
34.303
34.273
34.245
34.218
34.192
34.167
34.143
34.12
34.097
34.074
34.051
34.029
34.008
33.986
33.964
33.942
33.919
33.896
33.872
33.848
33.823
33.798
33.773
33.748
33.723
33.699
33.674
33.649
33.624
33.6
33.577
33.557
33.54
33.529
33.524
33.529
33.546
33.577
33.624
33.689
33.774
33.88
34.008
34.158
34.33
34.521
34.731
34.958
35.198
35.45
35.708
35.97
36.232
36.489
36.737
36.973
37.193
37.396
37.579
37.74
37.88
37.997
38.092
38.166
38.219
38.253
38.269
38.269
38.254
38.228
38.191
38.146
38.094
38.037
37.976
37.913
37.848
37.782
37.717
37.653
37.591
37.53
37.472
37.416
37.361
37.308
37.256
37.204
37.152
37.099
37.046
36.99
36.934
36.875
36.815
36.755
36.693
36.632
36.571
36.512
36.453
36.397
36.343
36.292
36.244
36.2
36.159
36.123
36.091
36.062
36.038
36.018
36.001
35.989
35.98
35.974
35.971
35.97
35.972
35.974
35.977
35.981
35.985
35.988
35.991
35.992
35.992
35.991
35.988
35.984
35.978
35.969
35.958
35.945
35.928
35.909
35.887
35.862
35.834
35.803
35.769
35.732
35.693
35.652
35.609
35.565
35.521
35.476
35.431
35.387
35.344
35.301
35.26
35.219
35.179
35.139
35.101
35.064
35.028
34.993
34.958
34.924
34.89
34.856
34.822
34.788
34.755
34.721
34.688
34.655
34.623
34.591
34.561
34.53
34.501
34.471
34.442
34.412
34.382
34.351
34.32
34.289
34.257
34.226
34.196
34.167
34.139
34.114
34.093
34.076
34.065
34.061
34.067
34.084
34.114
34.16
34.224
34.307
34.411
34.536
34.682
34.849
35.035
35.238
35.457
35.687
35.926
36.169
36.414
36.656
36.891
37.118
37.332
37.532
37.715
37.879
38.024
38.149
38.253
38.336
38.399
38.442
38.467
38.474
38.467
38.446
38.413
38.372
38.322
38.266
38.206
38.142
38.075
38.007
37.938
37.869
37.8
37.732
37.664
37.597
37.53
37.463
37.395
37.326
37.257
37.186
37.114
37.041
36.967
36.893
36.818
36.744
36.67
36.597
36.525
36.456
36.388
36.324
36.263
36.206
36.154
36.106
36.064
36.026
35.993
35.964
35.94
35.92
35.903
35.89
35.879
35.87
35.864
35.861
35.859
35.859
35.861
35.864
35.869
35.875
35.881
35.889
35.896
35.902
35.907
35.911
35.912
35.91
35.905
35.897
35.885
35.87
35.85
35.828
35.802
35.774
35.743
35.71
35.674
35.636
35.597
35.555
35.512
35.468
35.424
35.38
35.335
35.29
35.245
35.2
35.156
35.112
35.069
35.027
34.986
34.946
34.908
34.871
34.835
34.801
34.769
34.739
34.71
34.684
34.658
34.634
34.612
34.59
34.569
34.549
34.529
34.51
34.49
34.471
34.451
34.431
34.411
34.389
34.367
34.344
34.321
34.296
34.271
34.245
34.218
34.191
34.165
34.141
34.12
34.104
34.094
34.093
34.103
34.126
34.163
34.218
34.291
34.385
34.501
34.639
34.799
34.979
35.178
35.394
35.624
35.864
36.111
36.362
36.612
36.859
37.097
37.325
37.539
37.736
37.916
38.076
38.215
38.332
38.429
38.504
38.561
38.599
38.62
38.625
38.617
38.598
38.569
38.532
38.489
38.441
38.389
38.334
38.277
38.219
38.16
38.101
38.043
37.985
37.928
37.871
37.816
37.762
37.709
37.656
37.604
37.553
37.501
37.449
37.396
37.343
37.288
37.232
37.174
37.115
37.056
36.996
36.937
36.879
36.823
36.77
36.72
36.674
36.632
36.594
36.56
36.531
36.506
36.486
36.471
36.459
36.452
36.448
36.447
36.448
36.45
36.454
36.458
36.462
36.466
36.468
36.469
36.468
36.465
36.459
36.45
36.438
36.423
36.406
36.385
36.361
36.336
36.307
36.277
36.245
36.212
36.176
36.139
36.099
36.057
36.012
35.966
35.919
35.87
35.822
35.773
35.724
35.675
35.626
35.578
35.53
35.483
35.437
35.392
35.348
35.306
35.267
35.229
35.193
35.158
35.125
35.093
35.062
35.03
34.999
34.967
34.934
34.901
34.866
34.83
34.793
34.756
34.718
34.681
34.644
34.608
34.572
34.538
34.505
34.473
34.444
34.416
34.39
34.366
34.343
34.321
34.301
34.282
34.264
34.247
34.23
34.213
34.197
34.181
34.166
34.152
34.139
34.128
34.12
34.116
34.117
34.125
34.142
34.171
34.213
34.269
34.343
34.435
34.546
34.676
34.826
34.995
35.18
35.381
35.593
35.814
36.041
36.27
36.497
36.719
36.933
37.134
37.322
37.493
37.646
37.779
37.892
37.986
38.06
38.117
38.156
38.179
38.188
38.184
38.168
38.141
38.104
38.059
38.007
37.949
37.887
37.821
37.752
37.68
37.608
37.534
37.459
37.383
37.307
37.231
37.154
37.076
36.999
36.922
36.846
36.77
36.694
36.62
36.545
36.472
36.399
36.326
36.255
36.185
36.117
36.05
35.985
35.923
35.863
35.808
35.756
35.709
35.667
35.631
35.599
35.572
35.55
35.533
35.52
35.511
35.505
35.503
35.502
35.504
35.506
35.509
35.511
35.511
35.51
35.507
35.502
35.494
35.484
35.471
35.456
35.437
35.415
35.39
35.361
35.33
35.296
35.259
35.222
35.182
35.142
35.1
35.058
35.016
34.973
34.931
34.889
34.847
34.805
34.764
34.722
34.681
34.639
34.598
34.556
34.514
34.472
34.43
34.387
34.344
34.302
34.259
34.216
34.174
34.133
34.092
34.051
34.011
33.972
33.932
33.893
33.854
33.816
33.779
33.742
33.707
33.673
33.639
33.607
33.575
33.543
33.513
33.484
33.455
33.428
33.401
33.375
33.35
33.326
33.302
33.278
33.255
33.232
33.209
33.186
33.163
33.139
33.117
33.096
33.077
33.062
33.053
33.051
33.058
33.075
33.105
33.149
33.209
33.286
33.382
33.497
33.63
33.782
33.951
34.135
34.332
34.539
34.754
34.972
35.191
35.407
35.617
35.818
36.008
36.184
36.345
36.488
36.614
36.72
36.808
36.876
36.926
36.959
36.974
36.975
36.962
36.936
36.899
36.853
36.8
36.74
36.676
36.608
36.537
36.464
36.39
36.315
36.24
36.166
36.092
36.02
35.949
35.879
35.811
35.743
35.676
35.609
35.541
35.473
35.404
35.334
35.263
35.191
35.118
35.046
34.974
34.903
34.836
34.771
34.71
34.654
34.602
34.556
34.515
34.479
34.45
34.426
34.407
34.393
34.385
34.38
34.379
34.38
34.384
34.389
34.394
34.399
34.404
34.408
34.411
34.413
34.413
34.411
34.408
34.402
34.394
34.383
34.371
34.357
34.34
34.322
34.301
34.278
34.253
34.225
34.195
34.163
34.129
34.093
34.055
34.016
33.976
33.935
33.893
33.85
33.808
33.767
33.726
33.686
33.648
33.611
33.576
33.542
33.509
33.477
33.446
33.415
33.384
33.353
33.322
33.292
33.262
33.233
33.205
33.179
33.155
33.132
33.11
33.089
33.069
33.05
33.031
33.013
32.996
32.979
32.963
32.947
32.932
32.918
32.903
32.89
32.876
32.864
32.852
32.84
32.83
32.821
32.813
32.805
32.797
32.79
32.783
32.777
32.772
32.769
32.77
32.775
32.786
32.805
32.833
32.873
32.928
32.998
33.086
33.192
33.318
33.465
33.631
33.816
34.02
34.238
34.471
34.713
34.963
35.217
35.471
35.722
35.967
36.202
36.425
36.633
36.825
36.998
37.152
37.285
37.399
37.492
37.565
37.618
37.654
37.673
37.677
37.668
37.647
37.617
37.578
37.533
37.483
37.43
37.375
37.318
37.26
37.202
37.144
37.086
37.029
36.971
36.914
36.857
36.801
36.746
36.692
36.639
36.586
36.534
36.482
36.429
36.376
36.322
36.267
36.212
36.156
36.101
36.046
35.993
35.941
35.892
35.845
35.801
35.761
35.724
35.69
35.659
35.633
35.61
35.592
35.577
35.566
35.559
35.556
35.555
35.557
35.561
35.568
35.576
35.584
35.593
35.602
35.609
35.615
35.619
35.621
35.62
35.615
35.608
35.597
35.583
35.566
35.547
35.524
35.5
35.473
35.445
35.414
35.382
35.349
35.314
35.277
35.239
35.2
35.161
35.122
35.083
35.044
35.006
34.967
34.929
34.892
34.854
34.817
34.78
34.745
34.71
34.676
34.642
34.61
34.578
34.547
34.517
34.487
34.458
34.43
34.402
34.375
34.349
34.323
34.297
34.272
34.248
34.224
34.2
34.178
34.156
34.135
34.114
34.093
34.073
34.052
34.03
34.008
33.985
