Trial 3:3back
36.278
36.288
36.296
36.304
36.31
36.316
36.32
36.322
36.324
36.324
36.323
36.32
36.314
36.306
36.295
36.28
36.261
36.24
36.215
36.189
36.162
36.136
36.109
36.084
36.059
36.035
36.011
35.987
35.964
35.941
35.918
35.895
35.872
35.849
35.826
35.802
35.778
35.752
35.725
35.697
35.669
35.64
35.61
35.581
35.551
35.522
35.494
35.465
35.436
35.408
35.38
35.353
35.327
35.301
35.277
35.253
35.23
35.207
35.184
35.161
35.137
35.112
35.089
35.066
35.045
35.026
35.009
34.994
34.981
34.968
34.957
34.946
34.936
34.927
34.917
34.907
34.895
34.882
34.868
34.852
34.835
34.818
34.801
34.784
34.768
34.752
34.736
34.72
34.705
34.691
34.676
34.661
34.647
34.632
34.618
34.604
34.59
34.576
34.563
34.551
34.538
34.526
34.514
34.502
34.49
34.478
34.466
34.454
34.442
34.43
34.418
34.406
34.392
34.378
34.364
34.348
34.331
34.312
34.292
34.271
34.248
34.225
34.202
34.178
34.154
34.13
34.105
34.081
34.057
34.035
34.014
33.995
33.979
33.966
33.956
33.95
33.948
33.952
33.963
33.982
34.01
34.049
34.1
34.163
34.24
34.331
34.436
34.555
34.688
34.832
34.987
35.151
35.323
35.501
35.682
35.865
36.047
36.224
36.396
36.559
36.714
36.858
36.992
37.115
37.228
37.331
37.423
37.505
37.577
37.639
37.69
37.732
37.765
37.79
37.809
37.823
37.832
37.839
37.843
37.846
37.848
37.848
37.848
37.846
37.842
37.837
37.83
37.821
37.81
37.797
37.783
37.769
37.753
37.737
37.722
37.706
37.689
37.671
37.651
37.629
37.606
37.581
37.554
37.525
37.494
37.462
37.427
37.391
37.354
37.316
37.277
37.238
37.2
37.164
37.129
37.098
37.07
37.047
37.028
37.013
37.002
36.995
36.991
36.991
36.993
36.997
37.002
37.009
37.017
37.026
37.036
37.047
37.058
37.069
37.079
37.088
37.095
37.099
37.101
37.1
37.096
37.09
37.08
37.069
37.055
37.039
37.022
37.003
36.983
36.961
36.936
36.91
36.883
36.855
36.827
36.798
36.769
36.74
36.711
36.683
36.655
36.627
36.599
36.571
36.543
36.515
36.487
36.458
36.429
36.399
36.369
36.337
36.305
36.271
36.236
36.201
36.166
36.13
36.096
36.062
36.028
35.997
35.966
35.935
35.906
35.876
35.847
35.819
35.791
35.763
35.736
35.71
35.683
35.656
35.629
35.602
35.576
35.549
35.524
35.499
35.475
35.451
35.429
35.408
35.389
35.371
35.354
35.339
35.324
35.309
35.294
35.278
35.261
35.243
35.224
35.204
35.183
35.162
35.14
35.117
35.095
35.072
35.049
35.026
35.002
34.979
34.956
34.934
34.914
34.895
34.877
34.861
34.845
34.828
34.812
34.795
34.778
34.76
34.742
34.725
34.707
34.69
34.672
34.655
34.638
34.622
34.606
34.591
34.576
34.561
34.544
34.526
34.505
34.482
34.456
34.428
34.398
34.366
34.332
34.296
34.26
34.223
34.187
34.153
34.121
34.092
34.068
34.047
34.03
34.019
34.013
34.014
34.022
34.039
34.067
34.106
34.157
34.222
34.301
34.394
34.501
34.622
34.756
34.901
35.056
35.217
35.385
35.556
35.728
35.899
36.068
36.232
36.389
36.538
36.677
36.806
36.923
37.027
37.12
37.201
37.269
37.327
37.374
37.412
37.441
37.464
37.48
37.49
37.495
37.495
37.492
37.484
37.474
37.461
37.447
37.431
37.415
37.399
37.383
37.368
37.352
37.336
37.32
37.302
37.283
37.261
37.236
37.208
37.177
37.145
37.11
37.074
37.038
37.0
36.963
36.923
36.883
36.841
36.797
36.751
36.704
36.657
36.61
36.563
36.516
36.47
36.425
36.382
36.342
36.304
36.27
36.239
36.213
36.191
36.173
36.159
36.149
36.144
36.142
36.145
36.151
36.161
36.175
36.19
36.208
36.226
36.244
36.262
36.279
36.295
36.308
36.319
36.327
36.331
36.331
36.326
36.317
36.305
36.288
36.269
36.248
36.226
36.202
36.179
36.154
36.13
36.106
36.08
36.054
36.027
35.998
35.969
35.939
35.908
35.877
35.844
35.81
35.774
35.736
35.697
35.658
35.618
35.579
35.541
35.504
35.468
35.433
35.398
35.363
35.328
35.293
35.257
35.221
35.185
35.149
35.113
35.077
35.041
35.004
34.968
34.932
34.897
34.863
34.83
34.8
34.772
34.746
34.723
34.703
34.684
34.667
34.651
34.636
34.621
34.608
34.594
34.582
34.57
34.557
34.544
34.531
34.517
34.502
34.487
34.473
34.459
34.445
34.431
34.416
34.402
34.387
34.372
34.357
34.341
34.325
34.309
34.292
34.276
34.259
34.241
34.224
34.206
34.188
34.169
34.15
34.13
34.109
34.087
34.064
34.039
34.013
33.986
33.958
33.928
33.898
33.867
33.836
33.806
33.776
33.749
33.724
33.703
33.685
33.67
33.659
33.652
33.648
33.65
33.658
33.672
33.695
33.725
33.766
33.816
33.877
33.949
34.035
34.133
34.244
34.366
34.5
34.644
34.795
34.951
35.112
35.274
35.436
35.595
35.75
35.898
36.039
36.172
36.294
36.406
36.508
36.598
36.677
36.744
36.801
36.847
36.883
36.91
36.93
36.944
36.953
36.959
36.961
36.961
36.959
36.955
36.948
36.939
36.927
36.914
36.899
36.882
36.864
36.845
36.825
36.803
36.78
36.756
36.732
36.707
36.682
36.655
36.627
36.598
36.568
36.536
36.504
36.469
36.434
36.397
36.357
36.316
36.271
36.225
36.177
36.127
36.078
36.029
35.982
35.938
35.896
35.858
35.825
35.795
35.771
35.75
35.735
35.724
35.717
35.715
35.717
35.723
35.732
35.743
35.756
35.77
35.785
35.801
35.817
35.834
35.849
35.864
35.876
35.886
35.891
35.893
35.891
35.886
35.877
35.865
35.851
35.835
35.818
35.799
35.779
35.758
35.737
35.715
35.692
35.668
35.644
35.618
35.592
35.565
35.538
35.511
35.485
35.459
35.432
35.406
35.378
35.351
35.323
35.295
35.268
35.24
35.213
35.187
35.161
35.135
35.109
35.083
35.057
35.03
35.002
34.973
34.944
34.915
34.885
34.855
34.825
34.794
34.762
34.729
34.696
34.663
34.63
34.598
34.567
34.538
34.51
34.484
34.461
34.439
34.42
34.403
34.388
34.374
34.363
34.352
34.342
34.333
34.323
34.313
34.303
34.292
34.281
34.27
34.258
34.246
34.233
34.218
34.203
34.186
34.168
34.15
34.131
34.113
34.095
34.077
34.059
34.042
34.024
34.007
33.991
33.975
33.961
33.949
33.937
33.927
33.917
33.908
33.899
33.89
33.881
33.871
33.861
33.849
33.836
33.822
33.807
33.791
33.773
33.755
33.735
33.713
33.691
33.667
33.643
33.618
33.594
33.569
33.545
33.521
33.498
33.477
33.457
33.439
33.424
33.411
33.402
33.397
33.396
33.4
33.41
33.427
33.452
33.487
33.532
33.589
33.659
33.744
33.843
33.956
34.083
34.221
34.371
34.531
34.699
34.874
35.054
35.236
35.418
35.598
35.773
35.941
36.099
36.247
36.383
36.508
36.621
36.722
36.812
36.891
36.959
37.018
37.068
37.109
37.144
37.173
37.195
37.213
37.227
37.237
37.243
37.247
37.248
37.246
37.241
37.233
37.223
37.209
37.194
37.177
37.158
37.139
37.119
37.098
37.078
37.057
37.036
37.014
36.991
36.968
36.944
36.921
36.897
36.873
36.848
36.822
36.795
36.766
36.735
36.702
36.666
36.627
36.586
36.543
36.499
36.455
36.411
36.37
36.332
36.298
36.267
36.241
36.22
36.204
36.193
36.186
36.185
36.187
36.193
36.203
36.215
36.23
36.247
36.265
36.285
36.304
36.323
36.341
36.356
36.369
36.379
36.385
36.387
36.384
36.376
36.364
36.346
36.324
36.297
36.267
36.235
36.202
36.168
36.134
36.101
36.068
36.035
36.003
35.97
35.938
35.905
35.872
35.84
35.81
35.782
35.756
35.732
35.711
35.69
35.671
35.651
35.631
35.61
35.588
35.564
35.538
35.51
35.481
35.451
35.419
35.387
35.354
35.321
35.288
35.256
35.224
35.193
35.164
35.136
35.109
35.083
35.057
35.032
35.009
34.986
34.963
34.941
34.92
34.898
34.878
34.858
34.84
34.824
34.81
34.797
34.785
34.773
34.763
34.752
34.742
34.732
34.722
34.712
34.701
34.689
34.677
34.664
34.651
34.637
34.623
34.609
34.594
34.578
34.562
34.546
34.53
34.515
34.5
34.485
34.471
34.458
34.445
34.433
34.423
34.413
34.403
34.393
34.382
34.371
34.359
34.347
34.335
34.321
34.307
34.292
34.276
34.26
34.242
34.224
34.206
34.186
34.165
34.142
34.117
34.09
34.061
34.031
33.999
33.967
33.934
33.901
33.868
33.837
33.807
33.78
33.755
33.734
33.717
33.704
33.697
33.697
33.703
33.719
33.743
33.778
33.826
33.886
33.96
34.049
34.152
34.269
34.399
34.542
34.694
34.856
35.025
35.2
35.379
35.56
35.742
35.923
36.099
36.271
36.437
36.594
36.742
36.879
37.005
37.118
37.218
37.306
37.38
37.443
37.493
37.533
37.563
37.584
37.598
37.605
37.607
37.603
37.595
37.585
37.572
37.559
37.546
37.533
37.52
37.508
37.498
37.488
37.479
37.471
37.462
37.453
37.441
37.428
37.413
37.396
37.377
37.357
37.334
37.311
37.286
37.258
37.229
37.196
37.161
37.123
37.083
37.041
36.999
36.956
36.912
36.869
36.825
36.781
36.738
36.696
36.656
36.618
36.583
36.552
36.526
36.505
36.49
36.48
36.476
36.475
36.478
36.484
36.492
36.503
36.515
36.53
36.545
36.562
36.58
36.597
36.613
36.627
36.638
36.646
36.651
36.652
36.648
36.641
36.629
36.613
36.594
36.57
36.542
36.512
36.48
36.447
36.413
36.379
36.345
36.313
36.282
36.252
36.224
36.197
36.171
36.145
36.12
36.095
36.069
36.044
36.018
35.992
35.964
35.936
35.907
35.876
35.843
35.81
35.774
35.738
35.7
35.661
35.622
35.584
35.546
35.51
35.474
35.439
35.404
35.369
35.335
35.301
35.269
35.238
35.21
35.185
35.162
35.141
35.122
35.103
35.085
35.067
35.049
35.031
35.013
34.995
34.978
34.961
34.945
34.929
34.912
34.897
34.881
34.866
34.851
34.836
34.822
34.809
34.797
34.784
34.772
34.759
34.746
34.732
34.717
34.701
34.684
34.666
34.647
34.627
34.606
34.585
34.563
34.541
34.519
34.497
34.475
34.454
34.433
34.411
34.389
34.367
34.345
34.324
34.302
34.281
34.259
34.237
34.214
34.19
34.166
34.142
34.118
34.094
34.071
34.047
34.023
34.0
33.978
33.958
33.939
33.923
33.91
33.899
33.89
33.886
33.885
33.889
33.9
33.917
33.943
33.98
34.027
34.086
34.158
34.243
34.34
34.45
34.572
34.706
34.851
35.005
35.168
35.338
35.513
35.689
35.865
36.039
36.207
36.368
36.521
36.665
36.799
36.923
37.036
37.138
37.228
37.307
37.374
37.43
37.475
37.511
37.537
37.556
37.568
37.573
37.574
37.571
37.565
37.557
37.547
37.537
37.526
37.515
37.504
37.492
37.479
37.466
37.451
37.435
37.419
37.401
37.381
37.36
37.336
37.31
37.283
37.252
37.22
37.185
37.148
37.109
37.067
37.022
36.975
36.926
36.875
36.823
36.771
36.717
36.665
36.614
36.565
36.521
36.48
36.445
36.415
36.391
36.374
36.361
36.354
36.352
36.354
36.36
36.369
36.381
36.395
36.41
36.427
36.443
36.459
36.474
36.487
36.499
36.51
36.519
36.526
36.531
36.533
36.533
36.53
36.525
36.516
36.504
36.488
36.471
36.451
36.429
36.406
36.382
36.356
36.33
36.303
36.274
36.245
36.215
36.184
36.153
36.122
36.09
36.057
36.024
35.991
35.958
35.926
35.895
35.864
35.832
35.8
35.767
35.733
35.699
35.663
35.627
35.591
35.554
35.519
35.483
35.447
35.412
35.378
35.343
35.31
35.278
35.247
35.218
35.191
35.165
35.14
35.115
35.092
35.069
35.047
35.026
35.005
34.986
34.966
34.947
34.928
34.909
34.889
34.869
34.849
34.829
34.809
34.789
34.77
34.752
34.734
34.716
34.698
34.681
34.663
34.645
34.628
34.61
34.592
34.573
34.553
34.533
34.512
34.491
34.47
34.45
34.43
34.413
34.396
34.382
34.369
34.358
34.348
34.339
34.33
34.322
34.313
34.302
34.291
34.278
34.264
34.249
34.231
34.212
34.191
34.167
34.141
34.113
34.083
34.051
34.019
33.988
33.956
33.926
33.896
33.868
33.842
33.819
33.799
33.782
33.77
33.763
33.762
33.768
33.782
33.804
33.836
33.879
33.936
34.007
34.093
34.195
34.313
34.446
34.595
34.756
34.93
35.114
35.305
35.504
35.706
35.91
36.113
36.314
36.51
36.7
36.882
37.054
37.216
37.367
37.505
37.63
37.742
37.841
37.928
38.002
38.064
38.116
38.157
38.189
38.213
38.23
38.24
38.246
38.247
38.246
38.242
38.235
38.228
38.219
38.208
38.197
38.185
38.171
38.157
38.142
38.125
38.107
38.088
38.067
38.046
38.024
38.001
37.978
37.954
37.93
37.904
37.876
37.846
37.814
37.778
37.739
37.696
37.652
37.605
37.557
37.51
37.462
37.417
37.373
37.331
37.292
37.257
37.225
37.197
37.173
37.154
37.139
37.128
37.122
37.12
37.121
37.126
37.133
37.142
37.152
37.163
37.173
37.182
37.19
37.196
37.2
37.202
37.203
37.202
37.199
37.194
37.186
37.176
37.163
37.148
37.13
37.111
37.088
37.064
37.037
37.009
36.98
36.949
36.918
36.886
36.853
36.819
36.784
36.748
36.71
36.671
36.63
36.588
36.545
36.502
36.458
36.414
36.371
36.327
36.285
36.242
36.201
36.16
36.121
36.082
36.043
36.006
35.97
35.935
35.901
35.867
35.833
35.798
35.764
35.73
35.696
35.663
35.63
35.597
35.563
35.53
35.498
35.467
35.438
35.41
35.386
35.363
35.342
35.323
35.305
35.286
35.268
35.25
35.232
35.213
35.196
35.178
35.161
35.144
35.127
35.111
35.094
35.077
35.059
35.041
35.022
35.002
34.981
34.958
34.934
34.909
34.881
34.852
34.823
34.793
34.765
34.737
34.711
34.686
34.663
34.642
34.623
34.606
34.59
34.576
34.563
34.551
34.538
34.525
34.513
34.499
34.485
34.469
34.452
34.431
34.409
34.384
34.357
34.328
34.298
34.267
34.235
34.203
34.17
34.136
34.103
34.069
34.037
34.006
33.976
33.949
33.924
33.902
33.884
33.871
33.864
33.864
33.873
33.893
33.925
33.971
34.032
34.11
34.204
34.314
34.441
34.583
34.738
34.907
35.087
35.277
35.474
35.677
35.883
36.089
36.294
36.496
36.693
36.883
37.064
37.236
37.397
37.546
37.684
37.809
37.923
38.024
38.113
38.19
38.256
38.31
38.354
38.387
38.41
38.425
38.431
38.431
38.426
38.416
38.403
38.387
38.37
38.351
38.331
38.311
38.291
38.27
38.25
38.228
38.207
38.185
38.162
38.139
38.115
38.09
38.065
38.038
38.009
37.978
37.943
37.906
37.865
37.821
37.775
37.726
37.674
37.621
37.566
37.509
37.452
37.395
37.34
37.287
37.238
37.192
37.151
37.115
37.085
37.061
37.043
37.03
37.022
37.019
37.02
37.024
37.03
37.039
37.051
37.064
37.079
37.094
37.109
37.123
37.136
37.146
37.153
37.157
37.158
37.156
37.15
37.141
37.129
37.113
37.093
37.069
37.042
37.011
36.977
36.94
36.9
36.858
36.814
36.769
36.724
36.678
36.633
36.588
36.544
36.5
36.455
36.411
36.367
36.324
36.281
36.24
36.201
36.163
36.127
36.092
36.059
36.027
35.994
35.962
35.929
35.895
35.859
35.823
35.785
35.745
35.705
35.664
35.622
35.579
35.536
35.493
35.451
35.409
35.369
35.331
35.295
35.262
35.23
35.199
35.169
35.139
35.11
35.082
35.055
35.028
35.003
34.979
34.957
34.937
34.919
34.904
34.89
34.876
34.862
34.848
34.833
34.816
34.798
34.78
34.76
34.74
34.719
34.696
34.672
34.649
34.625
34.601
34.578
34.555
34.534
34.513
34.493
34.474
34.457
34.44
34.425
34.412
34.399
34.387
34.375
34.363
34.35
34.335
34.318
34.298
34.277
34.253
34.228
34.201
34.173
34.142
34.11
34.076
34.039
34.001
33.963
33.923
33.884
33.845
33.807
33.771
33.736
33.704
33.674
33.648
33.625
33.607
33.592
33.583
33.58
33.583
33.594
33.613
33.644
33.685
33.74
33.808
33.891
33.989
34.101
34.228
34.369
34.523
34.688
34.863
35.046
35.234
35.426
35.62
35.814
36.005
36.191
36.37
36.541
36.7
36.848
36.982
37.102
37.208
37.299
37.377
37.443
37.497
37.541
37.577
37.604
37.625
37.639
37.648
37.653
37.654
37.651
37.646
37.638
37.628
37.616
37.602
37.585
37.566
37.543
37.517
37.487
37.453
37.414
37.372
37.324
37.272
37.215
37.154
37.089
37.022
36.953
36.884
36.815
36.748
36.682
36.62
36.56
36.505
36.453
36.407
36.366
36.33
36.299
36.273
36.251
36.233
36.218
36.205
36.193
36.184
36.175
36.168
36.162
36.156
36.152
36.15
36.15
36.152
36.157
36.164
36.173
36.182
36.192
36.203
36.215
36.227
36.239
36.251
36.261
36.269
36.273
36.275
36.275
36.272
36.267
36.26
36.252
36.242
36.23
36.216
36.199
36.18
36.159
36.135
36.109
36.08
36.049
36.016
35.981
35.945
35.906
35.866
35.823
35.779
35.734
35.688
35.641
35.594
35.546
35.499
35.451
35.403
35.355
35.308
35.263
35.218
35.174
35.131
35.089
35.047
35.007
34.966
34.926
34.888
34.85
34.815
34.78
34.747
34.715
34.683
34.653
34.623
34.595
34.567
34.54
34.515
34.491
34.467
34.444
34.422
34.4
34.379
34.359
34.339
34.318
34.297
34.275
34.253
34.232
34.21
34.189
34.168
34.148
34.128
34.11
34.092
34.075
34.058
34.042
34.028
34.014
34.001
33.988
33.976
33.965
33.954
33.942
33.93
33.918
33.905
33.892
33.878
33.863
33.848
33.832
33.814
33.795
33.775
33.754
33.73
33.704
33.676
33.645
33.612
33.576
33.539
33.501
33.463
33.425
33.388
33.353
33.319
33.287
33.257
33.23
33.206
33.186
33.171
33.162
33.16
33.168
33.186
33.216
33.26
33.318
33.391
33.482
33.588
33.71
33.847
33.997
34.159
34.329
34.507
34.69
34.876
35.063
35.248
35.431
35.608
35.779
35.941
36.093
36.234
36.363
36.479
36.582
36.672
36.747
36.81
36.86
36.898
36.926
36.944
36.954
36.957
36.955
36.947
36.936
36.923
36.908
36.892
36.876
36.86
36.846
36.831
36.817
36.803
36.789
36.773
36.757
36.739
36.721
36.701
36.679
36.656
36.63
36.603
36.573
36.54
36.505
36.467
36.426
36.383
36.337
36.289
36.238
36.186
36.133
36.08
36.025
35.971
35.916
35.863
35.811
35.763
35.718
35.677
35.639
35.606
35.578
35.553
35.533
35.517
35.505
35.497
35.492
35.49
35.491
35.493
35.498
35.503
35.509
35.516
35.524
35.531
35.537
35.542
35.545
35.545
35.543
35.538
35.53
35.519
35.504
35.486
35.463
35.438
35.41
35.381
35.351
35.321
35.291
35.262
35.235
35.208
35.182
35.157
35.132
35.108
35.083
35.059
35.034
35.008
34.981
34.952
34.922
34.889
34.854
34.817
34.78
34.741
34.702
34.663
34.623
34.582
34.541
34.501
34.46
34.419
34.379
34.338
34.298
34.259
34.221
34.185
34.15
34.118
34.087
34.057
34.027
33.999
33.97
33.943
33.916
33.891
33.866
33.842
33.82
33.798
33.777
33.756
33.735
33.715
33.695
33.676
33.656
33.637
33.618
33.599
33.581
33.564
33.547
33.53
33.514
33.499
33.483
33.467
33.45
33.433
33.416
33.399
33.381
33.364
33.346
33.327
33.307
33.286
33.264
33.242
33.22
33.199
33.18
33.162
33.145
33.129
33.115
33.103
33.094
33.087
33.082
33.078
33.074
33.07
33.064
33.056
33.047
33.036
33.022
33.006
32.988
32.968
32.946
32.923
32.897
32.87
32.841
32.811
32.781
32.752
32.722
32.693
32.666
32.639
32.614
32.592
32.573
32.558
32.548
32.544
32.547
32.557
32.575
32.605
32.646
32.7
32.768
32.85
32.946
33.056
33.179
33.314
33.461
33.616
33.779
33.947
34.118
34.29
34.46
34.627
34.789
34.944
35.089
35.225
35.349
35.461
35.562
35.65
35.726
35.79
35.842
35.882
35.912
35.932
35.943
35.947
35.943
35.933
35.919
35.902
35.881
35.86
35.838
35.816
35.796
35.777
35.758
35.74
35.723
35.707
35.69
35.674
35.659
35.644
35.628
35.611
35.592
35.571
35.548
35.523
35.495
35.466
35.435
35.403
35.37
35.335
35.297
35.257
35.214
35.169
35.122
35.073
35.024
34.975
34.927
34.881
34.837
34.796
34.759
34.725
34.695
34.671
34.652
34.639
34.631
34.629
34.632
34.639
34.651
34.665
34.683
34.703
34.726
34.75
34.776
34.801
34.826
34.849
34.87
34.886
34.898
34.906
34.907
34.904
34.895
34.881
34.864
34.843
34.819
34.794
34.767
34.738
34.708
34.677
34.645
34.615
34.585
34.555
34.527
34.499
34.471
34.444
34.416
34.389
34.362
34.336
34.309
34.283
34.257
34.231
34.205
34.179
34.154
34.13
34.107
34.085
34.063
34.041
34.02
34.0
33.979
33.958
33.937
33.916
33.894
33.873
33.851
33.829
33.807
33.785
33.763
33.741
33.719
33.697
