Trial 1:0back
33.136
33.11
33.086
33.066
33.05
33.035
33.024
33.013
33.004
32.995
32.986
32.978
32.97
32.962
32.952
32.94
32.925
32.907
32.887
32.864
32.841
32.816
32.792
32.77
32.75
32.735
32.723
32.716
32.714
32.716
32.721
32.73
32.74
32.752
32.762
32.772
32.779
32.784
32.787
32.789
32.787
32.783
32.778
32.773
32.768
32.768
32.772
32.785
32.809
32.85
32.913
33.003
33.125
33.286
33.489
33.74
34.04
34.389
34.785
35.223
35.694
36.19
36.698
37.208
37.707
38.183
38.626
39.025
39.374
39.667
39.9
40.073
40.186
40.241
40.242
40.195
40.106
39.983
39.833
39.664
39.482
39.292
39.1
38.909
38.721
38.54
38.368
38.206
38.053
37.911
37.778
37.655
37.539
37.43
37.326
37.227
37.132
37.04
36.951
36.864
36.777
36.69
36.602
36.511
36.417
36.321
36.221
36.12
36.017
35.912
35.806
35.697
35.587
35.476
35.365
35.255
35.149
35.046
34.948
34.857
34.774
34.699
34.635
34.581
34.537
34.504
34.481
34.469
34.467
34.475
34.491
34.515
34.544
34.577
34.613
34.65
34.686
34.72
34.751
34.778
34.799
34.815
34.824
34.825
34.821
34.811
34.798
34.781
34.76
34.735
34.706
34.673
34.637
34.598
34.556
34.508
34.457
34.401
34.344
34.285
34.225
34.164
34.103
34.04
33.977
33.914
33.851
33.79
33.729
33.668
33.609
33.551
33.496
33.443
33.393
33.346
33.302
33.261
33.223
33.188
33.157
33.13
33.107
33.088
33.073
33.06
33.05
33.041
33.033
33.026
33.019
33.014
33.01
33.007
33.004
33.001
32.998
32.996
32.994
32.992
32.989
32.984
32.978
32.969
32.959
32.947
32.934
32.92
32.905
32.889
32.874
32.861
32.851
32.842
32.836
32.831
32.829
32.829
32.834
32.845
32.863
32.89
32.926
32.977
33.044
33.133
33.249
33.394
33.575
33.794
34.054
34.358
34.705
35.091
35.513
35.963
36.433
36.913
37.392
37.859
38.305
38.72
39.094
39.423
39.699
39.921
40.088
40.2
40.261
40.273
40.24
40.169
40.067
39.939
39.792
39.63
39.458
39.278
39.096
38.913
38.733
38.558
38.388
38.227
38.074
37.93
37.794
37.666
37.544
37.428
37.317
37.21
37.105
37.002
36.901
36.802
36.705
36.611
36.518
36.426
36.336
36.245
36.155
36.063
35.97
35.875
35.778
35.679
35.579
35.478
35.376
35.274
35.173
35.076
34.982
34.893
34.809
34.732
34.662
34.601
34.55
34.507
34.475
34.451
34.437
34.431
34.435
34.447
34.467
34.492
34.522
34.554
34.588
34.622
34.657
34.691
34.723
34.752
34.776
34.797
34.812
34.82
34.821
34.814
34.797
34.772
34.739
34.698
34.649
34.595
34.535
34.47
34.401
34.331
34.258
34.186
34.114
34.044
33.976
33.912
33.853
33.797
33.745
33.696
33.652
33.612
33.576
33.542
33.511
33.481
33.454
33.428
33.403
33.377
33.35
33.32
33.287
33.251
33.214
33.179
33.144
33.111
33.08
33.052
33.029
33.009
32.991
32.976
32.965
32.958
32.954
32.954
32.956
32.961
32.968
32.978
32.99
33.002
33.012
33.018
33.017
33.013
33.006
32.999
32.993
32.99
32.988
32.988
32.986
32.983
32.979
32.974
32.968
32.962
32.954
32.943
32.931
32.92
32.912
32.909
32.912
32.926
32.953
32.999
33.068
33.166
33.297
33.465
33.674
33.929
34.231
34.579
34.971
35.402
35.865
36.351
36.85
37.35
37.84
38.307
38.742
39.135
39.479
39.769
40.002
40.177
40.294
40.357
40.369
40.334
40.259
40.149
40.013
39.856
39.685
39.504
39.32
39.137
38.958
38.788
38.626
38.473
38.328
38.193
38.066
37.947
37.836
37.731
37.63
37.533
37.439
37.347
37.255
37.163
37.068
36.972
36.874
36.774
36.673
36.57
36.466
36.362
36.26
36.158
36.059
35.961
35.863
35.767
35.672
35.58
35.49
35.403
35.32
35.241
35.168
35.1
35.038
34.983
34.935
34.893
34.858
34.828
34.805
34.787
34.773
34.764
34.758
34.756
34.757
34.761
34.767
34.773
34.781
34.791
34.803
34.816
34.828
34.839
34.848
34.854
34.858
34.859
34.856
34.849
34.838
34.822
34.801
34.775
34.742
34.702
34.654
34.598
34.536
34.469
34.399
34.327
34.253
34.176
34.099
34.023
33.949
33.878
33.812
33.75
33.693
33.643
33.599
33.56
33.525
33.495
33.469
33.446
33.426
33.409
33.392
33.374
33.357
33.339
33.322
33.305
33.287
33.268
33.25
33.233
33.217
33.201
33.185
33.165
33.144
33.12
33.097
33.074
33.053
33.034
33.018
33.005
32.995
32.99
32.989
32.991
32.996
33.001
33.008
33.017
33.026
33.036
33.046
33.055
33.062
33.067
33.069
33.07
33.067
33.062
33.054
33.044
33.031
33.017
33.003
32.988
32.974
32.962
32.954
32.951
32.956
32.972
33.0
33.044
33.106
33.191
33.304
33.449
33.632
33.854
34.12
34.43
34.784
35.178
35.606
36.06
36.532
37.012
37.489
37.953
38.393
38.8
39.166
39.485
39.751
39.963
40.119
40.222
40.274
40.281
40.245
40.172
40.068
39.941
39.794
39.635
39.465
39.29
39.113
38.936
38.761
38.59
38.425
38.267
38.118
37.978
37.847
37.724
37.609
37.501
37.399
37.301
37.207
37.116
37.028
36.943
36.86
36.778
36.696
36.612
36.527
36.439
36.35
36.26
36.166
36.069
35.969
35.868
35.765
35.663
35.562
35.461
35.364
35.272
35.184
35.103
35.029
34.962
34.904
34.855
34.815
34.784
34.761
34.745
34.735
34.73
34.731
34.737
34.747
34.759
34.774
34.791
34.81
34.831
34.852
34.872
34.89
34.906
34.918
34.926
34.931
34.932
34.928
34.92
34.907
34.89
34.868
34.843
34.814
34.78
34.743
34.702
34.657
34.607
34.553
34.494
34.431
34.365
34.296
34.225
34.151
34.076
34.001
33.926
33.853
33.783
33.717
33.653
33.594
33.54
33.491
33.446
33.407
33.372
33.34
33.312
33.289
33.269
33.252
33.235
33.22
33.205
33.192
33.181
33.171
33.161
33.153
33.147
33.142
33.139
33.137
33.136
33.134
33.134
33.133
33.133
33.134
33.134
33.135
33.136
33.137
33.14
33.143
33.147
33.153
33.16
33.169
33.181
33.192
33.205
33.217
33.229
33.238
33.241
33.239
33.231
33.22
33.205
33.188
33.168
33.146
33.123
33.1
33.079
33.059
33.041
33.026
33.015
33.011
33.016
33.034
33.068
33.12
33.195
33.295
33.426
33.591
33.793
34.033
34.313
34.634
34.994
35.389
35.812
36.256
36.712
37.171
37.623
38.06
38.473
38.854
39.194
39.489
39.734
39.926
40.064
40.15
40.186
40.176
40.124
40.034
39.912
39.765
39.6
39.422
39.236
39.047
38.857
38.671
38.491
38.321
38.161
38.012
37.874
37.747
37.631
37.524
37.425
37.331
37.241
37.154
37.069
36.984
36.899
36.813
36.725
36.634
36.54
36.443
36.344
36.242
36.138
36.032
35.923
35.813
35.704
35.596
35.49
35.389
35.294
35.204
35.121
35.045
34.977
34.918
34.869
34.829
34.799
34.78
34.777
34.793
34.827
34.874
34.929
34.984
35.034
35.078
35.112
35.134
35.144
35.143
35.132
35.116
35.096
35.073
35.05
35.027
35.004
34.98
34.956
34.933
34.91
34.887
34.865
34.841
34.815
34.787
34.757
34.725
34.688
34.647
34.601
34.55
34.495
34.435
34.373
34.308
34.242
34.176
34.11
34.046
33.984
33.925
33.869
33.817
33.768
33.723
33.684
33.649
33.618
33.59
33.566
33.546
33.529
33.516
33.507
33.5
33.494
33.489
33.484
33.481
33.477
33.473
33.468
33.462
33.455
33.449
33.442
33.436
33.43
33.423
33.417
33.412
33.406
33.402
33.398
33.394
33.391
33.389
33.388
33.389
33.391
33.394
33.397
33.4
33.403
33.406
33.407
33.408
33.408
33.406
33.402
33.396
33.387
33.376
33.362
33.344
33.325
33.303
33.28
33.257
33.234
33.211
33.191
33.174
33.162
33.158
33.163
33.182
33.218
33.273
33.352
33.457
33.594
33.765
33.973
34.217
34.5
34.821
35.178
35.567
35.983
36.42
36.869
37.32
37.764
38.191
38.592
38.959
39.285
39.565
39.794
39.969
40.089
40.155
40.172
40.144
40.077
39.978
39.851
39.705
39.543
39.372
39.197
39.021
38.848
38.68
38.519
38.365
38.22
38.084
37.955
37.833
37.715
37.603
37.495
37.392
37.292
37.196
37.1
37.004
36.908
36.813
36.719
36.624
36.528
36.43
36.33
36.231
36.133
36.038
35.946
35.855
35.769
35.686
35.607
35.532
35.46
35.39
35.323
35.259
35.2
35.146
35.096
35.051
35.011
34.978
34.954
34.938
34.929
34.927
34.93
34.938
34.95
34.964
34.981
34.998
35.015
35.032
35.049
35.067
35.083
35.096
35.105
35.11
35.11
35.107
35.1
35.089
35.073
35.053
35.03
35.004
34.975
34.944
34.911
34.876
34.84
34.8
34.758
34.711
34.659
34.602
34.541
34.478
34.414
34.348
34.28
34.211
34.143
34.076
34.011
33.949
33.888
33.83
33.776
33.727
33.684
33.648
33.618
33.593
33.574
33.56
33.551
33.546
33.543
33.54
33.537
33.533
33.529
33.524
33.518
33.509
33.499
33.486
33.472
33.457
33.44
33.421
33.401
33.38
33.358
33.336
33.315
33.296
33.28
33.265
33.252
33.24
33.229
33.218
33.209
33.201
33.194
33.186
33.179
33.172
33.164
33.158
33.151
33.146
33.144
33.147
33.156
33.176
33.207
33.253
33.319
33.408
33.523
33.668
33.846
34.059
34.309
34.597
34.922
35.281
35.669
36.079
36.504
36.934
37.36
37.772
38.16
38.518
38.837
39.112
39.34
39.517
39.644
39.723
39.756
39.747
39.698
39.614
39.501
39.364
39.209
39.04
38.862
38.679
38.495
38.313
38.134
37.959
37.791
37.63
37.475
37.329
37.19
37.059
36.936
36.821
36.713
36.612
36.518
36.429
36.344
36.261
36.18
36.1
36.019
35.939
35.857
35.773
35.687
35.599
35.51
35.422
35.333
35.245
35.158
35.072
34.99
34.91
34.836
34.766
34.702
34.645
34.596
34.557
34.527
34.507
34.496
34.494
34.5
34.514
34.535
34.562
34.594
34.628
34.665
34.704
34.742
34.779
34.813
34.843
34.868
34.887
34.9
34.907
34.906
34.898
34.883
34.861
34.834
34.8
34.761
34.718
34.677
34.641
34.605
34.565
34.519
34.463
34.399
34.33
34.256
34.181
34.105
34.031
33.958
33.891
33.83
33.777
33.732
33.693
33.661
33.633
33.609
33.589
33.57
33.552
33.533
33.513
33.492
33.469
33.445
33.421
33.398
33.377
33.357
33.339
33.324
33.312
33.302
33.296
33.291
33.289
33.29
33.294
33.3
33.308
33.316
33.325
33.334
33.341
33.348
33.353
33.355
33.354
33.35
33.342
33.33
33.314
33.293
33.268
33.24
33.209
33.177
33.146
33.116
33.088
33.064
33.044
33.031
33.025
33.028
33.04
33.064
33.103
33.159
33.235
33.336
33.461
33.615
33.8
34.018
34.271
34.56
34.884
35.239
35.621
36.024
36.441
36.863
37.283
37.69
38.077
38.436
38.76
39.044
39.282
39.472
39.614
39.708
39.757
39.764
39.732
39.667
39.572
39.454
39.318
39.168
39.01
38.848
38.686
38.525
38.368
38.216
38.07
37.93
37.797
37.669
37.546
37.428
37.314
37.205
37.1
37.0
36.902
36.807
36.712
36.62
36.53
36.443
36.357
36.271
36.186
36.102
36.018
35.936
35.856
35.776
35.696
35.617
35.539
35.461
35.386
35.311
35.239
35.171
35.106
35.047
34.993
34.944
34.9
34.862
34.83
34.804
34.784
34.769
34.76
34.756
34.756
34.761
34.77
34.783
34.797
34.814
34.833
34.853
34.875
34.895
34.914
34.93
34.942
34.95
34.953
34.952
34.944
34.93
34.91
34.886
34.855
34.819
34.776
34.729
34.677
34.622
34.563
34.502
34.439
34.375
34.31
34.245
34.18
34.117
34.056
33.996
33.94
33.888
33.839
33.795
33.755
33.718
33.684
33.655
33.63
33.608
33.59
33.574
33.559
33.545
33.532
33.519
33.506
33.492
33.476
33.46
33.443
33.426
33.409
33.392
33.375
33.359
33.342
33.327
33.313
33.301
33.29
33.281
33.274
33.268
33.264
33.262
33.261
33.261
33.261
33.262
33.264
33.265
33.266
33.265
33.262
33.256
33.247
33.238
33.227
33.214
33.201
33.185
33.168
33.151
33.136
33.123
33.116
33.117
33.13
33.159
33.208
33.28
33.379
33.509
33.671
33.87
34.107
34.383
34.696
35.045
35.425
35.831
36.255
36.689
37.125
37.553
37.966
38.355
38.711
39.028
39.301
39.525
39.699
39.822
39.897
39.925
39.912
39.861
39.778
39.668
39.537
39.389
39.232
39.071
38.909
38.751
38.598
38.452
38.315
38.187
38.068
37.958
37.856
37.761
37.672
37.589
37.509
37.433
37.358
37.285
37.211
37.136
37.061
36.982
36.902
36.819
36.733
36.644
36.553
36.458
36.361
36.26
36.157
36.053
35.947
35.842
35.737
35.633
35.531
35.433
35.34
35.253
35.172
35.099
35.034
34.979
34.933
34.897
34.87
34.852
34.842
34.838
34.838
34.841
34.845
34.85
34.855
34.859
34.862
34.864
34.866
34.865
34.863
34.857
34.848
34.837
34.824
34.809
34.792
34.774
34.755
34.735
34.713
34.689
34.663
34.633
34.602
34.569
34.534
34.498
34.46
34.419
34.375
34.329
34.282
34.234
34.186
34.137
34.087
34.038
33.99
33.944
33.9
33.857
33.817
33.779
33.744
33.712
33.685
33.661
33.64
33.622
33.607
33.596
33.588
33.582
33.576
33.572
33.569
33.567
33.565
33.563
33.559
33.554
33.549
33.543
33.537
33.53
33.521
33.511
33.498
33.483
33.466
33.449
33.431
33.414
33.397
33.38
33.363
33.348
33.333
33.321
33.309
33.3
33.291
33.283
33.276
33.27
33.265
33.262
33.262
33.264
33.27
33.28
33.294
33.313
33.338
33.371
33.414
33.47
33.541
33.631
33.743
33.879
34.044
34.241
34.472
34.737
35.035
35.364
35.721
36.099
36.493
36.894
37.295
37.685
38.058
38.404
38.718
38.992
39.225
39.413
39.556
39.655
39.709
39.724
39.702
39.648
39.566
39.459
39.333
39.189
39.034
38.871
38.704
38.535
38.367
38.202
38.044
37.893
37.75
37.617
37.493
37.38
37.277
37.185
37.102
37.027
36.961
36.9
36.843
36.79
36.739
36.69
36.641
36.592
36.541
36.485
36.422
36.353
36.276
36.192
36.102
36.005
35.901
35.793
35.682
35.569
35.459
35.351
35.247
35.149
35.057
34.975
34.902
34.839
34.786
34.744
34.713
34.694
34.684
34.683
34.689
34.699
34.713
34.732
34.756
34.783
34.81
34.839
34.867
34.895
34.922
34.946
34.967
34.982
34.992
34.995
34.992
34.981
34.963
34.935
34.899
34.855
34.806
34.754
34.698
34.64
34.58
34.52
34.46
34.402
34.345
34.291
34.239
34.19
34.144
34.101
34.061
34.023
33.987
33.953
33.919
33.887
33.856
33.826
33.795
33.765
33.734
33.703
33.673
33.642
33.613
33.585
33.558
33.534
33.511
33.49
33.473
33.46
33.449
33.443
33.439
33.438
33.439
33.442
33.447
33.454
33.461
33.469
33.478
33.486
33.494
33.5
33.503
33.505
33.506
33.506
33.504
33.502
33.497
33.49
33.481
33.47
33.458
33.444
33.429
33.412
33.394
33.377
33.36
33.343
33.328
33.313
33.3
33.289
33.281
33.276
33.277
33.284
33.3
33.327
33.369
33.427
33.504
33.601
33.722
33.87
34.048
34.258
34.501
34.778
35.086
35.423
35.785
36.166
36.56
36.958
37.35
37.73
38.089
38.419
38.713
38.968
39.18
39.347
39.469
39.545
39.579
39.575
39.537
39.47
39.378
39.267
39.142
39.01
38.874
38.736
38.598
38.46
38.324
38.192
38.063
37.939
37.821
37.707
37.598
37.493
37.394
37.299
37.209
37.124
37.043
36.966
36.893
36.822
36.755
36.689
36.626
36.564
36.5
36.435
36.368
36.299
36.228
36.155
36.079
36.002
35.923
35.844
35.765
35.688
35.613
35.542
35.475
35.412
35.355
35.304
35.259
35.218
35.183
35.152
35.128
35.109
35.095
35.087
35.083
35.084
35.09
35.101
35.115
35.132
35.151
35.172
35.194
35.217
35.237
35.254
35.267
35.274
35.277
35.275
35.268
35.255
35.237
35.212
35.183
35.149
35.109
35.065
35.014
34.96
34.901
34.838
34.773
34.707
34.638
34.569
34.499
34.431
34.363
34.298
34.235
34.173
34.113
34.056
34.002
33.951
33.903
33.858
33.815
33.774
33.734
33.696
33.659
33.623
33.59
33.558
33.53
33.504
33.481
33.461
33.444
33.429
33.415
33.404
33.394
33.386
33.381
33.379
33.38
33.383
33.388
33.394
33.401
33.409
33.416
33.423
33.429
33.434
33.439
33.444
33.447
33.447
33.446
33.444
33.441
33.437
33.432
33.424
33.414
33.403
33.392
33.382
33.374
33.368
33.367
33.372
33.387
33.413
33.454
33.513
33.591
33.693
33.821
33.979
34.169
34.391
34.645
34.931
35.246
35.586
35.944
36.313
36.684
37.049
37.401
37.733
38.038
38.31
38.545
38.741
38.894
39.004
39.071
39.098
39.087
39.044
38.973
38.876
38.75
38.599
38.426
38.239
38.045
37.849
37.655
37.469
37.292
37.13
36.985
36.857
36.748
36.655
36.577
36.513
36.461
36.418
36.379
36.34
36.299
36.253
36.202
36.144
36.08
36.009
35.932
35.85
35.764
35.675
35.583
35.489
35.394
35.302
35.212
35.125
35.042
34.962
34.887
34.817
34.754
34.699
34.651
34.612
34.581
34.559
34.547
34.543
34.547
34.557
34.574
34.595
34.621
34.651
34.682
34.714
34.744
34.771
34.796
34.817
34.834
34.847
34.855
34.86
34.861
34.86
34.855
34.847
34.837
34.824
34.807
34.787
34.765
34.739
34.711
34.68
34.645
34.608
34.568
34.524
34.475
34.422
34.366
34.307
34.244
34.18
34.112
34.042
33.97
33.898
33.827
33.759
33.693
33.632
33.576
33.526
33.482
33.444
33.413
33.386
33.364
33.348
33.336
33.328
33.325
33.324
33.325
33.33
33.337
33.347
33.356
33.364
33.37
33.373
33.375
33.375
33.373
33.368
33.36
33.349
33.336
33.323
33.311
33.3
33.29
33.281
33.273
33.266
33.262
33.261
33.261
33.264
33.267
33.272
33.278
33.285
33.294
33.305
33.319
33.337
33.36
33.39
33.429
33.478
33.541
33.619
33.716
33.835
33.979
34.152
34.358
34.598
34.872
35.181
35.518
35.879
36.255
36.64
37.024
37.402
37.765
38.106
38.418
38.696
38.937
39.138
39.296
39.412
39.483
39.512
39.501
39.456
39.378
39.274
39.148
39.005
38.849
38.685
38.516
38.345
38.175
38.009
37.85
37.698
37.555
37.421
37.297
37.184
37.082
36.99
36.909
36.837
36.773
36.717
36.666
36.619
36.573
36.526
36.477
36.426
36.372
36.313
36.247
36.174
36.094
36.007
35.914
35.815
35.711
35.604
35.496
35.388
35.282
35.18
35.082
34.989
34.902
34.824
34.754
34.695
34.644
34.604
34.573
34.554
34.548
34.553
34.568
34.592
34.623
34.658
34.698
34.739
34.78
34.82
34.858
34.891
34.919
34.942
34.96
34.971
34.976
34.974
34.965
34.95
34.928
34.898
34.86
34.815
34.763
34.707
34.646
34.581
34.513
34.444
34.375
34.308
34.245
34.184
34.128
34.076
34.029
33.986
33.946
33.91
33.875
33.841
33.81
33.781
33.752
33.724
33.696
33.669
33.642
33.618
33.595
33.573
33.552
33.53
33.51
33.491
33.474
33.459
33.445
33.432
33.42
33.41
33.402
33.397
33.395
33.394
33.396
33.4
33.407
33.415
33.424
33.433
33.442
33.449
33.453
33.456
33.454
33.447
33.437
33.423
33.406
33.388
33.368
33.348
33.328
33.309
33.291
33.274
33.259
33.249
33.243
33.244
33.253
33.274
33.309
33.361
33.432
33.526
33.645
33.791
33.968
34.179
34.425
34.704
35.016
35.356
35.721
36.104
36.499
36.896
37.289
37.668
38.027
38.356
38.651
38.904
39.113
39.277
39.395
39.468
39.499
39.49
39.447
39.374
39.277
39.159
39.027
38.883
38.734
38.583
38.434
38.288
38.149
38.016
37.892
37.776
37.668
37.568
37.476
37.392
37.314
37.243
37.175
37.109
37.045
36.983
36.919
36.853
36.785
36.713
36.637
36.555
36.467
36.372
36.271
36.166
36.059
35.952
35.848
35.746
35.647
35.551
35.458
35.369
35.285
35.207
35.135
35.07
35.011
34.958
34.912
34.873
34.839
34.811
34.789
34.772
34.761
34.754
34.751
34.751
34.753
34.758
34.765
34.774
34.784
34.794
34.804
34.811
34.815
34.816
34.814
34.809
34.799
34.785
34.768
34.748
34.725
34.699
34.671
34.639
34.605
34.568
34.529
34.489
34.447
34.404
34.36
34.315
34.27
34.224
34.18
34.135
34.089
34.043
33.997
33.95
33.904
33.859
33.814
33.772
33.734
33.7
33.67
33.645
33.624
33.606
33.594
33.585
33.581
33.58
33.581
33.583
33.584
33.584
33.581
33.577
33.57
33.561
33.548
33.533
33.516
33.495
33.472
33.447
33.421
33.395
33.372
33.35
33.332
33.317
33.305
33.297
33.292
33.29
33.291
33.294
33.299
33.303
33.309
33.315
33.322
33.328
33.335
33.341
33.346
33.351
33.355
33.358
33.36
33.361
33.36
33.361
