Trial 1:0back
33.518
33.508
33.497
33.487
33.476
33.465
33.454
33.443
33.432
33.421
33.41
33.398
33.387
33.374
33.362
33.348
33.334
33.32
33.304
33.287
33.268
33.249
33.228
33.208
33.186
33.164
33.14
33.116
33.09
33.061
33.031
32.999
32.965
32.928
32.891
32.852
32.812
32.772
32.732
32.692
32.652
32.613
32.575
32.537
32.502
32.468
32.437
32.41
32.387
32.371
32.363
32.366
32.384
32.42
32.478
32.564
32.682
32.835
33.025
33.255
33.526
33.836
34.183
34.565
34.975
35.41
35.864
36.33
36.803
37.277
37.745
38.203
38.645
39.067
39.467
39.841
40.188
40.507
40.797
41.058
41.292
41.497
41.675
41.826
41.952
42.053
42.131
42.186
42.219
42.233
42.229
42.207
42.17
42.119
42.056
41.981
41.896
41.802
41.699
41.588
41.47
41.347
41.22
41.089
40.958
40.825
40.693
40.561
40.43
40.301
40.174
40.049
39.924
39.802
39.68
39.559
39.437
39.315
39.192
39.069
38.946
38.823
38.702
38.582
38.466
38.355
38.249
38.151
38.06
37.979
37.909
37.848
37.799
37.761
37.734
37.719
37.715
37.722
37.739
37.766
37.802
37.845
37.895
37.951
38.01
38.071
38.134
38.195
38.255
38.311
38.362
38.408
38.446
38.477
38.501
38.517
38.525
38.528
38.524
38.515
38.5
38.481
38.457
38.429
38.395
38.357
38.313
38.264
38.211
38.152
38.089
38.021
37.948
37.871
37.79
37.706
37.618
37.528
37.435
37.341
37.245
37.149
37.052
36.957
36.861
36.767
36.673
36.582
36.492
36.404
36.318
36.234
36.152
36.072
35.993
35.916
35.84
35.766
35.694
35.624
35.556
35.49
35.426
35.364
35.304
35.247
35.193
35.14
35.09
35.041
34.992
34.944
34.895
34.846
34.798
34.749
34.7
34.65
34.6
34.55
34.501
34.452
34.405
34.359
34.314
34.273
34.234
34.198
34.164
34.134
34.106
34.08
34.056
34.034
34.013
33.993
33.974
33.955
33.935
33.916
33.895
33.875
33.854
33.834
33.813
33.793
33.773
33.753
33.733
33.714
33.695
33.677
33.658
33.639
33.62
33.6
33.579
33.558
33.536
33.512
33.489
33.465
33.44
33.415
33.389
33.363
33.335
33.308
33.279
33.251
33.221
33.19
33.158
33.126
33.093
33.06
33.027
32.994
32.962
32.93
32.899
32.868
32.836
32.805
32.775
32.746
32.717
32.689
32.662
32.635
32.608
32.581
32.554
32.527
32.5
32.473
32.447
32.419
32.391
32.363
32.333
32.302
32.27
32.237
32.203
32.167
32.13
32.092
32.052
32.012
31.971
31.931
31.893
31.855
31.82
31.786
31.756
31.731
31.71
31.698
31.696
31.709
31.739
31.791
31.87
31.98
32.124
32.306
32.526
32.787
33.087
33.424
33.795
34.195
34.621
35.065
35.522
35.985
36.448
36.905
37.352
37.782
38.193
38.581
38.945
39.281
39.589
39.869
40.119
40.341
40.535
40.7
40.84
40.954
41.045
41.113
41.161
41.188
41.198
41.191
41.169
41.133
41.086
41.028
40.96
40.884
40.801
40.712
40.618
40.519
40.417
40.312
40.206
40.099
39.992
39.885
39.78
39.675
39.573
39.472
39.374
39.276
39.181
39.086
38.992
38.898
38.803
38.706
38.608
38.508
38.406
38.304
38.201
38.099
37.999
37.901
37.808
37.72
37.639
37.564
37.499
37.442
37.395
37.357
37.329
37.311
37.301
37.299
37.305
37.317
37.336
37.359
37.388
37.42
37.454
37.49
37.527
37.563
37.598
37.631
37.661
37.687
37.708
37.725
37.736
37.741
37.741
37.735
37.723
37.704
37.679
37.648
37.611
37.569
37.521
37.468
37.411
37.348
37.281
37.21
37.136
37.058
36.978
36.896
36.812
36.728
36.644
36.559
36.474
36.389
36.304
36.22
36.136
36.053
35.972
35.892
35.813
35.735
35.657
35.58
35.504
35.428
35.352
35.276
35.201
35.127
35.053
34.979
34.907
34.837
34.768
34.702
34.637
34.575
34.516
34.459
34.405
34.355
34.307
34.262
34.22
34.181
34.144
34.109
34.075
34.043
34.01
33.978
33.946
33.914
33.883
33.851
33.82
33.79
33.759
33.728
33.697
33.667
33.636
33.606
33.576
33.547
33.518
33.489
33.46
33.433
33.407
33.382
33.358
33.335
33.311
33.287
33.263
33.239
33.214
33.19
33.165
33.14
33.116
33.092
33.068
33.044
33.021
32.999
32.977
32.956
32.936
32.916
32.896
32.877
32.857
32.837
32.817
32.796
32.775
32.753
32.731
32.708
32.685
32.662
32.639
32.614
32.588
32.561
32.532
32.502
32.47
32.438
32.406
32.374
32.343
32.312
32.282
32.252
32.222
32.193
32.164
32.135
32.108
32.081
32.055
32.03
32.005
31.981
31.958
31.933
31.909
31.884
31.859
31.834
31.809
31.786
31.763
31.743
31.724
31.708
31.693
31.678
31.665
31.651
31.637
31.621
31.603
31.582
31.559
31.534
31.507
31.479
31.448
31.416
31.384
31.35
31.317
31.284
31.253
31.223
31.195
31.169
31.145
31.123
31.104
31.088
31.076
31.067
31.064
31.067
31.08
31.105
31.144
31.202
31.282
31.388
31.523
31.689
31.888
32.12
32.385
32.681
33.005
33.355
33.724
34.109
34.504
34.903
35.302
35.694
36.076
36.444
36.794
37.123
37.43
37.712
37.969
38.2
38.405
38.584
38.739
38.871
38.981
39.069
39.137
39.187
39.219
39.236
39.239
39.228
39.205
39.171
39.127
39.075
39.015
38.95
38.879
38.806
38.73
38.653
38.576
38.498
38.421
38.345
38.27
38.196
38.124
38.052
37.983
37.914
37.846
37.779
37.712
37.644
37.575
37.505
37.433
37.359
37.282
37.203
37.123
37.041
36.96
36.879
36.801
36.727
36.657
36.593
36.535
36.485
36.443
36.409
36.383
36.367
36.359
36.36
36.37
36.388
36.413
36.444
36.48
36.52
36.563
36.608
36.653
36.699
36.744
36.788
36.831
36.871
36.909
36.943
36.972
36.996
37.014
37.027
37.032
37.032
37.025
37.011
36.991
36.965
36.933
36.895
36.853
36.806
36.755
36.701
36.644
36.584
36.523
36.459
36.394
36.328
36.26
36.192
36.124
36.056
35.987
35.918
35.849
35.779
35.709
35.638
35.568
35.498
35.429
35.359
35.29
35.221
35.151
35.082
35.014
34.947
34.881
34.817
34.754
34.693
34.633
34.576
34.52
34.467
34.416
34.368
34.323
34.281
34.241
34.203
34.167
34.134
34.101
34.071
34.041
34.013
33.986
33.961
33.937
33.915
33.894
33.875
33.856
33.839
33.822
33.806
33.791
33.776
33.762
33.748
33.735
33.721
33.708
33.694
33.68
33.665
33.65
33.634
33.617
33.6
33.583
33.564
33.545
33.525
33.504
33.481
33.459
33.435
33.412
33.389
33.367
33.344
33.322
33.3
33.277
33.255
33.232
33.209
33.186
33.163
33.141
33.119
33.097
33.076
33.056
33.037
33.02
33.004
32.989
32.973
32.958
32.941
32.924
32.907
32.888
32.868
32.847
32.825
32.802
32.779
32.756
32.733
32.71
32.688
32.666
32.644
32.621
32.599
32.577
32.556
32.534
32.512
32.491
32.47
32.449
32.428
32.408
32.387
32.365
32.342
32.318
32.292
32.264
32.235
32.205
32.174
32.142
32.111
32.08
32.05
32.022
31.996
31.972
31.953
31.939
31.931
31.931
31.939
31.959
31.992
32.042
32.111
32.204
32.322
32.466
32.638
32.838
33.064
33.316
33.59
33.884
34.193
34.514
34.841
35.172
35.501
35.824
36.139
36.44
36.725
36.992
37.24
37.466
37.67
37.852
38.01
38.147
38.261
38.355
38.428
38.483
38.521
38.544
38.553
38.549
38.533
38.508
38.473
38.43
38.38
38.324
38.262
38.196
38.125
38.052
37.977
37.9
37.823
37.745
37.668
37.591
37.515
37.44
37.366
37.293
37.222
37.151
37.081
37.01
36.937
36.863
36.785
36.704
36.621
36.535
36.448
36.36
36.272
36.187
36.103
36.024
35.949
35.88
35.819
35.766
35.723
35.69
35.668
35.656
35.654
35.661
35.678
35.702
35.734
35.773
35.818
35.868
35.923
35.98
36.039
36.099
36.158
36.215
36.269
36.319
36.364
36.405
36.439
36.466
36.486
36.498
36.502
36.499
36.491
36.477
36.458
36.435
36.407
36.375
36.339
36.299
36.255
36.209
36.159
36.107
36.051
35.993
35.932
35.871
35.808
35.744
35.68
35.615
35.551
35.487
35.424
35.363
35.302
35.242
35.183
35.124
35.067
35.011
34.956
34.902
34.849
34.798
34.747
34.697
34.648
34.6
34.552
34.505
34.459
34.412
34.365
34.318
34.271
34.223
34.177
34.13
34.085
34.04
33.997
33.954
33.913
33.873
33.835
33.799
33.766
33.736
33.709
33.684
33.662
33.643
33.626
33.612
33.599
33.588
33.577
33.567
33.558
33.548
33.537
33.526
33.514
33.502
33.488
33.474
33.46
33.445
33.429
33.414
33.397
33.381
33.364
33.348
33.332
33.318
33.304
33.291
33.279
33.268
33.257
33.248
33.238
33.229
33.219
33.209
33.198
33.186
33.174
33.162
33.148
33.134
33.118
33.101
33.082
33.062
33.04
33.017
32.994
32.97
32.945
32.92
32.894
32.868
32.842
32.817
32.792
32.769
32.746
32.723
32.7
32.677
32.655
32.632
32.609
32.586
32.562
32.538
32.512
32.486
32.458
32.428
32.398
32.366
32.334
32.302
32.27
32.239
32.21
32.183
32.159
32.138
32.121
32.11
32.106
32.111
32.128
32.16
32.209
32.279
32.373
32.493
32.641
32.817
33.023
33.256
33.518
33.804
34.114
34.442
34.786
35.139
35.5
35.861
36.221
36.575
36.919
37.249
37.564
37.859
38.134
38.386
38.616
38.822
39.005
39.164
39.301
39.415
39.508
39.58
39.634
39.669
39.688
39.693
39.684
39.662
39.63
39.589
39.542
39.489
39.432
39.373
39.313
39.252
39.192
39.132
39.074
39.017
38.962
38.907
38.854
38.802
38.751
38.7
38.65
38.6
38.549
38.495
38.44
38.383
38.323
38.259
38.193
38.123
38.052
37.978
37.902
37.825
37.747
37.67
37.594
37.52
37.449
37.384
37.324
37.27
37.225
37.187
37.158
37.138
37.126
37.122
37.124
37.133
37.148
37.169
37.194
37.222
37.253
37.286
37.32
37.355
37.389
37.423
37.455
37.484
37.511
37.534
37.552
37.566
37.574
37.576
37.572
37.561
37.543
37.519
37.489
37.454
37.414
37.37
37.322
37.27
37.214
37.155
37.093
37.027
36.959
36.89
36.819
36.748
36.677
36.606
36.536
36.466
36.398
36.331
36.265
36.201
36.137
36.074
36.012
35.95
35.888
35.826
35.764
35.701
35.638
35.576
35.515
35.455
35.395
35.337
35.279
35.223
35.167
35.113
35.061
35.011
34.963
34.917
34.872
34.829
34.788
34.748
34.709
34.672
34.636
34.603
34.571
34.541
34.513
34.485
34.459
34.433
34.407
34.382
34.357
34.333
34.309
34.285
34.262
34.239
34.215
34.192
34.168
34.145
34.122
34.099
34.077
34.054
34.031
34.007
33.982
33.957
33.932
33.907
33.881
33.856
33.83
33.805
33.779
33.755
33.73
33.706
33.683
33.66
33.639
33.617
33.596
33.575
33.554
33.533
33.512
33.492
33.472
33.452
33.433
33.414
33.395
33.376
33.358
33.339
33.32
33.3
33.279
33.259
33.238
33.216
33.194
33.172
33.148
33.124
33.099
33.072
33.044
33.014
32.982
32.949
32.915
32.88
32.844
32.808
32.772
32.736
32.699
32.663
32.627
32.592
32.558
32.526
32.494
32.465
32.437
32.41
32.387
32.367
32.351
32.341
32.339
32.345
32.363
32.397
32.449
32.523
32.622
32.75
32.909
33.098
33.317
33.566
33.843
34.144
34.467
34.807
35.16
35.522
35.888
36.254
36.615
36.967
37.307
37.63
37.934
38.216
38.475
38.71
38.92
39.104
39.264
39.401
39.514
39.607
39.679
39.732
39.768
39.788
39.793
39.786
39.767
39.739
39.701
39.656
39.604
39.546
39.485
39.421
39.355
39.287
39.22
39.154
39.091
39.029
38.969
38.912
38.856
38.801
38.747
38.692
38.637
38.581
38.522
38.461
38.396
38.329
38.258
38.184
38.107
38.027
37.944
37.86
37.775
37.69
37.605
37.523
37.443
37.368
37.299
37.235
37.178
37.129
37.087
37.054
37.028
37.01
37.0
36.996
36.999
37.008
37.021
37.039
37.059
37.082
37.107
37.132
37.157
37.183
37.207
37.229
37.249
37.266
37.278
37.285
37.288
37.285
37.276
37.263
37.244
37.22
37.192
37.158
37.121
37.078
37.032
36.982
36.929
36.873
36.814
36.752
36.688
36.622
36.554
36.484
36.414
36.342
36.271
36.2
36.129
36.059
35.989
35.919
35.849
35.78
35.711
35.642
35.574
35.506
35.439
35.372
35.305
35.238
35.172
35.106
35.041
34.976
34.913
34.852
34.792
34.733
34.676
34.62
34.566
34.514
34.463
34.413
34.365
34.318
34.272
34.227
34.184
34.142
34.102
34.063
34.025
33.988
33.953
33.92
33.889
33.858
33.829
33.8
33.772
33.745
33.718
33.692
33.666
33.64
33.613
33.587
33.56
33.533
33.507
33.481
33.455
33.429
33.403
33.378
33.352
33.326
33.3
33.274
33.248
33.222
33.195
33.167
33.139
33.111
33.082
33.053
33.024
32.994
32.963
32.933
32.902
32.872
32.842
32.812
32.781
32.751
32.721
32.691
32.661
32.632
32.603
32.576
32.549
32.524
32.499
32.476
32.453
32.43
32.408
32.385
32.362
32.338
32.313
32.288
32.261
32.234
32.205
32.175
32.144
32.111
32.078
32.044
32.008
31.972
31.934
31.895
31.855
31.813
31.771
31.728
31.685
31.642
31.6
31.558
31.517
31.478
31.44
31.404
31.372
31.342
31.317
31.297
31.28
31.268
31.261
31.26
31.266
31.281
31.307
31.348
31.404
31.48
31.577
31.697
31.843
32.013
32.208
32.427
32.666
32.924
33.197
33.481
33.772
34.067
34.361
34.651
34.933
35.204
35.46
35.701
35.923
36.126
36.309
36.471
36.611
36.732
36.832
36.913
36.976
37.021
37.05
37.065
37.067
37.059
37.041
37.015
36.982
36.943
36.899
36.85
36.797
36.742
36.684
36.624
36.561
36.497
36.431
36.364
36.296
36.23
36.164
36.1
36.039
35.979
35.922
35.866
35.812
35.758
35.703
35.648
35.591
35.532
35.472
35.41
35.345
35.279
35.211
35.142
35.072
35.004
34.938
34.876
34.819
34.767
34.721
34.681
34.649
34.624
34.606
34.595
34.59
34.591
34.597
34.607
34.621
34.639
34.66
34.684
34.71
34.739
34.768
34.798
34.829
34.859
34.887
34.914
34.938
34.958
34.975
34.989
34.997
35.001
34.998
34.989
34.974
34.951
34.921
34.885
34.842
34.794
34.741
34.684
34.625
34.564
34.5
34.435
34.368
34.3
34.232
34.165
34.1
34.036
33.975
33.917
33.861
33.807
33.755
33.705
33.657
33.611
33.567
33.525
33.485
33.446
33.408
33.371
33.335
33.298
33.261
33.224
33.186
33.148
33.11
33.073
33.036
33.002
32.968
32.936
32.906
32.876
32.846
32.817
32.787
32.758
32.729
32.699
32.67
32.641
32.613
32.585
32.558
32.531
32.506
32.481
32.458
32.437
32.417
32.399
32.382
32.366
32.351
32.336
32.322
32.308
32.295
32.282
32.269
32.256
32.242
32.228
32.214
32.199
32.185
32.171
32.158
32.145
32.132
32.119
32.106
32.093
32.08
32.067
32.054
32.041
32.029
32.016
32.003
31.99
31.977
31.965
31.952
31.94
31.927
31.913
31.898
31.882
31.866
31.849
31.832
31.815
31.798
31.779
31.76
31.74
31.72
31.699
31.679
31.659
31.64
31.621
31.602
31.583
31.564
31.546
31.527
31.509
31.49
31.471
31.452
31.432
31.412
31.391
31.369
31.346
31.323
31.299
31.273
31.248
31.222
31.196
31.171
31.146
31.123
31.1
31.079
31.06
31.044
31.031
31.023
31.021
31.027
31.043
31.071
31.113
31.171
31.25
31.35
31.474
31.623
31.795
31.991
32.207
32.442
32.692
32.954
33.224
33.499
33.773
34.043
34.306
34.557
34.795
35.016
35.219
35.403
35.567
35.712
35.837
35.945
36.035
36.108
36.165
36.207
36.236
36.253
36.26
36.256
36.245
36.228
36.205
36.177
36.146
36.111
36.074
36.036
35.996
35.955
35.913
35.872
35.832
35.792
35.752
35.713
35.674
35.636
35.599
35.564
35.529
35.496
35.465
35.434
35.403
35.371
35.339
35.304
35.268
35.229
35.187
35.143
35.097
35.048
34.997
34.944
34.889
34.835
34.781
34.73
34.682
34.638
34.598
34.564
34.537
34.517
34.505
34.5
34.502
34.511
34.527
34.549
34.577
34.61
34.647
34.687
34.728
34.77
34.811
34.851
34.888
34.923
34.954
34.98
35.001
35.016
35.026
35.031
35.03
35.026
35.017
35.006
34.992
34.975
34.956
34.933
34.907
34.878
34.847
34.814
34.779
34.743
34.705
34.665
34.624
34.581
34.537
34.493
34.447
34.401
34.355
34.309
34.263
34.218
34.173
34.131
34.09
34.052
34.015
33.98
33.947
33.914
33.883
33.853
33.823
33.795
33.768
33.74
33.713
33.686
33.658
33.63
33.601
33.572
33.542
33.511
33.481
33.452
33.424
33.398
33.373
33.35
33.33
33.312
33.296
33.283
33.271
33.26
33.251
33.241
33.233
33.225
33.218
33.211
33.204
33.197
33.189
33.181
33.173
33.166
33.158
33.152
33.146
33.14
33.135
33.131
33.125
33.118
33.111
33.102
33.092
33.081
33.069
33.056
33.043
33.029
33.015
33.001
32.987
32.972
32.959
32.945
32.932
32.92
32.908
32.896
32.885
32.873
32.861
32.849
32.838
32.825
32.813
32.8
32.786
32.772
32.758
32.743
32.729
32.715
32.7
32.686
32.672
32.657
32.642
32.627
32.612
32.598
32.584
32.571
32.558
32.545
32.533
32.52
32.508
32.495
32.482
32.469
32.455
32.439
32.423
32.404
32.385
32.363
32.341
32.316
32.29
32.264
32.236
32.208
32.18
32.151
32.124
32.097
32.073
32.052
32.035
32.022
32.014
32.012
32.016
32.028
32.05
32.083
32.13
32.193
32.273
32.372
32.491
32.632
32.793
32.974
33.175
33.391
33.621
33.861
34.108
34.359
34.61
34.858
35.099
35.331
35.552
35.759
35.952
36.127
36.284
36.423
36.544
36.645
36.729
36.796
36.847
36.883
36.906
36.916
36.916
36.907
36.89
36.865
36.835
36.799
36.759
36.716
36.672
36.627
36.581
36.537
36.493
36.45
36.41
36.371
36.333
36.296
36.261
36.226
36.193
36.16
36.128
36.098
36.067
36.038
36.008
35.979
35.949
35.918
35.886
35.852
35.816
35.776
35.734
35.688
35.641
35.591
35.54
35.488
35.437
35.387
35.341
35.297
35.259
35.227
35.201
35.183
35.172
35.168
35.173
35.184
35.202
35.227
35.257
35.292
35.331
35.373
35.417
35.462
35.506
35.551
35.594
35.635
35.672
35.706
35.735
35.76
35.781
35.797
35.808
35.815
35.818
35.816
35.81
35.799
35.783
35.764
35.739
35.71
35.677
35.639
35.599
35.555
35.51
35.463
35.414
35.365
35.316
35.267
35.218
35.17
35.123
35.076
35.031
34.987
34.944
34.903
34.863
34.825
34.788
34.751
34.716
34.682
34.648
34.616
34.584
34.552
34.521
34.491
34.461
34.431
34.4
34.37
34.339
34.307
34.276
34.244
34.212
34.18
34.149
34.119
34.09
34.062
34.036
34.011
33.988
33.965
33.944
33.924
33.906
33.89
33.876
33.864
33.854
33.846
33.839
33.833
33.827
33.822
33.816
33.811
33.806
33.802
33.799
33.797
33.795
33.795
33.794
33.793
33.791
33.788
33.783
33.778
33.772
33.765
33.755
33.745
33.732
33.718
33.704
33.688
33.672
33.656
33.639
33.621
33.603
33.585
33.567
33.55
33.534
33.519
33.505
33.493
33.482
33.473
33.464
33.456
33.449
33.442
33.435
33.429
33.422
33.414
33.405
33.395
33.383
33.368
33.352
33.334
33.313
33.29
33.265
33.238
33.208
33.176
33.144
33.11
33.077
33.043
33.01
32.978
32.947
32.916
32.885
32.857
32.831
32.808
32.789
32.775
32.767
32.767
32.776
32.795
32.826
32.871
32.932
33.011
33.109
33.228
33.368
33.53
33.711
33.911
34.127
34.358
34.6
34.849
35.101
35.354
35.602
35.842
36.073
36.29
36.493
36.679
36.848
37.0
37.134
37.251
37.351
37.435
37.504
37.557
37.598
37.625
37.639
37.643
37.637
37.623
37.6
37.572
37.537
37.499
37.457
37.414
37.368
37.322
37.277
37.233
37.19
37.149
37.11
37.073
37.039
37.008
36.978
36.951
36.925
36.9
36.876
36.851
36.826
36.799
36.77
36.739
36.704
36.665
36.623
36.578
36.529
36.479
36.426
36.373
36.319
36.267
36.216
36.167
36.121
36.08
36.044
36.014
35.99
35.972
35.961
35.957
35.961
35.972
35.991
36.015
36.046
36.081
36.119
36.161
36.205
36.25
36.296
36.342
36.385
36.426
36.463
36.496
36.525
36.549
36.569
36.583
36.592
36.596
36.596
36.591
36.581
36.567
36.549
36.527
36.502
36.474
36.444
36.413
36.378
36.342
36.303
36.261
36.216
36.169
36.119
36.066
36.012
35.957
35.903
35.849
35.795
35.743
35.692
35.642
35.594
35.547
35.501
35.457
35.415
35.376
35.339
35.304
35.272
35.243
35.217
35.192
35.169
35.149
35.13
35.113
35.097
35.081
35.065
35.049
35.031
35.012
34.991
34.967
34.942
34.914
34.884
34.853
34.821
34.788
34.755
34.721
34.689
34.658
