Trial 1:0back
37.298
37.244
37.191
37.138
37.085
37.031
36.976
36.92
36.863
36.806
36.747
36.689
36.631
36.575
36.519
36.464
36.409
36.355
36.303
36.251
36.201
36.151
36.1
36.047
35.994
35.94
35.886
35.832
35.779
35.729
35.681
35.639
35.604
35.577
35.559
35.552
35.555
35.566
35.587
35.613
35.644
35.678
35.712
35.746
35.778
35.806
35.829
35.847
35.858
35.862
35.86
35.851
35.836
35.814
35.786
35.752
35.713
35.671
35.626
35.581
35.535
35.491
35.448
35.408
35.371
35.337
35.306
35.277
35.25
35.224
35.201
35.179
35.159
35.14
35.122
35.106
35.089
35.074
35.059
35.044
35.029
35.015
35.002
34.989
34.977
34.966
34.956
34.948
34.94
34.932
34.924
34.914
34.902
34.888
34.873
34.856
34.838
34.819
34.799
34.778
34.758
34.739
34.722
34.707
34.696
34.687
34.681
34.679
34.681
34.685
34.692
34.7
34.708
34.718
34.729
34.743
34.761
34.785
34.817
34.86
34.917
34.99
35.08
35.188
35.314
35.458
35.618
35.792
35.977
36.17
36.369
36.568
36.766
36.958
37.14
37.311
37.467
37.607
37.729
37.832
37.917
37.983
38.032
38.066
38.085
38.093
38.09
38.078
38.058
38.032
38.0
37.964
37.925
37.882
37.838
37.793
37.747
37.702
37.657
37.614
37.57
37.528
37.486
37.443
37.399
37.353
37.304
37.253
37.199
37.142
37.085
37.026
36.967
36.909
36.852
36.797
36.743
36.692
36.643
36.598
36.556
36.518
36.482
36.449
36.417
36.388
36.36
36.332
36.304
36.277
36.251
36.225
36.201
36.178
36.156
36.136
36.117
36.099
36.084
36.071
36.059
36.048
36.037
36.027
36.017
36.006
35.996
35.985
35.973
35.962
35.951
35.94
35.929
35.918
35.907
35.896
35.884
35.87
35.854
35.837
35.819
35.798
35.776
35.754
35.73
35.706
35.683
35.661
35.641
35.622
35.606
35.592
35.579
35.567
35.555
35.544
35.533
35.521
35.508
35.494
35.48
35.465
35.45
35.434
35.418
35.402
35.386
35.371
35.356
35.343
35.33
35.318
35.306
35.296
35.286
35.277
35.267
35.257
35.245
35.232
35.215
35.195
35.172
35.146
35.116
35.084
35.05
35.013
34.975
34.936
34.897
34.858
34.821
34.785
34.752
34.722
34.696
34.677
34.666
34.664
34.673
34.693
34.726
34.772
34.834
34.912
35.008
35.12
35.248
35.39
35.545
35.709
35.88
36.055
36.229
36.402
36.568
36.726
36.875
37.013
37.139
37.252
37.353
37.44
37.515
37.578
37.63
37.673
37.707
37.733
37.753
37.765
37.771
37.773
37.769
37.762
37.751
37.737
37.719
37.697
37.672
37.645
37.614
37.581
37.545
37.506
37.464
37.42
37.374
37.325
37.275
37.225
37.174
37.124
37.074
37.024
36.975
36.927
36.882
36.839
36.798
36.76
36.723
36.689
36.656
36.626
36.597
36.571
36.545
36.522
36.499
36.479
36.46
36.445
36.432
36.422
36.415
36.412
36.411
36.414
36.419
36.426
36.435
36.446
36.458
36.47
36.481
36.49
36.496
36.499
36.498
36.493
36.484
36.47
36.453
36.432
36.41
36.385
36.357
36.328
36.298
36.266
36.234
36.201
36.168
36.136
36.104
36.074
36.045
36.017
35.991
35.967
35.945
35.925
35.906
35.889
35.873
35.859
35.845
35.832
35.82
35.808
35.796
35.784
35.772
35.76
35.749
35.738
35.727
35.716
35.706
35.696
35.686
35.675
35.663
35.649
35.632
35.612
35.589
35.563
35.534
35.502
35.467
35.43
35.393
35.355
35.317
35.28
35.243
35.208
35.176
35.147
35.123
35.103
35.09
35.084
35.086
35.096
35.117
35.15
35.194
35.252
35.322
35.405
35.501
35.609
35.729
35.861
36.001
36.149
36.304
36.463
36.625
36.786
36.944
37.097
37.243
37.381
37.509
37.627
37.734
37.832
37.921
38.002
38.074
38.138
38.193
38.239
38.274
38.298
38.311
38.313
38.304
38.284
38.254
38.215
38.168
38.116
38.059
37.999
37.937
37.874
37.811
37.749
37.688
37.63
37.574
37.52
37.468
37.418
37.367
37.316
37.263
37.208
37.153
37.095
37.037
36.977
36.916
36.856
36.795
36.735
36.677
36.622
36.571
36.525
36.485
36.452
36.427
36.41
36.401
36.399
36.404
36.414
36.429
36.448
36.47
36.493
36.517
36.539
36.559
36.576
36.589
36.599
36.604
36.606
36.603
36.597
36.588
36.576
36.561
36.545
36.527
36.509
36.49
36.471
36.452
36.434
36.416
36.399
36.382
36.365
36.346
36.326
36.304
36.281
36.257
36.231
36.203
36.174
36.143
36.111
36.079
36.047
36.015
35.984
35.953
35.922
35.892
35.862
35.832
35.803
35.774
35.746
35.719
35.693
35.668
35.644
35.62
35.596
35.573
35.55
35.528
35.506
35.484
35.462
35.439
35.415
35.389
35.362
35.334
35.304
35.274
35.245
35.216
35.188
35.163
35.139
35.118
35.1
35.086
35.077
35.075
35.081
35.097
35.125
35.166
35.221
35.292
35.38
35.485
35.606
35.742
35.893
36.057
36.229
36.408
36.59
36.772
36.951
37.125
37.29
37.446
37.59
37.723
37.844
37.953
38.05
38.137
38.211
38.275
38.328
38.371
38.405
38.429
38.446
38.455
38.458
38.454
38.445
38.432
38.415
38.396
38.374
38.352
38.328
38.302
38.275
38.247
38.216
38.183
38.145
38.105
38.06
38.011
37.959
37.903
37.843
37.781
37.717
37.651
37.586
37.521
37.457
37.396
37.336
37.28
37.227
37.176
37.127
37.081
37.037
36.994
36.952
36.911
36.87
36.83
36.792
36.755
36.72
36.687
36.657
36.63
36.607
36.589
36.576
36.568
36.564
36.564
36.567
36.573
36.58
36.589
36.598
36.607
36.614
36.62
36.625
36.626
36.625
36.621
36.613
36.601
36.586
36.568
36.547
36.525
36.499
36.471
36.44
36.405
36.367
36.327
36.285
36.243
36.2
36.157
36.115
36.074
36.034
35.996
35.96
35.925
35.891
35.858
35.826
35.794
35.762
35.731
35.7
35.669
35.639
35.61
35.581
35.554
35.527
35.501
35.476
35.452
35.429
35.408
35.387
35.368
35.348
35.328
35.305
35.281
35.253
35.223
35.191
35.156
35.121
35.086
35.051
35.018
34.989
34.964
34.944
34.931
34.926
34.93
34.944
34.971
35.011
35.066
35.136
35.223
35.327
35.448
35.585
35.735
35.898
36.072
36.254
36.442
36.632
36.823
37.011
37.194
37.372
37.54
37.699
37.847
37.984
38.109
38.22
38.318
38.403
38.474
38.533
38.579
38.611
38.632
38.64
38.637
38.624
38.601
38.57
38.531
38.484
38.432
38.373
38.308
38.238
38.163
38.085
38.004
37.921
37.836
37.751
37.666
37.582
37.5
37.42
37.344
37.272
37.205
37.143
37.084
37.03
36.979
36.931
36.885
36.843
36.804
36.768
36.733
36.7
36.667
36.635
36.602
36.569
36.534
36.497
36.46
36.423
36.385
36.349
36.315
36.284
36.258
36.236
36.22
36.208
36.202
36.201
36.204
36.21
36.219
36.23
36.24
36.25
36.256
36.26
36.258
36.251
36.238
36.219
36.195
36.167
36.134
36.099
36.062
36.025
35.988
35.952
35.916
35.881
35.845
35.809
35.771
35.732
35.691
35.649
35.605
35.561
35.516
35.472
35.429
35.387
35.348
35.31
35.276
35.245
35.218
35.195
35.178
35.166
35.159
35.156
35.157
35.161
35.166
35.171
35.175
35.176
35.174
35.166
35.154
35.136
35.113
35.085
35.053
35.017
34.978
34.935
34.889
34.841
34.792
34.743
34.694
34.645
34.597
34.551
34.506
34.465
34.426
34.392
34.364
34.343
34.331
34.332
34.346
34.376
34.423
34.486
34.568
34.667
34.783
34.913
35.056
35.21
35.373
35.541
35.713
35.887
36.061
36.234
36.405
36.572
36.735
36.892
37.041
37.183
37.315
37.437
37.549
37.65
37.739
37.816
37.881
37.933
37.972
38.0
38.016
38.02
38.014
37.997
37.97
37.935
37.893
37.844
37.791
37.734
37.675
37.615
37.554
37.494
37.436
37.379
37.324
37.27
37.217
37.164
37.111
37.057
37.003
36.948
36.894
36.839
36.786
36.734
36.684
36.636
36.59
36.547
36.506
36.468
36.433
36.401
36.372
36.345
36.321
36.3
36.281
36.264
36.249
36.235
36.221
36.208
36.195
36.181
36.167
36.153
36.14
36.127
36.116
36.107
36.1
36.095
36.091
36.088
36.086
36.083
36.079
36.075
36.068
36.058
36.045
36.03
36.013
35.994
35.974
35.953
35.932
35.911
35.889
35.868
35.847
35.825
35.803
35.781
35.758
35.735
35.712
35.689
35.666
35.643
35.62
35.599
35.578
35.559
35.54
35.52
35.498
35.473
35.445
35.414
35.378
35.339
35.296
35.251
35.203
35.154
35.105
35.055
35.008
34.962
34.918
34.878
34.84
34.806
34.775
34.747
34.724
34.704
34.689
34.676
34.667
34.661
34.659
34.661
34.667
34.677
34.692
34.713
34.739
34.772
34.812
34.86
34.917
34.985
35.064
35.157
35.264
35.384
35.517
35.661
35.815
35.977
36.145
36.315
36.485
36.653
36.817
36.975
37.124
37.265
37.394
37.512
37.618
37.71
37.789
37.855
37.906
37.944
37.968
37.981
37.981
37.97
37.949
37.92
37.883
37.842
37.797
37.75
37.703
37.656
37.61
37.566
37.523
37.481
37.44
37.4
37.358
37.315
37.268
37.218
37.164
37.104
37.039
36.971
36.899
36.825
36.75
36.674
36.599
36.524
36.451
36.38
36.311
36.244
36.18
36.118
36.059
36.003
35.949
35.897
35.848
35.801
35.757
35.717
35.682
35.652
35.628
35.609
35.596
35.588
35.585
35.586
35.591
35.598
35.608
35.619
35.63
35.64
35.647
35.651
35.651
35.648
35.64
35.628
35.612
35.592
35.567
35.539
35.509
35.476
35.441
35.405
35.369
35.333
35.298
35.264
35.23
35.197
35.163
35.129
35.095
35.06
35.025
34.989
34.955
34.921
34.889
34.859
34.831
34.805
34.78
34.755
34.729
34.703
34.677
34.651
34.623
34.595
34.566
34.537
34.509
34.482
34.456
34.433
34.411
34.393
34.377
34.365
34.355
34.348
34.343
34.339
34.336
34.334
34.332
34.33
34.329
34.328
34.329
34.332
34.339
34.35
34.369
34.397
34.436
34.487
34.552
34.631
34.726
34.836
34.961
35.099
35.25
35.412
35.582
35.759
35.939
36.121
36.302
36.478
36.648
36.81
36.962
37.102
37.229
37.344
37.446
37.535
37.609
37.669
37.715
37.746
37.764
37.769
37.762
37.745
37.72
37.687
37.648
37.604
37.557
37.51
37.462
37.415
37.369
37.324
37.28
37.236
37.192
37.146
37.099
37.049
36.996
36.939
36.88
36.817
36.752
36.684
36.614
36.543
36.471
36.399
36.327
36.257
36.188
36.121
36.056
35.994
35.936
35.881
35.829
35.781
35.737
35.696
35.659
35.624
35.593
35.565
35.539
35.517
35.496
35.479
35.463
35.448
35.435
35.423
35.411
35.401
35.391
35.382
35.376
35.371
35.369
35.369
35.37
35.373
35.376
35.38
35.383
35.383
35.38
35.371
35.355
35.333
35.304
35.267
35.226
35.179
35.13
35.079
35.029
34.981
34.935
34.894
34.859
34.829
34.805
34.786
34.772
34.762
34.754
34.748
34.742
34.734
34.724
34.711
34.694
34.672
34.645
34.614
34.578
34.539
34.498
34.456
34.413
34.372
34.332
34.293
34.257
34.223
34.19
34.159
34.13
34.102
34.076
34.052
34.03
34.009
33.991
33.974
33.961
33.952
33.95
33.957
33.975
34.007
34.055
34.12
34.203
34.306
34.429
34.572
34.734
34.912
35.104
35.306
35.515
35.726
35.936
36.143
36.342
36.533
36.712
36.877
37.029
37.165
37.286
37.391
37.481
37.555
37.614
37.658
37.689
37.706
37.711
37.707
37.693
37.672
37.645
37.612
37.576
37.54
37.503
37.466
37.432
37.398
37.364
37.331
37.296
37.259
37.22
37.177
37.129
37.078
37.024
36.967
36.908
36.848
36.787
36.724
36.662
36.601
36.54
36.479
36.419
36.359
36.299
36.239
36.179
36.118
36.058
35.999
35.941
35.886
35.833
35.784
35.739
35.699
35.664
35.633
35.608
35.588
35.573
35.56
35.551
35.545
35.542
35.541
35.543
35.546
35.55
35.553
35.557
35.559
35.56
35.559
35.555
35.548
35.539
35.527
35.513
35.496
35.477
35.456
35.432
35.406
35.377
35.347
35.316
35.283
35.249
35.214
35.18
35.146
35.111
35.078
35.044
35.009
34.973
34.936
34.898
34.858
34.817
34.774
34.73
34.685
34.64
34.596
34.552
34.509
34.469
34.43
34.393
34.358
34.325
34.293
34.264
34.236
34.21
34.184
34.158
34.131
34.103
34.075
34.045
34.014
33.984
33.955
33.928
33.903
33.882
33.867
33.859
33.861
33.876
33.905
33.95
34.013
34.095
34.197
34.32
34.463
34.625
34.804
34.997
35.202
35.413
35.627
35.84
36.049
36.251
36.444
36.626
36.796
36.954
37.098
37.229
37.347
37.452
37.543
37.622
37.688
37.74
37.779
37.806
37.82
37.822
37.812
37.793
37.764
37.728
37.686
37.639
37.586
37.529
37.468
37.402
37.332
37.259
37.181
37.1
37.016
36.931
36.844
36.755
36.666
36.578
36.491
36.406
36.325
36.247
36.174
36.106
36.042
35.984
35.93
35.88
35.833
35.789
35.745
35.7
35.654
35.606
35.556
35.505
35.453
35.401
35.35
35.303
35.258
35.218
35.183
35.155
35.133
35.118
35.11
35.109
35.114
35.125
35.141
35.16
35.182
35.205
35.228
35.25
35.269
35.284
35.293
35.296
35.293
35.283
35.267
35.246
35.221
35.192
35.16
35.126
35.089
35.052
35.014
34.975
34.937
34.9
34.864
34.83
34.798
34.768
34.74
34.716
34.695
34.678
34.664
34.653
34.645
34.64
34.637
34.636
34.636
34.637
34.637
34.637
34.635
34.631
34.626
34.617
34.607
34.595
34.58
34.563
34.542
34.517
34.49
34.46
34.428
34.395
34.361
34.327
34.293
34.26
34.23
34.202
34.178
34.157
34.141
34.131
34.128
34.135
34.152
34.184
34.23
34.292
34.371
34.466
34.578
34.705
34.847
35.002
35.17
35.349
35.537
35.733
35.933
36.135
36.336
36.533
36.726
36.91
37.086
37.25
37.402
37.54
37.664
37.774
37.868
37.947
38.01
38.058
38.092
38.113
38.121
38.117
38.103
38.079
38.046
38.006
37.958
37.905
37.848
37.787
37.723
37.657
37.59
37.52
37.45
37.377
37.302
37.224
37.143
37.06
36.974
36.887
36.799
36.711
36.625
36.54
36.458
36.38
36.307
36.241
36.18
36.126
36.076
36.032
35.993
35.958
35.926
35.897
35.871
35.845
35.821
35.797
35.776
35.756
35.739
35.724
35.712
35.703
35.697
35.696
35.697
35.701
35.707
35.715
35.722
35.729
35.733
35.734
35.732
35.726
35.714
35.699
35.679
35.655
35.629
35.601
35.573
35.545
35.519
35.495
35.474
35.456
35.441
35.427
35.415
35.403
35.39
35.375
35.359
35.34
35.319
35.296
35.27
35.24
35.208
35.174
35.137
35.1
35.06
35.02
34.979
34.939
34.899
34.86
34.823
34.786
34.749
34.712
34.675
34.638
34.6
34.562
34.523
34.483
34.444
34.404
34.366
34.328
34.293
34.259
34.226
34.196
34.169
34.146
34.127
34.114
34.109
34.114
34.131
34.161
34.204
34.263
34.336
34.425
34.529
34.649
34.783
34.93
35.09
35.261
35.441
35.628
35.819
36.011
36.202
36.389
36.569
36.741
36.902
37.052
37.189
37.312
37.423
37.52
37.604
37.675
37.733
37.778
37.811
37.831
37.84
37.835
37.819
37.792
37.756
37.711
37.661
37.606
37.55
37.494
37.44
37.388
37.34
37.295
37.254
37.214
37.176
37.137
37.096
37.052
37.004
36.952
36.895
36.833
36.768
36.699
36.628
36.556
36.485
36.416
36.351
36.291
36.235
36.186
36.143
36.105
36.075
36.049
36.029
36.012
35.999
35.988
35.979
35.971
35.965
35.959
35.953
35.946
35.939
35.93
35.919
35.908
35.897
35.886
35.875
35.864
35.853
35.842
35.832
35.823
35.817
35.812
35.807
35.801
35.794
35.784
35.772
35.755
35.733
35.704
35.668
35.625
35.575
35.518
35.457
35.394
35.329
35.265
35.202
35.143
35.088
35.037
34.99
34.945
34.904
34.865
34.829
34.794
34.76
34.726
34.692
34.658
34.624
34.589
34.555
34.519
34.483
34.446
34.41
34.373
34.337
34.302
34.267
34.232
34.197
34.163
34.13
34.098
34.068
34.04
34.014
33.991
33.97
33.952
33.936
33.923
33.914
33.91
33.913
33.926
33.949
33.987
34.041
34.113
34.204
34.315
34.445
34.597
34.767
34.955
35.158
35.374
35.6
35.831
36.064
36.296
36.522
36.74
36.948
37.142
37.321
37.485
37.632
37.763
37.878
37.978
38.061
38.129
38.183
38.224
38.252
38.269
38.274
38.271
38.259
38.241
38.218
38.19
38.158
38.122
38.083
38.041
37.996
37.947
37.896
37.841
37.783
37.721
37.656
37.588
37.516
37.441
37.363
37.281
37.198
37.113
37.028
36.941
36.854
36.768
36.683
36.6
36.52
36.444
36.371
36.302
36.238
36.176
36.118
36.064
36.012
35.965
35.922
35.884
35.852
35.826
35.806
35.792
35.783
35.779
35.779
35.782
35.789
35.797
35.805
35.813
35.819
35.823
35.824
35.823
35.819
35.813
35.806
35.797
35.788
35.777
35.765
35.75
35.734
35.716
35.694
35.669
35.639
35.604
35.564
35.519
35.471
35.419
35.364
35.307
35.25
35.193
35.136
35.081
35.029
34.98
34.933
34.891
34.853
34.818
34.787
34.76
34.735
34.713
34.693
34.674
34.657
34.641
34.626
34.611
34.596
34.581
34.565
34.549
34.531
34.512
34.491
34.468
34.444
34.418
34.389
34.358
34.324
34.288
34.251
34.213
34.176
34.138
34.101
34.065
34.031
34.0
33.973
33.954
33.943
33.943
33.955
33.982
34.026
34.088
34.169
34.27
34.39
34.529
34.685
34.856
35.039
35.233
35.433
35.638
35.844
36.047
36.246
36.439
36.623
36.799
36.964
37.118
37.26
37.389
37.505
37.608
37.699
37.777
37.844
37.899
37.945
37.981
38.009
38.031
38.046
38.055
38.06
38.06
38.055
38.043
38.024
37.997
37.961
37.916
37.861
37.797
37.724
37.643
37.556
37.464
37.367
37.269
37.169
37.069
36.97
36.873
36.777
36.684
36.593
36.505
36.419
36.336
36.255
36.178
36.105
36.035
35.971
35.911
35.856
35.807
35.763
35.723
35.686
35.654
35.625
35.599
35.577
35.559
35.544
35.532
35.524
35.519
35.517
35.519
35.525
35.534
35.546
35.56
35.575
35.59
35.604
35.618
35.629
35.638
35.645
35.648
35.646
35.64
35.629
35.614
35.594
35.571
35.543
35.512
35.477
35.441
35.403
35.364
35.326
35.288
35.252
35.217
35.183
35.15
35.116
35.082
35.047
35.012
34.976
34.941
34.907
34.874
34.842
34.812
34.782
34.754
34.728
34.703
34.679
34.656
34.634
34.611
34.588
34.564
34.539
34.513
34.485
34.455
34.422
34.386
34.348
34.307
34.264
34.219
34.172
34.125
34.079
34.034
33.992
33.955
33.923
33.9
33.887
33.886
33.899
33.928
33.974
34.038
34.121
34.224
34.346
34.487
34.647
34.824
35.015
35.22
35.436
35.662
35.894
36.131
36.37
36.608
36.845
37.076
37.3
37.513
37.713
37.898
38.066
38.215
38.344
38.453
38.541
38.609
38.658
38.689
38.701
38.696
38.674
38.639
38.59
38.53
38.461
38.383
38.3
38.211
38.118
38.021
37.92
37.816
37.709
37.6
37.49
37.378
37.265
37.151
37.037
36.923
36.81
36.698
36.588
36.481
36.376
36.275
36.18
36.091
36.009
35.936
35.871
35.814
35.766
35.726
35.694
35.668
35.648
35.631
35.617
35.603
35.589
35.574
35.555
35.534
35.511
35.485
35.459
35.434
35.409
35.387
35.368
35.353
35.342
35.335
35.333
35.337
35.345
35.357
35.372
35.389
35.407
35.424
35.439
35.451
35.458
35.459
35.454
35.442
35.426
35.404
35.378
35.349
35.317
35.282
35.246
35.207
35.168
35.127
35.086
35.044
35.003
34.962
34.922
34.883
34.846
34.808
34.772
34.736
34.701
34.667
34.632
34.597
34.561
34.525
34.489
34.452
34.416
34.381
34.347
34.315
34.286
34.259
34.234
34.211
34.188
34.166
34.143
34.119
34.092
34.064
34.034
34.003
33.972
33.941
33.91
33.882
33.857
33.836
33.821
33.814
33.817
33.832
33.862
33.909
33.976
34.062
34.169
34.297
34.446
34.614
34.801
35.002
35.216
35.44
35.67
35.905
36.141
36.375
36.603
36.823
37.033
37.231
37.417
37.59
37.749
37.894
38.024
38.139
38.237
38.319
38.385
38.437
38.473
38.495
38.504
38.5
38.482
38.454
38.415
38.366
38.31
38.248
38.182
38.114
38.044
37.974
37.904
37.834
37.764
37.692
37.619
37.542
37.463
37.379
37.292
37.201
37.107
37.011
36.913
36.813
36.712
36.613
36.515
36.421
36.332
36.248
36.171
36.099
36.034
35.975
35.921
35.872
35.826
35.784
35.746
35.71
35.677
35.646
35.618
35.593
35.571
35.553
35.54
35.531
35.526
35.525
35.527
35.533
35.54
35.549
35.558
35.568
35.576
35.584
35.59
35.595
35.596
35.594
35.588
35.58
35.568
35.553
35.535
35.514
35.49
35.463
35.433
35.401
35.366
35.329
35.289
35.247
35.203
35.159
35.114
35.068
35.021
34.975
34.928
