Trial 1:0back
33.1
33.059
33.018
32.977
32.937
32.898
32.861
32.826
32.793
32.763
32.735
32.711
32.689
32.67
32.652
32.636
32.621
32.606
32.59
32.572
32.552
32.53
32.503
32.474
32.44
32.402
32.36
32.316
32.268
32.219
32.168
32.116
32.065
32.013
31.962
31.912
31.863
31.817
31.773
31.731
31.692
31.655
31.621
31.589
31.559
31.53
31.503
31.476
31.45
31.423
31.396
31.368
31.339
31.308
31.275
31.241
31.206
31.168
31.13
31.093
31.056
31.02
30.986
30.955
30.927
30.902
30.88
30.863
30.852
30.847
30.85
30.864
30.892
30.936
31.002
31.093
31.213
31.367
31.556
31.783
32.049
32.352
32.692
33.064
33.464
33.888
34.329
34.782
35.241
35.701
36.156
36.601
37.033
37.447
37.84
38.209
38.551
38.864
39.147
39.4
39.621
39.81
39.968
40.096
40.194
40.264
40.309
40.329
40.327
40.305
40.265
40.209
40.138
40.055
39.959
39.853
39.738
39.616
39.487
39.354
39.217
39.078
38.939
38.799
38.66
38.522
38.386
38.252
38.12
37.989
37.861
37.734
37.607
37.481
37.356
37.231
37.106
36.981
36.857
36.734
36.613
36.494
36.377
36.264
36.155
36.051
35.952
35.861
35.777
35.702
35.636
35.579
35.531
35.493
35.465
35.445
35.434
35.431
35.437
35.449
35.468
35.493
35.522
35.555
35.592
35.632
35.673
35.717
35.761
35.805
35.848
35.89
35.929
35.967
36.001
36.031
36.057
36.077
36.093
36.102
36.106
36.103
36.096
36.082
36.064
36.039
36.008
35.972
35.93
35.883
35.83
35.773
35.712
35.648
35.582
35.513
35.442
35.371
35.299
35.227
35.156
35.085
35.015
34.945
34.877
34.809
34.741
34.674
34.607
34.54
34.473
34.406
34.34
34.274
34.209
34.144
34.078
34.013
33.948
33.883
33.819
33.755
33.692
33.629
33.566
33.503
33.439
33.376
33.312
33.248
33.185
33.122
33.061
33.001
32.943
32.886
32.833
32.781
32.731
32.684
32.64
32.597
32.557
32.519
32.482
32.447
32.413
32.38
32.349
32.318
32.288
32.259
32.232
32.205
32.179
32.154
32.129
32.105
32.082
32.058
32.033
32.009
31.984
31.96
31.935
31.911
31.888
31.866
31.846
31.827
31.809
31.794
31.78
31.767
31.756
31.746
31.736
31.728
31.72
31.713
31.706
31.7
31.694
31.688
31.683
31.677
31.67
31.663
31.655
31.646
31.637
31.626
31.615
31.603
31.591
31.579
31.567
31.555
31.543
31.53
31.518
31.505
31.492
31.478
31.464
31.45
31.434
31.417
31.399
31.381
31.361
31.34
31.319
31.296
31.273
31.249
31.224
31.199
31.174
31.15
31.127
31.107
31.091
31.08
31.076
31.084
31.105
31.144
31.206
31.293
31.409
31.558
31.741
31.96
32.214
32.503
32.824
33.174
33.55
33.946
34.358
34.781
35.208
35.635
36.055
36.464
36.858
37.233
37.586
37.915
38.218
38.494
38.743
38.964
39.159
39.328
39.472
39.591
39.688
39.762
39.814
39.847
39.859
39.854
39.831
39.792
39.739
39.671
39.592
39.501
39.4
39.29
39.173
39.05
38.922
38.789
38.653
38.514
38.375
38.235
38.095
37.957
37.821
37.686
37.553
37.422
37.293
37.166
37.04
36.916
36.793
36.67
36.548
36.426
36.305
36.186
36.068
35.953
35.841
35.733
35.631
35.536
35.448
35.368
35.297
35.236
35.185
35.145
35.117
35.099
35.092
35.096
35.109
35.131
35.161
35.197
35.239
35.285
35.335
35.387
35.442
35.499
35.555
35.611
35.666
35.719
35.77
35.817
35.86
35.898
35.931
35.958
35.979
35.995
36.005
36.009
36.007
35.999
35.986
35.967
35.943
35.914
35.88
35.842
35.8
35.755
35.707
35.655
35.601
35.544
35.484
35.421
35.356
35.29
35.222
35.154
35.085
35.016
34.947
34.879
34.811
34.744
34.678
34.614
34.551
34.49
34.43
34.371
34.314
34.257
34.202
34.146
34.092
34.037
33.983
33.929
33.875
33.822
33.768
33.715
33.661
33.608
33.554
33.501
33.448
33.396
33.347
33.299
33.254
33.211
33.17
33.132
33.096
33.063
33.032
33.001
32.971
32.941
32.91
32.879
32.847
32.814
32.781
32.748
32.716
32.684
32.653
32.624
32.595
32.568
32.541
32.515
32.49
32.465
32.441
32.417
32.394
32.37
32.346
32.322
32.299
32.276
32.254
32.233
32.213
32.196
32.181
32.169
32.159
32.15
32.142
32.134
32.125
32.116
32.104
32.09
32.075
32.056
32.035
32.012
31.986
31.959
31.932
31.904
31.877
31.852
31.828
31.808
31.791
31.778
31.769
31.766
31.769
31.781
31.804
31.84
31.893
31.966
32.063
32.187
32.341
32.526
32.744
32.995
33.277
33.589
33.928
34.292
34.675
35.073
35.481
35.894
36.307
36.714
37.111
37.495
37.861
38.206
38.529
38.827
39.1
39.346
39.566
39.759
39.926
40.066
40.181
40.27
40.337
40.381
40.404
40.409
40.397
40.369
40.326
40.27
40.203
40.125
40.038
39.944
39.842
39.735
39.624
39.508
39.389
39.267
39.142
39.015
38.885
38.752
38.618
38.483
38.346
38.209
38.071
37.933
37.795
37.657
37.52
37.383
37.248
37.114
36.982
36.852
36.725
36.602
36.483
36.369
36.261
36.16
36.068
35.984
35.91
35.845
35.789
35.743
35.706
35.678
35.659
35.649
35.648
35.655
35.67
35.694
35.725
35.762
35.806
35.853
35.905
35.959
36.015
36.071
36.126
36.18
36.232
36.281
36.327
36.368
36.405
36.436
36.463
36.483
36.499
36.508
36.51
36.507
36.497
36.481
36.459
36.432
36.4
36.365
36.326
36.284
36.24
36.193
36.144
36.092
36.039
35.983
35.926
35.867
35.807
35.745
35.681
35.616
35.549
35.48
35.41
35.34
35.269
35.199
35.13
35.061
34.992
34.924
34.857
34.79
34.723
34.655
34.588
34.52
34.453
34.386
34.319
34.254
34.19
34.127
34.067
34.008
33.953
33.899
33.847
33.796
33.747
33.697
33.648
33.6
33.552
33.504
33.457
33.411
33.366
33.321
33.277
33.234
33.192
33.151
33.111
33.071
33.033
32.995
32.957
32.92
32.884
32.849
32.815
32.782
32.751
32.723
32.697
32.674
32.652
32.633
32.617
32.603
32.591
32.581
32.572
32.564
32.557
32.551
32.545
32.538
32.531
32.524
32.517
32.508
32.5
32.49
32.479
32.469
32.457
32.446
32.435
32.423
32.411
32.399
32.386
32.372
32.357
32.341
32.323
32.306
32.287
32.268
32.249
32.23
32.212
32.194
32.176
32.16
32.148
32.14
32.138
32.145
32.164
32.198
32.252
32.331
32.437
32.574
32.746
32.955
33.201
33.483
33.8
34.149
34.527
34.929
35.352
35.789
36.237
36.69
37.143
37.59
38.026
38.447
38.849
39.229
39.585
39.913
40.214
40.487
40.731
40.947
41.135
41.295
41.43
41.539
41.624
41.686
41.727
41.748
41.749
41.734
41.702
41.656
41.596
41.524
41.442
41.351
41.252
41.146
41.034
40.917
40.796
40.673
40.548
40.421
40.295
40.17
40.047
39.925
39.806
39.688
39.572
39.457
39.343
39.227
39.111
38.994
38.875
38.755
38.634
38.511
38.389
38.267
38.147
38.03
37.917
37.807
37.703
37.605
37.513
37.43
37.355
37.29
37.235
37.191
37.157
37.135
37.123
37.121
37.129
37.145
37.168
37.199
37.234
37.274
37.318
37.364
37.412
37.46
37.508
37.555
37.6
37.642
37.681
37.717
37.747
37.773
37.793
37.806
37.814
37.815
37.81
37.798
37.78
37.756
37.727
37.692
37.652
37.606
37.555
37.5
37.441
37.377
37.309
37.239
37.165
37.089
37.012
36.933
36.853
36.774
36.694
36.614
36.535
36.456
36.377
36.299
36.222
36.145
36.069
35.994
35.92
35.848
35.776
35.706
35.636
35.567
35.498
35.43
35.363
35.295
35.228
35.162
35.096
35.032
34.97
34.91
34.852
34.795
34.74
34.686
34.632
34.579
34.527
34.475
34.424
34.373
34.324
34.275
34.228
34.182
34.139
34.096
34.055
34.015
33.975
33.936
33.898
33.86
33.822
33.784
33.747
33.71
33.672
33.635
33.598
33.563
33.529
33.497
33.468
33.442
33.418
33.396
33.377
33.358
33.34
33.322
33.304
33.286
33.266
33.245
33.224
33.202
33.18
33.159
33.138
33.118
33.099
33.081
33.063
33.046
33.028
33.011
32.995
32.979
32.964
32.95
32.936
32.924
32.912
32.899
32.887
32.872
32.857
32.84
32.821
32.799
32.776
32.75
32.723
32.694
32.663
32.632
32.601
32.569
32.537
32.504
32.472
32.441
32.411
32.381
32.353
32.328
32.307
32.294
32.29
32.3
32.327
32.377
32.452
32.557
32.695
32.869
33.08
33.331
33.62
33.947
34.308
34.701
35.12
35.56
36.017
36.485
36.958
37.431
37.897
38.354
38.795
39.218
39.618
39.994
40.344
40.665
40.957
41.22
41.452
41.656
41.829
41.975
42.092
42.184
42.251
42.296
42.32
42.326
42.314
42.286
42.244
42.188
42.121
42.042
41.954
41.857
41.751
41.639
41.521
41.398
41.272
41.142
41.011
40.879
40.748
40.617
40.488
40.36
40.234
40.111
39.99
39.87
39.752
39.635
39.518
39.402
39.284
39.166
39.047
38.927
38.808
38.688
38.569
38.452
38.337
38.227
38.122
38.023
37.933
37.853
37.783
37.724
37.676
37.64
37.616
37.602
37.598
37.604
37.617
37.636
37.66
37.689
37.721
37.756
37.793
37.831
37.87
37.909
37.947
37.983
38.015
38.044
38.068
38.087
38.1
38.108
38.111
38.11
38.104
38.094
38.078
38.058
38.033
38.003
37.968
37.927
37.883
37.833
37.779
37.722
37.661
37.598
37.531
37.461
37.389
37.313
37.235
37.154
37.071
36.986
36.899
36.811
36.723
36.635
36.549
36.464
36.381
36.3
36.221
36.144
36.068
35.993
35.919
35.845
35.772
35.7
35.628
35.556
35.485
35.414
35.344
35.275
35.207
35.14
35.075
35.011
34.95
34.89
34.833
34.779
34.728
34.679
34.633
34.589
34.547
34.505
34.465
34.425
34.386
34.347
34.308
34.269
34.23
34.192
34.153
34.115
34.077
34.04
34.003
33.966
33.929
33.893
33.857
33.822
33.788
33.753
33.719
33.686
33.652
33.619
33.586
33.554
33.524
33.495
33.468
33.443
33.422
33.403
33.387
33.373
33.36
33.349
33.338
33.328
33.316
33.304
33.289
33.273
33.254
33.234
33.213
33.19
33.166
33.14
33.113
33.085
33.057
33.029
33.001
32.974
32.948
32.922
32.895
32.868
32.84
32.811
32.779
32.745
32.709
32.672
32.632
32.591
32.548
32.504
32.46
32.415
32.371
32.327
32.285
32.246
32.21
32.177
32.148
32.124
32.106
32.095
32.095
32.108
32.139
32.191
32.268
32.376
32.516
32.693
32.908
33.162
33.453
33.781
34.141
34.531
34.945
35.378
35.826
36.281
36.74
37.195
37.643
38.079
38.498
38.897
39.273
39.623
39.945
40.239
40.503
40.738
40.944
41.122
41.272
41.396
41.494
41.568
41.62
41.651
41.664
41.658
41.637
41.602
41.553
41.493
41.422
41.341
41.251
41.153
41.048
40.937
40.821
40.701
40.577
40.452
40.325
40.197
40.069
39.941
39.813
39.684
39.554
39.424
39.292
39.158
39.023
38.886
38.747
38.607
38.466
38.326
38.187
38.05
37.918
37.791
37.672
37.561
37.46
37.369
37.29
37.223
37.167
37.123
37.089
37.066
37.053
37.049
37.055
37.068
37.089
37.117
37.151
37.19
37.232
37.278
37.326
37.374
37.422
37.47
37.516
37.56
37.601
37.638
37.671
37.7
37.723
37.741
37.754
37.76
37.761
37.756
37.745
37.727
37.703
37.673
37.635
37.591
37.541
37.485
37.424
37.359
37.29
37.218
37.143
37.066
36.986
36.904
36.82
36.735
36.648
36.561
36.474
36.387
36.3
36.215
36.131
36.049
35.968
35.887
35.808
35.729
35.651
35.574
35.497
35.421
35.345
35.27
35.196
35.123
35.051
34.978
34.907
34.835
34.764
34.693
34.623
34.556
34.49
34.427
34.367
34.31
34.255
34.202
34.15
34.1
34.052
34.004
33.958
33.913
33.869
33.826
33.783
33.742
33.702
33.664
33.627
33.592
33.559
33.528
33.498
33.469
33.441
33.413
33.386
33.358
33.33
33.302
33.276
33.25
33.225
33.202
33.18
33.159
33.14
33.123
33.106
33.09
33.075
33.061
33.047
33.032
33.016
32.999
32.98
32.961
32.941
32.92
32.899
32.877
32.855
32.832
32.809
32.785
32.76
32.734
32.707
32.678
32.647
32.614
32.578
32.541
32.501
32.46
32.418
32.376
32.335
32.297
32.261
32.229
32.201
32.179
32.163
32.157
32.164
32.186
32.226
32.289
32.379
32.499
32.652
32.841
33.067
33.332
33.634
33.974
34.347
34.75
35.179
35.627
36.089
36.56
37.032
37.499
37.958
38.402
38.827
39.231
39.61
39.961
40.285
40.577
40.84
41.071
41.273
41.446
41.591
41.711
41.806
41.878
41.929
41.96
41.972
41.967
41.946
41.912
41.864
41.804
41.734
41.655
41.568
41.474
41.373
41.267
41.156
41.043
40.927
40.809
40.692
40.576
40.461
40.347
40.234
40.121
40.009
39.895
39.78
39.663
39.543
39.42
39.295
39.166
39.035
38.901
38.766
38.631
38.496
38.364
38.236
38.114
37.999
37.893
37.797
37.712
37.638
37.576
37.525
37.483
37.452
37.429
37.415
37.408
37.409
37.417
37.43
37.449
37.472
37.498
37.526
37.556
37.587
37.618
37.649
37.68
37.709
37.737
37.763
37.786
37.806
37.821
37.831
37.837
37.836
37.83
37.818
37.798
37.772
37.739
37.698
37.65
37.596
37.535
37.468
37.395
37.316
37.234
37.149
37.06
36.97
36.878
36.785
36.692
36.599
36.508
36.417
36.329
36.241
36.156
36.071
35.988
35.906
35.824
35.742
35.661
35.58
35.5
35.421
35.344
35.268
35.194
35.122
35.051
34.981
34.911
34.842
34.773
34.704
34.637
34.57
34.504
34.438
34.375
34.312
34.25
34.19
34.132
34.076
34.021
33.969
33.917
33.868
33.82
33.773
33.728
33.684
33.641
33.598
33.557
33.516
33.475
33.436
33.398
33.361
33.326
33.293
33.262
33.233
33.206
33.18
33.156
33.133
33.11
33.088
33.066
33.044
33.024
33.003
32.982
32.961
32.94
32.919
32.897
32.875
32.853
32.831
32.808
32.786
32.763
32.74
32.718
32.697
32.676
32.655
32.636
32.618
32.601
32.586
32.571
32.557
32.542
32.528
32.514
32.499
32.483
32.466
32.448
32.428
32.408
32.385
32.36
32.332
32.303
32.272
32.238
32.203
32.166
32.128
32.089
32.05
32.01
31.97
31.929
31.887
31.845
31.803
31.761
31.719
31.679
31.64
31.603
31.57
31.541
31.519
31.504
31.5
31.51
31.539
31.59
31.669
31.78
31.927
32.113
32.341
32.612
32.926
33.281
33.676
34.106
34.568
35.054
35.559
36.077
36.601
37.125
37.642
38.149
38.638
39.105
39.548
39.961
40.344
40.695
41.012
41.295
41.546
41.764
41.95
42.105
42.232
42.331
42.404
42.453
42.48
42.485
42.472
42.441
42.395
42.334
42.26
42.175
42.08
41.977
41.866
41.75
41.63
41.505
41.378
41.249
41.118
40.988
40.857
40.726
40.597
40.469
40.342
40.216
40.091
39.967
39.843
39.719
39.595
39.472
39.348
39.225
39.101
38.978
38.855
38.733
38.613
38.496
38.384
38.278
38.178
38.087
38.005
37.931
37.867
37.812
37.765
37.727
37.697
37.674
37.658
37.648
37.643
37.644
37.651
37.662
37.679
37.7
37.726
37.755
37.786
37.819
37.853
37.887
37.919
37.949
37.976
38.0
38.018
38.031
38.037
38.036
38.026
38.009
37.983
37.948
37.904
37.852
37.791
37.722
37.647
37.566
37.481
37.392
37.301
37.209
37.116
37.023
36.929
36.836
36.743
36.649
36.556
36.462
36.369
36.276
36.184
36.093
36.003
35.914
35.826
35.739
35.654
35.57
35.487
35.405
35.326
35.247
35.17
35.094
35.019
34.945
34.872
34.799
34.727
34.656
34.586
34.517
34.45
34.384
34.319
34.256
34.195
34.136
34.08
34.027
33.977
33.929
33.882
33.837
33.793
33.75
33.709
33.669
33.63
33.593
33.557
33.523
33.491
33.46
33.432
33.405
33.379
33.353
33.328
33.302
33.275
33.248
33.219
33.19
33.158
33.126
33.092
33.058
33.024
32.991
32.958
32.928
32.899
32.873
32.849
32.827
32.805
32.785
32.765
32.744
32.724
32.702
32.681
32.66
32.638
32.615
32.591
32.567
32.542
32.516
32.488
32.46
32.43
32.399
32.368
32.335
32.303
32.27
32.237
32.205
32.172
32.14
32.109
32.078
32.048
32.018
31.99
31.962
31.935
31.909
31.883
31.858
31.834
31.81
31.787
31.763
31.739
31.715
31.692
31.668
31.645
31.622
31.598
31.574
31.55
31.525
31.501
31.475
31.45
31.424
31.397
31.369
31.34
31.309
31.275
31.24
31.203
31.165
31.126
31.088
31.052
31.017
30.986
30.96
30.94
30.93
30.931
30.947
30.984
31.044
31.134
31.257
31.418
31.621
31.866
32.157
32.492
32.87
33.288
33.741
34.225
34.732
35.258
35.796
36.338
36.88
37.415
37.937
38.442
38.925
39.382
39.81
40.208
40.574
40.906
41.203
41.467
41.696
41.891
42.054
42.186
42.288
42.362
42.411
42.436
42.44
42.423
42.388
42.337
42.272
42.194
42.104
42.005
41.897
41.781
41.66
41.533
41.401
41.267
41.13
40.992
40.854
40.717
40.581
40.449
40.32
40.194
40.07
39.949
39.829
39.71
39.591
39.471
39.35
39.227
39.102
38.974
38.846
38.716
38.587
38.458
38.332
38.209
38.092
37.981
37.877
37.782
37.697
37.623
37.56
37.507
37.465
37.434
37.413
37.402
37.402
37.41
37.427
37.45
37.48
37.515
37.553
37.594
37.636
37.677
37.717
37.753
37.786
37.815
37.839
37.859
37.873
37.882
37.885
37.883
37.874
37.859
37.838
37.81
37.775
37.735
37.689
37.638
37.582
37.522
37.458
37.39
37.32
37.246
37.17
37.09
37.007
36.92
36.83
36.737
36.641
36.544
36.445
36.346
36.247
36.149
36.052
35.957
35.863
35.771
35.681
35.593
35.507
35.423
35.34
35.259
35.179
35.101
35.023
34.947
34.872
34.798
34.725
34.653
34.581
34.509
34.437
34.366
34.295
34.226
34.158
34.091
34.027
33.964
33.904
33.845
33.789
33.735
33.683
33.633
33.585
33.539
33.494
33.451
33.409
33.368
33.329
33.29
33.253
33.216
33.18
33.146
33.114
33.083
33.055
33.028
33.003
32.979
32.957
32.935
32.914
32.894
32.874
32.854
32.835
32.816
32.797
32.779
32.761
32.743
32.726
32.708
32.69
32.673
32.655
32.637
32.619
32.6
32.581
32.561
32.54
32.518
32.496
32.473
32.45
32.426
32.401
32.375
32.349
32.322
32.294
32.265
32.235
32.205
32.173
32.141
32.107
32.073
32.038
32.003
31.968
31.933
31.898
31.864
31.831
31.799
31.769
31.741
31.713
31.687
31.662
31.636
31.611
31.584
31.556
31.527
31.496
31.464
31.429
31.393
31.355
31.315
31.274
31.232
31.191
31.151
31.113
31.077
31.044
31.014
30.988
30.964
30.944
30.928
30.916
30.911
30.915
30.931
30.962
31.014
31.091
31.199
31.341
31.522
31.744
32.009
32.318
32.669
33.06
33.488
33.948
34.435
34.943
35.464
35.992
36.521
37.045
37.557
38.053
38.528
38.978
39.4
39.792
40.151
40.477
40.769
41.027
41.252
41.445
41.605
41.736
41.837
41.91
41.958
41.982
41.983
41.964
41.926
41.871
41.801
41.716
41.619
41.511
41.393
41.266
41.132
40.993
40.85
40.705
40.558
40.411
40.265
40.119
39.973
39.829
39.687
39.546
39.406
39.266
39.128
38.989
38.85
38.71
38.569
38.427
38.285
38.143
38.001
37.862
37.725
37.594
37.469
37.351
37.243
37.145
37.057
36.982
36.918
36.868
36.83
36.804
36.79
36.787
36.795
36.814
36.841
36.875
36.917
36.964
37.013
37.066
37.119
37.173
37.226
37.279
37.33
37.378
37.423
37.465
37.503
37.535
37.562
37.582
37.595
37.6
37.597
37.586
37.568
37.543
37.51
37.471
37.425
37.372
37.314
37.25
37.18
37.105
37.025
36.941
36.852
36.76
36.664
36.565
36.465
36.363
36.26
36.157
36.055
35.953
35.853
35.754
35.656
35.561
35.466
35.374
35.283
35.193
35.106
35.019
34.935
34.851
34.769
34.688
34.608
34.529
34.449
34.37
34.292
34.214
34.138
34.062
33.989
33.918
33.85
33.784
33.721
33.66
33.602
33.546
33.492
33.44
33.39
33.342
33.297
33.253
33.212
33.174
33.137
33.103
33.07
33.04
33.011
32.983
32.955
32.929
32.902
32.875
32.849
32.822
32.795
32.768
32.742
32.715
32.69
32.664
32.64
32.617
32.594
32.572
32.551
32.53
32.51
32.49
32.47
32.45
32.43
32.411
32.392
32.374
32.357
32.34
32.323
32.307
32.291
32.273
32.256
32.238
32.219
32.2
32.18
32.159
32.137
32.115
32.092
32.068
32.043
32.018
31.993
31.968
31.943
31.918
31.893
31.868
31.843
31.815
31.787
31.756
31.724
31.691
31.656
31.619
31.581
31.541
31.501
31.461
31.42
31.381
31.344
31.31
31.28
31.258
31.246
31.247
31.264
31.303
31.368
31.463
31.593
31.763
31.975
32.23
32.531
32.874
33.258
33.68
34.135
34.618
35.124
35.646
36.178
36.713
