Trial 1:0back
33.302
33.28
33.257
33.231
33.204
33.176
33.147
33.116
33.082
33.046
33.006
32.963
32.916
32.868
32.817
32.766
32.715
32.668
32.626
32.592
32.569
32.56
32.569
32.6
32.658
32.745
32.866
33.022
33.216
33.447
33.714
34.016
34.35
34.711
35.094
35.494
35.904
36.318
36.729
37.131
37.519
37.889
38.235
38.555
38.847
39.11
39.342
39.545
39.719
39.865
39.984
40.078
40.149
40.198
40.226
40.237
40.232
40.212
40.178
40.131
40.073
40.005
39.927
39.84
39.746
39.645
39.538
39.425
39.307
39.184
39.058
38.929
38.797
38.663
38.526
38.387
38.247
38.105
37.961
37.816
37.67
37.523
37.376
37.23
37.085
36.941
36.799
36.661
36.527
36.398
36.277
36.164
36.061
35.969
35.89
35.825
35.775
35.739
35.717
35.71
35.715
35.733
35.761
35.799
35.845
35.897
35.955
36.016
36.078
36.141
36.202
36.262
36.318
36.369
36.416
36.457
36.492
36.521
36.542
36.556
36.563
36.564
36.558
36.546
36.528
36.504
36.475
36.441
36.4
36.354
36.302
36.245
36.183
36.116
36.046
35.972
35.895
35.816
35.736
35.654
35.572
35.49
35.409
35.328
35.248
35.17
35.093
35.017
34.941
34.866
34.79
34.715
34.639
34.564
34.489
34.414
34.341
34.269
34.198
34.13
34.063
33.998
33.936
33.874
33.814
33.755
33.701
33.651
33.605
33.564
33.526
33.49
33.455
33.422
33.389
33.358
33.327
33.296
33.268
33.241
33.217
33.192
33.165
33.138
33.111
33.085
33.057
33.027
32.999
32.975
32.956
32.945
32.94
32.942
32.95
32.963
32.983
33.007
33.035
33.065
33.094
33.122
33.146
33.165
33.179
33.188
33.189
33.184
33.174
33.16
33.144
33.126
33.107
33.087
33.066
33.044
33.019
32.99
32.955
32.914
32.869
32.819
32.768
32.714
32.661
32.609
32.56
32.516
32.477
32.446
32.425
32.417
32.426
32.456
32.51
32.592
32.704
32.85
33.032
33.25
33.507
33.8
34.129
34.489
34.875
35.283
35.705
36.136
36.568
36.995
37.41
37.81
38.187
38.539
38.863
39.158
39.42
39.65
39.848
40.015
40.152
40.26
40.342
40.401
40.438
40.458
40.462
40.452
40.43
40.396
40.354
40.303
40.245
40.18
40.109
40.033
39.952
39.865
39.774
39.679
39.58
39.477
39.369
39.257
39.14
39.018
38.891
38.759
38.622
38.48
38.335
38.187
38.038
37.889
37.739
37.592
37.448
37.309
37.175
37.047
36.925
36.811
36.704
36.606
36.516
36.436
36.365
36.305
36.256
36.218
36.19
36.173
36.166
36.168
36.18
36.2
36.228
36.261
36.299
36.341
36.385
36.43
36.474
36.517
36.558
36.597
36.633
36.665
36.694
36.719
36.74
36.757
36.767
36.769
36.763
36.749
36.727
36.697
36.662
36.62
36.574
36.525
36.471
36.413
36.35
36.281
36.207
36.127
36.042
35.953
35.86
35.763
35.664
35.565
35.465
35.366
35.269
35.174
35.081
34.99
34.902
34.816
34.733
34.652
34.572
34.494
34.419
34.346
34.276
34.21
34.146
34.085
34.027
33.971
33.917
33.865
33.815
33.766
33.719
33.672
33.626
33.581
33.537
33.497
33.458
33.423
33.39
33.36
33.332
33.305
33.278
33.252
33.226
33.202
33.178
33.155
33.136
33.121
33.11
33.101
33.094
33.088
33.081
33.072
33.062
33.049
33.033
33.016
32.996
32.977
32.958
32.941
32.925
32.913
32.903
32.897
32.895
32.896
32.901
32.907
32.915
32.921
32.925
32.924
32.92
32.91
32.894
32.874
32.848
32.816
32.78
32.74
32.696
32.651
32.604
32.558
32.513
32.47
32.429
32.393
32.361
32.336
32.32
32.316
32.327
32.357
32.409
32.486
32.592
32.729
32.9
33.106
33.348
33.625
33.935
34.275
34.643
35.033
35.44
35.858
36.284
36.709
37.128
37.536
37.927
38.295
38.636
38.948
39.228
39.475
39.688
39.868
40.016
40.133
40.224
40.289
40.333
40.358
40.367
40.361
40.342
40.311
40.27
40.221
40.165
40.102
40.034
39.959
39.879
39.793
39.702
39.606
39.504
39.397
39.285
39.168
39.046
38.92
38.791
38.659
38.524
38.388
38.25
38.111
37.97
37.828
37.685
37.541
37.397
37.253
37.11
36.972
36.837
36.709
36.588
36.474
36.37
36.277
36.196
36.129
36.074
36.033
36.005
35.989
35.984
35.989
36.003
36.023
36.048
36.077
36.109
36.143
36.179
36.217
36.257
36.296
36.336
36.375
36.411
36.444
36.474
36.499
36.521
36.537
36.548
36.553
36.551
36.542
36.525
36.5
36.468
36.429
36.383
36.333
36.277
36.218
36.154
36.085
36.012
35.935
35.853
35.768
35.681
35.593
35.503
35.413
35.322
35.232
35.141
35.051
34.961
34.872
34.784
34.697
34.61
34.524
34.439
34.354
34.27
34.186
34.105
34.026
33.951
33.88
33.813
33.751
33.694
33.641
33.593
33.548
33.507
33.468
33.432
33.397
33.363
33.331
33.301
33.274
33.25
33.228
33.209
33.191
33.172
33.153
33.132
33.109
33.083
33.054
33.023
32.992
32.96
32.931
32.905
32.884
32.867
32.855
32.845
32.838
32.833
32.828
32.825
32.822
32.82
32.818
32.817
32.815
32.813
32.81
32.805
32.8
32.793
32.785
32.776
32.767
32.758
32.749
32.739
32.729
32.718
32.704
32.688
32.668
32.645
32.619
32.59
32.558
32.525
32.491
32.456
32.419
32.382
32.343
32.303
32.263
32.22
32.176
32.131
32.084
32.038
31.993
31.953
31.921
31.899
31.891
31.9
31.93
31.983
32.062
32.172
32.315
32.494
32.712
32.97
33.27
33.609
33.985
34.391
34.823
35.271
35.729
36.19
36.646
37.092
37.52
37.926
38.305
38.653
38.967
39.247
39.49
39.699
39.874
40.017
40.131
40.218
40.28
40.32
40.342
40.347
40.339
40.318
40.286
40.244
40.193
40.134
40.067
39.994
39.914
39.827
39.734
39.635
39.529
39.417
39.299
39.178
39.053
38.926
38.796
38.664
38.531
38.396
38.258
38.118
37.976
37.832
37.687
37.541
37.394
37.247
37.102
36.959
36.821
36.688
36.563
36.446
36.338
36.241
36.155
36.081
36.019
35.969
35.931
35.904
35.889
35.884
35.889
35.902
35.924
35.952
35.986
36.024
36.064
36.105
36.146
36.187
36.228
36.267
36.304
36.339
36.369
36.395
36.416
36.431
36.44
36.443
36.44
36.43
36.414
36.392
36.364
36.33
36.29
36.243
36.19
36.133
36.071
36.005
35.937
35.866
35.793
35.718
35.64
35.56
35.478
35.396
35.313
35.232
35.152
35.073
34.995
34.917
34.839
34.761
34.682
34.602
34.523
34.443
34.364
34.286
34.21
34.136
34.065
33.996
33.928
33.861
33.794
33.725
33.655
33.585
33.516
33.449
33.385
33.325
33.269
33.216
33.167
33.12
33.078
33.038
33.002
32.968
32.938
32.911
32.887
32.867
32.848
32.832
32.816
32.801
32.787
32.773
32.759
32.746
32.734
32.723
32.712
32.702
32.694
32.689
32.686
32.686
32.687
32.689
32.692
32.695
32.698
32.7
32.702
32.704
32.704
32.702
32.7
32.695
32.689
32.681
32.671
32.66
32.648
32.634
32.62
32.606
32.59
32.574
32.556
32.535
32.51
32.482
32.451
32.416
32.378
32.338
32.296
32.252
32.208
32.162
32.115
32.065
32.014
31.962
31.908
31.854
31.8
31.749
31.702
31.663
31.631
31.609
31.599
31.604
31.626
31.669
31.736
31.831
31.959
32.123
32.324
32.565
32.845
33.164
33.519
33.909
34.328
34.772
35.233
35.704
36.178
36.647
37.105
37.546
37.962
38.351
38.708
39.03
39.318
39.57
39.787
39.97
40.121
40.24
40.331
40.395
40.436
40.455
40.454
40.436
40.401
40.353
40.291
40.219
40.137
40.046
39.949
39.846
39.737
39.622
39.502
39.378
39.25
39.12
38.989
38.856
38.722
38.588
38.453
38.318
38.182
38.047
37.911
37.775
37.639
37.503
37.368
37.233
37.099
36.965
36.833
36.703
36.576
36.454
36.338
36.229
36.128
36.034
35.948
35.87
35.803
35.747
35.704
35.674
35.658
35.655
35.663
35.682
35.71
35.747
35.79
35.839
35.892
35.948
36.004
36.061
36.118
36.173
36.226
36.273
36.314
36.348
36.373
36.391
36.402
36.405
36.4
36.386
36.361
36.327
36.284
36.233
36.176
36.114
36.048
35.981
35.913
35.845
35.776
35.707
35.636
35.564
35.49
35.413
35.335
35.255
35.172
35.086
34.999
34.909
34.816
34.72
34.623
34.525
34.426
34.327
34.23
34.136
34.044
33.954
33.867
33.783
33.702
33.623
33.546
33.471
33.397
33.324
33.253
33.185
33.122
33.062
33.006
32.955
32.909
32.869
32.832
32.799
32.769
32.742
32.716
32.691
32.663
32.631
32.597
32.563
32.529
32.498
32.472
32.452
32.439
32.433
32.434
32.442
32.455
32.473
32.494
32.517
32.539
32.56
32.578
32.593
32.604
32.611
32.615
32.616
32.615
32.612
32.607
32.6
32.591
32.58
32.567
32.551
32.535
32.518
32.5
32.483
32.466
32.449
32.431
32.412
32.392
32.371
32.347
32.321
32.294
32.265
32.235
32.202
32.168
32.131
32.091
32.048
32.001
31.952
31.9
31.847
31.792
31.738
31.685
31.634
31.586
31.539
31.494
31.451
31.411
31.375
31.344
31.319
31.305
31.305
31.323
31.366
31.438
31.545
31.692
31.883
32.119
32.402
32.731
33.104
33.516
33.962
34.435
34.93
35.437
35.948
36.456
36.951
37.428
37.878
38.299
38.686
39.035
39.347
39.618
39.85
40.043
40.199
40.321
40.41
40.47
40.504
40.513
40.502
40.471
40.424
40.364
40.292
40.213
40.126
40.034
39.937
39.836
39.732
39.626
39.517
39.405
39.293
39.178
39.063
38.945
38.825
38.701
38.574
38.442
38.307
38.169
38.027
37.882
37.734
37.582
37.427
37.269
37.11
36.951
36.793
36.639
36.489
36.345
36.207
36.076
35.955
35.843
35.743
35.654
35.578
35.516
35.467
35.432
35.41
35.401
35.402
35.414
35.435
35.465
35.502
35.546
35.595
35.647
35.702
35.758
35.813
35.866
35.917
35.965
36.01
36.05
36.086
36.117
36.143
36.163
36.177
36.183
36.182
36.174
36.159
36.137
36.109
36.074
36.033
35.985
35.93
35.87
35.803
35.731
35.654
35.573
35.488
35.399
35.307
35.212
35.116
35.019
34.922
34.824
34.725
34.626
34.527
34.427
34.327
34.227
34.126
34.026
33.926
33.826
33.727
33.629
33.535
33.444
33.357
33.276
33.2
33.128
33.062
33.0
32.943
32.89
32.841
32.796
32.755
32.718
32.683
32.651
32.621
32.593
32.566
32.539
32.513
32.488
32.463
32.438
32.414
32.392
32.372
32.354
32.34
32.328
32.319
32.311
32.305
32.299
32.294
32.29
32.286
32.283
32.281
32.28
32.28
32.28
32.28
32.28
32.278
32.275
32.269
32.263
32.254
32.245
32.235
32.224
32.212
32.199
32.185
32.17
32.154
32.135
32.115
32.095
32.073
32.05
32.026
32.0
31.973
31.946
31.918
31.888
31.857
31.824
31.789
31.752
31.713
31.672
31.629
31.585
31.54
31.494
31.449
31.404
31.359
31.314
31.271
31.229
31.19
31.152
31.12
31.093
31.075
31.07
31.079
31.107
31.156
31.231
31.337
31.478
31.657
31.878
32.145
32.456
32.813
33.211
33.646
34.112
34.602
35.11
35.626
36.142
36.651
37.143
37.612
38.051
38.455
38.819
39.143
39.424
39.664
39.864
40.025
40.15
40.242
40.303
40.339
40.352
40.345
40.322
40.285
40.236
40.177
40.108
40.03
39.945
39.854
39.756
39.652
39.543
39.429
39.308
39.182
39.051
38.915
38.774
38.629
38.48
38.326
38.168
38.005
37.837
37.666
37.492
37.315
37.136
36.955
36.773
36.593
36.414
36.239
36.067
35.901
35.744
35.595
35.458
35.333
35.222
35.124
35.041
34.972
34.919
34.882
34.862
34.858
34.871
34.9
34.942
34.998
35.065
35.142
35.226
35.315
35.409
35.503
35.599
35.694
35.786
35.874
35.955
36.03
36.097
36.155
36.205
36.245
36.275
36.294
36.301
36.294
36.275
36.243
36.2
36.148
36.088
36.021
35.95
35.876
35.798
35.719
35.637
35.553
35.468
35.382
35.295
35.207
35.118
35.027
34.935
34.841
34.745
34.647
34.548
34.448
34.348
34.248
34.149
34.052
33.957
33.863
33.771
33.682
33.593
33.507
33.422
33.34
33.26
33.184
33.113
33.045
32.982
32.922
32.865
32.811
32.759
32.709
32.66
32.614
32.57
32.529
32.49
32.454
32.42
32.388
32.358
32.33
32.303
32.278
32.254
32.232
32.212
32.195
32.184
32.177
32.175
32.176
32.18
32.185
32.189
32.194
32.198
32.202
32.206
32.211
32.216
32.22
32.225
32.229
32.232
32.233
32.233
32.232
32.23
32.227
32.222
32.217
32.212
32.207
32.201
32.195
32.188
32.181
32.173
32.165
32.155
32.144
32.13
32.114
32.096
32.075
32.051
32.023
31.99
31.953
31.912
31.865
31.816
31.764
31.71
31.656
31.602
31.551
31.505
31.468
31.442
31.432
31.442
31.475
31.536
31.631
31.763
31.936
32.152
32.414
32.721
33.071
33.462
33.89
34.349
34.833
35.336
35.849
36.363
36.872
37.365
37.838
38.282
38.694
39.071
39.408
39.706
39.965
40.185
40.367
40.513
40.625
40.707
40.761
40.789
40.796
40.783
40.752
40.707
40.647
40.576
40.493
40.402
40.301
40.193
40.079
39.959
39.833
39.702
39.566
39.425
39.279
39.129
38.975
38.817
38.655
38.49
38.322
38.152
37.979
37.804
37.627
37.449
37.27
37.091
36.914
36.739
36.569
36.404
36.245
36.095
35.953
35.82
35.699
35.588
35.49
35.405
35.332
35.272
35.227
35.196
35.18
35.179
35.193
35.221
35.263
35.317
35.381
35.454
35.534
35.618
35.703
35.789
35.872
35.953
36.029
36.099
36.163
36.219
36.267
36.306
36.335
36.355
36.365
36.367
36.362
36.353
36.337
36.315
36.286
36.251
36.208
36.158
36.102
36.039
35.971
35.899
35.821
35.74
35.654
35.564
35.471
35.375
35.276
35.173
35.069
34.963
34.858
34.753
34.649
34.547
34.445
34.345
34.247
34.151
34.057
33.964
33.874
33.785
33.698
33.613
33.528
33.444
33.362
33.281
33.202
33.126
33.052
32.98
32.912
32.847
32.786
32.728
32.674
32.623
32.576
32.532
32.492
32.457
32.425
32.397
32.372
32.35
32.332
32.316
32.304
32.295
32.289
32.286
32.286
32.288
32.292
32.298
32.304
32.312
32.319
32.326
32.332
32.339
32.345
32.351
32.357
32.363
32.371
32.379
32.388
32.396
32.402
32.407
32.41
32.411
32.411
32.409
32.404
32.396
32.386
32.371
32.354
32.332
32.306
32.277
32.244
32.209
32.171
32.131
32.088
32.042
31.994
31.944
31.892
31.837
31.781
31.725
31.669
31.616
31.567
31.524
31.492
31.471
31.464
31.476
31.508
31.565
31.651
31.771
31.927
32.124
32.364
32.65
32.979
33.352
33.767
34.218
34.702
35.209
35.732
36.265
36.799
37.325
37.835
38.324
38.783
39.209
39.597
39.944
40.248
40.509
40.728
40.905
41.044
41.147
41.218
41.26
41.276
41.271
41.245
41.203
41.147
41.078
40.999
40.912
40.816
40.715
40.608
40.498
40.384
40.268
40.15
40.03
39.909
39.785
39.659
39.531
39.403
39.274
39.144
39.014
38.884
38.752
38.617
38.481
38.342
38.2
38.053
37.902
37.748
37.593
37.438
37.283
37.132
36.984
36.842
36.707
36.584
36.472
36.371
36.283
36.207
36.142
36.088
36.045
36.014
35.993
35.981
35.978
35.982
35.995
36.017
36.047
36.085
36.129
36.178
36.23
36.284
36.338
36.392
36.444
36.493
36.539
36.582
36.621
36.655
36.684
36.706
36.721
36.728
36.725
36.712
36.69
36.658
36.616
36.565
36.506
36.438
36.363
36.281
36.194
36.102
36.007
35.909
35.809
35.707
35.604
35.501
35.397
35.293
35.187
35.082
34.976
34.871
34.767
34.664
34.563
34.462
34.363
34.266
34.172
34.08
33.989
33.901
33.815
33.731
33.651
33.573
33.499
33.43
33.365
33.306
33.251
33.202
33.159
33.119
33.084
33.052
33.021
32.992
32.963
32.935
32.908
32.881
32.855
32.83
32.806
32.783
32.76
32.737
32.714
32.691
32.669
32.647
32.626
32.607
32.589
32.575
32.563
32.553
32.547
32.542
32.539
32.536
32.532
32.529
32.525
32.521
32.516
32.511
32.506
32.5
32.494
32.487
32.479
32.471
32.462
32.452
32.442
32.43
32.418
32.405
32.39
32.373
32.354
32.332
32.307
32.279
32.248
32.214
32.177
32.135
32.089
32.039
31.987
31.933
31.878
31.825
31.776
31.734
31.7
31.678
31.671
31.681
31.714
31.773
31.862
31.985
32.144
32.342
32.582
32.865
33.192
33.56
33.968
34.412
34.886
35.382
35.891
36.407
36.92
37.421
37.903
38.36
38.785
39.174
39.525
39.836
40.107
40.339
40.533
40.692
40.817
40.911
40.977
41.019
41.04
41.042
41.027
40.997
40.954
40.901
40.837
40.764
40.682
40.592
40.494
40.389
40.277
40.16
40.038
39.912
39.783
39.651
39.517
39.381
39.243
39.103
38.961
38.817
38.672
38.526
38.379
38.23
38.08
37.93
37.78
37.63
37.482
37.337
37.196
37.059
36.929
36.805
36.687
36.577
36.474
36.381
36.298
36.225
36.164
36.114
36.075
36.047
36.029
36.023
36.027
36.041
36.063
36.093
36.128
36.168
36.21
36.253
36.296
36.339
36.382
36.422
36.46
36.496
36.528
36.555
36.576
36.591
36.6
36.602
36.597
36.584
36.565
36.539
36.507
36.469
36.427
36.379
36.327
36.271
36.212
36.148
36.081
36.01
35.935
35.857
35.774
35.687
35.596
35.503
35.408
35.311
35.213
35.114
35.015
34.916
34.817
34.719
34.621
34.524
34.43
34.336
34.244
34.152
34.058
33.964
33.869
33.775
33.683
33.595
33.513
33.436
33.365
33.301
33.242
33.188
33.137
33.091
33.047
33.007
32.97
32.934
32.901
32.87
32.841
32.814
32.79
32.768
32.748
32.731
32.715
32.702
32.691
32.681
32.674
32.668
32.664
32.66
32.657
32.655
32.653
32.653
32.653
32.655
32.658
32.66
32.662
32.664
32.664
32.664
32.663
32.661
32.657
32.65
32.641
32.629
32.615
32.597
32.576
32.554
32.53
32.505
32.479
32.452
32.424
32.395
32.365
32.334
32.301
32.266
32.231
32.194
32.156
32.118
32.079
32.039
31.998
31.956
31.912
31.868
31.823
31.778
31.734
31.693
31.656
31.625
31.604
31.594
31.6
31.624
31.672
31.748
31.855
31.997
32.18
32.405
32.674
32.99
33.351
33.754
34.193
34.664
35.159
35.669
36.186
36.701
37.205
37.692
38.154
38.585
38.98
39.337
39.654
39.929
40.163
40.358
40.514
40.634
40.722
40.78
40.813
40.823
40.814
40.788
40.749
40.699
40.64
40.575
40.504
40.428
40.348
40.263
40.175
40.083
39.986
39.884
39.776
39.664
39.546
39.424
39.298
39.169
39.036
38.901
38.762
38.619
38.474
38.325
38.174
38.019
37.861
37.701
37.539
37.375
37.212
37.051
36.893
36.74
36.593
36.455
36.327
36.21
36.106
36.015
35.938
35.876
35.829
35.797
35.78
35.776
35.786
35.807
35.839
35.88
35.928
35.982
36.039
36.099
36.159
36.22
36.279
36.337
36.391
36.441
36.486
36.523
36.554
36.577
36.592
36.599
36.599
36.59
36.574
36.549
36.518
36.48
36.434
36.383
36.326
36.265
36.199
36.128
36.053
35.973
35.889
35.801
35.71
35.616
35.519
35.421
35.321
35.221
35.12
35.02
34.92
34.822
34.724
34.629
34.535
34.444
34.355
34.268
34.183
34.1
34.019
33.941
33.866
33.794
33.726
33.659
33.595
33.531
33.468
33.405
33.344
33.283
33.223
33.165
33.109
33.053
32.999
32.947
32.897
32.849
32.803
32.76
32.722
32.688
32.658
32.631
32.608
32.587
32.572
32.561
32.553
32.548
32.544
32.542
32.54
32.536
32.53
32.521
32.51
32.498
32.485
32.472
32.46
32.45
32.442
32.437
32.436
32.437
32.441
32.448
32.455
32.463
32.471
32.478
32.485
32.49
32.493
32.495
32.494
32.49
32.483
32.472
32.456
32.436
32.412
32.385
32.353
32.317
32.278
32.235
32.189
32.139
32.087
32.033
31.977
31.92
31.863
31.807
31.752
31.701
31.653
31.611
31.576
31.549
31.534
31.534
31.551
31.591
31.656
31.752
31.883
32.052
32.263
32.518
32.818
33.16
33.544
33.964
34.415
34.891
35.384
35.886
36.388
36.882
37.361
37.818
38.249
38.648
39.013
39.339
39.627
39.874
40.083
40.253
40.386
40.485
40.552
40.59
40.603
40.594
40.566
40.522
40.465
40.395
40.316
40.227
40.132
40.032
39.927
39.817
39.704
39.586
39.465
39.341
39.214
39.084
38.951
38.816
38.678
38.539
38.397
38.254
38.109
37.962
37.813
37.662
37.51
37.356
37.2
37.043
36.886
36.728
36.573
36.419
36.271
36.128
35.994
35.869
35.755
35.653
35.564
35.49
35.431
35.388
35.361
35.35
35.356
35.376
35.411
35.457
35.514
35.58
35.653
35.73
35.811
35.894
35.977
36.057
36.135
36.208
36.275
36.337
36.392
36.44
36.481
36.514
36.539
36.557
36.566
36.567
36.56
36.545
36.523
36.493
36.455
36.409
36.355
36.294
36.225
36.149
36.066
