Trial 1:0back
36.282
36.194
36.11
36.031
35.958
35.892
35.832
35.78
35.735
35.698
35.668
35.646
35.625
35.602
35.577
35.551
35.526
35.507
35.496
35.494
35.502
35.521
35.549
35.584
35.625
35.667
35.708
35.745
35.775
35.796
35.805
35.801
35.783
35.752
35.708
35.653
35.588
35.514
35.432
35.343
35.249
35.153
35.055
34.958
34.864
34.773
34.687
34.609
34.538
34.476
34.423
34.378
34.34
34.308
34.281
34.258
34.238
34.219
34.199
34.177
34.153
34.126
34.097
34.066
34.034
33.999
33.962
33.922
33.879
33.834
33.788
33.741
33.694
33.649
33.607
33.569
33.537
33.51
33.489
33.472
33.46
33.453
33.45
33.452
33.457
33.466
33.478
33.495
33.517
33.546
33.584
33.634
33.699
33.785
33.895
34.034
34.206
34.414
34.658
34.937
35.248
35.587
35.946
36.32
36.699
37.076
37.443
37.791
38.115
38.41
38.671
38.896
39.083
39.233
39.347
39.427
39.475
39.495
39.489
39.462
39.416
39.354
39.28
39.196
39.104
39.007
38.907
38.807
38.707
38.609
38.514
38.423
38.337
38.257
38.182
38.114
38.05
37.993
37.94
37.892
37.845
37.8
37.755
37.707
37.657
37.602
37.542
37.474
37.398
37.313
37.215
37.102
36.975
36.837
36.691
36.54
36.389
36.24
36.096
35.963
35.842
35.736
35.648
35.577
35.523
35.485
35.461
35.449
35.446
35.451
35.463
35.479
35.5
35.523
35.549
35.578
35.609
35.643
35.676
35.708
35.737
35.763
35.786
35.804
35.816
35.822
35.821
35.811
35.795
35.773
35.745
35.712
35.674
35.633
35.589
35.544
35.497
35.449
35.4
35.351
35.301
35.251
35.202
35.154
35.107
35.06
35.012
34.961
34.908
34.853
34.797
34.739
34.682
34.623
34.565
34.508
34.454
34.402
34.351
34.303
34.257
34.215
34.177
34.143
34.114
34.089
34.07
34.055
34.046
34.039
34.035
34.031
34.027
34.022
34.014
34.004
33.991
33.975
33.955
33.93
33.9
33.865
33.826
33.786
33.746
33.708
33.672
33.641
33.617
33.604
33.603
33.617
33.649
33.702
33.781
33.89
34.031
34.207
34.42
34.667
34.948
35.259
35.595
35.949
36.315
36.683
37.045
37.394
37.724
38.028
38.299
38.536
38.735
38.897
39.022
39.111
39.166
39.19
39.187
39.161
39.118
39.06
38.993
38.917
38.837
38.755
38.673
38.593
38.515
38.441
38.37
38.303
38.24
38.18
38.123
38.066
38.01
37.955
37.9
37.846
37.791
37.733
37.672
37.607
37.54
37.47
37.397
37.32
37.239
37.151
37.056
36.954
36.844
36.728
36.608
36.485
36.362
36.241
36.125
36.014
35.912
35.82
35.742
35.676
35.623
35.582
35.554
35.536
35.528
35.529
35.536
35.549
35.564
35.58
35.598
35.616
35.636
35.657
35.679
35.7
35.722
35.742
35.762
35.78
35.795
35.807
35.815
35.819
35.817
35.81
35.799
35.784
35.764
35.74
35.709
35.672
35.629
35.581
35.529
35.471
35.408
35.341
35.271
35.198
35.123
35.045
34.967
34.889
34.813
34.741
34.674
34.611
34.552
34.499
34.45
34.406
34.366
34.329
34.295
34.263
34.233
34.205
34.18
34.157
34.134
34.113
34.092
34.071
34.049
34.026
34.002
33.976
33.949
33.921
33.892
33.863
33.837
33.814
33.793
33.776
33.762
33.75
33.743
33.74
33.739
33.741
33.742
33.742
33.741
33.737
33.73
33.721
33.709
33.695
33.679
33.661
33.642
33.623
33.606
33.589
33.573
33.56
33.551
33.549
33.559
33.582
33.624
33.688
33.779
33.901
34.058
34.253
34.487
34.757
35.059
35.388
35.739
36.103
36.473
36.84
37.196
37.534
37.85
38.138
38.395
38.618
38.803
38.945
39.042
39.097
39.113
39.098
39.058
39.001
38.934
38.861
38.788
38.718
38.652
38.591
38.536
38.488
38.445
38.405
38.366
38.325
38.282
38.235
38.184
38.127
38.064
37.995
37.922
37.844
37.765
37.683
37.6
37.517
37.434
37.351
37.269
37.186
37.102
37.017
36.93
36.841
36.752
36.661
36.567
36.473
36.378
36.286
36.197
36.112
36.032
35.959
35.892
35.834
35.785
35.747
35.719
35.7
35.69
35.688
35.692
35.702
35.715
35.73
35.746
35.763
35.782
35.801
35.821
35.84
35.858
35.876
35.892
35.906
35.917
35.926
35.931
35.932
35.93
35.922
35.907
35.885
35.854
35.815
35.768
35.715
35.654
35.588
35.514
35.436
35.354
35.269
35.183
35.097
35.012
34.929
34.848
34.769
34.693
34.621
34.553
34.489
34.429
34.373
34.32
34.271
34.226
34.182
34.14
34.101
34.063
34.028
33.994
33.962
33.931
33.901
33.872
33.844
33.817
33.791
33.768
33.747
33.729
33.714
33.702
33.693
33.687
33.685
33.685
33.687
33.691
33.695
33.698
33.702
33.705
33.706
33.707
33.704
33.7
33.694
33.686
33.677
33.668
33.66
33.652
33.644
33.634
33.623
33.609
33.593
33.573
33.549
33.523
33.495
33.469
33.444
33.422
33.404
33.394
33.393
33.404
33.433
33.484
33.562
33.672
33.816
33.999
34.22
34.479
34.77
35.09
35.432
35.789
36.154
36.519
36.877
37.222
37.547
37.848
38.121
38.361
38.568
38.74
38.875
38.976
39.043
39.08
39.089
39.073
39.036
38.98
38.91
38.828
38.737
38.64
38.54
38.439
38.338
38.238
38.138
38.04
37.944
37.852
37.764
37.678
37.595
37.513
37.431
37.351
37.273
37.197
37.125
37.055
36.988
36.922
36.857
36.792
36.728
36.661
36.592
36.521
36.448
36.371
36.293
36.211
36.126
36.041
35.955
35.87
35.786
35.707
35.632
35.564
35.503
35.453
35.413
35.383
35.365
35.356
35.357
35.366
35.385
35.411
35.444
35.481
35.523
35.567
35.612
35.658
35.7
35.737
35.768
35.792
35.809
35.818
35.819
35.81
35.791
35.762
35.724
35.678
35.626
35.568
35.504
35.435
35.361
35.283
35.204
35.125
35.046
34.967
34.891
34.816
34.743
34.674
34.606
34.542
34.48
34.42
34.362
34.308
34.257
34.209
34.162
34.116
34.069
34.021
33.975
33.931
33.89
33.852
33.815
33.78
33.747
33.715
33.687
33.663
33.642
33.624
33.607
33.587
33.56
33.525
33.485
33.441
33.399
33.36
33.327
33.305
33.292
33.291
33.299
33.315
33.336
33.36
33.385
33.41
33.432
33.45
33.463
33.469
33.469
33.463
33.451
33.435
33.415
33.394
33.372
33.351
33.333
33.32
33.315
33.32
33.34
33.378
33.439
33.529
33.65
33.807
34.001
34.233
34.501
34.801
35.13
35.48
35.844
36.216
36.586
36.948
37.296
37.623
37.926
38.197
38.436
38.639
38.805
38.936
39.033
39.096
39.128
39.134
39.116
39.078
39.024
38.956
38.879
38.794
38.705
38.614
38.522
38.428
38.333
38.237
38.141
38.046
37.952
37.859
37.765
37.673
37.581
37.492
37.405
37.322
37.241
37.164
37.09
37.02
36.953
36.889
36.826
36.763
36.701
36.638
36.574
36.509
36.44
36.368
36.292
36.215
36.136
36.057
35.977
35.899
35.823
35.75
35.683
35.621
35.566
35.519
35.48
35.45
35.43
35.419
35.418
35.425
35.441
35.463
35.49
35.522
35.558
35.595
35.633
35.669
35.704
35.737
35.766
35.791
35.809
35.819
35.82
35.811
35.792
35.764
35.727
35.68
35.626
35.566
35.499
35.429
35.354
35.274
35.192
35.11
35.028
34.949
34.872
34.796
34.722
34.649
34.576
34.505
34.434
34.366
34.299
34.234
34.171
34.109
34.05
33.993
33.94
33.89
33.843
33.799
33.757
33.717
33.678
33.64
33.603
33.568
33.534
33.503
33.474
33.45
33.43
33.415
33.405
33.398
33.396
33.397
33.402
33.41
33.421
33.433
33.445
33.456
33.464
33.47
33.472
33.471
33.465
33.455
33.441
33.424
33.403
33.378
33.352
33.324
33.296
33.267
33.239
33.214
33.191
33.172
33.158
33.148
33.144
33.148
33.161
33.184
33.219
33.267
33.331
33.415
33.522
33.659
33.828
34.032
34.272
34.548
34.856
35.192
35.551
35.927
36.312
36.697
37.074
37.437
37.779
38.094
38.379
38.629
38.844
39.023
39.166
39.274
39.346
39.386
39.396
39.381
39.342
39.284
39.208
39.12
39.023
38.92
38.812
38.702
38.591
38.481
38.373
38.268
38.167
38.07
37.977
37.889
37.806
37.729
37.656
37.589
37.525
37.466
37.41
37.357
37.307
37.257
37.206
37.153
37.098
37.042
36.981
36.916
36.846
36.769
36.687
36.599
36.507
36.411
36.311
36.211
36.11
36.009
35.91
35.814
35.722
35.638
35.562
35.495
35.439
35.393
35.359
35.335
35.319
35.311
35.311
35.319
35.337
35.363
35.395
35.434
35.477
35.522
35.567
35.609
35.646
35.675
35.698
35.711
35.716
35.71
35.695
35.668
35.631
35.585
35.532
35.472
35.407
35.337
35.264
35.186
35.106
35.025
34.943
34.861
34.78
34.702
34.626
34.553
34.484
34.419
34.356
34.296
34.237
34.179
34.123
34.067
34.014
33.962
33.91
33.86
33.81
33.762
33.716
33.673
33.632
33.593
33.557
33.523
33.493
33.467
33.443
33.423
33.406
33.391
33.378
33.368
33.362
33.358
33.355
33.352
33.347
33.342
33.336
33.33
33.323
33.316
33.309
33.301
33.291
33.281
33.271
33.26
33.25
33.24
33.229
33.218
33.205
33.192
33.179
33.165
33.149
33.132
33.115
33.099
33.082
33.067
33.053
33.043
33.036
33.037
33.048
33.072
33.114
33.178
33.269
33.393
33.553
33.752
33.993
34.275
34.595
34.949
35.332
35.734
36.147
36.562
36.97
37.361
37.729
38.067
38.37
38.635
38.86
39.044
39.188
39.292
39.359
39.391
39.391
39.362
39.31
39.238
39.15
39.049
38.938
38.819
38.697
38.574
38.452
38.333
38.218
38.107
38.001
37.901
37.807
37.718
37.636
37.559
37.488
37.42
37.357
37.296
37.237
37.18
37.121
37.055
36.98
36.895
36.802
36.702
36.598
36.491
36.382
36.273
36.164
36.057
35.954
35.856
35.764
35.681
35.606
35.541
35.483
35.433
35.388
35.351
35.32
35.295
35.277
35.264
35.258
35.257
35.262
35.272
35.288
35.309
35.333
35.359
35.386
35.413
35.439
35.462
35.481
35.495
35.504
35.509
35.509
35.504
35.493
35.476
35.454
35.427
35.395
35.359
35.317
35.27
35.219
35.164
35.105
35.042
34.975
34.904
34.831
34.756
34.681
34.607
34.531
34.454
34.374
34.293
34.21
34.125
34.041
33.958
33.876
33.797
33.722
33.651
33.586
33.528
33.476
33.43
33.39
33.356
33.327
33.302
33.281
33.262
33.245
33.228
33.21
33.193
33.175
33.158
33.142
33.125
33.109
33.093
33.076
33.06
33.044
33.03
33.015
33.002
32.988
32.974
32.961
32.95
32.942
32.937
32.936
32.937
32.942
32.95
32.961
32.975
32.989
33.004
33.016
33.026
33.033
33.036
33.036
33.033
33.025
33.013
32.997
32.978
32.958
32.936
32.914
32.89
32.867
32.845
32.825
32.811
32.803
32.802
32.812
32.835
32.875
32.936
33.023
33.14
33.292
33.481
33.711
33.984
34.298
34.648
35.027
35.428
35.841
36.256
36.663
37.053
37.417
37.75
38.047
38.306
38.526
38.708
38.85
38.956
39.027
39.067
39.08
39.068
39.036
38.986
38.921
38.845
38.76
38.667
38.57
38.468
38.364
38.258
38.15
38.042
37.934
37.826
37.72
37.617
37.517
37.421
37.329
37.24
37.154
37.071
36.991
36.914
36.837
36.761
36.686
36.611
36.535
36.457
36.378
36.298
36.217
36.134
36.052
35.97
35.887
35.805
35.723
35.641
35.56
35.479
35.398
35.317
35.238
35.161
35.088
35.02
34.959
34.904
34.858
34.821
34.794
34.777
34.77
34.773
34.784
34.804
34.833
34.869
34.911
34.959
35.009
35.06
35.11
35.157
35.201
35.238
35.267
35.286
35.294
35.289
35.271
35.241
35.199
35.145
35.081
35.008
34.929
34.845
34.758
34.67
34.582
34.492
34.403
34.316
34.23
34.147
34.067
33.989
33.916
33.847
33.785
33.729
33.679
33.634
33.593
33.555
33.52
33.488
33.456
33.427
33.397
33.367
33.336
33.303
33.27
33.237
33.204
33.173
33.144
33.116
33.091
33.07
33.053
33.041
33.033
33.029
33.03
33.035
33.043
33.054
33.066
33.078
33.09
33.102
33.114
33.125
33.133
33.137
33.136
33.128
33.112
33.088
33.058
33.025
32.99
32.956
32.923
32.892
32.865
32.842
32.825
32.813
32.807
32.806
32.809
32.815
32.825
32.839
32.859
32.886
32.921
32.968
33.03
33.111
33.217
33.354
33.524
33.73
33.973
34.254
34.569
34.914
35.282
35.664
36.052
36.438
36.812
37.169
37.499
37.797
38.059
38.283
38.466
38.607
38.708
38.77
38.795
38.789
38.755
38.695
38.613
38.511
38.395
38.266
38.13
37.989
37.847
37.705
37.564
37.426
37.292
37.164
37.041
36.925
36.815
36.713
36.616
36.526
36.442
36.361
36.283
36.206
36.128
36.051
35.973
35.895
35.815
35.734
35.651
35.566
35.477
35.385
35.29
35.192
35.092
34.99
34.89
34.791
34.697
34.609
34.527
34.454
34.39
34.337
34.297
34.27
34.255
34.253
34.263
34.284
34.316
34.358
34.409
34.466
34.529
34.594
34.661
34.727
34.79
34.847
34.897
34.94
34.975
35.002
35.021
35.03
35.029
35.018
34.997
34.966
34.928
34.882
34.83
34.772
34.708
34.64
34.569
34.495
34.419
34.342
34.264
34.185
34.106
34.027
33.95
33.873
33.797
33.721
33.645
33.57
33.495
33.422
33.351
33.283
33.218
33.157
33.1
33.048
33.003
32.963
32.929
32.901
32.878
32.86
32.847
32.839
32.835
32.833
32.833
32.835
32.835
32.827
32.81
32.782
32.747
32.707
32.668
32.633
32.604
32.583
32.57
32.568
32.575
32.589
32.61
32.635
32.662
32.692
32.721
32.748
32.771
32.79
32.803
32.812
32.816
32.816
32.813
32.808
32.801
32.796
32.793
32.796
32.808
32.834
32.876
32.942
33.037
33.167
33.339
33.556
33.82
34.13
34.481
34.868
35.284
35.718
36.161
36.602
37.031
37.438
37.815
38.156
38.455
38.709
38.916
39.077
39.193
39.266
39.3
39.3
39.271
39.218
39.145
39.056
38.954
38.844
38.728
38.607
38.484
38.36
38.234
38.109
37.984
37.86
37.738
37.618
37.5
37.385
37.274
37.166
37.062
36.962
36.866
36.774
36.687
36.604
36.523
36.442
36.36
36.276
36.189
36.098
36.003
35.905
35.802
35.696
35.586
35.472
35.358
35.246
35.136
35.031
34.931
34.84
34.758
34.687
34.628
34.581
34.547
34.526
34.517
34.519
34.533
34.557
34.59
34.633
34.683
34.739
34.799
34.86
34.92
34.977
35.029
35.075
35.114
35.144
35.165
35.177
35.178
35.17
35.152
35.126
35.091
35.05
35.002
34.95
34.893
34.835
34.774
34.712
34.647
34.581
34.514
34.446
34.378
34.309
34.239
34.169
34.097
34.024
33.95
33.873
33.791
33.704
33.612
33.515
33.418
33.324
33.235
33.154
33.082
33.021
32.972
32.937
32.914
32.904
32.905
32.915
32.933
32.956
32.982
33.01
33.037
33.063
33.086
33.105
33.12
33.13
33.136
33.138
33.136
33.131
33.123
33.111
33.098
33.083
33.069
33.055
33.043
33.031
33.018
33.006
32.995
32.985
32.976
32.967
32.959
32.952
32.945
32.939
32.936
32.935
32.94
32.952
32.976
33.017
33.082
33.176
33.305
33.476
33.69
33.95
34.256
34.605
34.992
35.409
35.846
36.294
36.741
37.179
37.596
37.986
38.34
38.653
38.922
39.144
39.319
39.447
39.532
39.577
39.586
39.563
39.513
39.441
39.35
39.245
39.131
39.01
38.885
38.758
38.633
38.509
38.387
38.268
38.152
38.037
37.925
37.816
37.711
37.609
37.511
37.417
37.327
37.242
37.161
37.084
37.01
36.939
36.87
36.8
36.729
36.656
36.577
36.492
36.401
36.304
36.201
36.093
35.981
35.865
35.747
35.628
35.51
35.394
35.283
35.18
35.084
35.0
34.928
34.869
34.825
34.794
34.776
34.771
34.777
34.792
34.816
34.849
34.889
34.935
34.984
35.036
35.089
35.14
35.19
35.237
35.278
35.312
35.338
35.354
35.359
35.354
35.338
35.313
35.278
35.234
35.183
35.125
35.065
35.003
34.942
34.881
34.823
34.768
34.714
34.661
34.606
34.549
34.49
34.428
34.361
34.29
34.214
34.134
34.051
33.968
33.885
33.803
33.722
33.643
33.567
33.496
33.429
33.369
33.315
33.268
33.227
33.192
33.163
33.14
33.124
33.112
33.105
33.102
33.101
33.101
33.104
33.108
33.112
33.116
33.119
33.121
33.121
33.121
33.118
33.113
33.105
33.093
33.078
33.06
33.041
33.021
33.002
32.984
32.969
32.956
32.945
32.937
32.932
32.931
32.933
32.939
32.95
32.968
32.996
33.038
33.099
33.182
33.294
33.438
33.619
33.841
34.103
34.405
34.744
35.115
35.512
35.928
36.355
36.783
37.204
37.609
37.991
38.342
38.657
38.931
39.161
39.346
39.488
39.586
39.645
39.667
39.656
39.617
39.553
39.47
39.373
39.263
39.145
39.02
38.893
38.764
38.635
38.507
38.38
38.253
38.129
38.006
37.886
37.771
37.66
37.555
37.457
37.367
37.285
37.211
37.144
37.082
37.026
36.974
36.923
36.873
36.821
36.764
36.702
36.635
36.562
36.483
36.398
36.305
36.206
36.103
35.997
35.889
35.782
35.675
35.571
35.47
35.375
35.288
35.21
35.143
35.087
35.043
35.014
34.999
34.997
35.007
35.028
35.058
35.096
35.14
35.186
35.233
35.279
35.322
35.362
35.397
35.426
35.448
35.461
35.466
35.463
35.452
35.432
35.404
35.367
35.323
35.273
35.218
35.159
35.098
35.036
34.972
34.908
34.846
34.785
34.727
34.672
34.619
34.57
34.523
34.477
34.433
34.389
34.344
34.296
34.244
34.19
34.135
34.078
34.022
33.966
33.91
33.853
33.798
33.744
33.693
33.646
33.603
33.565
33.533
33.508
33.49
33.477
33.468
33.463
33.46
33.459
33.46
33.462
33.466
33.47
33.474
33.476
33.476
33.475
33.472
33.467
33.459
33.447
33.431
33.412
33.39
33.367
33.344
33.321
33.299
33.279
33.261
33.247
33.238
33.235
33.24
33.252
33.273
33.306
33.353
33.419
33.507
33.622
33.765
33.943
34.156
34.405
34.692
35.011
35.36
35.733
36.12
36.515
36.909
37.291
37.655
37.994
38.302
38.576
38.811
39.006
39.161
39.277
39.356
39.401
39.415
39.402
39.366
39.311
39.242
39.16
39.071
38.975
38.875
38.773
38.67
38.566
38.461
38.355
38.25
38.144
38.038
37.933
37.83
37.727
37.626
37.528
37.432
37.341
37.253
37.169
37.087
37.008
36.929
36.849
36.768
36.684
36.596
36.504
36.408
36.307
36.204
36.099
35.993
35.887
35.781
35.679
35.582
35.49
35.404
35.325
35.255
35.193
35.141
35.098
35.065
35.044
35.032
35.031
35.04
35.06
35.09
35.129
35.175
35.226
35.28
35.338
35.395
35.452
35.505
35.554
35.597
35.634
35.662
35.682
35.692
35.691
35.68
35.657
35.622
35.573
35.511
35.435
35.348
35.25
35.146
35.04
34.934
34.831
34.733
34.641
34.557
34.479
34.41
34.347
34.291
34.238
34.189
34.143
34.1
34.06
34.02
33.982
33.944
33.906
33.87
33.835
33.801
33.766
33.732
33.698
33.665
33.633
33.603
33.576
33.552
33.531
33.513
33.499
33.488
33.479
33.472
33.466
33.459
33.451
33.442
33.434
33.427
33.421
33.415
33.409
33.402
33.395
33.389
33.383
33.377
33.37
33.363
33.357
33.353
33.354
33.363
33.383
33.418
33.472
33.549
33.654
33.794
33.971
34.188
34.445
34.741
35.073
35.434
35.82
36.222
36.632
37.04
37.437
37.813
38.161
38.475
38.75
38.984
39.175
39.326
39.436
39.507
39.543
39.546
39.522
39.473
39.404
39.318
39.219
39.112
39.0
38.885
38.771
38.657
38.544
38.434
38.326
38.221
38.119
38.019
37.92
37.824
37.731
37.642
37.557
37.475
37.395
37.316
37.237
37.157
37.076
36.993
36.906
36.816
36.722
36.623
36.52
36.414
36.305
36.196
36.086
35.978
35.873
35.772
35.676
35.587
35.506
35.436
35.377
35.331
35.298
35.277
35.267
35.269
35.28
35.299
35.325
35.355
35.387
35.422
35.458
35.495
35.531
35.567
35.601
35.633
35.661
35.686
35.707
35.721
35.73
35.731
35.724
35.709
35.687
35.659
35.625
35.586
35.541
35.488
35.427
35.357
35.278
35.191
35.097
34.998
34.896
34.793
34.691
34.592
34.496
34.405
34.319
34.24
34.168
34.104
34.047
33.997
33.952
33.912
33.876
33.844
33.815
33.789
33.765
33.745
33.727
33.711
33.698
33.687
33.677
33.667
33.657
33.647
33.636
33.624
33.611
33.596
33.581
33.564
33.545
33.527
33.509
33.493
33.477
33.463
33.449
33.435
33.422
33.41
33.4
33.39
33.382
33.377
33.375
33.377
33.383
33.393
33.409
33.43
33.458
33.498
33.552
33.625
33.723
33.849
34.01
34.208
34.446
34.724
35.04
35.388
35.762
36.154
36.557
36.964
37.365
37.752
38.118
38.456
38.761
39.028
39.257
39.445
39.592
39.699
39.767
39.798
39.796
39.767
39.713
39.642
39.556
39.459
39.355
39.247
39.138
39.028
38.921
38.816
38.713
38.613
38.518
