Trial 1:0back
34.057
34.049
34.04
34.032
34.024
34.016
34.009
34.001
33.991
33.98
33.966
33.948
33.928
33.907
33.885
33.864
33.846
33.829
33.814
33.8
33.787
33.774
33.763
33.752
33.743
33.734
33.724
33.713
33.699
33.684
33.667
33.648
33.63
33.612
33.595
33.58
33.568
33.56
33.559
33.568
33.589
33.625
33.679
33.754
33.852
33.975
34.122
34.294
34.489
34.705
34.94
35.188
35.447
35.711
35.976
36.237
36.49
36.729
36.953
37.157
37.339
37.499
37.634
37.745
37.832
37.897
37.943
37.972
37.987
37.99
37.983
37.968
37.946
37.919
37.888
37.855
37.823
37.793
37.767
37.744
37.726
37.711
37.698
37.686
37.674
37.661
37.649
37.636
37.622
37.608
37.593
37.576
37.559
37.54
37.521
37.501
37.48
37.457
37.434
37.409
37.383
37.355
37.325
37.293
37.258
37.221
37.181
37.137
37.091
37.041
36.991
36.94
36.89
36.844
36.8
36.761
36.725
36.693
36.665
36.642
36.623
36.609
36.599
36.594
36.592
36.593
36.594
36.595
36.596
36.597
36.596
36.595
36.594
36.591
36.587
36.581
36.575
36.566
36.557
36.546
36.535
36.524
36.512
36.5
36.488
36.475
36.461
36.447
36.431
36.416
36.4
36.382
36.362
36.338
36.311
36.28
36.243
36.203
36.159
36.112
36.062
36.01
35.955
35.897
35.838
35.778
35.718
35.659
35.603
35.548
35.496
35.445
35.397
35.349
35.303
35.258
35.215
35.174
35.135
35.097
35.06
35.025
34.991
34.959
34.929
34.901
34.874
34.848
34.821
34.793
34.765
34.739
34.713
34.69
34.669
34.652
34.638
34.626
34.618
34.612
34.608
34.607
34.606
34.608
34.61
34.614
34.616
34.618
34.617
34.615
34.61
34.604
34.595
34.585
34.574
34.56
34.544
34.526
34.508
34.489
34.469
34.449
34.43
34.411
34.394
34.379
34.365
34.353
34.342
34.332
34.323
34.315
34.309
34.304
34.299
34.296
34.292
34.288
34.284
34.28
34.275
34.27
34.264
34.257
34.249
34.24
34.229
34.216
34.201
34.184
34.165
34.143
34.12
34.096
34.07
34.044
34.018
33.992
33.967
33.942
33.917
33.892
33.868
33.846
33.825
33.807
33.79
33.775
33.759
33.743
33.726
33.707
33.688
33.669
33.652
33.638
33.628
33.624
33.63
33.647
33.681
33.735
33.811
33.911
34.036
34.186
34.359
34.554
34.769
35.001
35.247
35.504
35.768
36.034
36.298
36.556
36.804
37.038
37.256
37.454
37.632
37.789
37.923
38.035
38.126
38.197
38.248
38.283
38.301
38.306
38.299
38.282
38.255
38.221
38.181
38.139
38.094
38.051
38.009
37.97
37.934
37.901
37.868
37.837
37.805
37.774
37.743
37.713
37.683
37.653
37.622
37.591
37.558
37.524
37.488
37.449
37.409
37.367
37.324
37.28
37.236
37.192
37.148
37.104
37.06
37.017
36.974
36.932
36.89
36.848
36.805
36.763
36.72
36.677
36.633
36.59
36.548
36.508
36.472
36.442
36.417
36.399
36.386
36.38
36.379
36.382
36.388
36.394
36.4
36.404
36.407
36.409
36.409
36.408
36.405
36.4
36.391
36.379
36.363
36.345
36.325
36.303
36.281
36.257
36.234
36.209
36.184
36.158
36.131
36.105
36.079
36.054
36.029
36.006
35.982
35.957
35.932
35.903
35.873
35.839
35.803
35.763
35.721
35.675
35.628
35.579
35.531
35.484
35.439
35.398
35.359
35.322
35.287
35.254
35.223
35.193
35.165
35.138
35.112
35.087
35.063
35.039
35.016
34.994
34.973
34.953
34.937
34.922
34.909
34.897
34.885
34.872
34.857
34.841
34.823
34.803
34.781
34.757
34.732
34.706
34.68
34.654
34.63
34.606
34.585
34.566
34.548
34.532
34.516
34.502
34.488
34.475
34.463
34.451
34.44
34.431
34.425
34.421
34.42
34.421
34.422
34.423
34.423
34.421
34.417
34.409
34.398
34.383
34.365
34.344
34.321
34.298
34.273
34.248
34.222
34.195
34.168
34.142
34.116
34.091
34.066
34.042
34.019
33.997
33.975
33.955
33.936
33.919
33.905
33.895
33.891
33.894
33.908
33.933
33.974
34.03
34.105
34.201
34.318
34.456
34.616
34.795
34.993
35.206
35.431
35.666
35.904
36.143
36.379
36.607
36.825
37.03
37.219
37.392
37.546
37.681
37.796
37.89
37.966
38.024
38.065
38.093
38.108
38.114
38.112
38.103
38.088
38.066
38.039
38.009
37.975
37.94
37.903
37.867
37.831
37.797
37.764
37.733
37.702
37.673
37.646
37.62
37.596
37.573
37.553
37.533
37.514
37.496
37.477
37.457
37.436
37.413
37.387
37.356
37.321
37.282
37.237
37.189
37.138
37.085
37.029
36.973
36.915
36.856
36.797
36.739
36.683
36.632
36.584
36.542
36.505
36.472
36.444
36.419
36.397
36.377
36.358
36.341
36.323
36.306
36.289
36.272
36.255
36.239
36.225
36.211
36.2
36.189
36.179
36.169
36.16
36.15
36.141
36.13
36.119
36.106
36.092
36.076
36.057
36.036
36.013
35.987
35.959
35.929
35.896
35.861
35.823
35.782
35.737
35.691
35.642
35.592
35.543
35.494
35.446
35.398
35.348
35.296
35.243
35.19
35.137
35.087
35.04
34.996
34.954
34.913
34.873
34.832
34.792
34.752
34.715
34.678
34.643
34.608
34.572
34.535
34.497
34.459
34.42
34.382
34.346
34.313
34.281
34.252
34.225
34.201
34.179
34.159
34.141
34.125
34.109
34.094
34.079
34.063
34.047
34.031
34.015
34.0
33.985
33.971
33.957
33.942
33.927
33.912
33.898
33.883
33.869
33.855
33.842
33.829
33.816
33.804
33.793
33.782
33.772
33.763
33.755
33.746
33.737
33.726
33.714
33.7
33.685
33.668
33.65
33.63
33.607
33.584
33.559
33.534
33.511
33.491
33.473
33.459
33.448
33.439
33.432
33.426
33.421
33.418
33.416
33.414
33.413
33.412
33.41
33.407
33.403
33.398
33.393
33.387
33.38
33.372
33.362
33.351
33.338
33.324
33.311
33.3
33.293
33.289
33.285
33.285
33.294
33.316
33.357
33.422
33.517
33.643
33.802
33.993
34.215
34.465
34.737
35.028
35.331
35.64
35.948
36.251
36.541
36.814
37.065
37.29
37.49
37.661
37.806
37.923
38.015
38.083
38.128
38.152
38.159
38.15
38.13
38.1
38.065
38.025
37.984
37.943
37.903
37.864
37.829
37.797
37.768
37.743
37.721
37.703
37.686
37.672
37.658
37.644
37.628
37.61
37.589
37.567
37.542
37.514
37.485
37.455
37.425
37.394
37.363
37.333
37.303
37.273
37.244
37.213
37.183
37.152
37.12
37.088
37.055
37.02
36.984
36.945
36.905
36.863
36.821
36.779
36.74
36.703
36.669
36.637
36.609
36.584
36.562
36.542
36.526
36.514
36.506
36.503
36.503
36.506
36.512
36.519
36.526
36.534
36.54
36.545
36.547
36.546
36.542
36.534
36.523
36.508
36.49
36.47
36.446
36.421
36.394
36.365
36.335
36.303
36.271
36.238
36.205
36.172
36.139
36.104
36.068
36.031
35.991
35.95
35.91
35.869
35.83
35.79
35.749
35.705
35.66
35.613
35.566
35.521
35.477
35.436
35.397
35.36
35.324
35.288
35.253
35.218
35.183
35.149
35.116
35.084
35.053
35.023
34.993
34.964
34.934
34.904
34.875
34.846
34.817
34.788
34.759
34.729
34.698
34.667
34.635
34.604
34.573
34.544
34.516
34.49
34.467
34.444
34.423
34.403
34.383
34.364
34.345
34.325
34.303
34.281
34.258
34.236
34.214
34.194
34.176
34.161
34.147
34.136
34.128
34.12
34.114
34.11
34.105
34.101
34.096
34.09
34.083
34.075
34.065
34.054
34.041
34.027
34.011
33.992
33.972
33.95
33.927
33.905
33.883
33.862
33.842
33.823
33.804
33.785
33.768
33.751
33.735
33.72
33.707
33.695
33.684
33.673
33.663
33.652
33.64
33.628
33.615
33.601
33.588
33.573
33.558
33.543
33.526
33.509
33.492
33.477
33.465
33.456
33.45
33.45
33.456
33.472
33.5
33.543
33.605
33.687
33.792
33.922
34.076
34.256
34.459
34.684
34.929
35.189
35.461
35.74
36.021
36.3
36.571
36.83
37.072
37.295
37.496
37.672
37.823
37.949
38.05
38.128
38.185
38.22
38.233
38.224
38.196
38.151
38.096
38.035
37.972
37.912
37.859
37.813
37.777
37.75
37.731
37.718
37.71
37.706
37.703
37.7
37.697
37.691
37.683
37.671
37.656
37.637
37.614
37.59
37.564
37.537
37.511
37.486
37.46
37.434
37.406
37.376
37.344
37.309
37.272
37.232
37.19
37.145
37.096
37.045
36.991
36.936
36.882
36.829
36.779
36.733
36.692
36.654
36.622
36.594
36.572
36.553
36.54
36.531
36.526
36.525
36.527
36.531
36.535
36.54
36.544
36.548
36.55
36.552
36.551
36.55
36.547
36.543
36.538
36.533
36.527
36.519
36.51
36.498
36.483
36.466
36.445
36.423
36.397
36.37
36.34
36.306
36.268
36.226
36.181
36.134
36.087
36.043
36.002
35.964
35.928
35.895
35.862
35.831
35.799
35.768
35.737
35.705
35.674
35.641
35.607
35.571
35.535
35.497
35.459
35.422
35.385
35.348
35.312
35.277
35.243
35.21
35.178
35.148
35.118
35.089
35.061
35.034
35.007
34.982
34.957
34.934
34.913
34.893
34.874
34.856
34.839
34.823
34.808
34.793
34.778
34.762
34.744
34.724
34.702
34.679
34.654
34.628
34.602
34.576
34.551
34.527
34.503
34.48
34.459
34.439
34.42
34.403
34.388
34.373
34.36
34.348
34.336
34.325
34.316
34.308
34.302
34.298
34.296
34.296
34.295
34.294
34.291
34.287
34.282
34.276
34.272
34.267
34.263
34.256
34.247
34.234
34.219
34.201
34.181
34.161
34.14
34.119
34.097
34.074
34.05
34.025
34.002
33.981
33.963
33.948
33.936
33.928
33.923
33.923
33.929
33.944
33.971
34.013
34.072
34.15
34.247
34.365
34.504
34.664
34.846
35.046
35.264
35.496
35.737
35.985
36.233
36.478
36.715
36.942
37.154
37.349
37.525
37.681
37.815
37.927
38.017
38.085
38.134
38.165
38.181
38.183
38.172
38.151
38.122
38.085
38.044
37.999
37.953
37.905
37.858
37.811
37.764
37.719
37.674
37.631
37.589
37.549
37.511
37.475
37.441
37.408
37.375
37.344
37.312
37.28
37.249
37.217
37.184
37.149
37.112
37.072
37.029
36.983
36.934
36.882
36.83
36.776
36.721
36.666
36.609
36.552
36.494
36.437
36.385
36.337
36.296
36.263
36.236
36.217
36.206
36.201
36.204
36.214
36.23
36.25
36.273
36.296
36.319
36.34
36.358
36.373
36.384
36.391
36.394
36.394
36.39
36.385
36.377
36.369
36.36
36.35
36.34
36.328
36.315
36.3
36.282
36.261
36.239
36.215
36.189
36.162
36.134
36.103
36.071
36.036
35.999
35.96
35.919
35.878
35.837
35.794
35.752
35.71
35.668
35.627
35.585
35.545
35.505
35.465
35.426
35.386
35.346
35.306
35.265
35.227
35.19
35.156
35.125
35.095
35.067
35.039
35.011
34.983
34.956
34.929
34.904
34.881
34.858
34.836
34.812
34.784
34.752
34.716
34.677
34.638
34.6
34.565
34.533
34.506
34.484
34.466
34.452
34.442
34.434
34.429
34.425
34.423
34.421
34.42
34.419
34.417
34.415
34.413
34.409
34.403
34.396
34.386
34.374
34.36
34.342
34.323
34.303
34.283
34.263
34.243
34.224
34.205
34.186
34.168
34.15
34.132
34.113
34.095
34.076
34.056
34.035
34.013
33.99
33.967
33.944
33.921
33.898
33.875
33.854
33.833
33.813
33.794
33.775
33.758
33.741
33.726
33.711
33.698
33.688
33.681
33.681
33.688
33.707
33.74
33.789
33.857
33.947
34.06
34.198
34.358
34.542
34.746
34.968
35.205
35.454
35.712
35.976
36.24
36.501
36.755
36.997
37.225
37.434
37.625
37.795
37.944
38.071
38.179
38.266
38.336
38.389
38.425
38.448
38.457
38.455
38.443
38.422
38.394
38.36
38.322
38.282
38.241
38.201
38.161
38.125
38.091
38.061
38.033
38.008
37.985
37.965
37.947
37.932
37.919
37.907
37.895
37.883
37.868
37.851
37.83
37.806
37.779
37.748
37.714
37.677
37.636
37.591
37.543
37.493
37.441
37.388
37.335
37.283
37.231
37.181
37.133
37.087
37.044
37.004
36.967
36.933
36.902
36.874
36.849
36.827
36.808
36.791
36.777
36.764
36.752
36.742
36.732
36.723
36.714
36.706
36.698
36.691
36.685
36.679
36.673
36.667
36.66
36.651
36.641
36.629
36.615
36.6
36.583
36.564
36.542
36.517
36.488
36.457
36.423
36.388
36.353
36.319
36.285
36.251
36.216
36.178
36.139
36.098
36.055
36.011
35.966
35.92
35.874
35.829
35.784
35.742
35.703
35.667
35.633
35.601
35.57
35.538
35.506
35.473
35.439
35.404
35.368
35.332
35.295
35.258
35.22
35.183
35.146
35.112
35.078
35.048
35.018
34.99
34.963
34.935
34.906
34.876
34.847
34.818
34.791
34.766
34.744
34.724
34.706
34.689
34.673
34.658
34.645
34.632
34.619
34.607
34.593
34.579
34.563
34.546
34.528
34.509
34.489
34.468
34.447
34.426
34.404
34.381
34.358
34.335
34.312
34.289
34.266
34.242
34.219
34.197
34.176
34.159
34.143
34.13
34.119
34.109
34.1
34.092
34.083
34.074
34.064
34.054
34.043
34.03
34.017
34.003
33.988
33.973
33.958
33.942
33.926
33.911
33.895
33.88
33.864
33.847
33.83
33.811
33.791
33.77
33.748
33.724
33.701
33.677
33.656
33.637
33.624
33.617
33.62
33.635
33.663
33.708
33.771
33.855
33.964
34.1
34.262
34.453
34.669
34.908
35.167
35.44
35.724
36.014
36.307
36.599
36.884
37.159
37.418
37.658
37.874
38.064
38.227
38.363
38.473
38.559
38.623
38.668
38.696
38.71
38.713
38.707
38.693
38.674
38.652
38.628
38.605
38.582
38.561
38.542
38.523
38.504
38.484
38.463
38.439
38.414
38.385
38.355
38.324
38.293
38.265
38.24
38.219
38.201
38.186
38.17
38.154
38.137
38.118
38.096
38.073
38.048
38.019
37.987
37.951
37.91
37.863
37.812
37.758
37.701
37.643
37.585
37.526
37.469
37.413
37.359
37.309
37.262
37.221
37.184
37.153
37.127
37.106
37.089
37.076
37.066
37.059
37.054
37.051
37.048
37.045
37.04
37.032
37.021
37.007
36.991
36.973
36.954
36.934
36.913
36.891
36.868
36.845
36.821
36.797
36.772
36.747
36.721
36.695
36.666
36.634
36.6
36.562
36.521
36.477
36.43
36.382
36.331
36.278
36.225
36.171
36.116
36.063
36.012
35.964
35.918
35.874
35.83
35.787
35.744
35.701
35.658
35.616
35.573
35.531
35.487
35.443
35.399
35.354
35.31
35.267
35.225
35.184
35.145
35.107
35.071
35.036
35.002
34.97
34.937
34.906
34.874
34.843
34.811
34.778
34.744
34.71
34.676
34.642
34.609
34.577
34.546
34.515
34.485
34.455
34.426
34.398
34.371
34.346
34.323
34.302
34.282
34.264
34.249
34.236
34.224
34.214
34.205
34.196
34.186
34.176
34.165
34.153
34.14
34.127
34.112
34.097
34.081
34.065
34.048
34.03
34.012
33.993
33.973
33.952
33.93
33.907
33.883
33.859
33.834
33.809
33.783
33.758
33.734
33.71
33.687
33.665
33.644
33.624
33.604
33.584
33.563
33.541
33.519
33.497
33.476
33.456
33.438
33.421
33.407
33.395
33.385
33.376
33.369
33.362
33.355
33.346
33.336
33.324
33.31
33.295
33.281
33.267
33.256
33.249
33.247
33.251
33.264
33.288
33.326
33.381
33.455
33.549
33.667
33.808
33.973
34.161
34.372
34.603
34.852
35.115
35.388
35.665
35.943
36.217
36.482
36.733
36.967
37.181
37.374
37.544
37.69
37.814
37.915
37.994
38.051
38.089
38.107
38.109
38.098
38.075
38.045
38.008
37.969
37.928
37.888
37.85
37.813
37.779
37.748
37.719
37.692
37.667
37.644
37.622
37.601
37.581
37.561
37.543
37.525
37.509
37.494
37.48
37.467
37.452
37.436
37.418
37.396
37.37
37.341
37.306
37.267
37.222
37.172
37.119
37.063
37.006
36.95
36.895
36.842
36.791
36.743
36.698
36.657
36.62
36.589
36.564
36.545
36.532
36.524
36.522
36.523
36.526
36.532
36.539
36.547
36.556
36.565
36.573
36.578
36.58
36.579
36.575
36.568
36.559
36.549
36.537
36.523
36.507
36.489
36.468
36.445
36.42
36.393
36.364
36.335
36.304
36.273
36.242
36.209
36.176
36.142
36.108
36.072
36.036
36.0
35.963
35.925
35.886
35.847
35.806
35.765
35.723
35.681
35.639
35.597
35.555
35.515
35.476
35.439
35.404
35.37
35.336
35.303
35.271
35.238
35.205
35.171
35.137
35.103
35.067
35.031
34.994
34.958
34.922
34.888
34.857
34.828
34.802
34.778
34.757
34.738
34.719
34.701
34.683
34.665
34.646
34.626
34.606
34.586
34.565
34.545
34.523
34.502
34.481
34.461
34.441
34.423
34.406
34.39
34.375
34.36
34.346
34.333
34.319
34.306
34.293
34.281
34.27
34.258
34.246
34.233
34.22
34.207
34.194
34.181
34.168
34.155
34.14
34.125
34.109
34.094
34.079
34.063
34.047
34.029
34.009
33.988
33.967
33.944
33.922
33.899
33.877
33.854
33.831
33.809
33.787
33.765
33.744
33.725
33.705
33.688
33.672
33.659
33.65
33.648
33.655
33.674
33.707
33.757
33.825
33.914
34.025
34.161
34.32
34.504
34.71
34.935
35.176
35.427
35.684
35.944
36.202
36.454
36.697
36.927
37.14
37.333
37.504
37.652
37.775
37.873
37.948
38.0
38.033
38.048
38.049
38.038
38.017
37.988
37.955
37.918
37.879
37.839
37.798
37.759
37.72
37.683
37.647
37.611
37.577
37.543
37.509
37.475
37.443
37.411
37.38
37.35
37.321
37.292
37.263
37.232
37.2
37.165
37.126
37.085
37.041
36.995
36.947
36.897
36.847
36.793
36.738
36.68
36.62
36.56
36.501
36.446
36.395
36.348
36.306
36.266
36.23
36.195
36.163
36.133
36.107
36.084
36.065
36.048
36.035
36.023
36.012
36.003
35.995
35.988
35.983
35.979
35.975
35.971
35.967
35.96
35.952
35.942
35.93
35.915
35.898
35.88
35.86
35.839
35.817
35.795
35.773
35.752
35.731
35.711
35.691
35.671
35.649
35.626
35.601
35.573
35.543
35.51
35.474
35.435
35.393
35.347
35.299
35.249
35.197
35.146
35.095
35.044
34.993
34.944
34.894
34.847
34.802
34.76
34.721
34.684
34.648
34.613
34.578
34.543
34.508
34.475
34.443
34.413
34.384
34.355
34.327
34.298
34.27
34.242
34.215
34.189
34.165
34.142
34.12
34.1
34.08
34.062
34.047
34.033
34.021
34.009
33.996
33.982
33.966
33.948
33.928
33.905
33.881
33.856
33.832
33.81
33.789
33.771
33.755
33.741
33.728
33.717
33.705
33.694
33.681
33.666
33.65
33.63
33.609
33.586
33.563
33.538
33.514
33.489
33.465
33.442
33.419
33.398
33.379
33.361
33.343
33.328
33.314
33.301
33.289
33.28
33.271
33.263
33.255
33.248
33.24
33.231
33.222
33.211
33.199
33.186
33.171
33.155
33.139
33.122
33.104
33.087
33.07
33.052
33.036
33.02
33.005
32.99
32.975
32.961
32.947
32.932
32.917
32.902
32.888
32.875
32.865
32.858
32.858
32.864
32.881
32.911
32.955
33.017
33.098
33.2
33.325
33.474
33.647
33.843
34.059
34.294
34.542
34.799
35.061
35.323
35.579
35.827
36.062
36.28
36.478
36.655
36.809
36.94
37.048
37.135
37.203
37.254
37.289
37.31
37.317
37.312
37.296
37.273
37.244
37.211
37.177
37.143
37.109
37.077
37.046
37.018
36.99
36.965
36.941
36.92
36.9
36.883
36.869
36.856
36.845
36.835
36.826
36.819
36.811
36.803
36.794
36.784
36.771
36.755
36.736
36.714
36.687
36.656
36.621
36.581
36.539
36.493
36.446
36.396
36.346
36.294
36.242
36.191
36.14
36.092
36.045
36.001
35.962
35.926
35.897
35.878
35.87
35.873
35.884
35.901
35.921
35.942
35.963
35.981
35.994
36.001
35.999
35.989
35.969
35.941
35.907
35.868
35.827
35.784
35.74
35.695
35.65
35.606
35.564
35.524
35.487
35.453
35.423
35.394
35.366
35.339
35.31
35.28
35.25
35.22
35.19
35.16
35.13
35.098
35.065
35.031
34.996
34.962
34.928
34.894
34.861
34.827
34.792
34.756
34.719
34.682
34.645
34.609
34.574
34.54
34.506
34.472
34.439
34.407
34.375
34.344
34.314
34.283
34.253
34.222
34.191
34.158
34.126
34.093
34.062
34.031
34.002
33.973
33.944
33.917
33.89
33.865
33.84
33.817
33.795
33.773
33.752
33.732
33.713
33.695
33.679
33.663
33.648
33.632
33.615
33.599
33.583
33.566
33.551
33.536
33.521
33.507
33.493
33.479
33.465
33.452
33.44
33.428
33.417
33.405
33.393
33.379
33.364
33.347
33.327
33.307
33.285
33.264
33.242
33.221
33.199
33.177
33.156
33.135
33.115
33.096
33.077
33.059
33.04
33.022
33.004
32.986
32.968
32.951
32.935
32.92
32.905
32.89
32.874
32.858
32.841
32.824
32.807
32.79
32.773
32.756
32.74
32.723
32.706
32.69
32.675
32.661
32.649
32.637
32.626
32.614
32.602
32.589
32.576
32.564
32.554
32.545
32.537
32.53
32.523
32.518
32.514
32.515
32.523
