Trial 1:0back
34.256
34.247
34.237
34.228
34.219
34.21
34.203
34.197
34.192
34.187
34.183
34.18
34.179
34.18
34.182
34.186
34.192
34.198
34.206
34.214
34.224
34.234
34.243
34.252
34.258
34.263
34.266
34.267
34.267
34.266
34.264
34.261
34.258
34.254
34.251
34.248
34.243
34.238
34.234
34.23
34.228
34.229
34.236
34.252
34.28
34.324
34.385
34.465
34.567
34.689
34.834
34.998
35.181
35.378
35.585
35.799
36.015
36.229
36.435
36.63
36.81
36.974
37.118
37.242
37.345
37.427
37.488
37.53
37.554
37.561
37.555
37.535
37.503
37.463
37.415
37.362
37.306
37.249
37.193
37.137
37.083
37.031
36.982
36.935
36.89
36.846
36.805
36.767
36.734
36.706
36.682
36.663
36.648
36.638
36.631
36.628
36.627
36.629
36.632
36.636
36.64
36.644
36.647
36.649
36.648
36.645
36.637
36.625
36.608
36.587
36.563
36.536
36.507
36.478
36.448
36.418
36.387
36.357
36.327
36.299
36.273
36.25
36.23
36.213
36.199
36.186
36.175
36.167
36.162
36.159
36.158
36.159
36.162
36.166
36.169
36.172
36.175
36.178
36.181
36.183
36.184
36.182
36.176
36.166
36.152
36.135
36.114
36.091
36.066
36.04
36.014
35.988
35.962
35.936
35.911
35.886
35.863
35.841
35.822
35.804
35.787
35.772
35.758
35.744
35.731
35.719
35.707
35.696
35.684
35.671
35.657
35.64
35.622
35.603
35.582
35.562
35.54
35.519
35.497
35.477
35.458
35.443
35.431
35.422
35.417
35.413
35.412
35.413
35.414
35.415
35.414
35.412
35.409
35.405
35.4
35.393
35.385
35.376
35.365
35.353
35.339
35.324
35.307
35.29
35.272
35.254
35.236
35.22
35.205
35.192
35.18
35.17
35.161
35.153
35.147
35.143
35.141
35.139
35.139
35.137
35.136
35.133
35.129
35.123
35.116
35.107
35.097
35.085
35.072
35.057
35.043
35.028
35.015
35.004
34.994
34.986
34.978
34.971
34.963
34.956
34.948
34.94
34.933
34.925
34.918
34.912
34.908
34.907
34.907
34.908
34.91
34.913
34.916
34.917
34.917
34.914
34.908
34.898
34.885
34.87
34.852
34.832
34.811
34.789
34.768
34.747
34.728
34.711
34.696
34.684
34.676
34.671
34.67
34.67
34.673
34.677
34.682
34.687
34.692
34.695
34.698
34.699
34.7
34.7
34.699
34.697
34.693
34.688
34.681
34.672
34.659
34.643
34.626
34.608
34.591
34.575
34.56
34.547
34.537
34.529
34.524
34.522
34.521
34.521
34.522
34.522
34.522
34.522
34.522
34.522
34.522
34.524
34.526
34.528
34.53
34.531
34.531
34.53
34.527
34.522
34.515
34.506
34.497
34.487
34.476
34.463
34.45
34.438
34.425
34.412
34.398
34.384
34.37
34.358
34.35
34.347
34.352
34.368
34.396
34.438
34.495
34.568
34.659
34.766
34.891
35.031
35.185
35.351
35.526
35.707
35.889
36.068
36.24
36.403
36.553
36.689
36.809
36.912
36.999
37.069
37.123
37.161
37.184
37.193
37.189
37.174
37.149
37.116
37.077
37.033
36.985
36.933
36.881
36.827
36.773
36.719
36.665
36.613
36.562
36.515
36.471
36.431
36.397
36.366
36.341
36.32
36.302
36.288
36.277
36.268
36.261
36.257
36.256
36.256
36.257
36.259
36.26
36.26
36.258
36.254
36.248
36.239
36.229
36.216
36.201
36.184
36.165
36.145
36.124
36.103
36.081
36.058
36.036
36.013
35.991
35.971
35.952
35.934
35.917
35.903
35.89
35.879
35.871
35.863
35.857
35.852
35.85
35.85
35.852
35.858
35.866
35.876
35.887
35.898
35.906
35.913
35.917
35.918
35.917
35.914
35.908
35.9
35.889
35.877
35.862
35.844
35.822
35.796
35.768
35.738
35.709
35.679
35.65
35.623
35.597
35.574
35.553
35.534
35.516
35.501
35.488
35.477
35.468
35.461
35.456
35.452
35.448
35.442
35.436
35.427
35.417
35.405
35.393
35.379
35.364
35.35
35.338
35.327
35.319
35.313
35.31
35.308
35.306
35.304
35.301
35.297
35.292
35.285
35.276
35.266
35.255
35.242
35.228
35.213
35.196
35.179
35.161
35.144
35.128
35.113
35.101
35.091
35.083
35.076
35.071
35.067
35.063
35.06
35.058
35.056
35.056
35.056
35.058
35.061
35.064
35.067
35.069
35.07
35.07
35.068
35.065
35.059
35.052
35.044
35.035
35.023
35.01
34.997
34.984
34.97
34.956
34.941
34.924
34.907
34.89
34.874
34.86
34.847
34.835
34.826
34.819
34.814
34.808
34.803
34.798
34.792
34.786
34.779
34.771
34.761
34.751
34.741
34.732
34.724
34.716
34.709
34.703
34.698
34.694
34.69
34.686
34.683
34.681
34.681
34.681
34.68
34.68
34.678
34.677
34.675
34.673
34.671
34.668
34.666
34.663
34.661
34.658
34.655
34.65
34.644
34.637
34.629
34.619
34.607
34.594
34.582
34.57
34.56
34.55
34.542
34.535
34.529
34.524
34.519
34.514
34.508
34.501
34.492
34.481
34.47
34.457
34.445
34.432
34.42
34.409
34.398
34.389
34.384
34.381
34.383
34.391
34.406
34.43
34.463
34.509
34.568
34.641
34.727
34.828
34.942
35.067
35.202
35.345
35.493
35.644
35.795
35.942
36.084
36.218
36.342
36.457
36.56
36.651
36.73
36.797
36.852
36.895
36.928
36.951
36.964
36.968
36.963
36.95
36.93
36.903
36.871
36.835
36.797
36.757
36.716
36.674
36.631
36.587
36.544
36.5
36.457
36.417
36.379
36.345
36.316
36.291
36.272
36.257
36.247
36.24
36.238
36.239
36.243
36.249
36.254
36.259
36.263
36.265
36.264
36.259
36.251
36.238
36.222
36.202
36.178
36.151
36.12
36.088
36.055
36.022
35.99
35.958
35.927
35.897
35.868
35.841
35.818
35.799
35.785
35.776
35.772
35.773
35.778
35.786
35.795
35.805
35.816
35.827
35.837
35.846
35.852
35.853
35.85
35.845
35.837
35.829
35.819
35.809
35.798
35.788
35.777
35.768
35.758
35.75
35.743
35.735
35.728
35.72
35.71
35.698
35.683
35.667
35.648
35.629
35.609
35.588
35.567
35.546
35.526
35.506
35.486
35.466
35.445
35.425
35.406
35.387
35.371
35.356
35.345
35.337
35.331
35.327
35.324
35.321
35.32
35.319
35.319
35.319
35.318
35.317
35.314
35.31
35.304
35.297
35.289
35.28
35.269
35.256
35.242
35.227
35.212
35.198
35.183
35.169
35.155
35.142
35.13
35.118
35.107
35.096
35.088
35.081
35.076
35.073
35.071
35.072
35.074
35.076
35.078
35.078
35.078
35.077
35.075
35.074
35.072
35.07
35.067
35.065
35.062
35.058
35.054
35.049
35.043
35.036
35.028
35.019
35.009
34.999
34.987
34.975
34.962
34.948
34.933
34.918
34.901
34.883
34.865
34.847
34.83
34.813
34.797
34.783
34.771
34.761
34.753
34.747
34.744
34.743
34.744
34.747
34.751
34.755
34.76
34.765
34.771
34.776
34.781
34.783
34.784
34.783
34.779
34.773
34.764
34.754
34.742
34.729
34.716
34.702
34.689
34.675
34.662
34.649
34.638
34.626
34.615
34.604
34.593
34.583
34.573
34.565
34.559
34.554
34.549
34.544
34.539
34.534
34.529
34.526
34.523
34.523
34.524
34.527
34.532
34.538
34.546
34.555
34.564
34.571
34.578
34.582
34.584
34.584
34.583
34.581
34.578
34.575
34.571
34.566
34.56
34.551
34.541
34.527
34.511
34.494
34.476
34.457
34.439
34.42
34.404
34.39
34.378
34.369
34.362
34.358
34.358
34.365
34.379
34.404
34.443
34.497
34.569
34.66
34.771
34.899
35.045
35.205
35.378
35.56
35.746
35.934
36.118
36.296
36.464
36.621
36.762
36.887
36.994
37.083
37.153
37.206
37.242
37.261
37.267
37.259
37.24
37.211
37.176
37.134
37.087
37.038
36.986
36.935
36.885
36.837
36.792
36.749
36.708
36.67
36.635
36.603
36.575
36.55
36.528
36.509
36.494
36.482
36.472
36.463
36.455
36.449
36.444
36.439
36.434
36.43
36.425
36.418
36.41
36.401
36.388
36.373
36.354
36.333
36.31
36.286
36.261
36.236
36.212
36.188
36.164
36.139
36.115
36.089
36.064
36.039
36.016
35.994
35.974
35.958
35.944
35.933
35.925
35.92
35.917
35.917
35.919
35.921
35.925
35.928
35.931
35.934
35.935
35.936
35.935
35.933
35.928
35.923
35.922
35.929
35.943
35.963
35.986
36.009
36.03
36.044
36.051
36.049
36.038
36.019
35.993
35.961
35.925
35.885
35.844
35.802
35.761
35.721
35.683
35.647
35.613
35.58
35.55
35.523
35.497
35.475
35.455
35.439
35.426
35.414
35.404
35.395
35.386
35.377
35.369
35.362
35.355
35.349
35.342
35.333
35.322
35.31
35.296
35.281
35.268
35.254
35.241
35.229
35.218
35.209
35.203
35.199
35.197
35.196
35.194
35.19
35.184
35.175
35.166
35.155
35.145
35.135
35.127
35.12
35.114
35.107
35.101
35.095
35.089
35.085
35.082
35.078
35.076
35.074
35.073
35.071
35.07
35.067
35.063
35.057
35.051
35.043
35.034
35.025
35.015
35.007
34.999
34.993
34.987
34.981
34.976
34.97
34.965
34.959
34.953
34.946
34.938
34.929
34.921
34.912
34.903
34.894
34.884
34.874
34.862
34.85
34.837
34.824
34.811
34.799
34.789
34.78
34.772
34.765
34.759
34.753
34.748
34.743
34.738
34.732
34.726
34.721
34.715
34.711
34.708
34.707
34.708
34.71
34.713
34.716
34.719
34.723
34.725
34.726
34.725
34.722
34.718
34.711
34.702
34.692
34.681
34.669
34.655
34.641
34.627
34.614
34.602
34.592
34.583
34.575
34.569
34.563
34.558
34.554
34.551
34.548
34.546
34.544
34.542
34.54
34.539
34.537
34.536
34.535
34.532
34.528
34.522
34.514
34.506
34.497
34.488
34.48
34.472
34.465
34.458
34.453
34.448
34.443
34.439
34.434
34.429
34.423
34.416
34.408
34.399
34.392
34.388
34.388
34.395
34.409
34.434
34.471
34.522
34.589
34.673
34.772
34.888
35.018
35.163
35.318
35.481
35.648
35.815
35.98
36.14
36.29
36.428
36.551
36.656
36.745
36.815
36.869
36.906
36.928
36.937
36.934
36.922
36.901
36.875
36.843
36.807
36.768
36.727
36.685
36.642
36.599
36.556
36.513
36.47
36.427
36.385
36.344
36.305
36.269
36.237
36.209
36.184
36.163
36.145
36.13
36.118
36.108
36.101
36.096
36.092
36.089
36.085
36.081
36.077
36.072
36.066
36.06
36.051
36.041
36.028
36.014
35.997
35.979
35.96
35.941
35.921
35.902
35.882
35.862
35.843
35.826
35.809
35.795
35.783
35.774
35.767
35.763
35.762
35.762
35.765
35.769
35.774
35.78
35.786
35.792
35.796
35.801
35.805
35.808
35.81
35.812
35.813
35.813
35.812
35.812
35.811
35.81
35.807
35.803
35.796
35.785
35.771
35.753
35.732
35.708
35.682
35.654
35.625
35.595
35.566
35.537
35.51
35.485
35.463
35.443
35.425
35.408
35.391
35.374
35.359
35.344
35.33
35.318
35.307
35.297
35.288
35.279
35.269
35.258
35.245
35.23
35.215
35.199
35.183
35.169
35.16
35.157
35.161
35.17
35.18
35.191
35.2
35.205
35.205
35.201
35.192
35.179
35.163
35.145
35.126
35.107
35.088
35.07
35.052
35.036
35.02
35.007
34.995
34.987
34.98
34.977
34.974
34.972
34.97
34.966
34.962
34.956
34.948
34.94
34.93
34.92
34.91
34.901
34.894
34.888
34.883
34.88
34.878
34.876
34.875
34.873
34.872
34.871
34.87
34.868
34.866
34.863
34.858
34.852
34.846
34.838
34.83
34.822
34.813
34.802
34.79
34.777
34.763
34.75
34.737
34.725
34.714
34.703
34.693
34.683
34.673
34.662
34.651
34.639
34.626
34.614
34.601
34.589
34.579
34.571
34.565
34.559
34.554
34.548
34.541
34.534
34.527
34.519
34.512
34.505
34.499
34.493
34.487
34.481
34.473
34.465
34.456
34.446
34.436
34.425
34.414
34.402
34.39
34.378
34.367
34.355
34.343
34.331
34.318
34.305
34.291
34.277
34.263
34.252
34.243
34.236
34.234
34.236
34.244
34.26
34.285
34.32
34.367
34.426
34.5
34.587
34.688
34.803
34.929
35.064
35.207
35.355
35.504
35.652
35.796
35.933
36.061
36.178
36.284
36.378
36.458
36.526
36.58
36.621
36.648
36.662
36.663
36.653
36.633
36.605
36.569
36.528
36.484
36.436
36.386
36.337
36.287
36.239
36.193
36.15
36.11
36.073
36.039
36.009
35.981
35.956
35.932
35.909
35.884
35.858
35.829
35.799
35.768
35.737
35.707
35.677
35.648
35.621
35.595
35.569
35.544
35.52
35.496
35.472
35.447
35.422
35.396
35.371
35.348
35.326
35.306
35.289
35.275
35.264
35.255
35.25
35.248
35.25
35.257
35.268
35.284
35.305
35.329
35.356
35.384
35.413
35.443
35.473
35.503
35.532
35.561
35.588
35.613
35.637
35.657
35.673
35.685
35.692
35.693
35.689
35.678
35.662
35.641
35.616
35.587
35.557
35.525
35.492
35.46
35.429
35.399
35.37
35.34
35.311
35.283
35.255
35.229
35.204
35.182
35.164
35.149
35.136
35.126
35.117
35.108
35.099
35.092
35.091
35.096
35.109
35.126
35.146
35.166
35.183
35.195
35.2
35.197
35.187
35.17
35.148
35.122
35.093
35.063
35.034
35.006
34.98
34.956
34.936
34.918
34.904
34.892
34.882
34.875
34.869
34.865
34.862
34.86
34.859
34.858
34.856
34.855
34.855
34.854
34.854
34.855
34.857
34.86
34.865
34.871
34.879
34.887
34.894
34.899
34.903
34.904
34.903
34.901
34.897
34.894
34.89
34.886
34.883
34.88
34.876
34.872
34.867
34.861
34.854
34.846
34.837
34.826
34.815
34.803
34.792
34.782
34.774
34.766
34.758
34.751
34.743
34.733
34.722
34.709
34.695
34.679
34.663
34.646
34.629
34.612
34.597
34.583
34.57
34.559
34.548
34.537
34.526
34.517
34.508
34.5
34.493
34.486
34.482
34.478
34.475
34.474
34.473
34.473
34.474
34.477
34.481
34.488
34.497
34.511
34.531
34.559
34.596
34.645
34.705
34.779
34.865
34.963
35.071
35.187
35.309
35.434
35.56
35.684
35.806
35.921
36.027
36.125
36.21
36.283
36.342
36.388
36.421
36.443
36.455
36.456
36.448
36.434
36.412
36.386
36.355
36.321
36.284
36.244
36.203
36.163
36.123
36.084
36.048
36.013
35.979
35.947
35.914
35.882
35.848
35.814
35.778
35.742
35.706
35.669
35.633
35.597
35.561
35.525
35.49
35.455
35.419
35.384
35.349
35.315
35.281
35.249
35.218
35.189
35.163
35.138
35.117
35.1
35.086
35.077
35.073
35.074
35.082
35.095
35.113
35.137
35.165
35.197
35.232
35.27
35.309
35.349
35.388
35.424
35.458
35.488
35.513
35.535
35.552
35.564
35.572
35.576
35.576
35.572
35.565
35.555
35.543
35.529
35.514
35.499
35.483
35.466
35.448
35.427
35.403
35.377
35.349
35.32
35.291
35.261
35.232
35.204
35.176
35.151
35.127
35.105
35.084
35.066
35.048
35.029
35.011
34.993
34.975
34.957
34.939
34.921
34.905
34.889
34.876
34.863
34.852
34.842
34.834
34.827
34.821
34.816
34.812
34.808
34.806
34.805
34.805
34.804
34.802
34.8
34.798
34.795
34.79
34.785
34.779
34.773
34.768
34.763
34.76
34.758
34.758
34.759
34.762
34.765
34.768
34.77
34.771
34.772
34.773
34.774
34.776
34.779
34.783
34.787
34.792
34.795
34.797
34.797
34.795
34.79
34.783
34.775
34.764
34.751
34.738
34.725
34.712
34.699
34.686
34.673
34.66
34.645
34.63
34.614
34.599
34.585
34.572
34.56
34.551
34.544
34.539
34.536
34.534
34.533
34.533
34.533
34.534
34.534
34.533
34.532
34.53
34.529
34.528
34.527
34.526
34.525
34.524
34.522
34.52
34.516
34.512
34.506
34.5
34.493
34.486
34.477
34.466
34.454
34.441
34.427
34.411
34.393
34.372
34.35
34.325
34.3
34.274
34.25
34.227
34.208
34.192
34.18
34.171
34.166
34.164
34.165
34.171
34.18
34.194
34.214
34.242
34.28
34.33
34.394
34.473
34.569
34.681
34.807
34.947
35.098
35.256
35.419
35.585
35.749
35.908
36.058
36.198
36.325
36.438
36.535
36.615
36.678
36.724
36.753
36.768
36.77
36.758
36.735
36.703
36.664
36.621
36.574
36.525
36.476
36.427
36.38
36.334
36.29
36.251
36.215
36.183
36.154
36.127
36.102
36.078
36.055
36.035
36.016
36.0
35.987
35.976
35.968
35.962
35.96
35.96
35.961
35.964
35.966
35.967
35.965
35.962
35.956
35.947
35.937
35.925
35.911
35.895
35.877
35.857
35.835
35.81
35.784
35.756
35.728
35.699
35.671
35.644
35.619
35.597
35.579
35.563
35.551
35.542
35.537
35.534
35.535
35.539
35.546
35.557
35.569
35.583
35.599
35.615
35.63
35.644
35.656
35.665
35.671
35.674
35.674
35.67
35.662
35.651
35.635
35.617
35.597
35.576
35.554
35.532
35.509
35.487
35.465
35.445
35.425
35.407
35.39
35.376
35.364
35.353
35.343
35.333
35.322
35.311
35.297
35.283
35.267
35.25
35.232
35.214
35.196
35.179
35.166
35.155
35.147
35.142
35.138
35.134
35.129
35.124
35.118
35.111
35.103
35.095
35.087
35.08
35.073
35.066
35.058
35.051
35.043
35.034
35.024
35.013
35.0
34.988
34.976
34.965
34.954
34.944
34.935
34.924
34.913
34.902
34.89
34.878
34.866
34.856
34.846
34.839
34.833
34.829
34.827
34.825
34.824
34.824
34.822
34.821
34.819
34.816
34.813
34.81
34.804
34.797
34.788
34.778
34.769
34.759
34.749
34.739
34.73
34.72
34.711
34.702
34.693
34.685
34.676
34.668
34.66
34.652
34.644
34.636
34.628
34.62
34.612
34.603
34.595
34.587
34.581
34.577
34.574
34.573
34.572
34.571
34.571
34.57
34.568
34.566
34.563
34.559
34.554
34.549
34.543
34.537
34.53
34.523
34.516
34.507
34.497
34.486
34.473
34.459
34.445
34.43
34.416
34.402
34.389
34.379
34.371
34.367
34.366
34.367
34.369
34.372
34.375
34.376
34.376
34.374
34.369
34.364
34.356
34.346
34.334
34.321
34.307
34.293
34.28
34.267
34.255
34.244
34.235
34.227
34.221
34.217
34.216
34.218
34.222
34.228
34.238
34.254
34.277
34.311
34.358
34.419
34.495
34.586
34.693
34.813
34.946
35.088
35.237
35.388
35.538
35.684
35.824
35.954
36.073
36.179
36.272
36.351
36.416
36.467
36.505
36.53
36.544
36.546
36.538
36.521
36.497
36.466
36.431
36.393
36.354
36.315
36.277
36.24
36.203
36.168
36.133
36.099
36.068
36.038
36.01
35.986
35.964
35.946
35.932
35.922
35.914
35.908
35.903
35.899
35.895
35.891
35.888
35.886
35.884
35.884
35.884
35.884
35.883
35.881
35.878
35.872
35.865
35.855
35.842
35.827
35.81
35.792
35.773
35.752
35.73
35.707
35.684
35.662
35.641
35.62
35.6
35.579
35.559
35.539
35.52
35.502
35.486
35.472
35.461
35.453
35.449
35.448
35.45
35.455
35.464
35.474
35.486
35.496
35.506
35.513
35.518
35.52
35.518
35.513
35.505
35.495
35.484
35.473
35.464
35.455
35.447
35.44
35.434
35.428
35.421
35.412
35.401
35.388
35.374
35.358
35.343
35.326
35.307
35.288
35.268
35.247
35.227
35.206
35.186
35.166
35.147
35.131
35.116
35.103
35.092
35.083
35.075
35.067
35.06
35.052
35.044
35.036
35.027
35.017
35.009
35.001
34.995
34.99
34.986
34.982
34.98
34.978
34.976
34.974
34.971
34.968
34.965
34.962
34.96
34.958
34.958
34.957
34.957
34.957
34.956
34.954
34.949
34.941
34.928
34.911
34.892
34.872
34.851
34.833
34.816
34.802
34.79
34.781
34.773
34.768
34.764
34.762
34.761
34.762
34.763
34.765
34.768
34.772
34.775
34.778
34.78
34.78
34.777
34.771
34.762
34.753
34.741
34.729
34.718
34.707
34.698
34.692
34.686
34.682
34.68
34.679
34.68
34.681
34.681
34.681
34.679
34.677
34.675
34.671
34.666
34.661
34.654
34.647
34.639
34.629
34.617
34.604
34.59
34.575
34.56
34.546
34.533
34.522
34.512
34.504
34.497
34.489
34.482
34.473
34.464
34.454
34.444
34.433
34.423
34.412
34.403
34.393
34.385
34.378
34.371
34.367
34.364
34.362
34.361
34.359
34.356
34.352
34.346
34.34
34.331
34.321
34.311
34.3
34.29
34.28
34.271
34.263
34.256
34.251
34.246
34.243
34.242
34.242
34.243
34.245
34.245
34.245
34.244
34.243
34.24
34.237
34.231
34.225
34.218
34.21
34.203
34.196
34.189
34.184
34.181
34.18
34.181
34.188
34.2
34.22
34.25
34.291
34.345
34.413
34.498
34.6
34.717
34.849
34.992
35.143
35.297
35.451
35.602
35.745
35.879
36.001
36.109
36.204
36.283
36.349
36.401
36.439
36.464
36.477
36.479
36.472
36.456
36.433
36.404
36.37
36.333
36.292
36.25
36.208
36.165
36.123
36.081
36.041
36.003
35.966
35.932
35.9
35.872
35.847
35.826
35.809
35.795
35.783
35.773
35.766
35.761
35.758
35.756
35.756
35.757
35.76
35.763
35.766
35.769
35.771
35.772
35.77
35.767
35.761
35.752
35.74
35.725
35.707
35.688
35.666
35.642
35.617
35.591
