Trial 1:0back
35.556
35.433
35.318
35.213
35.115
35.024
34.942
34.867
34.802
34.747
34.702
34.667
34.643
34.629
34.624
34.63
34.644
34.666
34.696
34.734
34.777
34.824
34.875
34.928
34.983
35.039
35.094
35.149
35.201
35.25
35.293
35.331
35.361
35.384
35.398
35.404
35.402
35.391
35.373
35.347
35.312
35.271
35.222
35.167
35.107
35.042
34.972
34.899
34.823
34.746
34.672
34.612
34.573
34.554
34.552
34.559
34.568
34.573
34.567
34.546
34.506
34.447
34.369
34.273
34.163
34.043
33.918
33.793
33.671
33.555
33.448
33.351
33.266
33.194
33.135
33.089
33.054
33.029
33.011
32.997
32.987
32.978
32.971
32.963
32.953
32.941
32.926
32.91
32.892
32.874
32.856
32.839
32.822
32.805
32.788
32.772
32.755
32.738
32.722
32.707
32.693
32.68
32.667
32.655
32.644
32.633
32.623
32.612
32.604
32.598
32.598
32.606
32.624
32.657
32.707
32.778
32.873
32.994
33.144
33.325
33.538
33.785
34.065
34.378
34.724
35.1
35.503
35.929
36.37
36.819
37.268
37.709
38.136
38.542
38.92
39.264
39.569
39.832
40.051
40.224
40.354
40.44
40.484
40.49
40.46
40.398
40.306
40.19
40.052
39.897
39.73
39.553
39.37
39.183
38.994
38.803
38.611
38.42
38.231
38.043
37.857
37.674
37.495
37.32
37.148
36.981
36.818
36.658
36.501
36.348
36.197
36.049
35.903
35.761
35.623
35.488
35.358
35.235
35.119
35.009
34.907
34.812
34.725
34.647
34.579
34.522
34.476
34.441
34.415
34.4
34.394
34.398
34.411
34.435
34.469
34.512
34.561
34.616
34.674
34.735
34.798
34.861
34.925
34.99
35.053
35.113
35.17
35.223
35.271
35.311
35.343
35.366
35.378
35.379
35.371
35.353
35.325
35.288
35.245
35.194
35.137
35.075
35.009
34.94
34.869
34.797
34.725
34.653
34.582
34.513
34.446
34.381
34.318
34.256
34.196
34.137
34.079
34.023
33.967
33.914
33.862
33.812
33.763
33.715
33.667
33.621
33.574
33.528
33.482
33.436
33.391
33.347
33.306
33.266
33.228
33.193
33.161
33.132
33.107
33.085
33.065
33.047
33.03
33.013
32.998
32.983
32.969
32.958
32.947
32.935
32.921
32.904
32.885
32.863
32.841
32.817
32.794
32.77
32.746
32.723
32.699
32.676
32.656
32.642
32.634
32.633
32.641
32.659
32.69
32.736
32.799
32.883
32.99
33.122
33.28
33.464
33.674
33.913
34.18
34.478
34.804
35.158
35.536
35.933
36.343
36.759
37.173
37.58
37.972
38.343
38.689
39.003
39.281
39.521
39.721
39.88
39.999
40.079
40.122
40.129
40.103
40.047
39.966
39.863
39.741
39.602
39.449
39.285
39.112
38.932
38.747
38.559
38.367
38.173
37.978
37.781
37.586
37.391
37.199
37.008
36.82
36.634
36.452
36.274
36.1
35.931
35.766
35.607
35.452
35.304
35.162
35.027
34.9
34.782
34.673
34.572
34.481
34.4
34.332
34.277
34.235
34.206
34.189
34.184
34.19
34.205
34.231
34.266
34.31
34.36
34.415
34.473
34.535
34.598
34.663
34.728
34.792
34.855
34.917
34.977
35.034
35.088
35.138
35.182
35.22
35.251
35.274
35.289
35.295
35.294
35.284
35.266
35.241
35.21
35.172
35.128
35.078
35.024
34.964
34.9
34.833
34.764
34.692
34.62
34.547
34.474
34.4
34.326
34.253
34.182
34.114
34.048
33.985
33.924
33.866
33.809
33.755
33.704
33.655
33.609
33.565
33.524
33.485
33.449
33.415
33.383
33.353
33.324
33.295
33.267
33.24
33.215
33.192
33.171
33.151
33.132
33.113
33.096
33.08
33.064
33.05
33.036
33.021
33.006
32.988
32.969
32.948
32.927
32.906
32.884
32.862
32.841
32.822
32.805
32.791
32.78
32.776
32.782
32.8
32.834
32.885
32.956
33.051
33.172
33.32
33.497
33.704
33.944
34.214
34.515
34.845
35.201
35.58
35.977
36.388
36.805
37.223
37.634
38.03
38.405
38.754
39.072
39.356
39.602
39.808
39.974
40.099
40.184
40.232
40.244
40.223
40.171
40.091
39.989
39.866
39.727
39.575
39.411
39.239
39.06
38.876
38.689
38.499
38.308
38.115
37.921
37.726
37.531
37.337
37.144
36.953
36.764
36.58
36.399
36.223
36.052
35.887
35.727
35.572
35.422
35.278
35.14
35.009
34.887
34.774
34.669
34.575
34.49
34.415
34.35
34.294
34.249
34.214
34.19
34.176
34.173
34.18
34.198
34.226
34.263
34.309
34.361
34.419
34.481
34.547
34.614
34.682
34.749
34.813
34.872
34.927
34.976
35.019
35.055
35.081
35.1
35.112
35.117
35.116
35.108
35.096
35.077
35.053
35.022
34.984
34.941
34.894
34.844
34.791
34.735
34.676
34.613
34.548
34.481
34.413
34.346
34.279
34.216
34.157
34.107
34.064
34.029
33.997
33.968
33.937
33.904
33.867
33.825
33.779
33.728
33.674
33.616
33.556
33.496
33.436
33.377
33.323
33.272
33.225
33.183
33.144
33.11
33.079
33.05
33.023
32.998
32.975
32.952
32.93
32.909
32.889
32.871
32.853
32.837
32.822
32.809
32.796
32.784
32.772
32.76
32.747
32.734
32.719
32.704
32.689
32.674
32.662
32.653
32.649
32.652
32.665
32.69
32.732
32.794
32.877
32.986
33.124
33.293
33.494
33.73
34.0
34.307
34.647
35.021
35.423
35.852
36.3
36.762
37.231
37.698
38.156
38.598
39.015
39.403
39.756
40.069
40.338
40.56
40.736
40.865
40.949
40.991
40.994
40.96
40.894
40.798
40.678
40.537
40.38
40.21
40.032
39.848
39.668
39.5
39.344
39.198
39.06
38.925
38.787
38.641
38.485
38.318
38.14
37.95
37.751
37.544
37.332
37.118
36.904
36.692
36.486
36.286
36.095
35.915
35.745
35.587
35.441
35.306
35.184
35.074
34.976
34.889
34.813
34.748
34.693
34.648
34.612
34.585
34.565
34.551
34.544
34.544
34.551
34.566
34.588
34.616
34.651
34.691
34.736
34.786
34.84
34.897
34.956
35.017
35.076
35.132
35.185
35.233
35.275
35.31
35.337
35.357
35.367
35.37
35.363
35.346
35.319
35.283
35.239
35.188
35.133
35.073
35.011
34.947
34.882
34.815
34.748
34.679
34.611
34.542
34.473
34.403
34.334
34.265
34.196
34.13
34.065
34.002
33.942
33.884
33.828
33.775
33.723
33.674
33.628
33.585
33.544
33.503
33.462
33.421
33.381
33.341
33.304
33.268
33.236
33.207
33.179
33.154
33.132
33.112
33.094
33.078
33.063
33.049
33.035
33.021
33.006
32.99
32.973
32.953
32.933
32.91
32.887
32.864
32.84
32.815
32.791
32.767
32.745
32.726
32.71
32.697
32.69
32.689
32.699
32.72
32.758
32.817
32.899
33.009
33.148
33.321
33.527
33.769
34.046
34.358
34.704
35.083
35.492
35.928
36.386
36.858
37.338
37.816
38.285
38.737
39.164
39.561
39.921
40.236
40.504
40.722
40.889
41.007
41.078
41.106
41.096
41.05
40.973
40.871
40.747
40.605
40.449
40.283
40.108
39.927
39.74
39.551
39.36
39.169
38.978
38.788
38.599
38.413
38.228
38.046
37.866
37.688
37.513
37.341
37.17
37.001
36.833
36.668
36.506
36.349
36.195
36.047
35.904
35.767
35.637
35.515
35.401
35.295
35.198
35.11
35.03
34.96
34.897
34.843
34.796
34.756
34.724
34.699
34.68
34.669
34.664
34.665
34.673
34.688
34.71
34.738
34.773
34.813
34.857
34.904
34.953
35.003
35.052
35.098
35.143
35.184
35.221
35.253
35.278
35.298
35.31
35.314
35.31
35.297
35.275
35.246
35.21
35.168
35.12
35.066
35.008
34.945
34.879
34.811
34.741
34.669
34.596
34.521
34.445
34.368
34.291
34.216
34.143
34.072
34.005
33.942
33.882
33.825
33.771
33.72
33.673
33.629
33.587
33.546
33.506
33.467
33.428
33.39
33.352
33.315
33.279
33.244
33.211
33.18
33.149
33.12
33.092
33.064
33.037
33.009
32.982
32.955
32.93
32.905
32.882
32.859
32.839
32.82
32.803
32.788
32.775
32.763
32.752
32.741
32.729
32.717
32.704
32.691
32.678
32.664
32.651
32.639
32.628
32.621
32.62
32.629
32.651
32.69
32.751
32.839
32.958
33.112
33.301
33.528
33.792
34.094
34.431
34.802
35.204
35.633
36.083
36.548
37.021
37.495
37.962
38.414
38.845
39.247
39.615
39.944
40.231
40.473
40.669
40.819
40.922
40.981
40.998
40.976
40.921
40.835
40.725
40.593
40.444
40.28
40.104
39.918
39.726
39.528
39.326
39.121
38.916
38.711
38.506
38.303
38.102
37.905
37.711
37.519
37.332
37.149
36.97
36.798
36.632
36.471
36.317
36.168
36.024
35.883
35.746
35.612
35.483
35.358
35.237
35.12
35.008
34.902
34.803
34.714
34.636
34.571
34.518
34.479
34.451
34.435
34.43
34.436
34.452
34.476
34.507
34.543
34.585
34.63
34.677
34.725
34.774
34.824
34.872
34.918
34.962
35.003
35.04
35.073
35.104
35.132
35.159
35.183
35.204
35.221
35.232
35.235
35.228
35.212
35.186
35.151
35.108
35.057
34.998
34.933
34.862
34.785
34.704
34.62
34.535
34.451
34.368
34.287
34.209
34.135
34.064
33.996
33.932
33.871
33.81
33.745
33.677
33.607
33.536
33.468
33.403
33.346
33.295
33.252
33.216
33.188
33.165
33.147
33.132
33.12
33.109
33.099
33.089
33.079
33.068
33.055
33.041
33.025
33.008
32.989
32.97
32.951
32.934
32.917
32.901
32.885
32.869
32.853
32.838
32.823
32.809
32.797
32.785
32.772
32.758
32.742
32.725
32.707
32.69
32.674
32.661
32.653
32.652
32.66
32.681
32.717
32.772
32.851
32.956
33.092
33.26
33.464
33.705
33.985
34.304
34.66
35.052
35.475
35.924
36.392
36.869
37.347
37.818
38.272
38.705
39.108
39.476
39.805
40.09
40.328
40.519
40.662
40.76
40.813
40.826
40.801
40.742
40.654
40.541
40.406
40.253
40.086
39.907
39.719
39.523
39.322
39.116
38.908
38.699
38.492
38.286
38.083
37.88
37.679
37.481
37.285
37.094
36.906
36.723
36.545
36.371
36.2
36.034
35.871
35.713
35.561
35.415
35.276
35.144
35.021
34.905
34.799
34.703
34.617
34.542
34.478
34.425
34.383
34.349
34.32
34.289
34.258
34.228
34.201
34.183
34.175
34.18
34.2
34.234
34.282
34.344
34.417
34.499
34.586
34.676
34.766
34.851
34.93
35.001
35.063
35.115
35.156
35.186
35.206
35.214
35.213
35.202
35.182
35.152
35.114
35.069
35.017
34.961
34.901
34.838
34.772
34.704
34.634
34.563
34.491
34.419
34.347
34.276
34.205
34.134
34.065
33.996
33.93
33.866
33.806
33.749
33.695
33.643
33.593
33.544
33.497
33.45
33.405
33.361
33.317
33.274
33.23
33.187
33.145
33.105
33.067
33.031
32.998
32.969
32.943
32.92
32.899
32.881
32.866
32.853
32.842
32.83
32.816
32.801
32.784
32.765
32.744
32.722
32.7
32.678
32.657
32.636
32.615
32.595
32.576
32.558
32.541
32.527
32.514
32.505
32.499
32.498
32.503
32.516
32.541
32.58
32.636
32.714
32.816
32.946
33.106
33.3
33.527
33.79
34.088
34.42
34.785
35.18
35.601
36.044
36.502
36.969
37.437
37.899
38.346
38.772
39.169
39.531
39.854
40.132
40.365
40.549
40.685
40.773
40.814
40.812
40.77
40.691
40.58
40.442
40.282
40.102
39.906
39.698
39.481
39.257
39.029
38.801
38.572
38.344
38.119
37.896
37.676
37.461
37.249
37.043
36.841
36.644
36.455
36.275
36.104
35.942
35.788
35.641
35.498
35.359
35.222
35.087
34.954
34.824
34.7
34.582
34.472
34.372
34.282
34.203
34.135
34.078
34.033
34.0
33.979
33.971
33.976
33.993
34.021
34.059
34.105
34.159
34.218
34.285
34.359
34.439
34.524
34.611
34.697
34.778
34.853
34.919
34.977
35.023
35.059
35.082
35.093
35.094
35.085
35.067
35.043
35.012
34.975
34.933
34.885
34.834
34.779
34.722
34.663
34.601
34.537
34.471
34.403
34.335
34.267
34.199
34.131
34.064
33.999
33.936
33.875
33.816
33.76
33.705
33.65
33.596
33.543
33.489
33.436
33.385
33.334
33.284
33.234
33.183
33.132
33.081
33.032
32.985
32.941
32.901
32.864
32.831
32.8
32.772
32.747
32.725
32.708
32.694
32.683
32.672
32.662
32.653
32.643
32.634
32.625
32.618
32.613
32.608
32.603
32.595
32.586
32.575
32.561
32.546
32.529
32.512
32.493
32.474
32.456
32.441
32.429
32.422
32.423
32.433
32.453
32.484
32.529
32.59
32.673
32.782
32.92
33.091
33.299
33.544
33.826
34.143
34.494
34.876
35.283
35.713
36.158
36.613
37.069
37.521
37.96
38.38
38.774
39.136
39.461
39.746
39.986
40.18
40.327
40.428
40.482
40.493
40.463
40.397
40.296
40.164
40.005
39.824
39.624
39.412
39.192
38.967
38.74
38.513
38.288
38.067
37.85
37.638
37.433
37.233
37.04
36.852
36.67
36.492
36.317
36.145
35.977
35.81
35.646
35.485
35.327
35.173
35.024
34.881
34.746
34.62
34.504
34.397
34.3
34.214
34.14
34.079
34.03
33.994
33.97
33.959
33.96
33.972
33.995
34.027
34.067
34.116
34.172
34.234
34.301
34.371
34.445
34.52
34.596
34.672
34.745
34.816
34.882
34.942
34.995
35.042
35.082
35.115
35.142
35.161
35.171
35.174
35.168
35.153
35.131
35.102
35.067
35.027
34.981
34.931
34.877
34.82
34.761
34.699
34.636
34.571
34.505
34.438
34.372
34.305
34.238
34.174
34.111
34.051
33.994
33.939
33.883
33.823
33.758
33.69
33.619
33.548
33.48
33.416
33.358
33.31
33.27
33.24
33.219
33.205
33.196
33.191
33.19
33.192
33.196
33.199
33.201
33.199
33.193
33.183
33.167
33.147
33.123
33.095
33.066
33.035
33.002
32.966
32.929
32.892
32.855
32.821
32.791
32.765
32.743
32.728
32.719
32.716
32.719
32.73
32.751
32.785
32.833
32.898
32.984
33.093
33.228
33.391
33.586
33.815
34.077
34.373
34.7
35.056
35.438
35.84
36.258
36.686
37.115
37.54
37.954
38.349
38.72
39.061
39.369
39.639
39.867
40.053
40.195
40.294
40.352
40.371
40.353
40.3
40.216
40.105
39.97
39.814
39.64
39.452
39.253
39.046
38.833
38.618
38.4
38.182
37.965
37.749
37.535
37.323
37.111
36.9
36.693
36.488
36.288
36.092
35.903
35.72
35.544
35.377
35.217
35.065
34.923
34.789
34.666
34.552
34.447
34.351
34.265
34.19
34.126
34.072
34.029
33.996
33.974
33.962
33.962
33.973
33.995
34.029
34.073
34.127
34.189
34.26
34.338
34.421
34.507
34.595
34.682
34.768
34.849
34.926
34.996
35.061
35.118
35.166
35.204
35.231
35.248
35.257
35.256
35.248
35.233
35.212
35.184
35.15
35.111
35.067
35.02
34.972
34.924
34.875
34.826
34.777
34.728
34.678
34.627
34.575
34.521
34.467
34.412
34.356
34.299
34.242
34.185
34.127
34.07
34.013
33.957
33.903
33.851
33.801
33.753
33.707
33.664
33.622
33.583
33.546
33.511
33.48
33.452
33.428
33.406
33.387
33.373
33.362
33.355
33.352
33.351
33.351
33.352
33.352
33.35
33.346
33.339
33.328
33.315
33.299
33.281
33.261
33.241
33.22
33.201
33.185
33.171
33.16
33.153
33.15
33.155
33.175
33.215
33.275
33.359
33.467
33.598
33.754
33.934
34.14
34.371
34.629
34.914
35.228
35.571
35.94
36.333
36.747
37.177
37.618
38.062
38.505
38.937
39.351
39.739
40.095
40.414
40.693
40.928
41.119
41.263
41.364
41.422
41.44
41.421
41.368
41.284
41.173
41.037
40.88
40.706
40.518
40.319
40.112
39.901
39.687
39.47
39.253
39.036
38.819
38.605
38.391
38.18
37.972
37.767
37.566
37.37
37.179
36.993
36.812
36.636
36.464
36.298
36.136
35.977
35.822
35.672
35.528
35.391
35.263
35.145
35.038
34.942
34.858
34.786
34.726
34.68
34.646
34.626
34.618
34.621
34.635
34.659
34.692
34.733
34.784
34.841
34.904
34.971
35.041
35.111
35.179
35.244
35.306
35.363
35.416
35.462
35.501
35.533
35.558
35.576
35.585
35.587
35.581
35.569
35.55
35.524
35.492
35.454
35.41
35.362
35.31
35.253
35.193
35.129
35.062
34.991
34.917
34.841
34.764
34.686
34.607
34.526
34.444
34.361
34.28
34.2
34.122
34.047
33.976
33.909
33.845
33.785
33.73
33.679
33.633
33.591
33.552
33.515
33.48
33.447
33.414
33.382
33.35
33.318
33.286
33.254
33.221
33.189
33.157
33.126
33.096
33.067
33.039
33.012
32.987
32.965
32.946
32.929
32.913
32.899
32.884
32.868
32.851
32.832
32.812
32.791
32.77
32.75
32.732
32.719
32.713
32.717
32.734
32.771
32.83
32.915
33.03
33.178
33.361
33.582
33.841
34.137
34.471
34.839
35.24
35.668
36.119
36.588
37.07
37.558
38.045
38.521
38.979
39.41
39.808
40.167
40.483
40.753
40.973
41.143
41.263
41.334
41.359
41.341
41.284
41.191
41.068
40.919
40.749
40.562
40.362
40.152
39.936
39.717
39.498
39.279
39.062
38.847
38.635
38.427
38.222
38.022
37.825
37.631
37.439
37.249
37.062
36.877
36.694
36.513
36.334
36.159
35.988
35.822
35.663
35.511
35.368
35.234
35.111
34.998
34.897
34.807
34.729
34.662
34.606
34.561
34.527
34.504
34.491
34.488
34.495
34.509
34.53
34.558
34.592
34.632
34.678
34.728
34.78
34.834
34.89
34.946
35.001
35.055
35.107
35.155
35.199
35.238
35.271
35.298
35.319
35.333
35.341
35.343
35.338
35.327
35.31
35.287
35.258
35.225
35.186
35.142
35.091
35.033
34.971
34.903
34.831
34.757
34.681
34.605
34.529
34.453
34.377
34.301
34.227
34.154
34.085
34.019
33.956
33.897
33.842
33.789
33.738
33.69
33.644
33.599
33.555
33.511
33.467
33.423
33.38
33.336
33.293
33.251
33.21
33.17
33.131
33.093
33.055
33.019
32.985
32.953
32.922
32.893
32.865
32.837
32.811
32.787
32.765
32.745
32.728
32.712
32.698
32.685
32.672
32.661
32.651
32.643
32.639
32.641
32.649
32.669
32.703
32.756
32.833
32.937
33.073
33.244
33.452
33.701
33.991
34.322
34.692
35.098
35.535
35.998
36.479
36.971
37.465
37.954
38.428
38.879
39.3
39.684
40.025
40.32
40.566
40.763
40.909
41.006
41.055
41.06
41.024
40.952
40.849
40.72
40.567
40.394
40.205
40.004
39.794
39.579
39.36
39.14
38.92
38.7
38.482
38.268
38.057
37.85
37.646
37.445
37.247
37.052
36.861
36.667
36.464
36.25
36.03
35.808
35.59
35.381
35.186
35.01
34.853
34.718
34.606
34.515
34.445
34.393
34.358
34.336
34.327
34.329
34.34
34.357
34.381
34.409
34.442
34.477
34.516
34.556
34.598
34.642
34.688
34.735
34.783
34.832
34.881
34.93
34.976
35.021
35.064
35.104
35.143
35.178
35.21
35.237
35.258
35.272
35.28
35.282
35.278
35.269
35.254
35.233
35.207
35.174
35.137
35.094
35.047
34.996
34.94
34.879
34.814
34.746
34.675
34.602
34.528
34.455
34.383
34.312
34.242
34.173
34.108
34.045
33.985
33.929
33.877
33.828
33.782
33.74
33.698
33.658
33.619
33.583
33.549
33.517
33.486
33.456
33.426
33.395
33.363
33.331
33.298
33.266
33.234
33.204
33.174
33.144
33.114
33.084
33.055
33.026
32.999
32.976
32.954
32.935
32.917
32.901
32.885
32.871
32.858
32.845
32.833
32.822
32.813
32.807
32.807
32.815
32.834
32.867
32.918
32.99
33.087
33.213
33.369
33.559
33.784
34.042
34.335
34.662
35.022
35.413
35.83
36.269
36.723
37.184
37.646
38.099
38.536
38.949
39.33
39.673
39.974
40.23
40.439
40.601
40.717
40.787
40.814
40.801
40.751
40.667
40.555
40.419
40.261
40.086
39.894
39.688
39.473
39.25
39.023
38.795
38.568
38.343
38.122
37.906
37.695
37.489
37.289
37.094
36.902
36.714
36.528
36.346
36.167
35.992
35.823
35.658
35.499
35.346
35.198
35.058
34.927
34.804
34.691
34.589
34.5
34.423
34.36
34.311
34.276
34.255
34.25
34.258
34.279
34.311
34.354
34.405
34.464
34.528
34.597
34.669
34.744
34.821
34.897
34.972
35.042
35.109
35.171
35.227
35.276
35.32
35.356
35.385
35.408
35.424
35.434
35.438
35.435
35.426
35.411
35.391
35.364
35.331
35.29
35.242
35.188
35.127
35.061
34.99
34.916
34.839
34.759
34.679
34.599
34.52
34.443
34.37
34.301
34.236
34.175
34.116
34.062
34.01
33.963
33.92
33.88
33.844
33.809
33.776
33.744
33.711
33.679
33.647
33.613
33.579
33.544
33.509
33.475
33.441
33.41
33.38
33.353
33.329
33.307
33.287
33.268
33.249
33.231
33.213
33.194
33.175
33.156
33.137
33.118
33.098
33.077
33.056
33.035
33.016
33.0
32.987
32.979
32.977
32.982
32.996
33.022
33.062
33.12
33.2
33.304
33.435
33.595
33.785
34.008
34.264
34.553
34.874
35.226
35.605
36.006
36.425
36.856
37.291
37.723
38.144
38.546
38.923
39.27
39.582
39.854
40.085
40.271
40.414
40.512
40.569
40.584
40.562
40.506
40.418
