Trial 1:0back
34.933
34.934
34.934
34.933
34.929
34.923
34.915
34.905
34.893
34.881
34.869
34.856
34.845
34.834
34.825
34.816
34.807
34.8
34.794
34.79
34.787
34.787
34.788
34.791
34.794
34.797
34.799
34.801
34.802
34.8
34.796
34.79
34.781
34.771
34.759
34.747
34.734
34.721
34.709
34.697
34.687
34.677
34.67
34.664
34.66
34.657
34.656
34.656
34.657
34.658
34.659
34.659
34.659
34.657
34.654
34.648
34.639
34.628
34.616
34.602
34.589
34.576
34.563
34.551
34.538
34.527
34.515
34.506
34.498
34.492
34.487
34.482
34.478
34.475
34.475
34.477
34.484
34.496
34.515
34.542
34.578
34.625
34.685
34.757
34.841
34.939
35.048
35.167
35.293
35.425
35.56
35.698
35.836
35.972
36.103
36.227
36.34
36.44
36.525
36.596
36.651
36.691
36.717
36.729
36.729
36.718
36.699
36.671
36.638
36.601
36.561
36.521
36.483
36.446
36.412
36.379
36.346
36.315
36.283
36.252
36.22
36.19
36.161
36.133
36.108
36.086
36.068
36.053
36.041
36.033
36.027
36.023
36.02
36.017
36.014
36.009
36.001
35.992
35.98
35.966
35.948
35.926
35.9
35.872
35.84
35.808
35.776
35.745
35.715
35.688
35.665
35.645
35.629
35.616
35.605
35.599
35.595
35.594
35.596
35.598
35.602
35.606
35.611
35.618
35.626
35.634
35.644
35.655
35.667
35.679
35.69
35.7
35.708
35.713
35.715
35.713
35.708
35.7
35.689
35.676
35.661
35.645
35.628
35.61
35.593
35.574
35.554
35.534
35.513
35.492
35.471
35.449
35.428
35.406
35.385
35.365
35.346
35.328
35.312
35.297
35.283
35.269
35.254
35.239
35.223
35.206
35.191
35.177
35.166
35.157
35.15
35.144
35.139
35.136
35.133
35.13
35.126
35.121
35.114
35.106
35.1
35.095
35.092
35.091
35.093
35.098
35.103
35.111
35.121
35.132
35.146
35.164
35.184
35.208
35.237
35.27
35.307
35.347
35.39
35.434
35.479
35.525
35.57
35.613
35.653
35.689
35.721
35.749
35.772
35.792
35.807
35.819
35.828
35.834
35.839
35.841
35.84
35.836
35.83
35.821
35.809
35.792
35.772
35.745
35.711
35.669
35.62
35.566
35.507
35.446
35.382
35.317
35.25
35.184
35.117
35.053
34.991
34.934
34.882
34.835
34.795
34.761
34.733
34.712
34.698
34.69
34.688
34.693
34.702
34.717
34.734
34.755
34.778
34.805
34.834
34.865
34.897
34.929
34.963
34.997
35.033
35.069
35.106
35.14
35.172
35.201
35.227
35.249
35.268
35.283
35.295
35.302
35.304
35.302
35.296
35.288
35.277
35.265
35.253
35.241
35.229
35.217
35.206
35.195
35.186
35.178
35.171
35.166
35.161
35.156
35.151
35.145
35.138
35.131
35.123
35.112
35.097
35.079
35.058
35.034
35.01
34.986
34.964
34.945
34.929
34.914
34.902
34.892
34.884
34.879
34.874
34.871
34.868
34.864
34.86
34.855
34.848
34.84
34.83
34.82
34.81
34.801
34.791
34.781
34.77
34.759
34.748
34.736
34.726
34.716
34.707
34.7
34.694
34.689
34.684
34.68
34.676
34.67
34.663
34.654
34.644
34.633
34.622
34.614
34.608
34.606
34.607
34.612
34.619
34.628
34.637
34.646
34.653
34.66
34.664
34.666
34.666
34.663
34.658
34.65
34.641
34.631
34.621
34.611
34.6
34.588
34.576
34.564
34.553
34.542
34.533
34.525
34.518
34.512
34.507
34.505
34.504
34.505
34.507
34.51
34.513
34.515
34.515
34.514
34.511
34.507
34.502
34.497
34.491
34.486
34.48
34.475
34.469
34.465
34.461
34.458
34.455
34.451
34.447
34.442
34.436
34.431
34.426
34.423
34.42
34.417
34.414
34.411
34.408
34.406
34.404
34.4
34.395
34.388
34.379
34.368
34.357
34.348
34.339
34.331
34.325
34.32
34.317
34.316
34.317
34.319
34.322
34.327
34.332
34.338
34.343
34.349
34.353
34.356
34.358
34.36
34.361
34.362
34.363
34.363
34.363
34.362
34.361
34.361
34.359
34.356
34.35
34.342
34.333
34.323
34.313
34.304
34.294
34.287
34.281
34.279
34.284
34.296
34.321
34.361
34.418
34.496
34.597
34.721
34.867
35.036
35.224
35.428
35.644
35.868
36.095
36.319
36.536
36.741
36.931
37.103
37.255
37.384
37.49
37.573
37.632
37.669
37.685
37.682
37.661
37.627
37.582
37.528
37.47
37.408
37.344
37.28
37.216
37.154
37.093
37.035
36.978
36.925
36.875
36.83
36.789
36.752
36.719
36.691
36.668
36.65
36.636
36.624
36.614
36.605
36.595
36.585
36.575
36.564
36.554
36.542
36.53
36.518
36.505
36.492
36.477
36.462
36.445
36.428
36.411
36.392
36.371
36.35
36.328
36.306
36.284
36.263
36.241
36.219
36.198
36.178
36.159
36.143
36.13
36.122
36.117
36.115
36.117
36.122
36.128
36.135
36.141
36.144
36.145
36.142
36.136
36.127
36.114
36.097
36.078
36.056
36.035
36.014
35.994
35.977
35.962
35.948
35.936
35.924
35.913
35.9
35.887
35.873
35.858
35.84
35.82
35.798
35.774
35.75
35.726
35.702
35.679
35.658
35.638
35.619
35.6
35.581
35.563
35.545
35.527
35.509
35.492
35.475
35.459
35.443
35.427
35.412
35.397
35.383
35.371
35.36
35.35
35.342
35.334
35.328
35.323
35.321
35.319
35.319
35.319
35.317
35.315
35.311
35.306
35.302
35.298
35.296
35.297
35.303
35.314
35.331
35.355
35.385
35.423
35.465
35.513
35.563
35.616
35.669
35.723
35.779
35.835
35.893
35.951
36.009
36.065
36.118
36.167
36.212
36.253
36.289
36.319
36.343
36.361
36.371
36.373
36.367
36.355
36.337
36.314
36.287
36.256
36.222
36.185
36.147
36.107
36.066
36.026
35.986
35.949
35.913
35.878
35.845
35.815
35.785
35.756
35.728
35.699
35.668
35.637
35.602
35.566
35.526
35.484
35.44
35.397
35.356
35.318
35.284
35.256
35.234
35.219
35.211
35.209
35.213
35.223
35.237
35.256
35.278
35.303
35.329
35.356
35.382
35.407
35.432
35.457
35.481
35.504
35.527
35.548
35.568
35.586
35.603
35.618
35.629
35.636
35.637
35.633
35.624
35.609
35.591
35.57
35.545
35.52
35.493
35.467
35.441
35.417
35.394
35.373
35.355
35.337
35.321
35.305
35.288
35.27
35.251
35.231
35.21
35.189
35.169
35.149
35.13
35.111
35.093
35.075
35.059
35.045
35.032
35.02
35.009
34.999
34.991
34.986
34.982
34.98
34.979
34.978
34.977
34.976
34.973
34.968
34.962
34.952
34.94
34.926
34.91
34.894
34.88
34.868
34.86
34.855
34.852
34.851
34.85
34.849
34.848
34.846
34.844
34.842
34.841
34.839
34.839
34.838
34.838
34.838
34.838
34.837
34.835
34.832
34.826
34.817
34.807
34.797
34.788
34.781
34.776
34.772
34.77
34.768
34.767
34.765
34.764
34.761
34.757
34.752
34.746
34.74
34.734
34.729
34.723
34.719
34.714
34.71
34.706
34.703
34.699
34.696
34.692
34.686
34.68
34.674
34.666
34.657
34.647
34.636
34.625
34.613
34.599
34.585
34.571
34.558
34.545
34.533
34.524
34.519
34.517
34.518
34.524
34.531
34.539
34.548
34.556
34.563
34.569
34.574
34.577
34.578
34.577
34.574
34.569
34.562
34.554
34.544
34.534
34.522
34.511
34.499
34.489
34.479
34.472
34.466
34.462
34.459
34.457
34.457
34.458
34.462
34.467
34.473
34.479
34.485
34.489
34.491
34.491
34.49
34.488
34.485
34.481
34.475
34.466
34.456
34.443
34.43
34.417
34.404
34.392
34.381
34.37
34.362
34.357
34.354
34.355
34.359
34.364
34.369
34.375
34.379
34.382
34.384
34.384
34.383
34.382
34.381
34.381
34.385
34.393
34.41
34.439
34.482
34.543
34.622
34.723
34.843
34.985
35.145
35.323
35.516
35.719
35.93
36.144
36.357
36.565
36.763
36.948
37.116
37.264
37.389
37.492
37.571
37.628
37.663
37.678
37.675
37.658
37.628
37.588
37.541
37.488
37.431
37.372
37.312
37.252
37.193
37.136
37.08
37.027
36.976
36.929
36.886
36.846
36.809
36.777
36.75
36.727
36.708
36.693
36.681
36.671
36.663
36.656
36.647
36.638
36.627
36.615
36.603
36.591
36.578
36.565
36.551
36.537
36.522
36.507
36.492
36.477
36.459
36.439
36.416
36.39
36.361
36.33
36.298
36.267
36.239
36.216
36.198
36.185
36.178
36.176
36.177
36.183
36.19
36.199
36.209
36.218
36.226
36.233
36.238
36.242
36.244
36.244
36.241
36.234
36.223
36.209
36.191
36.17
36.148
36.126
36.106
36.087
36.068
36.05
36.032
36.015
35.999
35.984
35.968
35.953
35.936
35.919
35.901
35.883
35.865
35.849
35.836
35.824
35.815
35.807
35.799
35.79
35.779
35.767
35.753
35.738
35.721
35.703
35.685
35.666
35.647
35.629
35.613
35.597
35.584
35.571
35.56
35.55
35.542
35.535
35.529
35.522
35.514
35.505
35.493
35.479
35.464
35.449
35.433
35.418
35.405
35.394
35.384
35.377
35.372
35.367
35.363
35.357
35.349
35.337
35.324
35.309
35.293
35.279
35.266
35.256
35.248
35.244
35.242
35.242
35.244
35.248
35.251
35.253
35.254
35.254
35.251
35.247
35.242
35.235
35.226
35.214
35.201
35.187
35.171
35.155
35.139
35.124
35.11
35.099
35.09
35.085
35.082
35.081
35.083
35.086
35.089
35.091
35.092
35.09
35.085
35.078
35.068
35.056
35.043
35.028
35.012
34.994
34.975
34.957
34.94
34.925
34.913
34.903
34.896
34.89
34.885
34.882
34.88
34.879
34.878
34.876
34.873
34.87
34.866
34.863
34.861
34.862
34.863
34.864
34.866
34.866
34.865
34.862
34.858
34.854
34.849
34.845
34.841
34.837
34.833
34.83
34.826
34.822
34.818
34.812
34.805
34.798
34.788
34.777
34.764
34.751
34.737
34.724
34.712
34.702
34.697
34.696
34.701
34.714
34.736
34.768
34.81
34.863
34.928
35.007
35.098
35.202
35.318
35.445
35.581
35.725
35.875
36.026
36.176
36.32
36.456
36.583
36.698
36.802
36.892
36.969
37.033
37.084
37.122
37.149
37.164
37.169
37.165
37.154
37.136
37.113
37.083
37.049
37.011
36.97
36.928
36.887
36.848
36.812
36.78
36.752
36.727
36.707
36.69
36.676
36.665
36.656
36.649
36.643
36.639
36.635
36.632
36.631
36.63
36.63
36.63
36.63
36.628
36.625
36.618
36.609
36.596
36.581
36.563
36.541
36.515
36.485
36.451
36.413
36.373
36.332
36.291
36.253
36.218
36.187
36.161
36.14
36.124
36.113
36.107
36.106
36.109
36.115
36.121
36.128
36.134
36.139
36.144
36.149
36.154
36.159
36.163
36.166
36.167
36.166
36.164
36.161
36.158
36.154
36.15
36.144
36.137
36.128
36.117
36.105
36.09
36.074
36.056
36.036
36.014
35.991
35.968
35.944
35.921
35.899
35.879
35.86
35.844
35.829
35.816
35.804
35.793
35.783
35.772
35.761
35.75
35.738
35.725
35.711
35.698
35.685
35.673
35.661
35.651
35.642
35.633
35.622
35.611
35.599
35.586
35.574
35.563
35.553
35.545
35.539
35.533
35.529
35.523
35.517
35.51
35.502
35.493
35.483
35.473
35.462
35.451
35.44
35.43
35.421
35.414
35.409
35.405
35.402
35.399
35.395
35.389
35.383
35.376
35.368
35.359
35.35
35.34
35.328
35.315
35.301
35.285
35.27
35.256
35.243
35.231
35.221
35.212
35.204
35.199
35.198
35.2
35.206
35.214
35.223
35.231
35.237
35.24
35.241
35.237
35.23
35.218
35.203
35.185
35.166
35.146
35.128
35.112
35.099
35.089
35.081
35.075
35.07
35.067
35.064
35.061
35.057
35.051
35.044
35.036
35.027
35.015
35.002
34.988
34.974
34.958
34.942
34.927
34.911
34.897
34.885
34.874
34.866
34.86
34.858
34.857
34.859
34.863
34.868
34.875
34.882
34.887
34.892
34.894
34.894
34.893
34.89
34.885
34.878
34.869
34.858
34.846
34.834
34.82
34.806
34.79
34.774
34.758
34.742
34.727
34.714
34.703
34.693
34.686
34.68
34.677
34.676
34.679
34.687
34.7
34.721
34.751
34.792
34.845
34.912
34.992
35.086
35.192
35.309
35.435
35.569
35.707
35.848
35.99
36.129
36.263
36.388
36.504
36.607
36.696
36.772
36.834
36.883
36.919
36.944
36.959
36.965
36.962
36.953
36.938
36.919
36.895
36.868
36.839
36.807
36.773
36.739
36.705
36.672
36.643
36.616
36.593
36.574
36.557
36.545
36.536
36.531
36.529
36.532
36.536
36.541
36.547
36.552
36.555
36.556
36.555
36.551
36.544
36.534
36.52
36.502
36.48
36.454
36.427
36.4
36.374
36.348
36.322
36.294
36.266
36.238
36.211
36.188
36.167
36.151
36.137
36.126
36.116
36.109
36.102
36.097
36.093
36.09
36.086
36.084
36.081
36.08
36.079
36.079
36.079
36.079
36.079
36.078
36.076
36.074
36.069
36.062
36.054
36.046
36.036
36.027
36.017
36.007
35.995
35.982
35.967
35.949
35.928
35.904
35.877
35.848
35.82
35.792
35.765
35.741
35.718
35.698
35.681
35.668
35.658
35.652
35.648
35.646
35.644
35.642
35.64
35.637
35.633
35.627
35.619
35.61
35.599
35.586
35.572
35.557
35.541
35.525
35.508
35.492
35.476
35.46
35.445
35.43
35.417
35.406
35.397
35.39
35.385
35.381
35.377
35.375
35.373
35.374
35.378
35.384
35.391
35.4
35.41
35.421
35.435
35.451
35.468
35.489
35.512
35.538
35.565
35.594
35.623
35.654
35.686
35.721
35.757
35.795
35.834
35.872
35.911
35.947
35.981
36.012
36.038
36.06
36.075
36.084
36.086
36.081
36.072
36.057
36.037
36.014
35.988
35.96
35.93
35.9
35.868
35.836
35.802
35.767
35.731
35.694
35.655
35.615
35.574
35.531
35.488
35.444
35.4
35.356
35.314
35.273
35.234
35.2
35.17
35.147
35.13
35.121
35.117
35.119
35.126
35.139
35.157
35.179
35.205
35.235
35.267
35.301
35.336
35.37
35.402
35.432
35.46
35.484
35.506
35.524
35.538
35.546
35.55
35.548
35.542
35.533
35.522
35.509
35.495
35.478
35.461
35.442
35.422
35.403
35.384
35.364
35.344
35.324
35.304
35.283
35.264
35.246
35.23
35.216
35.204
35.195
35.187
35.179
35.17
35.16
35.149
35.137
35.124
35.109
35.094
35.079
35.064
35.051
35.041
35.032
35.027
35.023
35.021
35.02
35.019
35.018
35.018
35.017
35.016
35.014
35.011
35.006
35.0
34.995
34.989
34.983
34.977
34.969
34.96
34.952
34.944
34.937
34.93
34.925
34.919
34.915
34.912
34.912
34.914
34.918
34.924
34.931
34.937
34.942
34.946
34.948
34.947
34.943
34.936
34.925
34.911
34.894
34.875
34.854
34.832
34.809
34.788
34.768
34.751
34.736
34.724
34.714
34.705
34.699
34.695
34.692
34.69
34.689
34.69
34.693
34.697
34.702
34.709
34.717
34.723
34.728
34.729
34.727
34.718
34.705
34.687
34.667
34.647
34.626
34.608
34.593
34.582
34.574
34.571
34.57
34.571
34.573
34.574
34.575
34.575
34.574
34.573
34.571
34.569
34.565
34.561
34.554
34.546
34.536
34.524
34.51
34.496
34.482
34.469
34.457
34.446
34.438
34.432
34.427
34.423
34.42
34.417
34.414
34.409
34.403
34.397
34.39
34.384
34.379
34.374
34.369
34.363
34.357
34.351
34.345
34.34
34.337
34.334
34.332
34.332
34.334
34.338
34.344
34.351
34.358
34.364
34.369
34.373
34.376
34.378
34.38
34.382
34.383
34.384
34.386
34.388
34.39
34.393
34.396
34.398
34.398
34.397
34.393
34.387
34.379
34.369
34.358
34.346
34.335
34.323
34.312
34.3
34.288
34.276
34.263
34.25
34.239
34.229
34.222
34.218
34.218
34.224
34.239
34.264
34.303
34.357
34.429
34.518
34.627
34.754
34.897
35.053
35.22
35.395
35.573
35.751
35.926
36.095
36.255
36.404
36.54
36.662
36.768
36.857
36.931
36.989
37.032
37.062
37.078
37.082
37.075
37.058
37.032
36.998
36.959
36.914
36.865
36.814
36.763
36.714
36.669
36.63
36.596
36.568
36.545
36.527
36.514
36.504
36.498
36.495
36.495
36.497
36.501
36.505
36.51
36.515
36.519
36.523
36.525
36.525
36.522
36.516
36.505
36.49
36.471
36.449
36.425
36.4
36.373
36.343
36.31
36.275
36.238
36.201
36.164
36.128
36.094
36.061
36.032
36.005
35.981
35.96
35.942
35.928
35.918
35.912
35.91
35.91
35.912
35.914
35.918
35.924
35.93
35.936
35.942
35.947
35.949
35.949
35.947
35.941
35.932
35.921
35.906
35.888
35.868
35.848
35.828
35.809
35.792
35.776
35.762
35.75
35.74
35.731
35.722
35.715
35.707
35.701
35.695
35.689
35.683
35.676
35.668
35.658
35.646
35.632
35.614
35.594
35.572
35.55
35.527
35.506
35.487
35.469
35.453
35.439
35.428
35.419
35.413
35.408
35.404
35.401
35.398
35.395
35.392
35.387
35.381
35.373
35.362
35.348
35.333
35.316
35.3
35.285
35.272
35.26
35.251
35.243
35.236
35.231
35.228
35.224
35.221
35.218
35.214
35.208
35.201
35.19
35.178
35.162
35.145
35.126
35.107
35.088
35.071
35.056
35.044
35.036
35.031
35.03
35.032
35.035
35.04
35.046
35.053
35.061
35.067
35.071
35.072
35.068
35.06
35.048
35.034
35.019
35.002
34.984
34.965
34.945
34.924
34.903
34.883
34.863
34.844
34.828
34.814
34.803
34.795
34.79
34.786
34.782
34.778
34.775
34.772
34.768
34.765
34.761
34.757
34.753
34.749
34.746
34.743
34.741
34.738
34.736
34.732
34.726
34.717
34.707
34.694
34.679
34.664
34.649
34.635
34.624
34.615
34.608
34.603
34.6
34.597
34.595
34.594
34.593
34.591
34.589
34.586
34.584
34.583
34.582
34.583
34.584
34.584
34.582
34.579
34.574
34.566
34.554
34.539
34.521
34.5
34.478
34.456
34.436
34.417
34.401
34.386
34.373
34.361
34.352
34.347
34.344
34.346
34.351
34.361
34.377
34.4
34.431
34.471
34.522
34.583
34.656
34.741
34.837
34.943
35.059
35.182
35.311
35.443
35.575
35.705
35.829
35.945
36.052
36.147
36.23
36.301
36.359
36.404
36.436
36.457
36.467
36.468
36.462
36.45
36.434
36.412
36.388
36.361
36.332
36.302
36.272
36.242
36.213
36.186
36.16
36.135
36.111
36.089
36.07
36.054
36.043
36.035
36.031
36.03
36.032
36.035
36.037
36.04
36.041
36.042
36.04
36.037
36.033
36.027
36.02
36.011
36.001
35.987
35.97
35.949
35.924
35.895
35.862
35.826
35.789
35.752
35.716
35.683
35.655
35.631
35.613
35.601
35.593
35.588
35.586
35.586
35.589
35.591
35.594
35.595
35.596
35.597
35.598
35.599
35.602
35.604
35.607
35.61
35.613
35.616
35.619
35.622
35.624
35.626
35.628
35.629
35.63
35.63
35.63
35.627
35.622
35.615
35.606
35.593
35.576
35.555
35.531
35.505
35.478
35.452
35.426
35.403
35.382
35.363
35.345
35.33
35.317
35.307
35.299
35.291
35.285
35.277
35.268
35.256
35.243
35.229
35.214
35.2
35.187
35.175
35.164
35.154
35.144
35.133
35.123
35.114
35.105
35.097
35.091
35.086
35.082
35.08
35.079
35.08
35.082
35.083
35.083
35.082
35.081
35.08
35.08
35.081
35.083
35.087
35.09
35.092
35.092
35.09
35.086
35.079
35.068
35.054
35.037
35.018
34.999
34.98
34.962
34.945
34.929
34.916
34.904
34.895
34.887
34.881
34.876
34.87
34.864
34.857
34.85
34.842
34.834
34.826
34.817
34.807
34.797
34.786
34.775
34.764
34.752
34.741
34.73
34.722
34.715
34.712
34.711
34.712
34.714
34.716
34.717
34.716
34.713
34.707
34.699
34.688
34.676
34.663
34.65
34.636
34.622
34.61
34.6
34.591
34.585
34.582
34.58
34.581
34.582
34.585
34.588
34.59
34.59
34.588
34.584
34.578
34.569
34.56
34.551
34.543
34.536
34.53
34.524
34.518
34.514
34.509
34.505
34.499
34.491
34.481
34.468
34.452
34.436
34.42
34.405
34.392
34.38
34.371
34.364
34.359
34.357
34.358
34.361
34.367
34.377
34.39
34.407
34.429
34.458
34.494
34.537
34.588
34.648
34.716
34.793
34.876
34.968
35.065
35.167
35.273
35.38
35.488
35.596
35.702
35.804
35.901
35.991
36.071
36.141
36.199
36.244
36.276
36.296
36.304
36.303
36.292
36.274
36.249
36.22
36.187
36.153
36.117
36.081
36.046
36.011
35.978
35.947
35.918
35.893
35.87
35.85
35.833
35.819
35.81
35.804
35.802
35.801
35.801
35.8
35.797
35.792
35.787
35.78
35.773
35.765
35.757
35.749
35.739
35.728
35.715
35.7
35.682
35.662
35.639
35.613
35.587
35.56
35.533
35.51
35.491
35.476
35.465
35.459
35.456
35.456
35.458
35.461
35.465
35.471
35.476
35.481
35.485
35.487
35.488
35.487
35.485
35.484
35.483
35.483
35.484
35.485
35.487
35.488
35.488
35.487
35.486
35.484
35.48
35.474
35.466
35.457
35.446
35.433
35.42
35.407
35.393
35.379
35.366
35.353
35.341
35.331
35.321
35.312
35.303
35.293
35.283
35.272
35.262
35.251
35.239
35.224
35.208
35.19
35.169
35.148
35.128
