Trial 1:0back
31.574
31.712
31.895
32.133
32.434
32.803
33.245
33.762
34.35
35.007
35.724
36.488
37.287
38.103
38.919
39.719
40.486
41.205
41.86
42.442
42.943
43.357
43.682
43.916
44.063
44.127
44.118
44.043
43.911
43.731
43.514
43.266
42.996
42.709
42.413
42.108
41.8
41.489
41.177
40.865
40.554
40.244
39.936
39.631
39.329
39.031
38.735
38.442
38.152
37.865
37.582
37.302
37.028
36.759
36.497
36.24
35.989
35.746
35.51
35.283
35.064
34.853
34.652
34.462
34.283
34.116
33.965
33.83
33.712
33.612
33.531
33.47
33.428
33.406
33.403
33.42
33.456
33.511
33.584
33.675
33.781
33.902
34.036
34.181
34.336
34.498
34.665
34.833
35.001
35.167
35.33
35.488
35.64
35.783
35.916
36.036
36.142
36.231
36.302
36.353
36.385
36.397
36.388
36.36
36.312
36.247
36.165
36.067
35.956
35.835
35.706
35.572
35.435
35.296
35.157
35.018
34.878
34.738
34.597
34.458
34.321
34.188
34.06
33.936
33.815
33.698
33.584
33.472
33.361
33.251
33.143
33.037
32.932
32.829
32.729
32.631
32.536
32.444
32.356
32.273
32.195
32.121
32.052
31.989
31.932
31.88
31.835
31.794
31.756
31.722
31.689
31.658
31.628
31.598
31.568
31.537
31.505
31.473
31.44
31.408
31.379
31.352
31.329
31.31
31.294
31.282
31.273
31.266
31.262
31.26
31.259
31.26
31.261
31.266
31.273
31.285
31.302
31.327
31.363
31.414
31.486
31.583
31.714
31.884
32.101
32.373
32.707
33.109
33.581
34.124
34.735
35.408
36.134
36.901
37.693
38.497
39.294
40.07
40.807
41.492
42.112
42.657
43.119
43.494
43.78
43.978
44.092
44.127
44.09
43.991
43.837
43.639
43.404
43.141
42.855
42.553
42.24
41.923
41.604
41.285
40.968
40.655
40.345
40.039
39.736
39.436
39.139
38.846
38.555
38.268
37.984
37.703
37.424
37.149
36.877
36.609
36.345
36.084
35.828
35.576
35.328
35.087
34.853
34.628
34.414
34.211
34.022
33.846
33.687
33.545
33.422
33.32
33.24
33.185
33.154
33.149
33.169
33.213
33.279
33.366
33.471
33.593
33.73
33.881
34.044
34.217
34.397
34.583
34.77
34.956
35.137
35.311
35.474
35.624
35.76
35.88
35.983
36.067
36.133
36.18
36.209
36.221
36.216
36.196
36.163
36.117
36.059
35.989
35.907
35.813
35.708
35.593
35.469
35.338
35.2
35.057
34.912
34.767
34.624
34.484
34.348
34.216
34.088
33.964
33.845
33.729
33.617
33.509
33.402
33.297
33.192
33.087
32.982
32.877
32.772
32.667
32.565
32.465
32.368
32.273
32.182
32.095
32.012
31.932
31.857
31.787
31.723
31.666
31.617
31.575
31.54
31.511
31.487
31.466
31.447
31.428
31.407
31.382
31.355
31.324
31.289
31.25
31.209
31.168
31.129
31.094
31.064
31.042
31.028
31.021
31.022
31.03
31.046
31.069
31.102
31.148
31.212
31.297
31.411
31.561
31.755
32.002
32.311
32.689
33.14
33.666
34.266
34.934
35.663
36.44
37.251
38.08
38.909
39.722
40.502
41.234
41.905
42.504
43.024
43.458
43.805
44.065
44.241
44.335
44.355
44.307
44.199
44.04
43.838
43.605
43.349
43.077
42.794
42.503
42.206
41.905
41.599
41.29
40.979
40.666
40.351
40.037
39.723
39.411
39.1
38.792
38.488
38.188
37.895
37.609
37.331
37.061
36.798
36.543
36.295
36.054
35.82
35.593
35.374
35.162
34.959
34.764
34.579
34.404
34.239
34.084
33.942
33.812
33.698
33.6
33.519
33.458
33.412
33.378
33.355
33.345
33.35
33.373
33.418
33.486
33.578
33.694
33.833
33.992
34.167
34.356
34.553
34.757
34.962
35.165
35.363
35.552
35.728
35.888
36.028
36.147
36.243
36.315
36.363
36.388
36.389
36.369
36.327
36.265
36.186
36.091
35.983
35.863
35.733
35.595
35.451
35.301
35.149
34.996
34.842
34.69
34.539
34.391
34.246
34.103
33.962
33.824
33.689
33.556
33.427
33.301
33.179
33.06
32.944
32.833
32.724
32.619
32.518
32.42
32.325
32.232
32.142
32.054
31.969
31.886
31.807
31.732
31.661
31.595
31.534
31.48
31.431
31.388
31.35
31.316
31.286
31.259
31.235
31.213
31.194
31.177
31.162
31.148
31.135
31.122
31.11
31.096
31.082
31.067
31.05
31.033
31.015
30.997
30.979
30.963
30.951
30.945
30.948
30.963
30.994
31.046
31.124
31.233
31.381
31.574
31.819
32.123
32.492
32.93
33.439
34.019
34.667
35.376
36.138
36.938
37.764
38.6
39.428
40.232
40.996
41.707
42.352
42.922
43.41
43.812
44.126
44.353
44.495
44.557
44.545
44.466
44.33
44.145
43.919
43.662
43.38
43.08
42.768
42.448
42.124
41.8
41.48
41.165
40.855
40.553
40.257
39.966
39.68
39.398
39.119
38.842
38.568
38.295
38.024
37.756
37.49
37.226
36.964
36.706
36.454
36.207
35.968
35.736
35.513
35.3
35.097
34.908
34.733
34.573
34.428
34.299
34.185
34.087
34.004
33.935
33.882
33.845
33.823
33.818
33.829
33.856
33.898
33.953
34.023
34.107
34.204
34.315
34.438
34.572
34.714
34.863
35.017
35.172
35.326
35.474
35.615
35.744
35.86
35.962
36.048
36.118
36.172
36.209
36.231
36.238
36.229
36.205
36.168
36.118
36.056
35.984
35.901
35.81
35.711
35.603
35.488
35.365
35.235
35.099
34.957
34.81
34.658
34.504
34.349
34.194
34.04
33.89
33.743
33.6
33.463
33.333
33.209
33.092
32.981
32.874
32.772
32.672
32.574
32.477
32.381
32.287
32.193
32.102
32.014
31.929
31.848
31.77
31.697
31.627
31.562
31.5
31.443
31.39
31.342
31.299
31.261
31.229
31.202
31.181
31.165
31.154
31.145
31.139
31.135
31.133
31.131
31.129
31.128
31.127
31.126
31.128
31.131
31.136
31.145
31.155
31.168
31.181
31.196
31.211
31.225
31.24
31.253
31.267
31.283
31.302
31.327
31.363
31.415
31.49
31.596
31.741
31.935
32.186
32.502
32.889
33.351
33.89
34.503
35.186
35.929
36.72
37.542
38.379
39.213
40.025
40.8
41.523
42.181
42.766
43.27
43.688
44.02
44.264
44.423
44.503
44.507
44.444
44.323
44.151
43.939
43.694
43.424
43.134
42.83
42.517
42.2
41.882
41.565
41.251
40.941
40.636
40.336
40.042
39.752
39.467
39.185
38.907
38.631
38.357
38.086
37.816
37.547
37.28
37.014
36.75
36.488
36.229
35.974
35.725
35.481
35.246
35.019
34.803
34.6
34.411
34.237
34.079
33.938
33.816
33.713
33.631
33.568
33.526
33.504
33.501
33.518
33.553
33.605
33.676
33.762
33.863
33.976
34.1
34.233
34.375
34.525
34.68
34.84
35.001
35.162
35.318
35.469
35.612
35.743
35.863
35.968
36.057
36.13
36.185
36.221
36.239
36.238
36.219
36.184
36.133
36.069
35.993
35.904
35.806
35.7
35.586
35.467
35.341
35.21
35.074
34.934
34.789
34.642
34.493
34.344
34.195
34.049
33.907
33.771
33.642
33.52
33.404
33.294
33.189
33.087
32.988
32.891
32.796
32.7
32.604
32.507
32.41
32.313
32.215
32.118
32.021
31.927
31.835
31.747
31.664
31.586
31.514
31.45
31.391
31.339
31.294
31.255
31.222
31.195
31.173
31.155
31.14
31.127
31.115
31.103
31.09
31.076
31.06
31.043
31.026
31.008
30.992
30.978
30.966
30.957
30.95
30.947
30.945
30.946
30.949
30.956
30.967
30.981
31.001
31.024
31.053
31.087
31.129
31.179
31.241
31.319
31.416
31.54
31.698
31.897
32.148
32.459
32.837
33.289
33.815
34.417
35.088
35.82
36.602
37.419
38.253
39.088
39.906
40.689
41.423
42.093
42.691
43.207
43.637
43.978
44.23
44.395
44.477
44.483
44.42
44.297
44.123
43.907
43.658
43.382
43.088
42.779
42.461
42.137
41.809
41.478
41.147
40.815
40.483
40.154
39.828
39.505
39.188
38.874
38.566
38.261
37.961
37.666
37.376
37.091
36.812
36.539
36.27
36.008
35.751
35.501
35.259
35.026
34.804
34.592
34.392
34.204
34.03
33.87
33.726
33.597
33.484
33.388
33.31
33.249
33.206
33.184
33.183
33.203
33.245
33.308
33.394
33.502
33.631
33.781
33.95
34.135
34.334
34.545
34.765
34.989
35.212
35.431
35.642
35.84
36.024
36.19
36.337
36.463
36.565
36.645
36.701
36.733
36.742
36.729
36.696
36.644
36.575
36.492
36.395
36.287
36.168
36.04
35.904
35.76
35.609
35.452
35.289
35.123
34.955
34.787
34.62
34.457
34.298
34.145
33.998
33.856
33.72
33.589
33.464
33.342
33.226
33.113
33.004
32.897
32.793
32.692
32.593
32.497
32.404
32.313
32.225
32.14
32.055
31.973
31.891
31.811
31.732
31.656
31.581
31.509
31.441
31.378
31.321
31.271
31.228
31.193
31.165
31.145
31.134
31.128
31.128
31.131
31.136
31.141
31.145
31.149
31.151
31.15
31.149
31.145
31.14
31.134
31.128
31.125
31.126
31.135
31.156
31.192
31.248
31.331
31.447
31.605
31.811
32.075
32.403
32.803
33.277
33.826
34.449
35.138
35.887
36.681
37.506
38.345
39.18
39.992
40.767
41.488
42.143
42.723
43.22
43.63
43.951
44.183
44.33
44.397
44.39
44.318
44.188
44.009
43.79
43.539
43.262
42.967
42.658
42.341
42.019
41.695
41.373
41.054
40.738
40.428
40.122
39.82
39.521
39.225
38.93
38.638
38.348
38.058
37.77
37.482
37.194
36.907
36.622
36.339
36.058
35.781
35.508
35.24
34.978
34.724
34.478
34.244
34.024
33.819
33.632
33.466
33.32
33.198
33.099
33.025
32.975
32.95
32.951
32.977
33.027
33.1
33.196
33.312
33.446
33.596
33.759
33.934
34.117
34.305
34.497
34.688
34.877
35.061
35.238
35.405
35.561
35.705
35.834
35.948
36.045
36.127
36.191
36.236
36.262
36.269
36.257
36.227
36.18
36.119
36.044
35.958
35.861
35.755
35.641
35.522
35.399
35.274
35.146
35.018
34.888
34.758
34.627
34.495
34.362
34.226
34.089
33.95
33.809
33.667
33.523
33.38
33.237
33.097
32.962
32.831
32.707
32.59
32.481
32.38
32.284
32.193
32.104
32.019
31.939
31.863
31.793
31.727
31.665
31.608
31.554
31.505
31.459
31.417
31.378
31.343
31.31
31.281
31.254
31.23
31.206
31.183
31.159
31.134
31.108
31.081
31.053
31.023
30.992
30.961
30.93
30.901
30.875
30.851
30.833
30.819
30.813
30.816
30.832
30.868
30.927
31.016
31.142
31.312
31.534
31.817
32.166
32.586
33.081
33.651
34.294
35.003
35.77
36.581
37.422
38.276
39.127
39.957
40.75
41.491
42.168
42.77
43.289
43.72
44.061
44.314
44.48
44.566
44.578
44.522
44.409
44.244
44.037
43.795
43.526
43.236
42.931
42.618
42.3
41.982
41.665
41.351
41.041
40.736
40.435
40.138
39.844
39.553
39.264
38.977
38.692
38.409
38.129
37.855
37.585
37.321
37.063
36.811
36.565
36.324
36.089
35.858
35.633
35.413
35.199
34.991
34.791
34.601
34.423
34.26
34.112
33.982
33.87
33.777
33.704
33.652
33.622
33.613
33.627
33.663
33.719
33.795
33.891
34.005
34.135
34.279
34.434
34.597
34.767
34.941
35.116
35.29
35.461
35.626
35.783
35.929
36.063
36.182
36.286
36.374
36.445
36.498
36.532
36.547
36.543
36.52
36.479
36.423
36.351
36.265
36.167
36.057
35.938
35.81
35.676
35.536
35.391
35.244
35.094
34.944
34.792
34.64
34.49
34.341
34.194
34.051
33.912
33.777
33.644
33.516
33.39
33.268
33.15
33.036
32.926
32.819
32.714
32.613
32.516
32.422
32.331
32.244
32.16
32.079
32.001
31.925
31.853
31.784
31.718
31.654
31.592
31.532
31.476
31.425
31.378
31.337
31.301
31.271
31.246
31.225
31.208
31.194
31.183
31.173
31.165
31.157
31.15
31.144
31.139
31.136
31.136
31.138
31.143
31.15
31.158
31.169
31.181
31.194
31.21
31.23
31.257
31.294
31.345
31.414
31.507
31.632
31.795
32.006
32.272
32.602
33.0
33.471
34.016
34.634
35.32
36.063
36.853
37.676
38.515
39.355
40.176
40.961
41.695
42.364
42.958
43.468
43.891
44.224
44.469
44.629
44.708
44.712
44.65
44.53
44.359
44.146
43.899
43.625
43.331
43.022
42.702
42.377
42.049
41.72
41.394
41.071
40.753
40.441
40.135
39.835
39.541
39.254
38.972
38.695
38.421
38.152
37.885
37.62
37.358
37.097
36.838
36.582
36.329
36.08
35.837
35.6
35.373
35.157
34.951
34.758
34.577
34.41
34.257
34.12
33.999
33.897
33.813
33.75
33.707
33.685
33.683
33.7
33.738
33.794
33.869
33.96
34.068
34.19
34.324
34.469
34.623
34.784
34.948
35.112
35.275
35.433
35.583
35.723
35.85
35.963
36.061
36.142
36.206
36.254
36.286
36.302
36.304
36.292
36.265
36.225
36.171
36.103
36.022
35.928
35.823
35.71
35.59
35.465
35.338
35.208
35.077
34.946
34.816
34.687
34.558
34.431
34.304
34.177
34.05
33.924
33.799
33.674
33.549
33.424
33.299
33.174
33.051
32.931
32.814
32.7
32.59
32.484
32.382
32.287
32.196
32.11
32.029
31.953
31.882
31.816
31.756
31.701
31.651
31.604
31.56
31.519
31.479
31.44
31.402
31.364
31.328
31.292
31.257
31.225
31.196
31.17
31.148
31.129
31.115
31.104
31.097
31.092
31.09
31.09
31.091
31.092
31.092
31.091
31.09
31.089
31.087
31.085
31.085
31.089
31.101
31.123
31.162
31.223
31.311
31.436
31.603
31.821
32.097
32.439
32.852
33.337
33.895
34.523
35.213
35.957
36.742
37.552
38.374
39.19
39.984
40.742
41.448
42.089
42.655
43.138
43.536
43.847
44.073
44.217
44.287
44.288
44.229
44.117
43.961
43.769
43.547
43.302
43.039
42.763
42.478
42.187
41.892
41.596
41.298
41.002
40.707
40.413
40.12
39.829
39.538
39.249
38.962
38.677
38.393
38.112
37.835
37.562
37.293
37.028
36.768
36.513
36.263
36.019
35.781
35.55
35.325
35.107
34.897
34.697
34.51
34.336
34.176
34.032
33.903
33.791
33.696
33.618
33.558
33.516
33.493
33.489
33.505
33.542
33.599
33.677
33.775
33.893
34.028
34.179
34.343
34.516
34.696
34.878
35.059
35.237
35.407
35.567
35.716
35.85
35.97
36.074
36.161
36.23
36.28
36.311
36.324
36.318
36.295
36.254
36.198
36.128
36.046
35.952
35.848
35.735
35.613
35.485
35.35
35.209
35.064
34.914
34.761
34.606
34.451
34.297
34.147
34.0
33.858
33.72
33.587
33.459
33.336
33.219
33.107
32.999
32.896
32.796
32.699
32.603
32.509
32.415
32.321
32.227
32.134
32.042
31.951
31.864
31.78
31.699
31.622
31.549
31.481
31.419
31.363
31.314
31.272
31.237
31.208
31.187
31.171
31.161
31.156
31.155
31.157
31.162
31.17
31.179
31.19
31.2
31.209
31.215
31.218
31.218
31.215
31.209
31.2
31.19
31.179
31.169
31.16
31.154
31.151
31.149
31.15
31.154
31.16
31.169
31.181
31.199
31.224
31.26
31.311
31.381
31.476
31.603
31.77
31.985
32.256
32.59
32.992
33.467
34.015
34.634
35.318
36.06
36.847
37.666
38.5
39.332
40.144
40.92
41.642
42.297
42.876
43.371
43.778
44.095
44.323
44.465
44.527
44.515
44.437
44.301
44.117
43.893
43.637
43.356
43.057
42.745
42.426
42.104
41.781
41.46
41.143
40.83
40.523
40.221
39.925
39.634
39.348
39.067
38.79
38.518
38.249
37.984
37.721
37.459
37.198
36.938
36.679
36.422
36.168
35.918
35.673
35.436
35.207
34.989
34.783
34.59
34.411
34.247
34.096
33.96
33.841
33.738
33.654
33.589
33.544
33.521
33.519
33.538
33.576
33.634
33.709
33.802
33.909
34.032
34.169
34.317
34.476
34.643
34.817
34.995
35.173
35.348
35.517
35.678
35.826
35.961
36.079
36.18
36.262
36.326
36.37
36.397
36.406
36.397
36.372
36.332
36.277
36.21
36.131
36.042
35.944
35.838
35.726
35.609
35.486
35.359
35.228
35.093
34.955
34.815
34.674
34.531
34.388
34.245
34.105
33.967
33.832
33.699
33.569
33.442
33.319
33.199
33.083
32.972
32.864
32.759
32.657
32.557
32.459
32.363
32.269
32.176
32.086
31.997
31.912
31.829
31.75
31.675
31.605
31.54
31.482
31.428
31.381
31.338
31.301
31.268
31.239
31.211
31.186
31.164
31.144
31.128
31.115
31.106
31.101
31.1
31.102
31.106
31.111
31.118
31.125
31.132
31.14
31.147
31.155
31.163
31.172
31.181
31.19
31.198
31.206
31.214
31.221
31.227
31.234
31.246
31.266
31.299
31.351
31.431
31.548
31.711
31.93
32.212
32.565
32.992
33.496
34.073
34.72
35.427
36.185
36.979
37.794
38.615
39.424
40.206
40.947
41.632
42.251
42.794
43.255
43.63
43.919
44.122
44.242
44.286
44.261
44.173
44.033
43.848
43.627
43.377
43.105
42.816
42.516
42.208
41.896
41.58
41.264
40.949
40.635
40.323
40.013
39.703
39.393
39.081
38.77
38.458
38.148
37.839
37.532
37.229
36.929
36.634
36.345
36.063
35.789
35.524
35.268
35.023
34.788
34.563
34.349
34.146
33.953
33.772
33.605
33.452
33.316
33.196
33.095
33.015
32.957
32.922
32.912
32.927
32.967
33.032
33.122
33.235
33.369
33.523
33.693
33.877
34.072
34.275
34.483
34.694
34.903
35.108
35.305
35.493
35.666
35.824
35.965
36.087
36.19
36.273
36.337
36.381
36.406
36.411
36.399
36.368
36.322
36.261
36.185
36.096
35.996
35.884
35.763
35.635
35.5
35.361
35.217
35.072
34.925
34.779
34.634
34.489
34.347
34.208
34.073
33.943
33.817
33.694
33.576
33.461
33.349
33.24
33.134
33.032
32.933
32.838
32.745
32.655
32.567
32.482
32.399
32.318
32.238
32.16
32.084
32.009
31.937
31.867
31.8
31.736
31.677
31.624
31.578
31.539
31.508
31.484
31.465
31.452
31.444
31.439
31.436
31.434
31.431
31.426
31.42
31.411
31.4
31.387
31.371
31.353
31.332
31.309
31.286
31.263
31.242
31.224
31.209
31.199
31.195
31.198
31.211
31.236
31.276
31.334
31.414
31.52
31.657
31.833
32.053
32.324
32.654
33.046
33.505
34.031
34.625
35.283
35.995
36.753
37.543
38.351
39.16
39.954
40.716
41.432
42.087
42.672
43.178
43.6
43.935
44.183
44.347
44.429
44.436
44.375
44.252
44.076
43.856
43.601
43.319
43.018
42.706
42.388
42.068
41.748
41.431
41.114
40.799
40.485
40.172
39.859
39.546
39.234
38.923
38.614
38.306
38.0
37.695
37.393
37.093
36.797
36.504
36.215
35.931
35.651
35.377
35.11
34.851
34.602
34.366
34.142
33.934
33.742
33.569
33.416
33.284
33.175
33.091
33.034
33.002
32.997
33.018
33.064
33.132
33.223
33.333
33.461
33.607
33.767
33.94
34.124
34.316
34.514
34.716
34.92
35.122
35.32
35.513
35.698
35.871
36.032
36.176
36.304
36.413
36.502
36.571
36.617
36.642
36.646
36.63
36.595
36.543
36.474
36.391
36.295
36.187
36.069
35.943
35.812
35.676
35.538
35.398
35.258
35.12
34.983
34.849
34.718
34.59
34.465
34.342
34.222
34.105
33.989
33.875
33.763
33.653
33.545
33.439
33.334
33.23
33.127
33.024
32.921
32.818
32.715
32.612
32.51
32.408
32.307
32.209
32.115
32.026
31.943
31.868
31.8
31.74
31.689
31.645
31.61
31.581
31.558
31.538
31.52
31.503
31.485
31.468
31.449
31.429
31.407
31.385
31.363
31.343
31.327
31.316
31.313
31.321
31.344
31.387
31.456
31.559
31.702
31.896
32.154
32.487
32.901
33.395
33.968
34.611
35.315
36.07
36.862
37.675
38.495
39.305
40.088
40.829
41.515
42.136
42.682
43.148
43.533
43.835
44.057
44.201
44.272
44.276
44.219
44.109
43.954
43.759
43.533
43.281
43.01
42.723
42.427
42.123
41.814
41.504
41.193
40.882
40.573
40.265
39.959
39.654
39.349
39.046
38.744
38.444
38.144
37.845
37.547
37.25
36.953
36.657
36.363
36.072
35.785
35.505
35.233
34.971
34.72
34.482
34.259
34.052
33.863
33.693
33.543
33.412
33.302
33.212
33.143
33.096
33.07
33.067
33.087
33.129
33.193
33.279
33.386
33.513
33.66
33.824
34.003
34.194
34.392
34.595
34.799
35.0
35.196
35.383
35.559
35.723
35.872
36.004
36.119
36.215
36.291
36.347
36.383
36.4
36.399
36.38
36.346
36.296
36.233
36.157
36.072
35.976
35.873
35.761
35.643
35.519
35.391
35.259
35.124
34.987
34.848
34.708
34.566
34.425
34.284
34.146
34.011
33.881
33.755
33.634
33.519
33.41
33.307
33.209
33.118
33.03
32.947
32.866
32.788
32.712
32.638
32.563
32.488
32.412
32.336
32.259
32.183
32.108
32.034
31.963
31.895
31.832
31.773
31.72
31.675
31.638
31.608
31.584
31.564
31.548
31.532
31.516
31.499
31.482
31.465
31.448
31.432
31.417
31.406
31.399
31.399
31.409
31.435
31.483
31.559
31.671
31.827
32.036
32.306
32.643
33.054
33.541
34.105
34.742
35.445
36.204
37.007
37.837
38.678
39.513
40.324
41.095
