Trial 1:0back
35.544
35.506
35.467
35.426
35.383
35.339
35.294
35.248
35.201
35.153
35.102
35.051
34.996
34.94
34.882
34.821
34.758
34.694
34.629
34.564
34.498
34.433
34.368
34.304
34.241
34.18
34.12
34.063
34.007
33.953
33.9
33.848
33.798
33.748
33.699
33.65
33.602
33.553
33.504
33.456
33.407
33.359
33.311
33.264
33.217
33.171
33.124
33.078
33.032
32.987
32.941
32.896
32.851
32.806
32.762
32.719
32.677
32.636
32.597
32.56
32.525
32.492
32.461
32.434
32.41
32.393
32.384
32.385
32.401
32.435
32.49
32.569
32.676
32.811
32.977
33.172
33.395
33.646
33.921
34.217
34.529
34.852
35.184
35.517
35.849
36.174
36.489
36.79
37.074
37.338
37.581
37.801
37.997
38.169
38.316
38.438
38.538
38.614
38.67
38.706
38.724
38.726
38.714
38.688
38.651
38.604
38.547
38.483
38.413
38.336
38.255
38.17
38.081
37.99
37.896
37.801
37.704
37.607
37.508
37.41
37.311
37.211
37.112
37.013
36.915
36.818
36.721
36.626
36.533
36.441
36.351
36.262
36.174
36.088
36.003
35.919
35.839
35.761
35.686
35.615
35.549
35.488
35.432
35.383
35.339
35.301
35.271
35.247
35.231
35.221
35.217
35.219
35.227
35.24
35.256
35.277
35.299
35.322
35.346
35.37
35.392
35.413
35.431
35.447
35.459
35.469
35.475
35.478
35.479
35.476
35.47
35.461
35.449
35.433
35.413
35.389
35.362
35.332
35.298
35.26
35.22
35.177
35.132
35.084
35.035
34.984
34.931
34.878
34.823
34.768
34.713
34.657
34.601
34.545
34.488
34.432
34.377
34.322
34.268
34.216
34.164
34.113
34.062
34.011
33.96
33.909
33.857
33.806
33.756
33.705
33.656
33.607
33.559
33.512
33.465
33.419
33.374
33.329
33.286
33.243
33.201
33.159
33.118
33.078
33.038
32.999
32.959
32.918
32.878
32.837
32.795
32.753
32.711
32.669
32.629
32.59
32.556
32.527
32.507
32.498
32.503
32.527
32.572
32.641
32.738
32.864
33.021
33.21
33.428
33.675
33.948
34.243
34.556
34.882
35.217
35.557
35.896
36.23
36.555
36.868
37.164
37.442
37.699
37.934
38.147
38.336
38.502
38.645
38.766
38.864
38.941
38.999
39.039
39.061
39.069
39.063
39.044
39.015
38.976
38.93
38.876
38.816
38.751
38.682
38.609
38.532
38.452
38.369
38.284
38.196
38.107
38.016
37.924
37.831
37.737
37.644
37.551
37.459
37.367
37.275
37.182
37.09
36.997
36.904
36.81
36.716
36.622
36.529
36.438
36.348
36.263
36.18
36.103
36.031
35.964
35.904
35.851
35.804
35.765
35.732
35.707
35.688
35.675
35.668
35.666
35.668
35.673
35.682
35.693
35.706
35.72
35.735
35.75
35.765
35.778
35.791
35.802
35.81
35.817
35.821
35.822
35.821
35.816
35.807
35.795
35.779
35.759
35.735
35.708
35.676
35.641
35.603
35.561
35.517
35.469
35.42
35.368
35.315
35.26
35.204
35.148
35.09
35.033
34.975
34.918
34.861
34.804
34.748
34.693
34.638
34.584
34.53
34.476
34.423
34.37
34.317
34.265
34.212
34.16
34.107
34.055
34.003
33.952
33.901
33.85
33.8
33.749
33.699
33.649
33.6
33.551
33.504
33.457
33.411
33.366
33.321
33.276
33.232
33.187
33.143
33.099
33.057
33.015
32.973
32.933
32.894
32.855
32.817
32.78
32.743
32.706
32.671
32.639
32.609
32.585
32.568
32.563
32.571
32.596
32.643
32.715
32.813
32.942
33.101
33.291
33.511
33.761
34.037
34.337
34.656
34.991
35.338
35.691
36.046
36.398
36.744
37.079
37.399
37.703
37.987
38.25
38.49
38.706
38.898
39.066
39.211
39.332
39.43
39.507
39.564
39.603
39.624
39.629
39.62
39.597
39.563
39.519
39.466
39.405
39.338
39.266
39.19
39.11
39.027
38.941
38.853
38.764
38.674
38.583
38.492
38.401
38.311
38.223
38.136
38.052
37.969
37.887
37.807
37.727
37.647
37.569
37.49
37.412
37.333
37.255
37.177
37.099
37.021
36.945
36.87
36.797
36.728
36.663
36.602
36.545
36.492
36.443
36.399
36.359
36.323
36.291
36.265
36.242
36.224
36.21
36.199
36.192
36.189
36.188
36.189
36.19
36.193
36.195
36.196
36.196
36.194
36.191
36.186
36.178
36.169
36.158
36.145
36.129
36.111
36.091
36.068
36.042
36.013
35.981
35.946
35.909
35.868
35.825
35.779
35.73
35.679
35.626
35.571
35.515
35.457
35.399
35.34
35.28
35.219
35.158
35.097
35.035
34.973
34.91
34.847
34.783
34.718
34.652
34.585
34.519
34.454
34.39
34.326
34.265
34.204
34.145
34.086
34.029
33.972
33.916
33.861
33.806
33.753
33.7
33.649
33.598
33.548
33.499
33.449
33.4
33.351
33.301
33.252
33.202
33.153
33.103
33.054
33.005
32.957
32.91
32.864
32.82
32.777
32.736
32.697
32.663
32.633
32.612
32.6
32.603
32.623
32.663
32.727
32.818
32.938
33.087
33.266
33.474
33.71
33.971
34.254
34.556
34.873
35.2
35.535
35.871
36.206
36.535
36.855
37.162
37.453
37.725
37.977
38.207
38.413
38.596
38.754
38.888
38.999
39.087
39.153
39.198
39.225
39.234
39.227
39.207
39.176
39.134
39.083
39.024
38.959
38.888
38.811
38.731
38.647
38.561
38.472
38.382
38.29
38.198
38.106
38.013
37.922
37.831
37.74
37.65
37.561
37.471
37.381
37.291
37.202
37.111
37.021
36.931
36.841
36.751
36.661
36.572
36.485
36.4
36.317
36.237
36.162
36.09
36.024
35.962
35.907
35.856
35.812
35.774
35.742
35.716
35.695
35.678
35.666
35.658
35.654
35.653
35.655
35.658
35.663
35.668
35.674
35.68
35.685
35.689
35.692
35.693
35.692
35.689
35.684
35.676
35.665
35.651
35.634
35.614
35.59
35.561
35.528
35.49
35.447
35.401
35.351
35.298
35.243
35.187
35.13
35.074
35.018
34.963
34.908
34.853
34.798
34.742
34.686
34.629
34.572
34.514
34.456
34.398
34.34
34.282
34.225
34.167
34.109
34.051
33.994
33.937
33.88
33.825
33.77
33.716
33.663
33.61
33.557
33.504
33.452
33.399
33.346
33.295
33.244
33.194
33.146
33.098
33.051
33.005
32.96
32.915
32.869
32.824
32.778
32.732
32.686
32.639
32.591
32.543
32.495
32.447
32.4
32.354
32.31
32.268
32.229
32.194
32.163
32.139
32.122
32.117
32.126
32.152
32.198
32.268
32.365
32.489
32.643
32.826
33.038
33.277
33.542
33.829
34.135
34.455
34.785
35.121
35.457
35.789
36.112
36.423
36.717
36.993
37.248
37.481
37.69
37.875
38.037
38.174
38.288
38.379
38.449
38.498
38.528
38.54
38.537
38.52
38.491
38.45
38.4
38.342
38.276
38.203
38.125
38.041
37.952
37.859
37.764
37.667
37.569
37.471
37.375
37.28
37.186
37.094
37.003
36.914
36.826
36.739
36.653
36.567
36.481
36.394
36.307
36.22
36.132
36.045
35.958
35.873
35.789
35.709
35.631
35.557
35.487
35.422
35.362
35.308
35.26
35.219
35.184
35.157
35.136
35.122
35.114
35.111
35.113
35.12
35.13
35.142
35.158
35.174
35.192
35.211
35.229
35.246
35.261
35.274
35.286
35.295
35.301
35.305
35.305
35.303
35.296
35.285
35.27
35.251
35.229
35.202
35.172
35.139
35.103
35.063
35.02
34.974
34.926
34.876
34.824
34.771
34.719
34.666
34.613
34.56
34.506
34.453
34.399
34.345
34.29
34.234
34.178
34.121
34.064
34.007
33.95
33.893
33.837
33.781
33.727
33.674
33.624
33.574
33.527
33.481
33.435
33.389
33.344
33.298
33.251
33.205
33.157
33.11
33.062
33.015
32.968
32.922
32.876
32.831
32.785
32.74
32.696
32.651
32.607
32.563
32.519
32.476
32.434
32.392
32.352
32.315
32.28
32.249
32.225
32.209
32.205
32.215
32.242
32.29
32.362
32.461
32.588
32.744
32.928
33.139
33.376
33.636
33.915
34.21
34.517
34.832
35.152
35.471
35.787
36.095
36.391
36.674
36.939
37.186
37.411
37.615
37.796
37.955
38.091
38.205
38.298
38.371
38.425
38.461
38.48
38.484
38.475
38.452
38.417
38.372
38.319
38.257
38.189
38.117
38.04
37.959
37.876
37.791
37.703
37.615
37.526
37.437
37.348
37.26
37.172
37.084
36.998
36.912
36.827
36.742
36.658
36.575
36.492
36.409
36.326
36.243
36.16
36.079
35.998
35.918
35.838
35.761
35.685
35.612
35.542
35.476
35.416
35.36
35.31
35.266
35.229
35.198
35.173
35.156
35.145
35.139
35.139
35.143
35.151
35.163
35.176
35.191
35.207
35.223
35.24
35.256
35.27
35.282
35.29
35.296
35.298
35.295
35.289
35.279
35.264
35.245
35.223
35.198
35.17
35.14
35.108
35.075
35.039
35.002
34.963
34.921
34.877
34.831
34.782
34.732
34.679
34.624
34.568
34.511
34.453
34.395
34.336
34.278
34.22
34.162
34.105
34.049
33.993
33.939
33.885
33.833
33.781
33.729
33.678
33.626
33.575
33.523
33.471
33.42
33.368
33.317
33.267
33.218
33.169
33.121
33.074
33.028
32.983
32.939
32.895
32.852
32.809
32.767
32.726
32.686
32.646
32.607
32.569
32.532
32.496
32.461
32.427
32.392
32.358
32.325
32.291
32.258
32.226
32.194
32.162
32.131
32.101
32.074
32.051
32.033
32.024
32.024
32.039
32.07
32.121
32.196
32.297
32.425
32.583
32.77
32.986
33.23
33.499
33.79
34.099
34.423
34.756
35.094
35.432
35.767
36.093
36.408
36.708
36.991
37.255
37.497
37.716
37.911
38.083
38.231
38.355
38.457
38.537
38.596
38.638
38.661
38.669
38.663
38.644
38.614
38.573
38.523
38.466
38.402
38.332
38.258
38.18
38.1
38.018
37.935
37.85
37.765
37.681
37.598
37.516
37.437
37.359
37.284
37.211
37.139
37.068
36.999
36.929
36.86
36.791
36.721
36.649
36.576
36.502
36.427
36.352
36.277
36.204
36.132
36.063
35.997
35.935
35.877
35.824
35.775
35.731
35.692
35.658
35.629
35.605
35.586
35.571
35.561
35.554
35.55
35.548
35.548
35.549
35.551
35.552
35.553
35.554
35.555
35.555
35.554
35.551
35.548
35.542
35.535
35.527
35.517
35.505
35.491
35.474
35.455
35.432
35.405
35.374
35.339
35.301
35.259
35.214
35.167
35.117
35.065
35.012
34.958
34.904
34.85
34.796
34.743
34.69
34.638
34.585
34.532
34.478
34.424
34.368
34.312
34.254
34.196
34.139
34.081
34.024
33.968
33.912
33.857
33.802
33.747
33.694
33.641
33.589
33.539
33.489
33.442
33.395
33.35
33.305
33.26
33.216
33.172
33.128
33.084
33.039
32.995
32.951
32.907
32.864
32.821
32.778
32.736
32.694
32.653
32.613
32.573
32.534
32.497
32.459
32.422
32.386
32.351
32.316
32.283
32.253
32.226
32.203
32.187
32.181
32.187
32.209
32.25
32.314
32.404
32.521
32.666
32.84
33.042
33.27
33.523
33.798
34.09
34.397
34.713
35.036
35.359
35.68
35.993
36.297
36.586
36.859
37.113
37.346
37.558
37.748
37.915
38.059
38.182
38.283
38.363
38.424
38.467
38.493
38.502
38.497
38.479
38.45
38.411
38.363
38.307
38.244
38.176
38.103
38.026
37.946
37.863
37.778
37.692
37.607
37.521
37.436
37.351
37.267
37.183
37.1
37.019
36.937
36.857
36.777
36.698
36.619
36.54
36.462
36.383
36.305
36.227
36.149
36.073
35.998
35.924
35.853
35.785
35.72
35.658
35.599
35.544
35.494
35.449
35.409
35.373
35.343
35.318
35.3
35.287
35.28
35.277
35.278
35.282
35.29
35.299
35.31
35.321
35.333
35.345
35.356
35.366
35.374
35.381
35.385
35.387
35.386
35.381
35.371
35.356
35.336
35.312
35.284
35.252
35.216
35.178
35.138
35.096
35.053
35.009
34.964
34.918
34.872
34.826
34.779
34.731
34.684
34.635
34.586
34.536
34.484
34.431
34.377
34.321
34.265
34.208
34.15
34.093
34.037
33.982
33.927
33.872
33.818
33.763
33.709
33.654
33.6
33.545
33.492
33.439
33.388
33.338
33.289
33.242
33.196
33.151
33.107
33.064
33.022
32.98
32.939
32.899
32.858
32.818
32.777
32.736
32.696
32.656
32.615
32.575
32.535
32.495
32.456
32.416
32.378
32.34
32.303
32.266
32.231
32.196
32.162
32.13
32.1
32.072
32.047
32.025
32.008
31.996
31.992
31.998
32.018
32.054
32.109
32.188
32.291
32.421
32.579
32.764
32.977
33.215
33.477
33.759
34.057
34.366
34.683
35.003
35.321
35.632
35.934
36.222
36.496
36.751
36.988
37.203
37.398
37.57
37.72
37.849
37.956
38.042
38.108
38.155
38.185
38.199
38.198
38.183
38.156
38.118
38.071
38.016
37.955
37.887
37.815
37.739
37.659
37.576
37.491
37.404
37.316
37.226
37.136
37.047
36.958
36.87
36.784
36.7
36.617
36.535
36.455
36.375
36.296
36.218
36.139
36.061
35.983
35.905
35.828
35.752
35.678
35.607
35.538
35.474
35.414
35.359
35.31
35.267
35.231
35.202
35.18
35.164
35.154
35.15
35.151
35.157
35.166
35.178
35.192
35.207
35.223
35.239
35.256
35.271
35.287
35.301
35.315
35.328
35.339
35.348
35.355
35.358
35.358
35.355
35.348
35.337
35.322
35.304
35.282
35.257
35.228
35.197
35.162
35.123
35.082
35.038
34.991
34.942
34.891
34.838
34.784
34.729
34.674
34.617
34.561
34.504
34.448
34.392
34.337
34.283
34.231
34.18
34.129
34.08
34.031
33.983
33.934
33.886
33.837
33.789
33.74
33.692
33.644
33.597
33.55
33.504
33.458
33.412
33.366
33.321
33.277
33.233
33.19
33.148
33.106
33.065
33.023
32.981
32.939
32.897
32.856
32.815
32.775
32.736
32.697
32.659
32.621
32.583
32.546
32.508
32.471
32.434
32.398
32.363
32.328
32.294
32.263
32.235
32.211
32.195
32.189
32.197
32.222
32.266
32.334
32.427
32.549
32.698
32.878
33.085
33.319
33.578
33.857
34.155
34.467
34.789
35.116
35.445
35.771
36.09
36.398
36.692
36.97
37.229
37.468
37.686
37.882
38.056
38.208
38.339
38.448
38.538
38.608
38.661
38.696
38.717
38.724
38.718
38.701
38.674
38.637
38.591
38.538
38.479
38.414
38.345
38.272
38.195
38.116
38.034
37.95
37.863
37.776
37.687
37.597
37.508
37.419
37.332
37.245
37.159
37.075
36.991
36.909
36.827
36.746
36.667
36.588
36.509
36.432
36.355
36.279
36.204
36.131
36.061
35.994
35.931
35.871
35.817
35.768
35.725
35.688
35.657
35.633
35.616
35.604
35.598
35.596
35.599
35.606
35.616
35.629
35.643
35.659
35.674
35.69
35.705
35.719
35.732
35.743
35.751
35.756
35.757
35.755
35.748
35.737
35.722
35.703
35.68
35.653
35.622
35.587
35.548
35.505
35.46
35.412
35.362
35.311
35.259
35.205
35.151
35.095
35.04
34.983
34.925
34.867
34.808
34.749
34.689
34.629
34.57
34.511
34.452
34.394
34.337
34.281
34.227
34.173
34.121
34.07
34.019
33.97
33.921
33.872
33.824
33.776
33.728
33.681
33.634
33.587
33.54
33.495
33.45
33.405
33.36
33.316
33.272
33.228
33.185
33.142
33.1
33.059
33.018
32.978
32.938
32.899
32.86
32.821
32.782
32.744
32.705
32.666
32.627
32.589
32.551
32.513
32.475
32.439
32.403
32.368
32.334
32.301
32.271
32.244
32.221
32.206
32.2
32.205
32.226
32.264
32.323
32.407
32.517
32.656
32.825
33.024
33.252
33.508
33.79
34.095
34.419
34.759
35.108
35.464
35.821
36.175
36.522
36.857
37.18
37.486
37.773
38.041
38.286
38.509
38.708
38.884
39.037
39.168
39.277
39.365
39.434
39.485
39.52
39.539
39.544
39.536
39.517
39.486
39.445
39.395
39.338
39.274
39.205
39.131
39.054
38.974
38.892
38.809
38.726
38.642
38.559
38.476
38.394
38.313
38.232
38.153
38.073
37.994
37.914
37.833
37.751
37.668
37.583
37.497
37.41
37.322
37.234
37.146
37.059
36.975
36.894
36.816
36.743
36.675
36.612
36.555
36.504
36.46
36.422
36.39
36.364
36.343
36.327
36.314
36.306
36.301
36.299
36.299
36.302
36.307
36.313
36.32
36.327
36.334
36.341
36.346
36.349
36.351
36.351
36.348
36.342
36.334
36.322
36.307
36.287
36.265
36.238
36.208
36.175
36.139
36.1
36.058
36.013
35.967
35.918
35.867
35.816
35.762
35.708
35.653
35.597
35.54
35.482
35.423
35.362
35.3
35.237
35.172
35.105
35.038
34.97
34.901
34.832
34.763
34.694
34.626
34.558
34.492
34.426
34.362
34.3
34.239
34.179
34.121
34.065
34.01
33.957
33.904
33.852
33.8
33.749
33.698
33.648
33.597
33.547
33.498
33.45
33.402
33.356
33.31
33.266
33.222
33.179
33.136
33.093
33.05
33.006
32.962
32.919
32.874
32.83
32.785
32.739
32.693
32.647
32.601
32.556
32.512
32.472
32.436
32.405
32.383
32.371
32.374
32.394
32.435
32.5
32.591
32.711
32.861
33.043
33.255
33.497
33.768
34.064
34.383
34.72
35.071
35.432
35.798
36.164
36.526
36.88
37.223
37.551
37.861
38.152
38.421
38.668
38.892
39.091
39.268
39.421
39.551
39.66
39.748
39.816
39.865
39.897
39.913
39.913
39.898
39.87
39.831
39.781
39.722
39.657
39.585
39.509
39.428
39.344
39.256
39.166
39.074
38.981
38.886
38.792
38.697
38.603
38.508
38.414
38.32
38.227
38.132
38.037
37.942
37.845
37.747
37.648
37.549
37.45
37.352
37.254
37.158
37.064
36.972
36.883
36.798
36.717
36.641
36.571
36.506
36.449
36.398
36.353
36.316
36.285
36.26
36.241
36.226
36.217
36.211
36.209
36.211
36.216
36.223
36.233
36.244
36.255
36.267
36.279
36.289
36.297
36.303
36.306
36.306
36.303
36.296
36.286
36.273
36.255
36.233
36.207
36.178
36.145
36.109
36.07
36.028
35.983
35.935
35.886
35.834
35.78
35.724
35.666
35.606
35.543
35.479
35.414
35.347
35.281
35.213
35.144
35.076
35.007
34.94
34.873
34.806
34.74
34.675
34.61
34.545
34.481
34.417
34.353
34.29
34.226
34.162
34.098
34.033
33.968
33.904
33.841
33.779
33.719
33.66
33.604
33.549
33.496
33.445
33.394
33.345
33.296
33.248
33.201
33.153
33.106
33.059
33.012
32.965
32.918
32.871
32.824
32.778
32.733
32.69
32.648
32.607
32.567
32.529
32.492
32.456
32.422
32.39
32.361
32.338
32.322
32.316
32.324
32.348
32.393
32.462
32.558
32.682
32.836
33.023
33.241
33.49
33.768
34.071
34.398
34.743
35.102
35.47
35.843
36.215
36.583
36.942
37.289
37.619
37.931
38.221
38.489
38.732
38.95
39.143
39.31
39.454
39.573
39.67
39.746
39.802
39.839
39.858
39.862
39.851
39.828
39.793
39.746
39.69
39.625
39.552
39.472
39.385
39.292
39.194
39.092
38.986
38.878
38.767
38.656
38.545
38.434
38.323
38.214
38.105
37.997
37.89
37.784
37.677
37.57
37.462
37.354
37.246
37.139
37.032
36.927
36.824
36.724
36.628
36.537
36.451
36.371
36.298
36.232
36.174
36.124
36.082
36.049
36.025
36.008
35.998
35.995
35.997
36.004
36.015
36.029
36.046
36.064
36.084
36.105
36.125
36.143
36.16
36.174
36.186
36.194
36.2
36.203
36.202
36.199
36.192
36.182
36.167
36.149
36.126
36.1
36.069
36.035
35.997
35.955
35.91
35.86
35.808
35.753
35.695
35.635
35.572
35.507
35.44
35.371
35.302
35.232
35.163
35.094
35.025
34.957
34.89
34.823
34.757
34.691
34.626
34.562
34.499
34.437
34.376
34.315
34.253
34.19
34.127
34.062
33.997
33.932
33.867
33.803
33.741
33.68
33.62
33.562
33.506
33.45
33.396
33.343
33.291
33.241
33.191
33.143
33.095
33.048
33.002
32.955
32.909
32.862
32.814
32.766
32.717
32.667
32.619
32.571
32.525
32.482
32.443
32.412
32.39
32.381
32.388
32.415
32.465
32.542
32.648
32.786
32.956
33.159
33.394
33.66
33.956
34.277
34.622
34.985
35.363
35.751
36.144
36.539
36.929
37.311
37.682
38.036
38.372
38.687
38.98
39.248
39.492
39.71
39.903
40.071
40.214
40.334
40.43
40.504
40.557
40.591
40.606
40.605
40.589
40.559
40.517
40.463
40.4
40.328
40.249
40.162
40.07
39.973
39.872
39.767
39.66
39.552
39.442
39.333
39.224
39.115
39.006
38.898
38.791
38.684
38.578
38.471
38.365
38.258
38.15
38.041
37.932
37.822
37.711
37.6
37.489
37.379
37.27
37.165
37.064
36.968
36.879
36.797
36.721
36.654
36.595
36.544
36.501
36.467
36.441
36.422
36.41
36.405
36.405
36.41
36.42
36.432
36.446
36.461
36.476
36.491
36.503
36.514
36.522
36.528
36.53
36.528
36.522
36.511
36.496
36.477
36.453
36.426
36.394
36.359
36.321
36.281
36.237
36.189
36.139
36.086
36.031
35.973
35.913
35.852
35.789
35.725
35.66
35.593
35.525
35.455
35.383
35.311
35.238
35.164
35.091
35.017
34.944
34.872
34.799
34.727
34.655
34.584
34.512
34.441
34.371
34.301
34.231
34.162
34.095
34.029
33.964
33.902
33.841
33.782
33.724
33.665
33.607
33.548
33.49
