Trial 1:0back
31.764
31.748
31.732
31.716
31.701
31.686
31.671
31.655
31.638
31.621
31.602
31.582
31.561
31.54
31.518
31.495
31.471
31.446
31.42
31.393
31.367
31.341
31.315
31.291
31.267
31.245
31.222
31.2
31.177
31.153
31.129
31.102
31.075
31.045
31.013
30.978
30.942
30.903
30.862
30.82
30.777
30.733
30.688
30.643
30.598
30.553
30.509
30.466
30.423
30.382
30.342
30.304
30.268
30.236
30.208
30.187
30.174
30.175
30.193
30.236
30.31
30.423
30.582
30.793
31.062
31.392
31.784
32.236
32.746
33.306
33.911
34.551
35.217
35.9
36.588
37.274
37.947
38.6
39.225
39.819
40.375
40.893
41.368
41.801
42.189
42.534
42.835
43.093
43.31
43.486
43.624
43.725
43.792
43.828
43.833
43.81
43.762
43.69
43.598
43.487
43.359
43.216
43.059
42.89
42.711
42.523
42.328
42.127
41.922
41.715
41.507
41.3
41.096
40.895
40.699
40.507
40.321
40.139
39.96
39.786
39.614
39.444
39.276
39.107
38.94
38.772
38.604
38.437
38.271
38.107
37.945
37.787
37.635
37.49
37.355
37.232
37.122
37.027
36.948
36.886
36.841
36.813
36.802
36.807
36.826
36.858
36.902
36.956
37.018
37.087
37.161
37.239
37.319
37.399
37.478
37.554
37.626
37.693
37.753
37.805
37.85
37.886
37.913
37.931
37.94
37.94
37.929
37.91
37.882
37.846
37.802
37.751
37.692
37.627
37.555
37.478
37.396
37.308
37.217
37.121
37.023
36.921
36.817
36.711
36.603
36.493
36.383
36.271
36.16
36.048
35.937
35.825
35.714
35.602
35.489
35.377
35.264
35.152
35.039
34.927
34.815
34.705
34.596
34.489
34.385
34.285
34.187
34.093
34.003
33.916
33.832
33.751
33.673
33.597
33.523
33.451
33.381
33.312
33.245
33.18
33.116
33.054
32.994
32.935
32.879
32.824
32.77
32.718
32.669
32.621
32.576
32.534
32.493
32.455
32.419
32.386
32.355
32.327
32.301
32.278
32.258
32.241
32.226
32.214
32.202
32.192
32.181
32.171
32.16
32.148
32.136
32.122
32.106
32.089
32.071
32.051
32.029
32.007
31.984
31.96
31.936
31.912
31.889
31.866
31.845
31.825
31.805
31.787
31.769
31.751
31.734
31.716
31.7
31.684
31.669
31.654
31.64
31.625
31.611
31.597
31.582
31.567
31.552
31.537
31.521
31.505
31.488
31.471
31.453
31.433
31.412
31.39
31.365
31.339
31.31
31.279
31.246
31.211
31.173
31.134
31.094
31.052
31.009
30.965
30.922
30.878
30.834
30.79
30.748
30.706
30.664
30.623
30.583
30.543
30.503
30.465
30.429
30.397
30.371
30.354
30.349
30.363
30.399
30.466
30.568
30.714
30.908
31.155
31.459
31.82
32.238
32.71
33.23
33.791
34.385
35.003
35.636
36.274
36.908
37.53
38.132
38.708
39.252
39.761
40.232
40.662
41.052
41.401
41.71
41.979
42.209
42.402
42.56
42.685
42.778
42.841
42.876
42.885
42.87
42.832
42.772
42.692
42.594
42.477
42.343
42.194
42.031
41.856
41.67
41.476
41.276
41.071
40.864
40.657
40.451
40.247
40.046
39.848
39.653
39.461
39.271
39.084
38.898
38.714
38.53
38.347
38.164
37.981
37.799
37.62
37.443
37.271
37.105
36.945
36.795
36.655
36.528
36.414
36.316
36.235
36.171
36.127
36.101
36.094
36.105
36.133
36.177
36.235
36.306
36.387
36.476
36.571
36.671
36.773
36.876
36.977
37.075
37.169
37.258
37.339
37.414
37.48
37.536
37.583
37.62
37.646
37.662
37.667
37.663
37.649
37.627
37.596
37.557
37.511
37.458
37.398
37.332
37.26
37.184
37.103
37.019
36.932
36.841
36.747
36.651
36.552
36.451
36.348
36.243
36.136
36.029
35.921
35.811
35.702
35.592
35.484
35.375
35.268
35.161
35.054
34.948
34.842
34.736
34.631
34.525
34.421
34.318
34.217
34.118
34.023
33.932
33.844
33.759
33.677
33.599
33.523
33.452
33.383
33.318
33.255
33.195
33.138
33.081
33.026
32.972
32.919
32.866
32.813
32.762
32.711
32.661
32.613
32.567
32.523
32.481
32.441
32.404
32.368
32.334
32.302
32.271
32.241
32.212
32.185
32.158
32.133
32.107
32.083
32.059
32.036
32.014
31.993
31.974
31.956
31.94
31.924
31.91
31.897
31.885
31.874
31.864
31.854
31.844
31.835
31.827
31.818
31.81
31.802
31.795
31.787
31.78
31.771
31.762
31.75
31.736
31.719
31.699
31.676
31.65
31.62
31.587
31.551
31.512
31.47
31.426
31.379
31.332
31.284
31.238
31.192
31.149
31.109
31.073
31.043
31.021
31.009
31.011
31.031
31.075
31.148
31.256
31.404
31.598
31.841
32.135
32.481
32.879
33.324
33.813
34.338
34.894
35.471
36.061
36.655
37.245
37.824
38.385
38.923
39.432
39.909
40.351
40.756
41.123
41.453
41.746
42.002
42.222
42.407
42.558
42.675
42.761
42.818
42.846
42.847
42.824
42.779
42.712
42.627
42.525
42.409
42.279
42.138
41.988
41.83
41.665
41.496
41.323
41.147
40.97
40.793
40.615
40.438
40.262
40.086
39.912
39.739
39.566
39.394
39.222
39.05
38.877
38.705
38.532
38.359
38.186
38.014
37.844
37.675
37.51
37.35
37.196
37.051
36.916
36.794
36.685
36.591
36.514
36.454
36.413
36.389
36.381
36.39
36.412
36.447
36.493
36.55
36.615
36.687
36.764
36.846
36.931
37.018
37.104
37.189
37.272
37.349
37.42
37.484
37.538
37.582
37.614
37.635
37.644
37.641
37.627
37.602
37.569
37.527
37.478
37.422
37.359
37.29
37.215
37.134
37.048
36.958
36.865
36.77
36.673
36.575
36.476
36.377
36.276
36.175
36.074
35.973
35.871
35.769
35.667
35.564
35.461
35.357
35.252
35.146
35.039
34.932
34.825
34.719
34.613
34.508
34.405
34.304
34.205
34.11
34.017
33.928
33.842
33.759
33.681
33.606
33.535
33.468
33.403
33.34
33.28
33.222
33.165
33.108
33.053
32.998
32.944
32.891
32.839
32.789
32.741
32.694
32.649
32.606
32.564
32.524
32.486
32.449
32.414
32.381
32.349
32.317
32.287
32.257
32.228
32.2
32.172
32.145
32.119
32.094
32.069
32.045
32.022
31.999
31.977
31.955
31.934
31.914
31.895
31.877
31.861
31.845
31.831
31.816
31.802
31.788
31.774
31.759
31.744
31.728
31.712
31.696
31.679
31.662
31.644
31.625
31.606
31.586
31.565
31.543
31.521
31.497
31.473
31.448
31.422
31.396
31.37
31.343
31.315
31.285
31.252
31.217
31.179
31.139
31.096
31.052
31.006
30.959
30.911
30.863
30.816
30.769
30.724
30.68
30.64
30.604
30.572
30.546
30.527
30.518
30.522
30.542
30.584
30.652
30.753
30.893
31.077
31.309
31.591
31.923
32.304
32.73
33.197
33.696
34.222
34.764
35.316
35.87
36.417
36.951
37.465
37.955
38.417
38.847
39.243
39.604
39.929
40.216
40.469
40.687
40.872
41.025
41.149
41.244
41.313
41.357
41.377
41.375
41.353
41.314
41.258
41.186
41.102
41.005
40.897
40.779
40.652
40.518
40.379
40.234
40.086
39.935
39.783
39.63
39.478
39.326
39.177
39.03
38.886
38.744
38.605
38.468
38.333
38.2
38.067
37.934
37.8
37.665
37.528
37.391
37.252
37.114
36.976
36.841
36.709
36.582
36.462
36.351
36.25
36.161
36.086
36.024
35.977
35.945
35.928
35.924
35.934
35.954
35.984
36.022
36.066
36.115
36.167
36.222
36.277
36.333
36.387
36.439
36.487
36.531
36.568
36.599
36.623
36.638
36.646
36.646
36.637
36.62
36.594
36.561
36.519
36.47
36.414
36.353
36.287
36.216
36.142
36.064
35.983
35.899
35.812
35.724
35.634
35.543
35.451
35.357
35.261
35.165
35.067
34.968
34.869
34.77
34.67
34.57
34.471
34.372
34.274
34.178
34.084
33.992
33.902
33.816
33.732
33.65
33.57
33.491
33.412
33.333
33.254
33.175
33.097
33.019
32.943
32.869
32.796
32.726
32.659
32.594
32.533
32.474
32.418
32.366
32.315
32.268
32.223
32.18
32.139
32.1
32.062
32.025
31.987
31.95
31.913
31.875
31.838
31.803
31.769
31.738
31.709
31.682
31.657
31.633
31.61
31.588
31.567
31.546
31.526
31.506
31.486
31.466
31.447
31.427
31.408
31.388
31.368
31.347
31.327
31.306
31.284
31.263
31.241
31.219
31.196
31.174
31.153
31.131
31.109
31.089
31.068
31.049
31.03
31.013
30.996
30.981
30.967
30.954
30.943
30.932
30.922
30.913
30.903
30.893
30.881
30.867
30.849
30.828
30.802
30.771
30.736
30.698
30.656
30.612
30.566
30.519
30.471
30.422
30.374
30.326
30.279
30.234
30.191
30.153
30.118
30.09
30.068
30.054
30.048
30.054
30.073
30.11
30.168
30.252
30.366
30.513
30.696
30.916
31.172
31.463
31.785
32.134
32.506
32.894
33.293
33.696
34.098
34.492
34.875
35.24
35.583
35.903
36.195
36.458
36.692
36.897
37.072
37.22
37.341
37.439
37.514
37.57
37.609
37.631
37.639
37.635
37.618
37.591
37.555
37.51
37.456
37.395
37.327
37.253
37.173
37.087
36.997
36.904
36.807
36.708
36.608
36.505
36.4
36.294
36.187
36.079
35.97
35.861
35.751
35.64
35.528
35.415
35.302
35.187
35.072
34.956
34.841
34.727
34.614
34.505
34.399
34.299
34.205
34.118
34.04
33.972
33.915
33.869
33.836
33.816
33.808
33.813
33.83
33.856
33.892
33.937
33.987
34.043
34.102
34.165
34.23
34.296
34.362
34.427
34.49
34.549
34.604
34.654
34.698
34.735
34.765
34.787
34.802
34.808
34.807
34.799
34.784
34.762
34.736
34.704
34.668
34.628
34.584
34.537
34.486
34.433
34.378
34.321
34.262
34.203
34.142
34.08
34.017
33.952
33.885
33.818
33.75
33.681
33.612
33.543
33.474
33.405
33.335
33.266
33.197
33.13
33.064
32.999
32.937
32.875
32.815
32.756
32.7
32.646
32.594
32.543
32.495
32.45
32.406
32.364
32.325
32.286
32.249
32.213
32.177
32.142
32.108
32.074
32.04
32.008
31.976
31.946
31.917
31.889
31.862
31.836
31.811
31.788
31.766
31.745
31.726
31.709
31.692
31.677
31.662
31.647
31.633
31.619
31.605
31.592
31.58
31.568
31.558
31.548
31.538
31.53
31.522
31.514
31.505
31.496
31.486
31.476
31.465
31.454
31.443
31.431
31.419
31.406
31.392
31.378
31.364
31.349
31.335
31.321
31.308
31.296
31.283
31.27
31.256
31.24
31.222
31.203
31.181
31.157
31.13
31.101
31.07
31.037
31.004
30.969
30.935
30.902
30.871
30.842
30.817
30.796
30.781
30.773
30.775
30.789
30.816
30.861
30.926
31.013
31.125
31.265
31.433
31.631
31.856
32.108
32.383
32.677
32.986
33.305
33.629
33.952
34.269
34.576
34.869
35.145
35.4
35.632
35.841
36.026
36.186
36.323
36.438
36.531
36.604
36.659
36.697
36.718
36.725
36.719
36.7
36.672
36.635
36.592
36.543
36.49
36.434
36.376
36.316
36.254
36.19
36.123
36.054
35.982
35.909
35.833
35.757
35.68
35.602
35.525
35.449
35.373
35.299
35.226
35.155
35.083
35.012
34.94
34.866
34.791
34.714
34.635
34.556
34.476
34.397
34.32
34.245
34.175
34.109
34.05
33.998
33.954
33.918
33.891
33.873
33.865
33.865
33.874
33.892
33.917
33.95
33.99
34.035
34.084
34.137
34.192
34.248
34.303
34.358
34.41
34.46
34.507
34.551
34.59
34.624
34.654
34.678
34.696
34.708
34.714
34.713
34.705
34.69
34.668
34.64
34.606
34.567
34.524
34.478
34.43
34.38
34.33
34.278
34.227
34.176
34.125
34.075
34.025
33.976
33.929
33.882
33.837
33.792
33.748
33.703
33.658
33.613
33.569
33.524
33.48
33.437
33.395
33.353
33.312
33.271
33.231
33.191
33.151
33.111
33.071
33.03
32.989
32.948
32.908
32.868
32.83
32.793
32.758
32.726
32.696
32.668
32.642
32.618
32.596
32.575
32.556
32.538
32.521
32.505
32.49
32.475
32.461
32.447
32.433
32.42
32.407
32.395
32.384
32.372
32.362
32.351
32.341
32.331
32.32
32.31
32.3
32.29
32.279
32.268
32.256
32.244
32.231
32.219
32.207
32.195
32.184
32.173
32.162
32.151
32.14
32.129
32.119
32.108
32.099
32.09
32.082
32.075
32.068
32.062
32.056
32.048
32.04
32.031
32.021
32.01
31.997
31.984
31.971
31.957
31.945
31.933
31.921
31.909
31.898
31.885
31.873
31.86
31.846
31.831
31.816
31.798
31.779
31.757
31.733
31.707
31.679
31.649
31.618
31.587
31.555
31.523
31.491
31.46
31.43
31.402
31.375
31.351
31.329
31.311
31.298
31.29
31.29
31.3
31.323
31.362
31.419
31.499
31.604
31.737
31.899
32.091
32.312
32.561
32.835
33.131
33.442
33.766
34.096
34.428
34.756
35.077
35.386
35.679
35.953
36.205
36.432
36.635
36.811
36.961
37.085
37.187
37.266
37.325
37.366
37.392
37.404
37.403
37.391
37.369
37.337
37.298
37.251
37.198
37.139
37.076
37.008
36.938
36.866
36.793
36.719
36.646
36.573
36.501
36.43
36.36
36.293
36.228
36.165
36.104
36.046
35.989
35.935
35.881
35.827
35.774
35.721
35.666
35.61
35.552
35.49
35.427
35.362
35.296
35.229
35.164
35.101
35.041
34.987
34.939
34.899
34.866
34.841
34.825
34.818
34.819
34.828
34.844
34.866
34.895
34.928
34.966
35.006
35.048
35.091
35.134
35.177
35.22
35.261
35.3
35.336
35.369
35.399
35.424
35.445
35.46
35.471
35.475
35.474
35.467
35.456
35.44
35.419
35.394
35.366
35.335
35.301
35.265
35.228
35.189
35.148
35.107
35.063
35.018
34.971
34.924
34.875
34.827
34.778
34.729
34.68
34.632
34.585
34.539
34.494
34.449
34.406
34.363
34.321
34.279
34.237
34.197
34.157
34.118
34.081
34.045
34.01
33.976
33.943
33.91
33.877
33.843
33.81
33.776
33.742
33.708
33.674
33.641
33.608
33.576
33.545
33.516
33.488
33.461
33.436
33.413
33.391
33.37
33.351
33.331
33.313
33.294
33.277
33.259
33.243
33.227
33.212
33.198
33.183
33.169
33.155
33.142
33.129
33.116
33.103
33.09
33.077
33.064
33.05
33.035
33.02
33.004
32.988
32.973
32.957
32.942
32.928
32.914
32.9
32.888
32.876
32.865
32.855
32.844
32.832
32.819
32.805
32.79
32.774
32.757
32.739
32.721
32.704
32.686
32.668
32.65
32.632
32.614
32.596
32.577
32.559
32.54
32.522
32.505
32.487
32.469
32.451
32.433
32.414
32.396
32.379
32.361
32.343
32.325
32.306
32.287
32.268
32.248
32.229
32.209
32.188
32.166
32.143
32.12
32.097
32.074
32.051
32.03
32.008
31.988
31.967
31.947
31.926
31.906
31.887
31.868
31.851
31.835
31.822
31.81
31.801
31.795
31.792
31.794
31.802
31.818
31.845
31.885
31.941
32.018
32.119
32.247
32.402
32.587
32.8
33.039
33.303
33.586
33.886
34.198
34.515
34.834
35.15
35.458
35.755
36.038
36.304
36.551
36.777
36.982
37.164
37.322
37.457
37.569
37.658
37.726
37.773
37.8
37.809
37.801
37.779
37.744
37.699
37.645
37.586
37.522
37.456
37.389
37.321
37.252
37.184
37.117
37.05
36.983
36.918
36.854
36.791
36.728
36.667
36.607
36.548
36.489
36.43
36.372
36.313
36.255
36.197
36.14
36.082
36.023
35.963
35.901
35.838
35.773
35.707
35.642
35.576
35.513
35.452
35.395
35.343
35.298
35.259
35.228
35.206
35.192
35.188
35.192
35.205
35.226
35.254
35.288
35.327
35.37
35.416
35.465
35.515
35.567
35.62
35.672
35.722
35.769
35.813
35.852
35.887
35.915
35.938
35.956
35.967
35.972
35.972
35.966
35.955
35.94
35.921
35.9
35.876
35.85
35.824
35.795
35.765
35.734
35.701
35.666
35.629
35.59
35.549
35.505
35.46
35.413
35.365
35.316
35.266
35.216
35.165
35.114
35.064
35.014
34.965
34.918
34.87
34.824
34.779
34.733
34.688
34.643
34.598
34.553
34.508
34.464
34.421
34.379
34.34
34.301
34.264
34.228
34.192
34.157
34.123
34.09
34.059
34.029
34.001
33.974
33.95
33.927
33.906
33.887
33.869
33.851
33.834
33.817
33.799
33.781
33.762
33.743
33.723
33.704
33.684
33.664
33.645
33.627
33.608
33.59
33.572
33.553
33.534
33.515
33.496
33.477
33.46
33.444
33.429
33.415
33.402
33.39
33.378
33.367
33.354
33.342
33.329
33.317
33.305
33.293
33.282
33.272
33.263
33.255
33.248
33.241
33.233
33.226
33.218
33.21
33.203
33.195
33.187
33.18
33.172
33.165
33.157
33.149
33.14
33.129
33.118
33.105
33.092
33.079
33.065
33.051
33.036
33.021
33.006
32.989
32.972
32.953
32.933
32.911
32.888
32.862
32.836
32.808
32.779
32.749
32.718
32.687
32.655
32.623
32.59
32.557
32.525
32.493
32.463
32.435
32.41
32.389
32.371
32.357
32.349
32.348
32.354
32.37
32.398
32.442
32.503
32.586
32.691
32.821
32.977
33.159
33.365
33.595
33.846
34.114
34.396
34.688
34.984
35.28
35.573
35.857
36.13
36.389
36.631
36.855
37.061
37.246
37.412
37.558
37.685
37.794
37.885
37.961
38.022
38.069
38.104
38.127
38.139
38.14
38.131
38.113
38.086
38.05
38.006
37.955
37.898
37.834
37.767
37.696
37.622
37.546
37.468
37.39
37.311
37.232
37.152
37.073
36.994
36.914
36.836
36.757
36.677
36.597
36.516
36.434
36.351
36.267
36.183
36.099
36.016
35.936
35.858
35.785
35.716
35.653
35.597
35.548
35.507
35.474
35.45
35.436
35.431
35.436
35.45
35.473
35.503
35.541
35.585
35.634
35.687
35.743
35.801
35.861
35.921
35.981
36.04
36.096
36.148
36.196
36.237
36.273
36.303
36.327
36.345
36.356
36.361
36.361
36.356
36.347
36.333
36.317
36.297
36.274
36.25
36.223
36.193
36.161
36.126
36.089
36.049
36.006
35.963
35.918
35.871
35.824
35.777
35.728
35.679
35.629
35.579
35.529
35.479
35.429
35.38
35.331
35.282
35.234
35.185
35.136
35.087
35.037
34.987
34.937
34.887
34.837
34.786
34.735
34.685
34.634
34.584
34.536
34.49
34.445
34.404
34.365
34.329
34.296
34.266
34.239
34.213
34.188
34.164
34.14
34.116
34.092
34.067
34.042
34.017
33.992
33.966
33.94
33.914
33.887
33.86
33.834
33.809
33.785
33.761
33.737
33.714
33.692
33.671
33.65
33.632
33.615
33.6
33.587
33.576
33.567
33.56
33.554
33.549
33.545
33.541
33.538
33.536
33.533
33.53
33.527
33.522
33.516
33.507
33.498
33.487
33.474
33.46
33.446
33.431
33.416
33.401
33.385
33.369
33.353
33.337
33.322
33.306
33.29
33.274
33.257
33.239
33.22
33.202
33.183
33.164
33.146
33.129
33.111
33.093
33.074
33.054
33.033
33.011
32.986
32.96
32.931
32.901
32.869
32.836
32.803
32.769
32.735
32.702
32.67
32.639
32.611
32.585
32.562
32.543
32.529
32.523
32.529
32.547
32.583
32.639
32.718
32.823
32.956
33.12
33.314
33.54
33.795
34.078
34.385
34.712
35.054
35.408
35.768
36.13
36.489
36.84
37.18
37.506
37.814
38.103
38.372
38.619
38.843
39.046
39.226
39.385
39.523
39.642
39.742
39.824
39.889
39.939
39.975
39.999
40.01
40.01
40.001
39.982
39.953
39.916
39.87
39.816
39.755
39.688
39.616
39.539
39.46
39.38
39.299
39.218
39.14
39.063
38.988
38.915
38.843
38.772
38.702
38.632
38.561
38.49
38.417
38.343
38.267
38.19
38.111
38.03
37.948
37.866
37.785
37.705
37.627
37.553
37.483
37.42
37.363
37.313
37.271
37.237
37.211
37.195
37.188
37.191
37.201
37.22
37.247
37.28
37.319
37.363
37.41
37.46
37.51
37.56
37.608
37.654
37.696
37.735
37.769
37.799
37.824
37.844
37.86
37.871
37.878
37.879
37.876
37.868
37.855
37.837
37.814
37.787
37.754
37.716
37.674
37.626
37.574
37.518
37.458
37.395
37.331
37.265
37.199
37.133
37.068
37.003
36.938
36.874
36.81
36.746
36.681
36.615
36.549
36.482
36.414
36.348
36.281
36.215
36.149
36.085
36.022
35.96
35.898
35.838
35.779
35.721
35.664
35.608
35.552
35.497
35.442
35.387
35.333
35.28
35.229
35.18
35.134
35.091
35.051
35.014
34.98
34.948
34.918
34.889
34.861
34.834
34.807
34.781
34.754
34.727
34.699
34.67
34.639
34.608
34.576
34.544
34.513
34.482
34.452
34.424
34.398
34.373
34.351
34.33
34.31
34.291
34.272
34.253
34.233
34.214
34.194
34.173
34.152
34.13
34.108
34.085
34.062
34.038
34.014
33.991
33.968
33.946
33.924
33.903
33.882
33.864
33.846
33.83
33.814
33.798
33.781
33.763
33.744
33.724
33.702
33.679
33.655
33.63
33.606
33.582
33.558
33.535
33.512
33.489
33.466
33.443
33.421
33.398
33.375
33.351
33.327
33.301
33.275
33.248
33.22
33.192
33.164
33.137
33.109
33.081
33.052
33.023
32.993
32.961
32.928
32.895
32.86
32.825
32.789
32.753
32.718
32.684
32.653
32.624
32.6
32.581
32.569
32.565
32.573
32.595
32.634
32.695
32.781
32.896
