Trial 1:0back
32.422
32.376
32.331
32.288
32.246
32.207
32.17
32.136
32.104
32.077
32.057
32.044
32.042
32.054
32.083
32.135
32.214
32.325
32.473
32.665
32.905
33.196
33.539
33.936
34.384
34.88
35.417
35.99
36.588
37.2
37.816
38.425
39.013
39.571
40.089
40.558
40.973
41.33
41.626
41.859
42.032
42.146
42.203
42.208
42.166
42.082
41.963
41.813
41.638
41.443
41.234
41.015
40.788
40.557
40.323
40.087
39.852
39.619
39.387
39.158
38.93
38.705
38.481
38.258
38.036
37.815
37.594
37.373
37.152
36.932
36.713
36.496
36.281
36.069
35.861
35.656
35.456
35.26
35.07
34.887
34.712
34.546
34.391
34.247
34.116
33.997
33.891
33.799
33.722
33.66
33.612
33.579
33.561
33.557
33.566
33.588
33.62
33.662
33.712
33.769
33.831
33.895
33.961
34.027
34.092
34.155
34.214
34.269
34.319
34.363
34.402
34.435
34.463
34.484
34.5
34.51
34.514
34.514
34.507
34.494
34.475
34.451
34.423
34.391
34.355
34.315
34.272
34.224
34.174
34.119
34.061
33.999
33.935
33.869
33.8
33.731
33.66
33.59
33.519
33.448
33.378
33.309
33.24
33.172
33.105
33.04
32.977
32.916
32.858
32.802
32.748
32.696
32.645
32.595
32.545
32.496
32.449
32.403
32.358
32.314
32.273
32.233
32.196
32.161
32.129
32.098
32.07
32.045
32.025
32.011
32.004
32.009
32.029
32.068
32.133
32.23
32.363
32.539
32.764
33.042
33.376
33.767
34.215
34.716
35.265
35.857
36.48
37.125
37.779
38.43
39.066
39.674
40.243
40.765
41.231
41.637
41.978
42.252
42.461
42.606
42.689
42.717
42.693
42.624
42.517
42.379
42.215
42.03
41.831
41.62
41.402
41.18
40.956
40.732
40.51
40.291
40.076
39.863
39.654
39.449
39.245
39.044
38.846
38.65
38.457
38.267
38.079
37.894
37.71
37.528
37.347
37.166
36.985
36.805
36.624
36.443
36.265
36.088
35.915
35.747
35.583
35.428
35.281
35.144
35.018
34.904
34.802
34.712
34.635
34.57
34.518
34.478
34.449
34.431
34.424
34.426
34.437
34.456
34.481
34.512
34.549
34.588
34.63
34.673
34.715
34.756
34.795
34.831
34.864
34.891
34.913
34.93
34.942
34.95
34.953
34.953
34.948
34.94
34.928
34.912
34.892
34.868
34.839
34.805
34.765
34.72
34.669
34.612
34.55
34.483
34.413
34.338
34.261
34.181
34.1
34.019
33.937
33.855
33.773
33.691
33.612
33.534
33.458
33.383
33.309
33.235
33.163
33.091
33.019
32.949
32.881
32.814
32.749
32.686
32.625
32.565
32.506
32.448
32.391
32.335
32.28
32.227
32.177
32.129
32.085
32.045
32.012
31.986
31.969
31.965
31.976
32.005
32.059
32.141
32.258
32.415
32.618
32.871
33.176
33.536
33.949
34.413
34.925
35.477
36.062
36.67
37.29
37.91
38.518
39.105
39.658
40.169
40.63
41.036
41.382
41.666
41.888
42.048
42.15
42.198
42.195
42.147
42.06
41.94
41.791
41.62
41.431
41.23
41.021
40.807
40.589
40.371
40.153
39.938
39.725
39.515
39.308
39.105
38.904
38.706
38.51
38.316
38.124
37.933
37.744
37.556
37.368
37.18
36.993
36.808
36.623
36.441
36.26
36.082
35.906
35.734
35.566
35.403
35.246
35.097
34.956
34.824
34.702
34.59
34.49
34.402
34.327
34.263
34.212
34.173
34.146
34.132
34.129
34.136
34.153
34.177
34.209
34.247
34.288
34.332
34.377
34.422
34.467
34.51
34.551
34.589
34.623
34.654
34.679
34.699
34.713
34.722
34.726
34.724
34.716
34.703
34.684
34.659
34.629
34.595
34.556
34.514
34.468
34.419
34.366
34.309
34.249
34.185
34.118
34.047
33.974
33.899
33.822
33.743
33.665
33.586
33.507
33.428
33.349
33.272
33.195
33.119
33.045
32.973
32.903
32.835
32.769
32.705
32.644
32.585
32.528
32.472
32.418
32.366
32.314
32.264
32.215
32.167
32.12
32.078
32.042
32.014
31.991
31.972
31.955
31.937
31.919
31.899
31.876
31.851
31.825
31.8
31.78
31.769
31.769
31.788
31.828
31.895
31.996
32.135
32.318
32.549
32.832
33.169
33.56
34.004
34.498
35.035
35.609
36.21
36.827
37.45
38.066
38.665
39.235
39.766
40.249
40.678
41.048
41.355
41.6
41.782
41.903
41.967
41.978
41.941
41.863
41.747
41.602
41.433
41.244
41.04
40.826
40.604
40.377
40.147
39.916
39.685
39.455
39.226
38.999
38.776
38.555
38.336
38.12
37.906
37.696
37.488
37.283
37.081
36.884
36.69
36.501
36.314
36.13
35.948
35.769
35.592
35.419
35.249
35.082
34.921
34.766
34.619
34.481
34.354
34.24
34.138
34.049
33.975
33.915
33.87
33.838
33.821
33.816
33.823
33.84
33.866
33.898
33.936
33.978
34.022
34.07
34.119
34.169
34.221
34.272
34.322
34.37
34.417
34.46
34.498
34.533
34.563
34.588
34.609
34.625
34.635
34.638
34.635
34.625
34.608
34.586
34.557
34.523
34.483
34.44
34.392
34.339
34.282
34.221
34.157
34.091
34.023
33.955
33.885
33.815
33.744
33.673
33.603
33.534
33.467
33.401
33.336
33.273
33.211
33.151
33.091
33.032
32.974
32.917
32.862
32.809
32.758
32.709
32.661
32.615
32.569
32.523
32.477
32.433
32.389
32.345
32.302
32.261
32.221
32.185
32.151
32.121
32.094
32.07
32.048
32.03
32.014
32.003
31.997
32.0
32.014
32.042
32.09
32.16
32.259
32.391
32.561
32.776
33.038
33.349
33.711
34.123
34.583
35.087
35.628
36.198
36.788
37.387
37.985
38.57
39.131
39.658
40.142
40.577
40.956
41.275
41.533
41.73
41.867
41.946
41.972
41.947
41.879
41.772
41.633
41.465
41.275
41.068
40.847
40.617
40.381
40.143
39.904
39.667
39.433
39.203
38.978
38.757
38.54
38.328
38.118
37.911
37.704
37.497
37.289
37.081
36.872
36.664
36.456
36.248
36.042
35.841
35.644
35.454
35.271
35.097
34.933
34.78
34.639
34.509
34.392
34.288
34.197
34.12
34.056
34.005
33.966
33.94
33.925
33.921
33.927
33.943
33.966
33.998
34.036
34.08
34.129
34.182
34.238
34.296
34.355
34.414
34.472
34.527
34.578
34.624
34.664
34.697
34.723
34.744
34.758
34.765
34.765
34.757
34.742
34.721
34.695
34.663
34.625
34.583
34.537
34.486
34.433
34.378
34.321
34.262
34.201
34.138
34.072
34.004
33.934
33.862
33.789
33.715
33.64
33.564
33.489
33.414
33.341
33.269
33.198
33.128
33.061
32.995
32.931
32.87
32.812
32.756
32.703
32.654
32.606
32.561
32.516
32.473
32.431
32.39
32.35
32.31
32.271
32.233
32.197
32.165
32.135
32.108
32.085
32.066
32.055
32.051
32.056
32.074
32.108
32.161
32.239
32.348
32.491
32.675
32.904
33.181
33.511
33.893
34.325
34.806
35.329
35.89
36.477
37.082
37.694
38.303
38.897
39.464
39.996
40.484
40.921
41.3
41.618
41.872
42.063
42.192
42.262
42.278
42.247
42.174
42.065
41.927
41.765
41.585
41.391
41.188
40.979
40.766
40.553
40.341
40.129
39.92
39.712
39.507
39.304
39.104
38.905
38.707
38.511
38.316
38.121
37.929
37.739
37.551
37.366
37.182
37.001
36.823
36.648
36.476
36.307
36.142
35.98
35.823
35.671
35.524
35.383
35.248
35.121
35.003
34.895
34.797
34.709
34.632
34.566
34.511
34.469
34.437
34.416
34.404
34.402
34.408
34.421
34.441
34.466
34.496
34.529
34.565
34.602
34.639
34.674
34.708
34.739
34.767
34.793
34.815
34.833
34.845
34.853
34.855
34.853
34.847
34.838
34.823
34.804
34.779
34.748
34.71
34.666
34.616
34.559
34.497
34.43
34.359
34.284
34.206
34.128
34.048
33.968
33.888
33.808
33.729
33.651
33.576
33.503
33.433
33.366
33.301
33.24
33.18
33.122
33.066
33.011
32.956
32.902
32.848
32.796
32.745
32.695
32.648
32.601
32.556
32.511
32.468
32.427
32.387
32.348
32.311
32.275
32.242
32.21
32.18
32.152
32.127
32.105
32.087
32.074
32.067
32.07
32.084
32.113
32.163
32.236
32.338
32.476
32.655
32.879
33.152
33.478
33.856
34.285
34.763
35.287
35.847
36.437
37.046
37.663
38.275
38.872
39.442
39.977
40.467
40.906
41.287
41.607
41.866
42.061
42.194
42.27
42.293
42.267
42.197
42.089
41.95
41.786
41.601
41.402
41.191
40.973
40.752
40.531
40.31
40.093
39.879
39.669
39.464
39.263
39.067
38.874
38.686
38.5
38.317
38.135
37.954
37.775
37.596
37.416
37.237
37.058
36.88
36.703
36.529
36.358
36.19
36.026
35.866
35.711
35.562
35.42
35.285
35.158
35.039
34.929
34.829
34.739
34.659
34.591
34.532
34.485
34.448
34.422
34.406
34.4
34.401
34.411
34.427
34.449
34.477
34.508
34.543
34.578
34.613
34.647
34.679
34.708
34.734
34.757
34.775
34.788
34.796
34.799
34.795
34.786
34.771
34.751
34.726
34.696
34.662
34.623
34.579
34.529
34.476
34.419
34.358
34.294
34.226
34.155
34.082
34.007
33.93
33.853
33.776
33.7
33.625
33.553
33.484
33.418
33.354
33.293
33.234
33.178
33.122
33.069
33.016
32.963
32.911
32.859
32.808
32.757
32.706
32.656
32.607
32.56
32.514
32.469
32.428
32.389
32.351
32.314
32.28
32.247
32.217
32.19
32.166
32.144
32.124
32.107
32.091
32.078
32.068
32.061
32.059
32.071
32.105
32.166
32.253
32.366
32.503
32.664
32.851
33.066
33.312
33.592
33.906
34.257
34.646
35.072
35.532
36.025
36.542
37.077
37.622
38.166
38.701
39.215
39.701
40.15
40.555
40.909
41.208
41.45
41.634
41.761
41.834
41.855
41.829
41.761
41.657
41.522
41.36
41.177
40.978
40.766
40.546
40.321
40.094
39.867
39.642
39.42
39.201
38.986
38.776
38.571
38.37
38.174
37.981
37.792
37.606
37.421
37.238
37.056
36.875
36.695
36.515
36.336
36.158
35.981
35.808
35.639
35.473
35.313
35.159
35.013
34.874
34.74
34.608
34.479
34.356
34.242
34.139
34.052
33.981
33.928
33.893
33.876
33.874
33.887
33.911
33.945
33.986
34.032
34.081
34.13
34.181
34.23
34.278
34.323
34.365
34.403
34.438
34.469
34.496
34.519
34.537
34.55
34.558
34.559
34.554
34.543
34.525
34.502
34.473
34.438
34.398
34.353
34.302
34.248
34.189
34.128
34.064
33.999
33.933
33.868
33.801
33.734
33.667
33.6
33.533
33.467
33.401
33.336
33.272
33.209
33.147
33.087
33.027
32.968
32.911
32.856
32.803
32.753
32.705
32.659
32.615
32.574
32.535
32.498
32.463
32.43
32.4
32.372
32.345
32.318
32.292
32.267
32.244
32.224
32.207
32.193
32.183
32.174
32.168
32.164
32.162
32.162
32.164
32.168
32.175
32.185
32.198
32.218
32.248
32.292
32.352
32.434
32.542
32.682
32.858
33.074
33.334
33.638
33.986
34.379
34.815
35.289
35.795
36.327
36.876
37.432
37.988
38.533
39.058
39.555
40.015
40.431
40.797
41.11
41.368
41.57
41.716
41.807
41.846
41.837
41.783
41.69
41.561
41.403
41.22
41.018
40.799
40.57
40.334
40.093
39.851
39.61
39.37
39.133
38.899
38.67
38.444
38.223
38.006
37.793
37.584
37.38
37.181
36.985
36.794
36.609
36.43
36.256
36.086
35.92
35.758
35.599
35.444
35.292
35.145
35.002
34.866
34.738
34.618
34.51
34.413
34.329
34.256
34.196
34.149
34.114
34.09
34.078
34.078
34.089
34.111
34.143
34.182
34.229
34.28
34.335
34.393
34.451
34.508
34.563
34.614
34.661
34.703
34.739
34.768
34.791
34.807
34.816
34.818
34.813
34.801
34.783
34.759
34.73
34.696
34.658
34.617
34.57
34.52
34.465
34.408
34.348
34.286
34.222
34.157
34.092
34.027
33.962
33.898
33.835
33.772
33.71
33.648
33.587
33.526
33.465
33.402
33.338
33.272
33.204
33.136
33.069
33.005
32.945
32.889
32.838
32.793
32.752
32.717
32.687
32.661
32.638
32.618
32.6
32.585
32.571
32.558
32.546
32.534
32.523
32.512
32.501
32.49
32.48
32.472
32.466
32.463
32.466
32.478
32.501
32.54
32.6
32.686
32.802
32.953
33.144
33.378
33.657
33.983
34.354
34.768
35.222
35.71
36.227
36.763
37.311
37.862
38.405
38.932
39.434
39.902
40.33
40.712
41.041
41.317
41.538
41.703
41.814
41.873
41.883
41.848
41.773
41.662
41.522
41.357
41.172
40.973
40.763
40.547
40.327
40.106
39.885
39.668
39.455
39.248
39.048
38.852
38.66
38.472
38.285
38.101
37.917
37.733
37.549
37.365
37.18
36.994
36.81
36.627
36.448
36.272
36.1
35.932
35.77
35.614
35.466
35.325
35.192
35.069
34.956
34.852
34.759
34.676
34.603
34.539
34.485
34.442
34.408
34.386
34.373
34.37
34.375
34.389
34.409
34.436
34.468
34.505
34.545
34.586
34.628
34.67
34.711
34.75
34.786
34.817
34.843
34.863
34.876
34.882
34.88
34.872
34.858
34.839
34.813
34.782
34.746
34.704
34.657
34.606
34.55
34.491
34.428
34.362
34.294
34.224
34.154
34.084
34.013
33.941
33.868
33.792
33.716
33.639
33.563
33.489
33.419
33.352
33.291
33.235
33.183
33.136
33.093
33.054
33.017
32.982
32.947
32.912
32.878
32.844
32.81
32.777
32.743
32.709
32.675
32.642
32.61
32.58
32.553
32.527
32.503
32.481
32.46
32.441
32.423
32.406
32.391
32.377
32.366
32.357
32.352
32.35
32.354
32.366
32.387
32.421
32.472
32.543
32.64
32.768
32.932
33.136
33.384
33.678
34.019
34.406
34.839
35.313
35.824
36.365
36.925
37.498
38.072
38.638
39.186
39.706
40.191
40.633
41.026
41.366
41.651
41.879
42.05
42.165
42.227
42.238
42.204
42.13
42.021
41.882
41.72
41.539
41.345
41.142
40.933
40.721
40.509
40.298
40.091
39.887
39.687
39.493
39.302
39.117
38.936
38.76
38.587
38.417
38.249
38.084
37.921
37.76
37.599
37.439
37.28
37.122
36.966
36.809
36.654
36.501
36.35
36.202
36.059
35.919
35.784
35.653
35.529
35.411
35.301
35.198
35.103
35.018
34.944
34.881
34.829
34.79
34.762
34.745
34.739
34.742
34.753
34.769
34.791
34.817
34.846
34.875
34.905
34.934
34.962
34.987
35.008
35.025
35.04
35.05
35.057
35.058
35.054
35.044
35.027
35.004
34.973
34.935
34.892
34.843
34.79
34.733
34.673
34.61
34.545
34.479
34.412
34.345
34.276
34.208
34.139
34.071
34.004
33.938
33.87
33.802
33.733
33.663
33.594
33.526
33.458
33.393
33.329
33.267
33.209
33.154
33.102
33.053
33.006
32.961
32.918
32.876
32.837
32.799
32.762
32.726
32.691
32.659
32.629
32.6
32.572
32.544
32.517
32.49
32.465
32.441
32.417
32.396
32.376
32.359
32.344
32.332
32.322
32.316
32.313
32.317
32.328
32.351
32.386
32.438
32.511
32.61
32.741
32.908
33.115
33.365
33.661
34.003
34.388
34.814
35.276
35.771
36.29
36.828
37.376
37.924
38.463
38.984
39.478
39.937
40.355
40.726
41.046
41.312
41.522
41.677
41.778
41.827
41.829
41.787
41.707
41.593
41.45
41.285
41.1
40.902
40.695
40.482
40.266
40.049
39.834
39.621
39.414
39.211
39.013
38.821
38.634
38.452
38.276
38.104
37.936
37.771
37.608
37.448
37.288
37.129
36.971
36.813
36.655
36.498
36.343
36.189
36.037
35.887
35.742
35.601
35.465
35.334
35.211
35.094
34.986
34.886
34.797
34.719
34.651
34.593
34.546
34.508
34.479
34.456
34.439
34.426
34.416
34.411
34.41
34.414
34.422
34.435
34.452
34.473
34.498
34.525
34.553
34.581
34.606
34.628
34.645
34.657
34.662
34.66
34.652
34.638
34.616
34.588
34.555
34.517
34.474
34.426
34.374
34.319
34.261
34.2
34.137
34.072
34.006
33.938
33.871
33.804
33.738
33.671
33.604
33.538
33.472
33.406
33.342
33.279
33.217
33.156
33.099
33.044
32.991
32.94
32.892
32.846
32.804
32.764
32.727
32.692
32.659
32.629
32.6
32.573
32.547
32.522
32.498
32.475
32.452
32.43
32.408
32.387
32.368
32.35
32.335
32.323
32.315
32.309
32.305
32.302
32.299
32.296
32.293
32.289
32.283
32.277
32.269
32.262
32.255
32.251
32.251
32.255
32.267
32.289
32.325
32.377
32.45
32.547
32.671
32.828
33.022
33.256
33.532
33.851
34.212
34.615
35.055
35.527
36.027
36.546
37.078
37.613
38.143
38.659
39.152
39.614
40.037
40.417
40.747
41.024
41.247
41.415
41.529
41.592
41.606
41.575
41.503
41.395
41.255
41.09
40.903
40.699
40.483
40.258
40.029
39.797
39.567
39.339
39.114
38.894
38.68
38.471
38.268
38.07
37.876
37.688
37.504
37.325
37.15
36.977
36.807
36.64
36.477
36.317
36.16
36.007
35.859
35.715
35.577
35.445
35.318
35.197
35.081
34.971
34.868
34.771
34.683
34.603
34.533
34.473
34.423
34.384
34.356
34.339
34.332
34.334
34.344
34.361
34.384
34.413
34.447
34.485
34.524
34.564
34.603
34.642
34.678
34.712
34.742
34.769
34.792
34.811
34.825
34.833
34.836
34.833
34.823
34.806
34.782
34.753
34.718
34.677
34.631
34.581
34.527
34.471
34.412
34.351
34.287
34.223
34.158
34.092
34.026
33.96
33.895
33.83
33.765
33.701
33.637
33.575
33.514
33.455
33.398
33.344
33.293
33.245
33.201
33.16
33.122
33.085
33.049
33.014
32.98
32.947
32.915
32.884
32.853
32.822
32.792
32.763
32.735
32.708
32.681
32.655
32.629
32.604
32.579
32.555
32.531
32.508
32.487
32.469
32.453
32.441
32.431
32.425
32.422
32.422
32.427
32.435
32.448
32.466
32.49
32.522
32.563
32.616
32.686
32.777
32.891
33.034
33.21
33.422
33.673
33.965
34.296
34.666
35.073
35.512
35.979
36.467
36.968
37.476
37.981
38.475
38.95
39.398
39.812
40.188
40.519
40.801
41.033
41.215
41.346
41.428
41.464
41.456
41.408
41.326
41.213
41.075
40.915
40.74
40.55
40.351
40.145
39.935
39.722
39.508
39.295
39.084
38.875
38.668
38.465
38.266
38.07
37.878
37.688
37.502
37.319
37.14
36.965
36.794
36.627
36.464
36.304
36.148
35.994
35.844
35.697
35.554
35.416
35.282
35.153
35.03
34.913
34.804
34.704
34.612
34.53
34.458
34.396
34.347
34.31
34.285
34.272
34.268
34.275
34.29
34.312
34.341
34.375
34.413
34.453
34.495
34.536
34.574
34.61
34.641
34.668
34.691
34.709
34.722
34.729
34.731
34.728
34.719
34.706
34.687
34.663
34.633
34.597
34.556
34.51
34.458
34.401
34.338
34.27
34.198
34.124
34.048
33.972
33.896
33.823
33.752
33.685
33.621
33.562
33.505
33.451
33.399
33.349
33.301
33.254
33.208
33.163
33.119
33.075
33.033
32.993
32.954
32.916
32.881
32.847
32.815
32.785
32.756
32.728
32.701
32.677
32.654
32.632
32.612
32.593
32.575
32.558
32.542
32.526
32.512
32.498
32.487
32.478
32.472
32.469
32.469
32.472
32.477
32.483
32.49
32.497
32.504
32.509
32.512
32.515
32.518
32.522
32.527
32.535
32.547
32.566
32.595
32.636
32.694
32.773
32.877
33.012
33.181
33.391
33.642
33.939
34.28
34.664
35.088
35.548
36.037
36.55
37.076
37.608
38.137
38.654
39.151
39.62
40.055
40.449
40.799
41.1
41.35
41.548
41.693
41.788
41.834
41.834
41.793
41.715
41.605
41.467
41.307
41.129
40.937
40.736
40.528
40.317
40.106
39.895
39.688
39.484
39.283
39.088
38.898
38.713
38.532
38.357
38.186
38.019
37.856
37.698
37.542
37.388
37.236
37.085
36.936
36.788
36.641
36.495
36.35
36.206
36.064
35.924
35.788
35.657
35.531
35.411
35.299
35.195
35.099
35.011
34.932
34.862
34.801
34.749
34.705
34.671
34.645
34.628
34.62
34.62
34.628
34.642
34.661
34.684
34.71
34.738
34.767
34.794
34.821
34.844
34.865
34.882
34.893
34.9
34.901
34.897
34.888
34.874
34.854
34.828
34.796
34.758
34.715
34.666
34.613
34.555
34.494
34.432
34.369
34.306
34.243
34.18
34.117
34.054
33.99
33.927
33.863
33.799
33.735
33.672
33.61
33.551
33.493
33.437
33.383
33.331
33.281
33.231
33.183
33.136
33.091
33.046
33.003
32.96
32.919
32.879
32.84
32.803
32.768
32.736
32.707
32.681
32.658
32.638
32.621
32.606
32.601
32.613
32.64
32.679
32.723
32.769
32.811
32.844
32.867
32.876
32.872
32.854
32.824
32.785
32.738
32.687
32.633
32.58
32.53
32.485
32.447
32.416
32.395
32.383
32.383
32.395
32.423
32.467
32.53
32.613
32.721
32.857
33.026
33.231
33.474
33.756
34.079
34.441
34.839
35.271
35.729
36.209
36.704
37.205
37.707
38.199
38.676
39.127
39.548
39.931
40.271
40.565
40.81
41.007
41.154
41.252
41.304
41.314
41.284
41.219
41.122
40.999
40.853
40.688
40.509
40.319
40.122
39.92
39.715
39.512
39.308
39.105
38.903
38.702
38.505
38.311
38.121
37.936
37.756
37.581
37.411
37.244
37.083
36.925
36.771
36.621
