Trial 1:0back
34.224
34.442
34.672
34.908
35.147
35.384
35.615
35.837
36.045
36.237
36.411
36.565
36.698
36.808
36.897
36.963
37.008
37.033
37.04
37.03
37.006
36.969
36.921
36.865
36.802
36.734
36.663
36.589
36.514
36.44
36.368
36.299
36.234
36.172
36.116
36.064
36.017
35.975
35.937
35.904
35.875
35.85
35.829
35.812
35.799
35.787
35.777
35.767
35.757
35.745
35.73
35.712
35.691
35.666
35.637
35.605
35.57
35.534
35.497
35.462
35.428
35.398
35.371
35.35
35.333
35.323
35.319
35.321
35.33
35.344
35.364
35.388
35.417
35.449
35.484
35.519
35.555
35.592
35.627
35.66
35.69
35.717
35.74
35.758
35.772
35.78
35.783
35.78
35.772
35.759
35.741
35.719
35.693
35.663
35.63
35.594
35.556
35.517
35.476
35.434
35.392
35.35
35.307
35.264
35.22
35.177
35.134
35.091
35.048
35.007
34.967
34.928
34.891
34.856
34.822
34.791
34.762
34.735
34.709
34.684
34.661
34.638
34.616
34.596
34.576
34.557
34.539
34.521
34.504
34.488
34.471
34.455
34.439
34.424
34.41
34.396
34.382
34.37
34.358
34.346
34.336
34.325
34.315
34.304
34.295
34.286
34.277
34.269
34.261
34.254
34.248
34.243
34.238
34.233
34.228
34.222
34.215
34.207
34.198
34.188
34.178
34.167
34.157
34.146
34.135
34.123
34.11
34.095
34.079
34.061
34.041
34.019
33.998
33.977
33.957
33.939
33.922
33.908
33.896
33.886
33.878
33.871
33.865
33.858
33.852
33.845
33.837
33.828
33.818
33.807
33.795
33.782
33.768
33.754
33.74
33.725
33.71
33.696
33.681
33.667
33.654
33.641
33.629
33.617
33.607
33.597
33.589
33.581
33.575
33.569
33.563
33.557
33.551
33.544
33.536
33.527
33.517
33.507
33.495
33.483
33.47
33.458
33.446
33.434
33.423
33.412
33.403
33.394
33.387
33.383
33.383
33.388
33.402
33.425
33.462
33.513
33.582
33.67
33.78
33.911
34.063
34.235
34.427
34.635
34.857
35.088
35.325
35.563
35.799
36.027
36.243
36.445
36.629
36.792
36.934
37.052
37.148
37.222
37.274
37.306
37.32
37.318
37.3
37.269
37.228
37.177
37.119
37.055
36.988
36.919
36.849
36.778
36.708
36.64
36.574
36.511
36.45
36.393
36.34
36.291
36.247
36.207
36.171
36.139
36.11
36.083
36.059
36.035
36.012
35.99
35.968
35.946
35.923
35.898
35.872
35.844
35.815
35.783
35.751
35.718
35.685
35.654
35.626
35.603
35.583
35.57
35.561
35.559
35.563
35.573
35.588
35.609
35.635
35.664
35.697
35.733
35.77
35.809
35.848
35.888
35.927
35.964
35.999
36.03
36.056
36.076
36.091
36.1
36.102
36.098
36.088
36.073
36.054
36.029
36.001
35.969
35.934
35.897
35.858
35.818
35.777
35.735
35.694
35.653
35.613
35.573
35.533
35.494
35.455
35.417
35.378
35.34
35.301
35.262
35.223
35.183
35.145
35.106
35.068
35.032
34.998
34.966
34.935
34.906
34.879
34.852
34.827
34.803
34.781
34.761
34.742
34.725
34.709
34.695
34.682
34.67
34.657
34.644
34.631
34.617
34.603
34.589
34.574
34.559
34.544
34.531
34.518
34.507
34.497
34.487
34.479
34.471
34.463
34.456
34.45
34.444
34.439
34.434
34.429
34.424
34.419
34.412
34.404
34.394
34.382
34.367
34.351
34.333
34.315
34.296
34.279
34.262
34.247
34.233
34.22
34.208
34.198
34.188
34.179
34.17
34.161
34.152
34.143
34.133
34.122
34.11
34.097
34.084
34.069
34.054
34.038
34.021
34.004
33.987
33.97
33.955
33.94
33.926
33.912
33.9
33.889
33.878
33.869
33.86
33.852
33.843
33.834
33.824
33.812
33.799
33.785
33.771
33.755
33.74
33.724
33.708
33.692
33.676
33.66
33.644
33.629
33.614
33.601
33.588
33.577
33.566
33.558
33.553
33.551
33.556
33.568
33.591
33.626
33.676
33.743
33.829
33.936
34.063
34.212
34.381
34.568
34.771
34.987
35.211
35.441
35.672
35.899
36.118
36.326
36.52
36.696
36.853
36.99
37.105
37.199
37.271
37.323
37.355
37.368
37.364
37.344
37.31
37.265
37.209
37.145
37.075
37.001
36.924
36.846
36.768
36.691
36.616
36.544
36.476
36.412
36.352
36.296
36.246
36.201
36.161
36.125
36.092
36.062
36.033
36.005
35.976
35.946
35.915
35.882
35.847
35.809
35.77
35.73
35.688
35.645
35.603
35.562
35.524
35.489
35.458
35.433
35.414
35.401
35.397
35.4
35.411
35.43
35.456
35.488
35.527
35.57
35.616
35.666
35.717
35.768
35.82
35.87
35.919
35.964
36.006
36.043
36.076
36.102
36.123
36.137
36.145
36.146
36.141
36.129
36.112
36.089
36.062
36.03
35.995
35.958
35.918
35.876
35.833
35.789
35.744
35.7
35.655
35.61
35.566
35.521
35.478
35.436
35.395
35.355
35.318
35.282
35.247
35.213
35.181
35.149
35.118
35.088
35.06
35.033
35.007
34.982
34.958
34.935
34.913
34.89
34.868
34.847
34.825
34.803
34.781
34.759
34.737
34.717
34.697
34.679
34.662
34.646
34.632
34.62
34.609
34.6
34.591
34.584
34.577
34.57
34.564
34.557
34.549
34.54
34.53
34.519
34.507
34.495
34.482
34.47
34.459
34.449
34.441
34.433
34.426
34.419
34.413
34.407
34.401
34.396
34.39
34.384
34.378
34.371
34.362
34.353
34.343
34.333
34.323
34.312
34.3
34.288
34.276
34.262
34.249
34.234
34.219
34.204
34.188
34.172
34.156
34.139
34.123
34.107
34.092
34.078
34.065
34.053
34.042
34.031
34.019
34.008
33.996
33.984
33.971
33.957
33.942
33.927
33.91
33.893
33.875
33.856
33.837
33.817
33.798
33.779
33.761
33.746
33.735
33.73
33.734
33.749
33.777
33.821
33.883
33.965
34.068
34.193
34.339
34.508
34.696
34.903
35.126
35.36
35.603
35.85
36.098
36.341
36.577
36.802
37.011
37.203
37.375
37.526
37.654
37.759
37.842
37.903
37.942
37.962
37.964
37.951
37.923
37.884
37.834
37.776
37.712
37.643
37.572
37.499
37.426
37.356
37.288
37.224
37.165
37.112
37.064
37.021
36.983
36.951
36.922
36.897
36.876
36.856
36.839
36.821
36.804
36.784
36.762
36.737
36.708
36.676
36.64
36.6
36.558
36.514
36.47
36.426
36.385
36.346
36.312
36.284
36.262
36.247
36.24
36.24
36.25
36.268
36.295
36.33
36.372
36.42
36.472
36.528
36.587
36.646
36.704
36.761
36.814
36.864
36.909
36.948
36.981
37.007
37.027
37.039
37.046
37.046
37.039
37.027
37.009
36.985
36.956
36.921
36.881
36.836
36.788
36.737
36.684
36.628
36.572
36.516
36.46
36.404
36.351
36.299
36.25
36.204
36.159
36.117
36.076
36.038
36.002
35.967
35.934
35.902
35.871
35.841
35.811
35.781
35.752
35.723
35.695
35.667
35.639
35.611
35.583
35.555
35.526
35.497
35.468
35.439
35.411
35.383
35.357
35.333
35.31
35.29
35.273
35.257
35.243
35.232
35.222
35.213
35.205
35.197
35.191
35.184
35.179
35.173
35.167
35.162
35.157
35.152
35.146
35.14
35.134
35.127
35.12
35.112
35.104
35.095
35.086
35.076
35.064
35.051
35.037
35.022
35.004
34.986
34.966
34.945
34.924
34.903
34.882
34.861
34.842
34.824
34.807
34.791
34.776
34.762
34.747
34.731
34.714
34.696
34.678
34.659
34.64
34.62
34.6
34.579
34.558
34.537
34.516
34.495
34.476
34.457
34.44
34.424
34.408
34.392
34.377
34.362
34.346
34.33
34.314
34.297
34.28
34.263
34.246
34.229
34.213
34.199
34.186
34.175
34.167
34.163
34.165
34.174
34.192
34.222
34.266
34.328
34.408
34.509
34.631
34.777
34.944
35.132
35.338
35.56
35.795
36.039
36.29
36.543
36.794
37.039
37.276
37.499
37.708
37.898
38.069
38.219
38.347
38.455
38.541
38.607
38.653
38.682
38.695
38.693
38.678
38.652
38.616
38.572
38.522
38.467
38.409
38.349
38.288
38.228
38.169
38.112
38.058
38.008
37.962
37.92
37.883
37.851
37.823
37.799
37.779
37.761
37.745
37.729
37.714
37.698
37.68
37.66
37.636
37.609
37.579
37.544
37.507
37.467
37.424
37.381
37.339
37.298
37.259
37.225
37.196
37.173
37.156
37.147
37.144
37.149
37.161
37.18
37.206
37.238
37.276
37.318
37.364
37.411
37.458
37.504
37.547
37.587
37.623
37.652
37.676
37.692
37.701
37.702
37.696
37.681
37.66
37.631
37.597
37.559
37.517
37.471
37.424
37.374
37.324
37.272
37.221
37.17
37.119
37.068
37.017
36.967
36.916
36.865
36.815
36.764
36.714
36.664
36.614
36.565
36.516
36.469
36.423
36.378
36.335
36.294
36.253
36.213
36.174
36.136
36.099
36.062
36.026
35.991
35.956
35.922
35.888
35.857
35.826
35.797
35.77
35.744
35.721
35.698
35.676
35.656
35.636
35.618
35.601
35.585
35.569
35.554
35.538
35.523
35.507
35.49
35.474
35.457
35.44
35.424
35.408
35.392
35.376
35.358
35.34
35.321
35.3
35.279
35.258
35.236
35.213
35.191
35.168
35.145
35.122
35.099
35.077
35.054
35.033
35.011
34.989
34.967
34.945
34.922
34.899
34.875
34.851
34.827
34.802
34.777
34.752
34.727
34.701
34.675
34.648
34.622
34.596
34.571
34.546
34.523
34.499
34.477
34.455
34.434
34.414
34.395
34.376
34.358
34.34
34.322
34.304
34.285
34.265
34.243
34.221
34.197
34.171
34.145
34.117
34.089
34.061
34.033
34.006
33.979
33.954
33.931
33.911
33.894
33.88
33.872
33.871
33.878
33.896
33.926
33.971
34.032
34.113
34.214
34.336
34.479
34.642
34.825
35.025
35.24
35.467
35.7
35.938
36.174
36.406
36.629
36.841
37.037
37.217
37.378
37.519
37.638
37.736
37.813
37.869
37.905
37.923
37.924
37.91
37.883
37.844
37.796
37.741
37.681
37.616
37.549
37.479
37.409
37.339
37.27
37.204
37.14
37.079
37.021
36.967
36.917
36.87
36.826
36.786
36.75
36.716
36.685
36.655
36.627
36.598
36.57
36.539
36.507
36.473
36.437
36.399
36.36
36.318
36.277
36.235
36.194
36.155
36.119
36.087
36.06
36.038
36.023
36.014
36.01
36.012
36.02
36.032
36.05
36.071
36.097
36.125
36.155
36.188
36.221
36.254
36.285
36.314
36.34
36.362
36.378
36.389
36.394
36.392
36.383
36.368
36.347
36.319
36.286
36.248
36.205
36.159
36.109
36.057
36.002
35.946
35.888
35.831
35.773
35.716
35.66
35.605
35.551
35.498
35.447
35.397
35.348
35.302
35.257
35.216
35.176
35.139
35.104
35.071
35.039
35.007
34.976
34.944
34.913
34.881
34.849
34.818
34.785
34.753
34.72
34.688
34.658
34.628
34.6
34.575
34.551
34.529
34.508
34.489
34.47
34.453
34.436
34.42
34.405
34.392
34.379
34.367
34.355
34.344
34.333
34.322
34.311
34.299
34.286
34.272
34.256
34.239
34.222
34.205
34.187
34.169
34.151
34.133
34.116
34.099
34.082
34.066
34.05
34.034
34.018
34.003
33.987
33.972
33.956
33.94
33.923
33.907
33.889
33.872
33.855
33.838
33.821
33.803
33.785
33.766
33.748
33.729
33.711
33.694
33.677
33.66
33.645
33.629
33.614
33.599
33.585
33.57
33.556
33.542
33.528
33.515
33.501
33.487
33.472
33.457
33.441
33.425
33.408
33.392
33.375
33.357
33.339
33.32
33.301
33.281
33.259
33.237
33.215
33.193
33.171
33.149
33.128
33.108
33.089
33.071
33.056
33.041
33.029
33.019
33.014
33.015
33.023
33.041
33.071
33.116
33.177
33.255
33.353
33.469
33.606
33.76
33.932
34.118
34.315
34.522
34.733
34.946
35.157
35.362
35.558
35.742
35.91
36.06
36.191
36.302
36.391
36.459
36.507
36.535
36.544
36.536
36.513
36.475
36.426
36.367
36.3
36.227
36.151
36.073
35.995
35.917
35.841
35.767
35.696
35.628
35.565
35.507
35.454
35.406
35.363
35.325
35.291
35.261
35.232
35.206
35.18
35.156
35.131
35.105
35.078
35.049
35.019
34.987
34.953
34.919
34.884
34.849
34.815
34.784
34.757
34.733
34.715
34.703
34.697
34.697
34.704
34.718
34.738
34.763
34.792
34.825
34.861
34.899
34.938
34.979
35.02
35.062
35.102
35.14
35.175
35.206
35.232
35.253
35.267
35.276
35.277
35.273
35.263
35.247
35.226
35.2
35.169
35.135
35.097
35.057
35.014
34.969
34.924
34.878
34.832
34.787
34.742
34.698
34.655
34.614
34.575
34.538
34.503
34.47
34.438
34.407
34.377
34.348
34.32
34.293
34.267
34.242
34.218
34.193
34.168
34.143
34.118
34.093
34.069
34.046
34.024
34.004
33.985
33.967
33.95
33.935
33.92
33.907
33.895
33.883
33.872
33.862
33.852
33.843
33.834
33.826
33.818
33.81
33.803
33.798
33.792
33.787
33.783
33.778
33.773
33.768
33.763
33.757
33.751
33.744
33.736
33.729
33.721
33.714
33.707
33.7
33.695
33.69
33.685
33.681
33.676
33.671
33.666
33.661
33.656
33.65
33.644
33.638
33.631
33.622
33.612
33.601
33.589
33.576
33.562
33.547
33.531
33.514
33.495
33.475
33.455
33.433
33.412
33.393
33.374
33.356
33.34
33.324
33.31
33.296
33.284
33.272
33.26
33.25
33.239
33.229
33.218
33.208
33.198
33.189
33.179
33.169
33.159
33.147
33.136
33.124
33.112
33.1
33.089
33.078
33.069
33.061
33.055
33.052
33.053
33.058
33.07
33.091
33.123
33.168
33.228
33.304
33.399
33.514
33.647
33.799
33.969
34.154
34.351
34.558
34.769
34.982
35.193
35.398
35.593
35.776
35.944
36.094
36.225
36.335
36.424
36.491
36.537
36.563
36.568
36.556
36.529
36.488
36.436
36.375
36.307
36.235
36.16
36.084
36.008
35.933
35.861
35.792
35.727
35.667
35.611
35.56
35.515
35.474
35.437
35.405
35.376
35.349
35.325
35.302
35.28
35.259
35.237
35.214
35.191
35.167
35.142
35.115
35.088
35.058
35.028
34.998
34.968
34.939
34.911
34.887
34.867
34.851
34.841
34.836
34.837
34.843
34.856
34.873
34.897
34.924
34.955
34.989
35.024
35.061
35.099
35.137
35.174
35.21
35.244
35.277
35.306
35.33
35.35
35.364
35.373
35.375
35.372
35.364
35.351
35.334
35.314
35.289
35.262
35.231
35.197
35.16
35.122
35.081
35.04
34.998
34.955
34.912
34.869
34.826
34.783
34.741
34.698
34.656
34.615
34.575
34.535
34.497
34.46
34.425
34.392
34.361
34.334
34.308
34.286
34.266
34.249
34.234
34.221
34.209
34.2
34.191
34.184
34.178
34.173
34.168
34.163
34.159
34.154
34.149
34.144
34.139
34.133
34.127
34.12
34.113
34.106
34.099
34.092
34.086
34.081
34.076
34.073
34.07
34.067
34.065
34.062
34.058
34.054
34.048
34.041
34.033
34.025
34.016
34.005
33.995
33.983
33.97
33.957
33.943
33.928
33.914
33.9
33.887
33.875
33.863
33.852
33.842
33.834
33.827
33.822
33.818
33.815
33.812
33.809
33.805
33.8
33.794
33.787
33.778
33.77
33.761
33.751
33.741
33.73
33.719
33.706
33.693
33.679
33.664
33.648
33.632
33.617
33.602
33.588
33.575
33.563
33.552
33.542
33.533
33.526
33.519
33.512
33.505
33.499
33.491
33.483
33.473
33.463
33.451
33.438
33.425
33.411
33.397
33.383
33.371
33.361
33.354
33.352
33.356
33.368
33.389
33.422
33.468
33.529
33.607
33.705
33.822
33.96
34.116
34.292
34.483
34.689
34.905
35.128
35.355
35.582
35.804
36.019
36.222
36.41
36.579
36.729
36.857
36.963
37.046
37.106
37.144
37.161
37.159
37.14
37.106
37.06
37.004
36.939
36.869
36.795
36.719
36.642
36.567
36.495
36.427
36.365
36.308
36.257
36.212
36.174
36.14
36.112
36.087
36.067
36.05
36.035
36.023
36.011
36.0
35.989
35.975
35.96
35.942
35.922
35.898
35.871
35.841
35.808
35.775
35.741
35.707
35.675
35.645
35.616
35.591
35.57
35.554
35.542
35.536
35.537
35.543
35.556
35.574
35.596
35.623
35.653
35.685
35.719
35.754
35.789
35.825
35.859
35.892
35.922
35.949
35.971
35.988
36.001
36.008
36.01
36.007
35.999
35.986
35.969
35.948
35.924
35.897
35.867
35.835
35.802
35.767
35.73
35.691
35.65
35.608
35.566
35.522
35.479
35.435
35.392
35.349
35.305
35.263
35.221
35.18
35.14
35.102
35.065
35.031
34.999
34.969
34.941
34.916
34.892
34.87
34.851
34.833
34.817
34.803
34.791
34.781
34.772
34.764
34.756
34.748
34.739
34.731
34.721
34.711
34.7
34.688
34.676
34.663
34.651
34.638
34.627
34.617
34.608
34.6
34.594
34.588
34.583
34.579
34.573
34.568
34.562
34.557
34.552
34.547
34.542
34.537
34.531
34.525
34.517
34.507
34.497
34.485
34.473
34.46
34.447
34.433
34.419
34.403
34.387
34.371
34.353
34.335
34.317
34.299
34.282
34.265
34.249
34.235
34.221
34.21
34.2
34.192
34.186
34.18
34.176
34.171
34.166
34.161
34.156
34.15
34.143
34.135
34.126
34.117
34.106
34.094
34.08
34.066
34.051
34.036
34.02
34.003
33.986
33.969
33.951
33.933
33.915
33.898
33.881
33.865
33.849
33.836
33.823
33.812
33.801
33.791
33.78
33.77
33.76
33.751
33.742
33.734
33.727
33.721
33.716
33.713
33.713
33.717
33.724
33.738
33.759
33.79
33.833
33.89
33.964
34.057
34.17
34.304
34.458
34.632
34.823
35.029
35.246
35.472
35.7
35.928
36.151
36.365
36.566
36.751
36.918
37.065
37.19
37.294
37.374
37.433
37.47
37.488
37.487
37.47
37.439
37.396
37.344
37.285
37.22
37.151
37.08
37.008
36.935
36.864
36.796
36.73
36.669
36.612
36.559
36.512
36.469
36.43
36.395
36.363
36.334
36.306
36.281
36.257
36.233
36.21
36.187
36.164
36.14
36.116
36.09
36.062
36.033
36.003
35.973
35.941
35.911
35.88
35.852
35.827
35.805
35.787
35.774
35.767
35.765
35.768
35.776
35.79
35.808
35.831
35.858
35.888
35.921
35.957
35.994
36.032
36.069
36.106
36.142
36.175
36.207
36.235
36.26
36.28
36.294
36.303
36.305
36.3
36.288
36.269
36.244
36.214
36.178
36.139
36.095
36.048
35.998
35.947
35.895
35.841
35.788
35.734
35.682
35.632
35.583
35.538
35.496
35.458
35.422
35.388
35.358
35.329
35.303
35.278
35.254
35.231
35.21
35.188
35.167
35.145
35.123
35.101
35.079
35.056
35.034
35.012
34.99
34.969
34.949
34.929
34.91
34.893
34.876
34.862
34.848
34.836
34.825
34.814
34.804
34.795
34.785
34.776
34.766
34.756
34.746
34.736
34.727
34.718
34.709
34.7
34.692
34.684
34.675
34.667
34.658
34.649
34.64
34.63
34.621
34.613
34.605
34.597
34.591
34.585
34.579
34.573
34.566
34.559
34.552
34.542
34.532
34.519
34.505
34.49
34.473
34.456
34.439
34.422
34.405
34.39
34.376
34.362
34.349
34.336
34.323
34.31
34.296
34.282
34.267
34.251
34.235
34.219
34.203
34.186
34.169
34.152
34.134
34.117
34.101
34.085
34.071
34.058
34.047
34.038
34.031
34.025
34.021
34.017
34.015
34.012
34.009
34.005
34.0
33.994
33.987
33.979
33.968
33.957
33.943
33.928
33.911
33.892
33.872
33.852
33.832
33.812
33.795
33.781
33.772
33.769
33.774
33.787
33.81
33.846
33.896
33.962
34.048
34.154
34.281
34.429
34.599
34.787
34.992
35.209
35.435
35.666
35.897
36.124
36.344
36.553
36.746
36.922
37.077
37.211
37.321
37.407
37.469
37.508
37.525
37.521
37.499
37.462
37.411
37.348
37.277
37.199
37.117
37.031
36.945
36.86
36.778
36.699
36.624
36.555
36.49
36.431
36.376
36.325
36.28
36.239
36.203
36.17
36.141
36.115
36.09
36.065
36.04
36.013
35.984
35.953
35.919
35.882
35.843
35.801
35.758
35.714
35.67
35.627
35.586
35.549
35.516
35.49
35.47
35.459
35.455
35.461
35.475
35.497
35.528
35.565
35.609
35.658
35.712
35.768
35.825
35.883
35.939
35.993
36.043
36.089
36.129
36.163
36.191
36.211
36.225
36.231
36.232
36.225
36.212
36.194
36.17
36.141
36.109
36.073
36.035
35.995
35.953
35.909
35.865
35.821
35.776
35.732
35.689
35.646
35.605
35.564
35.524
35.485
35.446
35.406
35.366
35.326
35.286
35.246
35.207
35.168
35.131
35.094
35.06
35.028
34.999
34.974
34.951
34.932
34.915
34.899
34.886
34.873
34.862
34.851
34.841
34.832
34.823
34.814
34.805
34.797
34.789
34.78
34.772
34.763
34.754
34.745
34.735
34.726
34.717
34.709
34.701
34.694
34.687
34.68
34.673
34.665
34.657
34.649
34.639
34.628
34.616
34.602
34.588
34.573
34.557
34.542
34.526
34.51
34.495
34.48
34.465
34.453
34.441
34.431
34.422
34.415
34.41
34.405
34.402
34.398
34.395
34.39
34.385
34.38
34.373
34.364
34.355
34.344
34.331
34.317
34.301
34.285
34.268
34.25
34.232
34.214
34.197
34.18
34.163
34.146
34.129
34.112
34.095
34.077
34.059
34.041
34.021
34.001
33.98
33.959
33.938
33.917
