Trial 1:0back
34.809
34.855
34.906
34.963
35.025
35.092
35.163
35.237
35.314
35.392
35.47
35.547
35.624
35.698
35.769
35.837
35.898
35.953
36.001
36.042
36.076
36.104
36.124
36.139
36.146
36.147
36.141
36.131
36.116
36.097
36.076
36.052
36.025
35.998
35.969
35.94
35.911
35.883
35.856
35.831
35.807
35.785
35.765
35.746
35.729
35.714
35.701
35.688
35.675
35.661
35.646
35.63
35.611
35.591
35.57
35.549
35.526
35.503
35.48
35.456
35.433
35.41
35.388
35.368
35.349
35.332
35.318
35.305
35.295
35.288
35.283
35.282
35.284
35.288
35.295
35.305
35.316
35.329
35.343
35.358
35.373
35.389
35.405
35.42
35.434
35.447
35.458
35.467
35.473
35.478
35.482
35.486
35.489
35.492
35.494
35.495
35.495
35.494
35.493
35.491
35.487
35.482
35.475
35.466
35.456
35.447
35.437
35.428
35.419
35.408
35.397
35.384
35.37
35.355
35.339
35.322
35.305
35.286
35.266
35.245
35.225
35.204
35.184
35.166
35.149
35.132
35.117
35.102
35.089
35.076
35.066
35.057
35.05
35.044
35.039
35.034
35.03
35.025
35.021
35.016
35.011
35.005
34.998
34.99
34.981
34.972
34.962
34.952
34.942
34.931
34.921
34.911
34.901
34.892
34.884
34.877
34.872
34.868
34.864
34.861
34.857
34.853
34.848
34.842
34.836
34.831
34.825
34.821
34.818
34.817
34.817
34.818
34.821
34.824
34.827
34.83
34.832
34.833
34.832
34.83
34.827
34.824
34.821
34.817
34.812
34.808
34.803
34.8
34.796
34.794
34.791
34.787
34.782
34.776
34.77
34.762
34.756
34.749
34.743
34.736
34.729
34.722
34.715
34.709
34.704
34.701
34.7
34.7
34.701
34.704
34.71
34.719
34.733
34.752
34.776
34.805
34.838
34.877
34.921
34.971
35.029
35.092
35.162
35.237
35.317
35.399
35.483
35.569
35.655
35.739
35.819
35.894
35.962
36.022
36.073
36.114
36.146
36.169
36.184
36.191
36.19
36.182
36.168
36.15
36.128
36.104
36.079
36.053
36.028
36.002
35.976
35.95
35.925
35.902
35.878
35.856
35.834
35.812
35.79
35.769
35.748
35.727
35.707
35.688
35.67
35.652
35.634
35.616
35.598
35.579
35.559
35.54
35.52
35.501
35.481
35.462
35.443
35.424
35.406
35.389
35.376
35.364
35.355
35.349
35.344
35.342
35.342
35.344
35.348
35.353
35.36
35.366
35.373
35.379
35.386
35.394
35.403
35.412
35.423
35.433
35.443
35.45
35.457
35.461
35.464
35.467
35.467
35.467
35.466
35.464
35.462
35.459
35.458
35.457
35.456
35.454
35.452
35.448
35.443
35.438
35.431
35.424
35.416
35.407
35.397
35.386
35.374
35.362
35.35
35.338
35.326
35.313
35.299
35.285
35.27
35.255
35.239
35.223
35.209
35.194
35.18
35.166
35.152
35.139
35.126
35.115
35.103
35.092
35.082
35.071
35.058
35.045
35.031
35.017
35.003
34.989
34.976
34.963
34.95
34.937
34.926
34.916
34.908
34.903
34.899
34.896
34.894
34.892
34.89
34.889
34.889
34.89
34.891
34.892
34.892
34.892
34.892
34.892
34.892
34.893
34.894
34.894
34.893
34.89
34.884
34.878
34.871
34.863
34.855
34.847
34.838
34.83
34.822
34.814
34.808
34.802
34.797
34.791
34.784
34.778
34.771
34.765
34.76
34.755
34.75
34.746
34.744
34.742
34.743
34.745
34.748
34.752
34.756
34.761
34.765
34.768
34.77
34.771
34.771
34.77
34.768
34.764
34.758
34.752
34.745
34.737
34.73
34.724
34.721
34.721
34.724
34.732
34.745
34.764
34.79
34.824
34.868
34.92
34.98
35.048
35.121
35.198
35.279
35.362
35.444
35.526
35.605
35.679
35.749
35.812
35.87
35.922
35.968
36.007
36.04
36.065
36.082
36.092
36.096
36.094
36.088
36.078
36.065
36.051
36.034
36.015
35.996
35.977
35.958
35.939
35.921
35.902
35.884
35.863
35.841
35.816
35.79
35.763
35.735
35.706
35.676
35.644
35.612
35.581
35.549
35.518
35.488
35.458
35.429
35.401
35.373
35.348
35.325
35.305
35.288
35.272
35.259
35.247
35.238
35.231
35.226
35.224
35.226
35.23
35.238
35.248
35.26
35.274
35.289
35.305
35.322
35.34
35.357
35.373
35.389
35.403
35.416
35.428
35.439
35.45
35.46
35.469
35.477
35.484
35.489
35.492
35.494
35.494
35.492
35.489
35.485
35.479
35.472
35.464
35.456
35.448
35.441
35.434
35.428
35.42
35.411
35.402
35.392
35.381
35.369
35.357
35.343
35.329
35.313
35.297
35.281
35.267
35.255
35.244
35.234
35.224
35.215
35.206
35.197
35.187
35.178
35.168
35.157
35.146
35.134
35.121
35.108
35.095
35.082
35.07
35.058
35.047
35.036
35.026
35.016
35.007
34.998
34.99
34.981
34.973
34.966
34.959
34.953
34.947
34.943
34.94
34.937
34.934
34.931
34.926
34.921
34.916
34.91
34.904
34.899
34.895
34.891
34.888
34.886
34.884
34.884
34.886
34.889
34.892
34.896
34.899
34.901
34.902
34.904
34.905
34.906
34.905
34.901
34.895
34.887
34.877
34.867
34.856
34.846
34.835
34.825
34.815
34.806
34.798
34.792
34.787
34.784
34.781
34.779
34.777
34.776
34.777
34.779
34.781
34.783
34.785
34.785
34.785
34.783
34.782
34.782
34.783
34.785
34.79
34.797
34.809
34.825
34.847
34.875
34.91
34.951
34.998
35.05
35.107
35.169
35.235
35.304
35.375
35.448
35.52
35.591
35.66
35.725
35.785
35.84
35.89
35.934
35.972
36.002
36.026
36.041
36.048
36.048
36.042
36.03
36.014
35.996
35.974
35.951
35.928
35.903
35.879
35.856
35.833
35.811
35.789
35.766
35.743
35.72
35.695
35.67
35.645
35.619
35.593
35.567
35.539
35.511
35.483
35.455
35.427
35.4
35.374
35.348
35.321
35.295
35.27
35.247
35.226
35.208
35.194
35.183
35.175
35.169
35.165
35.165
35.168
35.174
35.183
35.195
35.209
35.224
35.241
35.26
35.279
35.3
35.321
35.342
35.363
35.383
35.402
35.421
35.438
35.455
35.469
35.482
35.491
35.498
35.503
35.505
35.506
35.505
35.502
35.498
35.492
35.485
35.477
35.469
35.459
35.449
35.438
35.427
35.415
35.403
35.391
35.379
35.368
35.357
35.348
35.338
35.328
35.318
35.307
35.297
35.287
35.278
35.269
35.261
35.252
35.242
35.232
35.221
35.209
35.195
35.18
35.164
35.147
35.129
35.11
35.09
35.07
35.051
35.033
35.017
35.003
34.99
34.978
34.966
34.955
34.945
34.936
34.928
34.92
34.913
34.907
34.9
34.895
34.891
34.888
34.888
34.888
34.89
34.892
34.894
34.896
34.898
34.901
34.903
34.905
34.905
34.903
34.9
34.895
34.889
34.883
34.878
34.872
34.867
34.862
34.856
34.852
34.848
34.846
34.845
34.845
34.846
34.847
34.849
34.851
34.855
34.86
34.866
34.871
34.877
34.881
34.883
34.884
34.883
34.879
34.874
34.866
34.857
34.848
34.84
34.835
34.834
34.839
34.85
34.868
34.893
34.925
34.965
35.013
35.069
35.133
35.204
35.281
35.362
35.447
35.533
35.621
35.708
35.793
35.875
35.953
36.023
36.086
36.139
36.182
36.215
36.241
36.259
36.271
36.277
36.28
36.279
36.277
36.273
36.268
36.264
36.258
36.252
36.245
36.235
36.223
36.207
36.189
36.168
36.144
36.118
36.092
36.064
36.037
36.009
35.981
35.953
35.927
35.901
35.876
35.852
35.828
35.804
35.779
35.755
35.732
35.71
35.689
35.669
35.65
35.632
35.613
35.596
35.581
35.568
35.557
35.548
35.54
35.534
35.53
35.527
35.526
35.528
35.532
35.538
35.545
35.552
35.56
35.567
35.575
35.584
35.593
35.604
35.615
35.628
35.642
35.657
35.672
35.687
35.702
35.717
35.731
35.742
35.753
35.76
35.766
35.77
35.772
35.772
35.769
35.764
35.756
35.746
35.733
35.718
35.702
35.684
35.665
35.645
35.625
35.605
35.587
35.569
35.553
35.538
35.524
35.513
35.502
35.493
35.484
35.476
35.469
35.463
35.458
35.453
35.449
35.444
35.437
35.428
35.417
35.404
35.39
35.375
35.359
35.342
35.324
35.307
35.291
35.276
35.263
35.252
35.241
35.231
35.221
35.21
35.2
35.19
35.181
35.173
35.167
35.162
35.157
35.154
35.15
35.148
35.145
35.143
35.141
35.137
35.132
35.126
35.118
35.109
35.101
35.091
35.081
35.071
35.06
35.05
35.041
35.035
35.033
35.033
35.037
35.043
35.05
35.057
35.065
35.072
35.078
35.082
35.083
35.082
35.079
35.075
35.069
35.062
35.056
35.048
35.041
35.034
35.026
35.019
35.012
35.005
34.999
34.995
34.993
34.994
34.999
35.008
35.023
35.045
35.074
35.111
35.156
35.21
35.272
35.342
35.418
35.499
35.587
35.678
35.772
35.868
35.962
36.054
36.141
36.221
36.295
36.361
36.419
36.468
36.507
36.538
36.558
36.569
36.572
36.567
36.555
36.54
36.521
36.5
36.479
36.457
36.434
36.412
36.39
36.369
36.349
36.33
36.313
36.295
36.278
36.261
36.244
36.226
36.207
36.187
36.165
36.141
36.114
36.086
36.056
36.025
35.994
35.963
35.933
35.903
35.875
35.849
35.825
35.803
35.782
35.762
35.745
35.73
35.717
35.706
35.697
35.69
35.686
35.685
35.686
35.688
35.693
35.699
35.706
35.714
35.723
35.733
35.744
35.756
35.769
35.782
35.796
35.809
35.822
35.835
35.847
35.86
35.874
35.886
35.898
35.907
35.914
35.92
35.923
35.925
35.926
35.927
35.926
35.924
35.919
35.912
35.902
35.891
35.877
35.863
35.848
35.832
35.814
35.795
35.774
35.754
35.734
35.714
35.695
35.676
35.657
35.639
35.622
35.606
35.594
35.583
35.574
35.567
35.559
35.551
35.542
35.532
35.521
35.507
35.493
35.477
35.459
35.44
35.421
35.403
35.386
35.37
35.356
35.343
35.331
35.319
35.307
35.296
35.286
35.277
35.27
35.263
35.257
35.25
35.244
35.237
35.231
35.226
35.22
35.216
35.211
35.207
35.202
35.197
35.192
35.187
35.18
35.173
35.165
35.158
35.15
35.144
35.138
35.133
35.128
35.122
35.116
35.109
35.102
35.094
35.086
35.078
35.071
35.065
35.059
35.053
35.048
35.042
35.038
35.033
35.03
35.027
35.023
35.019
35.013
35.006
34.997
34.988
34.978
34.968
34.959
34.95
34.942
34.933
34.925
34.918
34.911
34.907
34.904
34.902
34.904
34.908
34.918
34.933
34.954
34.983
35.018
35.061
35.111
35.167
35.231
35.301
35.377
35.459
35.546
35.637
35.728
35.819
35.908
35.994
36.077
36.154
36.226
36.292
36.35
36.399
36.439
36.471
36.496
36.514
36.526
36.533
36.534
36.53
36.522
36.511
36.496
36.479
36.46
36.44
36.419
36.396
36.371
36.345
36.319
36.292
36.266
36.241
36.217
36.194
36.171
36.148
36.123
36.098
36.073
36.048
36.023
35.999
35.975
35.952
35.93
35.908
35.887
35.867
35.848
35.829
35.81
35.791
35.772
35.753
35.733
35.714
35.696
35.681
35.667
35.657
35.649
35.645
35.642
35.641
35.643
35.646
35.653
35.661
35.673
35.685
35.7
35.715
35.732
35.75
35.769
35.788
35.807
35.824
35.839
35.851
35.861
35.869
35.875
35.879
35.881
35.88
35.877
35.873
35.867
35.86
35.853
35.845
35.836
35.826
35.815
35.803
35.791
35.779
35.769
35.76
35.752
35.745
35.738
35.732
35.724
35.717
35.708
35.698
35.687
35.672
35.655
35.636
35.615
35.592
35.569
35.544
35.518
35.491
35.463
35.436
35.409
35.382
35.357
35.334
35.313
35.295
35.278
35.264
35.251
35.241
35.233
35.226
35.222
35.22
35.218
35.218
35.216
35.214
35.209
35.203
35.196
35.188
35.18
35.171
35.162
35.152
35.142
35.132
35.123
35.114
35.107
35.1
35.093
35.087
35.08
35.074
35.069
35.065
35.062
35.06
35.058
35.057
35.056
35.056
35.056
35.057
35.058
35.058
35.056
35.053
35.048
35.042
35.035
35.028
35.019
35.01
35.0
34.991
34.982
34.975
34.97
34.967
34.966
34.968
34.972
34.98
34.992
35.009
35.03
35.058
35.091
35.132
35.178
35.231
35.289
35.353
35.42
35.492
35.565
35.64
35.715
35.788
35.858
35.924
35.984
36.04
36.091
36.136
36.176
36.211
36.24
36.263
36.279
36.289
36.294
36.294
36.291
36.285
36.278
36.269
36.26
36.25
36.24
36.229
36.219
36.208
36.196
36.182
36.165
36.146
36.124
36.1
36.075
36.048
36.021
35.991
35.959
35.925
35.888
35.851
35.813
35.777
35.742
35.708
35.675
35.644
35.614
35.586
35.56
35.536
35.515
35.496
35.478
35.462
35.447
35.434
35.424
35.416
35.412
35.41
35.412
35.418
35.426
35.437
35.452
35.468
35.486
35.504
35.523
35.541
35.559
35.577
35.595
35.613
35.632
35.65
35.669
35.688
35.706
35.723
35.738
35.752
35.762
35.771
35.776
35.777
35.775
35.768
35.759
35.748
35.734
35.72
35.705
35.69
35.673
35.655
35.636
35.616
35.597
35.578
35.561
35.544
35.529
35.514
35.5
35.487
35.476
35.465
35.456
35.446
35.436
35.425
35.413
35.401
35.388
35.375
35.361
35.347
35.332
35.316
35.3
35.282
35.264
35.246
35.227
35.208
35.19
35.172
35.156
35.14
35.127
35.115
35.104
35.095
35.087
35.08
35.073
35.068
35.062
35.057
35.052
35.047
35.042
35.035
35.028
35.02
35.011
35.0
34.989
34.978
34.968
34.959
34.95
34.941
34.932
34.924
34.917
34.911
34.908
34.908
34.91
34.914
34.92
34.929
34.939
34.952
34.967
34.984
35.0
35.017
35.035
35.053
35.074
35.098
35.127
35.161
35.201
35.246
35.297
35.355
35.418
35.487
35.562
35.641
35.722
35.805
35.886
35.967
36.045
36.12
36.192
36.26
36.322
36.377
36.425
36.465
36.496
36.519
36.534
36.542
36.543
36.537
36.525
36.509
36.489
36.467
36.443
36.418
36.392
36.366
36.34
36.313
36.286
36.259
36.231
36.205
36.18
36.156
36.134
36.112
36.091
36.07
36.048
36.025
36.002
35.977
35.952
35.927
35.9
35.872
35.843
35.813
35.783
35.754
35.725
35.697
35.671
35.647
35.625
35.604
35.587
35.574
35.566
35.562
35.563
35.567
35.575
35.585
35.597
35.611
35.626
35.642
35.659
35.677
35.693
35.708
35.722
35.736
35.749
35.762
35.774
35.786
35.796
35.804
35.81
35.815
35.818
35.821
35.823
35.824
35.824
35.823
35.82
35.816
35.811
35.804
35.796
35.786
35.775
35.762
35.749
35.734
35.72
35.706
35.692
35.677
35.661
35.644
35.624
35.604
35.584
35.565
35.546
35.528
35.511
35.493
35.475
35.457
35.44
35.425
35.41
35.396
35.382
35.368
35.354
35.341
35.327
35.312
35.298
35.282
35.266
35.25
35.234
35.217
35.201
35.186
35.171
35.157
35.144
35.131
35.119
35.108
35.097
35.088
35.08
35.072
35.065
35.057
35.05
35.044
35.037
35.03
35.025
35.021
35.017
35.014
35.012
35.009
35.007
35.006
35.006
35.006
35.007
35.007
35.008
35.009
35.009
35.01
35.012
35.014
35.016
35.017
35.017
35.015
35.011
35.006
35.002
35.0
35.0
35.004
35.012
35.026
35.047
35.075
35.113
35.16
35.216
35.281
35.354
35.433
35.519
35.609
35.704
35.801
35.9
35.997
36.091
36.181
36.266
36.345
36.418
36.484
36.542
36.591
36.631
36.662
36.686
36.702
36.712
36.717
36.718
36.716
36.711
36.703
36.693
36.682
36.67
36.657
36.644
36.63
36.615
36.599
36.582
36.563
36.544
36.523
36.501
36.478
36.453
36.426
36.398
36.367
36.335
36.302
36.27
36.239
36.209
36.18
36.152
36.126
36.102
36.078
36.056
36.035
36.015
35.995
35.975
35.955
35.937
35.92
35.905
35.892
35.881
35.872
35.865
35.86
35.858
35.857
35.858
35.86
35.864
35.869
35.875
35.881
35.889
35.898
35.908
35.92
35.934
35.948
35.963
35.978
35.991
36.004
36.015
36.024
36.03
36.033
36.033
36.032
36.028
36.022
36.015
36.007
35.997
35.986
35.975
35.963
35.95
35.935
35.918
35.899
35.878
35.856
35.834
35.812
35.79
35.768
35.746
35.723
35.701
35.68
35.661
35.643
35.626
35.611
35.596
35.582
35.568
35.554
35.54
35.526
35.513
35.499
35.484
35.469
35.452
35.435
35.418
35.402
35.387
35.372
35.359
35.346
35.334
35.323
35.314
35.306
35.299
35.292
35.284
35.274
35.263
35.251
35.239
35.225
35.212
35.198
35.183
35.169
35.156
35.143
35.131
35.121
35.111
35.101
35.092
35.084
35.076
35.069
35.062
35.057
35.052
35.049
35.046
35.045
35.045
35.046
35.049
35.053
35.057
35.061
35.063
35.064
35.063
35.059
35.053
35.045
35.035
35.024
35.012
34.999
34.985
34.971
34.958
34.946
34.935
34.925
34.918
34.912
34.909
34.909
34.912
34.919
34.931
34.948
34.97
34.998
35.031
35.069
35.114
35.167
35.226
35.291
35.361
35.436
35.514
35.596
35.682
35.771
35.863
35.956
36.048
36.139
36.226
36.308
36.385
36.458
36.524
36.585
36.639
36.687
36.726
36.758
36.783
36.801
36.812
36.818
36.817
36.809
36.796
36.777
36.754
36.728
36.7
36.671
36.641
36.611
36.582
36.552
36.523
36.495
36.466
36.438
36.41
36.382
36.356
36.331
36.306
36.283
36.259
36.236
36.213
36.19
36.167
36.143
36.118
36.092
36.065
36.039
36.013
35.988
35.966
35.945
35.925
35.906
35.887
35.87
35.854
35.84
35.83
35.822
35.819
35.819
35.823
35.83
35.84
35.854
35.871
35.889
35.909
35.929
35.948
35.966
35.984
36.0
36.016
36.03
36.042
36.051
36.057
36.061
36.063
36.062
36.059
36.054
36.047
36.037
36.025
36.01
35.993
35.975
35.956
35.937
35.918
35.898
35.879
35.859
35.84
35.82
35.8
35.781
35.762
35.743
35.724
35.705
35.684
35.663
35.642
35.621
35.6
35.578
35.557
35.536
35.515
35.495
35.475
35.457
35.439
35.422
35.406
35.39
35.374
35.359
35.345
35.332
35.32
35.31
35.301
35.292
35.285
35.277
35.268
35.259
35.249
35.239
35.229
35.22
35.209
35.198
35.185
35.171
35.157
35.143
35.13
35.117
35.105
35.092
35.08
35.067
35.057
35.047
35.04
35.034
35.028
35.022
35.016
35.01
35.005
35.0
34.998
34.996
34.996
34.995
34.994
34.993
34.99
34.988
34.985
34.983
34.98
34.976
34.97
34.963
34.954
34.945
34.936
34.926
34.917
34.906
34.895
34.885
34.875
34.865
34.856
34.846
34.835
34.823
34.81
34.797
34.785
34.773
34.763
34.755
34.749
34.746
34.746
34.75
34.759
34.774
34.796
34.825
34.862
34.906
34.957
35.015
35.081
35.152
35.229
35.312
35.398
35.488
35.58
35.672
35.764
35.855
35.943
36.029
36.11
36.186
36.257
36.321
36.379
36.43
36.474
36.513
36.545
36.572
36.592
36.606
36.612
36.611
36.604
36.591
36.574
36.553
36.53
36.504
36.475
36.444
36.411
36.376
36.341
36.306
36.272
36.238
36.204
36.17
36.136
36.103
36.071
36.04
36.011
35.983
35.954
35.926
35.896
35.867
35.837
35.808
35.78
35.753
35.727
35.702
35.677
35.654
35.633
35.616
35.602
35.591
35.583
35.577
35.574
35.573
35.575
35.58
35.588
35.6
35.613
35.629
35.646
35.663
35.682
35.701
35.722
35.742
35.763
35.783
35.8
35.816
35.83
35.842
35.851
35.858
35.863
35.864
35.863
35.858
35.85
35.84
35.827
35.812
35.796
35.778
35.758
35.739
35.719
35.699
35.68
35.662
35.645
35.629
35.612
35.596
35.579
35.562
35.544
35.527
35.508
35.49
35.471
35.452
35.433
35.413
35.394
35.373
35.353
35.332
35.31
35.287
35.264
35.239
35.215
35.192
35.17
35.15
35.131
35.114
35.097
35.082
35.067
35.054
35.043
35.035
35.028
35.022
35.016
35.011
35.005
34.999
34.994
34.988
34.983
34.976
34.967
34.957
34.945
34.933
34.921
34.909
34.898
34.887
34.877
34.867
34.859
34.853
34.848
34.843
34.839
34.834
34.828
34.823
34.817
34.811
34.805
34.8
34.797
34.795
34.794
34.794
34.795
34.797
34.798
34.8
34.801
34.8
34.796
34.789
34.779
34.766
34.751
34.735
34.718
34.701
34.684
34.668
34.654
34.643
34.635
34.632
34.636
34.645
34.659
34.68
34.707
34.741
34.783
34.833
34.892
34.959
35.033
35.113
35.199
35.288
35.381
35.477
35.573
35.669
35.763
35.853
35.939
36.02
36.094
36.163
36.225
36.279
36.326
36.365
36.395
36.418
36.433
36.441
36.443
36.439
36.43
36.416
36.397
36.375
36.351
36.326
36.3
36.273
36.247
36.22
36.194
36.167
36.141
36.114
36.087
36.061
36.035
36.008
35.98
35.95
35.919
35.885
35.85
35.814
35.777
35.739
35.702
35.665
35.629
35.595
35.563
35.535
35.51
35.489
35.471
35.457
35.445
35.435
35.426
35.418
35.413
35.411
35.412
35.415
35.419
35.424
35.431
35.438
35.447
35.458
35.471
35.484
35.497
35.509
35.522
35.534
35.547
35.561
35.575
35.589
35.603
35.616
35.628
35.638
35.646
35.65
35.652
35.65
35.643
35.632
35.617
35.599
35.58
