Trial 1:0back
33.896
34.12
34.374
34.655
34.96
35.284
35.623
35.972
36.326
36.679
37.028
37.366
37.69
37.995
38.277
38.533
38.76
38.957
39.123
39.257
39.359
39.43
39.471
39.482
39.467
39.426
39.364
39.282
39.186
39.077
38.96
38.837
38.709
38.578
38.447
38.315
38.186
38.06
37.938
37.819
37.704
37.593
37.485
37.379
37.276
37.174
37.073
36.972
36.869
36.765
36.659
36.551
36.444
36.337
36.233
36.132
36.037
35.948
35.869
35.799
35.74
35.692
35.654
35.628
35.611
35.604
35.606
35.614
35.628
35.647
35.67
35.694
35.718
35.74
35.761
35.778
35.792
35.802
35.808
35.811
35.81
35.806
35.8
35.792
35.783
35.772
35.76
35.747
35.731
35.713
35.692
35.667
35.639
35.605
35.566
35.521
35.47
35.414
35.352
35.284
35.212
35.136
35.056
34.974
34.889
34.802
34.713
34.625
34.538
34.452
34.368
34.287
34.208
34.134
34.064
33.998
33.936
33.878
33.824
33.774
33.728
33.685
33.645
33.605
33.566
33.528
33.489
33.451
33.413
33.376
33.339
33.304
33.269
33.236
33.205
33.175
33.148
33.124
33.102
33.082
33.064
33.048
33.034
33.022
33.011
33.001
32.994
32.989
32.985
32.983
32.982
32.981
32.98
32.978
32.974
32.97
32.965
32.959
32.955
32.954
32.958
32.97
32.993
33.031
33.087
33.165
33.267
33.396
33.555
33.745
33.965
34.214
34.49
34.79
35.109
35.442
35.784
36.129
36.472
36.81
37.137
37.447
37.738
38.006
38.246
38.456
38.635
38.782
38.897
38.98
39.033
39.056
39.053
39.025
38.977
38.91
38.827
38.732
38.626
38.512
38.393
38.27
38.146
38.021
37.897
37.776
37.658
37.542
37.43
37.32
37.212
37.106
37.0
36.896
36.792
36.688
36.585
36.481
36.378
36.275
36.175
36.077
35.983
35.895
35.812
35.736
35.667
35.606
35.555
35.513
35.481
35.458
35.446
35.443
35.449
35.463
35.483
35.508
35.536
35.567
35.597
35.627
35.654
35.679
35.701
35.718
35.732
35.742
35.748
35.75
35.748
35.743
35.735
35.723
35.709
35.691
35.67
35.646
35.619
35.589
35.557
35.521
35.482
35.438
35.388
35.332
35.27
35.202
35.128
35.05
34.967
34.88
34.79
34.699
34.606
34.514
34.421
34.33
34.24
34.153
34.069
33.989
33.915
33.846
33.782
33.724
33.672
33.624
33.581
33.543
33.509
33.478
33.449
33.421
33.394
33.367
33.34
33.311
33.281
33.249
33.215
33.18
33.143
33.104
33.064
33.023
32.982
32.941
32.902
32.864
32.831
32.801
32.777
32.759
32.748
32.746
32.754
32.774
32.809
32.86
32.928
33.017
33.128
33.262
33.42
33.601
33.805
34.031
34.277
34.54
34.817
35.106
35.401
35.698
35.994
36.283
36.561
36.826
37.074
37.303
37.511
37.697
37.859
37.998
38.112
38.203
38.27
38.314
38.337
38.338
38.319
38.281
38.224
38.15
38.061
37.958
37.844
37.72
37.588
37.449
37.307
37.161
37.015
36.869
36.726
36.586
36.449
36.317
36.189
36.067
35.951
35.841
35.736
35.637
35.541
35.443
35.341
35.233
35.124
35.015
34.912
34.817
34.733
34.661
34.604
34.562
34.534
34.522
34.523
34.538
34.564
34.601
34.647
34.699
34.757
34.818
34.881
34.944
35.006
35.066
35.122
35.174
35.222
35.263
35.298
35.325
35.344
35.354
35.356
35.35
35.336
35.314
35.285
35.25
35.208
35.161
35.109
35.052
34.992
34.928
34.861
34.792
34.722
34.653
34.585
34.52
34.459
34.401
34.346
34.295
34.246
34.199
34.153
34.108
34.063
34.017
33.969
33.92
33.868
33.813
33.755
33.694
33.631
33.566
33.5
33.434
33.367
33.302
33.236
33.171
33.108
33.046
32.987
32.932
32.88
32.833
32.79
32.751
32.716
32.686
32.662
32.642
32.628
32.619
32.613
32.611
32.613
32.619
32.631
32.651
32.681
32.723
32.782
32.858
32.956
33.077
33.221
33.39
33.582
33.797
34.033
34.286
34.555
34.836
35.123
35.413
35.7
35.98
36.25
36.504
36.741
36.956
37.147
37.312
37.449
37.557
37.636
37.687
37.711
37.71
37.684
37.637
37.569
37.486
37.389
37.28
37.162
37.036
36.905
36.769
36.631
36.493
36.357
36.224
36.096
35.974
35.858
35.748
35.642
35.541
35.443
35.348
35.253
35.158
35.062
34.965
34.867
34.769
34.672
34.576
34.485
34.399
34.32
34.249
34.186
34.134
34.094
34.066
34.051
34.049
34.059
34.081
34.113
34.156
34.206
34.263
34.325
34.389
34.454
34.518
34.581
34.639
34.692
34.739
34.777
34.808
34.831
34.844
34.849
34.845
34.833
34.814
34.788
34.756
34.72
34.681
34.639
34.597
34.554
34.509
34.465
34.42
34.375
34.331
34.287
34.243
34.199
34.154
34.109
34.061
34.012
33.96
33.906
33.85
33.791
33.731
33.669
33.606
33.542
33.477
33.413
33.349
33.287
33.226
33.169
33.115
33.066
33.021
32.98
32.944
32.911
32.881
32.855
32.832
32.811
32.791
32.772
32.752
32.733
32.713
32.692
32.67
32.648
32.627
32.608
32.593
32.583
32.58
32.587
32.606
32.64
32.693
32.767
32.864
32.985
33.131
33.303
33.499
33.718
33.958
34.214
34.484
34.764
35.049
35.334
35.613
35.883
36.139
36.378
36.595
36.788
36.954
37.094
37.205
37.289
37.347
37.379
37.386
37.372
37.337
37.283
37.214
37.131
37.038
36.936
36.828
36.715
36.599
36.481
36.364
36.247
36.131
36.017
35.904
35.793
35.684
35.575
35.465
35.355
35.244
35.133
35.021
34.908
34.796
34.684
34.574
34.469
34.37
34.278
34.196
34.125
34.066
34.019
33.986
33.967
33.962
33.97
33.99
34.022
34.064
34.116
34.174
34.238
34.307
34.376
34.446
34.514
34.579
34.64
34.695
34.744
34.786
34.821
34.848
34.868
34.881
34.888
34.889
34.884
34.875
34.86
34.842
34.821
34.798
34.773
34.747
34.72
34.692
34.663
34.632
34.6
34.567
34.532
34.494
34.454
34.411
34.364
34.313
34.258
34.199
34.137
34.07
34.001
33.931
33.86
33.789
33.72
33.653
33.588
33.527
33.47
33.417
33.369
33.324
33.284
33.248
33.217
33.189
33.165
33.142
33.12
33.098
33.076
33.053
33.03
33.006
32.982
32.957
32.932
32.907
32.884
32.863
32.846
32.836
32.835
32.846
32.873
32.917
32.982
33.07
33.183
33.323
33.489
33.68
33.896
34.133
34.389
34.66
34.941
35.226
35.512
35.792
36.062
36.319
36.557
36.775
36.97
37.14
37.283
37.4
37.489
37.552
37.59
37.604
37.596
37.567
37.521
37.459
37.385
37.301
37.207
37.107
37.002
36.893
36.782
36.67
36.557
36.443
36.33
36.215
36.1
35.984
35.868
35.75
35.631
35.511
35.39
35.27
35.152
35.036
34.923
34.813
34.709
34.61
34.52
34.439
34.37
34.313
34.269
34.239
34.222
34.22
34.232
34.256
34.29
34.334
34.385
34.441
34.5
34.561
34.622
34.68
34.736
34.789
34.837
34.88
34.918
34.951
34.979
35.002
35.02
35.033
35.042
35.046
35.047
35.043
35.037
35.027
35.013
34.997
34.981
34.968
34.954
34.935
34.911
34.878
34.837
34.788
34.732
34.67
34.604
34.536
34.467
34.396
34.326
34.255
34.186
34.119
34.057
34.0
33.946
33.896
33.85
33.806
33.765
33.728
33.693
33.66
33.629
33.599
33.572
33.545
33.518
33.492
33.464
33.437
33.409
33.381
33.351
33.32
33.287
33.252
33.216
33.18
33.145
33.11
33.079
33.052
33.032
33.021
33.022
33.037
33.07
33.124
33.203
33.309
33.442
33.604
33.795
34.013
34.256
34.521
34.804
35.099
35.403
35.709
36.014
36.311
36.597
36.867
37.117
37.345
37.547
37.723
37.873
37.996
38.092
38.163
38.21
38.235
38.24
38.226
38.196
38.15
38.091
38.02
37.94
37.851
37.754
37.651
37.544
37.433
37.319
37.205
37.089
36.973
36.856
36.738
36.62
36.501
36.383
36.265
36.147
36.031
35.916
35.803
35.692
35.586
35.486
35.393
35.307
35.229
35.162
35.106
35.061
35.029
35.007
34.996
34.995
35.002
35.017
35.037
35.063
35.092
35.124
35.157
35.189
35.22
35.249
35.276
35.303
35.329
35.353
35.377
35.399
35.419
35.437
35.454
35.469
35.482
35.493
35.502
35.509
35.512
35.512
35.506
35.496
35.481
35.46
35.432
35.397
35.355
35.306
35.252
35.191
35.125
35.054
34.981
34.907
34.834
34.762
34.691
34.624
34.56
34.499
34.442
34.389
34.34
34.293
34.249
34.208
34.168
34.131
34.094
34.058
34.023
33.988
33.954
33.919
33.883
33.845
33.805
33.764
33.722
33.677
33.631
33.584
33.536
33.489
33.442
33.398
33.355
33.317
33.283
33.253
33.23
33.213
33.203
33.202
33.21
33.232
33.268
33.322
33.396
33.494
33.615
33.763
33.936
34.135
34.358
34.605
34.872
35.156
35.453
35.759
36.069
36.378
36.683
36.98
37.265
37.535
37.786
38.017
38.225
38.408
38.567
38.7
38.809
38.893
38.952
38.986
38.998
38.987
38.957
38.909
38.844
38.764
38.671
38.567
38.452
38.329
38.2
38.066
37.93
37.793
37.657
37.522
37.39
37.262
37.139
37.021
36.909
36.802
36.702
36.607
36.518
36.433
36.353
36.277
36.205
36.135
36.068
36.003
35.94
35.881
35.826
35.775
35.729
35.689
35.655
35.627
35.607
35.593
35.586
35.585
35.593
35.607
35.628
35.654
35.685
35.719
35.756
35.795
35.834
35.872
35.908
35.94
35.968
35.991
36.008
36.018
36.022
36.018
36.007
35.987
35.96
35.925
35.883
35.837
35.786
35.731
35.673
35.612
35.549
35.486
35.423
35.359
35.297
35.235
35.176
35.118
35.062
35.009
34.956
34.905
34.853
34.801
34.747
34.692
34.635
34.575
34.514
34.45
34.385
34.318
34.25
34.182
34.115
34.049
33.986
33.925
33.867
33.813
33.765
33.722
33.685
33.654
33.627
33.606
33.588
33.575
33.565
33.557
33.549
33.542
33.534
33.523
33.511
33.497
33.48
33.462
33.442
33.421
33.399
33.379
33.361
33.348
33.342
33.346
33.361
33.392
33.442
33.515
33.614
33.741
33.898
34.085
34.301
34.543
34.811
35.099
35.404
35.722
36.047
36.374
36.697
37.012
37.314
37.598
37.861
38.1
38.311
38.493
38.646
38.769
38.862
38.927
38.964
38.976
38.965
38.933
38.883
38.817
38.737
38.645
38.543
38.434
38.318
38.197
38.072
37.944
37.814
37.683
37.552
37.423
37.296
37.173
37.053
36.936
36.822
36.712
36.61
36.515
36.429
36.348
36.271
36.195
36.12
36.046
35.973
35.902
35.831
35.763
35.699
35.64
35.585
35.536
35.493
35.456
35.426
35.402
35.385
35.374
35.37
35.372
35.379
35.391
35.405
35.422
35.439
35.457
35.475
35.493
35.51
35.526
35.542
35.557
35.571
35.584
35.596
35.606
35.613
35.617
35.616
35.609
35.596
35.577
35.551
35.518
35.479
35.434
35.384
35.328
35.268
35.205
35.137
35.066
34.993
34.917
34.841
34.764
34.689
34.615
34.544
34.476
34.41
34.347
34.287
34.229
34.174
34.122
34.07
34.02
33.972
33.924
33.878
33.833
33.788
33.745
33.702
33.66
33.618
33.577
33.536
33.496
33.455
33.416
33.377
33.339
33.303
33.269
33.238
33.209
33.184
33.161
33.141
33.124
33.111
33.1
33.093
33.088
33.085
33.084
33.083
33.083
33.082
33.08
33.076
33.072
33.068
33.065
33.066
33.073
33.088
33.114
33.156
33.217
33.301
33.411
33.549
33.717
33.914
34.14
34.391
34.667
34.963
35.274
35.596
35.924
36.253
36.576
36.889
37.185
37.462
37.714
37.939
38.135
38.3
38.434
38.537
38.609
38.651
38.666
38.655
38.621
38.567
38.495
38.408
38.309
38.2
38.085
37.965
37.841
37.716
37.591
37.466
37.343
37.222
37.104
36.989
36.877
36.767
36.659
36.553
36.449
36.346
36.245
36.145
36.045
35.946
35.85
35.755
35.664
35.578
35.498
35.424
35.359
35.303
35.256
35.22
35.194
35.178
35.172
35.176
35.187
35.206
35.231
35.261
35.295
35.33
35.367
35.404
35.439
35.471
35.502
35.529
35.553
35.574
35.592
35.607
35.62
35.629
35.636
35.641
35.643
35.642
35.638
35.63
35.618
35.602
35.579
35.552
35.518
35.478
35.433
35.382
35.326
35.266
35.201
35.133
35.061
34.986
34.909
34.829
34.748
34.666
34.584
34.503
34.424
34.346
34.271
34.198
34.13
34.065
34.005
33.948
33.896
33.847
33.802
33.76
33.722
33.687
33.653
33.62
33.587
33.555
33.522
33.489
33.455
33.421
33.386
33.349
33.312
33.274
33.236
33.199
33.162
33.128
33.095
33.065
33.039
33.016
32.998
32.985
32.978
32.977
32.984
33.0
33.027
33.066
33.119
33.188
33.274
33.379
33.505
33.652
33.821
34.012
34.224
34.455
34.705
34.968
35.243
35.524
35.808
36.091
36.368
36.637
36.893
37.134
37.357
37.561
37.745
37.906
38.044
38.158
38.249
38.317
38.361
38.381
38.38
38.357
38.314
38.253
38.174
38.079
37.97
37.848
37.716
37.575
37.427
37.275
37.12
36.965
36.811
36.661
36.516
36.377
36.245
36.12
36.003
35.893
35.79
35.693
35.602
35.515
35.434
35.356
35.283
35.215
35.151
35.092
35.038
34.99
34.947
34.91
34.879
34.853
34.834
34.821
34.815
34.816
34.824
34.84
34.862
34.889
34.923
34.961
35.003
35.049
35.095
35.143
35.19
35.235
35.278
35.318
35.354
35.384
35.408
35.424
35.433
35.433
35.425
35.409
35.385
35.353
35.314
35.268
35.216
35.159
35.098
35.034
34.968
34.901
34.833
34.764
34.695
34.628
34.563
34.5
34.439
34.381
34.323
34.266
34.21
34.154
34.098
34.041
33.984
33.927
33.87
33.813
33.756
33.7
33.645
33.59
33.536
33.484
33.435
33.388
33.345
33.306
33.271
33.24
33.213
33.189
33.168
33.15
33.135
33.121
33.108
33.095
33.083
33.07
33.057
33.042
33.026
33.008
32.989
32.968
32.948
32.929
32.912
32.897
32.888
32.885
32.893
32.913
32.948
33.002
33.079
33.18
33.31
33.468
33.655
33.871
34.113
34.379
34.665
34.967
35.28
35.598
35.916
36.23
36.534
36.824
37.096
37.346
37.572
37.773
37.952
38.109
38.239
38.341
38.412
38.453
38.465
38.452
38.416
38.361
38.288
38.202
38.103
37.996
37.881
37.762
37.64
37.517
37.394
37.272
37.151
37.032
36.913
36.795
36.678
36.563
36.449
36.336
36.226
36.118
36.012
35.91
35.812
35.719
35.631
35.548
35.471
35.401
35.338
35.282
35.234
35.195
35.164
35.142
35.128
35.123
35.125
35.135
35.15
35.169
35.19
35.214
35.238
35.261
35.285
35.307
35.328
35.347
35.364
35.379
35.392
35.403
35.411
35.416
35.419
35.419
35.418
35.414
35.409
35.402
35.393
35.383
35.37
35.354
35.334
35.31
35.28
35.245
35.203
35.155
35.101
35.041
34.975
34.905
34.831
34.755
34.676
34.595
34.513
34.43
34.348
34.267
34.188
34.113
34.042
33.976
33.914
33.857
33.803
33.754
33.71
33.669
33.633
33.601
33.571
33.543
33.517
33.491
33.466
33.44
33.414
33.387
33.36
33.332
33.303
33.273
33.243
33.212
33.18
33.147
33.115
33.085
33.056
33.031
33.008
32.99
32.975
32.964
32.957
32.955
32.958
32.964
32.973
32.986
33.0
33.016
33.033
33.05
33.068
33.091
33.118
33.154
33.201
33.263
33.342
33.443
33.568
33.718
33.894
34.095
34.319
34.564
34.828
35.106
35.394
35.689
35.985
36.279
36.567
36.843
37.103
37.343
37.559
37.749
37.913
38.048
38.154
38.232
38.282
38.305
38.302
38.277
38.231
38.168
38.089
37.998
37.897
37.788
37.673
37.556
37.437
37.318
37.202
37.089
36.982
36.879
36.783
36.693
36.608
36.529
36.455
36.384
36.316
36.248
36.181
36.113
36.044
35.974
35.902
35.829
35.756
35.684
35.613
35.547
35.485
35.429
35.38
35.339
35.307
35.284
35.269
35.262
35.264
35.273
35.289
35.309
35.333
35.36
35.389
35.418
35.445
35.47
35.492
35.51
35.524
35.533
35.536
35.535
35.529
35.518
35.504
35.485
35.464
35.439
35.413
35.386
35.358
35.329
35.298
35.267
35.235
35.203
35.171
35.137
35.102
35.065
35.025
34.983
34.937
34.888
34.835
34.779
34.719
34.655
34.589
34.521
34.451
34.381
34.311
34.241
34.171
34.104
34.039
33.977
33.919
33.866
33.817
33.773
33.733
33.697
33.667
33.641
33.62
33.603
33.59
33.58
33.572
33.566
33.56
33.554
33.546
33.535
33.524
33.511
33.496
33.48
33.463
33.446
33.428
33.408
33.388
33.368
33.347
33.328
33.311
33.297
33.284
33.274
33.265
33.258
33.253
33.25
33.249
33.249
33.25
33.253
33.258
33.265
33.274
33.288
33.307
33.336
33.378
33.434
33.509
33.605
33.723
33.864
34.028
34.214
34.422
34.648
34.891
35.146
35.411
35.682
35.954
36.223
36.487
36.741
36.982
37.206
37.41
37.591
37.747
37.877
37.978
38.052
38.097
38.116
38.109
38.078
38.025
37.954
37.867
37.768
37.659
37.545
37.426
37.306
37.186
37.069
36.956
36.848
36.745
36.649
36.56
36.477
36.4
36.329
36.263
36.201
36.142
36.084
36.026
35.967
35.907
35.844
35.779
35.711
35.642
35.573
35.504
35.438
35.375
35.317
35.265
35.222
35.187
35.161
35.144
35.135
35.135
35.142
35.155
35.174
35.198
35.224
35.252
35.28
35.309
35.336
35.36
35.382
35.401
35.415
35.425
35.431
35.432
35.43
35.425
35.415
35.401
35.382
35.359
35.333
35.305
35.274
35.242
35.209
35.175
35.141
35.106
35.07
35.033
34.994
34.953
34.91
34.864
34.815
34.762
34.706
34.647
34.585
34.519
34.45
34.379
34.305
34.232
34.16
34.09
34.023
33.958
33.898
33.842
33.79
33.743
33.701
33.664
33.63
33.601
33.577
33.555
33.536
33.519
33.503
33.488
33.474
33.459
33.444
33.429
33.412
33.396
33.378
33.359
33.34
33.32
33.302
33.285
33.269
33.254
33.24
33.227
33.215
33.206
33.199
33.195
33.194
33.195
33.199
33.205
33.214
33.224
33.236
33.247
33.258
33.267
33.274
33.277
33.277
33.273
33.264
33.251
33.234
33.214
33.192
33.166
33.14
33.115
33.092
33.073
33.062
33.059
33.069
33.095
33.14
33.207
33.298
33.415
33.559
33.73
33.926
34.147
34.387
34.644
34.913
35.189
35.468
35.744
36.012
36.269
36.511
36.734
36.936
37.115
37.269
37.399
37.503
37.583
37.637
37.667
37.676
37.666
37.639
37.597
37.544
37.481
37.41
37.332
37.25
37.163
37.073
36.981
36.886
36.791
36.694
36.597
36.5
36.405
36.31
36.218
36.127
36.037
35.949
35.864
35.781
35.7
35.621
35.544
35.47
35.4
35.334
35.273
35.219
35.171
35.131
35.099
35.076
35.06
35.052
35.05
35.055
35.066
35.082
35.101
35.122
35.146
35.17
35.195
35.221
35.246
35.27
35.293
35.316
35.339
35.361
35.383
35.405
35.427
35.448
35.468
35.486
35.501
35.514
35.525
35.54
35.565
35.598
35.639
35.68
35.716
35.741
35.751
35.745
35.719
35.672
35.607
35.525
35.428
35.318
35.199
35.075
34.949
34.826
34.707
34.596
34.495
34.407
34.331
34.267
34.215
34.172
34.137
34.109
34.085
34.064
34.043
34.021
33.998
33.974
33.95
33.924
33.898
33.871
33.843
33.815
33.786
33.756
33.724
33.692
33.66
33.628
33.597
33.568
33.54
33.514
33.491
33.471
33.454
33.439
33.428
33.419
33.413
33.41
33.411
33.413
33.417
33.421
33.426
33.43
33.434
33.436
33.438
33.438
33.439
33.44
33.443
33.449
33.461
33.48
33.509
33.551
33.608
33.683
33.777
33.892
34.029
34.188
34.368
34.566
34.782
35.012
35.253
35.502
35.753
36.003
36.248
36.483
36.705
36.91
37.095
37.259
37.4
37.516
37.606
37.672
37.713
37.731
37.727
37.704
37.663
37.607
37.538
37.459
37.372
37.28
37.183
37.083
36.982
36.88
36.778
36.678
36.58
36.484
36.391
36.299
36.211
36.123
36.037
35.952
35.868
35.785
35.7
35.614
35.526
35.438
35.351
35.267
35.188
35.113
35.044
34.983
34.931
34.889
34.858
34.838
34.83
34.833
34.847
34.872
34.905
34.945
34.992
35.042
35.095
35.148
35.199
35.247
35.291
35.331
35.366
35.395
35.419
35.438
35.452
35.462
35.466
35.466
35.461
35.453
35.442
35.428
35.412
35.394
35.374
35.354
35.334
35.312
35.289
35.263
35.234
35.201
35.163
35.121
35.074
35.023
34.967
34.908
34.846
34.78
34.712
34.641
34.571
34.501
34.432
34.366
34.303
34.244
34.188
34.137
34.09
34.046
34.007
33.97
33.937
33.908
33.881
33.857
33.836
33.816
33.797
33.781
33.765
33.75
33.735
33.719
33.702
33.684
33.665
33.645
33.623
33.599
33.575
33.55
33.525
33.502
33.479
33.458
33.439
33.422
33.409
33.399
33.392
33.388
33.386
33.386
33.387
33.389
33.391
33.393
33.394
33.396
33.398
33.4
33.404
33.411
33.423
33.441
33.468
33.506
33.555
33.62
33.703
33.807
33.932
34.081
34.253
34.448
34.664
34.899
