Trial 1:0back
39.594
39.373
39.151
38.93
38.709
38.49
38.271
38.055
37.841
37.629
37.42
37.213
37.01
36.81
36.615
36.425
36.24
36.061
35.887
35.719
35.555
35.396
35.242
35.093
34.948
34.808
34.674
34.546
34.423
34.307
34.198
34.097
34.005
33.924
33.855
33.8
33.76
33.738
33.734
33.75
33.785
33.838
33.908
33.993
34.091
34.199
34.314
34.435
34.559
34.686
34.812
34.937
35.059
35.178
35.294
35.405
35.512
35.612
35.705
35.788
35.86
35.921
35.968
36.001
36.018
36.019
36.003
35.971
35.923
35.861
35.788
35.708
35.622
35.533
35.443
35.355
35.269
35.183
35.098
35.012
34.923
34.831
34.733
34.63
34.521
34.405
34.285
34.161
34.035
33.907
33.78
33.654
33.532
33.415
33.302
33.193
33.09
32.992
32.897
32.806
32.718
32.631
32.546
32.463
32.383
32.306
32.233
32.164
32.101
32.043
31.99
31.943
31.899
31.859
31.823
31.792
31.766
31.747
31.735
31.731
31.735
31.746
31.762
31.781
31.803
31.827
31.852
31.878
31.905
31.934
31.965
31.998
32.033
32.069
32.106
32.142
32.178
32.213
32.245
32.277
32.306
32.332
32.356
32.377
32.395
32.412
32.426
32.439
32.448
32.455
32.458
32.458
32.457
32.455
32.453
32.454
32.458
32.468
32.485
32.511
32.551
32.608
32.689
32.799
32.944
33.125
33.349
33.623
33.95
34.333
34.772
35.262
35.798
36.37
36.966
37.573
38.178
38.767
39.328
39.85
40.322
40.737
41.088
41.372
41.588
41.738
41.825
41.852
41.825
41.748
41.629
41.475
41.291
41.085
40.863
40.632
40.395
40.156
39.919
39.684
39.455
39.231
39.011
38.796
38.584
38.375
38.168
37.962
37.757
37.552
37.346
37.14
36.934
36.726
36.52
36.321
36.132
35.952
35.78
35.612
35.447
35.282
35.115
34.946
34.773
34.597
34.422
34.248
34.08
33.92
33.773
33.642
33.532
33.445
33.384
33.35
33.345
33.366
33.414
33.486
33.58
33.693
33.824
33.968
34.122
34.284
34.45
34.618
34.785
34.95
35.11
35.264
35.41
35.548
35.675
35.792
35.897
35.988
36.065
36.127
36.174
36.204
36.217
36.213
36.193
36.158
36.109
36.049
35.981
35.904
35.82
35.731
35.636
35.538
35.437
35.332
35.226
35.117
35.008
34.898
34.787
34.675
34.561
34.445
34.326
34.205
34.083
33.959
33.837
33.715
33.596
33.478
33.364
33.252
33.144
33.039
32.938
32.841
32.747
32.658
32.575
32.495
32.419
32.347
32.277
32.21
32.146
32.085
32.028
31.975
31.926
31.882
31.842
31.806
31.774
31.745
31.72
31.698
31.679
31.663
31.652
31.644
31.64
31.641
31.648
31.659
31.674
31.693
31.716
31.742
31.769
31.796
31.82
31.843
31.864
31.885
31.906
31.929
31.953
31.98
32.01
32.041
32.071
32.1
32.126
32.15
32.171
32.191
32.21
32.23
32.253
32.282
32.319
32.369
32.438
32.531
32.653
32.813
33.014
33.263
33.562
33.912
34.313
34.763
35.256
35.785
36.341
36.915
37.496
38.072
38.633
39.167
39.665
40.119
40.523
40.871
41.16
41.389
41.558
41.667
41.719
41.72
41.673
41.584
41.459
41.303
41.121
40.918
40.701
40.471
40.232
39.987
39.738
39.487
39.235
38.984
38.732
38.482
38.233
37.986
37.74
37.497
37.257
37.02
36.785
36.554
36.326
36.1
35.876
35.655
35.436
35.219
35.006
34.798
34.593
34.395
34.204
34.021
33.847
33.683
33.529
33.388
33.261
33.149
33.053
32.977
32.921
32.888
32.879
32.895
32.937
33.004
33.095
33.208
33.341
33.493
33.66
33.841
34.032
34.232
34.437
34.646
34.855
35.061
35.263
35.457
35.642
35.814
35.971
36.112
36.236
36.342
36.428
36.494
36.54
36.566
36.573
36.562
36.536
36.496
36.444
36.383
36.312
36.235
36.152
36.064
35.973
35.879
35.783
35.685
35.586
35.485
35.38
35.271
35.158
35.04
34.917
34.791
34.661
34.53
34.398
34.268
34.14
34.017
33.9
33.788
33.681
33.578
33.479
33.383
33.289
33.199
33.114
33.033
32.959
32.891
32.828
32.769
32.716
32.666
32.62
32.576
32.533
32.492
32.453
32.416
32.38
32.345
32.313
32.283
32.256
32.232
32.213
32.197
32.185
32.174
32.164
32.155
32.147
32.14
32.134
32.132
32.132
32.137
32.149
32.167
32.195
32.233
32.286
32.358
32.453
32.578
32.74
32.944
33.196
33.5
33.858
34.269
34.731
35.237
35.781
36.353
36.941
37.535
38.122
38.692
39.233
39.736
40.193
40.598
40.944
41.229
41.45
41.609
41.708
41.75
41.741
41.685
41.586
41.452
41.288
41.099
40.89
40.668
40.435
40.196
39.954
39.711
39.468
39.228
38.989
38.751
38.515
38.279
38.042
37.806
37.569
37.333
37.098
36.865
36.633
36.403
36.175
35.949
35.724
35.501
35.28
35.061
34.844
34.631
34.42
34.214
34.012
33.817
33.631
33.455
33.292
33.145
33.018
32.912
32.829
32.773
32.744
32.742
32.766
32.815
32.889
32.984
33.098
33.23
33.377
33.536
33.707
33.888
34.076
34.27
34.467
34.667
34.864
35.058
35.245
35.423
35.588
35.738
35.871
35.985
36.08
36.153
36.205
36.235
36.245
36.235
36.21
36.171
36.122
36.065
36.004
35.94
35.875
35.808
35.74
35.669
35.594
35.515
35.429
35.335
35.235
35.127
35.013
34.893
34.768
34.64
34.51
34.381
34.253
34.128
34.006
33.885
33.766
33.65
33.535
33.424
33.315
33.217
33.133
33.061
33.002
32.952
32.908
32.866
32.824
32.78
32.732
32.679
32.62
32.556
32.489
32.419
32.348
32.278
32.21
32.145
32.084
32.029
31.979
31.936
31.898
31.867
31.842
31.822
31.806
31.794
31.785
31.778
31.774
31.774
31.778
31.787
31.8
31.818
31.84
31.867
31.902
31.946
32.004
32.081
32.184
32.32
32.497
32.722
33.001
33.339
33.737
34.195
34.71
35.273
35.874
36.502
37.144
37.786
38.416
39.019
39.586
40.105
40.569
40.971
41.307
41.576
41.777
41.913
41.987
42.004
41.97
41.89
41.773
41.623
41.447
41.25
41.037
40.814
40.584
40.351
40.116
39.882
39.65
39.42
39.193
38.97
38.75
38.534
38.321
38.113
37.908
37.709
37.513
37.32
37.13
36.942
36.756
36.57
36.385
36.201
36.018
35.836
35.652
35.467
35.282
35.096
34.912
34.731
34.555
34.389
34.233
34.091
33.966
33.858
33.77
33.702
33.653
33.622
33.608
33.613
33.634
33.673
33.73
33.804
33.895
34.003
34.126
34.263
34.41
34.566
34.726
34.886
35.045
35.2
35.347
35.486
35.613
35.726
35.826
35.911
35.982
36.038
36.079
36.107
36.121
36.123
36.115
36.098
36.073
36.04
36.0
35.952
35.897
35.835
35.766
35.692
35.613
35.528
35.438
35.341
35.239
35.132
35.019
34.902
34.782
34.659
34.536
34.411
34.287
34.163
34.04
33.92
33.802
33.687
33.576
33.467
33.36
33.257
33.156
33.058
32.963
32.873
32.788
32.706
32.628
32.554
32.483
32.416
32.353
32.292
32.236
32.183
32.135
32.092
32.055
32.022
31.994
31.971
31.953
31.939
31.93
31.925
31.925
31.937
31.966
32.01
32.063
32.122
32.182
32.238
32.285
32.32
32.341
32.347
32.34
32.32
32.291
32.256
32.219
32.187
32.167
32.166
32.193
32.256
32.362
32.519
32.734
33.01
33.349
33.75
34.21
34.723
35.28
35.87
36.482
37.103
37.718
38.315
38.881
39.407
39.883
40.302
40.66
40.954
41.185
41.352
41.459
41.51
41.509
41.462
41.374
41.251
41.098
40.922
40.727
40.518
40.301
40.078
39.852
39.626
39.4
39.179
38.961
38.749
38.542
38.341
38.147
37.958
37.774
37.593
37.415
37.238
37.059
36.88
36.698
36.515
36.329
36.143
35.957
35.77
35.586
35.404
35.226
35.054
34.887
34.729
34.579
34.438
34.307
34.186
34.076
33.978
33.892
33.817
33.756
33.709
33.676
33.66
33.662
33.682
33.722
33.779
33.847
33.923
34.005
34.094
34.194
34.304
34.426
34.556
34.694
34.836
34.979
35.119
35.255
35.382
35.499
35.605
35.699
35.781
35.852
35.91
35.956
35.99
36.013
36.023
36.022
36.007
35.981
35.942
35.893
35.836
35.771
35.701
35.626
35.547
35.466
35.384
35.299
35.213
35.126
35.036
34.945
34.851
34.756
34.658
34.559
34.459
34.359
34.257
34.155
34.053
33.952
33.851
33.751
33.653
33.556
33.463
33.372
33.286
33.203
33.122
33.046
32.973
32.905
32.843
32.786
32.734
32.687
32.645
32.607
32.573
32.542
32.515
32.491
32.471
32.454
32.442
32.433
32.428
32.426
32.427
32.432
32.437
32.443
32.449
32.455
32.46
32.464
32.468
32.472
32.476
32.482
32.491
32.506
32.527
32.556
32.596
32.65
32.72
32.811
32.93
33.082
33.274
33.512
33.799
34.138
34.528
34.968
35.451
35.969
36.512
37.069
37.629
38.18
38.712
39.213
39.676
40.093
40.459
40.77
41.023
41.219
41.36
41.448
41.485
41.477
41.428
41.343
41.227
41.083
40.916
40.73
40.529
40.318
40.101
39.88
39.659
39.438
39.22
39.006
38.795
38.59
38.391
38.195
38.003
37.814
37.628
37.444
37.263
37.084
36.907
36.731
36.557
36.384
36.212
36.041
35.87
35.701
35.533
35.368
35.206
35.049
34.899
34.756
34.621
34.497
34.383
34.281
34.193
34.118
34.059
34.017
33.993
33.988
34.003
34.036
34.088
34.156
34.241
34.34
34.45
34.57
34.697
34.83
34.965
35.102
35.239
35.372
35.499
35.62
35.732
35.835
35.928
36.01
36.081
36.141
36.192
36.232
36.262
36.28
36.287
36.283
36.268
36.243
36.209
36.165
36.112
36.052
35.985
35.912
35.833
35.749
35.662
35.57
35.475
35.376
35.274
35.17
35.064
34.957
34.85
34.742
34.635
34.527
34.42
34.313
34.207
34.102
33.999
33.898
33.8
33.706
33.615
33.527
33.441
33.358
33.278
33.201
33.128
33.06
32.995
32.935
32.88
32.827
32.779
32.733
32.691
32.651
32.612
32.576
32.542
32.511
32.483
32.459
32.438
32.421
32.409
32.402
32.398
32.399
32.403
32.41
32.419
32.429
32.439
32.449
32.458
32.468
32.478
32.49
32.504
32.521
32.542
32.57
32.605
32.651
32.71
32.789
32.892
33.027
33.2
33.417
33.684
34.003
34.376
34.799
35.269
35.78
36.323
36.887
37.463
38.037
38.598
39.135
39.638
40.098
40.508
40.861
41.155
41.387
41.558
41.669
41.723
41.726
41.683
41.598
41.478
41.327
41.152
40.956
40.746
40.527
40.301
40.075
39.85
39.628
39.41
39.197
38.99
38.787
38.59
38.396
38.206
38.019
37.834
37.652
37.473
37.296
37.123
36.953
36.786
36.622
36.462
36.304
36.148
35.994
35.841
35.69
35.54
35.391
35.245
35.103
34.966
34.835
34.712
34.599
34.496
34.406
34.33
34.268
34.224
34.198
34.191
34.204
34.235
34.283
34.348
34.428
34.519
34.621
34.732
34.848
34.969
35.091
35.214
35.336
35.455
35.569
35.678
35.78
35.874
35.96
36.036
36.102
36.157
36.201
36.232
36.253
36.261
36.257
36.242
36.216
36.181
36.136
36.083
36.021
35.951
35.876
35.795
35.709
35.619
35.525
35.427
35.327
35.225
35.12
35.013
34.905
34.795
34.685
34.575
34.466
34.36
34.255
34.153
34.053
33.956
33.862
33.771
33.683
33.597
33.512
33.43
33.349
33.27
33.193
33.119
33.049
32.984
32.923
32.868
32.818
32.774
32.735
32.699
32.665
32.632
32.601
32.569
32.538
32.509
32.482
32.459
32.441
32.429
32.423
32.424
32.432
32.445
32.462
32.483
32.505
32.527
32.548
32.568
32.587
32.605
32.623
32.642
32.661
32.681
32.702
32.723
32.745
32.765
32.782
32.796
32.807
32.813
32.817
32.817
32.817
32.817
32.819
32.825
32.835
32.853
32.879
32.917
32.971
33.047
33.15
33.289
33.47
33.697
33.975
34.307
34.694
35.131
35.615
36.137
36.689
37.259
37.838
38.411
38.968
39.497
39.988
40.434
40.829
41.167
41.447
41.667
41.828
41.933
41.985
41.988
41.946
41.867
41.754
41.614
41.45
41.268
41.072
40.866
40.652
40.435
40.217
39.999
39.783
39.571
39.363
39.159
38.96
38.766
38.577
38.392
38.211
38.033
37.861
37.693
37.53
37.372
37.221
37.074
36.933
36.796
36.663
36.533
36.406
36.281
36.159
36.038
35.921
35.807
35.696
35.588
35.485
35.386
35.293
35.206
35.129
35.064
35.011
34.973
34.95
34.942
34.951
34.977
35.017
35.072
35.139
35.216
35.301
35.39
35.482
35.574
35.666
35.757
35.845
35.929
36.008
36.079
36.143
36.198
36.246
36.285
36.317
36.341
36.357
36.366
36.368
36.363
36.35
36.327
36.294
36.25
36.196
36.134
36.063
35.985
35.902
35.815
35.726
35.636
35.547
35.457
35.369
35.281
35.193
35.105
35.015
34.923
34.828
34.73
34.631
34.531
34.431
34.332
34.235
34.14
34.049
33.961
33.877
33.796
33.717
33.642
33.569
33.497
33.426
33.353
33.28
33.209
33.141
33.077
33.019
32.966
32.921
32.882
32.849
32.821
32.796
32.775
32.754
32.733
32.712
32.691
32.672
32.655
32.64
32.629
32.622
32.619
32.619
32.624
32.632
32.642
32.656
32.672
32.689
32.709
32.73
32.752
32.773
32.795
32.816
32.838
32.861
32.884
32.908
32.932
32.955
32.977
32.996
33.01
33.021
33.027
33.028
33.024
33.014
32.99
32.951
32.901
32.843
32.784
32.734
32.699
32.689
32.712
32.776
32.887
33.05
33.272
33.552
33.892
34.29
34.742
35.24
35.777
36.342
36.925
37.513
38.095
38.66
39.197
39.697
40.152
40.556
40.904
41.196
41.43
41.608
41.732
41.805
41.834
41.823
41.777
41.701
41.6
41.478
41.34
41.189
41.028
40.858
40.683
40.505
40.324
40.141
39.957
39.773
39.587
39.4
39.21
39.017
38.823
38.626
38.429
38.231
38.035
37.841
37.651
37.466
37.287
37.115
36.95
36.793
36.643
36.502
36.37
36.245
36.129
36.018
35.912
35.808
35.706
35.605
35.507
35.411
35.32
35.236
35.16
35.096
35.044
35.007
34.985
34.979
34.99
35.017
35.059
35.116
35.185
35.263
35.349
35.44
35.534
35.629
35.723
35.815
35.904
35.988
36.067
36.142
36.21
36.274
36.33
36.38
36.422
36.455
36.478
36.49
36.492
36.481
36.459
36.426
36.382
36.327
36.262
36.187
36.103
36.011
35.91
35.803
35.693
35.58
35.466
35.352
35.24
35.131
35.025
34.922
34.822
34.725
34.63
34.538
34.449
34.361
34.273
34.187
34.101
34.016
33.931
33.846
33.761
33.677
33.594
33.512
33.433
33.356
33.282
33.211
33.143
33.079
33.018
32.962
32.91
32.862
32.816
32.772
32.73
32.69
32.653
32.62
32.591
32.567
32.548
32.535
32.527
32.525
32.528
32.535
32.546
32.559
32.573
32.589
32.605
32.621
32.638
32.655
32.671
32.686
32.7
32.713
32.726
32.741
32.755
32.771
32.788
32.806
32.826
32.847
32.868
32.889
32.909
32.93
32.95
32.972
32.993
33.013
33.032
33.048
33.06
33.069
33.074
33.075
33.07
33.061
33.047
33.028
33.007
32.983
32.958
32.932
32.907
32.882
32.858
32.837
32.821
32.812
32.815
32.833
32.872
32.939
33.042
33.188
33.382
33.63
33.936
34.298
34.717
35.188
35.704
36.257
36.835
37.427
38.02
38.601
39.158
39.679
40.155
40.58
40.949
41.256
41.5
41.682
41.804
41.871
41.888
41.862
41.797
41.701
41.581
41.441
41.287
41.122
40.951
40.776
40.598
40.418
40.239
40.059
39.88
39.702
39.525
39.349
39.173
38.998
38.825
38.652
38.479
38.308
38.137
37.966
37.796
37.625
37.455
37.283
37.112
36.941
36.773
36.608
36.447
36.291
36.141
35.997
35.859
35.728
35.604
35.487
35.378
35.277
35.186
35.104
35.032
34.972
34.923
34.888
34.866
34.858
34.865
34.886
34.923
34.973
35.036
35.111
35.196
35.288
35.387
35.49
35.594
35.699
35.806
35.914
36.019
36.12
36.215
36.301
36.375
36.436
36.481
36.508
36.518
36.51
36.486
36.446
36.394
36.331
36.26
36.184
36.104
36.022
35.938
35.853
35.77
35.686
35.602
35.517
35.432
35.345
35.257
35.167
35.075
34.979
34.881
34.781
34.678
34.573
34.467
34.362
34.258
34.157
34.059
33.965
33.874
33.786
33.7
33.616
33.533
33.451
33.371
33.292
33.216
33.145
33.081
33.024
32.972
32.925
32.881
32.841
32.803
32.767
32.731
32.695
32.659
32.622
32.586
32.55
32.516
32.486
32.461
32.441
32.428
32.421
32.421
32.427
32.438
32.452
32.468
32.485
32.503
32.523
32.544
32.566
32.589
32.613
32.638
32.663
32.688
32.711
32.733
32.753
32.772
32.789
32.805
32.82
32.835
32.85
32.867
32.886
32.905
32.925
32.948
32.977
33.011
33.046
33.079
33.106
33.125
33.135
33.135
33.124
33.105
33.078
33.044
33.005
32.962
32.917
32.87
32.824
32.779
32.738
32.705
32.684
32.681
32.703
32.755
32.847
32.983
33.17
33.413
33.712
34.07
34.484
34.948
35.456
35.998
36.564
37.142
37.718
38.284
38.825
39.333
39.799
40.216
40.577
40.881
41.125
41.311
41.44
41.516
41.543
41.526
41.47
41.38
41.262
41.121
40.963
40.792
40.613
40.429
40.24
40.046
39.849
39.647
39.443
39.235
39.027
38.818
38.61
38.405
38.203
38.006
37.814
37.628
37.448
37.273
37.104
36.94
36.78
36.624
36.471
36.32
36.173
36.027
35.883
35.741
35.6
35.461
35.326
35.194
35.069
34.95
34.841
34.744
34.66
34.593
34.543
34.513
34.501
34.507
34.53
34.57
34.624
34.691
34.768
34.855
34.947
35.044
35.143
35.243
35.344
35.445
35.547
35.649
35.751
35.853
35.954
36.052
36.146
36.233
36.313
36.383
36.44
36.482
36.506
36.513
36.502
36.476
36.435
36.381
36.316
36.243
36.165
36.086
36.007
35.928
35.851
35.775
35.699
35.621
35.541
35.457
35.368
35.275
35.177
35.074
34.968
34.857
34.742
34.626
34.509
34.394
34.281
34.172
34.066
33.964
33.865
33.77
33.677
33.589
33.503
33.421
33.341
33.264
33.189
33.118
33.051
32.989
32.931
32.88
32.835
32.795
32.762
32.734
32.71
32.69
32.675
32.664
32.658
32.657
32.659
32.666
32.676
32.689
32.705
32.722
32.741
32.76
32.778
32.794
32.809
32.82
32.829
32.836
32.842
32.849
32.855
32.862
32.869
32.873
32.876
32.877
32.877
32.875
32.874
32.873
32.876
32.882
32.894
32.912
32.939
32.975
33.025
33.093
33.183
33.303
33.457
33.651
33.889
34.175
34.508
34.887
35.31
35.771
36.263
36.779
37.307
37.838
38.361
38.864
39.338
39.775
40.167
40.51
40.799
41.035
41.216
41.344
41.423
41.455
41.444
41.396
41.315
41.207
41.076
40.928
40.768
40.598
40.424
40.247
40.069
39.892
39.714
39.537
39.36
39.183
39.005
38.825
38.643
38.461
38.277
38.094
37.91
37.728
37.548
37.37
37.195
37.022
36.852
36.684
36.519
36.356
36.196
36.039
35.884
35.732
35.583
35.439
35.301
35.17
35.047
34.933
34.83
34.738
34.659
34.592
34.538
34.497
34.47
34.456
34.458
34.475
34.508
34.557
34.622
34.702
34.796
34.9
35.013
35.132
35.254
35.377
35.498
35.615
35.725
35.827
35.919
36.0
36.07
36.128
36.175
36.212
36.239
36.257
36.267
36.27
36.267
36.256
36.24
36.216
36.185
36.147
36.102
36.049
35.988
35.918
35.839
35.752
35.657
35.554
35.445
35.33
35.211
35.09
34.968
34.847
34.728
34.612
34.499
34.391
34.286
34.185
34.087
33.99
33.893
33.796
33.7
33.604
33.509
33.416
33.326
33.24
33.157
33.079
33.005
32.937
32.874
32.817
32.765
32.718
32.676
32.638
32.604
32.574
32.546
32.522
32.501
32.484
32.47
32.459
32.448
32.438
32.428
32.42
32.412
32.406
32.403
32.404
32.409
32.417
32.429
32.445
32.464
32.485
32.509
32.535
32.561
32.588
32.616
32.644
32.672
32.701
32.728
32.754
32.776
32.794
32.807
32.816
32.819
32.82
32.819
32.818
32.819
32.824
32.835
32.858
32.895
32.952
33.034
33.148
33.3
33.498
33.744
34.043
34.395
34.799
35.251
35.746
36.277
36.832
37.401
37.968
38.525
39.06
39.565
40.033
40.458
40.838
41.17
41.452
41.684
41.866
41.999
42.086
42.129
42.131
42.095
42.024
41.923
41.796
41.646
41.478
41.295
41.1
40.895
40.685
40.469
40.251
40.032
39.814
39.597
39.382
39.169
38.959
38.753
38.549
38.351
38.157
37.969
37.788
37.615
37.451
37.295
37.146
37.005
36.87
36.739
36.612
36.486
36.361
36.235
36.107
35.977
35.846
35.715
35.586
35.461
35.341
35.23
35.13
35.045
34.976
34.925
34.892
34.879
34.884
34.907
34.944
34.996
35.059
35.131
35.209
35.292
35.38
35.47
35.562
35.653
35.743
35.831
35.916
35.997
36.073
36.144
36.209
36.267
36.316
36.354
36.382
36.399
36.403
36.396
36.376
36.344
36.301
36.247
36.183
36.111
36.031
35.944
35.853
35.758
35.661
35.563
35.465
35.368
35.273
35.179
35.087
