Trial 1:0back
39.933
39.824
39.725
39.633
39.547
39.466
39.387
39.307
39.224
39.137
39.045
38.945
38.837
38.72
38.594
38.46
38.319
38.171
38.019
37.864
37.707
37.55
37.395
37.244
37.098
36.959
36.829
36.712
36.607
36.515
36.437
36.371
36.319
36.278
36.249
36.228
36.216
36.211
36.209
36.21
36.212
36.215
36.218
36.221
36.223
36.222
36.219
36.213
36.201
36.185
36.164
36.136
36.102
36.063
36.019
35.969
35.915
35.851
35.776
35.691
35.596
35.496
35.393
35.29
35.19
35.096
35.009
34.931
34.861
34.8
34.746
34.697
34.653
34.611
34.571
34.531
34.491
34.45
34.41
34.369
34.326
34.283
34.237
34.191
34.143
34.095
34.046
33.997
33.947
33.899
33.852
33.807
33.764
33.721
33.68
33.64
33.601
33.562
33.525
33.488
33.453
33.42
33.388
33.358
33.329
33.301
33.274
33.248
33.223
33.201
33.18
33.162
33.146
33.134
33.126
33.123
33.123
33.127
33.134
33.143
33.153
33.165
33.177
33.188
33.201
33.22
33.246
33.276
33.308
33.339
33.368
33.39
33.407
33.415
33.414
33.405
33.389
33.367
33.342
33.315
33.286
33.257
33.229
33.201
33.175
33.15
33.127
33.107
33.087
33.069
33.052
33.034
33.015
32.994
32.969
32.942
32.912
32.879
32.843
32.807
32.77
32.734
32.699
32.668
32.641
32.618
32.599
32.584
32.573
32.564
32.556
32.55
32.547
32.548
32.554
32.57
32.599
32.644
32.712
32.807
32.935
33.101
33.311
33.57
33.88
34.243
34.656
35.116
35.616
36.151
36.713
37.291
37.874
38.452
39.011
39.542
40.033
40.476
40.865
41.196
41.468
41.681
41.834
41.929
41.971
41.964
41.913
41.825
41.706
41.561
41.398
41.222
41.039
40.852
40.666
40.485
40.311
40.145
39.99
39.845
39.709
39.584
39.468
39.36
39.26
39.165
39.076
38.989
38.903
38.815
38.725
38.629
38.527
38.417
38.3
38.176
38.045
37.908
37.766
37.621
37.473
37.324
37.176
37.031
36.891
36.759
36.636
36.524
36.424
36.337
36.264
36.204
36.156
36.121
36.096
36.082
36.076
36.075
36.08
36.09
36.103
36.119
36.135
36.151
36.164
36.174
36.179
36.179
36.173
36.16
36.143
36.119
36.088
36.051
36.009
35.961
35.908
35.85
35.788
35.721
35.649
35.574
35.497
35.419
35.341
35.264
35.189
35.115
35.042
34.971
34.902
34.833
34.764
34.695
34.626
34.556
34.486
34.415
34.345
34.274
34.204
34.135
34.067
34.001
33.935
33.87
33.808
33.747
33.69
33.636
33.585
33.538
33.494
33.454
33.415
33.378
33.342
33.308
33.276
33.247
33.22
33.197
33.177
33.162
33.15
33.141
33.134
33.128
33.123
33.118
33.113
33.106
33.097
33.088
33.079
33.07
33.061
33.051
33.041
33.03
33.021
33.012
33.005
32.998
32.992
32.987
32.983
32.98
32.977
32.974
32.971
32.969
32.966
32.964
32.962
32.961
32.959
32.957
32.953
32.947
32.94
32.93
32.919
32.906
32.891
32.875
32.856
32.835
32.811
32.785
32.758
32.73
32.702
32.674
32.647
32.621
32.596
32.575
32.555
32.538
32.523
32.509
32.496
32.482
32.468
32.452
32.435
32.417
32.398
32.379
32.361
32.345
32.332
32.325
32.325
32.335
32.359
32.402
32.47
32.569
32.705
32.885
33.115
33.398
33.736
34.129
34.576
35.073
35.615
36.194
36.801
37.424
38.055
38.68
39.288
39.866
40.405
40.896
41.331
41.705
42.015
42.26
42.44
42.56
42.622
42.634
42.6
42.527
42.422
42.291
42.141
41.976
41.802
41.624
41.446
41.272
41.105
40.947
40.8
40.665
40.542
40.43
40.329
40.238
40.155
40.08
40.01
39.945
39.882
39.821
39.758
39.691
39.617
39.536
39.444
39.342
39.228
39.105
38.972
38.832
38.684
38.53
38.371
38.209
38.047
37.886
37.727
37.572
37.424
37.284
37.152
37.031
36.922
36.825
36.741
36.668
36.607
36.556
36.516
36.486
36.463
36.446
36.434
36.426
36.421
36.419
36.418
36.417
36.414
36.408
36.399
36.385
36.366
36.342
36.312
36.276
36.233
36.184
36.13
36.07
36.007
35.94
35.872
35.802
35.733
35.664
35.597
35.531
35.465
35.4
35.334
35.269
35.204
35.137
35.069
35.0
34.93
34.859
34.786
34.712
34.637
34.56
34.48
34.401
34.321
34.242
34.166
34.093
34.025
33.961
33.903
33.85
33.803
33.761
33.724
33.69
33.661
33.635
33.612
33.59
33.568
33.547
33.526
33.503
33.479
33.453
33.426
33.398
33.37
33.341
33.311
33.281
33.251
33.22
33.19
33.161
33.133
33.105
33.078
33.053
33.029
33.007
32.986
32.968
32.951
32.937
32.926
32.918
32.912
32.909
32.909
32.909
32.911
32.913
32.916
32.919
32.921
32.921
32.921
32.921
32.92
32.918
32.916
32.912
32.905
32.895
32.88
32.86
32.837
32.809
32.78
32.748
32.715
32.68
32.646
32.612
32.581
32.552
32.524
32.499
32.475
32.452
32.43
32.408
32.385
32.363
32.34
32.318
32.296
32.275
32.258
32.244
32.235
32.233
32.243
32.266
32.31
32.378
32.477
32.613
32.791
33.015
33.289
33.617
33.997
34.429
34.91
35.433
35.991
36.574
37.172
37.771
38.362
38.933
39.475
39.976
40.43
40.832
41.176
41.461
41.687
41.854
41.966
42.026
42.04
42.013
41.95
41.857
41.739
41.603
41.454
41.297
41.135
40.974
40.816
40.664
40.519
40.383
40.256
40.138
40.029
39.929
39.837
39.75
39.667
39.588
39.509
39.432
39.352
39.271
39.185
39.095
39.001
38.9
38.793
38.677
38.554
38.421
38.28
38.129
37.972
37.809
37.642
37.475
37.308
37.144
36.984
36.831
36.688
36.556
36.434
36.326
36.23
36.147
36.077
36.019
35.972
35.935
35.906
35.883
35.867
35.854
35.845
35.837
35.831
35.825
35.818
35.81
35.801
35.789
35.774
35.756
35.735
35.708
35.674
35.634
35.587
35.534
35.476
35.413
35.348
35.28
35.211
35.142
35.074
35.006
34.941
34.877
34.813
34.749
34.685
34.62
34.554
34.487
34.419
34.351
34.283
34.215
34.148
34.082
34.016
33.952
33.89
33.83
33.772
33.718
33.667
33.621
33.58
33.542
33.508
33.477
33.448
33.421
33.394
33.368
33.343
33.319
33.296
33.272
33.248
33.223
33.199
33.175
33.152
33.129
33.106
33.084
33.062
33.042
33.022
33.004
32.986
32.97
32.954
32.94
32.926
32.915
32.907
32.904
32.905
32.91
32.919
32.931
32.946
32.964
32.983
33.003
33.023
33.041
33.057
33.069
33.079
33.086
33.09
33.092
33.09
33.084
33.077
33.067
33.056
33.043
33.03
33.018
33.007
32.999
32.993
32.988
32.983
32.98
32.976
32.973
32.97
32.966
32.961
32.955
32.948
32.939
32.926
32.912
32.897
32.881
32.865
32.85
32.841
32.838
32.847
32.87
32.913
32.979
33.075
33.206
33.377
33.593
33.857
34.17
34.533
34.943
35.395
35.882
36.396
36.927
37.466
38.003
38.529
39.034
39.511
39.951
40.348
40.697
40.994
41.236
41.422
41.552
41.629
41.657
41.639
41.584
41.495
41.379
41.242
41.088
40.922
40.749
40.572
40.396
40.222
40.053
39.892
39.739
39.596
39.464
39.34
39.226
39.12
39.021
38.929
38.841
38.757
38.674
38.591
38.504
38.411
38.312
38.205
38.09
37.967
37.836
37.697
37.552
37.402
37.249
37.094
36.941
36.792
36.648
36.512
36.386
36.27
36.165
36.073
35.994
35.927
35.873
35.831
35.802
35.786
35.782
35.788
35.801
35.819
35.841
35.864
35.888
35.91
35.928
35.942
35.949
35.951
35.944
35.93
35.908
35.879
35.844
35.802
35.756
35.705
35.651
35.593
35.533
35.469
35.403
35.336
35.267
35.196
35.124
35.051
34.976
34.9
34.821
34.741
34.659
34.577
34.495
34.414
34.334
34.255
34.178
34.102
34.028
33.956
33.887
33.821
33.758
33.698
33.642
33.59
33.541
33.497
33.455
33.416
33.38
33.347
33.317
33.289
33.263
33.239
33.216
33.197
33.18
33.166
33.155
33.146
33.137
33.129
33.121
33.114
33.107
33.099
33.091
33.084
33.077
33.07
33.063
33.055
33.045
33.033
33.02
33.005
32.989
32.972
32.954
32.936
32.919
32.902
32.884
32.867
32.849
32.831
32.813
32.796
32.779
32.763
32.746
32.728
32.71
32.691
32.671
32.652
32.633
32.617
32.604
32.596
32.595
32.606
32.631
32.675
32.744
32.844
32.98
33.156
33.378
33.647
33.967
34.337
34.752
35.209
35.7
36.218
36.755
37.3
37.844
38.375
38.885
39.363
39.803
40.196
40.538
40.826
41.058
41.236
41.36
41.434
41.461
41.446
41.395
41.314
41.209
41.085
40.948
40.802
40.652
40.501
40.351
40.206
40.068
39.937
39.816
39.704
39.6
39.506
39.421
39.344
39.273
39.207
39.144
39.084
39.022
38.959
38.891
38.817
38.734
38.643
38.54
38.427
38.303
38.168
38.025
37.874
37.716
37.553
37.387
37.221
37.056
36.894
36.737
36.586
36.444
36.311
36.19
36.081
35.987
35.906
35.84
35.788
35.749
35.721
35.704
35.692
35.68
35.664
35.644
35.622
35.599
35.577
35.556
35.539
35.525
35.514
35.507
35.503
35.5
35.498
35.494
35.488
35.477
35.462
35.44
35.409
35.369
35.321
35.264
35.201
35.131
35.054
34.974
34.89
34.803
34.714
34.624
34.534
34.444
34.355
34.267
34.182
34.1
34.022
33.95
33.882
33.819
33.76
33.706
33.655
33.607
33.56
33.514
33.468
33.424
33.38
33.335
33.29
33.245
33.2
33.156
33.112
33.069
33.027
32.986
32.947
32.91
32.875
32.844
32.816
32.793
32.774
32.758
32.746
32.736
32.728
32.721
32.714
32.707
32.7
32.693
32.687
32.681
32.676
32.672
32.671
32.67
32.671
32.67
32.669
32.667
32.664
32.66
32.654
32.645
32.633
32.618
32.6
32.577
32.551
32.521
32.49
32.456
32.422
32.386
32.35
32.314
32.281
32.251
32.223
32.2
32.181
32.166
32.154
32.146
32.142
32.142
32.149
32.164
32.19
32.233
32.297
32.388
32.513
32.678
32.888
33.151
33.467
33.839
34.267
34.746
35.272
35.837
36.432
37.046
37.667
38.282
38.879
39.446
39.973
40.451
40.874
41.237
41.536
41.773
41.949
42.066
42.131
42.149
42.126
42.069
41.985
41.878
41.755
41.621
41.479
41.335
41.193
41.053
40.92
40.795
40.679
40.573
40.476
40.389
40.312
40.244
40.182
40.126
40.073
40.022
39.971
39.919
39.863
39.802
39.734
39.658
39.572
39.475
39.368
39.249
39.119
38.979
38.827
38.666
38.496
38.322
38.143
37.963
37.783
37.604
37.43
37.262
37.103
36.953
36.814
36.688
36.574
36.474
36.388
36.315
36.254
36.204
36.165
36.134
36.11
36.092
36.077
36.064
36.054
36.044
36.036
36.027
36.017
36.006
35.994
35.98
35.963
35.942
35.917
35.888
35.854
35.815
35.773
35.726
35.675
35.62
35.562
35.501
35.436
35.368
35.299
35.228
35.156
35.083
35.01
34.937
34.863
34.788
34.712
34.636
34.56
34.484
34.41
34.336
34.264
34.193
34.122
34.052
33.981
33.912
33.843
33.776
33.71
33.646
33.584
33.525
33.468
33.415
33.365
33.318
33.275
33.235
33.2
33.168
33.139
33.113
33.089
33.067
33.045
33.024
33.003
32.983
32.965
32.947
32.93
32.914
32.897
32.879
32.86
32.84
32.818
32.796
32.774
32.753
32.733
32.714
32.698
32.684
32.673
32.666
32.66
32.657
32.656
32.657
32.66
32.664
32.668
32.674
32.679
32.683
32.686
32.686
32.683
32.677
32.668
32.656
32.641
32.623
32.603
32.582
32.56
32.539
32.518
32.498
32.478
32.459
32.441
32.423
32.406
32.39
32.374
32.36
32.348
32.337
32.326
32.314
32.301
32.285
32.267
32.246
32.224
32.2
32.176
32.152
32.129
32.108
32.093
32.084
32.086
32.105
32.146
32.218
32.328
32.484
32.694
32.963
33.295
33.694
34.156
34.68
35.257
35.878
36.533
37.208
37.888
38.558
39.206
39.818
40.383
40.893
41.34
41.721
42.034
42.28
42.46
42.578
42.64
42.649
42.615
42.543
42.44
42.314
42.172
42.018
41.858
41.698
41.539
41.387
41.242
41.108
40.985
40.874
40.774
40.685
40.604
40.531
40.465
40.405
40.35
40.298
40.248
40.2
40.151
40.099
40.043
39.981
39.911
39.832
39.743
39.643
39.532
39.409
39.274
39.128
38.972
38.808
38.636
38.461
38.284
38.11
37.939
37.776
37.621
37.479
37.349
37.233
37.132
37.046
36.974
36.915
36.868
36.832
36.806
36.789
36.779
36.773
36.77
36.769
36.767
36.763
36.756
36.747
36.734
36.716
36.695
36.668
36.637
36.601
36.561
36.516
36.468
36.418
36.366
36.312
36.257
36.202
36.145
36.086
36.024
35.959
35.89
35.817
35.739
35.657
35.571
35.485
35.399
35.314
35.231
35.151
35.074
35.0
34.929
34.861
34.795
34.731
34.667
34.604
34.542
34.482
34.423
34.367
34.312
34.259
34.207
34.156
34.106
34.058
34.01
33.964
33.918
33.874
33.832
33.791
33.751
33.712
33.674
33.637
33.601
33.564
33.525
33.486
33.446
33.408
33.371
33.337
33.305
33.276
33.249
33.223
33.2
33.178
33.157
33.136
33.117
33.099
33.082
33.067
33.054
33.042
33.031
33.022
33.014
33.007
33.001
32.989
32.972
32.947
32.915
32.879
32.84
32.799
32.76
32.723
32.691
32.664
32.643
32.629
32.619
32.614
32.613
32.614
32.617
32.62
32.624
32.629
32.633
32.636
32.639
32.642
32.643
32.643
32.641
32.637
32.63
32.621
32.61
32.597
32.581
32.565
32.547
32.526
32.505
32.481
32.457
32.431
32.404
32.378
32.353
32.329
32.308
32.289
32.272
32.258
32.247
32.238
32.232
32.227
32.225
32.224
32.225
32.226
32.228
32.231
32.238
32.25
32.271
32.306
32.362
32.447
32.57
32.74
32.964
33.247
33.592
34.001
34.469
34.994
35.565
36.174
36.806
37.449
38.089
38.713
39.308
39.861
40.365
40.811
41.193
41.51
41.76
41.945
42.069
42.135
42.153
42.127
42.066
41.974
41.859
41.727
41.584
41.436
41.286
41.138
40.994
40.857
40.729
40.611
40.503
40.403
40.312
40.229
40.152
40.08
40.013
39.95
39.888
39.828
39.767
39.704
39.638
39.567
39.491
39.409
39.32
39.222
39.117
39.002
38.879
38.749
38.612
38.472
38.328
38.184
38.039
37.895
37.754
37.618
37.488
37.367
37.256
37.157
37.072
36.999
36.939
36.892
36.856
36.829
36.811
36.799
36.793
36.792
36.794
36.799
36.805
36.812
36.819
36.824
36.826
36.823
36.816
36.803
36.785
36.762
36.733
36.699
36.662
36.622
36.579
36.534
36.485
36.433
36.377
36.319
36.258
36.196
36.133
36.069
36.004
35.939
35.875
35.811
35.747
35.682
35.616
35.55
35.484
35.419
35.355
35.292
35.231
35.171
35.111
35.052
34.994
34.935
34.876
34.817
34.757
34.697
34.637
34.577
34.518
34.46
34.404
34.351
34.3
34.252
34.208
34.166
34.128
34.091
34.057
34.023
33.991
33.959
33.927
33.895
33.864
33.833
33.801
33.769
33.737
33.704
33.67
33.637
33.606
33.576
33.549
33.525
33.505
33.488
33.475
33.464
33.456
33.45
33.445
33.44
33.436
33.433
33.429
33.425
33.42
33.414
33.407
33.4
33.391
33.381
33.37
33.359
33.346
33.332
33.317
33.301
33.283
33.264
33.244
33.223
33.201
33.178
33.155
33.132
33.112
33.093
33.075
33.057
33.039
33.022
33.004
32.987
32.97
32.953
32.937
32.92
32.903
32.884
32.866
32.845
32.823
32.799
32.772
32.742
32.711
32.678
32.644
32.61
32.576
32.543
32.513
32.487
32.467
32.457
32.461
32.485
32.535
32.618
32.74
32.909
33.13
33.406
33.74
34.129
34.569
35.055
35.577
36.125
36.688
37.256
37.817
38.36
38.875
39.352
39.784
40.165
40.491
40.76
40.973
41.13
41.236
41.294
41.308
41.284
41.227
41.144
41.04
40.92
40.788
40.65
40.509
40.37
40.234
40.105
39.984
39.872
39.769
39.675
39.588
39.505
39.427
39.351
39.279
39.209
39.14
39.071
39.002
38.932
38.86
38.787
38.712
38.634
38.551
38.463
38.368
38.266
38.159
38.048
37.932
37.814
37.694
37.574
37.454
37.336
37.22
37.109
37.005
36.909
36.822
36.746
36.679
36.624
36.578
36.541
36.512
36.491
36.476
36.467
36.462
36.461
36.464
36.467
36.472
36.477
36.48
36.483
36.483
36.48
36.473
36.463
36.449
36.432
36.41
36.384
36.353
36.318
36.278
36.233
36.185
36.135
36.082
36.028
35.973
35.916
35.859
35.802
35.743
35.684
35.623
35.561
35.497
35.432
35.365
35.298
35.23
35.163
35.095
35.027
34.96
34.894
34.83
34.768
34.708
34.65
34.594
34.54
34.488
34.438
34.391
34.344
34.3
34.257
34.216
34.176
34.137
34.1
34.063
34.026
33.988
33.95
33.913
33.876
33.84
33.806
33.774
33.745
33.716
33.688
33.661
33.635
33.608
33.582
33.557
33.532
33.51
33.49
33.471
33.456
33.45
33.453
33.466
33.485
33.508
33.531
33.552
33.568
33.576
33.576
33.566
33.547
33.52
33.486
33.448
33.406
33.362
33.319
33.276
33.235
33.196
33.159
33.125
33.094
33.066
33.04
33.018
32.998
32.981
32.966
32.951
32.938
32.924
32.91
32.894
32.877
32.858
32.839
32.818
32.796
32.774
32.75
32.725
32.699
32.673
32.645
32.618
32.589
32.561
32.531
32.5
32.468
32.434
32.401
32.367
32.333
32.301
32.269
32.24
32.212
32.186
32.162
32.139
32.117
32.098
32.081
32.066
32.055
32.049
32.051
32.062
32.087
32.132
32.203
32.307
32.453
32.647
32.896
33.203
33.571
33.997
34.479
35.007
35.573
36.165
36.771
37.378
37.972
38.542
39.076
39.565
40.003
40.383
40.703
40.962
41.161
41.303
41.393
41.434
41.433
41.396
41.328
41.236
41.125
41.0
40.866
40.727
40.588
40.45
40.316
40.187
40.064
39.948
39.839
39.738
39.645
39.558
39.477
39.402
39.332
39.265
39.201
39.139
39.079
39.019
38.957
38.893
38.825
38.752
38.674
38.591
38.501
38.405
38.304
38.199
38.09
37.977
37.862
37.746
37.63
37.514
37.4
37.29
37.184
37.084
36.993
36.909
36.834
36.767
36.71
36.662
36.624
36.594
36.572
36.555
36.545
36.539
36.537
36.537
36.539
36.542
36.545
36.547
36.548
36.545
36.539
36.528
36.513
36.493
36.469
36.441
36.411
36.378
36.344
36.305
36.264
36.218
36.171
36.121
36.069
36.014
35.956
35.896
35.832
35.767
35.7
35.631
35.561
35.49
35.418
35.346
35.273
35.2
35.128
35.057
34.988
34.923
34.859
34.799
34.741
34.685
34.631
34.579
34.527
34.476
34.425
34.374
34.323
34.272
34.221
34.171
34.122
34.075
34.028
33.983
33.939
33.897
33.857
33.817
33.779
33.743
33.707
33.672
33.639
33.606
33.573
33.542
33.512
33.483
33.455
33.429
33.405
33.383
33.363
33.344
33.328
33.313
33.3
33.289
33.279
33.269
33.258
33.248
33.236
33.222
33.206
33.188
33.17
33.151
33.131
33.111
33.089
33.065
33.04
33.014
32.987
32.96
32.935
32.912
32.892
32.873
32.858
32.845
32.833
32.822
32.811
32.8
32.789
32.777
32.766
32.754
32.742
32.73
32.717
32.705
32.691
32.675
32.658
32.64
32.622
32.602
32.58
32.557
32.532
32.505
32.475
32.444
32.411
32.377
32.343
32.31
32.279
32.25
32.223
32.198
32.175
32.153
32.132
32.113
32.096
32.081
32.067
32.056
32.049
32.045
32.048
32.059
32.083
32.125
32.191
32.289
32.428
32.615
32.856
33.155
33.514
33.933
34.408
34.93
35.49
36.075
36.671
37.266
37.847
38.401
38.921
39.397
39.824
40.197
40.513
40.771
40.974
41.123
41.224
41.28
41.296
41.276
41.225
41.149
41.052
40.939
40.814
40.682
40.547
40.411
40.278
40.146
40.018
39.894
39.775
39.662
39.554
39.45
39.351
39.257
39.165
39.077
38.992
38.909
38.828
38.748
38.668
38.586
38.501
38.412
38.321
38.226
38.128
38.026
37.919
37.809
37.695
37.579
37.46
37.341
37.223
37.108
36.996
36.889
36.787
36.692
36.605
36.528
36.461
36.403
36.356
36.318
36.291
36.279
36.284
36.304
36.335
36.373
36.413
36.452
36.486
36.514
36.534
36.544
36.545
36.537
36.519
36.493
36.461
36.424
36.382
36.336
36.288
36.238
36.188
36.139
36.091
36.046
36.003
35.961
35.921
35.881
35.841
35.799
35.756
35.71
35.661
35.61
35.555
35.496
35.433
35.366
35.295
35.22
35.144
35.067
34.989
34.912
34.836
34.761
34.687
34.617
34.548
34.483
34.419
34.358
34.3
34.243
34.189
34.135
34.083
34.031
33.981
33.931
33.882
33.835
33.79
33.748
33.707
33.668
33.63
33.594
33.56
33.527
33.496
33.468
33.442
33.419
33.396
33.376
33.357
33.339
33.321
33.303
33.286
33.268
33.251
33.235
33.22
33.206
33.194
33.182
33.171
33.16
33.149
33.139
33.128
33.118
33.109
33.1
33.091
33.082
33.073
33.063
33.053
33.043
33.032
33.02
33.008
32.995
32.982
32.967
32.951
32.933
32.914
