Trial 1:0back
34.095
34.022
33.948
33.874
33.799
33.721
33.642
33.562
33.483
33.406
33.329
33.254
33.181
33.108
33.036
32.966
32.899
32.835
32.774
32.715
32.661
32.61
32.563
32.521
32.482
32.448
32.419
32.395
32.375
32.358
32.343
32.33
32.318
32.306
32.293
32.278
32.259
32.236
32.21
32.182
32.153
32.122
32.091
32.061
32.032
32.005
31.98
31.957
31.937
31.92
31.906
31.895
31.887
31.881
31.877
31.875
31.876
31.878
31.882
31.887
31.892
31.896
31.9
31.903
31.903
31.9
31.894
31.884
31.869
31.849
31.826
31.8
31.771
31.741
31.709
31.676
31.643
31.61
31.577
31.541
31.504
31.464
31.424
31.384
31.344
31.304
31.266
31.229
31.194
31.162
31.132
31.104
31.077
31.05
31.025
31.003
30.984
30.971
30.964
30.964
30.974
30.996
31.036
31.101
31.197
31.335
31.523
31.768
32.076
32.45
32.891
33.396
33.959
34.572
35.225
35.903
36.595
37.287
37.964
38.613
39.221
39.777
40.274
40.705
41.067
41.359
41.583
41.739
41.833
41.872
41.86
41.807
41.717
41.598
41.457
41.301
41.134
40.962
40.79
40.62
40.454
40.293
40.138
39.99
39.848
39.714
39.589
39.472
39.365
39.268
39.18
39.101
39.029
38.963
38.901
38.841
38.779
38.712
38.639
38.559
38.47
38.374
38.27
38.159
38.042
37.919
37.792
37.66
37.526
37.389
37.252
37.117
36.984
36.857
36.736
36.624
36.524
36.437
36.364
36.306
36.263
36.233
36.217
36.212
36.218
36.231
36.251
36.271
36.286
36.293
36.291
36.281
36.264
36.243
36.22
36.197
36.174
36.151
36.13
36.109
36.088
36.066
36.041
36.013
35.979
35.941
35.898
35.848
35.789
35.723
35.65
35.57
35.486
35.397
35.305
35.209
35.11
35.01
34.91
34.812
34.715
34.62
34.527
34.437
34.351
34.267
34.187
34.11
34.036
33.964
33.893
33.823
33.754
33.685
33.617
33.55
33.483
33.418
33.355
33.294
33.235
33.18
33.127
33.077
33.03
32.987
32.948
32.912
32.88
32.851
32.824
32.8
32.777
32.755
32.734
32.715
32.698
32.684
32.672
32.664
32.658
32.654
32.652
32.652
32.652
32.653
32.653
32.653
32.652
32.65
32.646
32.638
32.627
32.611
32.591
32.568
32.543
32.517
32.491
32.467
32.444
32.423
32.404
32.387
32.369
32.352
32.332
32.311
32.287
32.26
32.229
32.195
32.158
32.118
32.075
32.03
31.983
31.935
31.889
31.845
31.805
31.772
31.749
31.738
31.744
31.772
31.828
31.921
32.059
32.246
32.491
32.797
33.166
33.598
34.088
34.629
35.211
35.822
36.449
37.079
37.7
38.299
38.865
39.387
39.859
40.275
40.631
40.926
41.16
41.334
41.452
41.519
41.541
41.523
41.47
41.387
41.281
41.157
41.021
40.878
40.731
40.583
40.436
40.292
40.151
40.014
39.883
39.757
39.637
39.523
39.414
39.311
39.211
39.115
39.022
38.93
38.841
38.753
38.666
38.58
38.493
38.403
38.31
38.213
38.11
38.002
37.887
37.766
37.639
37.505
37.368
37.227
37.085
36.943
36.804
36.67
36.542
36.423
36.314
36.217
36.133
36.062
36.004
35.958
35.925
35.903
35.892
35.891
35.898
35.912
35.929
35.95
35.971
35.992
36.011
36.026
36.035
36.039
36.036
36.026
36.01
35.987
35.959
35.924
35.884
35.837
35.784
35.725
35.659
35.587
35.508
35.423
35.331
35.235
35.136
35.034
34.93
34.826
34.722
34.62
34.521
34.425
34.332
34.242
34.155
34.069
33.985
33.902
33.818
33.735
33.652
33.569
33.487
33.404
33.323
33.244
33.169
33.097
33.029
32.965
32.905
32.85
32.798
32.749
32.703
32.659
32.616
32.573
32.528
32.483
32.438
32.394
32.352
32.313
32.278
32.247
32.22
32.197
32.178
32.162
32.148
32.135
32.123
32.113
32.104
32.096
32.088
32.078
32.068
32.058
32.047
32.036
32.026
32.016
32.008
32.002
31.999
31.999
32.002
32.007
32.014
32.024
32.034
32.043
32.05
32.054
32.054
32.048
32.038
32.021
31.999
31.972
31.94
31.903
31.863
31.822
31.779
31.736
31.692
31.648
31.605
31.563
31.522
31.483
31.444
31.406
31.369
31.333
31.297
31.264
31.232
31.202
31.174
31.148
31.126
31.107
31.095
31.089
31.096
31.118
31.165
31.241
31.358
31.522
31.743
32.029
32.385
32.813
33.312
33.877
34.5
35.171
35.875
36.599
37.326
38.04
38.728
39.376
39.972
40.508
40.976
41.373
41.698
41.953
42.143
42.271
42.342
42.362
42.337
42.272
42.176
42.053
41.91
41.752
41.585
41.412
41.24
41.069
40.905
40.747
40.597
40.455
40.321
40.194
40.073
39.957
39.848
39.744
39.645
39.553
39.467
39.387
39.312
39.241
39.171
39.102
39.031
38.958
38.881
38.797
38.707
38.608
38.5
38.382
38.254
38.117
37.972
37.821
37.665
37.507
37.349
37.193
37.043
36.901
36.769
36.649
36.541
36.447
36.367
36.301
36.248
36.206
36.174
36.151
36.134
36.122
36.114
36.111
36.11
36.109
36.108
36.105
36.099
36.089
36.074
36.054
36.03
36.0
35.966
35.926
35.881
35.833
35.779
35.721
35.657
35.586
35.508
35.426
35.338
35.247
35.153
35.056
34.958
34.858
34.759
34.661
34.567
34.481
34.404
34.332
34.265
34.2
34.136
34.07
34.0
33.925
33.842
33.752
33.656
33.555
33.45
33.342
33.233
33.124
33.015
32.91
32.808
32.709
32.615
32.526
32.443
32.367
32.297
32.235
32.179
32.131
32.09
32.056
32.027
32.004
31.985
31.969
31.955
31.943
31.932
31.921
31.909
31.895
31.877
31.857
31.835
31.81
31.784
31.756
31.728
31.701
31.675
31.65
31.627
31.604
31.583
31.564
31.546
31.531
31.518
31.507
31.498
31.49
31.484
31.479
31.475
31.471
31.465
31.459
31.453
31.446
31.441
31.435
31.429
31.423
31.418
31.413
31.408
31.401
31.394
31.384
31.372
31.357
31.338
31.316
31.288
31.256
31.22
31.183
31.144
31.105
31.067
31.031
30.996
30.963
30.933
30.907
30.882
30.861
30.842
30.826
30.811
30.798
30.785
30.774
30.763
30.751
30.738
30.726
30.715
30.706
30.702
30.706
30.724
30.762
30.827
30.93
31.078
31.282
31.549
31.887
32.298
32.784
33.343
33.967
34.648
35.374
36.129
36.896
37.658
38.397
39.1
39.752
40.343
40.865
41.312
41.683
41.977
42.196
42.346
42.432
42.458
42.431
42.357
42.245
42.101
41.933
41.745
41.544
41.335
41.121
40.907
40.697
40.492
40.293
40.103
39.921
39.748
39.585
39.433
39.292
39.162
39.043
38.935
38.835
38.743
38.655
38.569
38.484
38.397
38.307
38.213
38.113
38.006
37.891
37.769
37.64
37.505
37.365
37.221
37.076
36.931
36.79
36.654
36.527
36.41
36.306
36.214
36.136
36.07
36.016
35.976
35.949
35.933
35.929
35.933
35.944
35.961
35.982
36.006
36.03
36.053
36.073
36.091
36.104
36.113
36.117
36.116
36.109
36.097
36.08
36.057
36.029
35.995
35.955
35.911
35.86
35.801
35.735
35.66
35.579
35.491
35.398
35.301
35.199
35.095
34.989
34.882
34.776
34.67
34.564
34.461
34.359
34.26
34.164
34.071
33.982
33.897
33.815
33.736
33.659
33.585
33.512
33.441
33.37
33.3
33.231
33.162
33.095
33.03
32.966
32.904
32.842
32.781
32.721
32.663
32.606
32.551
32.499
32.451
32.408
32.369
32.334
32.305
32.279
32.257
32.238
32.221
32.206
32.191
32.178
32.165
32.153
32.14
32.127
32.115
32.102
32.091
32.083
32.076
32.073
32.071
32.071
32.073
32.075
32.078
32.081
32.082
32.081
32.08
32.076
32.071
32.064
32.054
32.041
32.026
32.008
31.986
31.961
31.933
31.902
31.867
31.83
31.791
31.751
31.711
31.671
31.631
31.592
31.554
31.517
31.482
31.449
31.417
31.385
31.354
31.325
31.3
31.279
31.267
31.267
31.285
31.327
31.402
31.517
31.681
31.9
32.181
32.53
32.95
33.438
33.992
34.602
35.259
35.948
36.658
37.372
38.076
38.756
39.399
39.993
40.527
40.994
41.389
41.709
41.956
42.132
42.242
42.293
42.292
42.245
42.159
42.041
41.896
41.729
41.548
41.357
41.162
40.966
40.772
40.582
40.396
40.215
40.039
39.867
39.7
39.539
39.383
39.233
39.091
38.955
38.826
38.703
38.587
38.475
38.367
38.261
38.155
38.049
37.943
37.836
37.727
37.615
37.499
37.377
37.248
37.113
36.973
36.828
36.68
36.531
36.385
36.243
36.109
35.985
35.873
35.775
35.692
35.625
35.574
35.536
35.512
35.499
35.496
35.503
35.519
35.541
35.57
35.603
35.641
35.682
35.724
35.766
35.803
35.835
35.858
35.871
35.873
35.862
35.838
35.802
35.754
35.695
35.627
35.552
35.472
35.389
35.302
35.212
35.12
35.027
34.933
34.838
34.742
34.645
34.547
34.448
34.35
34.251
34.153
34.055
33.957
33.86
33.762
33.665
33.57
33.477
33.386
33.297
33.21
33.126
33.045
32.969
32.897
32.829
32.765
32.704
32.647
32.594
32.542
32.492
32.443
32.396
32.351
32.308
32.265
32.221
32.178
32.137
32.097
32.059
32.021
31.985
31.951
31.918
31.888
31.862
31.839
31.82
31.805
31.793
31.784
31.778
31.774
31.771
31.77
31.769
31.77
31.772
31.775
31.781
31.787
31.795
31.803
31.809
31.813
31.816
31.816
31.813
31.806
31.795
31.781
31.765
31.748
31.73
31.711
31.691
31.673
31.655
31.639
31.624
31.609
31.594
31.578
31.561
31.541
31.52
31.496
31.47
31.442
31.413
31.383
31.352
31.321
31.289
31.256
31.223
31.19
31.158
31.128
31.101
31.08
31.067
31.064
31.078
31.115
31.183
31.29
31.446
31.658
31.934
32.281
32.702
33.198
33.768
34.403
35.095
35.831
36.596
37.374
38.147
38.899
39.613
40.275
40.875
41.405
41.86
42.237
42.535
42.756
42.904
42.982
42.999
42.962
42.878
42.756
42.604
42.429
42.239
42.039
41.834
41.627
41.421
41.218
41.02
40.829
40.645
40.469
40.303
40.147
40.0
39.864
39.738
39.622
39.515
39.413
39.316
39.223
39.132
39.042
38.953
38.863
38.772
38.677
38.578
38.473
38.361
38.241
38.113
37.977
37.835
37.688
37.538
37.385
37.231
37.08
36.933
36.793
36.663
36.543
36.435
36.34
36.26
36.194
36.141
36.101
36.074
36.057
36.05
36.05
36.056
36.065
36.076
36.087
36.097
36.105
36.109
36.111
36.108
36.102
36.091
36.076
36.056
36.03
35.998
35.96
35.916
35.864
35.805
35.738
35.663
35.58
35.492
35.399
35.303
35.205
35.106
35.008
34.91
34.815
34.723
34.633
34.544
34.456
34.367
34.276
34.183
34.088
33.991
33.892
33.793
33.696
33.601
33.508
33.417
33.329
33.244
33.163
33.086
33.02
32.965
32.922
32.888
32.86
32.834
32.809
32.781
32.75
32.715
32.674
32.629
32.579
32.526
32.471
32.413
32.355
32.297
32.242
32.189
32.139
32.093
32.05
32.013
31.981
31.955
31.937
31.927
31.924
31.928
31.938
31.953
31.972
31.993
32.014
32.032
32.048
32.059
32.066
32.068
32.065
32.057
32.045
32.03
32.013
31.993
31.972
31.95
31.928
31.906
31.884
31.862
31.841
31.819
31.795
31.771
31.746
31.72
31.694
31.669
31.644
31.618
31.593
31.567
31.541
31.515
31.488
31.461
31.433
31.406
31.38
31.354
31.33
31.307
31.288
31.274
31.269
31.279
31.31
31.371
31.467
31.608
31.803
32.059
32.383
32.779
33.246
33.784
34.386
35.044
35.745
36.477
37.222
37.967
38.694
39.389
40.039
40.632
41.162
41.62
42.005
42.312
42.544
42.701
42.788
42.811
42.777
42.694
42.57
42.414
42.235
42.038
41.831
41.617
41.402
41.186
40.975
40.771
40.575
40.389
40.215
40.053
39.903
39.764
39.635
39.515
39.401
39.293
39.189
39.088
38.988
38.887
38.785
38.681
38.575
38.467
38.357
38.242
38.122
37.996
37.864
37.726
37.583
37.435
37.283
37.129
36.975
36.823
36.675
36.534
36.402
36.281
36.172
36.077
35.995
35.926
35.871
35.83
35.8
35.782
35.773
35.771
35.775
35.784
35.796
35.811
35.826
35.841
35.852
35.861
35.864
35.864
35.858
35.847
35.831
35.808
35.779
35.743
35.701
35.652
35.597
35.537
35.471
35.402
35.329
35.253
35.176
35.099
35.022
34.946
34.868
34.789
34.708
34.627
34.544
34.461
34.376
34.29
34.203
34.116
34.025
33.932
33.837
33.739
33.64
33.541
33.444
33.349
33.259
33.174
33.095
33.024
32.959
32.901
32.849
32.802
32.758
32.717
32.679
32.642
32.606
32.571
32.535
32.499
32.463
32.426
32.391
32.356
32.321
32.289
32.259
32.233
32.211
32.196
32.186
32.181
32.179
32.181
32.185
32.191
32.198
32.204
32.208
32.212
32.215
32.217
32.219
32.219
32.217
32.214
32.21
32.206
32.2
32.194
32.186
32.177
32.166
32.152
32.137
32.119
32.101
32.081
32.061
32.041
32.022
32.006
31.992
31.977
31.963
31.947
31.929
31.909
31.887
31.861
31.831
31.798
31.763
31.728
31.697
31.671
31.658
31.661
31.688
31.746
31.842
31.985
32.181
32.433
32.746
33.121
33.558
34.055
34.607
35.206
35.842
36.504
37.18
37.855
38.516
39.15
39.744
40.287
40.771
41.188
41.535
41.81
42.015
42.153
42.229
42.25
42.222
42.152
42.046
41.91
41.752
41.574
41.383
41.182
40.976
40.768
40.561
40.356
40.156
39.963
39.778
39.602
39.439
39.286
39.144
39.01
38.884
38.763
38.647
38.535
38.425
38.316
38.208
38.099
37.989
37.876
37.759
37.638
37.513
37.383
37.248
37.109
36.966
36.819
36.673
36.529
36.391
36.26
36.139
36.03
35.936
35.859
35.799
35.755
35.725
35.709
35.702
35.704
35.712
35.726
35.744
35.768
35.796
35.828
35.862
35.897
35.931
35.962
35.991
36.015
36.031
36.039
36.039
36.029
36.011
35.984
35.949
35.905
35.853
35.792
35.725
35.651
35.571
35.486
35.397
35.305
35.21
35.115
35.018
34.922
34.826
34.731
34.636
34.541
34.445
34.347
34.246
34.138
34.023
33.901
33.777
33.653
33.533
33.421
33.321
33.234
33.161
33.099
33.049
33.008
32.974
32.946
32.921
32.897
32.873
32.847
32.818
32.784
32.746
32.702
32.656
32.608
32.56
32.513
32.468
32.427
32.391
32.361
32.337
32.319
32.307
32.3
32.296
32.296
32.299
32.303
32.308
32.314
32.319
32.324
32.327
32.33
32.331
32.33
32.328
32.325
32.322
32.318
32.312
32.305
32.295
32.283
32.268
32.25
32.229
32.206
32.181
32.155
32.129
32.101
32.074
32.048
32.022
31.996
31.97
31.944
31.918
31.892
31.867
31.844
31.825
31.813
31.813
31.827
31.863
31.925
32.022
32.162
32.351
32.598
32.906
33.278
33.718
34.221
34.784
35.397
36.049
36.728
37.418
38.106
38.776
39.417
40.014
40.558
41.04
41.457
41.804
42.081
42.29
42.433
42.512
42.531
42.498
42.42
42.306
42.163
41.999
41.82
41.632
41.439
41.244
41.051
40.86
40.674
40.495
40.323
40.16
40.005
39.858
39.72
39.591
39.47
39.357
39.253
39.155
39.063
38.975
38.888
38.801
38.712
38.621
38.526
38.426
38.32
38.207
38.086
37.957
37.819
37.674
37.524
37.371
37.218
37.068
36.923
36.783
36.652
36.529
36.418
36.317
36.228
36.151
36.086
36.034
35.995
35.968
35.954
35.949
35.954
35.967
35.986
36.007
36.029
36.049
36.067
36.081
36.091
36.096
36.096
36.092
36.083
36.069
36.049
36.023
35.989
35.947
35.897
35.839
35.774
35.703
35.626
35.546
35.465
35.382
35.3
35.219
35.138
35.057
34.975
34.89
34.802
34.71
34.614
34.514
34.412
34.306
34.2
34.094
33.991
33.892
33.796
33.704
33.617
33.534
33.455
33.382
33.314
33.249
33.19
33.133
33.078
33.024
32.969
32.913
32.857
32.8
32.742
32.686
32.634
32.586
32.543
32.505
32.47
32.44
32.414
32.391
32.372
32.353
32.337
32.323
32.311
32.302
32.295
32.29
32.288
32.288
32.289
32.289
32.29
32.29
32.29
32.287
32.284
32.279
32.274
32.269
32.263
32.258
32.252
32.245
32.239
32.233
32.226
32.221
32.215
32.207
32.198
32.187
32.172
32.154
32.134
32.11
32.085
32.059
32.032
32.005
31.978
31.95
31.923
31.894
31.866
31.837
31.807
31.777
31.747
31.718
31.69
31.663
31.638
31.617
31.603
31.598
31.605
31.631
31.68
31.76
31.878
32.042
32.258
32.534
32.875
33.285
33.763
34.305
34.907
35.558
36.248
36.962
37.688
38.409
39.109
39.775
40.393
40.953
41.447
41.871
42.222
42.499
42.705
42.844
42.919
42.938
42.908
42.834
42.724
42.585
42.425
42.251
42.068
41.882
41.696
41.513
41.334
41.162
40.997
40.839
40.69
40.55
40.418
40.295
40.182
40.077
39.98
39.89
39.803
39.72
39.637
39.554
39.47
39.383
39.291
39.195
39.094
38.987
38.874
38.755
38.63
38.498
38.36
38.216
38.067
37.915
37.76
37.605
37.452
37.304
37.165
37.035
36.919
36.818
36.732
36.662
36.607
36.566
36.538
36.52
36.511
36.509
36.511
36.515
36.519
36.522
36.523
36.522
36.519
36.515
36.508
36.5
36.489
36.476
36.459
36.439
36.414
36.384
36.348
36.304
36.252
36.193
36.127
36.056
35.979
35.896
35.809
35.718
35.624
35.529
35.433
35.337
35.242
35.148
35.055
34.964
34.874
34.787
34.701
34.616
34.532
34.447
34.362
34.276
34.189
34.103
34.018
33.935
33.854
33.776
33.701
33.63
33.564
33.501
33.442
33.386
33.333
33.284
33.237
33.191
33.146
33.1
33.054
33.008
32.962
32.917
32.872
32.829
32.79
32.754
32.724
32.698
32.678
32.662
32.65
32.64
32.631
32.622
32.611
32.599
32.586
32.573
32.561
32.548
32.537
32.528
32.519
32.512
32.506
32.501
32.497
32.494
32.493
32.492
32.491
32.489
32.486
32.481
32.475
32.466
32.456
32.444
32.432
32.418
32.403
32.387
32.369
32.348
32.324
32.295
32.262
32.224
32.183
32.138
32.092
32.046
32.001
31.958
31.918
31.882
31.85
31.822
31.798
31.778
31.761
31.749
31.739
31.734
31.731
31.733
31.742
31.761
31.797
31.856
31.947
32.08
32.264
32.508
32.817
33.196
33.645
34.162
34.74
35.372
36.045
36.745
37.456
38.163
38.85
39.504
40.112
40.665
41.156
41.579
41.932
42.216
42.432
42.582
42.67
42.702
42.684
42.623
42.527
42.404
42.26
42.102
41.935
41.764
41.592
41.42
41.25
41.083
40.921
40.765
40.617
40.476
40.344
40.22
40.105
39.997
39.896
39.801
39.712
39.627
39.547
39.469
39.392
39.313
39.231
39.145
39.053
38.955
38.848
38.731
38.605
38.471
38.33
38.184
38.035
37.885
37.738
37.594
37.456
37.324
37.201
37.086
36.981
36.886
36.802
36.729
36.668
36.618
36.58
36.553
36.536
36.527
36.525
36.528
36.534
36.542
36.55
36.557
36.562
36.564
36.562
36.554
36.54
36.519
36.491
36.455
36.411
36.36
36.302
36.237
36.167
36.093
36.016
35.937
35.857
35.774
35.688
35.6
35.509
35.418
35.325
35.23
35.134
35.037
34.939
34.842
34.745
34.649
34.554
34.461
34.371
34.283
34.199
34.116
34.036
33.957
33.879
33.8
33.721
33.642
33.562
33.484
33.406
33.329
33.254
33.181
33.111
33.043
32.979
32.92
32.865
32.815
32.77
32.73
32.694
32.663
32.636
32.611
32.589
32.569
32.551
32.534
32.519
32.504
32.489
32.473
32.456
32.439
32.421
32.403
32.384
32.365
32.345
32.326
32.308
32.292
32.279
32.27
32.265
32.263
32.264
32.268
32.275
32.281
32.287
32.292
32.294
32.293
32.29
32.285
32.277
32.268
32.256
32.243
32.23
32.216
32.202
32.187
32.173
32.159
32.147
32.136
32.125
32.113
32.101
32.087
32.071
32.052
32.03
32.006
31.979
31.951
31.922
31.892
31.863
31.834
31.805
31.777
31.748
31.718
31.689
31.66
31.631
31.604
31.58
31.559
31.541
31.529
31.525
31.53
31.549
31.586
31.647
31.739
31.868
32.043
32.27
32.554
32.902
33.314
33.793
34.333
34.929
35.571
36.248
36.944
37.646
38.337
39.005
39.637
40.222
40.752
41.222
41.625
41.96
42.225
42.423
42.555
42.627
42.644
42.612
42.537
42.427
42.287
42.125
41.945
41.754
41.554
41.353
41.152
40.956
40.765
40.581
40.403
40.233
40.071
39.919
39.777
39.646
39.525
39.413
39.31
39.213
39.122
39.033
38.944
38.854
38.761
38.665
38.564
38.457
38.345
38.227
38.105
37.978
37.848
37.715
37.579
37.442
37.303
37.165
37.032
36.906
36.788
36.682
36.591
36.515
36.456
36.415
36.391
36.384
36.393
36.416
36.45
36.493
36.541
36.591
36.641
36.689
36.732
36.768
36.794
36.808
36.811
36.802
36.783
36.753
36.715
36.669
36.618
36.562
36.501
36.437
36.369
36.295
36.217
36.135
36.047
35.956
35.862
35.767
35.674
35.582
35.493
35.406
35.32
35.234
35.15
35.066
34.981
34.895
34.807
34.719
34.631
34.544
34.458
34.372
34.289
34.208
34.13
34.055
33.982
33.911
