Trial 1:0back
38.485
38.33
38.182
38.039
37.903
37.774
37.654
37.541
37.437
37.342
37.254
37.172
37.097
37.029
36.971
36.922
36.882
36.845
36.807
36.765
36.714
36.65
36.571
36.477
36.366
36.242
36.107
35.963
35.815
35.665
35.516
35.372
35.237
35.115
35.006
34.914
34.839
34.783
34.745
34.725
34.72
34.73
34.752
34.784
34.825
34.872
34.922
34.974
35.026
35.076
35.123
35.166
35.202
35.231
35.251
35.262
35.263
35.254
35.237
35.211
35.176
35.134
35.086
35.032
34.974
34.915
34.854
34.794
34.734
34.675
34.617
34.56
34.504
34.446
34.388
34.326
34.262
34.195
34.127
34.056
33.985
33.913
33.84
33.767
33.694
33.623
33.554
33.488
33.427
33.369
33.317
33.27
33.23
33.197
33.17
33.15
33.135
33.125
33.118
33.115
33.114
33.115
33.115
33.115
33.114
33.111
33.106
33.101
33.096
33.089
33.081
33.071
33.061
33.051
33.042
33.034
33.026
33.019
33.012
33.005
32.997
32.989
32.981
32.973
32.965
32.958
32.952
32.945
32.939
32.934
32.928
32.923
32.917
32.912
32.91
32.911
32.919
32.938
32.971
33.022
33.097
33.202
33.342
33.523
33.751
34.028
34.355
34.732
35.154
35.615
36.105
36.614
37.13
37.642
38.138
38.608
39.04
39.426
39.76
40.037
40.257
40.42
40.528
40.583
40.591
40.556
40.485
40.382
40.252
40.102
39.937
39.762
39.584
39.405
39.228
39.055
38.889
38.733
38.587
38.454
38.331
38.219
38.118
38.028
37.947
37.874
37.808
37.747
37.69
37.634
37.578
37.52
37.457
37.39
37.316
37.236
37.148
37.052
36.948
36.835
36.714
36.587
36.456
36.323
36.188
36.053
35.92
35.79
35.667
35.552
35.446
35.349
35.262
35.187
35.122
35.068
35.026
34.996
34.977
34.968
34.968
34.976
34.991
35.014
35.041
35.07
35.099
35.126
35.149
35.169
35.187
35.203
35.215
35.223
35.227
35.226
35.221
35.21
35.191
35.165
35.132
35.093
35.047
34.997
34.943
34.886
34.826
34.763
34.695
34.625
34.552
34.477
34.4
34.32
34.237
34.152
34.068
33.985
33.907
33.831
33.76
33.694
33.632
33.577
33.526
33.481
33.439
33.402
33.367
33.335
33.305
33.279
33.256
33.235
33.217
33.198
33.181
33.163
33.145
33.128
33.111
33.093
33.074
33.056
33.038
33.021
33.006
32.993
32.983
32.974
32.968
32.963
32.96
32.959
32.96
32.964
32.968
32.973
32.979
32.985
32.99
32.994
32.996
32.993
32.988
32.978
32.965
32.947
32.924
32.898
32.87
32.841
32.81
32.781
32.755
32.735
32.723
32.72
32.727
32.746
32.78
32.833
32.907
33.01
33.151
33.335
33.566
33.845
34.173
34.546
34.959
35.406
35.881
36.373
36.874
37.37
37.85
38.303
38.72
39.095
39.423
39.7
39.924
40.094
40.212
40.282
40.308
40.296
40.25
40.176
40.078
39.962
39.832
39.692
39.546
39.396
39.242
39.09
38.939
38.792
38.65
38.512
38.377
38.247
38.122
38.002
37.888
37.779
37.675
37.577
37.484
37.399
37.319
37.243
37.17
37.098
37.027
36.955
36.881
36.803
36.721
36.635
36.543
36.45
36.356
36.26
36.164
36.068
35.972
35.876
35.781
35.685
35.59
35.496
35.405
35.32
35.24
35.167
35.103
35.046
34.999
34.961
34.931
34.911
34.901
34.9
34.909
34.927
34.951
34.981
35.016
35.054
35.093
35.13
35.165
35.197
35.225
35.249
35.267
35.276
35.275
35.265
35.245
35.216
35.177
35.13
35.073
35.009
34.94
34.867
34.792
34.716
34.641
34.566
34.494
34.424
34.355
34.288
34.223
34.158
34.094
34.031
33.969
33.908
33.849
33.791
33.733
33.677
33.623
33.571
33.521
33.474
33.428
33.382
33.335
33.289
33.244
33.202
33.161
33.125
33.092
33.064
33.039
33.019
33.003
32.992
32.985
32.981
32.979
32.978
32.98
32.983
32.988
32.995
33.003
33.014
33.027
33.042
33.06
33.078
33.097
33.113
33.125
33.132
33.133
33.128
33.119
33.108
33.095
33.081
33.068
33.055
33.044
33.034
33.026
33.02
33.015
33.012
33.011
33.012
33.013
33.016
33.019
33.022
33.027
33.034
33.046
33.063
33.091
33.131
33.189
33.268
33.373
33.51
33.684
33.901
34.163
34.47
34.823
35.216
35.643
36.097
36.567
37.045
37.52
37.982
38.421
38.827
39.193
39.512
39.779
39.991
40.148
40.251
40.304
40.311
40.276
40.205
40.103
39.977
39.832
39.674
39.507
39.336
39.165
38.994
38.826
38.663
38.504
38.351
38.204
38.064
37.931
37.803
37.682
37.569
37.464
37.367
37.278
37.195
37.119
37.049
36.982
36.916
36.85
36.78
36.706
36.627
36.541
36.449
36.351
36.247
36.137
36.024
35.908
35.792
35.678
35.567
35.462
35.365
35.276
35.199
35.134
35.082
35.044
35.018
35.004
35.004
35.015
35.037
35.066
35.101
35.14
35.181
35.223
35.267
35.309
35.35
35.386
35.418
35.443
35.463
35.476
35.482
35.482
35.475
35.462
35.443
35.42
35.391
35.357
35.317
35.271
35.22
35.162
35.1
35.032
34.96
34.884
34.804
34.721
34.634
34.544
34.45
34.353
34.252
34.149
34.046
33.945
33.847
33.753
33.663
33.58
33.504
33.439
33.386
33.343
33.311
33.289
33.275
33.268
33.265
33.267
33.271
33.278
33.284
33.291
33.295
33.298
33.298
33.297
33.293
33.287
33.278
33.267
33.256
33.244
33.234
33.223
33.213
33.204
33.195
33.187
33.179
33.172
33.164
33.155
33.144
33.133
33.12
33.108
33.097
33.086
33.077
33.068
33.059
33.052
33.048
33.048
33.053
33.067
33.09
33.129
33.188
33.271
33.386
33.537
33.731
33.97
34.255
34.586
34.958
35.366
35.801
36.256
36.721
37.184
37.637
38.069
38.47
38.832
39.152
39.423
39.644
39.814
39.932
40.0
40.022
40.001
39.944
39.854
39.738
39.601
39.449
39.285
39.116
38.942
38.768
38.596
38.43
38.271
38.121
37.979
37.846
37.721
37.603
37.491
37.387
37.288
37.194
37.106
37.022
36.941
36.864
36.789
36.715
36.639
36.561
36.481
36.396
36.306
36.212
36.115
36.013
35.909
35.802
35.695
35.587
35.481
35.379
35.282
35.193
35.115
35.049
34.996
34.96
34.938
34.931
34.936
34.953
34.982
35.021
35.068
35.119
35.173
35.229
35.286
35.342
35.397
35.449
35.495
35.534
35.568
35.595
35.615
35.627
35.63
35.625
35.612
35.593
35.565
35.53
35.486
35.436
35.377
35.312
35.241
35.165
35.086
35.003
34.919
34.834
34.749
34.667
34.588
34.514
34.445
34.38
34.32
34.264
34.213
34.166
34.123
34.083
34.044
34.008
33.973
33.941
33.912
33.883
33.856
33.828
33.802
33.777
33.754
33.732
33.711
33.69
33.668
33.644
33.619
33.593
33.567
33.54
33.513
33.486
33.458
33.432
33.408
33.386
33.366
33.349
33.334
33.322
33.314
33.31
33.31
33.313
33.318
33.322
33.326
33.329
33.33
33.329
33.325
33.316
33.303
33.287
33.266
33.244
33.218
33.19
33.16
33.126
33.09
33.055
33.021
32.991
32.968
32.954
32.954
32.97
33.006
33.067
33.157
33.282
33.444
33.647
33.896
34.19
34.53
34.913
35.333
35.785
36.258
36.742
37.227
37.701
38.153
38.574
38.955
39.291
39.579
39.815
39.998
40.131
40.215
40.254
40.253
40.218
40.153
40.066
39.962
39.846
39.723
39.597
39.471
39.348
39.229
39.116
39.01
38.91
38.816
38.729
38.646
38.567
38.491
38.418
38.345
38.274
38.204
38.134
38.064
37.993
37.922
37.848
37.773
37.696
37.615
37.53
37.441
37.348
37.249
37.143
37.031
36.914
36.794
36.673
36.552
36.431
36.313
36.197
36.084
35.975
35.873
35.78
35.695
35.621
35.557
35.505
35.463
35.432
35.413
35.404
35.404
35.412
35.428
35.449
35.475
35.505
35.536
35.568
35.598
35.626
35.65
35.67
35.686
35.696
35.699
35.694
35.683
35.664
35.64
35.609
35.57
35.523
35.468
35.406
35.335
35.258
35.174
35.083
34.987
34.885
34.779
34.672
34.565
34.46
34.357
34.258
34.163
34.073
33.988
33.91
33.836
33.767
33.702
33.641
33.585
33.534
33.486
33.442
33.402
33.363
33.327
33.294
33.262
33.233
33.205
33.179
33.155
33.133
33.113
33.095
33.08
33.068
33.057
33.048
33.039
33.031
33.024
33.02
33.017
33.017
33.017
33.02
33.023
33.028
33.034
33.041
33.047
33.052
33.056
33.059
33.058
33.054
33.048
33.037
33.022
33.003
32.982
32.958
32.935
32.913
32.894
32.879
32.869
32.866
32.871
32.885
32.911
32.951
33.007
33.081
33.177
33.3
33.453
33.639
33.863
34.125
34.427
34.768
35.144
35.551
35.981
36.426
36.875
37.32
37.75
38.159
38.537
38.879
39.18
39.438
39.656
39.835
39.977
40.082
40.153
40.19
40.197
40.174
40.123
40.05
39.958
39.849
39.728
39.596
39.457
39.313
39.168
39.024
38.882
38.744
38.609
38.48
38.357
38.241
38.131
38.028
37.931
37.84
37.755
37.677
37.606
37.541
37.48
37.421
37.365
37.308
37.25
37.188
37.121
37.049
36.97
36.886
36.796
36.699
36.595
36.486
36.371
36.254
36.136
36.019
35.905
35.797
35.694
35.6
35.516
35.441
35.377
35.324
35.282
35.251
35.232
35.224
35.227
35.239
35.258
35.284
35.316
35.354
35.395
35.44
35.484
35.528
35.568
35.603
35.631
35.651
35.662
35.664
35.657
35.639
35.612
35.576
35.53
35.476
35.414
35.343
35.267
35.186
35.101
35.015
34.928
34.841
34.756
34.673
34.593
34.52
34.451
34.387
34.327
34.271
34.219
34.17
34.123
34.078
34.034
33.991
33.947
33.904
33.86
33.818
33.777
33.737
33.697
33.657
33.617
33.579
33.543
33.509
33.479
33.452
33.43
33.413
33.403
33.397
33.395
33.396
33.397
33.398
33.399
33.399
33.398
33.394
33.389
33.38
33.369
33.356
33.339
33.321
33.301
33.28
33.259
33.236
33.213
33.191
33.169
33.148
33.127
33.108
33.089
33.071
33.054
33.039
33.026
33.018
33.014
33.015
33.024
33.041
33.071
33.116
33.181
33.268
33.383
33.528
33.709
33.93
34.195
34.503
34.853
35.241
35.661
36.105
36.563
37.027
37.483
37.923
38.337
38.717
39.056
39.351
39.596
39.79
39.935
40.031
40.083
40.094
40.066
40.005
39.917
39.806
39.677
39.537
39.389
39.237
39.084
38.932
38.785
38.644
38.511
38.386
38.27
38.164
38.069
37.983
37.907
37.839
37.779
37.724
37.672
37.623
37.574
37.526
37.477
37.427
37.375
37.319
37.259
37.193
37.12
37.039
36.95
36.852
36.746
36.629
36.501
36.365
36.224
36.08
35.938
35.798
35.665
35.539
35.424
35.324
35.238
35.167
35.111
35.071
35.048
35.039
35.045
35.063
35.09
35.124
35.165
35.21
35.257
35.305
35.352
35.395
35.434
35.468
35.497
35.519
35.533
35.538
35.535
35.522
35.501
35.471
35.434
35.39
35.34
35.284
35.223
35.16
35.094
35.027
34.958
34.888
34.817
34.745
34.674
34.603
34.532
34.463
34.393
34.323
34.253
34.184
34.115
34.046
33.977
33.908
33.839
33.772
33.706
33.644
33.588
33.539
33.497
33.462
33.434
33.413
33.398
33.39
33.386
33.387
33.391
33.398
33.407
33.416
33.425
33.432
33.438
33.44
33.439
33.432
33.417
33.391
33.355
33.31
33.26
33.206
33.154
33.106
33.064
33.029
33.003
32.986
32.977
32.978
32.987
33.003
33.025
33.052
33.082
33.117
33.155
33.199
33.25
33.313
33.39
33.486
33.606
33.756
33.941
34.164
34.428
34.732
35.073
35.45
35.854
36.28
36.717
37.158
37.59
38.006
38.396
38.753
39.07
39.345
39.576
39.761
39.901
39.997
40.053
40.071
40.056
40.012
39.944
39.856
39.754
39.641
39.522
39.401
39.281
39.163
39.049
38.939
38.836
38.738
38.646
38.559
38.476
38.398
38.326
38.257
38.194
38.134
38.078
38.025
37.975
37.925
37.877
37.828
37.775
37.718
37.654
37.581
37.499
37.406
37.304
37.19
37.066
36.934
36.794
36.649
36.5
36.349
36.199
36.053
35.913
35.782
35.662
35.553
35.458
35.377
35.311
35.259
35.221
35.197
35.187
35.188
35.201
35.222
35.252
35.288
35.328
35.37
35.411
35.452
35.491
35.526
35.558
35.584
35.601
35.61
35.61
35.602
35.587
35.564
35.535
35.499
35.458
35.413
35.364
35.312
35.257
35.198
35.136
35.073
35.008
34.942
34.874
34.804
34.733
34.66
34.586
34.512
34.438
34.366
34.294
34.223
34.153
34.086
34.02
33.957
33.895
33.837
33.781
33.728
33.679
33.634
33.594
33.558
33.526
33.499
33.476
33.457
33.444
33.435
33.43
33.428
33.427
33.425
33.422
33.418
33.412
33.404
33.395
33.382
33.367
33.349
33.33
33.312
33.294
33.275
33.257
33.238
33.22
33.203
33.187
33.172
33.157
33.143
33.131
33.12
33.112
33.108
33.111
33.121
33.141
33.174
33.226
33.301
33.404
33.541
33.715
33.931
34.191
34.497
34.847
35.235
35.655
36.095
36.547
37.0
37.443
37.868
38.264
38.625
38.945
39.221
39.453
39.639
39.781
39.881
39.942
39.969
39.967
39.939
39.888
39.819
39.736
39.643
39.545
39.444
39.342
39.24
39.14
39.044
38.952
38.867
38.788
38.714
38.645
38.58
38.518
38.459
38.403
38.348
38.293
38.238
38.183
38.128
38.072
38.014
37.953
37.887
37.816
37.738
37.653
37.56
37.46
37.352
37.239
37.12
36.995
36.865
36.73
36.59
36.45
36.311
36.177
36.049
35.929
35.819
35.72
35.634
35.562
35.503
35.455
35.421
35.398
35.386
35.384
35.39
35.402
35.42
35.442
35.468
35.496
35.524
35.552
35.579
35.603
35.624
35.642
35.655
35.664
35.667
35.663
35.653
35.635
35.611
35.58
35.542
35.498
35.448
35.393
35.332
35.268
35.201
35.13
35.056
34.98
34.904
34.826
34.749
34.671
34.591
34.502
34.404
34.296
34.182
34.066
33.95
33.84
33.737
33.645
33.565
33.5
33.451
33.418
33.401
33.396
33.4
33.411
33.426
33.443
33.46
33.475
33.487
33.495
33.498
33.498
33.494
33.488
33.478
33.467
33.454
33.441
33.427
33.414
33.401
33.389
33.377
33.364
33.35
33.337
33.326
33.317
33.311
33.306
33.304
33.304
33.305
33.309
33.313
33.316
33.317
33.315
33.308
33.296
33.278
33.256
33.229
33.198
33.163
33.123
33.082
33.04
33.002
32.969
32.945
32.933
32.937
32.964
33.019
33.11
33.241
33.417
33.643
33.92
34.248
34.624
35.042
35.493
35.969
36.456
36.944
37.422
37.877
38.301
38.686
39.027
39.32
39.563
39.755
39.896
39.989
40.038
40.05
40.031
39.985
39.919
39.837
39.743
39.644
39.543
39.442
39.344
39.249
39.159
39.073
38.993
38.917
38.847
38.781
38.718
38.658
38.599
38.541
38.483
38.424
38.364
38.303
38.242
38.179
38.116
38.049
37.978
37.903
37.824
37.741
37.654
37.561
37.463
37.359
37.25
37.136
37.016
36.891
36.763
36.631
36.499
36.369
36.241
36.118
36.001
35.891
35.791
35.7
35.62
35.55
35.49
35.439
35.398
35.365
35.341
35.324
35.312
35.303
35.294
35.284
35.276
35.269
35.268
35.271
35.281
35.297
35.316
35.338
35.362
35.385
35.407
35.424
35.434
35.435
35.428
35.412
35.385
35.348
35.301
35.244
35.181
35.11
35.034
34.952
34.866
34.777
34.686
34.593
34.501
34.411
34.324
34.239
34.157
34.081
34.009
33.943
33.883
33.829
33.78
33.734
33.692
33.653
33.616
33.582
33.548
33.514
33.481
33.447
33.415
33.383
33.352
33.318
33.284
33.247
33.21
33.173
33.138
33.106
33.078
33.054
33.035
33.022
33.013
33.01
33.013
33.021
33.032
33.046
33.06
33.072
33.082
33.089
33.093
33.092
33.087
33.079
33.066
33.051
33.034
33.016
32.998
32.98
32.962
32.946
32.93
32.918
32.907
32.899
32.892
32.884
32.875
32.866
32.856
32.845
32.834
32.821
32.807
32.791
32.773
32.753
32.733
32.711
32.688
32.665
32.642
32.619
32.597
32.577
32.56
32.547
32.537
32.531
32.532
32.54
32.558
32.59
32.638
32.709
32.807
32.939
33.111
33.328
33.593
33.909
34.273
34.683
35.133
35.615
36.119
36.634
37.147
37.647
38.123
38.565
38.967
39.323
39.627
39.879
40.077
40.223
40.321
40.375
40.389
40.369
40.32
40.246
40.151
40.042
39.921
39.794
39.663
39.532
39.402
39.276
39.156
39.044
38.94
38.846
38.76
38.681
38.606
38.536
38.467
38.4
38.334
38.267
38.2
38.133
38.065
37.998
37.93
37.862
37.791
37.718
37.642
37.562
37.476
37.384
37.286
37.181
37.071
36.955
36.833
36.708
36.578
36.445
36.31
36.177
36.048
35.923
35.804
35.692
35.589
35.494
35.41
35.338
35.277
35.228
35.19
35.162
35.144
35.137
35.139
35.149
35.168
35.192
35.221
35.253
35.286
35.318
35.347
35.373
35.392
35.404
35.41
35.409
35.4
35.383
35.359
35.328
35.289
35.243
35.192
35.133
35.069
34.999
34.925
34.847
34.768
34.689
34.611
34.536
34.464
34.394
34.327
34.263
34.201
34.141
34.083
34.025
33.968
33.912
33.856
33.801
33.747
33.692
33.637
33.581
33.525
33.471
33.419
33.37
33.324
33.283
33.244
33.21
33.179
33.154
33.132
33.115
33.101
33.089
33.079
33.072
33.067
33.064
33.061
33.057
33.052
33.046
33.039
33.032
33.024
33.014
33.003
32.991
32.978
32.965
32.952
32.94
32.931
32.924
32.919
32.917
32.916
32.917
32.92
32.925
32.931
32.938
32.947
32.955
32.962
32.969
32.974
32.977
32.979
32.978
32.973
32.965
32.955
32.942
32.928
32.912
32.896
32.877
32.858
32.839
32.821
32.806
32.795
32.786
32.779
32.776
32.774
32.775
32.779
32.784
32.792
32.803
32.819
32.841
32.872
32.916
32.978
33.064
33.182
33.339
33.541
33.793
34.096
34.451
34.853
35.297
35.773
36.272
36.781
37.287
37.779
38.243
38.672
39.056
39.391
39.672
39.897
40.068
40.187
40.259
40.288
40.279
40.236
40.166
40.073
39.964
39.843
39.713
39.576
39.435
39.291
39.148
39.006
38.867
38.731
38.598
38.468
38.342
38.222
38.106
37.995
37.889
37.788
37.692
37.602
37.517
37.436
37.36
37.285
37.213
37.14
37.066
36.989
36.906
36.819
36.727
36.629
36.526
36.417
36.302
36.183
36.06
35.937
35.815
35.695
35.582
35.475
35.377
35.291
35.218
35.159
35.115
35.085
35.068
35.063
35.067
35.082
35.105
35.135
35.171
35.209
35.249
35.289
35.329
35.365
35.398
35.426
35.446
35.459
35.464
35.463
35.457
35.446
35.428
35.405
35.377
35.345
35.309
35.268
35.224
35.174
35.12
35.06
34.996
34.929
34.858
34.784
34.706
34.625
34.541
34.455
34.368
34.28
34.191
34.103
34.015
33.927
33.84
33.755
33.672
33.592
33.515
33.442
33.374
33.311
33.256
33.208
33.166
33.13
33.1
33.077
33.059
33.047
33.04
33.036
33.035
33.034
33.035
33.035
33.034
33.032
33.028
33.022
33.014
33.005
32.995
32.981
32.961
32.935
32.904
32.871
32.839
32.812
32.793
32.782
32.782
32.79
32.805
32.826
32.852
32.88
32.909
32.936
32.96
32.979
32.992
32.998
32.996
32.988
32.974
32.955
32.931
32.903
32.874
32.847
32.822
32.802
32.789
32.785
32.791
32.81
32.848
32.907
32.996
33.118
33.281
33.487
33.739
34.041
34.39
34.784
35.217
35.679
36.161
36.652
37.14
37.613
38.06
38.473
38.843
39.167
39.441
39.663
39.833
39.951
40.022
40.05
40.039
39.995
39.924
39.832
39.725
39.608
39.485
39.358
39.23
39.105
38.983
38.865
38.752
38.642
38.535
38.432
38.331
38.232
38.135
38.039
37.943
37.849
37.756
37.664
37.572
37.48
37.388
37.295
37.202
37.108
37.014
36.917
36.818
36.717
36.613
36.506
36.396
36.282
36.165
36.044
35.92
35.795
35.67
35.546
35.425
35.307
35.195
35.09
34.994
34.908
34.834
34.771
34.72
34.68
34.652
34.636
34.633
34.641
34.66
34.688
34.724
34.764
34.808
34.854
34.901
34.948
34.993
35.033
35.067
35.094
35.114
35.126
35.129
35.122
35.105
35.079
35.045
35.003
34.953
34.897
34.835
34.766
34.694
34.619
34.544
34.468
34.391
34.315
34.239
34.164
34.09
34.017
33.946
33.876
33.807
33.739
33.673
33.608
33.544
33.483
33.422
33.362
33.301
33.242
33.186
33.136
33.094
33.058
33.028
33.0
32.974
32.95
32.928
32.907
32.89
32.874
32.86
32.849
32.841
32.836
32.834
32.836
32.84
32.847
32.854
32.862
32.87
32.878
32.884
32.887
32.888
32.885
32.879
32.871
32.861
32.851
32.84
32.829
32.818
32.806
32.794
32.784
32.774
32.766
32.758
32.751
32.745
32.74
32.736
32.734
32.734
32.735
32.738
32.741
32.746
32.751
32.757
32.764
32.773
32.783
32.797
32.817
32.849
32.896
32.965
33.061
33.191
33.359
33.571
33.833
34.147
34.513
34.929
35.386
35.877
36.389
36.912
37.432
37.937
38.415
38.857
39.254
39.598
39.886
40.115
