Trial 1:0back
37.541
37.528
37.517
37.507
37.495
37.481
37.466
37.448
37.427
37.404
37.379
37.351
37.319
37.285
37.246
37.205
37.16
37.113
37.064
37.013
36.961
36.908
36.855
36.803
36.751
36.699
36.648
36.596
36.546
36.496
36.448
36.402
36.358
36.318
36.281
36.248
36.22
36.196
36.177
36.161
36.147
36.136
36.126
36.118
36.11
36.104
36.099
36.094
36.088
36.081
36.072
36.062
36.052
36.04
36.027
36.012
35.995
35.976
35.953
35.928
35.901
35.872
35.841
35.807
35.771
35.733
35.691
35.647
35.601
35.553
35.505
35.456
35.406
35.357
35.307
35.256
35.206
35.156
35.107
35.059
35.012
34.967
34.921
34.874
34.826
34.779
34.732
34.686
34.642
34.599
34.558
34.518
34.48
34.445
34.412
34.382
34.355
34.33
34.306
34.281
34.256
34.23
34.203
34.176
34.148
34.119
34.09
34.059
34.026
33.992
33.958
33.925
33.893
33.863
33.836
33.811
33.789
33.769
33.752
33.736
33.723
33.711
33.701
33.691
33.68
33.668
33.655
33.64
33.624
33.606
33.587
33.567
33.546
33.525
33.504
33.484
33.466
33.449
33.434
33.42
33.407
33.395
33.382
33.368
33.352
33.336
33.319
33.3
33.277
33.247
33.213
33.178
33.142
33.109
33.08
33.056
33.036
33.022
33.013
33.008
33.008
33.012
33.02
33.029
33.038
33.044
33.048
33.049
33.046
33.041
33.032
33.02
33.006
32.989
32.971
32.952
32.933
32.915
32.897
32.881
32.866
32.853
32.84
32.827
32.814
32.801
32.787
32.773
32.759
32.745
32.732
32.721
32.714
32.713
32.722
32.745
32.783
32.842
32.922
33.027
33.157
33.315
33.499
33.709
33.943
34.199
34.473
34.761
35.059
35.363
35.667
35.967
36.258
36.536
36.797
37.039
37.257
37.453
37.624
37.769
37.89
37.985
38.056
38.104
38.131
38.14
38.133
38.114
38.086
38.05
38.01
37.965
37.919
37.871
37.825
37.781
37.741
37.705
37.674
37.647
37.623
37.6
37.579
37.558
37.539
37.522
37.508
37.495
37.485
37.477
37.469
37.461
37.453
37.445
37.437
37.427
37.416
37.401
37.383
37.36
37.334
37.303
37.268
37.229
37.186
37.14
37.089
37.035
36.977
36.918
36.857
36.797
36.738
36.681
36.628
36.577
36.531
36.49
36.453
36.42
36.392
36.367
36.345
36.326
36.31
36.296
36.283
36.273
36.264
36.255
36.246
36.235
36.222
36.206
36.188
36.168
36.146
36.122
36.096
36.069
36.039
36.008
35.974
35.939
35.902
35.864
35.823
35.781
35.737
35.692
35.646
35.6
35.555
35.512
35.471
35.431
35.39
35.349
35.307
35.264
35.219
35.174
35.128
35.081
35.033
34.984
34.934
34.884
34.833
34.784
34.735
34.688
34.643
34.601
34.561
34.522
34.487
34.452
34.419
34.387
34.356
34.325
34.296
34.266
34.237
34.208
34.18
34.152
34.123
34.094
34.064
34.034
34.004
33.974
33.944
33.916
33.888
33.863
33.838
33.815
33.793
33.773
33.753
33.734
33.715
33.696
33.677
33.657
33.637
33.613
33.585
33.554
33.52
33.486
33.453
33.421
33.392
33.368
33.348
33.333
33.322
33.314
33.307
33.3
33.292
33.285
33.277
33.27
33.262
33.255
33.247
33.237
33.226
33.215
33.203
33.192
33.181
33.17
33.159
33.149
33.138
33.126
33.113
33.1
33.084
33.068
33.05
33.031
33.012
32.992
32.971
32.95
32.928
32.907
32.886
32.866
32.846
32.827
32.807
32.787
32.767
32.748
32.729
32.711
32.693
32.676
32.663
32.652
32.646
32.642
32.64
32.638
32.636
32.633
32.629
32.624
32.618
32.61
32.601
32.591
32.58
32.568
32.555
32.541
32.527
32.514
32.503
32.496
32.492
32.491
32.493
32.498
32.505
32.517
32.534
32.556
32.586
32.626
32.678
32.746
32.831
32.937
33.066
33.218
33.393
33.592
33.813
34.056
34.317
34.593
34.879
35.17
35.461
35.745
36.017
36.275
36.513
36.731
36.925
37.094
37.238
37.355
37.447
37.513
37.557
37.579
37.583
37.57
37.544
37.507
37.462
37.411
37.356
37.301
37.245
37.192
37.141
37.092
37.047
37.003
36.962
36.923
36.887
36.855
36.825
36.799
36.776
36.755
36.736
36.718
36.7
36.683
36.666
36.649
36.63
36.61
36.589
36.566
36.542
36.516
36.489
36.46
36.429
36.395
36.357
36.317
36.274
36.23
36.185
36.14
36.095
36.05
36.007
35.964
35.925
35.889
35.858
35.832
35.812
35.798
35.791
35.789
35.793
35.803
35.817
35.834
35.853
35.872
35.89
35.905
35.917
35.925
35.929
35.93
35.928
35.923
35.915
35.903
35.888
35.869
35.846
35.821
35.793
35.764
35.733
35.702
35.669
35.637
35.604
35.572
35.54
35.509
35.479
35.447
35.415
35.383
35.349
35.315
35.281
35.246
35.209
35.172
35.132
35.091
35.049
35.007
34.964
34.922
34.881
34.84
34.801
34.764
34.728
34.693
34.658
34.624
34.59
34.556
34.522
34.489
34.457
34.426
34.396
34.365
34.335
34.305
34.276
34.248
34.221
34.195
34.17
34.147
34.125
34.105
34.085
34.065
34.045
34.024
34.004
33.984
33.967
33.95
33.933
33.915
33.895
33.874
33.852
33.83
33.81
33.791
33.773
33.757
33.742
33.73
33.719
33.709
33.701
33.693
33.687
33.68
33.674
33.667
33.659
33.649
33.636
33.622
33.605
33.586
33.567
33.547
33.528
33.51
33.492
33.476
33.461
33.446
33.43
33.415
33.398
33.381
33.363
33.343
33.323
33.302
33.28
33.258
33.236
33.215
33.197
33.183
33.171
33.161
33.152
33.143
33.132
33.121
33.11
33.1
33.091
33.087
33.088
33.095
33.113
33.143
33.19
33.257
33.346
33.459
33.596
33.757
33.941
34.146
34.37
34.612
34.866
35.129
35.396
35.66
35.918
36.164
36.396
36.611
36.806
36.979
37.129
37.257
37.361
37.443
37.503
37.545
37.57
37.581
37.578
37.565
37.542
37.513
37.478
37.44
37.399
37.358
37.317
37.278
37.24
37.203
37.169
37.137
37.106
37.077
37.05
37.023
36.998
36.975
36.953
36.932
36.913
36.894
36.876
36.858
36.84
36.82
36.799
36.775
36.75
36.722
36.691
36.657
36.62
36.58
36.537
36.49
36.439
36.385
36.328
36.269
36.21
36.152
36.095
36.039
35.986
35.935
35.888
35.845
35.806
35.772
35.743
35.718
35.696
35.68
35.667
35.659
35.656
35.655
35.657
35.661
35.664
35.667
35.669
35.67
35.669
35.666
35.66
35.652
35.641
35.627
35.61
35.589
35.566
35.539
35.51
35.479
35.446
35.412
35.377
35.342
35.306
35.269
35.231
35.193
35.155
35.116
35.077
35.038
34.998
34.959
34.92
34.881
34.843
34.806
34.768
34.731
34.694
34.659
34.625
34.594
34.565
34.536
34.507
34.473
34.433
34.389
34.342
34.295
34.249
34.206
34.166
34.13
34.099
34.073
34.053
34.037
34.026
34.019
34.013
34.009
34.006
34.003
34.001
33.998
33.994
33.988
33.98
33.969
33.955
33.937
33.916
33.893
33.868
33.843
33.818
33.793
33.769
33.745
33.723
33.702
33.683
33.667
33.652
33.639
33.628
33.618
33.608
33.598
33.588
33.577
33.565
33.552
33.538
33.524
33.51
33.495
33.481
33.467
33.453
33.439
33.424
33.41
33.396
33.384
33.374
33.364
33.355
33.345
33.334
33.32
33.305
33.291
33.276
33.263
33.251
33.241
33.232
33.226
33.224
33.224
33.227
33.231
33.236
33.241
33.245
33.247
33.246
33.242
33.234
33.223
33.208
33.192
33.174
33.156
33.139
33.123
33.109
33.096
33.084
33.074
33.064
33.055
33.046
33.037
33.03
33.024
33.023
33.025
33.032
33.047
33.071
33.108
33.162
33.235
33.332
33.454
33.602
33.777
33.977
34.202
34.448
34.714
34.994
35.283
35.577
35.87
36.158
36.435
36.698
36.943
37.167
37.367
37.541
37.688
37.808
37.901
37.969
38.015
38.039
38.046
38.037
38.014
37.982
37.942
37.897
37.85
37.802
37.755
37.709
37.664
37.621
37.58
37.541
37.505
37.472
37.44
37.412
37.385
37.36
37.337
37.315
37.296
37.277
37.26
37.244
37.229
37.215
37.201
37.187
37.172
37.156
37.14
37.121
37.101
37.077
37.049
37.018
36.983
36.946
36.906
36.864
36.821
36.776
36.731
36.684
36.635
36.585
36.535
36.484
36.436
36.389
36.346
36.307
36.271
36.239
36.212
36.19
36.174
36.164
36.159
36.157
36.159
36.161
36.163
36.165
36.166
36.165
36.163
36.159
36.151
36.139
36.123
36.102
36.078
36.052
36.024
35.994
35.963
35.931
35.898
35.866
35.835
35.804
35.773
35.742
35.71
35.675
35.638
35.598
35.556
35.513
35.467
35.42
35.37
35.319
35.268
35.217
35.167
35.119
35.073
35.029
34.989
34.953
34.919
34.889
34.862
34.837
34.813
34.791
34.768
34.745
34.723
34.699
34.675
34.649
34.621
34.591
34.56
34.528
34.495
34.461
34.427
34.393
34.361
34.331
34.303
34.277
34.252
34.229
34.207
34.187
34.167
34.148
34.131
34.113
34.096
34.078
34.059
34.038
34.018
33.998
33.98
33.963
33.949
33.935
33.921
33.908
33.895
33.882
33.869
33.857
33.844
33.831
33.817
33.801
33.785
33.768
33.75
33.732
33.713
33.694
33.674
33.655
33.636
33.617
33.598
33.58
33.562
33.543
33.525
33.506
33.488
33.469
33.45
33.432
33.415
33.399
33.383
33.368
33.353
33.338
33.323
33.309
33.296
33.283
33.27
33.256
33.241
33.226
33.211
33.196
33.181
33.165
33.149
33.135
33.122
33.114
33.112
33.117
33.131
33.156
33.194
33.248
33.318
33.409
33.521
33.655
33.814
33.994
34.196
34.416
34.652
34.899
35.154
35.412
35.669
35.921
36.165
36.396
36.61
36.806
36.981
37.134
37.263
37.369
37.453
37.515
37.556
37.578
37.583
37.573
37.55
37.517
37.476
37.428
37.377
37.322
37.265
37.207
37.15
37.095
37.043
36.994
36.95
36.91
36.874
36.843
36.816
36.794
36.775
36.759
36.745
36.733
36.723
36.715
36.708
36.703
36.699
36.695
36.689
36.681
36.668
36.65
36.628
36.6
36.569
36.532
36.492
36.448
36.401
36.351
36.299
36.245
36.19
36.136
36.083
36.032
35.984
35.94
35.901
35.866
35.837
35.814
35.796
35.785
35.778
35.775
35.775
35.777
35.779
35.78
35.782
35.783
35.784
35.784
35.785
35.784
35.781
35.777
35.77
35.762
35.752
35.74
35.727
35.712
35.696
35.678
35.659
35.639
35.617
35.593
35.568
35.54
35.511
35.48
35.448
35.415
35.386
35.364
35.348
35.337
35.328
35.319
35.307
35.291
35.269
35.239
35.201
35.154
35.099
35.037
34.972
34.905
34.838
34.772
34.708
34.647
34.589
34.535
34.486
34.442
34.405
34.373
34.347
34.323
34.303
34.284
34.266
34.25
34.233
34.217
34.202
34.185
34.168
34.15
34.131
34.111
34.09
34.069
34.047
34.026
34.006
33.988
33.971
33.956
33.942
33.929
33.916
33.904
33.892
33.88
33.868
33.855
33.842
33.829
33.815
33.802
33.789
33.776
33.762
33.749
33.737
33.725
33.715
33.705
33.693
33.679
33.662
33.642
33.622
33.602
33.586
33.575
33.57
33.569
33.57
33.572
33.574
33.575
33.573
33.568
33.559
33.547
33.533
33.518
33.503
33.491
33.483
33.483
33.493
33.515
33.553
33.608
33.682
33.777
33.894
34.031
34.189
34.364
34.554
34.757
34.967
35.181
35.395
35.605
35.807
35.997
36.173
36.332
36.473
36.595
36.696
36.777
36.839
36.88
36.903
36.91
36.901
36.881
36.851
36.813
36.77
36.723
36.672
36.62
36.566
36.512
36.459
36.408
36.36
36.314
36.272
36.231
36.194
36.158
36.124
36.091
36.061
36.031
36.004
35.976
35.949
35.922
35.894
35.865
35.836
35.806
35.775
35.742
35.708
35.67
35.629
35.586
35.541
35.494
35.445
35.396
35.348
35.302
35.259
35.221
35.189
35.163
35.143
35.13
35.124
35.124
35.129
35.139
35.155
35.175
35.2
35.226
35.254
35.281
35.307
35.331
35.351
35.369
35.385
35.397
35.406
35.411
35.412
35.408
35.4
35.388
35.373
35.357
35.337
35.316
35.293
35.268
35.242
35.215
35.187
35.158
35.127
35.094
35.059
35.021
34.982
34.941
34.899
34.858
34.818
34.779
34.74
34.703
34.666
34.631
34.596
34.562
34.528
34.496
34.464
34.432
34.401
34.371
34.34
34.309
34.279
34.25
34.223
34.197
34.174
34.153
34.135
34.118
34.103
34.089
34.076
34.061
34.046
34.029
34.01
33.989
33.968
33.944
33.918
33.889
33.857
33.825
33.792
33.763
33.736
33.713
33.693
33.676
33.66
33.646
33.634
33.623
33.614
33.605
33.598
33.591
33.586
33.581
33.576
33.57
33.565
33.559
33.553
33.548
33.543
33.538
33.534
33.528
33.523
33.516
33.508
33.5
33.49
33.479
33.467
33.454
33.44
33.426
33.412
33.398
33.384
33.369
33.355
33.342
33.33
33.32
33.311
33.301
33.291
33.277
33.262
33.244
33.224
33.204
33.185
33.166
33.148
33.132
33.117
33.106
33.098
33.095
33.099
33.112
33.137
33.175
33.23
33.304
33.399
33.517
33.658
33.823
34.009
34.216
34.442
34.683
34.936
35.196
35.46
35.722
35.978
36.221
36.448
36.656
36.842
37.004
37.141
37.253
37.342
37.407
37.45
37.475
37.482
37.475
37.455
37.426
37.389
37.346
37.299
37.251
37.204
37.159
37.118
37.081
37.048
37.021
36.997
36.976
36.959
36.945
36.933
36.924
36.918
36.915
36.913
36.912
36.911
36.91
36.908
36.905
36.901
36.896
36.888
36.878
36.865
36.849
36.829
36.808
36.784
36.759
36.731
36.701
36.668
36.631
36.592
36.55
36.505
36.459
36.413
36.367
36.321
36.276
36.234
36.194
36.157
36.124
36.094
36.068
36.046
36.028
36.014
36.006
36.003
36.004
36.009
36.015
36.023
36.029
36.034
36.036
36.037
36.035
36.031
36.026
36.018
36.008
35.996
35.981
35.963
35.942
35.92
35.896
35.871
35.845
35.818
35.791
35.763
35.735
35.707
35.679
35.65
35.62
35.589
35.555
35.519
35.483
35.446
35.41
35.375
35.34
35.304
35.267
35.231
35.195
35.16
35.127
35.096
35.067
35.039
35.011
34.983
34.955
34.927
34.898
34.868
34.839
34.809
34.778
34.749
34.72
34.692
34.665
34.638
34.612
34.586
34.561
34.537
34.514
34.494
34.475
34.459
34.444
34.432
34.42
34.408
34.396
34.384
34.372
34.358
34.344
34.329
34.313
34.295
34.275
34.255
34.234
34.215
34.196
34.179
34.161
34.142
34.121
34.099
34.076
34.053
34.03
34.007
33.984
33.962
33.941
33.921
33.902
33.885
33.869
33.854
33.841
33.829
33.818
33.808
33.799
33.789
33.78
33.771
33.762
33.752
33.74
33.728
33.714
33.699
33.682
33.666
33.649
33.632
33.615
33.598
33.581
33.564
33.547
33.53
33.513
33.495
33.478
33.46
33.442
33.424
33.407
33.39
33.373
33.355
33.336
33.316
33.295
33.277
33.261
33.249
33.242
33.239
33.242
33.251
33.268
33.295
33.335
33.39
33.464
33.559
33.676
33.817
33.983
34.172
34.384
34.616
34.864
35.126
35.396
35.67
35.944
36.212
36.471
36.716
36.942
37.148
37.331
37.488
37.62
37.727
37.809
37.868
37.906
37.924
37.926
37.912
37.886
37.851
37.809
37.762
37.711
37.66
37.609
37.56
37.514
37.473
37.436
37.405
37.378
37.356
37.338
37.324
37.313
37.304
37.297
37.293
37.289
37.288
37.287
37.289
37.291
37.293
37.295
37.296
37.295
37.292
37.287
37.279
37.268
37.252
37.231
37.205
37.174
37.141
37.109
37.079
37.05
37.022
36.992
36.959
36.922
36.882
36.839
36.793
36.747
36.701
36.656
36.612
36.57
36.532
36.496
36.466
36.441
36.421
36.407
36.398
36.395
36.395
36.397
36.401
36.406
36.411
36.414
36.416
36.414
36.408
36.398
36.384
36.365
36.342
36.316
36.288
36.257
36.225
36.191
36.156
36.121
36.086
36.052
36.019
35.986
35.953
35.92
35.887
35.853
35.819
35.784
35.749
35.712
35.676
35.638
35.6
35.563
35.527
35.492
35.458
35.425
35.39
35.355
35.32
35.285
35.251
35.219
35.189
35.159
35.13
35.101
35.071
35.043
35.017
34.994
34.974
34.956
34.938
34.921
34.902
34.881
34.859
34.836
34.811
34.785
34.758
34.729
34.7
34.671
34.642
34.614
34.587
34.562
34.539
34.517
34.498
34.48
34.464
34.448
34.433
34.417
34.399
34.381
34.362
34.342
34.322
34.301
34.279
34.258
34.237
34.217
34.198
34.178
34.159
34.14
34.121
34.102
34.084
34.066
34.048
34.03
34.012
33.995
33.979
33.965
33.951
33.937
33.921
33.904
33.885
33.867
33.849
33.832
33.816
33.801
33.787
33.774
33.762
33.751
33.741
33.731
33.721
33.711
33.7
33.688
33.674
33.658
33.639
33.618
33.596
33.572
33.549
33.527
33.505
33.485
33.466
33.45
33.436
33.424
33.414
33.404
33.395
33.385
33.375
33.363
33.351
33.339
33.327
33.315
33.304
33.292
33.282
33.272
33.264
33.259
33.258
33.263
33.276
33.299
33.337
33.392
33.467
33.565
33.687
33.834
34.005
34.2
34.418
34.657
34.915
35.187
35.468
35.753
36.036
36.312
36.575
36.822
37.048
37.251
37.428
37.579
37.702
37.799
37.871
37.919
37.945
37.951
37.94
37.913
37.874
37.825
37.769
37.709
37.647
37.586
37.528
37.474
37.424
37.379
37.339
37.305
37.275
37.249
37.228
37.21
37.197
37.187
37.18
37.173
37.166
37.158
37.148
37.136
37.124
37.11
37.096
37.081
37.066
37.05
37.033
37.015
36.994
36.97
36.943
36.913
36.878
36.84
36.8
36.757
36.713
36.669
36.625
36.582
36.54
36.5
36.462
36.427
36.395
36.367
36.343
36.321
36.302
36.287
36.275
36.267
36.263
36.264
36.267
36.274
36.282
36.291
36.301
36.31
36.318
36.324
36.327
36.328
36.325
36.318
36.308
36.293
36.274
36.251
36.225
36.195
36.162
36.128
36.092
36.056
36.02
35.984
35.95
35.917
35.885
35.854
35.822
35.791
35.759
35.728
35.698
35.668
35.64
35.612
35.583
35.555
35.525
35.495
35.464
35.433
35.401
35.368
35.334
35.299
35.265
35.232
35.201
35.173
35.145
35.117
35.089
35.062
35.034
35.007
34.981
34.955
34.928
34.9
34.872
34.842
34.812
34.783
34.755
34.728
34.703
34.681
34.661
34.644
34.629
34.616
34.603
34.59
34.578
34.566
34.554
34.542
34.529
34.514
34.499
34.482
34.464
34.446
34.427
34.407
34.388
34.369
34.35
34.331
34.313
34.295
34.276
34.256
34.234
34.212
34.191
34.171
34.153
34.136
34.12
34.105
34.089
34.074
34.059
34.045
34.031
34.019
34.008
33.997
33.987
33.976
33.964
33.951
33.936
33.92
33.903
33.885
33.865
33.845
33.825
33.804
33.783
33.763
33.743
33.724
33.706
33.688
33.672
33.656
33.64
33.625
33.608
33.59
33.571
33.55
33.529
33.509
33.491
33.474
33.46
33.448
33.44
33.436
33.437
33.445
33.461
33.488
33.528
33.582
33.653
33.742
33.85
33.979
34.132
34.307
34.505
34.722
34.957
35.204
35.459
35.717
35.974
36.225
36.466
36.692
36.9
37.085
37.247
37.384
37.497
37.588
37.656
37.705
37.734
37.745
37.741
37.722
37.691
37.651
37.603
37.551
37.495
37.439
37.383
37.328
37.274
37.224
37.176
37.131
37.088
37.048
37.009
36.972
36.936
36.903
36.872
36.844
36.818
36.794
36.771
36.748
36.725
36.702
36.679
36.655
36.63
36.603
36.575
36.545
36.512
36.476
36.437
36.395
36.35
36.305
36.258
36.212
36.167
36.124
36.082
36.045
36.011
35.982
35.957
35.937
35.922
35.911
35.905
35.905
35.91
35.92
35.935
35.953
35.973
35.994
36.014
36.032
36.047
36.058
36.065
36.068
36.067
36.061
36.052
36.039
36.022
36.001
35.978
35.953
35.926
35.898
35.869
35.84
35.811
35.782
35.752
35.721
35.687
35.651
35.611
35.57
35.527
35.484
35.441
35.399
35.354
35.308
35.26
35.21
35.161
35.113
35.069
35.027
34.989
34.954
34.922
34.891
34.864
34.839
34.816
34.794
34.773
34.753
34.733
34.713
34.693
34.672
34.652
34.631
34.61
34.588
34.565
34.542
34.518
34.493
34.469
34.444
34.42
34.395
34.371
34.346
34.32
34.295
34.269
34.243
34.219
34.196
34.174
34.153
34.134
34.116
34.1
34.086
34.074
34.062
34.049
34.036
34.023
34.009
33.995
33.983
33.971
33.959
33.948
33.937
33.926
33.914
33.903
33.893
33.882
33.871
33.86
33.849
33.837
33.825
33.813
33.8
33.786
33.772
33.758
33.743
33.729
33.715
33.702
33.689
33.677
33.665
33.654
33.642
33.63
33.617
33.603
33.589
33.575
33.561
33.547
33.532
33.517
33.502
33.485
33.468
33.452
33.436
33.422
33.41
33.402
33.4
33.405
33.422
33.453
33.5
33.566
33.652
33.759
33.889
34.042
34.219
34.418
34.636
34.869
35.114
35.366
35.619
35.87
36.114
36.346
36.563
36.762
36.94
37.094
37.225
37.33
37.412
37.47
37.507
37.523
37.521
37.504
37.475
37.435
37.389
37.337
37.283
37.227
37.172
37.118
