Trial 1:0back
33.619
33.581
33.543
33.505
33.468
33.43
33.394
33.358
33.323
33.29
33.257
33.226
33.197
33.169
33.143
33.118
33.094
33.069
33.045
33.021
32.996
32.97
32.944
32.916
32.888
32.86
32.833
32.806
32.78
32.756
32.733
32.711
32.691
32.672
32.653
32.634
32.616
32.598
32.58
32.562
32.546
32.529
32.512
32.494
32.476
32.457
32.437
32.418
32.4
32.382
32.366
32.352
32.342
32.338
32.342
32.357
32.387
32.432
32.497
32.582
32.688
32.816
32.966
33.136
33.326
33.532
33.753
33.984
34.224
34.468
34.713
34.954
35.188
35.411
35.622
35.817
35.996
36.157
36.299
36.421
36.525
36.609
36.674
36.722
36.753
36.769
36.771
36.762
36.742
36.713
36.677
36.635
36.588
36.537
36.481
36.422
36.36
36.296
36.23
36.165
36.1
36.037
35.975
35.915
35.857
35.802
35.749
35.699
35.652
35.607
35.564
35.523
35.484
35.446
35.41
35.375
35.34
35.306
35.271
35.236
35.2
35.163
35.124
35.085
35.045
35.004
34.963
34.923
34.884
34.847
34.812
34.779
34.75
34.724
34.701
34.682
34.667
34.654
34.645
34.638
34.634
34.631
34.63
34.63
34.632
34.634
34.637
34.641
34.645
34.65
34.655
34.659
34.663
34.665
34.665
34.663
34.658
34.65
34.64
34.628
34.613
34.596
34.576
34.555
34.531
34.505
34.48
34.454
34.429
34.403
34.378
34.353
34.327
34.302
34.277
34.252
34.226
34.2
34.173
34.146
34.117
34.087
34.057
34.025
33.992
33.958
33.922
33.885
33.848
33.81
33.772
33.734
33.698
33.662
33.628
33.595
33.564
33.534
33.506
33.479
33.454
33.43
33.407
33.385
33.363
33.342
33.321
33.3
33.279
33.259
33.24
33.22
33.2
33.18
33.158
33.137
33.115
33.093
33.071
33.049
33.026
33.002
32.978
32.953
32.928
32.904
32.88
32.856
32.834
32.812
32.792
32.772
32.754
32.737
32.721
32.705
32.689
32.674
32.659
32.644
32.629
32.614
32.599
32.583
32.566
32.549
32.532
32.515
32.498
32.483
32.47
32.462
32.462
32.472
32.494
32.533
32.589
32.664
32.761
32.88
33.02
33.182
33.365
33.566
33.783
34.014
34.253
34.499
34.747
34.993
35.235
35.468
35.691
35.9
36.092
36.267
36.424
36.561
36.677
36.774
36.851
36.91
36.951
36.976
36.987
36.984
36.969
36.944
36.91
36.868
36.819
36.765
36.707
36.644
36.579
36.511
36.442
36.371
36.301
36.23
36.16
36.091
36.025
35.962
35.902
35.845
35.791
35.741
35.694
35.651
35.61
35.571
35.533
35.497
35.46
35.424
35.386
35.348
35.309
35.267
35.225
35.181
35.136
35.091
35.047
35.003
34.962
34.922
34.886
34.854
34.827
34.804
34.785
34.77
34.76
34.753
34.749
34.748
34.749
34.753
34.759
34.767
34.776
34.785
34.795
34.805
34.813
34.821
34.826
34.83
34.832
34.833
34.832
34.829
34.825
34.82
34.813
34.805
34.795
34.784
34.77
34.755
34.738
34.72
34.701
34.681
34.66
34.638
34.615
34.59
34.565
34.538
34.509
34.478
34.446
34.412
34.376
34.339
34.302
34.264
34.227
34.19
34.154
34.119
34.085
34.051
34.019
33.987
33.956
33.925
33.894
33.863
33.832
33.8
33.769
33.736
33.704
33.672
33.641
33.61
33.58
33.551
33.523
33.496
33.47
33.444
33.419
33.395
33.372
33.349
33.326
33.303
33.281
33.26
33.239
33.219
33.198
33.178
33.158
33.138
33.117
33.096
33.075
33.054
33.032
33.011
32.99
32.969
32.948
32.928
32.909
32.891
32.874
32.858
32.842
32.827
32.812
32.798
32.784
32.769
32.755
32.741
32.727
32.713
32.699
32.685
32.671
32.657
32.643
32.628
32.614
32.6
32.586
32.572
32.559
32.547
32.539
32.535
32.54
32.555
32.583
32.627
32.69
32.772
32.876
33.002
33.15
33.319
33.507
33.713
33.934
34.166
34.406
34.65
34.896
35.139
35.376
35.604
35.82
36.023
36.209
36.378
36.529
36.661
36.774
36.868
36.943
37.001
37.042
37.068
37.08
37.08
37.068
37.046
37.015
36.977
36.931
36.88
36.823
36.763
36.7
36.634
36.567
36.498
36.429
36.359
36.289
36.22
36.153
36.086
36.021
35.959
35.897
35.838
35.782
35.727
35.675
35.625
35.576
35.529
35.483
35.438
35.392
35.348
35.304
35.261
35.218
35.177
35.138
35.101
35.066
35.036
35.008
34.985
34.965
34.948
34.935
34.925
34.919
34.915
34.915
34.918
34.922
34.929
34.936
34.945
34.955
34.966
34.979
34.992
35.007
35.022
35.038
35.053
35.068
35.081
35.092
35.101
35.107
35.111
35.112
35.112
35.11
35.105
35.098
35.088
35.076
35.06
35.042
35.021
34.998
34.971
34.943
34.912
34.88
34.846
34.812
34.777
34.741
34.706
34.671
34.636
34.602
34.569
34.535
34.501
34.467
34.434
34.4
34.367
34.334
34.302
34.27
34.238
34.207
34.176
34.145
34.114
34.083
34.051
34.02
33.988
33.956
33.924
33.892
33.86
33.83
33.8
33.772
33.744
33.717
33.69
33.664
33.638
33.614
33.59
33.568
33.547
33.527
33.507
33.487
33.468
33.448
33.429
33.41
33.391
33.372
33.353
33.334
33.316
33.298
33.28
33.261
33.241
33.221
33.2
33.178
33.156
33.135
33.113
33.092
33.072
33.054
33.035
33.017
32.999
32.981
32.961
32.942
32.923
32.904
32.885
32.866
32.847
32.829
32.811
32.794
32.777
32.762
32.747
32.734
32.724
32.718
32.718
32.725
32.744
32.775
32.824
32.892
32.982
33.094
33.231
33.39
33.572
33.774
33.993
34.228
34.474
34.729
34.989
35.25
35.51
35.765
36.011
36.246
36.469
36.676
36.868
37.042
37.197
37.335
37.454
37.556
37.641
37.71
37.764
37.804
37.831
37.844
37.845
37.835
37.814
37.783
37.743
37.695
37.64
37.58
37.514
37.445
37.373
37.298
37.222
37.146
37.069
36.994
36.92
36.848
36.777
36.709
36.642
36.577
36.513
36.452
36.392
36.333
36.276
36.22
36.165
36.111
36.059
36.007
35.957
35.907
35.859
35.813
35.768
35.725
35.685
35.647
35.613
35.583
35.558
35.538
35.523
35.514
35.51
35.511
35.516
35.525
35.538
35.553
35.571
35.59
35.609
35.629
35.649
35.668
35.687
35.705
35.721
35.735
35.748
35.758
35.766
35.772
35.776
35.777
35.775
35.769
35.76
35.748
35.732
35.713
35.691
35.667
35.64
35.611
35.581
35.549
35.516
35.483
35.449
35.414
35.378
35.342
35.305
35.268
35.231
35.193
35.154
35.115
35.076
35.037
34.998
34.96
34.921
34.884
34.848
34.813
34.778
34.745
34.711
34.678
34.644
34.61
34.575
34.54
34.503
34.466
34.428
34.391
34.354
34.317
34.282
34.246
34.212
34.178
34.145
34.112
34.081
34.051
34.022
33.994
33.965
33.938
33.91
33.883
33.855
33.828
33.8
33.772
33.743
33.714
33.685
33.655
33.626
33.598
33.57
33.544
33.518
33.493
33.468
33.444
33.42
33.397
33.374
33.352
33.329
33.305
33.282
33.257
33.232
33.207
33.181
33.156
33.132
33.107
33.084
33.062
33.042
33.025
33.015
33.013
33.022
33.047
33.089
33.153
33.24
33.351
33.487
33.649
33.835
34.043
34.272
34.519
34.779
35.05
35.328
35.608
35.888
36.164
36.432
36.69
36.936
37.166
37.38
37.576
37.753
37.91
38.047
38.165
38.264
38.344
38.408
38.456
38.489
38.508
38.515
38.509
38.494
38.469
38.436
38.395
38.347
38.292
38.23
38.162
38.09
38.012
37.931
37.848
37.762
37.676
37.588
37.501
37.415
37.329
37.245
37.161
37.078
36.996
36.915
36.834
36.755
36.677
36.6
36.524
36.45
36.379
36.311
36.246
36.185
36.128
36.075
36.026
35.981
35.941
35.906
35.875
35.849
35.826
35.808
35.795
35.786
35.781
35.781
35.785
35.793
35.804
35.817
35.833
35.85
35.869
35.888
35.907
35.926
35.944
35.961
35.976
35.989
36.0
36.008
36.014
36.016
36.015
36.011
36.004
35.993
35.98
35.963
35.943
35.92
35.894
35.865
35.834
35.8
35.765
35.728
35.691
35.652
35.614
35.574
35.535
35.495
35.454
35.413
35.37
35.327
35.283
35.238
35.193
35.148
35.103
35.058
35.014
34.97
34.927
34.884
34.841
34.798
34.755
34.712
34.669
34.625
34.582
34.538
34.495
34.453
34.411
34.37
34.33
34.291
34.253
34.216
34.181
34.147
34.114
34.081
34.049
34.017
33.986
33.955
33.923
33.892
33.862
33.831
33.801
33.771
33.741
33.712
33.684
33.657
33.63
33.604
33.578
33.551
33.523
33.494
33.464
33.431
33.396
33.36
33.322
33.283
33.243
33.203
33.164
33.126
33.091
33.059
33.031
33.011
33.0
33.001
33.018
33.052
33.106
33.181
33.281
33.406
33.556
33.732
33.933
34.158
34.404
34.668
34.947
35.238
35.536
35.839
36.142
36.443
36.739
37.025
37.3
37.562
37.806
38.032
38.239
38.424
38.589
38.732
38.853
38.953
39.032
39.091
39.132
39.156
39.165
39.16
39.143
39.115
39.078
39.035
38.985
38.931
38.872
38.81
38.744
38.675
38.603
38.529
38.453
38.375
38.296
38.215
38.134
38.052
37.97
37.888
37.808
37.728
37.649
37.57
37.492
37.413
37.334
37.254
37.173
37.091
37.008
36.926
36.844
36.766
36.69
36.619
36.552
36.49
36.434
36.384
36.34
36.302
36.27
36.245
36.227
36.214
36.208
36.208
36.213
36.222
36.236
36.252
36.27
36.29
36.309
36.328
36.345
36.361
36.374
36.385
36.394
36.401
36.406
36.408
36.407
36.404
36.397
36.389
36.378
36.365
36.351
36.335
36.317
36.298
36.276
36.253
36.227
36.2
36.17
36.137
36.102
36.063
36.023
35.981
35.938
35.894
35.849
35.804
35.758
35.713
35.667
35.62
35.573
35.526
35.478
35.43
35.382
35.335
35.287
35.24
35.192
35.145
35.098
35.052
35.006
34.961
34.916
34.872
34.828
34.786
34.744
34.703
34.663
34.623
34.583
34.543
34.502
34.461
34.42
34.378
34.335
34.292
34.249
34.206
34.164
34.123
34.082
34.043
34.005
33.967
33.929
33.892
33.853
33.814
33.773
33.732
33.691
33.649
33.608
33.567
33.526
33.488
33.451
33.419
33.391
33.372
33.364
33.371
33.395
33.441
33.512
33.61
33.739
33.897
34.087
34.307
34.555
34.829
35.125
35.441
35.771
36.112
36.459
36.808
37.154
37.493
37.823
38.14
38.442
38.726
38.99
39.233
39.453
39.651
39.825
39.977
40.106
40.213
40.3
40.368
40.419
40.453
40.473
40.48
40.475
40.461
40.438
40.406
40.368
40.324
40.274
40.219
40.159
40.095
40.027
39.954
39.878
39.798
39.714
39.628
39.54
39.452
39.363
39.274
39.186
39.099
39.013
38.928
38.843
38.759
38.675
38.591
38.507
38.423
38.34
38.256
38.173
38.091
38.01
37.93
37.853
37.778
37.706
37.637
37.571
37.509
37.451
37.398
37.351
37.31
37.274
37.244
37.219
37.201
37.188
37.181
37.178
37.18
37.184
37.19
37.197
37.204
37.212
37.218
37.222
37.225
37.225
37.221
37.215
37.205
37.191
37.174
37.153
37.129
37.102
37.072
37.039
37.003
36.964
36.922
36.877
36.829
36.779
36.726
36.67
36.613
36.554
36.494
36.432
36.369
36.305
36.241
36.177
36.113
36.048
35.983
35.918
35.854
35.789
35.725
35.661
35.597
35.534
35.472
35.411
35.351
35.292
35.234
35.177
35.12
35.064
35.009
34.955
34.901
34.847
34.794
34.741
34.687
34.634
34.58
34.526
34.473
34.419
34.366
34.313
34.261
34.21
34.16
34.111
34.063
34.017
33.971
33.926
33.881
33.837
33.792
33.746
33.7
33.654
33.606
33.559
33.511
33.462
33.413
33.365
33.318
33.276
33.24
33.212
33.198
33.199
33.22
33.263
33.334
33.434
33.566
33.731
33.929
34.16
34.421
34.71
35.022
35.355
35.704
36.064
36.429
36.797
37.161
37.519
37.867
38.202
38.521
38.823
39.104
39.364
39.6
39.813
40.002
40.167
40.309
40.429
40.527
40.604
40.662
40.702
40.725
40.734
40.729
40.712
40.685
40.647
40.601
40.547
40.487
40.422
40.352
40.28
40.206
40.13
40.052
39.974
39.894
39.813
39.729
39.644
39.556
39.467
39.376
39.283
39.19
39.095
39.001
38.906
38.811
38.717
38.623
38.528
38.433
38.338
38.242
38.147
38.053
37.961
37.872
37.787
37.706
37.631
37.56
37.495
37.437
37.383
37.335
37.291
37.252
37.216
37.184
37.155
37.129
37.106
37.086
37.068
37.053
37.04
37.029
37.02
37.011
37.003
36.994
36.986
36.976
36.965
36.953
36.938
36.922
36.903
36.881
36.856
36.827
36.796
36.76
36.722
36.68
36.636
36.59
36.542
36.492
36.441
36.389
36.335
36.281
36.225
36.167
36.107
36.044
35.98
35.913
35.845
35.775
35.705
35.633
35.562
35.49
35.42
35.35
35.281
35.213
35.146
35.08
35.014
34.949
34.884
34.82
34.756
34.694
34.632
34.57
34.508
34.446
34.385
34.324
34.263
34.202
34.142
34.082
34.023
33.964
33.906
33.849
33.792
33.735
33.679
33.624
33.569
33.515
33.461
33.408
33.356
33.303
33.25
33.197
33.144
33.091
33.039
32.987
32.936
32.886
32.837
32.79
32.747
32.708
32.676
32.652
32.642
32.646
32.67
32.716
32.788
32.889
33.02
33.183
33.379
33.607
33.866
34.153
34.466
34.8
35.15
35.511
35.879
36.249
36.616
36.976
37.323
37.656
37.97
38.262
38.532
38.776
38.995
39.188
39.355
39.497
39.616
39.711
39.786
39.84
39.876
39.895
39.897
39.884
39.857
39.817
39.767
39.708
39.64
39.566
39.487
39.404
39.317
39.227
39.135
39.041
38.947
38.851
38.756
38.66
38.563
38.466
38.369
38.271
38.173
38.075
37.975
37.874
37.773
37.67
37.565
37.459
37.352
37.244
37.135
37.027
36.92
36.816
36.715
36.618
36.526
36.44
36.362
36.291
36.227
36.171
36.123
36.08
36.044
36.013
35.986
35.963
35.945
35.93
35.919
35.911
35.905
35.901
35.899
35.897
35.895
35.894
35.891
35.887
35.882
35.874
35.863
35.849
35.832
35.812
35.789
35.762
35.732
35.699
35.662
35.623
35.582
35.538
35.492
35.445
35.395
35.345
35.292
35.239
35.183
35.127
35.069
35.011
34.953
34.895
34.838
34.781
34.724
34.666
34.607
34.547
34.486
34.423
34.359
34.294
34.229
34.165
34.1
34.036
33.972
33.91
33.847
33.786
33.726
33.667
33.609
33.554
33.5
33.448
33.397
33.349
33.301
33.254
33.207
33.159
33.111
33.063
33.013
32.963
32.912
32.861
32.809
32.757
32.706
32.655
32.605
32.556
32.508
32.461
32.414
32.368
32.322
32.276
32.231
32.186
32.141
32.097
32.054
32.013
31.975
31.942
31.915
31.897
31.891
31.902
31.932
31.986
32.068
32.179
32.323
32.5
32.71
32.954
33.229
33.532
33.859
34.206
34.568
34.939
35.315
35.69
36.061
36.422
36.769
37.1
37.41
37.697
37.959
38.195
38.405
38.589
38.747
38.879
38.987
39.07
39.131
39.172
39.193
39.198
39.187
39.162
39.126
39.08
39.026
38.965
38.898
38.824
38.745
38.66
38.57
38.475
38.375
38.272
38.165
38.055
37.944
37.832
37.719
37.605
37.492
37.378
37.265
37.153
37.04
36.928
36.817
36.705
36.594
36.484
36.374
36.267
36.161
36.059
35.961
35.868
35.779
35.696
35.619
35.549
35.485
35.428
35.378
35.336
35.302
35.275
35.256
35.244
35.239
35.239
35.245
35.254
35.267
35.282
35.299
35.317
35.334
35.351
35.366
35.378
35.387
35.392
35.393
35.39
35.384
35.373
35.359
35.342
35.32
35.295
35.266
35.234
35.2
35.162
35.121
35.078
35.032
34.985
34.935
34.884
34.833
34.78
34.727
34.674
34.621
34.567
34.512
34.457
34.401
34.346
34.29
34.234
34.178
34.122
34.065
34.009
33.953
33.896
33.839
33.782
33.725
33.667
33.61
33.553
33.495
33.437
33.379
33.321
33.263
33.205
33.148
33.091
33.036
32.982
32.929
32.878
32.828
32.779
32.732
32.686
32.641
32.598
32.555
32.513
32.471
32.43
32.389
32.347
32.304
32.26
32.215
32.17
32.124
32.078
32.032
31.989
31.949
31.914
31.888
31.872
31.872
31.891
31.933
32.003
32.103
32.235
32.402
32.604
32.839
33.106
33.401
33.721
34.063
34.42
34.788
35.162
35.537
35.909
36.272
36.623
36.958
37.275
37.571
37.843
38.091
38.314
38.511
38.682
38.828
38.949
39.047
39.121
39.175
39.21
39.227
39.227
39.212
39.182
39.138
39.083
39.018
38.943
38.86
38.771
38.676
38.577
38.474
38.369
38.262
38.155
38.047
37.938
37.829
37.72
37.61
37.499
37.387
37.272
37.157
37.041
36.923
36.805
36.687
36.568
36.45
36.333
36.219
36.107
36.0
35.897
35.801
35.711
35.628
35.553
35.486
35.427
35.376
35.333
35.297
35.269
35.248
35.233
35.225
35.222
35.225
35.233
35.244
35.26
35.278
35.297
35.317
35.336
35.354
35.369
35.383
35.394
35.402
35.408
35.411
35.409
35.405
35.396
35.383
35.366
35.345
35.319
35.29
35.258
35.222
35.183
35.142
35.099
35.054
35.008
34.961
34.912
34.861
34.81
34.758
34.706
34.652
34.597
34.541
34.483
34.424
34.363
34.301
34.238
34.175
34.113
34.051
33.99
33.93
33.872
33.815
33.76
33.706
33.653
33.601
33.551
33.502
33.454
33.408
33.362
33.317
33.273
33.229
33.185
33.141
33.098
33.055
33.011
32.968
32.924
32.88
32.835
32.79
32.745
32.699
32.653
32.608
32.563
32.518
32.473
32.43
32.387
32.347
32.311
32.281
32.261
32.254
32.264
32.296
32.354
32.441
32.561
32.715
32.905
33.129
33.385
33.672
33.985
34.321
34.674
35.04
35.412
35.786
36.156
36.517
36.866
37.197
37.51
37.8
38.068
38.312
38.532
38.727
38.899
39.048
39.175
39.28
39.365
39.431
39.479
39.509
39.523
39.521
39.504
39.473
39.429
39.372
39.305
39.227
39.141
39.048
38.949
38.845
38.738
38.627
38.514
38.399
38.282
38.164
38.044
37.924
37.803
37.681
37.559
37.438
37.317
37.196
37.076
36.957
36.837
36.719
36.601
36.485
36.371
36.26
36.155
36.056
35.964
35.881
35.808
35.743
35.688
35.642
35.604
35.574
35.553
35.539
35.531
35.529
35.532
35.54
35.551
35.564
35.58
35.596
35.612
35.628
35.644
35.658
35.672
35.684
35.694
35.702
35.706
35.708
35.705
35.699
35.689
35.676
35.66
35.641
35.618
35.591
35.56
35.524
35.485
35.443
35.397
35.347
35.294
35.238
35.179
35.118
35.057
34.995
34.933
34.872
34.811
34.75
34.69
34.63
34.571
34.511
34.452
34.393
34.334
34.275
34.216
34.157
34.098
34.039
33.981
33.924
33.869
33.815
33.764
33.715
33.667
33.621
33.576
33.531
33.486
33.441
33.396
33.351
33.305
33.259
33.213
33.165
33.118
33.07
33.021
32.973
32.925
32.876
32.828
32.779
32.732
32.685
32.639
32.596
32.557
32.523
32.499
32.486
32.491
32.518
32.571
32.655
32.773
32.927
33.119
33.349
33.616
33.918
34.25
34.611
34.994
35.395
35.808
36.226
36.646
37.062
37.469
37.863
38.24
38.598
38.932
39.242
39.526
39.782
40.01
40.211
40.384
40.531
40.652
40.749
40.823
40.874
40.905
40.917
40.912
40.89
40.855
40.808
40.751
40.683
40.608
40.525
40.434
40.338
40.236
40.13
40.02
39.907
39.791
39.674
39.556
39.436
39.317
39.198
39.079
38.96
38.842
38.725
38.608
38.493
38.378
38.263
38.15
38.037
37.924
37.813
37.703
37.595
37.491
37.391
37.295
37.205
37.12
37.043
36.972
36.909
36.854
36.807
36.768
36.736
36.713
36.696
36.686
36.681
36.68
36.683
36.689
36.696
36.704
36.712
36.719
36.725
36.728
36.729
36.727
36.723
36.715
36.704
36.69
36.673
36.651
36.627
36.599
36.568
36.535
36.498
36.459
36.418
36.374
36.329
36.282
36.232
36.18
36.125
36.067
36.006
35.942
35.875
35.807
35.736
35.666
35.595
35.524
35.454
35.384
35.315
35.246
35.178
35.111
35.045
34.98
34.917
34.855
34.793
34.733
34.673
34.613
34.554
34.495
34.436
34.377
34.318
34.259
34.2
34.141
34.084
34.026
33.969
33.912
33.856
33.799
33.743
33.687
33.63
33.573
33.514
33.455
33.394
33.332
33.27
33.209
33.15
33.094
33.044
33.003
32.975
32.962
32.971
33.004
33.066
33.161
33.291
33.458
33.662
33.904
34.182
34.494
34.836
35.204
35.594
36.001
36.418
36.842
37.266
37.685
38.093
38.487
38.861
39.213
39.539
39.839
40.11
40.354
40.569
40.756
40.915
41.049
41.156
41.24
41.302
41.343
41.364
41.368
41.355
41.327
41.285
41.231
41.167
41.093
41.01
40.919
40.822
40.718
40.61
40.498
40.382
40.264
40.144
40.022
39.899
39.775
39.65
39.526
39.401
39.276
39.152
39.028
38.905
38.783
38.661
38.539
38.417
38.296
38.176
38.057
37.941
37.828
37.719
37.615
37.517
37.426
37.343
37.267
37.201
37.143
37.093
37.051
37.016
36.988
36.966
36.948
36.934
36.924
36.916
36.909
36.904
36.9
36.897
36.895
