Trial 1:0back
35.881
35.898
35.915
35.93
35.945
35.96
35.974
35.987
36.001
36.014
36.025
36.035
36.042
36.048
36.051
36.053
36.055
36.055
36.053
36.051
36.046
36.038
36.029
36.018
36.006
35.993
35.98
35.967
35.954
35.941
35.927
35.91
35.892
35.873
35.852
35.831
35.809
35.787
35.765
35.742
35.719
35.697
35.676
35.656
35.638
35.621
35.604
35.587
35.569
35.551
35.532
35.514
35.495
35.477
35.459
35.443
35.427
35.411
35.396
35.381
35.366
35.352
35.338
35.324
35.31
35.295
35.278
35.261
35.243
35.225
35.207
35.19
35.174
35.157
35.141
35.125
35.11
35.096
35.084
35.074
35.066
35.059
35.053
35.049
35.044
35.04
35.037
35.035
35.034
35.034
35.034
35.035
35.035
35.036
35.036
35.037
35.038
35.039
35.04
35.04
35.038
35.035
35.03
35.023
35.015
35.005
34.994
34.982
34.97
34.957
34.945
34.932
34.919
34.908
34.897
34.886
34.876
34.865
34.855
34.844
34.833
34.822
34.812
34.802
34.794
34.787
34.781
34.776
34.773
34.772
34.772
34.775
34.781
34.79
34.803
34.822
34.845
34.876
34.914
34.96
35.015
35.08
35.154
35.237
35.329
35.428
35.535
35.647
35.762
35.879
35.994
36.105
36.211
36.309
36.4
36.481
36.553
36.616
36.669
36.713
36.747
36.772
36.787
36.794
36.793
36.784
36.771
36.752
36.731
36.706
36.678
36.648
36.615
36.581
36.547
36.515
36.484
36.455
36.427
36.398
36.37
36.341
36.312
36.283
36.254
36.225
36.197
36.168
36.139
36.109
36.079
36.049
36.019
35.99
35.961
35.932
35.903
35.874
35.844
35.814
35.785
35.757
35.732
35.711
35.693
35.678
35.667
35.659
35.654
35.651
35.651
35.655
35.661
35.671
35.682
35.695
35.71
35.725
35.742
35.761
35.782
35.805
35.829
35.852
35.874
35.894
35.911
35.925
35.936
35.945
35.952
35.958
35.963
35.965
35.966
35.964
35.961
35.957
35.952
35.946
35.939
35.931
35.922
35.91
35.897
35.882
35.866
35.848
35.83
35.812
35.793
35.775
35.756
35.738
35.721
35.704
35.687
35.67
35.654
35.636
35.618
35.599
35.58
35.561
35.541
35.522
35.501
35.48
35.458
35.436
35.415
35.394
35.374
35.355
35.335
35.316
35.295
35.274
35.252
35.231
35.212
35.194
35.178
35.165
35.153
35.142
35.133
35.124
35.116
35.11
35.104
35.098
35.093
35.087
35.08
35.073
35.065
35.058
35.051
35.045
35.039
35.035
35.031
35.027
35.023
35.018
35.014
35.009
35.005
35.002
34.998
34.995
34.991
34.988
34.985
34.982
34.98
34.978
34.975
34.973
34.97
34.966
34.963
34.959
34.955
34.951
34.946
34.941
34.935
34.928
34.919
34.909
34.9
34.89
34.882
34.875
34.87
34.867
34.865
34.865
34.867
34.872
34.883
34.9
34.923
34.954
34.992
35.037
35.089
35.149
35.217
35.293
35.376
35.465
35.558
35.654
35.752
35.849
35.945
36.038
36.128
36.214
36.295
36.37
36.437
36.496
36.548
36.59
36.623
36.648
36.663
36.671
36.67
36.662
36.648
36.628
36.604
36.577
36.547
36.516
36.482
36.448
36.413
36.377
36.34
36.302
36.265
36.228
36.192
36.157
36.122
36.087
36.053
36.021
35.99
35.959
35.929
35.899
35.868
35.836
35.802
35.768
35.733
35.698
35.663
35.63
35.598
35.567
35.537
35.508
35.483
35.462
35.445
35.433
35.427
35.424
35.425
35.429
35.436
35.445
35.457
35.472
35.49
35.509
35.531
35.553
35.576
35.599
35.621
35.644
35.667
35.69
35.713
35.735
35.754
35.77
35.782
35.79
35.796
35.8
35.803
35.804
35.804
35.802
35.797
35.79
35.78
35.769
35.756
35.741
35.725
35.708
35.689
35.669
35.647
35.626
35.606
35.586
35.568
35.551
35.534
35.517
35.5
35.483
35.467
35.45
35.432
35.415
35.396
35.377
35.356
35.335
35.314
35.292
35.27
35.248
35.226
35.204
35.181
35.157
35.133
35.109
35.087
35.067
35.05
35.035
35.023
35.011
34.999
34.989
34.98
34.972
34.966
34.961
34.957
34.952
34.945
34.937
34.927
34.917
34.906
34.895
34.885
34.875
34.864
34.853
34.843
34.833
34.824
34.818
34.813
34.81
34.808
34.806
34.805
34.804
34.803
34.804
34.805
34.806
34.806
34.805
34.801
34.796
34.789
34.781
34.774
34.767
34.761
34.756
34.751
34.746
34.741
34.736
34.732
34.729
34.726
34.724
34.723
34.724
34.729
34.737
34.75
34.769
34.794
34.826
34.867
34.916
34.975
35.043
35.121
35.209
35.304
35.406
35.513
35.625
35.739
35.854
35.97
36.084
36.196
36.303
36.405
36.5
36.586
36.663
36.731
36.788
36.835
36.87
36.895
36.909
36.915
36.912
36.902
36.887
36.867
36.843
36.816
36.787
36.756
36.723
36.689
36.655
36.619
36.584
36.55
36.516
36.483
36.449
36.415
36.38
36.345
36.31
36.275
36.241
36.207
36.174
36.141
36.109
36.076
36.042
36.009
35.976
35.944
35.914
35.887
35.861
35.837
35.815
35.794
35.774
35.757
35.741
35.727
35.715
35.705
35.697
35.691
35.686
35.685
35.686
35.691
35.698
35.708
35.721
35.736
35.753
35.771
35.791
35.812
35.833
35.854
35.874
35.892
35.908
35.922
35.935
35.945
35.955
35.964
35.971
35.977
35.98
35.98
35.976
35.969
35.959
35.946
35.93
35.913
35.895
35.876
35.856
35.834
35.812
35.789
35.767
35.747
35.729
35.713
35.698
35.683
35.668
35.65
35.632
35.612
35.592
35.57
35.549
35.527
35.504
35.48
35.455
35.431
35.408
35.385
35.364
35.343
35.323
35.302
35.282
35.261
35.241
35.221
35.201
35.182
35.164
35.146
35.13
35.115
35.1
35.087
35.074
35.062
35.051
35.039
35.028
35.017
35.006
34.996
34.987
34.979
34.971
34.965
34.959
34.953
34.947
34.942
34.937
34.932
34.928
34.923
34.92
34.916
34.913
34.91
34.908
34.907
34.907
34.907
34.908
34.91
34.912
34.913
34.913
34.913
34.911
34.908
34.905
34.9
34.894
34.887
34.879
34.871
34.862
34.854
34.845
34.837
34.831
34.828
34.828
34.832
34.841
34.855
34.875
34.9
34.932
34.971
35.016
35.069
35.13
35.199
35.277
35.362
35.455
35.554
35.657
35.764
35.872
35.982
36.091
36.197
36.301
36.399
36.491
36.575
36.65
36.717
36.775
36.823
36.864
36.895
36.918
36.932
36.937
36.933
36.921
36.903
36.879
36.851
36.822
36.792
36.761
36.73
36.698
36.666
36.633
36.6
36.568
36.536
36.504
36.473
36.442
36.411
36.379
36.346
36.314
36.281
36.249
36.217
36.185
36.153
36.119
36.085
36.048
36.011
35.972
35.935
35.899
35.866
35.836
35.809
35.784
35.763
35.745
35.731
35.721
35.716
35.715
35.717
35.722
35.728
35.735
35.742
35.75
35.759
35.77
35.783
35.798
35.815
35.833
35.851
35.87
35.889
35.908
35.925
35.942
35.957
35.969
35.98
35.989
35.995
35.999
36.0
35.998
35.993
35.986
35.976
35.966
35.954
35.941
35.927
35.913
35.897
35.881
35.864
35.846
35.827
35.808
35.789
35.77
35.751
35.732
35.714
35.694
35.674
35.652
35.63
35.606
35.581
35.555
35.529
35.501
35.474
35.446
35.419
35.394
35.37
35.348
35.328
35.31
35.293
35.276
35.26
35.244
35.227
35.209
35.191
35.173
35.154
35.136
35.119
35.103
35.088
35.075
35.065
35.056
35.05
35.043
35.037
35.03
35.023
35.014
35.005
34.996
34.986
34.977
34.968
34.96
34.951
34.943
34.937
34.932
34.928
34.925
34.923
34.921
34.917
34.913
34.908
34.902
34.896
34.888
34.881
34.872
34.863
34.853
34.843
34.835
34.827
34.821
34.817
34.815
34.813
34.811
34.809
34.805
34.801
34.797
34.791
34.785
34.779
34.771
34.764
34.757
34.751
34.745
34.741
34.74
34.74
34.743
34.749
34.757
34.768
34.784
34.806
34.835
34.872
34.919
34.975
35.042
35.118
35.204
35.299
35.404
35.516
35.634
35.756
35.879
36.001
36.121
36.235
36.342
36.443
36.535
36.618
36.691
36.755
36.807
36.85
36.881
36.903
36.915
36.918
36.914
36.903
36.887
36.865
36.84
36.812
36.783
36.753
36.723
36.693
36.664
36.636
36.609
36.581
36.553
36.524
36.494
36.463
36.432
36.402
36.371
36.339
36.306
36.272
36.236
36.199
36.16
36.12
36.079
36.037
35.994
35.951
35.909
35.868
35.829
35.793
35.76
35.731
35.705
35.683
35.666
35.652
35.643
35.637
35.634
35.633
35.634
35.638
35.643
35.65
35.66
35.672
35.686
35.702
35.72
35.739
35.76
35.781
35.801
35.821
35.839
35.856
35.87
35.882
35.892
35.898
35.903
35.905
35.906
35.906
35.905
35.904
35.902
35.899
35.894
35.886
35.875
35.86
35.841
35.82
35.797
35.772
35.746
35.719
35.69
35.661
35.632
35.604
35.576
35.549
35.523
35.498
35.473
35.448
35.424
35.399
35.375
35.352
35.33
35.309
35.29
35.272
35.256
35.241
35.226
35.213
35.2
35.186
35.172
35.156
35.139
35.12
35.099
35.078
35.057
35.036
35.016
34.996
34.977
34.959
34.942
34.927
34.912
34.899
34.887
34.875
34.863
34.852
34.842
34.832
34.824
34.816
34.811
34.807
34.804
34.801
34.798
34.795
34.79
34.786
34.782
34.778
34.774
34.771
34.766
34.76
34.752
34.741
34.73
34.718
34.708
34.699
34.691
34.685
34.68
34.675
34.671
34.668
34.665
34.663
34.661
34.658
34.654
34.649
34.642
34.636
34.629
34.623
34.617
34.61
34.604
34.597
34.59
34.583
34.578
34.576
34.579
34.586
34.598
34.617
34.641
34.672
34.711
34.759
34.817
34.886
34.964
35.051
35.146
35.247
35.353
35.463
35.576
35.69
35.803
35.914
36.022
36.123
36.218
36.304
36.382
36.45
36.51
36.561
36.604
36.638
36.664
36.684
36.695
36.7
36.698
36.69
36.677
36.659
36.638
36.614
36.588
36.56
36.532
36.502
36.471
36.44
36.407
36.374
36.341
36.308
36.275
36.242
36.209
36.177
36.144
36.112
36.079
36.046
36.011
35.976
35.939
35.901
35.863
35.823
35.783
35.743
35.703
35.663
35.626
35.591
35.558
35.529
35.504
35.483
35.467
35.455
35.447
35.444
35.445
35.45
35.457
35.468
35.48
35.494
35.508
35.524
35.54
35.557
35.574
35.592
35.61
35.627
35.643
35.658
35.672
35.684
35.696
35.707
35.718
35.728
35.737
35.745
35.75
35.755
35.758
35.759
35.76
35.758
35.755
35.749
35.739
35.725
35.708
35.687
35.664
35.638
35.612
35.585
35.557
35.529
35.501
35.472
35.445
35.418
35.394
35.37
35.347
35.324
35.301
35.278
35.255
35.231
35.209
35.187
35.165
35.145
35.125
35.105
35.085
35.067
35.049
35.032
35.016
35.0
34.982
34.962
34.939
34.914
34.887
34.86
34.833
34.808
34.786
34.766
34.747
34.731
34.718
34.707
34.699
34.694
34.692
34.693
34.698
34.704
34.713
34.725
34.738
34.754
34.771
34.789
34.806
34.823
34.839
34.854
34.868
34.883
34.896
34.909
34.92
34.928
34.935
34.939
34.943
34.945
34.948
34.95
34.953
34.956
34.961
34.969
34.98
34.995
35.016
35.044
35.08
35.125
35.179
35.241
35.313
35.394
35.484
35.582
35.689
35.804
35.926
36.056
36.191
36.332
36.477
36.625
36.773
36.92
37.063
37.2
37.329
37.447
37.555
37.65
37.731
37.799
37.851
37.887
37.907
37.909
37.895
37.865
37.82
37.762
37.695
37.621
37.544
37.465
37.387
37.312
37.241
37.174
37.114
37.059
37.009
36.963
36.922
36.883
36.847
36.812
36.777
36.741
36.704
36.665
36.624
36.578
36.526
36.467
36.4
36.324
36.239
36.147
36.049
35.945
35.837
35.726
35.615
35.506
35.401
35.304
35.215
35.138
35.073
35.02
34.978
34.947
34.926
34.914
34.911
34.917
34.931
34.953
34.982
35.017
35.055
35.098
35.144
35.194
35.246
35.301
35.357
35.413
35.466
35.516
35.562
35.604
35.641
35.675
35.705
35.731
35.752
35.768
35.779
35.785
35.786
35.784
35.78
35.774
35.767
35.758
35.748
35.736
35.721
35.705
35.685
35.662
35.636
35.607
35.575
35.54
35.502
35.461
35.419
35.375
35.33
35.283
35.235
35.186
35.135
35.083
35.031
34.979
34.927
34.876
34.827
34.779
34.734
34.693
34.655
34.623
34.595
34.573
34.555
34.542
34.532
34.524
34.517
34.51
34.503
34.496
34.487
34.477
34.466
34.455
34.444
34.434
34.423
34.414
34.405
34.397
34.391
34.386
34.382
34.379
34.378
34.377
34.378
34.378
34.377
34.375
34.372
34.37
34.367
34.366
34.365
34.365
34.365
34.366
34.367
34.369
34.374
34.381
34.394
34.412
34.435
34.466
34.505
34.553
34.611
34.68
34.758
34.845
34.941
35.044
35.153
35.267
35.384
35.503
35.622
35.741
35.857
35.969
36.075
36.173
36.263
36.344
36.416
36.478
36.531
36.575
36.61
36.636
36.653
36.663
36.665
36.661
36.652
36.639
36.624
36.606
36.587
36.566
36.545
36.522
36.499
36.476
36.453
36.431
36.41
36.389
36.368
36.346
36.324
36.3
36.275
36.248
36.22
36.191
36.161
36.13
36.097
36.063
36.027
35.99
35.953
35.917
35.882
35.85
35.82
35.793
35.769
35.749
35.735
35.727
35.726
35.735
35.751
35.776
35.807
35.845
35.889
35.937
35.99
36.046
36.105
36.168
36.234
36.303
36.372
36.441
36.51
36.579
36.646
36.713
36.778
36.841
36.901
36.955
37.003
37.043
37.074
37.096
37.109
37.115
37.114
37.106
37.091
37.07
37.041
37.004
36.96
36.909
36.852
36.789
36.723
36.654
36.583
36.51
36.438
36.366
36.296
36.228
36.164
36.103
36.048
35.996
35.949
35.906
35.868
35.834
35.805
35.779
35.758
35.741
35.728
35.721
35.719
35.723
35.734
35.752
35.778
35.81
35.848
35.893
35.943
35.998
36.056
36.116
36.175
36.232
36.285
36.331
36.367
36.393
36.407
36.406
36.391
36.359
36.312
36.25
36.173
36.083
35.981
35.871
35.754
35.635
35.516
35.4
35.288
35.18
35.078
34.98
34.889
34.803
34.722
34.648
34.579
34.515
34.458
34.407
34.364
34.33
34.305
34.292
34.29
34.3
34.322
34.358
34.407
34.47
34.547
34.638
34.741
34.855
34.98
35.113
35.253
35.398
35.548
35.699
35.851
36.0
36.146
36.285
36.418
36.542
36.656
36.761
36.857
36.942
37.016
37.078
37.129
37.17
37.199
37.22
37.232
37.238
37.237
37.231
37.218
37.2
37.176
37.147
37.113
37.076
37.037
36.996
36.954
36.913
36.87
36.828
36.784
36.741
36.697
36.654
36.612
36.571
36.529
36.487
36.444
36.4
36.353
36.304
36.255
36.205
36.157
36.113
36.072
36.034
36.001
35.971
35.945
35.921
35.901
35.886
35.877
35.872
35.873
35.878
35.886
35.897
35.911
35.927
35.945
35.967
35.991
36.016
36.041
36.067
36.091
36.114
36.136
36.156
36.176
36.195
36.213
36.229
36.242
36.253
36.262
36.268
36.273
36.277
36.279
36.28
36.278
36.273
36.265
36.256
36.245
36.233
36.221
36.209
36.197
36.183
36.168
36.151
36.132
36.111
36.087
36.061
36.034
36.006
35.975
35.944
35.912
35.88
35.848
35.818
35.789
35.762
35.736
35.709
35.683
35.656
35.628
35.601
35.573
35.546
35.519
35.493
35.468
35.443
35.419
35.394
35.371
35.348
35.326
35.306
35.286
35.267
35.249
35.231
35.213
35.194
35.175
35.157
35.139
35.121
35.103
35.085
35.068
35.051
35.035
35.022
35.01
35.0
34.992
34.984
34.977
34.969
34.96
34.952
34.943
34.934
34.923
34.912
34.9
34.887
34.874
34.862
34.851
34.841
34.833
34.824
34.816
34.808
34.801
34.793
34.785
34.778
34.771
34.765
34.759
34.754
34.749
34.746
34.745
34.747
34.752
34.762
34.778
34.8
34.83
34.868
34.913
34.967
35.029
35.098
35.176
35.261
35.355
35.456
35.563
35.676
35.793
35.912
36.032
36.15
36.264
36.373
36.476
36.57
36.655
36.73
36.794
36.847
36.891
36.926
36.952
36.969
36.979
36.982
36.978
36.968
36.953
36.934
36.912
36.886
36.858
36.829
36.799
36.768
36.739
36.709
36.68
36.651
36.622
36.593
36.565
36.537
36.51
36.482
36.453
36.423
36.39
36.355
36.317
36.276
36.232
36.187
36.142
36.097
36.054
36.012
35.972
35.934
35.898
35.865
35.835
35.809
35.788
35.772
35.76
35.751
35.746
35.744
35.744
35.748
35.754
35.761
35.771
35.78
35.79
35.799
35.808
35.816
35.824
35.832
35.84
35.848
35.856
35.863
35.87
35.875
35.88
35.884
35.887
35.89
35.892
35.892
35.89
35.886
35.878
35.867
35.853
35.835
35.816
35.795
35.772
35.748
35.723
35.697
35.669
35.64
35.611
35.582
35.553
35.525
35.496
35.466
35.435
35.402
35.369
35.335
35.301
35.269
35.237
35.205
35.175
35.146
35.119
35.094
35.069
35.046
35.024
35.002
34.98
34.958
34.936
34.915
34.895
34.877
34.86
34.845
34.832
34.821
34.81
34.801
34.793
34.786
34.78
34.775
34.77
34.765
34.761
34.757
34.753
34.748
34.744
34.739
34.733
34.727
34.721
34.715
34.709
34.703
34.696
34.689
34.68
34.67
34.659
34.646
34.633
34.619
34.605
34.591
34.577
34.563
34.55
34.538
34.528
34.519
34.511
34.504
34.497
34.489
34.481
34.473
34.464
34.456
34.448
34.442
34.439
34.438
34.442
34.45
34.463
34.484
34.512
34.548
34.592
34.645
34.707
34.777
34.857
34.945
35.041
35.143
35.251
35.36
35.47
35.579
35.684
35.784
35.879
35.967
36.047
36.118
36.18
36.232
36.275
36.307
36.331
36.346
36.354
36.356
36.351
36.342
36.327
36.309
36.287
36.262
36.236
36.208
36.178
36.148
36.115
36.079
36.04
35.998
35.955
35.911
35.867
35.824
35.78
35.736
35.691
35.646
35.601
35.555
35.51
35.464
35.418
35.371
35.323
35.276
35.229
35.186
35.145
35.108
35.074
35.045
35.019
34.997
34.98
34.967
34.96
34.958
34.962
34.97
34.983
34.999
35.017
35.037
35.059
35.083
35.108
35.136
35.166
35.196
35.226
35.254
35.281
35.307
35.329
35.349
35.366
35.378
35.387
35.391
35.391
35.388
35.381
35.373
35.362
35.35
35.337
35.323
35.308
35.292
35.275
35.258
35.241
35.223
35.204
35.184
35.163
35.14
35.117
35.093
35.07
35.048
35.027
35.007
34.988
34.968
34.949
34.929
34.911
34.892
34.874
34.856
34.838
34.819
34.798
34.778
34.758
34.738
34.721
34.706
34.693
34.681
34.672
34.663
34.656
34.649
34.643
34.636
34.628
34.618
34.605
34.591
34.576
34.559
34.542
34.524
34.505
34.486
34.467
34.448
34.43
34.413
34.396
34.38
34.365
34.351
34.338
34.326
34.314
34.303
34.292
34.282
34.272
34.262
34.253
34.245
34.238
34.232
34.227
34.222
34.219
34.217
34.215
34.214
34.214
34.216
34.219
34.226
34.237
34.252
34.272
34.298
34.331
34.373
34.423
34.482
34.552
34.63
34.716
34.809
34.907
35.009
35.113
35.218
35.322
35.424
35.52
35.611
35.695
35.771
35.839
35.9
35.952
35.996
36.032
36.06
36.081
36.094
36.099
36.098
36.089
36.074
36.053
36.026
35.996
35.964
35.931
35.899
35.868
35.837
35.807
35.776
35.745
35.715
35.685
35.655
35.626
35.597
35.567
35.535
35.502
35.466
35.428
35.388
35.346
35.304
35.261
35.218
35.175
35.133
35.093
35.055
35.02
34.989
34.961
34.936
34.914
34.894
34.877
34.864
34.854
34.848
34.845
34.845
34.847
34.851
34.858
34.867
34.88
34.895
34.912
34.931
34.951
34.971
34.991
35.01
35.029
35.047
35.065
35.082
35.098
35.111
35.121
35.126
35.127
35.125
35.118
35.109
35.096
35.08
35.062
35.04
35.016
34.991
34.965
34.94
34.916
34.893
34.871
34.851
34.83
34.809
34.788
34.766
34.743
34.72
34.697
34.674
34.65
34.627
34.604
34.583
34.562
34.543
34.524
34.505
34.487
34.469
34.451
34.435
34.42
34.406
34.394
34.383
34.371
34.358
34.344
34.329
34.313
34.297
34.28
34.264
34.248
34.233
34.22
34.207
34.196
34.186
34.177
34.169
34.162
34.156
34.151
34.147
34.143
34.14
34.136
34.133
34.131
34.131
34.132
34.135
34.139
34.145
34.152
34.159
34.166
34.174
34.181
34.186
34.189
34.19
34.186
34.178
34.168
34.155
34.141
34.126
34.11
34.095
34.081
34.068
34.056
34.047
34.04
34.037
34.036
34.037
34.039
34.042
34.044
34.045
34.047
34.049
34.052
34.056
34.063
34.073
34.088
34.108
34.135
34.171
34.215
34.267
34.328
34.396
34.473
34.558
34.649
34.747
34.849
34.955
35.061
35.166
35.267
35.363
35.453
35.535
35.61
35.678
35.738
35.79
35.833
35.867
35.891
35.906
35.912
35.912
35.906
35.896
35.882
35.864
35.844
35.82
35.795
35.768
35.741
35.714
35.688
35.662
35.637
35.612
35.587
35.562
35.537
35.512
35.488
35.465
35.443
35.422
35.401
35.379
35.358
35.336
35.313
35.289
35.264
35.238
35.21
35.181
35.151
35.121
35.091
