Trial 1:0back
32.676
32.615
32.554
32.493
32.433
32.374
32.317
32.262
32.211
32.163
32.119
32.079
32.042
32.008
31.976
31.945
31.917
31.891
31.867
31.848
31.832
31.82
31.811
31.804
31.801
31.799
31.798
31.796
31.792
31.785
31.777
31.768
31.759
31.751
31.743
31.738
31.735
31.733
31.732
31.732
31.731
31.729
31.725
31.718
31.708
31.693
31.675
31.655
31.632
31.608
31.583
31.558
31.534
31.51
31.487
31.464
31.442
31.42
31.398
31.377
31.355
31.332
31.309
31.285
31.262
31.243
31.231
31.227
31.239
31.27
31.329
31.422
31.557
31.742
31.983
32.287
32.657
33.093
33.594
34.156
34.772
35.431
36.122
36.833
37.548
38.253
38.932
39.572
40.161
40.688
41.147
41.534
41.846
42.086
42.256
42.36
42.402
42.389
42.326
42.219
42.076
41.901
41.702
41.484
41.256
41.021
40.784
40.548
40.314
40.084
39.86
39.642
39.434
39.237
39.051
38.875
38.711
38.555
38.408
38.268
38.133
38.002
37.874
37.747
37.621
37.493
37.362
37.226
37.085
36.939
36.788
36.634
36.479
36.325
36.174
36.027
35.887
35.756
35.637
35.531
35.44
35.366
35.309
35.268
35.242
35.23
35.23
35.24
35.259
35.285
35.315
35.349
35.384
35.421
35.456
35.49
35.52
35.547
35.57
35.588
35.6
35.605
35.604
35.595
35.58
35.556
35.526
35.489
35.446
35.399
35.348
35.292
35.234
35.171
35.103
35.031
34.952
34.866
34.775
34.679
34.579
34.477
34.373
34.269
34.166
34.064
33.966
33.871
33.782
33.699
33.621
33.549
33.48
33.413
33.347
33.281
33.213
33.143
33.07
32.996
32.922
32.849
32.777
32.709
32.645
32.586
32.533
32.486
32.445
32.41
32.381
32.358
32.339
32.324
32.311
32.299
32.286
32.272
32.257
32.24
32.223
32.207
32.193
32.183
32.178
32.177
32.182
32.191
32.204
32.218
32.232
32.246
32.258
32.266
32.269
32.269
32.263
32.252
32.237
32.218
32.196
32.172
32.149
32.126
32.104
32.086
32.07
32.058
32.049
32.041
32.036
32.031
32.026
32.021
32.013
32.002
31.987
31.969
31.947
31.924
31.901
31.882
31.871
31.874
31.895
31.941
32.02
32.137
32.3
32.514
32.785
33.115
33.507
33.959
34.469
35.033
35.642
36.287
36.954
37.629
38.296
38.941
39.551
40.115
40.622
41.067
41.444
41.752
41.989
42.157
42.258
42.296
42.277
42.208
42.094
41.942
41.76
41.554
41.332
41.099
40.862
40.625
40.39
40.158
39.933
39.713
39.502
39.298
39.101
38.912
38.73
38.554
38.384
38.22
38.06
37.903
37.748
37.595
37.442
37.29
37.136
36.981
36.823
36.665
36.507
36.35
36.195
36.042
35.892
35.747
35.608
35.479
35.36
35.255
35.163
35.086
35.025
34.98
34.952
34.939
34.942
34.958
34.988
35.029
35.079
35.137
35.2
35.266
35.332
35.398
35.461
35.518
35.567
35.607
35.636
35.653
35.66
35.656
35.641
35.618
35.586
35.546
35.498
35.441
35.377
35.305
35.227
35.143
35.055
34.963
34.868
34.772
34.674
34.575
34.477
34.38
34.283
34.187
34.092
33.998
33.905
33.814
33.724
33.636
33.548
33.461
33.376
33.291
33.206
33.122
33.039
32.958
32.879
32.803
32.73
32.661
32.597
32.538
32.483
32.432
32.385
32.34
32.297
32.256
32.217
32.178
32.141
32.106
32.074
32.046
32.021
32.001
31.984
31.973
31.965
31.961
31.96
31.962
31.965
31.97
31.976
31.982
31.995
32.014
32.042
32.075
32.11
32.142
32.168
32.185
32.191
32.188
32.175
32.152
32.121
32.085
32.045
32.003
31.962
31.923
31.886
31.852
31.821
31.794
31.769
31.745
31.723
31.702
31.681
31.66
31.641
31.625
31.614
31.61
31.613
31.625
31.649
31.69
31.754
31.848
31.979
32.154
32.381
32.666
33.015
33.431
33.912
34.458
35.06
35.711
36.4
37.114
37.836
38.551
39.244
39.899
40.503
41.045
41.519
41.918
42.242
42.491
42.669
42.778
42.823
42.809
42.743
42.631
42.484
42.307
42.109
41.896
41.674
41.448
41.221
40.997
40.779
40.568
40.365
40.171
39.988
39.815
39.653
39.499
39.353
39.214
39.08
38.95
38.824
38.7
38.578
38.456
38.334
38.21
38.083
37.951
37.815
37.674
37.527
37.375
37.22
37.063
36.907
36.754
36.605
36.463
36.328
36.201
36.083
35.977
35.883
35.801
35.733
35.676
35.633
35.602
35.583
35.577
35.581
35.595
35.617
35.647
35.68
35.716
35.751
35.783
35.809
35.83
35.843
35.844
35.83
35.8
35.755
35.699
35.635
35.568
35.501
35.436
35.375
35.319
35.267
35.218
35.171
35.123
35.074
35.022
34.967
34.907
34.844
34.774
34.698
34.615
34.527
34.432
34.332
34.228
34.12
34.011
33.901
33.792
33.684
33.578
33.477
33.382
33.294
33.213
33.137
33.066
32.999
32.934
32.872
32.811
32.751
32.692
32.635
32.581
32.53
32.482
32.438
32.4
32.366
32.338
32.314
32.293
32.274
32.258
32.245
32.233
32.222
32.212
32.201
32.189
32.177
32.164
32.15
32.135
32.118
32.1
32.083
32.067
32.053
32.042
32.036
32.034
32.038
32.046
32.057
32.069
32.081
32.092
32.1
32.105
32.105
32.1
32.091
32.076
32.059
32.037
32.013
31.986
31.957
31.926
31.894
31.862
31.831
31.801
31.773
31.745
31.717
31.688
31.659
31.629
31.601
31.573
31.548
31.528
31.517
31.52
31.54
31.585
31.66
31.771
31.926
32.13
32.388
32.704
33.084
33.527
34.035
34.603
35.224
35.889
36.585
37.298
38.013
38.715
39.392
40.031
40.619
41.147
41.605
41.989
42.294
42.522
42.675
42.76
42.781
42.747
42.665
42.542
42.388
42.21
42.014
41.805
41.589
41.368
41.146
40.924
40.706
40.493
40.289
40.094
39.911
39.738
39.576
39.424
39.28
39.143
39.012
38.885
38.761
38.64
38.522
38.406
38.291
38.175
38.057
37.934
37.805
37.671
37.53
37.384
37.232
37.077
36.919
36.763
36.61
36.462
36.322
36.19
36.068
35.957
35.859
35.776
35.707
35.653
35.614
35.589
35.577
35.576
35.585
35.602
35.624
35.651
35.681
35.713
35.744
35.771
35.794
35.809
35.816
35.817
35.81
35.796
35.776
35.751
35.721
35.686
35.646
35.6
35.549
35.49
35.425
35.353
35.275
35.19
35.101
35.01
34.916
34.823
34.73
34.637
34.543
34.448
34.351
34.253
34.154
34.055
33.956
33.859
33.764
33.671
33.581
33.496
33.413
33.335
33.259
33.186
33.114
33.042
32.971
32.9
32.832
32.765
32.701
32.639
32.579
32.522
32.468
32.418
32.37
32.326
32.285
32.248
32.215
32.186
32.164
32.149
32.142
32.14
32.142
32.146
32.151
32.155
32.157
32.155
32.15
32.142
32.131
32.118
32.105
32.092
32.082
32.073
32.067
32.062
32.059
32.055
32.051
32.045
32.035
32.023
32.009
31.993
31.976
31.959
31.943
31.929
31.916
31.903
31.889
31.873
31.854
31.834
31.813
31.789
31.765
31.739
31.713
31.689
31.665
31.641
31.617
31.593
31.568
31.544
31.522
31.503
31.489
31.484
31.491
31.517
31.566
31.644
31.758
31.914
32.12
32.38
32.698
33.077
33.518
34.018
34.575
35.183
35.833
36.512
37.207
37.904
38.586
39.241
39.857
40.422
40.927
41.367
41.736
42.032
42.254
42.405
42.488
42.509
42.475
42.391
42.264
42.102
41.911
41.698
41.47
41.233
40.991
40.746
40.503
40.263
40.03
39.805
39.591
39.388
39.198
39.019
38.851
38.694
38.547
38.409
38.278
38.155
38.037
37.923
37.811
37.699
37.584
37.465
37.34
37.206
37.065
36.918
36.765
36.61
36.454
36.299
36.147
36.001
35.862
35.734
35.624
35.533
35.463
35.413
35.382
35.365
35.361
35.366
35.378
35.396
35.419
35.445
35.472
35.498
35.522
35.544
35.562
35.576
35.586
35.591
35.592
35.587
35.577
35.561
35.541
35.515
35.485
35.448
35.406
35.357
35.302
35.239
35.17
35.094
35.015
34.934
34.854
34.775
34.697
34.62
34.545
34.473
34.401
34.329
34.256
34.18
34.102
34.021
33.938
33.854
33.769
33.685
33.602
33.521
33.444
33.37
33.3
33.233
33.17
33.111
33.056
33.005
32.955
32.908
32.861
32.816
32.772
32.729
32.685
32.641
32.597
32.555
32.514
32.476
32.441
32.409
32.381
32.356
32.336
32.321
32.31
32.304
32.304
32.308
32.316
32.326
32.337
32.349
32.362
32.374
32.387
32.399
32.41
32.42
32.429
32.436
32.441
32.443
32.442
32.437
32.431
32.422
32.412
32.401
32.389
32.377
32.365
32.35
32.334
32.315
32.293
32.271
32.246
32.22
32.193
32.166
32.141
32.119
32.101
32.087
32.078
32.076
32.081
32.096
32.124
32.168
32.231
32.315
32.42
32.554
32.724
32.94
33.208
33.533
33.921
34.37
34.877
35.437
36.037
36.669
37.317
37.969
38.612
39.231
39.815
40.35
40.828
41.241
41.584
41.855
42.054
42.181
42.241
42.237
42.178
42.07
41.921
41.74
41.533
41.309
41.072
40.827
40.578
40.329
40.083
39.844
39.614
39.397
39.191
38.998
38.815
38.643
38.479
38.322
38.172
38.025
37.881
37.738
37.596
37.453
37.309
37.162
37.012
36.857
36.699
36.538
36.378
36.218
36.062
35.911
35.769
35.636
35.516
35.408
35.313
35.231
35.163
35.109
35.071
35.049
35.044
35.054
35.079
35.118
35.167
35.225
35.29
35.358
35.427
35.496
35.562
35.624
35.678
35.723
35.758
35.78
35.789
35.787
35.773
35.75
35.719
35.679
35.632
35.579
35.519
35.454
35.385
35.312
35.233
35.15
35.063
34.973
34.88
34.787
34.694
34.602
34.511
34.422
34.334
34.246
34.156
34.066
33.975
33.885
33.796
33.708
33.623
33.54
33.46
33.384
33.312
33.243
33.178
33.116
33.058
33.004
32.953
32.905
32.86
32.816
32.774
32.736
32.702
32.672
32.645
32.62
32.596
32.575
32.555
32.537
32.52
32.506
32.494
32.483
32.473
32.463
32.453
32.443
32.434
32.426
32.418
32.411
32.403
32.397
32.393
32.389
32.387
32.385
32.384
32.383
32.381
32.377
32.371
32.364
32.356
32.347
32.339
32.329
32.318
32.305
32.292
32.276
32.259
32.239
32.216
32.19
32.163
32.136
32.11
32.086
32.064
32.046
32.033
32.026
32.027
32.038
32.063
32.106
32.172
32.265
32.393
32.56
32.774
33.04
33.364
33.747
34.189
34.687
35.236
35.828
36.455
37.105
37.766
38.425
39.07
39.687
40.264
40.792
41.263
41.669
42.008
42.276
42.475
42.606
42.672
42.681
42.638
42.551
42.429
42.277
42.103
41.912
41.708
41.497
41.283
41.068
40.859
40.656
40.463
40.279
40.107
39.944
39.793
39.651
39.517
39.392
39.272
39.159
39.051
38.947
38.845
38.742
38.637
38.529
38.414
38.293
38.166
38.032
37.893
37.749
37.602
37.451
37.3
37.149
36.999
36.853
36.71
36.574
36.447
36.33
36.227
36.139
36.065
36.008
35.966
35.939
35.926
35.926
35.936
35.955
35.98
36.01
36.043
36.077
36.11
36.14
36.165
36.182
36.191
36.192
36.185
36.169
36.144
36.11
36.069
36.022
35.968
35.909
35.843
35.772
35.696
35.616
35.533
35.448
35.36
35.27
35.179
35.087
34.996
34.905
34.815
34.726
34.638
34.55
34.463
34.377
34.29
34.202
34.113
34.022
33.931
33.839
33.747
33.656
33.568
33.483
33.403
33.327
33.257
33.193
33.134
33.08
33.031
32.985
32.942
32.899
32.858
32.819
32.782
32.748
32.715
32.685
32.657
32.632
32.609
32.588
32.567
32.548
32.531
32.515
32.5
32.487
32.477
32.469
32.465
32.466
32.469
32.475
32.482
32.49
32.497
32.503
32.506
32.507
32.505
32.499
32.491
32.481
32.47
32.46
32.451
32.444
32.439
32.435
32.431
32.429
32.426
32.423
32.42
32.414
32.405
32.393
32.378
32.359
32.338
32.313
32.285
32.254
32.219
32.182
32.145
32.107
32.068
32.028
31.987
31.945
31.904
31.863
31.826
31.793
31.767
31.747
31.734
31.729
31.734
31.752
31.786
31.842
31.924
32.038
32.191
32.39
32.641
32.949
33.318
33.748
34.238
34.784
35.377
36.011
36.674
37.354
38.04
38.716
39.369
39.989
40.563
41.083
41.541
41.933
42.256
42.508
42.689
42.802
42.851
42.843
42.784
42.685
42.552
42.394
42.215
42.023
41.821
41.614
41.405
41.199
40.999
40.808
40.628
40.461
40.305
40.162
40.029
39.905
39.791
39.685
39.586
39.494
39.406
39.321
39.237
39.153
39.065
38.972
38.872
38.764
38.647
38.523
38.391
38.252
38.106
37.953
37.796
37.636
37.474
37.313
37.154
37.001
36.855
36.72
36.596
36.486
36.389
36.306
36.238
36.185
36.148
36.125
36.114
36.113
36.119
36.131
36.146
36.162
36.179
36.195
36.208
36.217
36.222
36.22
36.211
36.194
36.167
36.133
36.092
36.045
35.994
35.938
35.88
35.819
35.755
35.688
35.618
35.545
35.467
35.384
35.296
35.205
35.112
35.018
34.925
34.832
34.739
34.648
34.557
34.466
34.376
34.286
34.196
34.106
34.015
33.925
33.836
33.751
33.669
33.591
33.515
33.442
33.373
33.308
33.246
33.188
33.134
33.085
33.039
32.996
32.955
32.916
32.878
32.841
32.806
32.772
32.741
32.712
32.687
32.664
32.645
32.628
32.614
32.602
32.59
32.578
32.565
32.55
32.534
32.517
32.502
32.489
32.479
32.472
32.47
32.471
32.475
32.481
32.488
32.494
32.497
32.497
32.494
32.489
32.481
32.472
32.463
32.454
32.446
32.438
32.429
32.42
32.41
32.397
32.383
32.365
32.344
32.32
32.293
32.263
32.232
32.2
32.167
32.134
32.099
32.063
32.027
31.99
31.952
31.913
31.875
31.837
31.801
31.767
31.738
31.713
31.693
31.68
31.673
31.676
31.69
31.722
31.775
31.857
31.972
32.128
32.33
32.584
32.894
33.263
33.691
34.175
34.712
35.294
35.913
36.557
37.216
37.874
38.52
39.14
39.723
40.258
40.737
41.155
41.507
41.792
42.008
42.158
42.245
42.275
42.252
42.179
42.062
41.909
41.728
41.527
41.314
41.095
40.877
40.664
40.462
40.272
40.098
39.938
39.794
39.665
39.548
39.443
39.345
39.252
39.162
39.072
38.983
38.892
38.798
38.699
38.593
38.478
38.354
38.221
38.08
37.932
37.779
37.621
37.461
37.3
37.14
36.983
36.83
36.684
36.546
36.418
36.301
36.195
36.101
36.018
35.944
35.88
35.826
35.781
35.746
35.72
35.704
35.695
35.694
35.699
35.71
35.726
35.746
35.77
35.796
35.822
35.847
35.869
35.886
35.897
35.901
35.896
35.883
35.859
35.826
35.784
35.733
35.675
35.611
35.542
35.471
35.397
35.32
35.239
35.154
35.066
34.974
34.881
34.787
34.692
34.598
34.504
34.413
34.324
34.237
34.153
34.07
33.991
33.914
33.838
33.763
33.689
33.615
33.541
33.47
33.4
33.333
33.269
33.209
33.152
33.1
33.052
33.009
32.969
32.932
32.898
32.866
32.836
32.806
32.778
32.75
32.724
32.698
32.674
32.651
32.63
32.611
32.595
32.583
32.574
32.567
32.563
32.565
32.577
32.596
32.623
32.654
32.685
32.715
32.743
32.768
32.786
32.796
32.798
32.791
32.778
32.759
32.736
32.709
32.682
32.653
32.625
32.598
32.573
32.55
32.53
32.512
32.497
32.485
32.473
32.462
32.451
32.44
32.427
32.412
32.395
32.374
32.348
32.32
32.289
32.257
32.224
32.192
32.161
32.134
32.111
32.093
32.081
32.077
32.082
32.099
32.132
32.183
32.257
32.362
32.503
32.688
32.923
33.212
33.556
33.956
34.408
34.909
35.452
36.03
36.634
37.251
37.872
38.483
39.071
39.626
40.136
40.593
40.992
41.329
41.603
41.812
41.961
42.051
42.089
42.079
42.027
41.938
41.816
41.667
41.497
41.311
41.114
40.913
40.71
40.51
40.315
40.125
39.944
39.77
39.603
39.444
39.292
39.149
39.013
38.886
38.766
38.652
38.54
38.429
38.317
38.201
38.081
37.957
37.83
37.701
37.57
37.436
37.3
37.161
37.022
36.883
36.747
36.614
36.486
36.365
36.254
36.154
36.066
35.991
35.929
35.881
35.846
35.825
35.817
35.823
35.839
35.865
35.899
35.939
35.983
36.03
36.075
36.117
36.153
36.182
36.204
36.219
36.225
36.223
36.21
36.187
36.153
36.11
36.056
35.994
35.925
35.851
35.773
35.693
35.609
35.521
35.431
35.337
35.242
35.146
35.05
34.955
34.863
34.772
34.684
34.598
34.513
34.429
34.345
34.261
34.176
34.09
34.006
33.924
33.845
33.771
33.701
33.636
33.577
33.521
33.468
33.416
33.366
33.318
33.273
33.229
33.188
33.149
33.112
33.077
33.046
33.018
32.993
32.97
32.949
32.93
32.912
32.896
32.88
32.866
32.854
32.844
32.836
32.83
32.828
32.828
32.83
32.834
32.839
32.843
32.845
32.844
32.84
32.833
32.822
32.809
32.792
32.772
32.75
32.726
32.701
32.677
32.655
32.636
32.618
32.602
32.588
32.573
32.559
32.543
32.525
32.505
32.483
32.458
32.433
32.41
32.389
32.375
32.369
32.374
32.394
32.432
32.493
32.584
32.711
32.88
33.096
33.365
33.689
34.07
34.506
34.994
35.527
36.095
36.689
37.296
37.905
38.505
39.083
39.628
40.132
40.584
40.978
41.31
41.58
41.787
41.934
42.025
42.066
42.061
42.016
41.938
41.832
41.703
41.558
41.4
41.236
41.07
40.905
40.744
40.59
40.444
40.306
40.178
40.058
39.947
39.843
39.747
39.658
39.574
39.495
39.418
39.341
39.26
39.174
39.08
38.977
38.865
38.743
38.613
38.473
38.325
38.168
38.004
37.834
37.659
37.481
37.302
37.128
36.959
36.799
36.651
36.517
36.397
36.292
36.203
36.13
36.072
36.029
35.999
35.982
35.976
35.978
35.987
36.002
36.02
36.04
36.061
36.079
36.095
36.106
36.112
36.11
36.1
36.084
36.062
36.035
36.003
35.966
35.923
35.874
35.819
35.76
35.698
35.632
35.563
35.492
35.419
35.343
35.266
35.188
35.108
35.028
34.948
34.866
34.784
34.699
34.611
34.52
34.426
34.33
34.233
34.135
34.037
33.94
33.844
33.752
33.664
33.58
33.501
33.426
33.356
33.291
33.229
33.171
33.117
33.066
33.019
32.974
32.931
32.889
32.85
32.813
32.779
32.748
32.719
32.692
32.668
32.646
32.624
32.605
32.588
32.573
32.56
32.55
32.543
32.538
32.536
32.534
32.533
32.532
32.531
32.53
32.528
32.525
32.521
32.517
32.514
32.51
32.507
32.503
32.499
32.495
32.49
32.485
32.478
32.469
32.456
32.441
32.424
32.404
32.381
32.355
32.327
32.298
32.269
32.241
32.213
32.186
32.161
32.137
32.115
32.092
32.069
32.045
32.02
31.995
31.97
31.945
31.923
31.905
31.892
31.89
31.9
31.928
31.978
32.055
32.164
32.313
32.508
32.753
33.054
33.414
33.836
34.319
34.859
35.448
36.075
36.73
37.396
38.062
38.712
39.335
39.919
40.455
40.934
41.349
41.696
41.974
42.184
42.328
42.412
42.442
42.423
42.362
42.265
42.139
41.992
41.831
41.661
41.486
41.31
41.137
40.971
40.813
40.667
40.533
40.412
40.303
40.206
40.116
40.032
39.953
39.878
39.806
39.737
39.669
39.601
39.528
39.449
39.359
39.259
39.146
39.02
38.882
38.734
38.576
38.41
38.237
38.059
37.878
37.695
37.514
37.337
37.168
37.01
36.865
36.735
36.62
36.52
36.434
36.361
36.302
36.254
36.219
36.195
36.18
36.175
36.178
36.185
36.196
36.208
36.22
36.232
36.241
36.248
36.252
36.25
36.242
36.227
36.206
36.177
36.142
36.099
36.048
35.99
35.924
35.853
35.777
35.696
35.611
35.522
35.432
35.339
35.245
35.151
35.058
34.968
34.879
34.794
34.711
34.629
34.549
34.469
34.387
34.305
34.223
34.141
34.062
33.985
33.91
33.84
33.773
33.71
33.649
33.59
33.531
33.472
33.411
33.35
33.288
33.226
33.166
33.109
33.056
33.008
32.964
32.924
32.889
32.858
32.83
32.806
32.783
32.762
32.743
32.726
32.71
32.697
32.686
32.677
32.669
32.662
32.657
32.652
32.648
32.642
32.635
32.625
32.613
32.599
32.583
32.567
32.552
32.539
32.528
32.519
32.513
32.509
32.507
32.507
32.509
32.512
32.513
32.513
32.508
32.498
32.484
32.465
32.444
32.421
32.396
32.37
32.342
32.312
32.281
32.246
32.21
32.172
32.133
32.094
32.056
32.018
31.984
31.951
31.921
31.893
31.865
31.838
31.813
31.791
31.775
31.767
31.769
31.786
31.822
31.885
31.979
32.111
32.287
32.513
32.793
33.129
33.524
33.977
34.484
35.04
35.638
36.268
36.918
37.576
38.229
38.862
39.464
40.022
40.528
40.973
41.353
41.666
41.911
42.09
42.207
42.266
42.272
42.233
42.156
42.047
41.914
41.762
41.599
41.428
41.256
41.084
40.919
40.76
40.609
40.467
40.332
40.205
40.084
39.969
39.861
39.759
39.662
39.569
39.48
39.392
39.303
39.212
39.115
39.012
38.9
38.78
38.651
38.515
38.372
38.223
38.068
37.909
37.747
37.582
37.417
37.256
37.098
36.948
36.805
36.67
36.544
36.43
36.327
36.238
36.162
36.099
36.048
36.01
35.982
