Trial 1:0back
36.828
37.373
37.899
38.399
38.866
39.295
39.683
40.026
40.325
40.579
40.791
40.964
41.101
41.204
41.278
41.324
41.346
41.347
41.329
41.295
41.245
41.182
41.108
41.023
40.93
40.828
40.718
40.599
40.473
40.343
40.209
40.073
39.937
39.801
39.668
39.536
39.406
39.278
39.15
39.022
38.893
38.763
38.632
38.499
38.365
38.229
38.091
37.953
37.815
37.677
37.54
37.405
37.272
37.143
37.019
36.901
36.791
36.69
36.599
36.52
36.451
36.395
36.352
36.321
36.302
36.296
36.302
36.319
36.344
36.377
36.416
36.459
36.506
36.553
36.599
36.642
36.678
36.709
36.733
36.75
36.762
36.769
36.773
36.772
36.766
36.755
36.737
36.713
36.682
36.643
36.597
36.544
36.483
36.414
36.338
36.255
36.166
36.071
35.972
35.87
35.766
35.66
35.555
35.45
35.347
35.244
35.144
35.044
34.945
34.846
34.747
34.648
34.548
34.448
34.347
34.247
34.148
34.052
33.96
33.872
33.79
33.714
33.644
33.58
33.522
33.469
33.422
33.378
33.338
33.299
33.263
33.227
33.192
33.158
33.128
33.101
33.077
33.057
33.04
33.027
33.017
33.01
33.006
33.005
33.005
33.006
33.008
33.008
33.007
33.003
32.997
32.988
32.977
32.962
32.946
32.927
32.908
32.889
32.87
32.851
32.833
32.816
32.8
32.785
32.769
32.753
32.736
32.717
32.693
32.661
32.621
32.572
32.515
32.452
32.385
32.315
32.245
32.175
32.111
32.052
32.004
31.968
31.949
31.952
31.981
32.039
32.129
32.254
32.416
32.617
32.86
33.144
33.47
33.835
34.234
34.664
35.116
35.586
36.064
36.544
37.02
37.483
37.929
38.351
38.744
39.105
39.429
39.716
39.965
40.176
40.35
40.489
40.596
40.673
40.724
40.752
40.76
40.751
40.728
40.694
40.65
40.596
40.534
40.462
40.382
40.292
40.193
40.085
39.97
39.848
39.719
39.585
39.446
39.305
39.162
39.021
38.881
38.743
38.609
38.476
38.345
38.214
38.081
37.946
37.809
37.667
37.523
37.376
37.227
37.078
36.931
36.787
36.649
36.52
36.401
36.293
36.2
36.121
36.057
36.008
35.974
35.953
35.946
35.951
35.966
35.991
36.023
36.061
36.103
36.15
36.199
36.251
36.304
36.358
36.412
36.463
36.511
36.556
36.594
36.624
36.644
36.655
36.654
36.644
36.624
36.596
36.559
36.513
36.459
36.398
36.331
36.259
36.183
36.104
36.02
35.934
35.844
35.752
35.656
35.559
35.458
35.356
35.252
35.147
35.042
34.937
34.832
34.729
34.627
34.528
34.432
34.339
34.249
34.163
34.08
34.0
33.922
33.848
33.776
33.706
33.639
33.574
33.511
33.45
33.392
33.337
33.285
33.237
33.195
33.159
33.129
33.107
33.09
33.079
33.072
33.069
33.066
33.065
33.064
33.063
33.059
33.052
33.042
33.027
33.008
32.987
32.963
32.937
32.911
32.885
32.861
32.837
32.815
32.794
32.772
32.749
32.726
32.7
32.672
32.641
32.607
32.571
32.533
32.494
32.455
32.419
32.386
32.359
32.34
32.333
32.341
32.365
32.41
32.48
32.578
32.708
32.873
33.075
33.317
33.597
33.915
34.268
34.652
35.064
35.496
35.943
36.398
36.854
37.304
37.741
38.158
38.549
38.91
39.24
39.536
39.798
40.024
40.215
40.371
40.493
40.583
40.643
40.679
40.695
40.692
40.674
40.643
40.6
40.546
40.481
40.407
40.322
40.228
40.125
40.014
39.896
39.771
39.641
39.507
39.37
39.232
39.093
38.954
38.817
38.679
38.542
38.403
38.262
38.117
37.967
37.813
37.655
37.494
37.331
37.168
37.007
36.848
36.695
36.55
36.415
36.291
36.181
36.084
36.001
35.933
35.879
35.839
35.813
35.799
35.797
35.806
35.823
35.848
35.879
35.915
35.955
35.998
36.043
36.089
36.135
36.181
36.225
36.266
36.303
36.336
36.363
36.384
36.398
36.403
36.399
36.386
36.363
36.331
36.292
36.246
36.194
36.138
36.078
36.016
35.951
35.884
35.815
35.743
35.668
35.589
35.507
35.42
35.328
35.233
35.133
35.031
34.925
34.818
34.709
34.6
34.491
34.383
34.277
34.173
34.074
33.978
33.888
33.804
33.727
33.657
33.594
33.536
33.482
33.431
33.383
33.335
33.288
33.242
33.198
33.155
33.115
33.078
33.044
33.013
32.985
32.96
32.936
32.914
32.894
32.875
32.857
32.84
32.822
32.805
32.788
32.771
32.754
32.737
32.721
32.705
32.689
32.673
32.657
32.641
32.625
32.608
32.589
32.569
32.548
32.524
32.5
32.474
32.448
32.422
32.396
32.372
32.352
32.339
32.338
32.351
32.384
32.441
32.528
32.647
32.804
33.002
33.242
33.525
33.849
34.212
34.608
35.032
35.477
35.937
36.405
36.872
37.333
37.781
38.209
38.612
38.987
39.328
39.635
39.906
40.14
40.338
40.501
40.631
40.731
40.803
40.849
40.872
40.874
40.86
40.83
40.787
40.733
40.669
40.597
40.518
40.432
40.339
40.242
40.14
40.034
39.925
39.812
39.695
39.577
39.457
39.337
39.219
39.101
38.985
38.868
38.752
38.634
38.513
38.387
38.256
38.119
37.977
37.828
37.676
37.52
37.363
37.207
37.054
36.906
36.766
36.637
36.519
36.416
36.327
36.254
36.196
36.153
36.123
36.105
36.098
36.099
36.109
36.124
36.143
36.165
36.19
36.216
36.243
36.27
36.296
36.323
36.349
36.373
36.395
36.412
36.424
36.429
36.429
36.423
36.409
36.388
36.36
36.326
36.286
36.241
36.188
36.131
36.068
36.001
35.93
35.855
35.776
35.694
35.607
35.516
35.42
35.318
35.212
35.101
34.986
34.87
34.752
34.636
34.521
34.409
34.302
34.199
34.102
34.012
33.928
33.849
33.776
33.707
33.641
33.578
33.518
33.46
33.404
33.351
33.3
33.251
33.204
33.159
33.117
33.08
33.046
33.018
32.995
32.976
32.961
32.95
32.941
32.933
32.925
32.917
32.907
32.895
32.88
32.863
32.843
32.818
32.789
32.756
32.721
32.685
32.649
32.613
32.577
32.543
32.509
32.476
32.444
32.412
32.381
32.351
32.321
32.293
32.268
32.248
32.234
32.231
32.242
32.272
32.325
32.405
32.517
32.665
32.85
33.075
33.34
33.645
33.987
34.362
34.766
35.193
35.634
36.086
36.541
36.991
37.432
37.855
38.256
38.631
38.977
39.29
39.569
39.811
40.015
40.185
40.327
40.442
40.532
40.598
40.64
40.658
40.654
40.629
40.584
40.521
40.444
40.353
40.251
40.139
40.021
39.9
39.778
39.657
39.537
39.418
39.3
39.182
39.065
38.951
38.839
38.729
38.621
38.514
38.406
38.294
38.179
38.06
37.936
37.808
37.674
37.536
37.393
37.247
37.1
36.952
36.807
36.666
36.529
36.399
36.277
36.165
36.065
35.979
35.909
35.854
35.815
35.791
35.781
35.782
35.793
35.811
35.835
35.862
35.893
35.924
35.956
35.988
36.018
36.047
36.073
36.095
36.114
36.128
36.137
36.14
36.137
36.124
36.104
36.075
36.039
35.997
35.95
35.899
35.845
35.786
35.723
35.656
35.585
35.51
35.434
35.355
35.274
35.19
35.104
35.015
34.924
34.831
34.736
34.64
34.542
34.443
34.343
34.243
34.142
34.041
33.942
33.845
33.753
33.666
33.585
33.51
33.442
33.379
33.322
33.268
33.219
33.173
33.129
33.088
33.048
33.009
32.97
32.932
32.896
32.862
32.831
32.804
32.78
32.759
32.742
32.728
32.715
32.704
32.691
32.678
32.663
32.648
32.632
32.614
32.594
32.571
32.545
32.516
32.484
32.451
32.416
32.38
32.346
32.314
32.287
32.266
32.254
32.252
32.266
32.298
32.351
32.43
32.537
32.674
32.845
33.05
33.29
33.565
33.873
34.212
34.577
34.965
35.37
35.786
36.207
36.627
37.037
37.432
37.805
38.151
38.466
38.747
38.992
39.2
39.372
39.511
39.617
39.695
39.746
39.775
39.784
39.778
39.757
39.725
39.683
39.632
39.573
39.507
39.434
39.354
39.268
39.177
39.079
38.977
38.871
38.762
38.649
38.535
38.42
38.307
38.196
38.086
37.977
37.868
37.758
37.646
37.532
37.415
37.295
37.17
37.04
36.907
36.77
36.631
36.492
36.354
36.22
36.091
35.97
35.857
35.755
35.664
35.584
35.515
35.457
35.41
35.373
35.345
35.325
35.314
35.311
35.314
35.326
35.344
35.368
35.398
35.431
35.465
35.501
35.535
35.567
35.596
35.62
35.639
35.652
35.659
35.661
35.657
35.648
35.633
35.613
35.588
35.559
35.525
35.486
35.443
35.395
35.343
35.285
35.221
35.152
35.076
34.995
34.907
34.814
34.716
34.615
34.512
34.41
34.309
34.211
34.116
34.026
33.941
33.861
33.786
33.716
33.648
33.583
33.52
33.458
33.397
33.336
33.277
33.22
33.167
33.118
33.073
33.032
32.995
32.96
32.928
32.897
32.868
32.841
32.816
32.791
32.767
32.743
32.718
32.691
32.663
32.631
32.597
32.561
32.522
32.483
32.443
32.404
32.366
32.33
32.297
32.267
32.24
32.215
32.194
32.175
32.159
32.145
32.135
32.132
32.138
32.155
32.185
32.233
32.304
32.402
32.531
32.693
32.889
33.119
33.385
33.683
34.011
34.365
34.74
35.13
35.53
35.932
36.331
36.723
37.102
37.462
37.801
38.113
38.397
38.65
38.873
39.067
39.233
39.372
39.483
39.567
39.624
39.655
39.66
39.642
39.602
39.543
39.468
39.381
39.284
39.181
39.074
38.965
38.854
38.742
38.63
38.519
38.409
38.298
38.187
38.075
37.961
37.845
37.727
37.607
37.484
37.36
37.233
37.105
36.975
36.844
36.713
36.582
36.454
36.327
36.203
36.081
35.962
35.846
35.733
35.625
35.521
35.424
35.334
35.252
35.179
35.117
35.066
35.028
35.001
34.987
34.982
34.987
34.999
35.019
35.044
35.073
35.105
35.139
35.174
35.209
35.241
35.271
35.298
35.321
35.34
35.356
35.367
35.375
35.378
35.376
35.369
35.357
35.338
35.314
35.284
35.249
35.208
35.16
35.106
35.047
34.982
34.912
34.837
34.759
34.678
34.596
34.513
34.43
34.346
34.262
34.177
34.091
34.005
33.918
33.832
33.745
33.659
33.573
33.488
33.404
33.323
33.246
33.173
33.106
33.045
32.99
32.941
32.898
32.861
32.828
32.801
32.777
32.757
32.739
32.722
32.704
32.685
32.663
32.639
32.612
32.582
32.548
32.513
32.476
32.439
32.402
32.365
32.33
32.298
32.268
32.241
32.218
32.198
32.18
32.165
32.152
32.143
32.138
32.14
32.151
32.174
32.213
32.272
32.354
32.465
32.608
32.785
32.999
33.249
33.535
33.852
34.198
34.568
34.957
35.358
35.766
36.173
36.571
36.955
37.317
37.653
37.96
38.234
38.476
38.684
38.859
39.002
39.115
39.2
39.258
39.292
39.304
39.298
39.274
39.236
39.185
39.124
39.054
38.977
38.895
38.808
38.717
38.623
38.527
38.428
38.328
38.226
38.123
38.018
37.912
37.805
37.696
37.586
37.474
37.359
37.242
37.122
37.001
36.878
36.755
36.631
36.507
36.381
36.256
36.132
36.008
35.887
35.768
35.651
35.538
35.43
35.33
35.237
35.152
35.076
35.009
34.953
34.907
34.873
34.849
34.836
34.832
34.836
34.847
34.863
34.884
34.908
34.932
34.958
34.984
35.01
35.035
35.06
35.083
35.106
35.127
35.147
35.165
35.18
35.191
35.196
35.195
35.186
35.169
35.142
35.107
35.062
35.009
34.95
34.884
34.813
34.739
34.661
34.583
34.505
34.428
34.353
34.279
34.207
34.135
34.064
33.991
33.917
33.842
33.765
33.685
33.603
33.518
33.431
33.344
33.258
33.174
33.093
33.018
32.949
32.886
32.829
32.778
32.733
32.692
32.656
32.621
32.587
32.554
32.519
32.486
32.452
32.419
32.387
32.356
32.327
32.3
32.277
32.256
32.239
32.225
32.215
32.207
32.201
32.198
32.197
32.197
32.197
32.195
32.19
32.182
32.17
32.155
32.137
32.116
32.092
32.066
32.038
32.009
31.98
31.952
31.924
31.897
31.872
31.847
31.822
31.798
31.774
31.752
31.735
31.724
31.723
31.737
31.769
31.827
31.913
32.036
32.197
32.398
32.638
32.917
33.234
33.586
33.969
34.378
34.809
35.252
35.699
36.141
36.57
36.979
37.362
37.715
38.035
38.319
38.567
38.778
38.953
39.093
39.202
39.281
39.334
39.364
39.373
39.364
39.338
39.299
39.248
39.186
39.117
39.041
38.961
38.877
38.79
38.701
38.61
38.515
38.417
38.315
38.21
38.101
37.988
37.872
37.754
37.633
37.511
37.389
37.267
37.146
37.027
36.909
36.793
36.678
36.564
36.451
36.338
36.225
36.111
35.997
35.883
35.771
35.659
35.551
35.448
35.352
35.264
35.187
35.12
35.065
35.022
34.989
34.966
34.952
34.946
34.948
34.956
34.968
34.984
35.004
35.026
35.05
35.076
35.102
35.13
35.157
35.183
35.207
35.227
35.245
35.258
35.266
35.267
35.263
35.251
35.233
35.209
35.178
35.141
35.097
35.048
34.994
34.936
34.875
34.811
34.746
34.68
34.614
34.548
34.481
34.413
34.344
34.272
34.198
34.121
34.041
33.958
33.872
33.784
33.695
33.605
33.515
33.425
33.338
33.253
33.171
33.092
33.017
32.947
32.882
32.821
32.765
32.712
32.662
32.616
32.571
32.528
32.486
32.446
32.406
32.366
32.329
32.294
32.261
32.232
32.205
32.179
32.155
32.133
32.115
32.099
32.087
32.077
32.069
32.062
32.056
32.05
32.044
32.037
32.029
32.021
32.013
32.005
31.998
31.992
31.988
31.986
31.986
31.989
31.994
32.0
32.006
32.009
32.009
32.004
31.995
31.981
31.961
31.938
31.912
31.884
31.854
31.824
31.794
31.764
31.735
31.707
31.676
31.644
31.609
31.571
31.531
31.489
31.446
31.401
31.355
31.309
31.262
31.216
31.174
31.137
31.107
31.087
31.081
31.091
31.121
31.176
31.258
31.374
31.526
31.718
31.951
32.228
32.546
32.903
33.297
33.72
34.168
34.634
35.109
35.586
36.056
36.512
36.947
37.357
37.736
38.081
38.389
38.658
38.888
39.079
39.23
39.343
39.421
39.467
39.484
39.477
39.45
39.406
39.349
39.281
39.206
39.124
39.036
38.943
38.844
38.74
38.63
38.514
38.393
38.267
38.136
38.004
37.87
37.737
37.606
37.477
37.35
37.226
37.104
36.982
36.859
36.736
36.612
36.486
36.358
36.229
36.098
35.967
35.836
35.708
35.582
35.461
35.346
35.239
35.139
35.049
34.969
34.899
34.839
34.79
34.751
34.722
34.703
34.692
34.691
34.697
34.71
34.729
34.754
34.783
34.817
34.855
34.895
34.937
34.98
35.024
35.068
35.11
35.148
35.182
35.21
35.23
35.242
35.245
35.238
35.223
35.199
35.168
35.13
35.088
35.04
34.99
34.936
34.88
34.822
34.76
34.697
34.63
34.561
34.489
34.414
34.335
34.252
34.167
34.079
33.99
33.899
33.809
33.718
33.628
33.541
33.458
33.379
33.304
33.234
33.169
33.106
33.043
32.978
32.909
32.84
32.773
32.71
32.65
32.593
32.538
32.486
32.437
32.39
32.347
32.307
32.271
32.238
32.207
32.178
32.153
32.132
32.114
32.098
32.084
32.07
32.056
32.041
32.025
32.007
31.99
31.972
31.956
31.942
31.929
31.917
31.906
31.897
31.889
31.883
31.878
31.873
31.868
31.863
31.856
31.847
31.837
31.826
31.814
31.802
31.79
31.779
31.769
31.763
31.758
31.756
31.755
31.755
31.754
31.751
31.745
31.736
31.723
31.706
31.686
31.663
31.637
31.609
31.579
31.549
31.519
31.49
31.462
31.436
31.41
31.385
31.362
31.338
31.313
31.286
31.258
31.227
31.193
31.154
31.112
31.068
31.022
30.974
30.925
30.875
30.824
30.775
30.73
30.69
30.658
30.638
30.632
30.646
30.684
30.751
30.854
30.997
31.186
31.425
31.716
32.059
32.453
32.891
33.369
33.879
34.413
34.96
35.511
36.055
36.584
37.089
37.561
37.996
38.389
38.735
39.033
39.284
39.489
39.65
39.771
39.855
39.907
39.932
39.934
39.916
39.882
39.833
39.771
39.699
39.617
39.527
39.428
39.323
39.211
39.094
38.97
38.842
38.71
38.574
38.438
38.302
38.166
38.029
37.892
37.754
37.615
37.473
37.327
37.178
37.025
36.868
36.709
36.547
36.385
36.223
36.064
35.909
35.759
35.615
35.477
35.346
35.222
35.105
34.998
34.9
34.813
34.737
34.673
34.622
34.583
34.557
34.545
34.546
34.56
34.588
34.628
34.678
34.736
34.8
34.868
34.938
35.007
35.074
35.138
35.197
35.251
35.299
35.341
35.376
35.403
35.424
35.437
35.443
35.442
35.434
35.419
35.397
35.366
35.328
35.283
35.232
35.177
35.118
35.054
34.986
34.914
34.838
34.76
34.679
34.595
34.511
34.426
34.341
34.257
34.173
34.088
34.004
33.92
33.835
33.749
33.662
33.573
33.484
33.394
33.304
33.216
33.13
33.046
32.966
32.889
32.816
32.746
32.682
32.621
32.564
32.51
32.459
32.41
32.363
32.317
32.274
32.231
32.189
32.148
32.108
32.068
32.029
31.991
31.956
31.924
31.896
31.872
31.852
31.837
31.827
31.824
31.826
31.833
31.843
31.854
31.865
31.873
31.877
31.878
31.873
31.864
31.85
31.834
31.816
31.798
31.781
31.765
31.753
31.743
31.735
31.728
31.722
31.717
31.711
31.705
31.698
31.691
31.683
31.673
31.663
31.65
31.636
31.62
31.603
31.587
31.571
31.557
31.544
31.532
31.519
31.506
31.493
31.478
31.463
31.448
31.431
31.413
31.393
31.372
31.347
31.321
31.292
31.262
31.23
31.197
31.166
31.137
31.11
31.086
31.064
31.043
31.023
31.001
30.977
30.951
30.922
30.89
30.855
30.818
30.778
30.737
30.694
30.651
30.61
30.57
30.533
30.502
30.478
30.464
30.468
30.495
30.553
30.647
30.785
30.975
31.223
31.534
31.908
32.345
32.841
33.389
33.979
34.602
35.243
35.891
36.53
37.15
37.739
38.288
38.789
39.238
39.631
39.966
40.244
40.467
40.639
40.764
40.848
40.897
40.914
40.906
40.877
40.831
40.77
40.698
40.615
40.523
40.423
40.315
40.198
40.074
39.942
39.802
39.656
39.503
39.343
39.179
39.011
38.839
38.664
38.485
38.304
38.122
37.939
37.756
37.572
37.385
37.197
37.006
36.812
36.617
36.42
36.225
36.031
35.842
35.659
35.484
35.318
35.162
35.019
34.888
34.77
34.666
34.577
34.504
34.446
34.406
34.382
34.376
34.386
34.412
34.453
34.508
34.577
34.657
34.746
34.844
34.946
35.05
35.155
35.257
35.354
35.445
35.527
35.599
35.661
35.712
35.752
35.782
35.802
35.814
35.817
35.813
35.802
35.784
35.76
35.73
35.694
35.653
35.605
35.552
35.493
35.427
35.354
35.274
35.187
35.095
34.998
34.897
34.795
34.691
34.587
34.482
34.378
34.274
34.171
34.066
33.961
33.855
33.749
33.641
33.533
33.426
33.32
33.217
33.116
33.018
32.924
32.833
32.747
32.666
32.59
32.519
32.452
32.388
32.328
32.269
32.213
32.158
32.106
32.055
32.007
31.961
31.919
31.879
31.843
31.809
31.778
31.749
31.721
31.694
31.668
31.643
31.619
31.597
31.577
31.558
31.541
31.525
31.509
31.496
31.484
31.474
31.467
31.462
31.46
31.46
31.464
31.47
31.479
31.489
31.502
31.515
31.529
31.542
31.553
31.561
31.567
31.568
31.567
31.561
31.553
31.543
31.53
31.517
31.503
31.489
31.476
31.465
31.456
31.449
31.444
31.44
31.435
31.429
31.421
31.409
31.391
31.368
31.337
31.301
31.259
31.214
31.165
31.114
31.06
31.006
30.951
30.897
30.845
30.795
30.748
30.703
30.662
30.624
30.591
30.562
30.539
30.525
30.523
30.537
30.574
30.638
30.739
30.884
31.08
31.334
31.649
32.028
32.469
32.969
33.522
34.119
34.75
35.402
36.062
36.718
37.358
37.969
38.543
39.072
39.55
39.974
40.341
40.652
40.908
41.111
41.265
41.373
41.44
41.469
41.465
41.432
41.375
41.296
41.201
41.092
40.973
40.845
40.711
40.57
40.424
40.273
40.116
39.953
39.784
39.607
39.423
39.232
39.032
38.826
38.613
38.393
38.168
37.938
37.704
37.469
37.233
36.997
36.763
36.53
36.3
36.072
35.848
35.629
35.415
35.207
35.004
34.809
34.623
34.448
34.286
34.139
34.01
33.901
33.812
33.745
33.7
33.677
33.677
33.699
33.742
33.804
33.883
33.977
34.085
34.204
34.332
34.466
34.603
34.742
34.881
35.017
35.149
35.277
35.397
35.51
35.612
35.703
35.782
35.847
35.899
35.936
35.958
35.964
35.956
35.935
35.902
35.858
35.805
35.744
35.676
35.601
35.521
35.437
35.348
35.257
35.162
35.065
34.964
34.86
34.752
34.642
34.527
34.41
34.289
34.165
34.038
33.911
33.783
33.658
33.536
33.417
33.302
33.19
33.081
32.975
32.871
32.77
32.671
32.573
32.478
32.384
32.293
32.204
32.118
32.036
31.959
31.889
31.826
31.77
31.719
31.674
31.632
31.593
31.555
31.516
31.477
31.439
31.401
31.363
31.326
31.289
31.252
31.215
31.181
31.147
31.117
31.09
31.069
31.055
31.049
31.049
31.057
31.07
31.092
31.12
31.153
31.188
31.221
31.251
31.275
31.292
31.3
31.301
31.295
31.283
31.267
31.249
31.231
31.213
31.197
31.184
31.175
31.169
31.166
31.167
31.171
31.178
31.186
31.195
31.205
31.214
