Trial 1:0back
35.372
35.371
35.37
35.368
35.365
35.36
35.354
35.347
35.339
35.331
35.323
35.315
35.305
35.293
35.279
35.263
35.246
35.229
35.212
35.197
35.184
35.173
35.165
35.157
35.149
35.141
35.13
35.118
35.104
35.089
35.074
35.061
35.047
35.033
35.017
34.997
34.974
34.948
34.919
34.888
34.856
34.825
34.796
34.771
34.749
34.731
34.716
34.705
34.695
34.685
34.675
34.662
34.646
34.629
34.612
34.596
34.582
34.569
34.556
34.544
34.531
34.518
34.503
34.487
34.471
34.455
34.441
34.428
34.418
34.411
34.405
34.399
34.394
34.387
34.377
34.365
34.351
34.338
34.326
34.317
34.315
34.319
34.331
34.351
34.379
34.413
34.454
34.499
34.55
34.604
34.662
34.725
34.794
34.868
34.948
35.033
35.119
35.205
35.288
35.367
35.443
35.515
35.583
35.646
35.704
35.759
35.808
35.852
35.891
35.924
35.951
35.973
35.991
36.005
36.016
36.023
36.027
36.028
36.027
36.023
36.015
36.001
35.983
35.961
35.937
35.913
35.89
35.868
35.848
35.831
35.816
35.802
35.789
35.774
35.759
35.742
35.724
35.706
35.688
35.67
35.653
35.638
35.623
35.609
35.591
35.571
35.546
35.519
35.492
35.467
35.444
35.423
35.405
35.388
35.373
35.358
35.344
35.331
35.32
35.31
35.303
35.298
35.297
35.298
35.301
35.305
35.307
35.308
35.306
35.302
35.295
35.289
35.284
35.281
35.279
35.278
35.277
35.274
35.269
35.261
35.252
35.241
35.228
35.215
35.201
35.188
35.175
35.163
35.15
35.137
35.123
35.109
35.094
35.079
35.064
35.051
35.04
35.031
35.024
35.018
35.011
35.002
34.99
34.974
34.954
34.932
34.906
34.879
34.851
34.824
34.797
34.772
34.748
34.726
34.704
34.682
34.662
34.642
34.625
34.611
34.6
34.593
34.587
34.582
34.577
34.572
34.565
34.557
34.547
34.536
34.521
34.503
34.484
34.463
34.441
34.419
34.397
34.377
34.357
34.337
34.318
34.301
34.285
34.272
34.263
34.258
34.258
34.263
34.27
34.282
34.297
34.315
34.337
34.363
34.393
34.428
34.467
34.511
34.561
34.617
34.676
34.739
34.806
34.876
34.949
35.024
35.102
35.181
35.258
35.329
35.392
35.45
35.507
35.564
35.623
35.685
35.747
35.808
35.868
35.925
35.978
36.026
36.067
36.101
36.126
36.141
36.148
36.147
36.139
36.125
36.108
36.088
36.067
36.045
36.024
36.005
35.989
35.975
35.963
35.953
35.943
35.935
35.928
35.921
35.914
35.908
35.901
35.894
35.886
35.877
35.866
35.854
35.841
35.827
35.814
35.799
35.782
35.761
35.739
35.717
35.696
35.677
35.661
35.649
35.638
35.629
35.62
35.608
35.594
35.577
35.557
35.535
35.514
35.494
35.475
35.458
35.443
35.429
35.416
35.404
35.393
35.384
35.375
35.369
35.367
35.367
35.37
35.374
35.38
35.386
35.393
35.399
35.405
35.41
35.413
35.413
35.411
35.407
35.4
35.39
35.376
35.359
35.338
35.313
35.283
35.248
35.209
35.169
35.129
35.089
35.05
35.012
34.975
34.938
34.901
34.864
34.827
34.791
34.755
34.72
34.686
34.654
34.623
34.598
34.584
34.581
34.588
34.6
34.616
34.63
34.641
34.646
34.643
34.632
34.612
34.584
34.55
34.511
34.468
34.424
34.381
34.34
34.305
34.275
34.252
34.236
34.229
34.229
34.235
34.245
34.256
34.265
34.272
34.276
34.277
34.276
34.275
34.274
34.274
34.276
34.278
34.28
34.283
34.286
34.289
34.293
34.298
34.305
34.316
34.332
34.355
34.384
34.419
34.462
34.509
34.562
34.62
34.683
34.75
34.822
34.9
34.984
35.073
35.166
35.262
35.36
35.456
35.549
35.638
35.721
35.799
35.87
35.936
35.998
36.056
36.11
36.159
36.204
36.242
36.273
36.298
36.318
36.334
36.346
36.356
36.362
36.367
36.368
36.366
36.363
36.357
36.351
36.344
36.338
36.333
36.328
36.323
36.317
36.312
36.307
36.3
36.292
36.283
36.273
36.262
36.251
36.24
36.227
36.212
36.195
36.175
36.153
36.13
36.105
36.08
36.056
36.034
36.013
35.995
35.979
35.965
35.952
35.941
35.931
35.921
35.91
35.898
35.884
35.87
35.854
35.836
35.817
35.794
35.769
35.744
35.719
35.695
35.673
35.656
35.642
35.631
35.622
35.615
35.609
35.604
35.599
35.594
35.589
35.583
35.575
35.567
35.558
35.549
35.541
35.533
35.523
35.511
35.495
35.476
35.454
35.429
35.404
35.379
35.355
35.332
35.31
35.288
35.267
35.245
35.222
35.198
35.173
35.147
35.122
35.096
35.073
35.051
35.031
35.012
34.993
34.973
34.952
34.93
34.907
34.885
34.863
34.843
34.824
34.806
34.789
34.774
34.76
34.746
34.732
34.716
34.7
34.683
34.665
34.649
34.635
34.624
34.617
34.612
34.607
34.603
34.596
34.588
34.576
34.562
34.548
34.535
34.521
34.507
34.494
34.481
34.469
34.458
34.447
34.436
34.425
34.414
34.402
34.391
34.381
34.373
34.368
34.368
34.372
34.382
34.397
34.417
34.443
34.474
34.51
34.553
34.601
34.656
34.717
34.785
34.86
34.941
35.028
35.117
35.208
35.298
35.386
35.471
35.554
35.633
35.707
35.776
35.84
35.897
35.95
35.997
36.039
36.078
36.113
36.145
36.173
36.198
36.217
36.232
36.242
36.248
36.251
36.252
36.251
36.249
36.247
36.246
36.245
36.245
36.245
36.242
36.238
36.233
36.226
36.219
36.21
36.201
36.191
36.18
36.168
36.156
36.142
36.128
36.112
36.095
36.077
36.058
36.039
36.018
35.997
35.976
35.956
35.935
35.916
35.896
35.876
35.856
35.838
35.82
35.803
35.786
35.77
35.754
35.739
35.723
35.708
35.694
35.679
35.665
35.653
35.643
35.636
35.63
35.626
35.624
35.624
35.624
35.625
35.626
35.626
35.627
35.627
35.629
35.629
35.628
35.626
35.62
35.613
35.604
35.593
35.582
35.568
35.552
35.535
35.517
35.497
35.476
35.454
35.433
35.413
35.393
35.374
35.355
35.335
35.317
35.301
35.289
35.28
35.273
35.269
35.267
35.266
35.266
35.264
35.259
35.251
35.239
35.222
35.201
35.176
35.147
35.117
35.085
35.052
35.018
34.983
34.949
34.916
34.887
34.861
34.837
34.817
34.798
34.781
34.765
34.751
34.739
34.729
34.72
34.712
34.704
34.696
34.688
34.678
34.667
34.657
34.647
34.636
34.625
34.612
34.599
34.587
34.577
34.569
34.563
34.561
34.563
34.569
34.582
34.601
34.627
34.66
34.7
34.748
34.803
34.866
34.935
35.01
35.09
35.174
35.26
35.346
35.432
35.518
35.602
35.684
35.764
35.839
35.909
35.973
36.03
36.081
36.128
36.169
36.207
36.24
36.27
36.297
36.319
36.335
36.346
36.351
36.351
36.347
36.339
36.328
36.316
36.303
36.29
36.278
36.265
36.252
36.24
36.228
36.217
36.207
36.198
36.191
36.183
36.173
36.162
36.147
36.129
36.108
36.084
36.059
36.033
36.008
35.985
35.963
35.942
35.923
35.904
35.885
35.865
35.844
35.823
35.801
35.78
35.759
35.739
35.72
35.701
35.684
35.668
35.653
35.64
35.628
35.619
35.613
35.61
35.609
35.61
35.613
35.615
35.618
35.62
35.62
35.618
35.615
35.61
35.604
35.598
35.593
35.589
35.586
35.583
35.58
35.576
35.569
35.561
35.552
35.543
35.535
35.528
35.522
35.517
35.51
35.502
35.492
35.478
35.461
35.442
35.42
35.395
35.37
35.345
35.321
35.298
35.277
35.256
35.236
35.216
35.197
35.178
35.16
35.143
35.127
35.112
35.098
35.084
35.071
35.058
35.044
35.029
35.012
34.992
34.969
34.944
34.918
34.893
34.87
34.85
34.832
34.816
34.799
34.782
34.764
34.747
34.73
34.714
34.7
34.689
34.68
34.674
34.67
34.668
34.667
34.667
34.67
34.674
34.682
34.696
34.715
34.743
34.779
34.824
34.878
34.941
35.011
35.089
35.175
35.267
35.365
35.467
35.572
35.678
35.783
35.887
35.992
36.095
36.193
36.286
36.369
36.441
36.502
36.55
36.588
36.616
36.636
36.648
36.652
36.648
36.639
36.624
36.606
36.587
36.568
36.549
36.531
36.513
36.495
36.478
36.461
36.443
36.424
36.405
36.386
36.367
36.349
36.332
36.317
36.302
36.288
36.273
36.257
36.239
36.219
36.198
36.177
36.157
36.136
36.114
36.09
36.063
36.033
36.0
35.965
35.93
35.895
35.863
35.833
35.806
35.783
35.764
35.747
35.733
35.722
35.714
35.708
35.705
35.703
35.704
35.706
35.708
35.711
35.714
35.715
35.715
35.715
35.714
35.715
35.715
35.716
35.715
35.713
35.711
35.708
35.705
35.702
35.698
35.694
35.688
35.679
35.666
35.65
35.631
35.609
35.586
35.563
35.54
35.516
35.492
35.468
35.444
35.418
35.391
35.364
35.337
35.311
35.286
35.264
35.244
35.225
35.208
35.191
35.174
35.155
35.133
35.103
35.064
35.02
34.973
34.924
34.876
34.834
34.8
34.775
34.759
34.752
34.753
34.76
34.771
34.784
34.799
34.812
34.825
34.837
34.847
34.855
34.861
34.865
34.868
34.869
34.871
34.874
34.878
34.885
34.896
34.911
34.93
34.954
34.981
35.011
35.044
35.081
35.124
35.174
35.234
35.303
35.381
35.468
35.563
35.664
35.769
35.877
35.988
36.103
36.22
36.338
36.456
36.569
36.675
36.773
36.86
36.936
37.0
37.053
37.095
37.127
37.15
37.164
37.171
37.169
37.16
37.144
37.122
37.095
37.065
37.033
37.0
36.966
36.934
36.903
36.872
36.838
36.802
36.765
36.727
36.689
36.653
36.619
36.586
36.556
36.527
36.5
36.474
36.446
36.419
36.39
36.36
36.33
36.3
36.27
36.24
36.21
36.181
36.153
36.124
36.094
36.064
36.035
36.008
35.985
35.966
35.951
35.94
35.933
35.928
35.926
35.924
35.924
35.923
35.923
35.921
35.92
35.92
35.921
35.924
35.926
35.929
35.931
35.93
35.928
35.923
35.916
35.908
35.9
35.892
35.883
35.873
35.86
35.845
35.826
35.805
35.782
35.758
35.732
35.707
35.683
35.659
35.637
35.615
35.592
35.569
35.545
35.518
35.49
35.46
35.428
35.395
35.362
35.327
35.292
35.254
35.213
35.171
35.129
35.088
35.05
35.016
34.987
34.963
34.943
34.925
34.909
34.891
34.872
34.851
34.826
34.8
34.772
34.743
34.715
34.687
34.661
34.634
34.607
34.58
34.553
34.526
34.499
34.473
34.448
34.427
34.408
34.393
34.382
34.375
34.371
34.37
34.371
34.371
34.37
34.367
34.364
34.362
34.363
34.37
34.383
34.403
34.43
34.464
34.506
34.555
34.612
34.677
34.749
34.829
34.918
35.013
35.116
35.223
35.333
35.445
35.555
35.663
35.766
35.865
35.958
36.045
36.127
36.203
36.271
36.332
36.385
36.43
36.467
36.498
36.524
36.55
36.575
36.599
36.622
36.642
36.656
36.665
36.668
36.664
36.654
36.638
36.618
36.594
36.567
36.536
36.502
36.466
36.43
36.394
36.359
36.326
36.296
36.269
36.246
36.227
36.209
36.192
36.175
36.156
36.136
36.115
36.09
36.063
36.034
36.001
35.967
35.933
35.898
35.862
35.826
35.791
35.756
35.721
35.688
35.657
35.629
35.606
35.588
35.575
35.567
35.562
35.561
35.562
35.564
35.568
35.574
35.58
35.586
35.592
35.596
35.598
35.597
35.593
35.586
35.576
35.563
35.549
35.533
35.517
35.501
35.485
35.469
35.453
35.437
35.42
35.403
35.386
35.37
35.354
35.337
35.318
35.297
35.272
35.245
35.215
35.184
35.152
35.12
35.09
35.06
35.032
35.005
34.979
34.953
34.928
34.904
34.88
34.857
34.835
34.814
34.795
34.777
34.759
34.74
34.719
34.697
34.674
34.651
34.628
34.605
34.582
34.56
34.541
34.523
34.507
34.491
34.475
34.459
34.443
34.427
34.41
34.392
34.374
34.357
34.341
34.325
34.31
34.294
34.278
34.261
34.243
34.226
34.209
34.193
34.179
34.167
34.158
34.151
34.147
34.148
34.155
34.166
34.182
34.203
34.229
34.261
34.299
34.343
34.395
34.454
34.52
34.592
34.67
34.753
34.841
34.933
35.028
35.127
35.227
35.329
35.431
35.532
35.632
35.73
35.823
35.91
35.989
36.058
36.115
36.163
36.201
36.231
36.253
36.269
36.28
36.284
36.283
36.277
36.265
36.25
36.233
36.214
36.194
36.174
36.154
36.135
36.116
36.097
36.079
36.061
36.042
36.024
36.006
35.989
35.972
35.955
35.938
35.919
35.897
35.873
35.847
35.819
35.791
35.763
35.736
35.71
35.687
35.664
35.64
35.616
35.591
35.567
35.545
35.524
35.504
35.486
35.469
35.453
35.44
35.427
35.414
35.401
35.389
35.377
35.367
35.358
35.351
35.345
35.34
35.337
35.334
35.332
35.331
35.33
35.331
35.333
35.336
35.338
35.339
35.336
35.331
35.323
35.311
35.297
35.279
35.257
35.232
35.206
35.178
35.152
35.126
35.102
35.079
35.057
35.035
35.012
34.988
34.963
34.938
34.912
34.888
34.865
34.845
34.827
34.811
34.796
34.783
34.769
34.755
34.74
34.722
34.703
34.682
34.659
34.635
34.61
34.583
34.555
34.525
34.495
34.465
34.436
34.408
34.382
34.357
34.335
34.315
34.298
34.285
34.274
34.265
34.258
34.251
34.243
34.235
34.226
34.218
34.21
34.203
34.196
34.189
34.182
34.173
34.164
34.152
34.139
34.125
34.112
34.099
34.087
34.078
34.074
34.074
34.081
34.095
34.116
34.144
34.182
34.229
34.285
34.351
34.427
34.51
34.601
34.697
34.797
34.901
35.007
35.114
35.22
35.325
35.426
35.522
35.611
35.694
35.769
35.838
35.899
35.954
36.002
36.044
36.079
36.108
36.132
36.149
36.161
36.166
36.165
36.159
36.147
36.131
36.111
36.089
36.065
36.042
36.018
35.996
35.976
35.957
35.941
35.928
35.917
35.907
35.899
35.89
35.88
35.869
35.858
35.846
35.832
35.816
35.797
35.775
35.75
35.723
35.694
35.663
35.63
35.595
35.56
35.524
35.487
35.452
35.42
35.39
35.364
35.34
35.319
35.298
35.28
35.263
35.248
35.236
35.225
35.215
35.208
35.203
35.201
35.201
35.204
35.207
35.21
35.213
35.215
35.216
35.215
35.213
35.212
35.21
35.208
35.205
35.198
35.189
35.177
35.161
35.143
35.124
35.105
35.086
35.068
35.051
35.036
35.02
35.003
34.985
34.965
34.944
34.923
34.901
34.881
34.862
34.844
34.827
34.809
34.79
34.768
34.744
34.717
34.689
34.66
34.631
34.603
34.576
34.551
34.529
34.509
34.49
34.472
34.454
34.435
34.415
34.393
34.371
34.35
34.331
34.315
34.3
34.286
34.271
34.254
34.235
34.215
34.194
34.172
34.15
34.131
34.115
34.103
34.095
34.09
34.087
34.085
34.081
34.075
34.067
34.057
34.047
34.038
34.031
34.026
34.023
34.023
34.025
34.028
34.032
34.037
34.04
34.044
34.047
34.054
34.063
34.079
34.101
34.131
34.169
34.215
34.267
34.324
34.386
34.454
34.529
34.612
34.702
34.8
34.905
35.015
35.128
35.242
35.354
35.462
35.564
35.66
35.749
35.831
35.907
35.975
36.037
36.092
36.139
36.176
36.203
36.22
36.229
36.232
36.23
36.225
36.218
36.208
36.198
36.187
36.176
36.164
36.15
36.136
36.121
36.106
36.092
36.08
36.07
36.062
36.056
36.05
36.044
36.035
36.024
36.009
35.993
35.977
35.96
35.943
35.925
35.906
35.886
35.866
35.844
35.822
35.8
35.779
35.759
35.741
35.726
35.713
35.703
35.695
35.686
35.676
35.664
35.649
35.631
35.611
35.59
35.572
35.558
35.549
35.545
35.545
35.547
35.552
35.559
35.568
35.577
35.588
35.599
35.61
35.621
35.628
35.633
35.633
35.629
35.622
35.611
35.597
35.581
35.563
35.543
35.523
35.5
35.475
35.447
35.418
35.387
35.356
35.327
35.299
35.273
35.247
35.223
35.198
35.173
35.147
35.118
35.087
35.053
35.016
34.976
34.934
34.891
34.849
34.809
34.772
34.737
34.703
34.669
34.634
34.598
34.561
34.524
34.489
34.456
34.426
34.399
34.376
34.356
34.338
34.323
34.31
34.297
34.286
34.275
34.265
34.258
34.252
34.248
34.244
34.242
34.239
34.235
34.231
34.223
34.214
34.201
34.187
34.171
34.156
34.141
34.128
34.118
34.11
34.103
34.097
34.09
34.083
34.074
34.066
34.058
34.053
34.052
34.055
34.064
34.077
34.096
34.12
34.149
34.183
34.223
34.268
34.317
34.373
34.434
34.502
34.578
34.661
34.75
34.846
34.944
35.043
35.141
35.234
35.322
35.407
35.488
35.568
35.647
35.726
35.803
35.877
35.948
36.012
36.07
36.119
36.159
36.19
36.213
36.228
36.235
36.236
36.232
36.222
36.208
36.191
36.172
36.152
36.134
36.117
36.102
36.089
36.076
36.064
36.05
36.037
36.022
36.008
35.993
35.978
35.963
35.947
35.929
35.91
35.89
35.868
35.845
35.82
35.795
35.769
35.743
35.717
35.69
35.661
35.632
35.602
35.571
35.54
35.511
35.484
35.459
35.437
35.417
35.4
35.384
35.371
35.361
35.353
35.349
35.347
35.347
35.35
35.353
35.358
35.364
35.369
35.375
35.381
35.385
35.386
35.385
35.382
35.378
35.371
35.363
35.352
35.34
35.326
35.31
35.293
35.276
35.257
35.237
35.218
35.199
35.182
35.167
35.154
35.141
35.129
35.116
35.101
35.084
35.062
35.038
35.011
34.983
34.955
34.927
34.898
34.869
34.839
34.809
34.78
34.752
34.725
34.699
34.676
34.654
34.635
34.617
34.599
34.582
34.564
34.546
34.528
34.508
34.488
34.467
34.446
34.427
34.409
34.392
34.375
34.358
34.342
34.325
34.308
34.291
34.275
34.261
34.248
34.238
34.232
34.228
34.226
34.226
34.227
34.226
34.222
34.215
34.205
34.194
34.181
34.168
34.154
34.141
34.129
34.117
34.107
34.097
34.088
34.081
34.077
34.074
34.075
34.078
34.085
34.098
34.117
34.141
34.171
34.205
34.243
34.286
34.335
34.391
34.454
34.526
34.605
34.692
34.786
34.887
34.992
35.1
35.209
35.319
35.428
35.535
35.64
35.741
35.837
35.929
36.016
36.095
36.166
36.227
36.277
36.318
36.352
36.377
36.397
36.411
36.419
36.421
36.418
36.41
36.398
36.383
36.366
36.349
36.332
36.315
36.298
36.28
36.26
36.239
36.218
36.196
36.173
36.15
36.127
36.105
36.084
36.063
36.041
36.018
35.992
35.964
35.933
35.9
35.868
35.837
35.808
35.78
35.754
35.728
35.702
35.676
35.651
35.626
35.605
35.585
35.569
35.557
35.547
35.541
35.537
35.534
35.532
35.531
35.53
35.529
35.529
35.53
35.533
35.536
35.54
35.543
35.546
35.547
35.547
35.547
35.546
35.546
35.546
35.547
35.549
35.552
35.556
35.559
35.562
35.564
35.563
35.558
35.55
35.537
35.522
35.505
35.487
35.467
35.447
35.426
35.402
35.376
35.347
35.316
35.284
35.251
35.219
35.187
35.158
35.131
35.106
35.083
35.063
35.045
35.028
35.012
34.997
34.983
34.97
34.957
34.943
34.929
34.913
34.895
34.875
34.853
34.83
34.809
34.789
34.77
34.753
34.736
34.719
34.704
34.689
34.676
34.663
34.65
34.638
34.625
34.611
34.597
34.582
34.566
34.55
34.533
34.515
34.496
34.477
34.459
34.442
34.426
34.412
34.4
34.39
34.383
34.38
34.381
34.385
34.395
34.411
34.434
34.466
34.507
34.558
34.619
34.69
34.77
34.856
34.947
35.042
35.139
35.239
35.341
35.445
35.549
35.652
35.752
35.849
35.941
36.029
36.111
36.19
36.265
36.336
36.403
36.464
36.518
36.565
36.606
36.641
36.669
36.69
36.705
36.714
36.717
36.714
36.707
36.695
36.679
36.66
36.639
36.617
36.595
36.574
36.554
36.536
36.519
36.503
36.487
36.469
36.449
36.426
36.402
36.377
36.351
36.324
36.295
36.264
36.232
36.197
36.161
36.123
36.082
36.041
36.0
35.96
35.923
35.888
35.856
35.828
35.801
35.777
35.753
35.731
35.71
35.692
35.677
35.666
35.659
35.655
35.653
35.651
35.65
35.649
35.65
35.651
35.653
35.656
35.661
35.666
35.674
35.681
35.688
35.693
35.697
35.699
35.699
35.696
35.691
35.685
35.677
35.668
35.657
35.644
35.626
35.605
35.581
35.555
35.528
35.5
35.472
35.445
35.42
35.397
35.376
35.356
35.336
35.317
35.296
35.274
35.251
35.226
35.201
35.177
35.154
35.134
35.115
35.094
35.07
35.043
35.012
34.98
34.946
34.913
34.883
34.856
34.833
34.812
34.795
34.778
34.762
34.744
34.726
34.707
34.687
34.668
34.651
34.635
34.622
34.611
34.599
34.586
34.572
34.555
34.538
34.518
34.498
34.478
34.458
34.439
34.422
34.406
34.392
34.38
34.369
34.36
34.353
34.347
34.344
34.347
34.356
34.374
34.4
34.435
34.478
34.527
34.582
34.644
34.712
34.787
34.87
34.962
35.064
35.175
35.294
35.418
35.546
35.676
35.806
35.935
36.06
36.182
36.299
36.411
36.518
36.618
36.709
36.791
36.862
36.921
36.97
37.01
37.043
37.07
37.092
37.109
37.121
37.129
37.131
37.128
37.12
37.109
37.094
37.078
37.06
37.041
37.022
37.002
36.981
36.958
36.934
36.909
36.882
36.855
36.83
36.805
36.783
36.761
