Trial 1:0back
35.256
35.634
36.016
36.399
36.776
37.143
37.494
37.827
38.137
38.422
38.681
38.91
39.111
39.282
39.424
39.538
39.625
39.687
39.725
39.742
39.739
39.719
39.683
39.634
39.574
39.505
39.429
39.347
39.261
39.172
39.081
38.99
38.899
38.809
38.721
38.636
38.552
38.471
38.391
38.314
38.237
38.161
38.085
38.008
37.93
37.85
37.768
37.683
37.596
37.507
37.415
37.322
37.229
37.135
37.043
36.953
36.865
36.782
36.702
36.629
36.561
36.5
36.445
36.398
36.358
36.324
36.298
36.278
36.265
36.257
36.255
36.256
36.261
36.268
36.278
36.287
36.298
36.308
36.317
36.325
36.331
36.334
36.335
36.333
36.327
36.316
36.301
36.281
36.256
36.225
36.189
36.148
36.103
36.054
36.002
35.946
35.888
35.828
35.765
35.702
35.638
35.573
35.507
35.441
35.374
35.308
35.241
35.175
35.109
35.044
34.981
34.919
34.858
34.798
34.739
34.682
34.625
34.569
34.515
34.462
34.41
34.36
34.312
34.265
34.219
34.175
34.132
34.089
34.047
34.006
33.966
33.926
33.887
33.849
33.813
33.777
33.743
33.709
33.675
33.643
33.613
33.584
33.556
33.53
33.504
33.479
33.454
33.428
33.403
33.378
33.353
33.328
33.304
33.28
33.256
33.232
33.208
33.184
33.16
33.137
33.113
33.09
33.066
33.044
33.022
33.003
32.985
32.972
32.964
32.964
32.975
32.998
33.039
33.1
33.185
33.296
33.436
33.607
33.809
34.043
34.308
34.602
34.923
35.268
35.632
36.011
36.401
36.794
37.187
37.573
37.947
38.306
38.644
38.958
39.246
39.504
39.733
39.932
40.1
40.238
40.347
40.428
40.483
40.514
40.524
40.513
40.485
40.441
40.384
40.316
40.239
40.154
40.063
39.967
39.868
39.767
39.665
39.562
39.459
39.356
39.255
39.156
39.058
38.961
38.866
38.772
38.678
38.585
38.491
38.397
38.301
38.204
38.105
38.005
37.903
37.8
37.695
37.59
37.485
37.381
37.279
37.179
37.084
36.993
36.909
36.831
36.76
36.696
36.641
36.594
36.555
36.525
36.502
36.487
36.478
36.475
36.477
36.483
36.492
36.503
36.516
36.528
36.539
36.55
36.558
36.564
36.566
36.565
36.56
36.55
36.535
36.514
36.488
36.456
36.42
36.378
36.332
36.282
36.229
36.172
36.112
36.05
35.987
35.921
35.854
35.785
35.716
35.646
35.575
35.505
35.435
35.366
35.299
35.233
35.168
35.105
35.044
34.984
34.926
34.869
34.813
34.758
34.703
34.648
34.593
34.539
34.484
34.43
34.377
34.324
34.273
34.222
34.172
34.122
34.074
34.026
33.98
33.934
33.891
33.849
33.808
33.769
33.733
33.699
33.667
33.637
33.609
33.582
33.557
33.534
33.511
33.49
33.469
33.447
33.426
33.404
33.381
33.357
33.333
33.308
33.282
33.256
33.23
33.205
33.18
33.155
33.132
33.11
33.09
33.07
33.052
33.035
33.018
33.002
32.986
32.97
32.953
32.935
32.917
32.899
32.883
32.869
32.861
32.861
32.872
32.899
32.944
33.012
33.106
33.23
33.386
33.576
33.8
34.058
34.349
34.67
35.019
35.39
35.778
36.179
36.587
36.996
37.401
37.797
38.179
38.542
38.884
39.2
39.49
39.749
39.978
40.175
40.34
40.475
40.58
40.656
40.705
40.73
40.731
40.711
40.672
40.616
40.545
40.461
40.366
40.262
40.151
40.035
39.916
39.795
39.672
39.55
39.429
39.31
39.193
39.078
38.966
38.856
38.748
38.642
38.535
38.428
38.32
38.21
38.098
37.983
37.866
37.748
37.628
37.507
37.388
37.27
37.155
37.045
36.94
36.841
36.749
36.666
36.59
36.523
36.465
36.416
36.375
36.342
36.316
36.298
36.286
36.281
36.282
36.287
36.298
36.312
36.33
36.349
36.371
36.393
36.415
36.435
36.453
36.468
36.479
36.485
36.486
36.481
36.469
36.449
36.422
36.387
36.344
36.295
36.24
36.179
36.114
36.046
35.975
35.902
35.827
35.751
35.673
35.594
35.514
35.434
35.353
35.272
35.192
35.112
35.033
34.955
34.88
34.806
34.735
34.667
34.6
34.535
34.471
34.409
34.346
34.284
34.223
34.161
34.101
34.041
33.981
33.922
33.864
33.808
33.752
33.697
33.644
33.593
33.544
33.497
33.452
33.41
33.37
33.333
33.298
33.264
33.233
33.203
33.174
33.147
33.12
33.093
33.065
33.038
33.01
32.981
32.951
32.921
32.891
32.86
32.829
32.799
32.769
32.74
32.711
32.684
32.658
32.632
32.606
32.581
32.556
32.531
32.506
32.481
32.458
32.435
32.416
32.401
32.393
32.394
32.407
32.435
32.483
32.553
32.649
32.773
32.928
33.115
33.336
33.59
33.877
34.193
34.537
34.903
35.288
35.686
36.091
36.497
36.9
37.293
37.671
38.03
38.364
38.671
38.948
39.194
39.407
39.587
39.734
39.849
39.933
39.988
40.016
40.019
40.0
39.962
39.906
39.836
39.753
39.658
39.555
39.443
39.325
39.201
39.074
38.943
38.81
38.676
38.541
38.406
38.272
38.138
38.006
37.874
37.744
37.614
37.484
37.355
37.226
37.097
36.967
36.838
36.709
36.581
36.455
36.331
36.21
36.092
35.979
35.872
35.771
35.678
35.593
35.516
35.45
35.394
35.348
35.312
35.287
35.272
35.267
35.27
35.281
35.299
35.324
35.355
35.39
35.428
35.468
35.507
35.545
35.581
35.614
35.643
35.667
35.685
35.698
35.705
35.705
35.698
35.684
35.663
35.635
35.6
35.558
35.51
35.456
35.395
35.33
35.261
35.188
35.113
35.035
34.956
34.876
34.795
34.714
34.633
34.552
34.471
34.39
34.309
34.228
34.148
34.07
33.993
33.919
33.847
33.777
33.711
33.648
33.588
33.532
33.48
33.431
33.386
33.344
33.305
33.269
33.235
33.203
33.172
33.142
33.112
33.082
33.052
33.022
32.99
32.956
32.921
32.885
32.848
32.81
32.772
32.734
32.697
32.661
32.626
32.593
32.562
32.532
32.504
32.479
32.455
32.433
32.413
32.393
32.374
32.355
32.336
32.316
32.295
32.272
32.247
32.219
32.189
32.157
32.123
32.087
32.051
32.016
31.984
31.955
31.933
31.921
31.922
31.939
31.977
32.038
32.128
32.249
32.405
32.596
32.826
33.093
33.398
33.737
34.109
34.508
34.929
35.368
35.819
36.276
36.733
37.184
37.623
38.044
38.441
38.812
39.151
39.458
39.728
39.963
40.161
40.322
40.449
40.542
40.605
40.638
40.645
40.629
40.591
40.536
40.464
40.38
40.285
40.181
40.07
39.954
39.834
39.71
39.584
39.457
39.327
39.198
39.068
38.939
38.812
38.685
38.56
38.435
38.312
38.188
38.065
37.941
37.817
37.691
37.566
37.44
37.314
37.19
37.067
36.946
36.828
36.713
36.602
36.496
36.396
36.304
36.218
36.141
36.073
36.013
35.963
35.922
35.89
35.866
35.85
35.842
35.842
35.847
35.859
35.876
35.896
35.92
35.944
35.97
35.994
36.017
36.038
36.056
36.07
36.079
36.083
36.081
36.074
36.06
36.041
36.015
35.984
35.947
35.905
35.858
35.806
35.751
35.691
35.628
35.562
35.492
35.42
35.346
35.27
35.193
35.115
35.037
34.958
34.879
34.8
34.722
34.643
34.564
34.486
34.407
34.328
34.251
34.175
34.101
34.03
33.961
33.895
33.832
33.771
33.713
33.658
33.605
33.554
33.504
33.455
33.408
33.362
33.317
33.274
33.232
33.192
33.153
33.116
33.079
33.044
33.009
32.974
32.939
32.905
32.87
32.836
32.802
32.769
32.737
32.706
32.676
32.647
32.62
32.595
32.571
32.549
32.528
32.508
32.488
32.468
32.448
32.427
32.406
32.383
32.358
32.333
32.308
32.283
32.26
32.241
32.228
32.224
32.232
32.257
32.302
32.37
32.467
32.594
32.756
32.954
33.19
33.465
33.778
34.128
34.51
34.921
35.357
35.811
36.278
36.751
37.224
37.691
38.145
38.581
38.994
39.381
39.738
40.062
40.351
40.603
40.819
40.997
41.14
41.248
41.324
41.369
41.386
41.377
41.346
41.294
41.225
41.141
41.044
40.936
40.819
40.695
40.565
40.43
40.292
40.151
40.008
39.865
39.721
39.577
39.434
39.294
39.155
39.018
38.883
38.749
38.617
38.485
38.353
38.221
38.089
37.956
37.824
37.691
37.56
37.431
37.304
37.18
37.06
36.945
36.835
36.733
36.638
36.55
36.471
36.401
36.339
36.286
36.241
36.205
36.176
36.155
36.141
36.134
36.133
36.136
36.144
36.156
36.17
36.186
36.202
36.217
36.231
36.243
36.252
36.257
36.258
36.254
36.244
36.229
36.208
36.182
36.15
36.113
36.072
36.025
35.974
35.92
35.862
35.8
35.735
35.667
35.596
35.522
35.446
35.367
35.287
35.206
35.123
35.04
34.957
34.874
34.791
34.709
34.629
34.549
34.472
34.397
34.324
34.253
34.185
34.12
34.056
33.995
33.935
33.877
33.82
33.765
33.712
33.66
33.609
33.559
33.51
33.461
33.412
33.364
33.316
33.269
33.224
33.179
33.135
33.091
33.048
33.006
32.965
32.925
32.886
32.848
32.812
32.779
32.748
32.718
32.692
32.667
32.644
32.623
32.604
32.585
32.568
32.55
32.533
32.515
32.497
32.478
32.459
32.439
32.418
32.396
32.374
32.351
32.329
32.308
32.29
32.276
32.269
32.272
32.288
32.321
32.376
32.457
32.567
32.709
32.888
33.104
33.359
33.652
33.983
34.35
34.749
35.177
35.627
36.094
36.571
37.052
37.529
37.996
38.447
38.877
39.28
39.654
39.994
40.297
40.564
40.792
40.982
41.134
41.251
41.333
41.382
41.401
41.392
41.359
41.305
41.232
41.144
41.042
40.929
40.807
40.677
40.539
40.396
40.249
40.098
39.944
39.789
39.633
39.477
39.321
39.167
39.013
38.86
38.709
38.559
38.41
38.263
38.116
37.972
37.828
37.685
37.544
37.405
37.268
37.133
37.001
36.873
36.75
36.633
36.522
36.418
36.323
36.237
36.161
36.094
36.038
35.992
35.957
35.931
35.915
35.907
35.907
35.914
35.926
35.943
35.963
35.986
36.01
36.036
36.061
36.086
36.108
36.129
36.146
36.158
36.166
36.169
36.165
36.155
36.138
36.115
36.084
36.046
36.002
35.952
35.897
35.836
35.771
35.703
35.63
35.555
35.477
35.398
35.318
35.238
35.157
35.076
34.996
34.916
34.837
34.76
34.682
34.606
34.53
34.454
34.38
34.306
34.233
34.161
34.088
34.016
33.944
33.872
33.801
33.73
33.66
33.591
33.524
33.459
33.397
33.336
33.278
33.223
33.17
33.12
33.073
33.027
32.985
32.944
32.905
32.868
32.833
32.799
32.766
32.733
32.702
32.67
32.64
32.609
32.579
32.549
32.519
32.488
32.458
32.427
32.396
32.366
32.336
32.306
32.277
32.249
32.221
32.193
32.166
32.14
32.114
32.088
32.064
32.043
32.026
32.015
32.012
32.02
32.043
32.083
32.145
32.232
32.348
32.497
32.68
32.901
33.158
33.453
33.784
34.148
34.541
34.961
35.4
35.855
36.317
36.782
37.243
37.693
38.127
38.539
38.926
39.282
39.605
39.892
40.141
40.352
40.525
40.661
40.76
40.825
40.858
40.862
40.838
40.79
40.72
40.631
40.525
40.404
40.272
40.13
39.979
39.823
39.662
39.498
39.332
39.166
39.0
38.836
38.673
38.512
38.353
38.196
38.041
37.887
37.734
37.58
37.427
37.273
37.119
36.965
36.812
36.662
36.514
36.37
36.231
36.098
35.972
35.853
35.743
35.643
35.554
35.475
35.407
35.35
35.306
35.273
35.252
35.241
35.24
35.249
35.267
35.292
35.323
35.36
35.401
35.445
35.491
35.537
35.581
35.623
35.662
35.695
35.724
35.746
35.761
35.77
35.771
35.766
35.753
35.733
35.707
35.674
35.635
35.591
35.542
35.489
35.432
35.371
35.308
35.241
35.172
35.101
35.028
34.952
34.875
34.796
34.716
34.635
34.553
34.471
34.388
34.306
34.225
34.145
34.066
33.989
33.913
33.839
33.766
33.694
33.624
33.556
33.49
33.427
33.366
33.308
33.253
33.201
33.152
33.105
33.061
33.018
32.977
32.937
32.898
32.86
32.822
32.784
32.746
32.707
32.667
32.626
32.585
32.542
32.498
32.454
32.409
32.365
32.32
32.276
32.232
32.188
32.146
32.106
32.066
32.029
31.993
31.96
31.93
31.905
31.886
31.875
31.874
31.888
31.92
31.973
32.052
32.16
32.302
32.48
32.696
32.95
33.244
33.574
33.94
34.336
34.758
35.202
35.661
36.128
36.599
37.067
37.524
37.967
38.389
38.787
39.155
39.491
39.792
40.058
40.287
40.478
40.634
40.754
40.84
40.894
40.919
40.915
40.885
40.832
40.757
40.664
40.554
40.43
40.293
40.145
39.989
39.825
39.655
39.481
39.304
39.125
38.945
38.765
38.587
38.409
38.233
38.058
37.884
37.712
37.54
37.37
37.202
37.036
36.871
36.71
36.553
36.399
36.251
36.108
35.972
35.843
35.722
35.61
35.508
35.417
35.337
35.269
35.212
35.167
35.134
35.111
35.099
35.097
35.104
35.118
35.14
35.167
35.199
35.234
35.273
35.312
35.352
35.392
35.43
35.467
35.502
35.532
35.559
35.58
35.596
35.605
35.607
35.601
35.587
35.566
35.537
35.501
35.457
35.408
35.353
35.293
35.229
35.161
35.09
35.018
34.944
34.869
34.794
34.717
34.641
34.563
34.486
34.407
34.329
34.25
34.171
34.092
34.013
33.935
33.859
33.783
33.709
33.636
33.566
33.498
33.433
33.37
33.308
33.249
33.193
33.138
33.086
33.035
32.985
32.936
32.889
32.842
32.796
32.751
32.707
32.665
32.625
32.587
32.552
32.518
32.487
32.457
32.428
32.401
32.375
32.349
32.325
32.302
32.279
32.257
32.235
32.213
32.191
32.169
32.145
32.122
32.097
32.071
32.045
32.019
31.992
31.967
31.944
31.923
31.908
31.901
31.904
31.922
31.959
32.019
32.106
32.226
32.381
32.575
32.811
33.089
33.41
33.771
34.171
34.606
35.072
35.562
36.071
36.591
37.116
37.638
38.15
38.646
39.119
39.564
39.976
40.352
40.689
40.985
41.238
41.449
41.619
41.75
41.842
41.899
41.924
41.92
41.889
41.835
41.761
41.669
41.561
41.441
41.309
41.169
41.021
40.868
40.71
40.55
40.388
40.225
40.063
39.901
39.741
39.583
39.428
39.276
39.127
38.979
38.834
38.691
38.549
38.408
38.266
38.125
37.985
37.844
37.705
37.567
37.432
37.299
37.17
37.045
36.927
36.815
36.711
36.615
36.527
36.449
36.381
36.322
36.274
36.236
36.208
36.189
36.179
36.176
36.181
36.192
36.207
36.226
36.248
36.273
36.297
36.322
36.344
36.364
36.38
36.391
36.398
36.399
36.395
36.384
36.367
36.342
36.311
36.273
36.228
36.178
36.123
36.063
35.998
35.929
35.856
35.78
35.701
35.619
35.535
35.449
35.363
35.277
35.19
35.103
35.016
34.93
34.844
34.759
34.676
34.593
34.511
34.43
34.35
34.272
34.195
34.12
34.047
33.976
33.906
33.84
33.775
33.713
33.654
33.597
33.542
33.489
33.438
33.389
33.341
33.294
33.248
33.203
33.159
33.116
33.073
33.031
32.99
32.951
32.913
32.876
32.84
32.805
32.77
32.736
32.7
32.664
32.628
32.59
32.552
32.514
32.476
32.438
32.4
32.363
32.326
32.29
32.255
32.222
32.191
32.164
32.14
32.122
32.11
32.106
32.114
32.135
32.174
32.233
32.317
32.428
32.572
32.75
32.967
33.223
33.519
33.856
34.231
34.641
35.084
35.554
36.045
36.551
37.065
37.581
38.092
38.59
39.07
39.527
39.953
40.347
40.703
41.02
41.296
41.531
41.725
41.878
41.991
42.067
42.108
42.116
42.094
42.045
41.973
41.88
41.77
41.644
41.507
41.359
41.204
41.043
40.879
40.713
40.546
40.381
40.218
40.058
39.9
39.746
39.594
39.446
39.3
39.156
39.014
38.873
38.733
38.593
38.452
38.311
38.168
38.025
37.881
37.738
37.597
37.457
37.321
37.19
37.063
36.944
36.832
36.728
36.633
36.548
36.472
36.407
36.351
36.306
36.27
36.243
36.225
36.215
36.212
36.216
36.225
36.238
36.255
36.273
36.293
36.312
36.33
36.346
36.358
36.367
36.371
36.37
36.363
36.35
36.33
36.303
36.269
36.229
36.182
36.129
36.071
36.007
35.939
35.868
35.792
35.714
35.633
35.55
35.465
35.378
35.29
35.2
35.11
35.02
34.93
34.84
34.751
34.663
34.576
34.49
34.406
34.323
34.241
34.16
34.081
34.003
33.925
33.849
33.773
33.699
33.626
33.554
33.485
33.419
33.355
33.294
33.237
33.182
33.131
33.082
33.036
32.992
32.951
32.911
32.873
32.836
32.799
32.764
32.729
32.696
32.662
32.629
32.596
32.563
32.529
32.495
32.461
32.427
32.393
32.359
32.326
32.293
32.262
32.231
32.203
32.176
32.151
32.127
32.104
32.082
32.06
32.038
32.016
31.994
31.972
31.951
31.931
31.916
31.908
31.909
31.923
31.954
32.006
32.084
32.191
32.332
32.51
32.728
32.986
33.285
33.625
34.003
34.416
34.861
35.331
35.822
36.327
36.839
37.352
37.858
38.35
38.823
39.27
39.688
40.072
40.419
40.726
40.991
41.215
41.397
41.539
41.641
41.706
41.735
41.732
41.699
41.638
41.554
41.449
41.327
41.189
41.04
40.881
40.716
40.545
40.371
40.196
40.02
39.844
39.671
39.499
39.329
39.163
39.0
38.841
38.684
38.53
38.378
38.228
38.08
37.933
37.787
37.641
37.495
37.35
37.205
37.062
36.921
36.784
36.651
36.524
36.404
36.293
36.19
36.098
36.016
35.946
35.887
35.84
35.804
35.78
35.765
35.76
35.764
35.775
35.792
35.814
35.84
35.869
35.9
35.93
35.961
35.989
36.016
36.039
36.057
36.072
36.08
36.082
36.078
36.066
36.046
36.019
35.984
35.943
35.894
35.839
35.779
35.714
35.645
35.572
35.496
35.417
35.334
35.249
35.162
35.074
34.984
34.894
34.803
34.712
34.622
34.532
34.443
34.356
34.271
34.187
34.106
34.027
33.949
33.873
33.799
33.726
33.655
33.585
33.517
33.45
33.385
33.322
33.259
33.199
33.141
33.085
33.032
32.982
32.934
32.889
32.847
32.807
32.768
32.73
32.693
32.656
32.619
32.582
32.546
32.508
32.471
32.433
32.396
32.36
32.324
32.29
32.256
32.223
32.19
32.158
32.126
32.094
32.062
32.03
31.998
31.967
31.936
31.908
31.883
31.864
31.854
31.855
31.872
31.909
31.969
32.058
32.179
32.336
32.53
32.763
33.036
33.348
33.697
34.08
34.494
34.934
35.394
35.87
36.353
36.838
37.317
37.785
38.234
38.659
39.055
39.417
39.742
40.028
40.274
40.478
40.641
40.764
40.847
40.894
40.906
40.886
40.837
40.763
40.666
40.549
40.416
40.27
40.113
39.948
39.778
39.605
39.43
39.255
39.082
38.911
38.744
38.58
38.42
38.265
38.115
37.968
37.825
37.685
37.547
37.41
37.273
37.135
36.997
36.856
36.715
36.573
36.431
36.29
36.151
36.015
35.884
35.76
35.643
35.537
35.441
35.356
35.284
35.225
35.18
35.147
35.128
35.122
35.127
35.142
35.167
35.199
35.239
35.283
35.331
35.38
35.429
35.476
35.52
35.557
35.589
35.612
35.627
35.633
35.629
35.617
35.596
35.567
35.531
35.487
35.437
35.38
35.318
35.251
35.178
35.102
35.023
34.941
34.857
34.771
34.685
34.599
34.513
34.428
34.343
34.258
34.175
34.092
34.01
33.929
33.849
33.77
33.693
33.617
33.542
33.469
33.397
33.327
33.258
33.191
33.126
33.063
33.001
32.941
32.882
32.825
32.769
32.715
32.663
32.613
32.565
32.519
32.476
32.435
32.396
32.359
32.323
32.289
32.256
32.224
32.193
32.163
32.135
32.107
32.079
32.051
32.024
31.996
31.968
31.94
31.911
31.882
31.851
31.82
31.788
31.755
31.723
31.691
31.661
31.633
31.609
31.592
31.583
31.585
31.603
31.64
31.699
31.785
31.902
32.054
32.243
32.471
32.741
33.052
33.403
33.792
34.216
34.671
35.152
35.653
36.168
36.689
37.21
37.723
38.222
38.701
39.154
39.575
39.961
40.308
40.614
40.878
41.1
41.278
41.416
41.513
41.572
41.595
41.586
41.547
41.48
41.39
41.28
41.153
41.012
40.859
40.698
40.53
40.357
40.182
40.005
39.828
39.651
39.476
39.302
39.131
38.961
38.794
38.63
38.467
38.306
38.147
37.989
37.831
37.675
37.518
37.362
37.206
37.051
36.897
36.746
36.599
36.456
36.318
36.186
36.062
35.947
35.842
35.748
35.666
35.598
35.543
35.501
35.471
35.454
35.449
35.454
35.468
35.49
35.518
35.552
35.589
35.627
35.667
35.705
35.742
35.775
35.803
35.827
35.844
35.855
35.86
35.858
35.849
35.834
35.812
35.783
35.747
35.704
35.654
35.598
35.535
35.467
35.394
35.316
35.235
35.151
35.066
34.979
34.891
34.802
34.715
34.628
34.542
34.457
34.375
34.294
34.215
34.138
34.063
33.988
33.913
33.839
33.764
33.689
33.615
33.54
33.466
33.393
33.322
33.253
33.187
33.125
33.066
33.01
32.958
32.909
32.863
32.819
32.777
32.737
32.699
32.662
32.626
32.59
32.554
32.518
32.483
32.447
32.411
32.376
32.341
32.306
32.272
32.237
32.203
32.168
32.134
32.1
32.067
32.035
32.003
31.972
31.942
31.913
31.884
31.856
31.829
31.804
31.782
31.764
31.752
31.75
31.76
31.787
31.835
31.909
32.013
32.152
32.329
