Trial 1:0back
35.389
35.346
35.305
35.268
35.234
35.205
35.18
35.161
35.147
35.139
35.139
35.145
35.158
35.178
35.204
35.236
35.271
35.31
35.351
35.392
35.432
35.47
35.504
35.534
35.558
35.576
35.587
35.591
35.588
35.578
35.561
35.538
35.509
35.473
35.433
35.388
35.341
35.291
35.239
35.186
35.133
35.08
35.028
34.975
34.924
34.873
34.824
34.776
34.73
34.685
34.641
34.597
34.552
34.507
34.46
34.411
34.362
34.31
34.258
34.205
34.152
34.1
34.05
34.001
33.954
33.91
33.869
33.83
33.794
33.762
33.732
33.706
33.683
33.664
33.649
33.637
33.628
33.622
33.618
33.617
33.618
33.622
33.628
33.635
33.642
33.649
33.654
33.658
33.658
33.656
33.65
33.641
33.627
33.611
33.593
33.572
33.55
33.527
33.505
33.483
33.464
33.445
33.429
33.416
33.404
33.396
33.391
33.39
33.394
33.404
33.42
33.445
33.48
33.528
33.59
33.669
33.764
33.877
34.008
34.157
34.323
34.506
34.702
34.912
35.131
35.357
35.588
35.82
36.049
36.273
36.488
36.692
36.881
37.054
37.21
37.347
37.466
37.565
37.645
37.706
37.749
37.772
37.777
37.763
37.733
37.688
37.628
37.555
37.471
37.378
37.278
37.171
37.061
36.947
36.832
36.716
36.6
36.486
36.374
36.265
36.16
36.059
35.964
35.875
35.791
35.713
35.64
35.573
35.51
35.452
35.396
35.344
35.295
35.249
35.208
35.172
35.141
35.114
35.093
35.078
35.068
35.065
35.067
35.075
35.088
35.107
35.131
35.159
35.192
35.229
35.269
35.311
35.354
35.397
35.44
35.483
35.523
35.562
35.596
35.627
35.652
35.671
35.683
35.689
35.687
35.678
35.663
35.642
35.614
35.581
35.542
35.497
35.447
35.392
35.332
35.269
35.205
35.14
35.076
35.013
34.951
34.892
34.835
34.782
34.731
34.683
34.636
34.589
34.543
34.497
34.451
34.404
34.357
34.309
34.261
34.212
34.164
34.115
34.067
34.021
33.975
33.931
33.888
33.848
33.809
33.774
33.74
33.709
33.681
33.655
33.633
33.615
33.6
33.589
33.58
33.575
33.573
33.573
33.575
33.58
33.586
33.593
33.6
33.606
33.611
33.614
33.615
33.612
33.606
33.597
33.586
33.571
33.555
33.537
33.519
33.502
33.486
33.473
33.466
33.465
33.474
33.495
33.531
33.584
33.656
33.75
33.866
34.005
34.167
34.351
34.554
34.776
35.014
35.263
35.521
35.782
36.042
36.299
36.547
36.784
37.005
37.209
37.392
37.554
37.692
37.806
37.898
37.969
38.018
38.048
38.061
38.058
38.042
38.012
37.972
37.922
37.864
37.798
37.725
37.647
37.562
37.473
37.38
37.284
37.186
37.086
36.985
36.883
36.78
36.677
36.575
36.473
36.372
36.273
36.176
36.081
35.989
35.901
35.819
35.741
35.67
35.606
35.548
35.499
35.459
35.427
35.404
35.389
35.381
35.38
35.384
35.394
35.408
35.424
35.443
35.462
35.482
35.503
35.525
35.546
35.567
35.587
35.607
35.626
35.644
35.662
35.681
35.699
35.717
35.735
35.752
35.769
35.784
35.796
35.806
35.811
35.813
35.811
35.804
35.791
35.773
35.75
35.721
35.687
35.647
35.602
35.55
35.494
35.432
35.366
35.297
35.225
35.152
35.078
35.004
34.931
34.861
34.794
34.73
34.669
34.612
34.558
34.508
34.462
34.419
34.38
34.345
34.311
34.28
34.25
34.222
34.193
34.165
34.135
34.104
34.072
34.039
34.006
33.971
33.937
33.902
33.867
33.834
33.802
33.772
33.745
33.722
33.702
33.686
33.675
33.667
33.664
33.665
33.669
33.675
33.683
33.692
33.701
33.708
33.714
33.716
33.714
33.71
33.702
33.691
33.678
33.664
33.65
33.639
33.633
33.635
33.647
33.673
33.716
33.778
33.863
33.972
34.106
34.266
34.451
34.661
34.893
35.145
35.413
35.692
35.98
36.27
36.559
36.841
37.111
37.365
37.599
37.811
37.999
38.162
38.298
38.408
38.492
38.552
38.588
38.602
38.597
38.574
38.534
38.481
38.416
38.342
38.262
38.176
38.086
37.995
37.902
37.81
37.719
37.63
37.543
37.458
37.375
37.293
37.213
37.133
37.054
36.974
36.894
36.814
36.732
36.65
36.567
36.483
36.4
36.317
36.238
36.162
36.09
36.024
35.965
35.913
35.87
35.835
35.809
35.792
35.785
35.785
35.792
35.807
35.827
35.852
35.881
35.912
35.946
35.98
36.014
36.046
36.077
36.104
36.127
36.146
36.16
36.168
36.172
36.172
36.169
36.162
36.153
36.142
36.127
36.111
36.092
36.072
36.051
36.027
36.0
35.971
35.938
35.902
35.862
35.817
35.768
35.715
35.658
35.598
35.534
35.467
35.398
35.326
35.253
35.178
35.101
35.023
34.946
34.871
34.798
34.728
34.663
34.601
34.545
34.493
34.446
34.403
34.362
34.324
34.287
34.252
34.217
34.184
34.15
34.117
34.085
34.053
34.023
33.993
33.964
33.935
33.907
33.879
33.85
33.822
33.795
33.767
33.74
33.714
33.688
33.664
33.642
33.622
33.605
33.591
33.58
33.573
33.568
33.567
33.568
33.57
33.573
33.577
33.58
33.581
33.58
33.576
33.568
33.556
33.541
33.523
33.503
33.483
33.464
33.449
33.441
33.442
33.458
33.49
33.544
33.621
33.725
33.856
34.016
34.203
34.416
34.653
34.91
35.184
35.47
35.764
36.061
36.356
36.644
36.919
37.178
37.416
37.631
37.822
37.986
38.125
38.236
38.322
38.381
38.415
38.426
38.415
38.385
38.338
38.276
38.203
38.12
38.03
37.935
37.837
37.737
37.638
37.538
37.441
37.345
37.252
37.161
37.072
36.986
36.901
36.817
36.733
36.649
36.566
36.482
36.399
36.316
36.233
36.151
36.069
35.99
35.913
35.841
35.774
35.713
35.661
35.616
35.581
35.556
35.539
35.532
35.534
35.543
35.56
35.583
35.612
35.645
35.681
35.718
35.754
35.788
35.818
35.844
35.866
35.884
35.898
35.908
35.914
35.915
35.912
35.906
35.896
35.881
35.863
35.842
35.817
35.789
35.759
35.726
35.692
35.657
35.62
35.583
35.545
35.505
35.464
35.42
35.374
35.324
35.27
35.213
35.152
35.087
35.019
34.948
34.876
34.802
34.727
34.653
34.579
34.507
34.436
34.368
34.303
34.243
34.187
34.136
34.089
34.047
34.01
33.977
33.948
33.922
33.899
33.878
33.858
33.839
33.82
33.802
33.783
33.765
33.745
33.725
33.704
33.682
33.659
33.637
33.615
33.593
33.571
33.55
33.528
33.507
33.486
33.467
33.449
33.433
33.419
33.408
33.4
33.393
33.389
33.386
33.385
33.386
33.388
33.391
33.396
33.401
33.408
33.418
33.432
33.452
33.48
33.518
33.569
33.634
33.717
33.818
33.941
34.084
34.248
34.432
34.635
34.854
35.086
35.33
35.58
35.832
36.084
36.33
36.568
36.794
37.006
37.2
37.376
37.531
37.665
37.776
37.864
37.93
37.974
37.996
37.997
37.979
37.943
37.89
37.824
37.745
37.656
37.558
37.453
37.344
37.232
37.119
37.006
36.896
36.789
36.686
36.587
36.493
36.404
36.32
36.24
36.165
36.094
36.025
35.958
35.892
35.825
35.759
35.693
35.627
35.561
35.495
35.431
35.37
35.313
35.26
35.213
35.174
35.143
35.122
35.112
35.113
35.124
35.146
35.177
35.215
35.259
35.308
35.362
35.418
35.477
35.536
35.593
35.647
35.697
35.74
35.776
35.805
35.824
35.835
35.837
35.831
35.818
35.798
35.771
35.739
35.701
35.659
35.613
35.563
35.512
35.459
35.406
35.352
35.298
35.244
35.191
35.138
35.086
35.035
34.985
34.935
34.884
34.834
34.783
34.732
34.679
34.626
34.572
34.517
34.463
34.408
34.354
34.299
34.244
34.19
34.137
34.086
34.037
33.99
33.947
33.909
33.874
33.845
33.82
33.799
33.784
33.771
33.762
33.756
33.751
33.748
33.745
33.74
33.734
33.725
33.714
33.7
33.683
33.664
33.642
33.618
33.593
33.567
33.542
33.516
33.492
33.469
33.448
33.431
33.42
33.415
33.418
33.433
33.46
33.504
33.565
33.647
33.75
33.876
34.026
34.199
34.393
34.606
34.836
35.081
35.335
35.596
35.858
36.119
36.373
36.617
36.849
37.064
37.261
37.437
37.591
37.723
37.833
37.922
37.99
38.04
38.071
38.086
38.085
38.07
38.042
38.003
37.953
37.893
37.826
37.75
37.668
37.58
37.487
37.389
37.289
37.186
37.081
36.975
36.868
36.761
36.653
36.546
36.439
36.334
36.229
36.126
36.025
35.927
35.833
35.744
35.661
35.584
35.514
35.452
35.399
35.354
35.317
35.289
35.269
35.257
35.253
35.254
35.263
35.277
35.296
35.319
35.345
35.373
35.404
35.435
35.468
35.5
35.531
35.561
35.59
35.617
35.643
35.668
35.69
35.71
35.727
35.741
35.753
35.762
35.768
35.77
35.77
35.765
35.757
35.743
35.724
35.699
35.668
35.63
35.586
35.536
35.481
35.42
35.355
35.287
35.217
35.145
35.072
34.998
34.925
34.854
34.785
34.719
34.657
34.598
34.543
34.491
34.442
34.397
34.354
34.313
34.275
34.238
34.203
34.169
34.136
34.102
34.069
34.034
34.001
33.974
33.955
33.944
33.939
33.939
33.94
33.942
33.94
33.932
33.918
33.891
33.849
33.792
33.723
33.649
33.575
33.506
33.446
33.398
33.363
33.343
33.336
33.339
33.351
33.369
33.39
33.413
33.435
33.454
33.471
33.482
33.491
33.497
33.502
33.508
33.518
33.536
33.564
33.608
33.672
33.758
33.87
34.009
34.176
34.372
34.594
34.841
35.109
35.392
35.688
35.989
36.29
36.587
36.875
37.15
37.408
37.645
37.859
38.049
38.212
38.349
38.459
38.543
38.603
38.638
38.651
38.644
38.617
38.575
38.518
38.449
38.37
38.284
38.192
38.094
37.994
37.892
37.79
37.691
37.593
37.498
37.404
37.312
37.22
37.129
37.038
36.947
36.857
36.767
36.677
36.587
36.496
36.406
36.316
36.227
36.141
36.058
35.98
35.909
35.844
35.789
35.743
35.707
35.681
35.666
35.66
35.663
35.675
35.693
35.717
35.745
35.777
35.811
35.847
35.882
35.917
35.951
35.981
36.008
36.031
36.049
36.064
36.074
36.081
36.083
36.081
36.075
36.065
36.052
36.035
36.016
35.995
35.971
35.945
35.917
35.888
35.857
35.824
35.789
35.751
35.71
35.666
35.617
35.565
35.508
35.447
35.384
35.317
35.247
35.175
35.1
35.025
34.948
34.871
34.794
34.718
34.643
34.571
34.501
34.436
34.376
34.32
34.269
34.223
34.182
34.145
34.112
34.083
34.056
34.033
34.012
33.993
33.974
33.956
33.938
33.92
33.902
33.883
33.864
33.846
33.828
33.809
33.789
33.77
33.752
33.734
33.718
33.703
33.689
33.676
33.666
33.657
33.65
33.644
33.638
33.633
33.628
33.624
33.62
33.616
33.612
33.608
33.603
33.598
33.593
33.588
33.585
33.583
33.585
33.594
33.611
33.639
33.682
33.741
33.819
33.919
34.04
34.185
34.354
34.547
34.763
34.999
35.254
35.525
35.807
36.097
36.39
36.681
36.965
37.238
37.496
37.734
37.95
38.142
38.308
38.446
38.557
38.641
38.699
38.731
38.74
38.727
38.694
38.644
38.578
38.501
38.413
38.319
38.22
38.12
38.018
37.917
37.818
37.721
37.627
37.536
37.448
37.363
37.281
37.203
37.127
37.053
36.98
36.909
36.839
36.769
36.699
36.63
36.559
36.487
36.416
36.345
36.275
36.207
36.142
36.082
36.027
35.98
35.941
35.911
35.89
35.877
35.873
35.876
35.886
35.902
35.924
35.948
35.975
36.003
36.031
36.057
36.08
36.101
36.117
36.13
36.137
36.14
36.137
36.13
36.118
36.101
36.08
36.056
36.028
35.998
35.967
35.935
35.902
35.87
35.838
35.806
35.774
35.741
35.707
35.671
35.633
35.594
35.55
35.503
35.452
35.396
35.337
35.273
35.205
35.134
35.061
34.985
34.909
34.831
34.754
34.677
34.602
34.528
34.457
34.391
34.328
34.27
34.216
34.165
34.118
34.075
34.035
33.999
33.966
33.936
33.909
33.884
33.859
33.836
33.812
33.788
33.763
33.738
33.712
33.686
33.66
33.635
33.61
33.586
33.562
33.54
33.519
33.499
33.481
33.463
33.446
33.433
33.422
33.414
33.41
33.409
33.411
33.415
33.422
33.43
33.44
33.45
33.461
33.47
33.476
33.479
33.478
33.472
33.461
33.446
33.428
33.406
33.381
33.354
33.324
33.293
33.262
33.233
33.207
33.186
33.173
33.171
33.181
33.208
33.255
33.325
33.42
33.54
33.687
33.86
34.059
34.28
34.521
34.778
35.048
35.326
35.608
35.891
36.169
36.439
36.696
36.939
37.163
37.366
37.546
37.701
37.831
37.936
38.017
38.076
38.114
38.134
38.138
38.127
38.104
38.07
38.027
37.976
37.918
37.853
37.783
37.707
37.626
37.541
37.453
37.361
37.266
37.168
37.068
36.967
36.865
36.763
36.661
36.561
36.461
36.364
36.268
36.176
36.088
36.005
35.928
35.856
35.791
35.731
35.677
35.63
35.59
35.557
35.531
35.511
35.497
35.487
35.482
35.481
35.482
35.486
35.492
35.498
35.505
35.513
35.521
35.527
35.533
35.538
35.542
35.546
35.548
35.551
35.554
35.558
35.562
35.567
35.573
35.578
35.584
35.59
35.596
35.6
35.602
35.601
35.596
35.585
35.569
35.546
35.516
35.477
35.431
35.378
35.318
35.253
35.183
35.109
35.032
34.953
34.872
34.791
34.711
34.633
34.558
34.486
34.419
34.356
34.299
34.247
34.201
34.159
34.121
34.088
34.059
34.032
34.007
33.982
33.956
33.929
33.899
33.866
33.832
33.795
33.757
33.718
33.678
33.638
33.6
33.563
33.528
33.496
33.468
33.441
33.418
33.399
33.383
33.37
33.36
33.354
33.351
33.35
33.352
33.356
33.362
33.369
33.376
33.384
33.391
33.396
33.398
33.397
33.393
33.385
33.373
33.357
33.339
33.319
33.297
33.273
33.248
33.222
33.196
33.169
33.142
33.115
33.089
33.066
33.046
33.032
33.026
33.031
33.05
33.084
33.137
33.211
33.307
33.426
33.57
33.737
33.926
34.135
34.362
34.603
34.854
35.11
35.368
35.623
35.872
36.111
36.338
36.55
36.745
36.922
37.08
37.219
37.337
37.436
37.515
37.574
37.615
37.638
37.645
37.637
37.617
37.585
37.542
37.488
37.425
37.354
37.276
37.19
37.099
37.003
36.904
36.801
36.696
36.59
36.485
36.382
36.28
36.181
36.084
35.989
35.896
35.806
35.719
35.636
35.556
35.481
35.41
35.344
35.285
35.233
35.187
35.149
35.117
35.093
35.076
35.065
35.06
35.059
35.063
35.07
35.081
35.093
35.108
35.125
35.144
35.164
35.184
35.204
35.224
35.244
35.263
35.283
35.303
35.324
35.346
35.367
35.388
35.407
35.424
35.438
35.449
35.454
35.453
35.448
35.437
35.42
35.396
35.366
35.329
35.285
35.236
35.18
35.12
35.056
34.99
34.92
34.849
34.777
34.704
34.631
34.56
34.49
34.423
34.36
34.302
34.248
34.198
34.152
34.11
34.072
34.037
34.005
33.973
33.943
33.913
33.882
33.851
33.818
33.785
33.75
33.714
33.677
33.64
33.603
33.566
33.529
33.494
33.459
33.427
33.396
33.366
33.339
33.314
33.293
33.275
33.261
33.25
33.243
33.239
33.238
33.239
33.24
33.242
33.244
33.246
33.247
33.246
33.243
33.237
33.23
33.22
33.207
33.194
33.179
33.165
33.152
33.141
33.134
33.134
33.144
33.164
33.199
33.249
33.319
33.409
33.522
33.658
33.817
33.996
34.196
34.413
34.646
34.891
35.144
35.4
35.656
35.907
36.149
36.379
36.594
36.792
36.969
37.126
37.26
37.371
37.46
37.525
37.569
37.591
37.594
37.579
37.547
37.501
37.443
37.376
37.3
37.219
37.134
37.046
36.958
36.868
36.779
36.691
36.603
36.517
36.432
36.348
36.264
36.181
36.098
36.013
35.927
35.84
35.75
35.658
35.565
35.472
35.38
35.29
35.203
35.122
35.046
34.979
34.921
34.872
34.833
34.805
34.788
34.78
34.783
34.795
34.816
34.844
34.877
34.914
34.954
34.996
35.038
35.08
35.122
35.161
35.198
35.231
35.26
35.284
35.302
35.316
35.324
35.328
35.327
35.323
35.316
35.306
35.294
35.28
35.264
35.246
35.225
35.202
35.177
35.15
35.119
35.085
35.047
35.006
34.961
34.912
34.86
34.804
34.744
34.681
34.616
34.549
34.481
34.412
34.342
34.272
34.202
34.133
34.065
33.997
33.932
33.869
33.809
33.754
33.704
33.66
33.62
33.586
33.557
33.533
33.513
33.496
33.482
33.47
33.458
33.446
33.433
33.419
33.403
33.385
33.365
33.344
33.321
33.298
33.275
33.251
33.227
33.203
33.18
33.158
33.137
33.118
33.1
33.085
33.072
33.062
33.054
33.049
33.045
33.043
33.042
33.042
33.043
33.045
33.046
33.047
33.047
33.047
33.045
33.043
33.041
33.041
33.045
33.054
33.071
33.099
33.141
33.199
33.276
33.374
33.494
33.637
33.803
33.991
34.201
34.43
34.676
34.936
35.205
35.48
35.757
36.032
36.301
36.56
36.806
37.034
37.242
37.429
37.591
37.728
37.839
37.924
37.984
38.021
38.034
38.027
38.0
37.957
37.899
37.829
37.748
37.659
37.563
37.462
37.359
37.254
37.149
37.045
36.942
36.842
36.746
36.653
36.564
36.478
36.395
36.315
36.235
36.156
36.077
35.998
35.919
35.839
35.76
35.68
35.601
35.523
35.447
35.375
35.308
35.245
35.19
35.143
35.105
35.078
35.061
35.055
35.057
35.069
35.088
35.114
35.145
35.182
35.221
35.263
35.305
35.347
35.388
35.426
35.46
35.49
35.514
35.533
35.547
35.554
35.556
35.553
35.545
35.533
35.516
35.494
35.469
35.441
35.411
35.379
35.345
35.309
35.27
35.23
35.188
35.146
35.102
35.056
35.008
34.958
34.906
34.85
34.792
34.73
34.665
34.598
34.529
34.459
34.388
34.317
34.245
34.173
34.102
34.033
33.965
33.9
33.838
33.779
33.723
33.671
33.624
33.582
33.544
33.511
33.481
33.455
33.433
33.414
33.398
33.383
33.368
33.355
33.342
33.329
33.316
33.302
33.288
33.273
33.257
33.24
33.223
33.206
33.187
33.168
33.149
33.13
33.112
33.095
33.081
33.069
33.061
33.055
33.052
33.053
33.055
33.06
33.066
33.073
33.081
33.089
33.096
33.101
33.105
33.107
33.106
33.103
33.096
33.085
33.072
33.055
33.036
33.015
32.995
32.975
32.958
32.946
32.942
32.947
32.964
32.998
33.05
33.124
33.222
33.345
33.495
33.671
33.872
34.096
34.341
34.605
34.883
35.171
35.465
35.76
36.052
36.336
36.609
36.867
37.105
37.323
37.518
37.689
37.835
37.956
38.053
38.126
38.177
38.205
38.212
38.2
38.172
38.131
38.079
38.017
37.947
37.871
37.791
37.708
37.623
37.538
37.453
37.368
37.283
37.198
37.113
37.029
36.945
36.862
36.779
36.697
36.616
36.535
36.453
36.371
36.29
36.21
36.131
36.054
35.981
35.913
35.849
35.792
35.741
35.696
35.659
35.628
35.605
35.589
35.58
35.577
35.578
35.584
35.592
35.602
35.614
35.626
35.638
35.65
35.661
35.671
35.679
35.686
35.691
35.695
35.697
35.697
35.695
35.692
35.688
35.683
35.677
35.671
35.664
35.655
35.646
35.636
35.625
35.612
35.597
35.58
35.56
35.535
35.506
35.47
35.428
35.38
35.325
35.265
35.198
35.127
35.051
34.972
34.89
34.805
34.719
34.631
34.542
34.454
34.368
34.284
34.204
34.129
34.06
33.996
33.938
33.887
33.841
33.802
33.767
33.737
33.71
33.686
33.663
33.641
33.618
33.595
33.571
33.545
33.518
33.49
33.46
33.43
33.399
33.369
33.341
33.313
33.288
33.265
33.245
33.228
33.216
33.209
33.206
33.207
33.211
33.218
33.228
33.239
33.252
33.266
33.28
33.294
33.307
33.32
33.331
33.341
33.35
33.356
33.36
33.361
33.36
33.355
33.346
33.333
33.316
33.297
33.275
33.251
33.224
33.197
33.169
33.141
33.114
33.088
33.065
33.044
33.026
33.011
32.998
32.988
32.981
32.977
32.978
32.984
32.998
33.021
33.057
33.106
33.172
33.256
33.36
33.487
33.636
33.808
34.003
34.22
34.454
34.705
34.969
35.241
35.519
35.798
36.076
36.349
36.614
36.867
37.107
37.331
37.538
37.725
37.892
38.037
38.159
38.257
38.331
38.382
38.41
38.415
38.4
38.366
38.314
38.247
38.167
38.075
37.974
37.866
37.751
37.632
37.51
37.388
37.267
37.15
37.037
36.93
36.83
36.737
36.651
36.573
36.501
36.434
36.372
36.312
36.255
36.197
36.139
36.079
36.017
35.954
35.89
35.826
35.762
35.699
35.64
35.585
35.536
35.495
35.461
35.436
35.42
35.413
35.414
35.424
35.44
35.463
35.49
35.522
35.558
35.596
35.636
35.676
35.714
35.751
35.784
35.813
35.838
35.858
35.871
35.879
35.879
35.873
35.86
35.84
35.813
35.781
35.743
35.701
35.655
35.606
35.557
35.506
35.455
35.404
35.353
35.302
35.251
35.2
35.15
35.101
35.051
35.001
34.95
34.897
34.843
34.786
34.727
34.666
34.602
34.537
34.472
34.406
34.341
34.276
34.213
34.152
34.093
34.037
33.983
33.932
33.884
33.84
33.799
33.761
33.728
33.699
33.672
33.65
33.631
33.614
33.601
33.59
33.581
33.573
33.566
33.56
