Trial 1:0back
33.766
33.76
33.752
33.742
33.73
33.717
33.703
33.687
33.671
33.654
33.634
33.613
33.591
33.569
33.547
33.526
33.508
33.492
33.479
33.467
33.457
33.449
33.443
33.439
33.438
33.442
33.454
33.474
33.506
33.553
33.615
33.695
33.794
33.914
34.053
34.212
34.388
34.578
34.778
34.985
35.196
35.407
35.617
35.823
36.023
36.213
36.391
36.555
36.703
36.834
36.945
37.036
37.107
37.158
37.192
37.209
37.211
37.2
37.18
37.151
37.117
37.081
37.043
37.005
36.968
36.933
36.899
36.865
36.833
36.802
36.772
36.744
36.718
36.694
36.672
36.653
36.635
36.618
36.602
36.587
36.572
36.557
36.542
36.526
36.508
36.488
36.465
36.44
36.412
36.383
36.354
36.324
36.293
36.262
36.229
36.194
36.156
36.116
36.074
36.031
35.988
35.944
35.903
35.863
35.827
35.794
35.766
35.743
35.726
35.714
35.707
35.705
35.706
35.708
35.712
35.715
35.718
35.72
35.721
35.721
35.72
35.718
35.714
35.708
35.699
35.689
35.676
35.662
35.647
35.63
35.61
35.586
35.561
35.533
35.503
35.471
35.438
35.405
35.372
35.339
35.307
35.276
35.246
35.216
35.188
35.16
35.134
35.107
35.08
35.053
35.024
34.992
34.959
34.923
34.886
34.849
34.812
34.776
34.741
34.708
34.676
34.645
34.615
34.583
34.552
34.519
34.485
34.45
34.414
34.377
34.34
34.304
34.269
34.236
34.205
34.176
34.15
34.126
34.104
34.082
34.061
34.042
34.025
34.01
33.997
33.986
33.976
33.967
33.957
33.946
33.933
33.92
33.906
33.891
33.876
33.862
33.849
33.837
33.826
33.815
33.804
33.793
33.781
33.77
33.757
33.743
33.727
33.711
33.693
33.676
33.66
33.647
33.637
33.628
33.622
33.617
33.613
33.608
33.603
33.597
33.588
33.576
33.561
33.544
33.525
33.505
33.484
33.463
33.442
33.423
33.404
33.387
33.372
33.357
33.343
33.33
33.318
33.306
33.295
33.286
33.277
33.267
33.255
33.241
33.224
33.205
33.184
33.163
33.142
33.123
33.108
33.096
33.089
33.089
33.096
33.113
33.141
33.183
33.24
33.315
33.409
33.523
33.658
33.813
33.988
34.18
34.389
34.612
34.844
35.082
35.321
35.555
35.781
35.995
36.195
36.377
36.542
36.688
36.814
36.921
37.01
37.081
37.135
37.175
37.201
37.216
37.219
37.213
37.199
37.177
37.148
37.114
37.076
37.037
36.998
36.962
36.929
36.9
36.874
36.852
36.832
36.815
36.799
36.785
36.771
36.757
36.744
36.73
36.717
36.704
36.691
36.679
36.667
36.655
36.643
36.629
36.612
36.59
36.563
36.53
36.492
36.448
36.401
36.35
36.298
36.246
36.193
36.143
36.096
36.051
36.011
35.974
35.94
35.909
35.88
35.853
35.827
35.802
35.779
35.759
35.743
35.73
35.721
35.716
35.715
35.717
35.72
35.723
35.726
35.729
35.731
35.732
35.731
35.728
35.723
35.716
35.707
35.695
35.681
35.665
35.648
35.63
35.612
35.592
35.571
35.549
35.524
35.498
35.47
35.441
35.411
35.381
35.349
35.315
35.28
35.242
35.203
35.164
35.124
35.084
35.046
35.008
34.971
34.934
34.898
34.862
34.826
34.79
34.755
34.721
34.686
34.652
34.617
34.583
34.549
34.515
34.482
34.451
34.421
34.394
34.367
34.342
34.317
34.294
34.27
34.248
34.227
34.206
34.186
34.165
34.144
34.123
34.1
34.076
34.053
34.029
34.002
33.967
33.925
33.876
33.823
33.767
33.713
33.662
33.618
33.581
33.553
33.534
33.523
33.52
33.521
33.527
33.536
33.547
33.558
33.57
33.581
33.59
33.597
33.6
33.601
33.599
33.596
33.59
33.582
33.572
33.56
33.544
33.524
33.501
33.474
33.446
33.417
33.389
33.363
33.339
33.317
33.298
33.282
33.267
33.254
33.243
33.233
33.225
33.218
33.211
33.204
33.198
33.192
33.186
33.18
33.174
33.168
33.162
33.155
33.147
33.138
33.128
33.119
33.109
33.1
33.092
33.083
33.076
33.068
33.061
33.055
33.053
33.054
33.062
33.079
33.107
33.15
33.21
33.289
33.389
33.51
33.653
33.818
34.004
34.207
34.423
34.649
34.879
35.109
35.334
35.549
35.752
35.942
36.116
36.273
36.413
36.536
36.642
36.731
36.803
36.86
36.903
36.932
36.949
36.955
36.951
36.938
36.917
36.891
36.861
36.829
36.797
36.765
36.734
36.704
36.674
36.645
36.615
36.586
36.557
36.527
36.498
36.47
36.444
36.42
36.399
36.381
36.365
36.351
36.338
36.326
36.313
36.3
36.284
36.264
36.241
36.214
36.185
36.154
36.124
36.094
36.065
36.038
36.013
35.988
35.965
35.942
35.92
35.898
35.876
35.855
35.836
35.818
35.804
35.792
35.785
35.781
35.782
35.786
35.795
35.805
35.815
35.823
35.829
35.832
35.831
35.828
35.823
35.817
35.809
35.802
35.793
35.785
35.778
35.77
35.762
35.754
35.744
35.734
35.722
35.707
35.691
35.673
35.653
35.632
35.61
35.587
35.562
35.537
35.51
35.48
35.448
35.415
35.38
35.344
35.307
35.271
35.235
35.199
35.164
35.13
35.096
35.063
35.03
34.998
34.966
34.934
34.903
34.871
34.838
34.804
34.77
34.736
34.701
34.666
34.63
34.592
34.554
34.514
34.475
34.435
34.397
34.362
34.331
34.304
34.28
34.26
34.242
34.226
34.212
34.2
34.188
34.177
34.167
34.155
34.143
34.129
34.114
34.096
34.076
34.056
34.036
34.015
33.995
33.976
33.958
33.94
33.923
33.906
33.889
33.874
33.86
33.848
33.836
33.825
33.814
33.804
33.793
33.783
33.773
33.763
33.753
33.742
33.73
33.718
33.705
33.691
33.676
33.662
33.647
33.633
33.618
33.604
33.588
33.572
33.555
33.538
33.523
33.51
33.502
33.501
33.508
33.524
33.553
33.594
33.65
33.722
33.811
33.919
34.044
34.188
34.347
34.522
34.709
34.906
35.112
35.322
35.534
35.745
35.95
36.147
36.331
36.501
36.655
36.79
36.907
37.005
37.086
37.15
37.198
37.231
37.25
37.257
37.253
37.24
37.222
37.199
37.172
37.144
37.115
37.086
37.057
37.029
37.004
36.98
36.959
36.94
36.924
36.908
36.893
36.878
36.864
36.85
36.837
36.823
36.81
36.796
36.782
36.765
36.746
36.724
36.699
36.669
36.637
36.601
36.564
36.524
36.483
36.44
36.396
36.35
36.304
36.258
36.214
36.171
36.129
36.089
36.051
36.015
35.981
35.949
35.921
35.897
35.879
35.865
35.856
35.852
35.851
35.853
35.858
35.865
35.873
35.88
35.888
35.896
35.903
35.909
35.914
35.918
35.92
35.92
35.92
35.917
35.912
35.903
35.89
35.87
35.845
35.816
35.783
35.748
35.711
35.675
35.639
35.604
35.571
35.539
35.507
35.476
35.444
35.411
35.377
35.341
35.302
35.262
35.22
35.177
35.133
35.091
35.05
35.011
34.975
34.939
34.903
34.867
34.829
34.79
34.75
34.71
34.671
34.633
34.597
34.563
34.532
34.504
34.478
34.454
34.431
34.409
34.388
34.367
34.347
34.328
34.308
34.289
34.269
34.25
34.23
34.21
34.188
34.164
34.137
34.108
34.076
34.044
34.012
33.982
33.954
33.929
33.908
33.89
33.875
33.862
33.851
33.841
33.832
33.823
33.816
33.808
33.801
33.793
33.785
33.776
33.766
33.755
33.742
33.727
33.711
33.694
33.675
33.655
33.634
33.612
33.591
33.57
33.55
33.531
33.51
33.489
33.467
33.445
33.422
33.4
33.38
33.362
33.345
33.331
33.32
33.31
33.302
33.295
33.289
33.283
33.278
33.274
33.27
33.267
33.267
33.27
33.28
33.3
33.334
33.384
33.453
33.543
33.654
33.788
33.943
34.119
34.314
34.526
34.752
34.987
35.229
35.473
35.715
35.952
36.18
36.395
36.595
36.779
36.945
37.091
37.216
37.321
37.405
37.468
37.513
37.54
37.554
37.556
37.55
37.538
37.521
37.502
37.482
37.462
37.443
37.425
37.408
37.393
37.38
37.367
37.354
37.34
37.327
37.313
37.3
37.287
37.276
37.266
37.258
37.249
37.24
37.23
37.218
37.204
37.186
37.164
37.138
37.108
37.075
37.038
36.998
36.956
36.912
36.869
36.826
36.784
36.742
36.7
36.659
36.617
36.575
36.533
36.493
36.455
36.419
36.387
36.358
36.334
36.313
36.295
36.279
36.266
36.254
36.244
36.235
36.228
36.221
36.215
36.209
36.203
36.197
36.189
36.182
36.174
36.166
36.157
36.147
36.135
36.12
36.103
36.082
36.06
36.035
36.009
35.983
35.955
35.927
35.898
35.867
35.836
35.804
35.771
35.738
35.704
35.67
35.636
35.601
35.566
35.529
35.491
35.452
35.413
35.374
35.334
35.295
35.254
35.212
35.169
35.125
35.08
35.036
34.993
34.951
34.911
34.873
34.837
34.801
34.767
34.733
34.699
34.664
34.628
34.591
34.554
34.515
34.476
34.437
34.397
34.356
34.314
34.275
34.237
34.202
34.169
34.138
34.11
34.086
34.066
34.052
34.043
34.038
34.036
34.035
34.034
34.033
34.029
34.023
34.015
34.003
33.989
33.972
33.954
33.934
33.912
33.891
33.869
33.849
33.829
33.811
33.796
33.783
33.773
33.764
33.757
33.751
33.748
33.746
33.746
33.745
33.742
33.736
33.726
33.712
33.694
33.673
33.651
33.628
33.606
33.586
33.567
33.55
33.534
33.52
33.505
33.491
33.475
33.459
33.443
33.425
33.408
33.392
33.376
33.361
33.349
33.341
33.339
33.343
33.358
33.385
33.426
33.485
33.564
33.664
33.786
33.931
34.096
34.279
34.479
34.691
34.913
35.141
35.373
35.604
35.831
36.053
36.266
36.467
36.656
36.829
36.986
37.126
37.248
37.351
37.437
37.504
37.553
37.586
37.603
37.607
37.601
37.586
37.566
37.542
37.514
37.484
37.453
37.42
37.388
37.356
37.324
37.294
37.265
37.237
37.21
37.183
37.157
37.131
37.104
37.077
37.051
37.024
36.996
36.968
36.938
36.907
36.875
36.841
36.807
36.77
36.733
36.693
36.653
36.611
36.566
36.519
36.471
36.422
36.373
36.325
36.28
36.238
36.201
36.169
36.141
36.118
36.099
36.085
36.074
36.068
36.064
36.063
36.063
36.064
36.065
36.065
36.064
36.061
36.058
36.054
36.05
36.045
36.039
36.032
36.022
36.01
35.995
35.98
35.963
35.945
35.926
35.905
35.882
35.858
35.833
35.808
35.782
35.757
35.732
35.706
35.68
35.653
35.625
35.595
35.564
35.532
35.498
35.461
35.422
35.381
35.338
35.295
35.251
35.208
35.166
35.125
35.086
35.049
35.015
34.982
34.95
34.92
34.891
34.862
34.833
34.805
34.776
34.748
34.718
34.687
34.655
34.622
34.588
34.555
34.522
34.491
34.461
34.433
34.408
34.385
34.365
34.347
34.331
34.317
34.306
34.295
34.285
34.274
34.262
34.249
34.234
34.22
34.205
34.191
34.177
34.164
34.15
34.136
34.121
34.104
34.087
34.07
34.052
34.035
34.019
34.003
33.989
33.976
33.963
33.952
33.941
33.929
33.918
33.907
33.895
33.883
33.871
33.859
33.847
33.836
33.826
33.819
33.814
33.813
33.816
33.825
33.842
33.87
33.911
33.97
34.047
34.145
34.264
34.402
34.558
34.73
34.915
35.11
35.311
35.516
35.719
35.92
36.113
36.298
36.471
36.631
36.777
36.909
37.026
37.129
37.217
37.29
37.347
37.388
37.415
37.428
37.429
37.42
37.404
37.382
37.358
37.331
37.305
37.279
37.255
37.232
37.211
37.19
37.17
37.149
37.129
37.108
37.086
37.063
37.04
37.017
36.995
36.975
36.955
36.936
36.916
36.894
36.87
36.843
36.811
36.775
36.735
36.692
36.645
36.596
36.544
36.491
36.437
36.383
36.33
36.279
36.23
36.183
36.138
36.094
36.051
36.01
35.971
35.934
35.902
35.875
35.855
35.84
35.833
35.833
35.839
35.851
35.868
35.889
35.912
35.937
35.962
35.986
36.008
36.027
36.042
36.054
36.06
36.059
36.052
36.041
36.026
36.008
35.988
35.968
35.948
35.929
35.91
35.893
35.876
35.858
35.84
35.819
35.796
35.77
35.741
35.709
35.675
35.638
35.599
35.558
35.514
35.469
35.422
35.372
35.322
35.271
35.219
35.168
35.117
35.067
35.017
34.969
34.922
34.878
34.837
34.798
34.762
34.729
34.698
34.669
34.641
34.614
34.588
34.564
34.54
34.517
34.493
34.469
34.442
34.414
34.383
34.351
34.318
34.285
34.253
34.222
34.191
34.16
34.131
34.101
34.072
34.044
34.016
33.989
33.962
33.937
33.912
33.889
33.867
33.847
33.829
33.812
33.796
33.782
33.768
33.755
33.741
33.727
33.713
33.699
33.685
33.671
33.657
33.643
33.629
33.613
33.597
33.579
33.56
33.54
33.52
33.501
33.483
33.464
33.445
33.425
33.404
33.384
33.365
33.348
33.333
33.32
33.308
33.297
33.288
33.281
33.277
33.277
33.282
33.293
33.313
33.344
33.386
33.444
33.518
33.61
33.723
33.857
34.011
34.185
34.376
34.581
34.797
35.021
35.249
35.477
35.701
35.92
36.13
36.329
36.514
36.683
36.835
36.97
37.087
37.186
37.269
37.335
37.386
37.424
37.449
37.463
37.468
37.465
37.458
37.447
37.435
37.422
37.41
37.398
37.386
37.374
37.363
37.351
37.339
37.328
37.317
37.307
37.298
37.29
37.281
37.273
37.265
37.256
37.248
37.239
37.229
37.218
37.206
37.191
37.173
37.152
37.127
37.1
37.071
37.04
37.007
36.97
36.93
36.885
36.838
36.79
36.742
36.696
36.651
36.61
36.571
36.536
36.505
36.478
36.455
36.436
36.42
36.406
36.395
36.384
36.373
36.361
36.347
36.331
36.314
36.297
36.281
36.266
36.252
36.238
36.225
36.212
36.198
36.183
36.168
36.151
36.133
36.115
36.096
36.076
36.055
36.033
36.009
35.984
35.957
35.929
35.9
35.869
35.836
35.802
35.766
35.73
35.694
35.66
35.627
35.596
35.567
35.539
35.51
35.481
35.451
35.419
35.384
35.346
35.307
35.266
35.225
35.183
35.142
35.102
35.063
35.024
34.987
34.95
34.913
34.875
34.835
34.794
34.752
34.71
34.668
34.63
34.594
34.562
34.534
34.509
34.488
34.468
34.451
34.436
34.421
34.407
34.394
34.381
34.369
34.357
34.344
34.332
34.317
34.302
34.284
34.265
34.244
34.222
34.198
34.171
34.143
34.115
34.087
34.061
34.036
34.013
33.992
33.972
33.954
33.936
33.92
33.904
33.89
33.878
33.868
33.859
33.853
33.848
33.844
33.84
33.836
33.832
33.826
33.819
33.809
33.797
33.782
33.764
33.744
33.722
33.699
33.676
33.653
33.63
33.608
33.588
33.57
33.557
33.551
33.554
33.569
33.6
33.648
33.715
33.801
33.908
34.034
34.18
34.344
34.524
34.719
34.925
35.139
35.358
35.579
35.799
36.015
36.224
36.424
36.611
36.784
36.94
37.076
37.193
37.289
37.364
37.42
37.459
37.482
37.493
37.494
37.486
37.472
37.454
37.432
37.407
37.381
37.354
37.327
37.301
37.276
37.253
37.235
37.221
37.212
37.207
37.205
37.205
37.206
37.206
37.204
37.199
37.191
37.178
37.162
37.144
37.123
37.101
37.077
37.052
37.025
36.996
36.964
36.931
36.895
36.857
36.815
36.771
36.724
36.675
36.625
36.576
36.528
36.484
36.443
36.407
36.376
36.351
36.329
36.311
36.294
36.279
36.264
36.249
36.235
36.222
36.21
36.198
36.187
36.177
36.167
36.157
36.147
36.137
36.126
36.116
36.104
36.093
36.08
36.066
36.051
36.035
36.018
36.001
35.982
35.963
35.941
35.917
35.89
35.861
35.83
35.798
35.765
35.732
35.699
35.667
35.636
35.605
35.575
35.545
35.515
35.485
35.454
35.423
35.391
35.359
35.326
35.292
35.256
35.221
35.186
35.151
35.119
35.087
35.055
35.023
34.991
34.957
34.923
34.889
34.855
34.823
34.792
34.762
34.735
34.709
34.685
34.663
34.643
34.624
34.607
34.591
34.576
34.562
34.547
34.533
34.519
34.504
34.491
34.479
34.467
34.457
34.446
34.435
34.421
34.407
34.392
34.376
34.359
34.343
34.327
34.311
34.295
34.279
34.264
34.25
34.236
34.222
34.209
34.196
34.185
34.174
34.164
34.154
34.145
34.137
34.129
34.121
34.113
34.102
34.09
34.073
34.054
34.032
34.009
33.987
33.967
33.951
33.94
33.934
33.935
33.943
33.959
33.984
34.02
34.069
34.132
34.21
34.305
34.416
34.544
34.687
34.843
35.012
35.192
35.379
35.572
35.766
35.957
36.142
36.318
36.481
36.632
36.767
36.887
36.99
37.077
37.147
37.201
37.24
37.264
37.275
37.274
37.264
37.247
37.224
37.196
37.165
37.133
37.099
37.065
37.033
37.001
36.97
36.94
36.91
36.88
36.848
36.816
36.783
36.75
36.718
36.686
36.656
36.626
36.596
36.567
36.536
36.503
36.468
36.43
36.389
36.344
36.296
36.244
36.188
36.129
36.068
36.006
35.944
35.884
35.825
35.769
35.717
35.668
35.624
35.584
35.549
35.52
35.498
35.484
35.477
35.477
35.484
35.495
35.51
35.527
35.546
35.563
35.58
35.594
35.604
35.61
35.611
35.606
35.597
35.582
35.564
35.542
35.518
35.492
35.463
35.431
35.396
35.359
35.32
35.28
35.24
35.201
35.163
35.127
35.095
35.065
35.039
35.014
34.991
34.969
34.947
34.926
34.903
34.879
34.851
34.821
34.788
34.753
34.716
34.679
34.642
34.605
34.569
34.535
34.503
34.472
34.443
34.415
34.388
34.362
34.337
34.312
34.287
34.261
34.233
34.204
34.174
34.143
34.114
34.085
34.058
34.032
34.008
33.984
33.963
33.943
33.925
33.91
33.898
33.888
33.881
33.874
33.869
33.863
33.856
33.848
33.837
33.825
33.81
33.794
33.776
33.756
33.736
33.715
33.695
33.675
33.657
33.64
33.624
33.61
33.596
33.583
33.572
33.563
33.557
33.553
33.55
33.547
33.545
33.541
33.536
33.529
33.521
33.513
33.504
33.495
33.486
33.478
33.47
33.463
33.456
33.448
33.438
33.427
33.413
33.397
33.379
33.359
33.337
33.315
33.294
33.274
33.257
33.243
33.232
33.225
33.223
33.228
33.241
33.266
33.304
33.359
33.431
33.522
33.632
33.763
33.914
34.082
34.267
34.466
34.676
34.895
35.117
35.34
35.56
35.771
35.97
36.156
36.324
36.475
36.605
36.716
36.807
36.877
36.927
36.959
36.976
36.98
36.975
36.965
36.95
36.934
36.917
36.901
36.887
36.874
36.862
36.852
36.844
36.838
36.833
36.828
36.824
36.818
36.812
36.805
36.798
36.79
36.784
36.777
36.769
36.76
36.75
36.737
36.722
36.705
36.684
36.661
36.635
36.606
36.574
36.538
36.498
36.45
36.392
36.326
36.255
36.183
36.113
36.046
35.985
35.931
35.885
35.848
35.82
35.802
35.793
35.792
35.799
35.81
35.824
35.838
35.852
35.864
35.874
35.88
35.882
35.882
35.878
35.871
35.862
35.85
35.836
35.822
35.806
35.79
35.772
35.753
35.731
35.706
35.678
35.649
35.618
35.586
35.555
35.525
35.495
35.466
35.436
35.406
35.375
35.344
35.312
35.281
35.25
35.219
35.189
35.16
35.132
35.105
35.08
35.055
35.033
35.012
34.991
34.971
34.951
34.93
34.907
34.883
34.859
34.835
34.812
34.789
34.766
34.744
34.72
34.697
34.674
34.651
34.628
34.606
34.585
34.563
34.542
34.52
34.498
34.474
34.451
34.428
34.406
34.385
34.364
34.343
34.322
34.3
34.279
34.258
34.238
34.218
34.199
34.181
34.163
34.144
34.124
34.102
34.079
34.054
34.029
34.002
33.974
33.946
33.919
33.891
33.866
33.842
33.82
33.801
33.785
33.772
33.761
33.751
33.742
33.734
33.727
33.721
33.715
33.708
33.701
33.692
33.681
33.668
33.653
33.636
33.617
33.596
33.575
33.554
33.532
33.511
33.49
33.468
33.447
33.426
33.405
33.384
33.364
33.344
33.324
33.304
33.285
33.266
33.247
33.23
33.215
33.202
33.192
33.185
33.181
33.179
33.183
33.191
33.207
33.232
33.267
33.316
33.38
33.46
33.559
33.675
33.811
33.964
34.135
34.32
34.517
34.723
34.933
35.144
35.352
35.554
35.746
35.928
36.096
36.25
36.387
36.506
36.606
36.688
36.752
36.799
36.83
36.846
36.851
36.846
36.834
36.816
36.795
36.771
36.746
36.72
36.694
36.668
36.642
36.614
36.585
36.554
36.523
36.492
36.463
36.438
36.416
36.4
36.387
36.378
36.373
36.37
36.367
36.365
36.361
36.355
36.346
36.333
36.316
36.295
36.271
36.243
36.212
36.179
36.144
36.109
36.072
36.033
35.992
35.949
35.903
35.857
35.812
35.769
35.729
35.693
35.663
35.637
35.617
35.602
35.591
35.585
35.582
35.581
35.582
35.586
35.59
35.594
35.599
35.604
35.607
35.609
35.61
35.607
35.601
35.591
35.576
35.556
35.531
35.503
35.474
35.443
35.411
35.379
35.346
35.314
35.282
35.252
35.222
35.195
35.17
35.146
35.125
35.106
35.088
35.072
35.056
35.041
35.026
35.012
34.997
34.982
34.965
34.945
34.922
34.896
34.868
34.837
34.807
34.776
34.745
34.716
34.686
34.658
34.63
34.604
34.579
34.556
34.535
34.516
34.499
34.483
34.467
34.451
34.435
34.42
34.405
34.392
34.38
34.369
34.359
34.349
34.34
34.33
34.32
34.31
34.299
34.289
34.279
34.268
34.257
34.245
34.232
