Trial 1:0back
37.043
36.983
36.934
36.894
36.866
36.847
36.839
36.84
36.851
36.869
36.893
36.924
36.959
37.001
37.046
37.093
37.14
37.187
37.231
37.27
37.302
37.326
37.34
37.345
37.339
37.323
37.299
37.266
37.225
37.176
37.12
37.058
36.99
36.918
36.843
36.766
36.687
36.607
36.526
36.444
36.362
36.281
36.2
36.121
36.042
35.965
35.887
35.81
35.732
35.653
35.572
35.489
35.404
35.317
35.23
35.142
35.055
34.968
34.882
34.799
34.718
34.641
34.569
34.502
34.44
34.384
34.335
34.291
34.253
34.221
34.193
34.17
34.149
34.13
34.112
34.094
34.078
34.063
34.051
34.043
34.036
34.032
34.03
34.029
34.028
34.026
34.023
34.019
34.012
34.003
33.993
33.983
33.974
33.968
33.962
33.95
33.932
33.916
33.902
33.888
33.873
33.855
33.835
33.812
33.79
33.767
33.744
33.722
33.701
33.681
33.661
33.644
33.626
33.608
33.587
33.562
33.533
33.498
33.456
33.409
33.356
33.299
33.24
33.181
33.123
33.071
33.026
32.991
32.971
32.967
32.984
33.026
33.097
33.198
33.332
33.501
33.704
33.942
34.213
34.514
34.842
35.192
35.558
35.936
36.318
36.698
37.072
37.433
37.779
38.104
38.406
38.683
38.933
39.155
39.348
39.514
39.653
39.768
39.859
39.93
39.981
40.015
40.033
40.037
40.028
40.009
39.981
39.945
39.902
39.852
39.795
39.732
39.662
39.585
39.502
39.413
39.318
39.218
39.114
39.006
38.896
38.785
38.672
38.559
38.444
38.329
38.215
38.101
37.988
37.877
37.768
37.659
37.553
37.447
37.344
37.242
37.143
37.047
36.957
36.872
36.795
36.724
36.661
36.608
36.565
36.531
36.506
36.489
36.479
36.476
36.479
36.487
36.499
36.515
36.532
36.552
36.572
36.594
36.616
36.64
36.663
36.686
36.708
36.728
36.745
36.759
36.767
36.769
36.764
36.753
36.733
36.705
36.669
36.625
36.575
36.519
36.456
36.388
36.315
36.238
36.159
36.08
36.0
35.922
35.844
35.767
35.691
35.617
35.543
35.471
35.4
35.331
35.264
35.199
35.136
35.074
35.012
34.951
34.891
34.831
34.772
34.714
34.656
34.599
34.543
34.488
34.434
34.382
34.331
34.281
34.232
34.186
34.141
34.098
34.059
34.023
33.991
33.963
33.939
33.92
33.903
33.891
33.882
33.876
33.874
33.875
33.878
33.882
33.886
33.891
33.894
33.895
33.894
33.891
33.885
33.877
33.867
33.855
33.841
33.824
33.805
33.785
33.764
33.743
33.721
33.698
33.676
33.653
33.632
33.61
33.59
33.569
33.549
33.528
33.506
33.484
33.459
33.431
33.4
33.365
33.325
33.281
33.234
33.185
33.136
33.088
33.04
32.993
32.948
32.905
32.863
32.825
32.792
32.764
32.746
32.739
32.747
32.772
32.816
32.885
32.981
33.108
33.267
33.461
33.688
33.948
34.237
34.552
34.889
35.24
35.602
35.969
36.334
36.692
37.036
37.361
37.664
37.941
38.19
38.41
38.601
38.762
38.895
39.002
39.084
39.144
39.184
39.206
39.214
39.21
39.194
39.169
39.135
39.096
39.052
39.004
38.951
38.894
38.833
38.766
38.695
38.618
38.537
38.45
38.359
38.264
38.164
38.061
37.953
37.843
37.729
37.612
37.492
37.369
37.245
37.12
36.996
36.874
36.755
36.641
36.533
36.432
36.338
36.254
36.178
36.111
36.054
36.007
35.969
35.942
35.924
35.915
35.914
35.921
35.935
35.954
35.978
36.006
36.036
36.068
36.102
36.135
36.166
36.196
36.223
36.248
36.27
36.29
36.307
36.322
36.336
36.347
36.357
36.364
36.369
36.371
36.368
36.36
36.344
36.32
36.287
36.246
36.197
36.14
36.075
36.003
35.925
35.842
35.756
35.669
35.581
35.493
35.405
35.319
35.236
35.156
35.08
35.008
34.94
34.877
34.816
34.759
34.706
34.655
34.606
34.559
34.513
34.469
34.425
34.382
34.339
34.296
34.253
34.21
34.168
34.126
34.085
34.043
34.002
33.962
33.924
33.891
33.863
33.841
33.824
33.812
33.806
33.803
33.803
33.805
33.809
33.812
33.814
33.815
33.815
33.812
33.808
33.802
33.794
33.785
33.775
33.764
33.751
33.736
33.72
33.703
33.685
33.665
33.644
33.621
33.595
33.568
33.538
33.508
33.476
33.442
33.408
33.374
33.34
33.306
33.274
33.242
33.21
33.18
33.152
33.125
33.1
33.076
33.053
33.031
33.01
32.992
32.976
32.965
32.958
32.96
32.972
32.998
33.04
33.101
33.184
33.289
33.42
33.578
33.761
33.971
34.206
34.463
34.741
35.037
35.346
35.664
35.986
36.308
36.626
36.935
37.232
37.514
37.775
38.015
38.231
38.422
38.586
38.724
38.837
38.925
38.992
39.039
39.067
39.079
39.076
39.06
39.033
38.997
38.953
38.903
38.848
38.79
38.729
38.665
38.6
38.534
38.467
38.399
38.331
38.262
38.192
38.121
38.047
37.971
37.893
37.81
37.723
37.63
37.532
37.427
37.315
37.195
37.071
36.944
36.817
36.692
36.572
36.46
36.357
36.266
36.187
36.121
36.068
36.027
35.999
35.982
35.977
35.982
35.996
36.016
36.043
36.073
36.105
36.139
36.172
36.204
36.235
36.262
36.285
36.304
36.319
36.329
36.335
36.336
36.333
36.325
36.314
36.299
36.281
36.261
36.238
36.211
36.182
36.148
36.111
36.068
36.021
35.971
35.917
35.861
35.802
35.741
35.677
35.612
35.544
35.475
35.405
35.334
35.264
35.193
35.121
35.047
34.973
34.897
34.82
34.743
34.665
34.587
34.511
34.438
34.37
34.306
34.247
34.195
34.148
34.108
34.075
34.048
34.026
34.006
33.99
33.976
33.963
33.95
33.937
33.923
33.908
33.89
33.87
33.848
33.824
33.797
33.77
33.742
33.714
33.687
33.662
33.64
33.62
33.603
33.59
33.579
33.572
33.567
33.565
33.564
33.566
33.569
33.573
33.577
33.581
33.585
33.588
33.589
33.588
33.584
33.576
33.564
33.547
33.527
33.503
33.477
33.447
33.416
33.383
33.349
33.313
33.275
33.237
33.198
33.16
33.121
33.083
33.046
33.01
32.974
32.939
32.905
32.873
32.843
32.815
32.789
32.764
32.742
32.72
32.701
32.684
32.673
32.669
32.677
32.698
32.736
32.795
32.877
32.985
33.121
33.285
33.479
33.702
33.953
34.229
34.529
34.847
35.18
35.523
35.871
36.219
36.561
36.893
37.21
37.51
37.788
38.044
38.275
38.48
38.658
38.81
38.935
39.035
39.111
39.166
39.202
39.22
39.222
39.21
39.188
39.155
39.115
39.069
39.017
38.963
38.905
38.846
38.787
38.729
38.672
38.616
38.561
38.506
38.452
38.397
38.341
38.282
38.22
38.153
38.082
38.006
37.924
37.836
37.742
37.644
37.541
37.436
37.328
37.218
37.109
37.002
36.899
36.801
36.711
36.629
36.557
36.495
36.443
36.401
36.368
36.344
36.327
36.318
36.316
36.319
36.326
36.336
36.348
36.362
36.376
36.388
36.398
36.405
36.408
36.408
36.405
36.398
36.389
36.378
36.366
36.353
36.34
36.327
36.313
36.297
36.281
36.263
36.243
36.22
36.195
36.167
36.134
36.097
36.055
36.006
35.952
35.89
35.823
35.751
35.674
35.593
35.508
35.421
35.332
35.243
35.156
35.07
34.988
34.909
34.836
34.768
34.706
34.649
34.596
34.548
34.504
34.464
34.428
34.394
34.362
34.332
34.301
34.271
34.241
34.21
34.179
34.149
34.119
34.09
34.062
34.033
34.004
33.976
33.947
33.918
33.89
33.863
33.836
33.811
33.788
33.765
33.745
33.727
33.712
33.7
33.689
33.68
33.673
33.667
33.663
33.66
33.659
33.659
33.659
33.658
33.655
33.651
33.645
33.636
33.624
33.609
33.59
33.569
33.544
33.518
33.489
33.46
33.431
33.403
33.375
33.348
33.323
33.299
33.275
33.253
33.231
33.209
33.188
33.166
33.143
33.119
33.094
33.066
33.035
33.002
32.966
32.929
32.889
32.847
32.804
32.76
32.716
32.673
32.629
32.587
32.544
32.502
32.462
32.424
32.389
32.359
32.338
32.326
32.327
32.344
32.38
32.437
32.52
32.629
32.768
32.938
33.139
33.37
33.63
33.916
34.225
34.553
34.895
35.246
35.6
35.952
36.297
36.631
36.949
37.248
37.524
37.776
38.003
38.203
38.378
38.528
38.654
38.758
38.843
38.911
38.965
39.005
39.033
39.048
39.051
39.043
39.024
38.996
38.958
38.911
38.857
38.797
38.731
38.66
38.585
38.508
38.428
38.347
38.262
38.176
38.093
38.014
37.941
37.873
37.806
37.741
37.674
37.605
37.531
37.453
37.37
37.282
37.188
37.091
36.991
36.891
36.791
36.693
36.598
36.508
36.423
36.345
36.275
36.213
36.16
36.115
36.078
36.05
36.031
36.02
36.017
36.021
36.031
36.047
36.068
36.093
36.12
36.15
36.182
36.213
36.244
36.272
36.299
36.321
36.34
36.353
36.36
36.361
36.355
36.341
36.321
36.292
36.256
36.211
36.158
36.098
36.033
35.962
35.889
35.815
35.741
35.667
35.595
35.525
35.458
35.393
35.331
35.271
35.214
35.159
35.107
35.055
35.005
34.955
34.906
34.855
34.804
34.752
34.697
34.642
34.586
34.529
34.472
34.415
34.36
34.306
34.253
34.203
34.156
34.111
34.069
34.03
33.993
33.957
33.924
33.893
33.865
33.841
33.821
33.805
33.793
33.786
33.783
33.784
33.786
33.791
33.795
33.799
33.802
33.804
33.804
33.804
33.802
33.798
33.792
33.783
33.77
33.755
33.737
33.719
33.702
33.685
33.67
33.657
33.645
33.635
33.627
33.619
33.612
33.605
33.597
33.588
33.578
33.566
33.552
33.535
33.517
33.496
33.473
33.446
33.417
33.386
33.351
33.314
33.274
33.232
33.188
33.141
33.093
33.043
32.993
32.942
32.892
32.843
32.796
32.751
32.709
32.67
32.635
32.604
32.575
32.549
32.525
32.503
32.483
32.465
32.45
32.437
32.429
32.427
32.432
32.449
32.479
32.525
32.591
32.679
32.791
32.929
33.095
33.287
33.506
33.749
34.016
34.303
34.608
34.925
35.25
35.578
35.905
36.226
36.537
36.834
37.115
37.377
37.617
37.833
38.024
38.189
38.328
38.441
38.53
38.595
38.638
38.662
38.668
38.659
38.638
38.605
38.564
38.515
38.46
38.399
38.335
38.268
38.199
38.13
38.061
37.993
37.924
37.854
37.784
37.71
37.633
37.552
37.469
37.383
37.294
37.202
37.107
37.01
36.911
36.81
36.708
36.604
36.5
36.397
36.295
36.196
36.102
36.012
35.929
35.852
35.783
35.724
35.673
35.632
35.6
35.578
35.565
35.562
35.567
35.581
35.6
35.624
35.652
35.683
35.713
35.742
35.769
35.793
35.813
35.829
35.839
35.844
35.844
35.841
35.835
35.828
35.82
35.811
35.802
35.793
35.784
35.775
35.764
35.752
35.737
35.718
35.696
35.669
35.637
35.6
35.557
35.508
35.452
35.389
35.321
35.247
35.169
35.088
35.006
34.923
34.84
34.758
34.677
34.599
34.523
34.449
34.376
34.306
34.239
34.175
34.115
34.06
34.01
33.967
33.932
33.904
33.883
33.867
33.855
33.846
33.838
33.829
33.819
33.806
33.789
33.77
33.747
33.721
33.693
33.664
33.633
33.602
33.571
33.541
33.513
33.488
33.466
33.446
33.43
33.417
33.408
33.402
33.4
33.4
33.401
33.404
33.407
33.41
33.411
33.411
33.41
33.406
33.402
33.397
33.392
33.387
33.379
33.368
33.353
33.334
33.312
33.287
33.259
33.229
33.197
33.165
33.131
33.096
33.06
33.024
32.988
32.953
32.921
32.893
32.868
32.848
32.831
32.817
32.806
32.795
32.785
32.774
32.761
32.746
32.727
32.705
32.679
32.649
32.616
32.58
32.542
32.502
32.462
32.422
32.382
32.345
32.311
32.281
32.256
32.238
32.228
32.23
32.247
32.281
32.336
32.416
32.522
32.656
32.82
33.015
33.24
33.493
33.774
34.079
34.404
34.744
35.094
35.448
35.8
36.144
36.477
36.793
37.089
37.361
37.61
37.832
38.028
38.199
38.346
38.469
38.569
38.65
38.712
38.756
38.785
38.8
38.803
38.795
38.779
38.754
38.722
38.683
38.637
38.585
38.527
38.464
38.395
38.323
38.246
38.168
38.088
38.007
37.926
37.846
37.768
37.691
37.616
37.543
37.471
37.402
37.335
37.269
37.204
37.141
37.077
37.012
36.945
36.875
36.803
36.73
36.655
36.581
36.507
36.433
36.361
36.291
36.224
36.16
36.1
36.044
35.994
35.951
35.916
35.889
35.871
35.861
35.858
35.862
35.872
35.887
35.908
35.932
35.96
35.99
36.021
36.052
36.081
36.108
36.13
36.147
36.158
36.161
36.157
36.146
36.128
36.103
36.072
36.034
35.991
35.942
35.887
35.828
35.765
35.699
35.63
35.56
35.491
35.423
35.357
35.295
35.236
35.18
35.128
35.077
35.028
34.979
34.931
34.881
34.829
34.775
34.718
34.659
34.597
34.534
34.47
34.405
34.341
34.277
34.216
34.158
34.104
34.055
34.01
33.971
33.936
33.906
33.879
33.856
33.836
33.817
33.801
33.786
33.773
33.761
33.748
33.736
33.723
33.708
33.693
33.677
33.661
33.645
33.628
33.612
33.594
33.578
33.564
33.552
33.541
33.53
33.52
33.509
33.497
33.484
33.47
33.455
33.439
33.423
33.406
33.39
33.373
33.358
33.344
33.331
33.319
33.308
33.298
33.289
33.278
33.267
33.254
33.239
33.22
33.197
33.171
33.139
33.104
33.065
33.023
32.979
32.934
32.888
32.844
32.801
32.76
32.721
32.684
32.65
32.619
32.59
32.563
32.538
32.515
32.493
32.472
32.45
32.429
32.407
32.385
32.363
32.342
32.322
32.306
32.295
32.293
32.303
32.328
32.371
32.436
32.526
32.644
32.791
32.969
33.177
33.416
33.682
33.973
34.285
34.614
34.953
35.3
35.648
35.993
36.328
36.649
36.953
37.236
37.497
37.732
37.942
38.125
38.282
38.412
38.518
38.599
38.658
38.697
38.718
38.723
38.714
38.693
38.663
38.624
38.579
38.529
38.477
38.423
38.369
38.314
38.259
38.204
38.149
38.092
38.033
37.971
37.906
37.837
37.764
37.688
37.607
37.523
37.436
37.345
37.252
37.158
37.062
36.965
36.868
36.771
36.676
36.583
36.492
36.404
36.321
36.242
36.169
36.103
36.043
35.991
35.946
35.909
35.878
35.852
35.833
35.817
35.804
35.795
35.788
35.784
35.782
35.781
35.783
35.786
35.791
35.798
35.804
35.811
35.819
35.826
35.834
35.842
35.851
35.859
35.866
35.872
35.878
35.883
35.887
35.889
35.887
35.88
35.866
35.847
35.821
35.787
35.746
35.697
35.641
35.581
35.517
35.448
35.375
35.298
35.217
35.134
35.049
34.965
34.883
34.802
34.724
34.65
34.58
34.515
34.455
34.398
34.345
34.295
34.248
34.203
34.159
34.116
34.073
34.029
33.985
33.94
33.895
33.849
33.805
33.761
33.719
33.679
33.643
33.609
33.579
33.55
33.524
33.499
33.475
33.452
33.431
33.411
33.394
33.378
33.365
33.355
33.347
33.341
33.336
33.332
33.329
33.325
33.32
33.313
33.304
33.294
33.281
33.266
33.25
33.232
33.214
33.194
33.175
33.155
33.136
33.118
33.102
33.088
33.077
33.068
33.059
33.053
33.047
33.041
33.035
33.028
33.018
33.007
32.993
32.976
32.957
32.936
32.913
32.889
32.865
32.841
32.819
32.797
32.773
32.748
32.719
32.686
32.646
32.6
32.549
32.493
32.436
32.378
32.322
32.268
32.218
32.172
32.131
32.094
32.063
32.037
32.016
32.001
31.994
31.995
32.007
32.029
32.065
32.115
32.18
32.263
32.366
32.493
32.646
32.827
33.037
33.277
33.543
33.834
34.146
34.477
34.821
35.173
35.528
35.882
36.227
36.559
36.869
37.155
37.415
37.651
37.861
38.048
38.212
38.358
38.484
38.591
38.678
38.744
38.789
38.813
38.817
38.799
38.762
38.707
38.637
38.554
38.462
38.363
38.259
38.153
38.047
37.942
37.839
37.74
37.644
37.553
37.467
37.386
37.308
37.234
37.161
37.09
37.019
36.948
36.873
36.795
36.712
36.624
36.53
36.431
36.327
36.219
36.108
35.997
35.886
35.781
35.682
35.593
35.514
35.448
35.395
35.356
35.329
35.316
35.315
35.326
35.347
35.376
35.412
35.453
35.497
35.542
35.589
35.634
35.678
35.72
35.758
35.792
35.821
35.845
35.864
35.878
35.887
35.893
35.895
35.894
35.891
35.884
35.874
35.86
35.842
35.82
35.795
35.766
35.732
35.695
35.653
35.605
35.551
35.492
35.428
35.359
35.287
35.214
35.14
35.067
34.993
34.921
34.849
34.778
34.708
34.639
34.571
34.503
34.436
34.37
34.306
34.243
34.181
34.123
34.067
34.013
33.964
33.917
33.874
33.833
33.793
33.756
33.72
33.684
33.65
33.615
33.58
33.546
33.511
33.476
33.44
33.403
33.366
33.329
33.295
33.264
33.238
33.217
33.203
33.195
33.192
33.195
33.202
33.211
33.223
33.237
33.252
33.269
33.285
33.302
33.316
33.327
33.335
33.338
33.337
33.329
33.318
33.301
33.281
33.257
33.231
33.203
33.173
33.143
33.114
33.086
33.059
33.035
33.011
32.99
32.97
32.953
32.938
32.926
32.915
32.906
32.899
32.892
32.883
32.873
32.859
32.841
32.817
32.789
32.754
32.714
32.669
32.619
32.564
32.507
32.447
32.385
32.322
32.259
32.198
32.138
32.081
32.027
31.978
31.934
31.897
31.867
31.847
31.837
31.839
31.855
31.888
31.941
32.017
32.117
32.246
32.406
32.598
32.824
33.082
33.371
33.688
34.028
34.387
34.76
35.141
35.523
35.9
36.269
36.623
36.959
37.274
37.566
37.835
38.077
38.294
38.486
38.652
38.793
38.912
39.01
39.087
39.144
39.184
39.208
39.215
39.207
39.185
39.15
39.104
39.046
38.979
38.903
38.819
38.729
38.635
38.538
38.439
38.34
38.242
38.144
38.048
37.954
37.862
37.771
37.683
37.597
37.515
37.433
37.351
37.268
37.183
37.094
37.002
36.906
36.806
36.702
36.596
36.489
36.38
36.274
36.17
36.072
35.982
35.9
35.829
35.771
35.727
35.696
35.678
35.672
35.677
35.693
35.718
35.749
35.787
35.828
35.871
35.914
35.957
35.997
36.034
36.068
36.096
36.12
36.138
36.151
36.158
36.161
36.158
36.151
36.138
36.122
36.101
36.077
36.052
36.025
35.996
35.965
35.93
35.893
35.853
35.808
35.759
35.704
35.645
35.58
35.51
35.434
35.355
35.272
35.186
35.099
35.011
34.922
34.832
34.741
34.65
34.559
34.47
34.382
34.298
34.217
34.14
34.067
34.0
33.936
33.876
33.82
33.769
33.721
33.677
33.637
33.599
33.563
33.528
33.495
33.463
33.433
33.403
33.374
33.347
33.321
33.296
33.272
33.249
33.227
33.207
33.187
33.17
33.155
33.144
33.136
33.131
33.128
33.127
33.127
33.127
33.127
33.125
33.123
33.119
33.115
33.11
33.105
33.098
33.09
33.081
33.071
33.059
33.047
33.033
33.018
33.002
32.985
32.967
32.949
32.93
32.913
32.896
32.882
32.869
32.858
32.849
32.839
32.829
32.817
32.803
32.785
32.763
32.738
32.709
32.677
32.642
32.605
32.566
32.525
32.482
32.436
32.388
32.337
32.285
32.23
32.174
32.118
32.061
32.004
31.948
31.895
31.845
31.8
31.762
31.733
31.717
31.716
31.735
31.778
31.85
31.954
32.093
32.269
32.485
32.739
33.031
33.357
33.715
34.099
34.502
34.918
35.342
35.766
36.185
36.592
36.983
37.351
37.695
38.01
38.296
38.551
38.775
38.969
39.135
39.273
39.384
39.471
39.536
39.581
39.61
39.623
39.623
39.612
39.59
39.559
39.518
39.468
39.409
39.342
39.267
39.183
39.091
38.991
38.882
38.766
38.644
38.519
38.395
38.272
38.153
38.04
37.932
37.828
37.73
37.637
37.547
37.46
37.376
37.294
37.211
37.127
37.041
36.953
36.861
36.766
36.669
36.572
36.475
36.381
36.29
36.206
36.129
36.061
36.003
35.954
35.916
35.889
35.873
35.867
35.871
35.883
35.904
35.932
35.965
36.002
36.041
36.081
36.12
36.157
36.191
36.223
36.25
36.273
36.291
36.303
36.309
36.31
36.304
36.292
36.275
36.253
36.225
36.193
36.157
36.117
36.074
36.028
35.979
35.927
35.873
35.815
35.755
35.692
35.625
35.556
35.483
35.407
35.327
35.244
35.158
35.068
34.977
34.883
34.788
34.691
34.595
34.499
34.406
34.316
34.231
34.151
34.077
34.006
33.939
33.874
33.812
33.752
33.694
33.64
33.588
33.539
33.493
33.449
33.408
33.37
33.334
33.3
33.268
33.238
33.208
33.18
33.153
33.127
33.102
33.078
33.055
33.032
33.01
32.989
32.969
32.95
32.932
32.916
32.901
32.887
32.876
32.868
32.862
32.859
32.858
32.86
32.863
32.868
32.874
32.879
32.884
32.887
32.89
32.891
32.89
32.888
32.884
32.877
32.866
32.85
32.83
32.806
32.777
32.744
32.708
32.67
32.631
32.593
32.556
32.521
32.488
32.457
32.428
32.399
32.371
32.343
32.314
32.284
32.25
32.215
32.177
32.136
32.093
32.047
32.0
31.951
31.9
31.849
31.799
31.752
31.712
31.681
31.665
31.667
31.692
31.744
31.827
31.946
32.105
32.305
32.549
32.836
33.165
33.532
33.932
34.36
34.806
35.263
35.723
36.179
36.623
37.047
37.447
37.818
38.155
38.457
38.723
38.952
39.145
39.303
39.429
39.525
