Trial 1:0back
32.923
33.009
33.116
33.242
33.389
33.554
33.738
33.939
34.157
34.392
34.641
34.903
35.178
35.465
35.765
36.078
36.403
36.74
37.086
37.438
37.788
38.132
38.461
38.769
39.048
39.293
39.497
39.657
39.772
39.841
39.863
39.843
39.785
39.694
39.576
39.438
39.285
39.125
38.963
38.801
38.643
38.492
38.349
38.215
38.091
37.976
37.87
37.771
37.68
37.597
37.533
37.49
37.467
37.455
37.447
37.435
37.412
37.373
37.316
37.24
37.146
37.036
36.913
36.78
36.642
36.5
36.359
36.223
36.095
35.979
35.875
35.786
35.712
35.653
35.608
35.578
35.559
35.551
35.551
35.557
35.567
35.58
35.595
35.611
35.626
35.638
35.646
35.65
35.648
35.638
35.622
35.599
35.57
35.535
35.495
35.452
35.407
35.361
35.315
35.268
35.22
35.173
35.126
35.081
35.037
34.994
34.952
34.91
34.869
34.826
34.781
34.734
34.685
34.634
34.581
34.528
34.475
34.421
34.366
34.312
34.257
34.204
34.152
34.1
34.05
34.001
33.954
33.907
33.862
33.816
33.769
33.721
33.673
33.626
33.581
33.538
33.497
33.457
33.417
33.379
33.342
33.308
33.275
33.242
33.208
33.172
33.136
33.099
33.059
33.019
32.978
32.937
32.896
32.856
32.817
32.781
32.747
32.715
32.689
32.669
32.658
32.659
32.673
32.704
32.752
32.82
32.907
33.016
33.147
33.299
33.471
33.664
33.875
34.107
34.359
34.635
34.936
35.265
35.622
36.009
36.422
36.857
37.304
37.754
38.196
38.62
39.014
39.37
39.679
39.938
40.141
40.287
40.376
40.412
40.399
40.342
40.248
40.122
39.971
39.803
39.622
39.436
39.25
39.068
38.893
38.728
38.575
38.434
38.305
38.187
38.078
37.979
37.887
37.8
37.717
37.636
37.556
37.475
37.394
37.312
37.227
37.14
37.05
36.956
36.862
36.767
36.672
36.579
36.488
36.4
36.316
36.235
36.158
36.085
36.017
35.954
35.898
35.848
35.804
35.767
35.735
35.709
35.689
35.673
35.66
35.651
35.642
35.632
35.622
35.611
35.601
35.591
35.582
35.573
35.563
35.551
35.536
35.518
35.498
35.474
35.449
35.421
35.391
35.36
35.328
35.293
35.256
35.217
35.174
35.128
35.078
35.026
34.972
34.918
34.864
34.809
34.754
34.698
34.642
34.586
34.53
34.474
34.419
34.365
34.312
34.26
34.207
34.154
34.101
34.045
33.987
33.927
33.866
33.806
33.748
33.692
33.639
33.589
33.542
33.499
33.458
33.42
33.388
33.359
33.333
33.31
33.288
33.266
33.243
33.217
33.189
33.157
33.123
33.088
33.052
33.017
32.982
32.949
32.916
32.884
32.853
32.822
32.793
32.768
32.746
32.73
32.722
32.723
32.735
32.761
32.804
32.866
32.95
33.057
33.187
33.342
33.519
33.718
33.938
34.178
34.438
34.719
35.024
35.354
35.711
36.093
36.498
36.919
37.347
37.771
38.182
38.569
38.923
39.235
39.499
39.712
39.872
39.978
40.033
40.041
40.005
39.933
39.832
39.706
39.562
39.406
39.242
39.076
38.913
38.755
38.605
38.465
38.336
38.218
38.11
38.011
37.922
37.839
37.76
37.684
37.608
37.532
37.454
37.372
37.287
37.198
37.105
37.009
36.91
36.81
36.713
36.618
36.528
36.443
36.363
36.289
36.222
36.162
36.109
36.062
36.022
35.987
35.957
35.932
35.912
35.896
35.884
35.875
35.867
35.859
35.852
35.845
35.838
35.829
35.819
35.807
35.793
35.776
35.757
35.737
35.715
35.691
35.664
35.635
35.603
35.57
35.535
35.499
35.461
35.422
35.383
35.341
35.299
35.255
35.21
35.164
35.118
35.072
35.025
34.978
34.932
34.887
34.841
34.795
34.748
34.699
34.647
34.591
34.531
34.471
34.411
34.352
34.296
34.241
34.189
34.137
34.086
34.035
33.984
33.933
33.881
33.828
33.773
33.719
33.665
33.613
33.561
33.51
33.46
33.412
33.366
33.324
33.285
33.25
33.218
33.188
33.158
33.127
33.095
33.063
33.031
33.0
32.968
32.937
32.906
32.876
32.845
32.816
32.787
32.759
32.733
32.708
32.687
32.668
32.653
32.642
32.636
32.637
32.649
32.673
32.712
32.768
32.844
32.94
33.056
33.191
33.346
33.521
33.714
33.925
34.155
34.404
34.673
34.966
35.283
35.626
35.995
36.385
36.791
37.206
37.618
38.02
38.402
38.755
39.072
39.345
39.572
39.748
39.873
39.947
39.97
39.946
39.881
39.78
39.651
39.498
39.331
39.155
38.977
38.801
38.63
38.467
38.315
38.172
38.04
37.917
37.8
37.691
37.587
37.489
37.395
37.306
37.22
37.136
37.054
36.971
36.887
36.801
36.713
36.623
36.531
36.438
36.347
36.259
36.174
36.094
36.019
35.948
35.883
35.823
35.768
35.718
35.674
35.637
35.606
35.582
35.565
35.552
35.542
35.535
35.527
35.52
35.511
35.502
35.49
35.477
35.463
35.446
35.426
35.405
35.381
35.358
35.334
35.309
35.284
35.258
35.231
35.205
35.178
35.152
35.123
35.091
35.055
35.015
34.972
34.926
34.878
34.828
34.777
34.726
34.677
34.63
34.586
34.543
34.503
34.463
34.424
34.386
34.348
34.309
34.268
34.226
34.181
34.133
34.083
34.032
33.98
33.927
33.873
33.819
33.764
33.71
33.656
33.603
33.55
33.498
33.447
33.397
33.349
33.302
33.257
33.212
33.169
33.127
33.088
33.05
33.014
32.98
32.947
32.915
32.885
32.856
32.829
32.804
32.78
32.758
32.736
32.714
32.691
32.668
32.643
32.617
32.591
32.564
32.538
32.513
32.49
32.472
32.458
32.453
32.458
32.474
32.506
32.554
32.622
32.711
32.822
32.954
33.106
33.277
33.464
33.666
33.882
34.112
34.358
34.622
34.906
35.215
35.549
35.908
36.288
36.681
37.08
37.475
37.855
38.21
38.531
38.81
39.042
39.224
39.353
39.431
39.459
39.443
39.388
39.3
39.183
39.045
38.891
38.726
38.556
38.385
38.217
38.057
37.906
37.765
37.633
37.511
37.395
37.285
37.178
37.075
36.974
36.878
36.786
36.698
36.612
36.528
36.445
36.361
36.277
36.192
36.108
36.025
35.943
35.863
35.786
35.713
35.645
35.583
35.525
35.471
35.421
35.375
35.333
35.296
35.265
35.24
35.222
35.211
35.205
35.203
35.204
35.208
35.211
35.215
35.218
35.222
35.225
35.229
35.234
35.24
35.247
35.252
35.255
35.253
35.244
35.23
35.21
35.186
35.157
35.126
35.091
35.054
35.012
34.967
34.919
34.869
34.818
34.765
34.712
34.659
34.609
34.56
34.511
34.463
34.415
34.367
34.319
34.271
34.222
34.173
34.124
34.074
34.023
33.972
33.92
33.869
33.818
33.768
33.721
33.675
33.631
33.587
33.545
33.504
33.464
33.425
33.387
33.351
33.316
33.283
33.251
33.221
33.19
33.16
33.13
33.1
33.068
33.036
33.004
32.973
32.941
32.909
32.878
32.847
32.817
32.787
32.759
32.731
32.703
32.675
32.647
32.62
32.594
32.572
32.556
32.548
32.551
32.567
32.599
32.65
32.721
32.813
32.927
33.063
33.219
33.396
33.591
33.803
34.029
34.268
34.516
34.775
35.044
35.323
35.612
35.912
36.221
36.538
36.858
37.176
37.484
37.778
38.049
38.29
38.496
38.662
38.786
38.868
38.909
38.911
38.878
38.814
38.725
38.614
38.489
38.352
38.208
38.061
37.913
37.768
37.628
37.493
37.366
37.246
37.132
37.025
36.923
36.827
36.735
36.645
36.557
36.47
36.384
36.299
36.215
36.133
36.052
35.972
35.893
35.815
35.738
35.664
35.594
35.528
35.465
35.408
35.355
35.307
35.264
35.231
35.207
35.194
35.189
35.19
35.194
35.2
35.207
35.213
35.216
35.216
35.214
35.209
35.202
35.193
35.181
35.167
35.152
35.135
35.116
35.096
35.074
35.051
35.026
34.999
34.97
34.941
34.912
34.882
34.852
34.822
34.793
34.764
34.734
34.703
34.669
34.632
34.594
34.553
34.511
34.469
34.427
34.386
34.345
34.305
34.264
34.223
34.181
34.137
34.091
34.044
33.996
33.948
33.902
33.856
33.81
33.765
33.72
33.676
33.632
33.591
33.551
33.513
33.475
33.437
33.397
33.356
33.313
33.27
33.226
33.183
33.141
33.101
33.062
33.026
32.991
32.958
32.925
32.893
32.863
32.834
32.81
32.79
32.772
32.757
32.744
32.732
32.721
32.713
32.71
32.716
32.732
32.76
32.802
32.86
32.937
33.032
33.146
33.28
33.434
33.611
33.811
34.036
34.287
34.57
34.887
35.241
35.631
36.055
36.508
36.981
37.464
37.943
38.407
38.844
39.244
39.597
39.896
40.137
40.315
40.432
40.489
40.489
40.438
40.344
40.213
40.053
39.873
39.68
39.48
39.28
39.083
38.892
38.71
38.538
38.377
38.226
38.086
37.956
37.835
37.723
37.617
37.516
37.42
37.326
37.235
37.144
37.052
36.959
36.863
36.764
36.664
36.563
36.461
36.358
36.257
36.157
36.059
35.964
35.875
35.793
35.719
35.654
35.599
35.553
35.516
35.485
35.46
35.439
35.423
35.409
35.398
35.39
35.384
35.379
35.375
35.371
35.367
35.362
35.358
35.352
35.344
35.333
35.319
35.302
35.281
35.256
35.228
35.197
35.162
35.124
35.083
35.041
34.997
34.953
34.906
34.858
34.808
34.758
34.709
34.66
34.611
34.563
34.516
34.47
34.425
34.38
34.337
34.294
34.25
34.206
34.163
34.119
34.077
34.034
33.991
33.947
33.903
33.858
33.812
33.767
33.721
33.677
33.633
33.591
33.549
33.508
33.467
33.426
33.385
33.343
33.301
33.26
33.217
33.174
33.131
33.088
33.046
33.005
32.969
32.936
32.907
32.882
32.858
32.836
32.814
32.793
32.772
32.749
32.724
32.697
32.668
32.637
32.608
32.58
32.555
32.538
32.529
32.533
32.551
32.586
32.641
32.716
32.814
32.936
33.084
33.258
33.458
33.686
33.942
34.23
34.554
34.918
35.32
35.761
36.234
36.731
37.242
37.756
38.259
38.741
39.191
39.597
39.952
40.248
40.482
40.651
40.756
40.799
40.785
40.722
40.616
40.476
40.31
40.127
39.933
39.734
39.537
39.344
39.159
38.984
38.82
38.667
38.523
38.387
38.259
38.139
38.026
37.92
37.819
37.724
37.632
37.542
37.452
37.361
37.268
37.173
37.076
36.979
36.882
36.784
36.685
36.587
36.489
36.393
36.299
36.208
36.121
36.037
35.958
35.885
35.818
35.759
35.708
35.664
35.626
35.592
35.562
35.534
35.509
35.486
35.467
35.451
35.437
35.428
35.421
35.417
35.412
35.407
35.4
35.391
35.378
35.361
35.342
35.321
35.298
35.275
35.25
35.224
35.197
35.167
35.136
35.102
35.066
35.03
34.993
34.957
34.922
34.886
34.85
34.814
34.775
34.734
34.691
34.645
34.597
34.547
34.494
34.442
34.389
34.336
34.285
34.233
34.182
34.132
34.082
34.032
33.983
33.935
33.886
33.835
33.782
33.727
33.67
33.613
33.555
33.497
33.441
33.386
33.335
33.288
33.244
33.204
33.168
33.135
33.105
33.077
33.051
33.026
33.001
32.976
32.95
32.923
32.896
32.868
32.839
32.81
32.78
32.751
32.723
32.695
32.667
32.641
32.616
32.594
32.577
32.565
32.559
32.563
32.578
32.607
32.654
32.72
32.806
32.911
33.036
33.182
33.349
33.539
33.752
33.99
34.258
34.559
34.899
35.279
35.698
36.153
36.635
37.135
37.639
38.134
38.607
39.047
39.442
39.784
40.067
40.288
40.447
40.546
40.587
40.576
40.519
40.423
40.293
40.138
39.964
39.779
39.588
39.396
39.207
39.025
38.852
38.69
38.539
38.398
38.266
38.144
38.028
37.918
37.812
37.709
37.608
37.51
37.412
37.314
37.217
37.12
37.025
36.931
36.838
36.746
36.654
36.563
36.472
36.382
36.295
36.211
36.131
36.055
35.983
35.917
35.856
35.803
35.755
35.713
35.676
35.645
35.618
35.596
35.577
35.562
35.551
35.541
35.534
35.527
35.519
35.51
35.499
35.485
35.47
35.453
35.435
35.417
35.398
35.379
35.361
35.342
35.321
35.298
35.272
35.242
35.21
35.175
35.137
35.097
35.055
35.01
34.963
34.913
34.861
34.807
34.751
34.696
34.64
34.586
34.532
34.479
34.425
34.369
34.311
34.251
34.19
34.129
34.069
34.012
33.958
33.906
33.856
33.809
33.762
33.717
33.672
33.627
33.584
33.543
33.504
33.468
33.432
33.395
33.359
33.321
33.283
33.244
33.207
33.171
33.137
33.103
33.071
33.04
33.01
32.98
32.95
32.921
32.892
32.864
32.836
32.806
32.774
32.74
32.704
32.666
32.627
32.589
32.552
32.517
32.484
32.453
32.426
32.406
32.393
32.39
32.398
32.421
32.459
32.516
32.593
32.691
32.81
32.953
33.119
33.309
33.526
33.771
34.049
34.364
34.72
35.12
35.562
36.042
36.553
37.083
37.62
38.148
38.654
39.124
39.548
39.918
40.228
40.476
40.658
40.776
40.833
40.835
40.787
40.697
40.571
40.416
40.238
40.044
39.841
39.634
39.428
39.229
39.038
38.857
38.688
38.53
38.384
38.249
38.125
38.009
37.899
37.794
37.691
37.59
37.49
37.39
37.289
37.186
37.081
36.973
36.863
36.751
36.639
36.526
36.414
36.303
36.195
36.091
35.992
35.898
35.812
35.734
35.665
35.605
35.554
35.512
35.478
35.452
35.432
35.418
35.411
35.41
35.414
35.42
35.425
35.43
35.433
35.434
35.434
35.431
35.424
35.414
35.399
35.38
35.357
35.332
35.305
35.276
35.245
35.212
35.176
35.138
35.099
35.059
35.019
34.979
34.939
34.9
34.86
34.821
34.782
34.742
34.701
34.657
34.611
34.564
34.515
34.466
34.416
34.365
34.314
34.263
34.211
34.157
34.103
34.047
33.99
33.932
33.875
33.818
33.765
33.713
33.664
33.617
33.572
33.528
33.484
33.439
33.394
33.35
33.307
33.265
33.223
33.182
33.141
33.102
33.064
33.028
32.994
32.963
32.935
32.908
32.881
32.854
32.828
32.8
32.772
32.744
32.716
32.69
32.665
32.641
32.616
32.591
32.564
32.537
32.508
32.479
32.452
32.428
32.406
32.388
32.374
32.366
32.366
32.377
32.4
32.44
32.497
32.574
32.671
32.789
32.93
33.093
33.279
33.491
33.732
34.009
34.328
34.692
35.104
35.56
36.054
36.574
37.108
37.641
38.158
38.647
39.095
39.494
39.833
40.108
40.317
40.461
40.541
40.564
40.534
40.459
40.347
40.204
40.036
39.85
39.653
39.45
39.246
39.044
38.848
38.661
38.484
38.319
38.166
38.023
37.892
37.769
37.654
37.545
37.44
37.339
37.239
37.14
37.042
36.945
36.848
36.751
36.654
36.555
36.456
36.355
36.253
36.153
36.053
35.957
35.865
35.776
35.692
35.613
35.541
35.476
35.419
35.369
35.325
35.289
35.258
35.235
35.219
35.21
35.208
35.211
35.22
35.231
35.245
35.261
35.278
35.294
35.309
35.32
35.326
35.328
35.324
35.315
35.301
35.281
35.257
35.23
35.198
35.162
35.123
35.082
35.038
34.992
34.945
34.898
34.851
34.802
34.753
34.703
34.653
34.603
34.554
34.505
34.455
34.405
34.355
34.306
34.259
34.214
34.17
34.126
34.082
34.038
33.995
33.951
33.908
33.863
33.818
33.771
33.723
33.675
33.626
33.578
33.53
33.482
33.435
33.39
33.346
33.306
33.268
33.233
33.2
33.168
33.137
33.108
33.08
33.052
33.024
32.996
32.969
32.94
32.905
32.863
32.814
32.76
32.703
32.647
32.592
32.54
32.492
32.45
32.412
32.381
32.356
32.337
32.324
32.319
32.323
32.338
32.365
32.405
32.461
32.534
32.625
32.734
32.862
33.011
33.179
33.368
33.575
33.798
34.035
34.286
34.548
34.821
35.106
35.404
35.716
36.043
36.381
36.728
37.076
37.418
37.746
38.052
38.327
38.566
38.764
38.917
39.023
39.082
39.097
39.072
39.012
38.923
38.811
38.682
38.541
38.393
38.242
38.09
37.942
37.798
37.661
37.531
37.409
37.296
37.19
37.092
36.999
36.91
36.824
36.739
36.654
36.567
36.479
36.389
36.298
36.207
36.117
36.028
35.94
35.851
35.761
35.671
35.582
35.498
35.419
35.347
35.283
35.228
35.183
35.147
35.119
35.1
35.086
35.079
35.077
35.079
35.085
35.093
35.104
35.116
35.129
35.141
35.152
35.16
35.166
35.17
35.171
35.169
35.166
35.161
35.154
35.144
35.131
35.114
35.094
35.07
35.042
35.012
34.98
34.943
34.905
34.864
34.823
34.781
34.738
34.693
34.648
34.602
34.555
34.509
34.463
34.419
34.376
34.332
34.287
34.242
34.197
34.154
34.112
34.071
34.032
33.994
33.958
33.923
33.888
33.853
33.819
33.784
33.748
33.713
33.678
33.642
33.606
33.568
33.529
33.489
33.45
33.411
33.37
33.327
33.282
33.235
33.188
33.14
33.092
33.044
32.999
32.955
32.913
32.875
32.838
32.804
32.772
32.74
32.709
32.678
32.647
32.616
32.586
32.559
32.536
32.521
32.515
32.522
32.544
32.582
32.64
32.719
32.819
32.942
33.087
33.255
33.443
33.651
33.878
34.123
34.387
34.668
34.967
35.287
35.627
35.986
36.364
36.754
37.151
37.544
37.923
38.28
38.605
38.893
39.137
39.333
39.48
39.576
39.623
39.624
39.584
39.506
39.398
39.266
39.114
38.95
38.777
38.6
38.424
38.253
38.087
37.93
37.78
37.638
37.505
37.381
37.264
37.156
37.055
36.96
36.868
36.779
36.692
36.605
36.518
36.43
36.34
36.25
36.159
36.069
35.979
35.891
35.805
35.722
35.643
35.568
35.499
35.437
35.382
35.335
35.295
35.261
35.233
35.211
35.193
35.179
35.168
35.16
35.155
35.153
35.153
35.154
35.156
35.158
35.161
35.162
35.162
35.162
35.16
35.157
35.154
35.149
35.142
35.132
35.119
35.1
35.076
35.048
35.017
34.983
34.947
34.909
34.87
34.828
34.786
34.742
34.697
34.652
34.607
34.562
34.52
34.479
34.44
34.404
34.368
34.331
34.292
34.251
34.207
34.162
34.115
34.07
34.027
33.986
33.945
33.904
33.862
33.818
33.772
33.725
33.676
33.628
33.579
33.532
33.485
33.439
33.395
33.353
33.312
33.272
33.233
33.196
33.161
33.127
33.093
33.06
33.026
32.992
32.958
32.924
32.892
32.86
32.831
32.802
32.773
32.744
32.715
32.685
32.655
32.625
32.598
32.575
32.559
32.552
32.556
32.575
32.609
32.661
32.732
32.824
32.938
33.075
33.235
33.416
33.62
33.847
34.099
34.377
34.685
35.025
35.402
35.813
36.255
36.721
37.202
37.688
38.167
38.625
39.05
39.433
39.766
40.041
40.255
40.406
40.495
40.526
40.506
40.441
40.337
40.201
40.041
39.863
39.672
39.475
39.278
39.084
38.899
38.724
38.559
38.406
38.265
38.134
38.014
37.902
37.798
37.7
37.605
37.512
37.418
37.323
37.226
37.126
37.024
36.92
36.816
36.712
36.609
36.508
36.41
36.315
36.224
36.137
36.055
35.978
35.907
35.842
35.783
35.73
35.683
35.643
35.61
35.582
35.559
35.54
35.524
35.512
35.504
35.498
35.496
35.495
35.494
35.494
35.492
35.49
35.486
35.482
35.476
35.468
35.456
35.443
35.427
35.408
35.386
35.361
35.332
35.301
35.268
35.233
35.195
35.152
35.104
35.051
34.994
34.935
34.876
34.817
34.76
34.704
34.651
34.6
34.553
34.509
34.468
34.428
34.39
34.352
34.314
34.275
34.234
34.191
34.146
34.098
34.05
34.001
33.953
33.904
33.854
33.804
33.754
33.705
33.657
33.612
33.569
33.527
33.486
33.446
33.406
33.368
33.333
33.3
33.269
33.24
33.212
33.186
33.16
33.134
33.106
33.075
33.042
33.007
32.97
32.933
32.895
32.858
32.822
32.785
32.748
32.713
32.68
32.65
32.624
32.602
32.586
32.576
32.573
32.58
32.598
32.63
32.679
32.747
32.836
32.948
33.085
33.245
33.427
33.63
33.853
34.089
34.337
34.602
34.892
35.214
35.573
35.969
36.398
36.854
37.326
37.8
38.265
38.707
39.114
39.476
39.785
40.034
40.223
40.35
40.42
40.436
40.404
40.33
40.22
40.083
39.924
39.749
39.564
39.373
39.181
38.993
38.812
38.641
38.481
38.334
38.199
38.077
37.966
37.863
37.767
37.675
37.586
37.495
37.403
37.308
37.212
37.114
37.015
36.916
36.817
36.72
36.623
36.528
36.435
36.346
36.262
36.182
36.108
36.039
35.975
35.916
35.861
35.809
35.763
35.721
35.684
35.653
35.626
35.604
35.585
35.57
35.558
35.547
35.54
35.534
35.532
35.531
35.53
35.53
35.529
35.528
35.526
35.521
35.512
35.498
35.479
35.455
35.427
35.396
35.362
35.326
35.287
35.248
35.208
35.168
35.127
35.086
35.044
35.001
34.956
34.911
34.865
34.819
34.775
34.731
34.686
34.641
34.596
34.552
34.508
34.465
34.422
34.378
34.334
34.29
34.244
34.196
34.147
34.095
34.04
33.982
33.922
33.862
33.802
33.744
33.688
33.635
33.584
33.537
33.491
33.447
33.404
33.363
33.323
33.284
33.247
33.21
33.175
33.14
33.107
33.074
33.042
33.011
32.982
32.954
32.927
32.902
32.878
32.853
32.828
32.801
32.774
32.747
32.721
32.695
32.671
32.647
32.625
32.606
32.59
32.58
32.579
32.589
32.612
32.651
32.708
32.785
32.884
33.006
33.148
33.312
33.497
33.703
33.932
34.186
34.469
34.784
35.135
35.524
35.948
36.402
36.878
37.365
37.851
38.323
