Trial 1:0back
34.443
34.397
34.352
34.309
34.268
34.228
34.189
34.15
34.112
34.073
34.034
33.995
33.956
33.916
33.877
33.839
33.801
33.765
33.729
33.694
33.66
33.626
33.593
33.561
33.53
33.499
33.468
33.436
33.405
33.373
33.342
33.313
33.286
33.263
33.246
33.236
33.238
33.253
33.285
33.336
33.409
33.504
33.625
33.771
33.943
34.14
34.36
34.601
34.862
35.138
35.426
35.722
36.022
36.321
36.615
36.901
37.175
37.433
37.674
37.896
38.097
38.276
38.434
38.571
38.687
38.784
38.861
38.92
38.962
38.987
38.999
38.997
38.983
38.958
38.924
38.882
38.832
38.776
38.713
38.645
38.573
38.496
38.418
38.337
38.255
38.173
38.092
38.011
37.932
37.853
37.776
37.699
37.623
37.548
37.474
37.399
37.324
37.249
37.173
37.098
37.024
36.95
36.877
36.806
36.735
36.667
36.601
36.538
36.478
36.422
36.371
36.325
36.285
36.251
36.223
36.202
36.187
36.177
36.173
36.173
36.178
36.186
36.196
36.209
36.224
36.24
36.258
36.277
36.296
36.315
36.335
36.353
36.37
36.385
36.398
36.407
36.412
36.414
36.411
36.404
36.393
36.377
36.358
36.335
36.308
36.277
36.243
36.207
36.168
36.127
36.084
36.039
35.993
35.946
35.898
35.849
35.797
35.745
35.691
35.636
35.58
35.524
35.468
35.411
35.356
35.301
35.247
35.194
35.143
35.093
35.043
34.995
34.947
34.901
34.855
34.81
34.766
34.723
34.68
34.638
34.597
34.557
34.517
34.477
34.436
34.396
34.354
34.312
34.27
34.227
34.183
34.139
34.096
34.053
34.01
33.969
33.929
33.89
33.853
33.817
33.783
33.75
33.72
33.69
33.662
33.635
33.609
33.584
33.561
33.54
33.523
33.51
33.505
33.509
33.526
33.558
33.609
33.68
33.774
33.893
34.039
34.21
34.406
34.624
34.863
35.12
35.39
35.671
35.958
36.248
36.536
36.818
37.091
37.351
37.596
37.824
38.033
38.223
38.392
38.542
38.673
38.784
38.877
38.95
39.007
39.047
39.071
39.08
39.076
39.06
39.033
38.996
38.951
38.898
38.839
38.774
38.705
38.632
38.555
38.475
38.392
38.306
38.219
38.131
38.042
37.952
37.863
37.775
37.687
37.6
37.515
37.43
37.346
37.264
37.183
37.103
37.024
36.946
36.868
36.792
36.717
36.644
36.573
36.504
36.439
36.379
36.322
36.271
36.226
36.186
36.152
36.124
36.102
36.086
36.076
36.07
36.07
36.074
36.082
36.094
36.108
36.125
36.143
36.161
36.18
36.199
36.216
36.231
36.245
36.257
36.266
36.272
36.276
36.276
36.272
36.264
36.252
36.235
36.213
36.187
36.157
36.124
36.087
36.047
36.004
35.959
35.913
35.866
35.817
35.767
35.715
35.663
35.611
35.558
35.506
35.454
35.402
35.35
35.299
35.248
35.197
35.147
35.097
35.047
34.996
34.944
34.891
34.838
34.785
34.732
34.68
34.629
34.578
34.529
34.482
34.435
34.39
34.345
34.301
34.258
34.215
34.171
34.128
34.084
34.039
33.994
33.948
33.903
33.857
33.811
33.767
33.724
33.682
33.642
33.604
33.568
33.533
33.5
33.466
33.434
33.401
33.368
33.335
33.301
33.267
33.234
33.201
33.169
33.14
33.114
33.092
33.075
33.067
33.068
33.082
33.113
33.163
33.234
33.33
33.452
33.601
33.778
33.981
34.209
34.46
34.731
35.019
35.32
35.631
35.946
36.263
36.576
36.882
37.178
37.461
37.727
37.976
38.207
38.417
38.606
38.773
38.919
39.043
39.146
39.229
39.292
39.337
39.365
39.378
39.377
39.363
39.338
39.302
39.257
39.204
39.143
39.076
39.004
38.929
38.85
38.768
38.684
38.6
38.514
38.429
38.343
38.259
38.176
38.094
38.013
37.934
37.857
37.782
37.709
37.637
37.566
37.496
37.426
37.357
37.288
37.218
37.149
37.081
37.013
36.947
36.883
36.821
36.762
36.707
36.656
36.611
36.57
36.535
36.505
36.479
36.459
36.442
36.429
36.42
36.413
36.41
36.409
36.41
36.414
36.419
36.426
36.434
36.442
36.451
36.459
36.466
36.471
36.475
36.476
36.475
36.471
36.463
36.451
36.434
36.414
36.389
36.361
36.329
36.295
36.259
36.221
36.181
36.14
36.096
36.052
36.005
35.956
35.906
35.854
35.8
35.744
35.686
35.628
35.568
35.509
35.449
35.39
35.331
35.273
35.215
35.158
35.101
35.046
34.991
34.936
34.881
34.826
34.77
34.715
34.659
34.603
34.547
34.491
34.435
34.379
34.324
34.27
34.218
34.168
34.12
34.075
34.031
33.99
33.95
33.912
33.875
33.838
33.801
33.764
33.726
33.688
33.649
33.609
33.569
33.53
33.49
33.451
33.412
33.373
33.337
33.304
33.276
33.254
33.242
33.243
33.258
33.293
33.348
33.426
33.53
33.66
33.815
33.997
34.202
34.431
34.68
34.947
35.229
35.523
35.823
36.127
36.43
36.729
37.02
37.3
37.566
37.816
38.048
38.261
38.453
38.624
38.773
38.901
39.007
39.093
39.158
39.205
39.234
39.247
39.246
39.232
39.208
39.173
39.13
39.079
39.022
38.959
38.892
38.821
38.747
38.67
38.59
38.508
38.423
38.336
38.248
38.158
38.069
37.98
37.892
37.806
37.721
37.638
37.557
37.477
37.398
37.319
37.24
37.162
37.082
37.003
36.925
36.847
36.77
36.696
36.624
36.556
36.49
36.429
36.372
36.32
36.274
36.234
36.2
36.172
36.15
36.134
36.123
36.116
36.113
36.112
36.113
36.116
36.12
36.125
36.13
36.135
36.139
36.144
36.147
36.15
36.151
36.15
36.147
36.141
36.133
36.121
36.106
36.088
36.067
36.042
36.015
35.986
35.953
35.919
35.883
35.844
35.803
35.76
35.716
35.669
35.621
35.572
35.52
35.468
35.414
35.36
35.304
35.248
35.192
35.135
35.079
35.023
34.967
34.911
34.855
34.8
34.745
34.691
34.638
34.585
34.532
34.479
34.424
34.369
34.313
34.257
34.201
34.146
34.091
34.037
33.984
33.933
33.882
33.834
33.788
33.745
33.704
33.664
33.625
33.588
33.552
33.517
33.481
33.446
33.409
33.372
33.333
33.294
33.253
33.213
33.172
33.131
33.091
33.054
33.022
32.995
32.978
32.971
32.979
33.004
33.05
33.118
33.212
33.333
33.483
33.659
33.863
34.091
34.341
34.612
34.898
35.196
35.503
35.814
36.125
36.432
36.731
37.019
37.292
37.548
37.786
38.003
38.199
38.373
38.524
38.653
38.759
38.844
38.907
38.952
38.978
38.988
38.983
38.964
38.933
38.891
38.84
38.781
38.714
38.641
38.563
38.48
38.394
38.305
38.213
38.12
38.027
37.934
37.841
37.749
37.659
37.571
37.485
37.4
37.317
37.236
37.154
37.074
36.994
36.913
36.833
36.752
36.671
36.589
36.508
36.428
36.35
36.275
36.203
36.136
36.072
36.014
35.962
35.915
35.873
35.838
35.808
35.782
35.762
35.746
35.734
35.726
35.721
35.72
35.721
35.725
35.732
35.74
35.749
35.76
35.77
35.78
35.789
35.798
35.805
35.809
35.811
35.811
35.807
35.801
35.791
35.776
35.758
35.735
35.708
35.677
35.643
35.606
35.566
35.525
35.483
35.439
35.394
35.347
35.3
35.252
35.204
35.154
35.104
35.052
35.0
34.946
34.891
34.834
34.776
34.718
34.658
34.599
34.54
34.482
34.424
34.367
34.311
34.257
34.203
34.151
34.1
34.05
34.001
33.953
33.905
33.858
33.811
33.764
33.718
33.672
33.626
33.581
33.537
33.494
33.452
33.41
33.368
33.326
33.285
33.243
33.202
33.16
33.119
33.077
33.036
32.995
32.955
32.915
32.877
32.842
32.809
32.781
32.758
32.742
32.737
32.744
32.766
32.805
32.865
32.946
33.052
33.184
33.341
33.525
33.733
33.964
34.217
34.487
34.773
35.07
35.375
35.683
35.991
36.295
36.59
36.873
37.14
37.389
37.618
37.824
38.006
38.165
38.301
38.413
38.504
38.574
38.624
38.656
38.671
38.669
38.654
38.627
38.589
38.543
38.488
38.427
38.361
38.289
38.213
38.133
38.051
37.967
37.881
37.794
37.707
37.619
37.532
37.446
37.361
37.277
37.194
37.111
37.029
36.947
36.864
36.782
36.699
36.617
36.534
36.452
36.371
36.291
36.213
36.137
36.064
35.993
35.927
35.864
35.807
35.755
35.709
35.668
35.633
35.604
35.581
35.563
35.551
35.544
35.542
35.545
35.551
35.561
35.574
35.588
35.604
35.62
35.637
35.652
35.665
35.676
35.684
35.689
35.691
35.689
35.684
35.676
35.664
35.649
35.63
35.608
35.583
35.554
35.522
35.487
35.45
35.411
35.37
35.326
35.281
35.233
35.184
35.133
35.081
35.027
34.973
34.917
34.861
34.805
34.748
34.692
34.636
34.58
34.524
34.468
34.413
34.358
34.305
34.252
34.201
34.15
34.101
34.052
34.004
33.957
33.91
33.863
33.818
33.773
33.728
33.684
33.639
33.593
33.547
33.5
33.453
33.406
33.36
33.315
33.27
33.227
33.186
33.146
33.108
33.071
33.037
33.005
32.973
32.943
32.914
32.885
32.856
32.828
32.799
32.771
32.745
32.722
32.704
32.694
32.694
32.707
32.736
32.784
32.855
32.951
33.074
33.223
33.401
33.604
33.832
34.082
34.352
34.637
34.936
35.243
35.556
35.87
36.18
36.482
36.773
37.049
37.307
37.545
37.76
37.953
38.122
38.268
38.39
38.489
38.567
38.626
38.666
38.688
38.695
38.687
38.665
38.63
38.585
38.53
38.466
38.396
38.32
38.24
38.157
38.072
37.987
37.901
37.814
37.729
37.643
37.559
37.475
37.393
37.313
37.233
37.154
37.076
36.998
36.922
36.847
36.774
36.701
36.63
36.559
36.489
36.419
36.35
36.281
36.212
36.145
36.078
36.014
35.953
35.895
35.841
35.791
35.746
35.707
35.673
35.645
35.623
35.607
35.597
35.592
35.592
35.596
35.604
35.615
35.627
35.641
35.655
35.67
35.684
35.697
35.708
35.717
35.722
35.724
35.721
35.714
35.703
35.687
35.667
35.644
35.616
35.585
35.551
35.513
35.473
35.431
35.388
35.345
35.3
35.254
35.208
35.16
35.112
35.063
35.014
34.964
34.913
34.863
34.812
34.761
34.711
34.66
34.609
34.557
34.504
34.451
34.398
34.344
34.29
34.236
34.182
34.128
34.076
34.024
33.974
33.924
33.876
33.829
33.782
33.735
33.689
33.643
33.597
33.551
33.506
33.462
33.417
33.374
33.331
33.289
33.248
33.207
33.167
33.127
33.088
33.049
33.011
32.974
32.938
32.902
32.867
32.833
32.8
32.77
32.744
32.723
32.71
32.707
32.717
32.743
32.787
32.854
32.943
33.058
33.198
33.363
33.553
33.766
34.0
34.252
34.52
34.8
35.089
35.382
35.677
35.969
36.254
36.529
36.791
37.037
37.264
37.471
37.655
37.816
37.952
38.066
38.156
38.223
38.271
38.299
38.311
38.307
38.289
38.259
38.219
38.169
38.112
38.047
37.977
37.902
37.823
37.741
37.656
37.569
37.482
37.394
37.307
37.221
37.137
37.055
36.974
36.895
36.817
36.741
36.666
36.591
36.518
36.444
36.371
36.298
36.224
36.151
36.078
36.006
35.934
35.864
35.796
35.731
35.668
35.609
35.554
35.503
35.457
35.415
35.379
35.348
35.323
35.303
35.288
35.279
35.274
35.272
35.274
35.278
35.285
35.295
35.306
35.318
35.332
35.345
35.358
35.37
35.381
35.39
35.398
35.403
35.405
35.405
35.402
35.395
35.384
35.368
35.349
35.326
35.299
35.27
35.237
35.201
35.163
35.121
35.078
35.032
34.984
34.935
34.883
34.83
34.776
34.721
34.667
34.614
34.561
34.509
34.459
34.409
34.361
34.313
34.267
34.222
34.176
34.131
34.085
34.039
33.993
33.947
33.902
33.858
33.814
33.771
33.729
33.688
33.647
33.607
33.567
33.528
33.488
33.448
33.409
33.369
33.328
33.288
33.247
33.206
33.165
33.124
33.083
33.044
33.005
32.967
32.929
32.893
32.857
32.822
32.789
32.757
32.728
32.703
32.684
32.672
32.67
32.681
32.707
32.751
32.817
32.905
33.017
33.156
33.319
33.508
33.72
33.953
34.203
34.468
34.743
35.026
35.311
35.595
35.874
36.146
36.406
36.653
36.884
37.097
37.29
37.462
37.613
37.741
37.847
37.93
37.992
38.033
38.054
38.058
38.045
38.018
37.98
37.931
37.875
37.812
37.743
37.67
37.593
37.513
37.432
37.35
37.266
37.182
37.096
37.011
36.925
36.839
36.754
36.671
36.588
36.507
36.426
36.348
36.27
36.194
36.12
36.047
35.976
35.905
35.835
35.766
35.697
35.629
35.563
35.498
35.436
35.378
35.325
35.276
35.233
35.197
35.166
35.142
35.125
35.113
35.106
35.103
35.105
35.11
35.117
35.127
35.138
35.15
35.163
35.177
35.19
35.202
35.213
35.222
35.23
35.235
35.237
35.237
35.235
35.229
35.22
35.209
35.194
35.176
35.156
35.133
35.108
35.081
35.051
35.019
34.985
34.949
34.91
34.869
34.825
34.78
34.733
34.684
34.635
34.584
34.533
34.482
34.432
34.382
34.332
34.282
34.234
34.186
34.138
34.091
34.045
33.998
33.952
33.906
33.86
33.814
33.768
33.722
33.676
33.631
33.585
33.539
33.494
33.449
33.404
33.36
33.318
33.277
33.237
33.199
33.162
33.126
33.091
33.056
33.022
32.989
32.955
32.922
32.887
32.852
32.817
32.78
32.744
32.707
32.67
32.635
32.602
32.573
32.548
32.53
32.521
32.523
32.539
32.571
32.623
32.697
32.794
32.917
33.064
33.236
33.432
33.65
33.887
34.141
34.409
34.686
34.968
35.251
35.532
35.807
36.072
36.323
36.559
36.777
36.976
37.153
37.308
37.442
37.554
37.645
37.716
37.767
37.801
37.818
37.819
37.807
37.782
37.745
37.699
37.643
37.579
37.509
37.433
37.352
37.269
37.183
37.096
37.009
36.922
36.836
36.751
36.667
36.585
36.505
36.426
36.349
36.273
36.199
36.126
36.053
35.981
35.909
35.837
35.764
35.693
35.622
35.552
35.483
35.417
35.354
35.295
35.24
35.189
35.143
35.102
35.067
35.036
35.011
34.991
34.977
34.968
34.965
34.967
34.974
34.984
34.998
35.014
35.032
35.051
35.07
35.089
35.106
35.123
35.138
35.151
35.163
35.173
35.181
35.187
35.191
35.193
35.191
35.188
35.181
35.171
35.159
35.144
35.125
35.104
35.08
35.052
35.022
34.989
34.954
34.917
34.879
34.838
34.797
34.755
34.712
34.669
34.626
34.582
34.538
34.495
34.451
34.407
34.364
34.319
34.275
34.23
34.185
34.141
34.096
34.051
34.006
33.96
33.915
33.868
33.822
33.776
33.729
33.683
33.638
33.594
33.55
33.507
33.466
33.426
33.387
33.35
33.314
33.278
33.243
33.208
33.173
33.138
33.102
33.067
33.033
32.998
32.965
32.933
32.904
32.88
32.861
32.849
32.847
32.857
32.881
32.92
32.978
33.056
33.155
33.277
33.421
33.587
33.776
33.984
34.21
34.452
34.706
34.968
35.236
35.505
35.772
36.034
36.286
36.526
36.75
36.958
37.146
37.314
37.461
37.587
37.692
37.777
37.843
37.89
37.919
37.933
37.931
37.917
37.891
37.855
37.809
37.756
37.695
37.629
37.557
37.48
37.4
37.318
37.233
37.146
37.058
36.969
36.88
36.79
36.701
36.613
36.527
36.442
36.36
36.279
36.2
36.123
36.047
35.973
35.899
35.827
35.756
35.686
35.617
35.55
35.485
35.422
35.363
35.307
35.256
35.209
35.168
35.133
35.104
35.082
35.067
35.059
35.057
35.062
35.072
35.086
35.104
35.126
35.149
35.174
35.2
35.225
35.25
35.274
35.296
35.316
35.334
35.348
35.359
35.365
35.368
35.367
35.361
35.352
35.339
35.323
35.303
35.28
35.255
35.227
35.196
35.163
35.128
35.091
35.053
35.015
34.975
34.933
34.891
34.846
34.801
34.754
34.706
34.657
34.607
34.557
34.507
34.456
34.406
34.355
34.303
34.252
34.201
34.151
34.101
34.053
34.006
33.96
33.917
33.875
33.835
33.796
33.757
33.72
33.682
33.644
33.607
33.57
33.533
33.496
33.46
33.424
33.389
33.355
33.321
33.287
33.253
33.22
33.187
33.153
33.12
33.087
33.053
33.02
32.986
32.953
32.919
32.887
32.855
32.827
32.802
32.784
32.774
32.775
32.789
32.82
32.87
32.941
33.035
33.153
33.297
33.466
33.659
33.875
34.112
34.366
34.634
34.913
35.2
35.49
35.78
36.067
36.345
36.613
36.867
37.106
37.325
37.526
37.705
37.863
37.999
38.114
38.208
38.282
38.336
38.371
38.39
38.392
38.381
38.356
38.321
38.276
38.222
38.163
38.097
38.026
37.95
37.871
37.79
37.708
37.625
37.542
37.46
37.38
37.301
37.224
37.148
37.075
37.004
36.935
36.868
36.802
36.737
36.673
36.61
36.547
36.485
36.423
36.361
36.299
36.237
36.175
36.114
36.055
35.997
35.943
35.892
35.844
35.801
35.763
35.73
35.702
35.678
35.66
35.647
35.639
35.635
35.634
35.637
35.642
35.65
35.66
35.671
35.684
35.696
35.709
35.721
35.732
35.741
35.749
35.755
35.758
35.758
35.755
35.748
35.737
35.722
35.703
35.681
35.654
35.625
35.592
35.555
35.515
35.472
35.427
35.38
35.334
35.287
35.241
35.195
35.15
35.106
35.062
35.018
34.973
34.928
34.881
34.835
34.788
34.742
34.695
34.648
34.602
34.556
34.51
34.464
34.419
34.375
34.332
34.288
34.246
34.203
34.16
34.117
34.073
34.029
33.985
33.94
33.895
33.851
33.807
33.764
33.721
33.678
33.637
33.596
33.557
33.518
33.48
33.443
33.407
33.371
33.336
33.302
33.268
33.235
33.203
33.174
33.15
33.131
33.12
33.12
33.133
33.16
33.206
33.272
33.361
33.473
33.608
33.768
33.95
34.154
34.378
34.618
34.873
35.137
35.408
35.682
35.955
36.223
36.484
36.733
36.968
37.187
37.388
37.567
37.724
37.859
37.972
38.062
38.132
38.181
38.212
38.226
38.223
38.207
38.179
38.14
38.092
38.037
37.976
37.91
37.841
37.767
37.692
37.614
37.535
37.454
37.372
37.289
37.207
37.125
37.045
36.965
36.888
36.812
36.739
36.668
36.599
36.532
36.468
36.405
36.344
36.284
36.225
36.166
36.108
36.05
35.993
35.935
35.879
35.822
35.767
35.713
35.661
35.611
35.565
35.522
35.484
35.451
35.424
35.403
35.388
35.378
35.374
35.375
35.381
35.39
35.402
35.417
35.433
35.45
35.466
35.482
35.495
35.507
35.515
35.521
35.522
35.519
35.513
35.502
35.487
35.47
35.449
35.425
35.399
35.369
35.337
35.302
35.264
35.224
35.181
35.136
35.089
35.04
34.99
34.94
34.889
34.838
34.788
34.739
34.69
34.641
34.593
34.546
34.498
34.45
34.403
34.355
34.308
34.261
34.214
34.168
34.123
34.078
34.034
33.99
33.947
33.903
33.859
33.816
33.773
33.73
33.688
33.646
33.605
33.565
33.525
33.485
33.446
33.406
33.367
33.328
33.29
33.251
33.213
33.175
33.138
33.101
33.065
33.029
32.993
32.958
32.924
32.89
32.858
32.828
32.8
32.776
32.758
32.746
32.744
32.754
32.779
32.821
32.884
32.968
33.077
33.209
33.365
33.545
33.745
33.964
34.2
34.448
34.705
34.969
35.234
35.496
35.752
35.999
36.232
36.448
36.647
36.826
36.984
37.121
37.236
37.33
37.403
37.455
37.489
37.505
37.505
37.492
37.465
37.428
37.381
37.328
37.267
37.202
37.133
37.06
36.984
36.905
36.824
36.742
36.659
36.576
36.493
36.411
36.329
36.25
36.172
36.096
36.023
35.951
35.882
35.814
35.748
35.682
35.618
35.554
35.49
35.428
35.366
35.306
35.247
35.19
35.135
35.082
35.032
34.985
34.94
34.899
34.862
34.828
34.799
34.775
34.757
34.743
34.735
34.732
34.734
34.74
34.749
34.76
34.773
34.787
34.802
34.817
34.832
34.845
34.859
34.871
34.882
34.891
34.898
34.902
34.903
34.901
34.894
34.884
34.87
34.852
34.831
34.808
34.782
34.753
34.722
34.689
34.653
34.616
34.577
34.537
34.497
34.456
34.415
34.374
34.333
34.292
34.251
34.209
34.167
34.126
34.085
34.045
34.005
33.965
33.926
33.886
33.847
33.807
33.767
33.726
33.685
33.643
33.6
33.556
33.511
33.467
33.422
33.378
33.335
33.293
33.252
33.214
33.177
33.141
33.107
33.073
33.041
33.009
32.976
32.944
32.912
32.879
32.848
32.816
32.785
32.754
32.724
32.694
32.666
32.639
32.615
32.594
32.579
32.57
32.571
32.583
32.608
32.649
32.708
32.787
32.888
33.01
33.155
33.32
33.504
33.705
33.919
34.145
34.378
34.615
34.853
35.089
35.318
35.538
35.746
35.94
36.117
36.276
36.416
36.536
36.634
36.713
36.772
36.811
36.834
36.841
36.833
36.813
36.781
36.74
36.69
36.634
36.573
36.506
36.436
36.363
36.288
36.21
36.132
36.053
35.973
35.894
35.816
35.739
35.663
35.589
35.516
35.445
35.375
35.306
35.238
35.171
35.105
35.04
34.977
34.914
34.852
34.792
34.733
34.675
34.62
34.568
34.518
34.473
34.432
34.395
34.364
34.337
34.315
34.299
34.287
34.28
34.278
34.28
34.287
34.298
34.311
34.327
34.345
34.364
34.385
34.405
34.426
34.446
34.466
34.484
34.5
34.515
34.527
34.537
34.544
34.548
34.549
34.547
34.542
34.535
34.524
34.511
34.494
34.474
34.451
34.425
34.398
34.367
34.335
