Trial 1:0back
35.997
35.981
35.962
35.94
35.914
35.886
35.856
35.824
35.789
35.753
35.716
35.678
35.641
35.604
35.568
35.532
35.497
35.461
35.425
35.389
35.353
35.318
35.285
35.253
35.222
35.192
35.162
35.133
35.105
35.078
35.052
35.029
35.007
34.986
34.969
34.954
34.942
34.934
34.929
34.928
34.929
34.933
34.939
34.947
34.957
34.969
34.982
34.997
35.013
35.03
35.047
35.063
35.079
35.095
35.109
35.122
35.133
35.142
35.149
35.154
35.156
35.156
35.154
35.151
35.146
35.14
35.132
35.124
35.114
35.103
35.09
35.076
35.062
35.046
35.031
35.015
34.999
34.981
34.961
34.941
34.919
34.897
34.876
34.855
34.835
34.816
34.796
34.776
34.756
34.736
34.716
34.695
34.674
34.651
34.627
34.601
34.576
34.55
34.524
34.499
34.475
34.452
34.43
34.408
34.387
34.366
34.346
34.328
34.311
34.296
34.282
34.269
34.259
34.25
34.244
34.242
34.241
34.242
34.244
34.246
34.249
34.253
34.259
34.267
34.277
34.289
34.304
34.32
34.339
34.362
34.388
34.418
34.454
34.496
34.546
34.602
34.665
34.736
34.813
34.896
34.984
35.075
35.167
35.26
35.351
35.44
35.525
35.606
35.681
35.75
35.813
35.87
35.918
35.959
35.991
36.014
36.029
36.037
36.037
36.031
36.021
36.006
35.988
35.967
35.944
35.92
35.895
35.869
35.842
35.814
35.785
35.755
35.724
35.691
35.658
35.625
35.593
35.561
35.529
35.498
35.466
35.432
35.398
35.362
35.327
35.291
35.255
35.219
35.182
35.144
35.105
35.065
35.024
34.986
34.951
34.92
34.893
34.87
34.851
34.836
34.825
34.818
34.814
34.814
34.816
34.822
34.829
34.839
34.85
34.863
34.877
34.892
34.908
34.923
34.936
34.947
34.956
34.962
34.967
34.972
34.976
34.98
34.982
34.983
34.983
34.982
34.98
34.979
34.977
34.974
34.97
34.963
34.956
34.946
34.936
34.925
34.912
34.899
34.884
34.867
34.848
34.825
34.802
34.777
34.752
34.728
34.705
34.683
34.662
34.641
34.622
34.604
34.587
34.572
34.557
34.543
34.529
34.515
34.502
34.488
34.475
34.461
34.449
34.437
34.425
34.414
34.403
34.392
34.381
34.37
34.358
34.345
34.332
34.317
34.302
34.287
34.272
34.257
34.242
34.228
34.216
34.204
34.194
34.185
34.177
34.17
34.164
34.159
34.155
34.152
34.15
34.148
34.144
34.14
34.134
34.126
34.118
34.109
34.1
34.09
34.079
34.068
34.058
34.048
34.04
34.034
34.031
34.029
34.03
34.033
34.039
34.048
34.062
34.082
34.108
34.14
34.178
34.222
34.272
34.328
34.391
34.46
34.536
34.616
34.701
34.788
34.878
34.969
35.06
35.151
35.241
35.33
35.415
35.495
35.569
35.635
35.694
35.743
35.785
35.819
35.845
35.864
35.876
35.88
35.878
35.871
35.858
35.842
35.821
35.796
35.768
35.737
35.703
35.668
35.632
35.595
35.558
35.522
35.487
35.453
35.42
35.387
35.356
35.327
35.298
35.27
35.243
35.214
35.184
35.152
35.118
35.083
35.047
35.012
34.977
34.944
34.911
34.88
34.85
34.822
34.797
34.775
34.755
34.739
34.726
34.717
34.713
34.712
34.715
34.723
34.735
34.751
34.769
34.791
34.813
34.837
34.86
34.882
34.903
34.922
34.94
34.956
34.971
34.983
34.993
35.0
35.005
35.007
35.009
35.01
35.012
35.013
35.014
35.015
35.016
35.016
35.017
35.017
35.017
35.016
35.014
35.009
35.001
34.991
34.979
34.965
34.95
34.933
34.914
34.892
34.869
34.846
34.822
34.799
34.777
34.757
34.738
34.719
34.701
34.684
34.667
34.652
34.638
34.625
34.613
34.6
34.587
34.573
34.559
34.544
34.529
34.514
34.499
34.483
34.468
34.452
34.438
34.425
34.412
34.402
34.393
34.385
34.377
34.37
34.362
34.354
34.347
34.34
34.334
34.329
34.325
34.322
34.32
34.317
34.314
34.311
34.309
34.309
34.309
34.312
34.315
34.319
34.322
34.324
34.324
34.323
34.321
34.318
34.315
34.312
34.309
34.307
34.308
34.312
34.321
34.336
34.357
34.384
34.417
34.457
34.505
34.56
34.622
34.691
34.765
34.844
34.926
35.009
35.092
35.175
35.256
35.334
35.409
35.48
35.546
35.604
35.655
35.698
35.732
35.759
35.778
35.79
35.795
35.792
35.783
35.767
35.746
35.72
35.692
35.662
35.631
35.599
35.566
35.533
35.5
35.468
35.436
35.406
35.376
35.346
35.317
35.288
35.259
35.229
35.201
35.172
35.143
35.115
35.086
35.056
35.026
34.996
34.965
34.936
34.907
34.881
34.856
34.834
34.814
34.795
34.778
34.762
34.749
34.739
34.732
34.729
34.729
34.732
34.737
34.743
34.752
34.762
34.774
34.787
34.802
34.818
34.835
34.852
34.869
34.885
34.902
34.918
34.933
34.947
34.958
34.967
34.973
34.976
34.975
34.972
34.967
34.961
34.954
34.946
34.938
34.929
34.919
34.91
34.902
34.894
34.887
34.879
34.871
34.862
34.852
34.842
34.831
34.819
34.806
34.792
34.776
34.759
34.741
34.722
34.703
34.685
34.668
34.653
34.638
34.624
34.611
34.598
34.586
34.575
34.565
34.556
34.547
34.538
34.529
34.519
34.509
34.5
34.491
34.482
34.472
34.461
34.449
34.435
34.422
34.409
34.397
34.386
34.375
34.365
34.355
34.346
34.338
34.331
34.324
34.318
34.313
34.307
34.301
34.295
34.289
34.283
34.277
34.272
34.267
34.263
34.259
34.257
34.255
34.254
34.254
34.255
34.257
34.26
34.263
34.267
34.272
34.28
34.291
34.305
34.322
34.345
34.373
34.408
34.451
34.501
34.56
34.627
34.703
34.787
34.879
34.977
35.08
35.185
35.29
35.393
35.492
35.586
35.674
35.753
35.824
35.886
35.937
35.979
36.011
36.033
36.048
36.057
36.06
36.058
36.051
36.04
36.025
36.008
35.987
35.964
35.939
35.911
35.881
35.848
35.812
35.775
35.738
35.701
35.666
35.633
35.601
35.571
35.541
35.511
35.482
35.453
35.425
35.398
35.372
35.347
35.323
35.298
35.273
35.247
35.221
35.194
35.168
35.142
35.116
35.09
35.064
35.04
35.019
35.0
34.985
34.974
34.966
34.961
34.959
34.96
34.964
34.971
34.982
34.996
35.013
35.031
35.05
35.07
35.089
35.108
35.126
35.144
35.16
35.174
35.185
35.194
35.201
35.206
35.21
35.214
35.218
35.22
35.222
35.221
35.219
35.215
35.21
35.204
35.199
35.193
35.186
35.179
35.17
35.159
35.147
35.134
35.12
35.106
35.09
35.072
35.053
35.032
35.012
34.992
34.972
34.953
34.935
34.918
34.901
34.885
34.869
34.853
34.837
34.822
34.807
34.793
34.78
34.767
34.755
34.742
34.73
34.718
34.705
34.692
34.677
34.662
34.647
34.632
34.616
34.601
34.586
34.572
34.557
34.543
34.53
34.517
34.504
34.493
34.483
34.474
34.466
34.46
34.455
34.452
34.45
34.45
34.45
34.45
34.451
34.452
34.452
34.451
34.449
34.445
34.44
34.434
34.428
34.422
34.416
34.41
34.405
34.4
34.395
34.391
34.389
34.39
34.392
34.396
34.402
34.411
34.424
34.44
34.461
34.487
34.518
34.555
34.597
34.646
34.701
34.764
34.834
34.911
34.995
35.085
35.178
35.273
35.369
35.463
35.556
35.646
35.732
35.814
35.889
35.958
36.018
36.069
36.111
36.143
36.166
36.18
36.185
36.181
36.168
36.148
36.12
36.088
36.052
36.014
35.975
35.935
35.894
35.854
35.814
35.774
35.736
35.7
35.666
35.633
35.603
35.573
35.543
35.514
35.485
35.457
35.429
35.403
35.377
35.351
35.325
35.299
35.274
35.249
35.224
35.2
35.178
35.156
35.134
35.114
35.094
35.076
35.06
35.048
35.04
35.037
35.038
35.042
35.05
35.062
35.075
35.09
35.106
35.122
35.139
35.156
35.172
35.188
35.203
35.217
35.23
35.241
35.251
35.26
35.268
35.275
35.281
35.286
35.289
35.29
35.292
35.293
35.295
35.296
35.297
35.297
35.296
35.292
35.287
35.28
35.272
35.262
35.251
35.238
35.222
35.205
35.186
35.166
35.145
35.125
35.105
35.084
35.062
35.041
35.019
34.998
34.978
34.959
34.942
34.925
34.909
34.891
34.872
34.851
34.83
34.809
34.788
34.768
34.748
34.728
34.708
34.69
34.673
34.658
34.646
34.635
34.625
34.615
34.606
34.597
34.588
34.579
34.571
34.564
34.557
34.55
34.542
34.533
34.524
34.515
34.506
34.496
34.487
34.478
34.47
34.462
34.457
34.454
34.454
34.456
34.459
34.461
34.463
34.464
34.463
34.463
34.461
34.46
34.458
34.456
34.454
34.451
34.449
34.447
34.445
34.443
34.44
34.437
34.432
34.426
34.419
34.411
34.402
34.393
34.384
34.374
34.365
34.356
34.349
34.342
34.337
34.334
34.331
34.329
34.328
34.327
34.326
34.327
34.33
34.335
34.345
34.359
34.379
34.404
34.436
34.474
34.52
34.573
34.636
34.708
34.789
34.878
34.973
35.073
35.175
35.278
35.38
35.481
35.578
35.669
35.754
35.831
35.9
35.959
36.01
36.051
36.083
36.106
36.12
36.125
36.121
36.11
36.091
36.067
36.039
36.009
35.977
35.945
35.912
35.877
35.843
35.809
35.775
35.743
35.711
35.681
35.651
35.622
35.593
35.565
35.536
35.508
35.48
35.452
35.424
35.394
35.363
35.331
35.299
35.267
35.235
35.206
35.178
35.151
35.126
35.103
35.082
35.064
35.048
35.035
35.026
35.019
35.015
35.013
35.014
35.017
35.022
35.028
35.036
35.045
35.055
35.065
35.076
35.088
35.101
35.114
35.128
35.143
35.159
35.175
35.192
35.209
35.225
35.24
35.253
35.266
35.276
35.286
35.293
35.298
35.3
35.3
35.297
35.292
35.284
35.273
35.26
35.244
35.227
35.208
35.19
35.173
35.158
35.145
35.133
35.123
35.114
35.105
35.096
35.087
35.078
35.069
35.059
35.049
35.037
35.025
35.011
34.996
34.98
34.964
34.947
34.93
34.912
34.894
34.877
34.86
34.845
34.831
34.82
34.809
34.799
34.786
34.772
34.757
34.741
34.726
34.713
34.701
34.69
34.68
34.67
34.661
34.652
34.645
34.638
34.632
34.627
34.622
34.617
34.612
34.608
34.604
34.601
34.599
34.597
34.595
34.593
34.59
34.588
34.586
34.584
34.582
34.58
34.576
34.571
34.564
34.557
34.551
34.544
34.538
34.532
34.527
34.521
34.516
34.512
34.509
34.508
34.508
34.51
34.512
34.515
34.519
34.524
34.531
34.542
34.556
34.575
34.599
34.628
34.663
34.705
34.754
34.81
34.873
34.941
35.013
35.089
35.166
35.244
35.322
35.399
35.476
35.551
35.623
35.692
35.758
35.82
35.875
35.925
35.967
36.001
36.027
36.046
36.057
36.06
36.057
36.047
36.031
36.009
35.981
35.951
35.917
35.882
35.846
35.808
35.771
35.734
35.698
35.663
35.629
35.598
35.568
35.539
35.509
35.478
35.445
35.411
35.375
35.34
35.303
35.267
35.231
35.194
35.156
35.118
35.081
35.045
35.012
34.983
34.958
34.936
34.919
34.905
34.896
34.89
34.889
34.892
34.898
34.905
34.914
34.924
34.934
34.945
34.957
34.97
34.984
34.999
35.013
35.027
35.041
35.055
35.07
35.085
35.102
35.119
35.137
35.154
35.17
35.184
35.197
35.208
35.218
35.226
35.231
35.234
35.234
35.233
35.229
35.223
35.216
35.208
35.198
35.188
35.177
35.166
35.155
35.143
35.133
35.122
35.113
35.103
35.093
35.084
35.074
35.065
35.055
35.044
35.033
35.022
35.01
34.996
34.981
34.964
34.946
34.927
34.907
34.888
34.869
34.851
34.833
34.816
34.799
34.782
34.765
34.749
34.735
34.722
34.709
34.698
34.686
34.675
34.665
34.655
34.646
34.638
34.63
34.622
34.614
34.606
34.598
34.589
34.582
34.576
34.571
34.567
34.563
34.558
34.552
34.546
34.54
34.536
34.533
34.531
34.53
34.529
34.528
34.527
34.526
34.525
34.526
34.527
34.528
34.528
34.526
34.523
34.519
34.515
34.511
34.51
34.509
34.509
34.51
34.513
34.517
34.526
34.538
34.556
34.58
34.611
34.647
34.691
34.742
34.802
34.869
34.945
35.029
35.119
35.213
35.31
35.409
35.508
35.607
35.704
35.798
35.889
35.974
36.053
36.125
36.188
36.243
36.29
36.327
36.357
36.378
36.391
36.396
36.394
36.384
36.369
36.347
36.321
36.29
36.257
36.221
36.184
36.146
36.107
36.069
36.031
35.996
35.962
35.931
35.903
35.878
35.854
35.83
35.805
35.78
35.754
35.726
35.698
35.67
35.64
35.61
35.578
35.545
35.512
35.478
35.444
35.412
35.381
35.352
35.327
35.304
35.284
35.268
35.257
35.251
35.248
35.25
35.255
35.261
35.268
35.276
35.285
35.294
35.304
35.316
35.331
35.346
35.362
35.378
35.393
35.408
35.424
35.441
35.459
35.478
35.498
35.518
35.537
35.556
35.573
35.588
35.601
35.611
35.618
35.621
35.62
35.616
35.608
35.599
35.588
35.577
35.564
35.55
35.535
35.519
35.501
35.482
35.463
35.444
35.425
35.407
35.389
35.372
35.355
35.339
35.323
35.307
35.291
35.275
35.258
35.241
35.223
35.205
35.186
35.166
35.147
35.127
35.107
35.088
35.069
35.049
35.029
35.008
34.988
34.968
34.95
34.935
34.922
34.911
34.902
34.894
34.887
34.88
34.872
34.865
34.856
34.847
34.837
34.825
34.812
34.798
34.784
34.77
34.758
34.748
34.74
34.734
34.729
34.725
34.721
34.718
34.716
34.715
34.715
34.716
34.716
34.715
34.715
34.713
34.712
34.71
34.708
34.704
34.7
34.696
34.692
34.689
34.688
34.689
34.693
34.7
34.71
34.723
34.741
34.764
34.792
34.827
34.869
34.919
34.977
35.041
35.113
35.191
35.275
35.365
35.461
35.56
35.662
35.763
35.863
35.958
36.048
36.131
36.206
36.275
36.335
36.387
36.43
36.464
36.489
36.506
36.515
36.517
36.514
36.505
36.491
36.474
36.452
36.427
36.4
36.371
36.341
36.31
36.279
36.247
36.215
36.182
36.148
36.114
36.08
36.046
36.013
35.981
35.95
35.919
35.888
35.858
35.827
35.797
35.766
35.735
35.705
35.676
35.646
35.616
35.587
35.557
35.527
35.499
35.472
35.447
35.425
35.407
35.393
35.382
35.376
35.372
35.373
35.377
35.385
35.396
35.41
35.426
35.444
35.461
35.478
35.495
35.511
35.527
35.542
35.557
35.572
35.585
35.597
35.608
35.619
35.629
35.639
35.647
35.655
35.661
35.666
35.668
35.67
35.67
35.668
35.666
35.663
35.658
35.652
35.644
35.634
35.624
35.612
35.599
35.584
35.569
35.552
35.534
35.515
35.495
35.475
35.455
35.435
35.415
35.394
35.373
35.351
35.329
35.306
35.283
35.262
35.243
35.224
35.207
35.189
35.173
35.156
35.139
35.123
35.105
35.088
35.069
35.049
35.028
35.006
34.984
34.963
34.942
34.924
34.908
34.895
34.883
34.874
34.867
34.861
34.857
34.855
34.854
34.855
34.856
34.857
34.858
34.859
34.858
34.856
34.853
34.847
34.84
34.832
34.823
34.813
34.803
34.794
34.787
34.78
34.774
34.769
34.765
34.761
34.758
34.757
34.757
34.758
34.761
34.763
34.765
34.766
34.765
34.762
34.756
34.75
34.742
34.733
34.724
34.713
34.702
34.691
34.682
34.674
34.67
34.669
34.673
34.68
34.691
34.706
34.728
34.756
34.792
34.836
34.889
34.95
35.019
35.096
35.18
35.271
35.366
35.465
35.567
35.669
35.77
35.868
35.964
36.055
36.141
36.221
36.294
36.36
36.418
36.466
36.505
36.535
36.555
36.568
36.574
36.573
36.567
36.555
36.537
36.514
36.486
36.453
36.417
36.379
36.341
36.304
36.268
36.234
36.202
36.171
36.141
36.113
36.087
36.061
36.035
36.01
35.984
35.959
35.933
35.906
35.878
35.849
35.818
35.786
35.753
35.719
35.684
35.648
35.612
35.577
35.543
35.512
35.484
35.46
35.439
35.421
35.406
35.395
35.387
35.384
35.386
35.392
35.402
35.416
35.432
35.451
35.47
35.491
35.512
35.534
35.557
35.58
35.604
35.628
35.651
35.674
35.695
35.715
35.734
35.751
35.766
35.778
35.789
35.796
35.799
35.799
35.798
35.794
35.789
35.782
35.773
35.762
35.749
35.733
35.716
35.699
35.682
35.667
35.652
35.638
35.624
35.609
35.595
35.58
35.565
35.549
35.532
35.512
35.491
35.468
35.444
35.42
35.395
35.37
35.344
35.318
35.293
35.267
35.242
35.217
35.192
35.17
35.149
35.131
35.116
35.103
35.093
35.084
35.078
35.072
35.067
35.062
35.057
35.05
35.043
35.034
35.025
35.014
35.003
34.992
34.98
34.968
34.956
34.944
34.933
34.922
34.911
34.9
34.89
34.881
34.872
34.864
34.857
34.85
34.844
34.839
34.834
34.831
34.83
34.829
34.829
34.83
34.831
34.832
34.833
34.834
34.835
34.836
34.837
34.836
34.835
34.834
34.834
34.837
34.842
34.851
34.863
34.88
34.902
34.929
34.963
35.004
35.053
35.11
35.175
35.248
35.326
35.41
35.497
35.587
35.679
35.771
35.861
35.95
36.034
36.113
36.185
36.25
36.307
36.356
36.399
36.435
36.465
36.487
36.503
36.51
36.512
36.508
36.499
36.487
36.471
36.451
36.427
36.4
36.37
36.337
36.302
36.264
36.226
36.187
36.149
36.111
36.075
36.039
36.005
35.971
35.937
35.903
35.87
35.837
35.804
35.771
35.738
35.704
35.669
35.634
35.6
35.567
35.535
35.505
35.476
35.449
35.423
35.4
35.379
35.362
35.349
35.34
35.335
35.333
35.334
35.339
35.348
35.36
35.375
35.392
35.411
35.43
35.448
35.466
35.483
35.5
35.516
35.533
35.548
35.563
35.577
35.589
35.601
35.612
35.622
35.633
35.643
35.654
35.665
35.675
35.684
35.692
35.699
35.703
35.706
35.707
35.705
35.701
35.692
35.681
35.667
35.651
35.634
35.617
35.6
35.582
35.563
35.544
35.524
35.503
35.483
35.463
35.444
35.427
35.41
35.395
35.38
35.363
35.346
35.327
35.308
35.289
35.27
35.253
35.235
35.217
35.199
35.18
35.161
35.141
35.121
35.102
35.082
35.063
35.044
35.025
35.007
34.99
34.975
34.961
34.949
34.937
34.926
34.915
34.904
34.893
34.883
34.874
34.866
34.859
34.851
34.843
34.835
34.828
34.821
34.815
34.809
34.804
34.799
34.795
34.79
34.786
34.783
34.782
34.782
34.784
34.788
34.793
34.799
34.805
34.813
34.821
34.829
34.84
34.851
34.866
34.885
34.91
34.94
34.978
35.024
35.078
35.14
35.21
35.288
35.373
35.465
35.563
35.665
35.771
35.879
35.988
36.095
36.199
36.298
36.391
36.475
36.551
36.618
36.675
36.723
36.762
36.792
36.813
36.825
36.828
36.823
36.811
36.794
36.773
36.749
36.725
36.699
36.673
36.645
36.616
36.587
36.557
36.528
36.499
36.47
36.442
36.413
36.384
36.355
36.326
36.296
36.267
36.238
36.209
36.181
36.151
36.12
36.088
36.055
36.021
35.988
35.956
35.925
35.895
35.867
35.838
35.811
35.785
35.761
35.739
35.72
35.704
35.69
35.679
35.67
35.664
35.661
35.662
35.667
35.675
35.686
35.699
35.715
35.733
35.753
35.775
35.799
35.823
35.848
35.872
35.894
35.914
35.932
35.948
35.961
35.973
35.983
35.99
35.996
35.999
35.999
35.998
35.995
35.99
35.984
35.977
35.97
35.961
35.951
35.939
35.925
35.91
35.894
35.876
35.856
35.834
35.811
35.786
35.759
35.731
35.703
35.674
35.647
35.619
35.593
35.568
35.544
35.521
35.5
35.48
35.461
35.444
35.427
35.41
35.394
35.378
35.362
35.347
35.331
35.316
35.3
35.284
35.267
35.248
35.229
35.208
35.188
35.168
35.149
35.132
35.116
35.102
35.089
35.077
35.066
35.055
35.046
35.039
35.033
35.029
35.025
35.021
35.017
35.013
35.009
35.006
35.003
35.0
34.996
34.991
34.984
34.976
34.965
34.954
34.944
34.934
34.926
34.919
34.914
34.909
34.906
34.903
34.902
34.901
34.9
34.898
34.895
34.891
34.886
34.882
34.878
34.876
34.875
34.875
34.877
34.881
34.888
34.899
34.916
34.941
34.974
35.017
35.07
35.134
35.208
35.293
35.387
35.491
35.602
35.717
35.836
35.956
36.076
36.193
36.308
36.419
36.523
36.621
36.71
36.789
36.858
36.916
36.962
36.999
37.028
37.048
37.061
37.068
37.07
37.067
37.059
37.047
37.031
37.012
36.99
36.966
36.94
36.913
36.885
36.857
36.828
36.798
36.767
36.735
36.703
36.67
36.639
36.609
36.581
36.555
36.53
36.506
36.481
36.455
36.429
36.401
36.371
36.34
36.306
36.271
36.233
36.195
36.158
36.123
36.09
36.06
36.034
36.012
35.992
35.977
35.965
35.958
35.956
35.957
35.962
35.97
35.979
35.989
35.999
36.01
36.021
36.031
36.042
36.052
36.062
36.071
36.08
36.088
36.096
36.104
36.113
36.123
36.132
36.141
36.149
36.154
36.157
36.158
36.156
36.152
36.145
36.136
36.123
36.108
36.089
36.067
36.043
36.018
35.992
35.968
35.944
35.923
35.902
35.884
35.867
35.851
35.836
35.822
35.808
35.794
35.78
35.765
35.749
35.731
35.71
35.687
35.663
35.637
35.611
35.586
35.561
35.537
35.514
35.492
35.471
35.451
35.431
