Trial 1:0back
34.911
34.915
34.919
34.923
34.927
34.929
34.93
34.928
34.925
34.918
34.91
34.899
34.886
34.873
34.86
34.848
34.837
34.826
34.817
34.809
34.802
34.795
34.787
34.779
34.771
34.763
34.756
34.75
34.745
34.741
34.739
34.737
34.736
34.734
34.731
34.727
34.721
34.715
34.704
34.684
34.654
34.618
34.579
34.54
34.503
34.471
34.444
34.422
34.406
34.396
34.391
34.39
34.393
34.399
34.409
34.421
34.437
34.454
34.473
34.495
34.519
34.548
34.583
34.627
34.682
34.751
34.836
34.938
35.058
35.196
35.349
35.516
35.694
35.879
36.066
36.251
36.429
36.598
36.753
36.894
37.017
37.122
37.21
37.28
37.333
37.369
37.39
37.397
37.39
37.372
37.343
37.305
37.26
37.209
37.155
37.097
37.038
36.978
36.918
36.859
36.801
36.744
36.689
36.636
36.586
36.539
36.496
36.458
36.424
36.395
36.37
36.348
36.329
36.312
36.296
36.282
36.269
36.257
36.246
36.236
36.227
36.218
36.21
36.201
36.193
36.184
36.175
36.166
36.157
36.146
36.135
36.122
36.108
36.094
36.077
36.06
36.041
36.023
36.006
35.991
35.978
35.969
35.964
35.961
35.962
35.964
35.968
35.971
35.974
35.976
35.975
35.973
35.969
35.965
35.962
35.959
35.957
35.956
35.957
35.959
35.961
35.964
35.966
35.966
35.964
35.96
35.951
35.938
35.922
35.904
35.885
35.866
35.847
35.829
35.81
35.792
35.773
35.754
35.734
35.713
35.693
35.673
35.653
35.634
35.616
35.599
35.583
35.568
35.552
35.535
35.518
35.5
35.481
35.463
35.445
35.427
35.409
35.391
35.374
35.356
35.339
35.322
35.305
35.29
35.274
35.259
35.245
35.23
35.216
35.2
35.184
35.167
35.15
35.134
35.119
35.107
35.099
35.094
35.092
35.094
35.098
35.103
35.109
35.115
35.121
35.127
35.133
35.138
35.142
35.146
35.149
35.151
35.151
35.148
35.143
35.135
35.125
35.114
35.102
35.09
35.08
35.073
35.067
35.063
35.059
35.055
35.051
35.047
35.042
35.038
35.035
35.032
35.03
35.027
35.024
35.019
35.014
35.009
35.003
34.996
34.987
34.977
34.965
34.952
34.938
34.923
34.907
34.89
34.873
34.856
34.84
34.824
34.808
34.793
34.779
34.766
34.753
34.741
34.73
34.719
34.71
34.702
34.694
34.686
34.679
34.672
34.665
34.658
34.65
34.641
34.632
34.622
34.613
34.606
34.599
34.594
34.592
34.593
34.596
34.601
34.608
34.616
34.624
34.632
34.638
34.644
34.647
34.649
34.651
34.652
34.652
34.651
34.65
34.649
34.646
34.642
34.637
34.63
34.621
34.611
34.599
34.585
34.571
34.556
34.542
34.53
34.522
34.519
34.523
34.536
34.562
34.602
34.664
34.755
34.877
35.028
35.204
35.4
35.611
35.829
36.049
36.264
36.47
36.661
36.835
36.988
37.119
37.228
37.314
37.378
37.423
37.45
37.461
37.458
37.444
37.421
37.391
37.353
37.31
37.263
37.212
37.158
37.104
37.048
36.994
36.94
36.889
36.84
36.793
36.749
36.706
36.665
36.625
36.586
36.549
36.515
36.483
36.454
36.429
36.406
36.385
36.368
36.351
36.336
36.321
36.307
36.292
36.277
36.261
36.245
36.228
36.21
36.192
36.172
36.151
36.128
36.104
36.08
36.057
36.033
36.012
35.993
35.977
35.964
35.956
35.952
35.952
35.954
35.96
35.968
35.978
35.987
35.998
36.009
36.021
36.035
36.051
36.068
36.085
36.103
36.119
36.134
36.146
36.153
36.156
36.154
36.148
36.138
36.125
36.11
36.094
36.076
36.057
36.037
36.016
35.994
35.971
35.946
35.92
35.892
35.864
35.834
35.805
35.777
35.749
35.722
35.696
35.67
35.643
35.617
35.59
35.565
35.54
35.518
35.497
35.479
35.462
35.447
35.434
35.423
35.413
35.404
35.395
35.385
35.374
35.363
35.353
35.345
35.338
35.333
35.329
35.325
35.322
35.317
35.312
35.306
35.298
35.29
35.281
35.271
35.26
35.249
35.238
35.228
35.219
35.211
35.205
35.2
35.195
35.19
35.186
35.181
35.176
35.17
35.165
35.16
35.155
35.15
35.145
35.141
35.137
35.133
35.129
35.125
35.119
35.112
35.103
35.094
35.084
35.074
35.063
35.052
35.042
35.031
35.021
35.012
35.003
34.996
34.988
34.981
34.974
34.965
34.957
34.948
34.94
34.931
34.921
34.91
34.898
34.884
34.87
34.856
34.842
34.83
34.82
34.811
34.804
34.797
34.788
34.773
34.754
34.732
34.709
34.686
34.667
34.65
34.638
34.631
34.627
34.626
34.627
34.629
34.633
34.637
34.641
34.645
34.648
34.651
34.652
34.653
34.652
34.65
34.647
34.644
34.641
34.637
34.632
34.626
34.621
34.616
34.611
34.607
34.602
34.598
34.593
34.587
34.581
34.572
34.562
34.552
34.54
34.529
34.518
34.508
34.499
34.49
34.481
34.472
34.464
34.455
34.446
34.437
34.429
34.422
34.417
34.414
34.415
34.422
34.436
34.462
34.5
34.553
34.625
34.717
34.83
34.964
35.117
35.287
35.471
35.666
35.869
36.076
36.282
36.482
36.672
36.85
37.012
37.156
37.279
37.381
37.462
37.523
37.565
37.59
37.6
37.597
37.583
37.558
37.525
37.483
37.433
37.377
37.317
37.255
37.192
37.13
37.069
37.011
36.956
36.904
36.855
36.808
36.763
36.719
36.676
36.635
36.595
36.556
36.519
36.483
36.45
36.418
36.39
36.364
36.34
36.318
36.297
36.277
36.258
36.24
36.221
36.204
36.186
36.17
36.152
36.134
36.115
36.093
36.07
36.046
36.022
35.999
35.978
35.96
35.946
35.935
35.929
35.927
35.929
35.934
35.942
35.953
35.966
35.981
35.998
36.016
36.035
36.055
36.075
36.094
36.111
36.125
36.137
36.145
36.15
36.152
36.151
36.149
36.145
36.138
36.13
36.12
36.108
36.094
36.078
36.061
36.045
36.03
36.015
36.0
35.985
35.968
35.95
35.93
35.907
35.881
35.851
35.817
35.778
35.736
35.69
35.642
35.592
35.543
35.495
35.451
35.412
35.378
35.352
35.332
35.317
35.306
35.3
35.296
35.294
35.294
35.294
35.293
35.291
35.287
35.283
35.277
35.271
35.264
35.257
35.249
35.241
35.232
35.22
35.206
35.189
35.171
35.151
35.13
35.109
35.091
35.077
35.066
35.059
35.056
35.057
35.061
35.067
35.074
35.082
35.089
35.095
35.101
35.104
35.106
35.105
35.103
35.099
35.094
35.087
35.078
35.067
35.053
35.039
35.023
35.006
34.989
34.973
34.958
34.946
34.934
34.921
34.907
34.891
34.875
34.86
34.846
34.834
34.824
34.817
34.812
34.809
34.808
34.808
34.809
34.811
34.812
34.813
34.813
34.81
34.805
34.797
34.785
34.77
34.752
34.733
34.713
34.694
34.677
34.662
34.65
34.641
34.634
34.63
34.628
34.626
34.625
34.624
34.623
34.62
34.618
34.616
34.613
34.612
34.61
34.607
34.601
34.593
34.584
34.574
34.563
34.552
34.539
34.526
34.513
34.501
34.49
34.481
34.474
34.469
34.467
34.466
34.467
34.469
34.47
34.471
34.47
34.467
34.462
34.455
34.445
34.434
34.422
34.413
34.406
34.405
34.411
34.427
34.457
34.504
34.57
34.656
34.764
34.891
35.038
35.203
35.383
35.575
35.775
35.98
36.187
36.389
36.586
36.771
36.943
37.1
37.238
37.356
37.452
37.527
37.581
37.616
37.633
37.634
37.62
37.594
37.56
37.519
37.473
37.424
37.372
37.319
37.266
37.213
37.162
37.114
37.067
37.022
36.978
36.937
36.898
36.859
36.822
36.785
36.749
36.713
36.678
36.643
36.61
36.579
36.55
36.524
36.501
36.48
36.46
36.442
36.424
36.406
36.388
36.37
36.352
36.333
36.313
36.294
36.274
36.255
36.235
36.216
36.196
36.176
36.156
36.138
36.122
36.108
36.098
36.092
36.089
36.091
36.096
36.105
36.117
36.131
36.146
36.161
36.176
36.192
36.206
36.22
36.232
36.244
36.253
36.261
36.267
36.27
36.27
36.267
36.261
36.252
36.24
36.225
36.208
36.188
36.167
36.144
36.12
36.097
36.072
36.047
36.021
35.992
35.962
35.931
35.898
35.865
35.831
35.796
35.762
35.729
35.697
35.667
35.638
35.612
35.587
35.564
35.542
35.519
35.496
35.471
35.446
35.422
35.4
35.379
35.361
35.346
35.333
35.322
35.312
35.303
35.294
35.286
35.278
35.271
35.266
35.262
35.26
35.26
35.261
35.263
35.265
35.267
35.268
35.268
35.266
35.262
35.255
35.245
35.233
35.217
35.199
35.18
35.16
35.14
35.121
35.104
35.087
35.073
35.061
35.051
35.044
35.038
35.033
35.028
35.023
35.017
35.01
35.003
34.996
34.99
34.984
34.98
34.975
34.971
34.967
34.962
34.956
34.95
34.943
34.935
34.926
34.917
34.908
34.899
34.89
34.88
34.869
34.857
34.844
34.831
34.818
34.805
34.794
34.784
34.774
34.766
34.758
34.751
34.745
34.74
34.735
34.731
34.726
34.72
34.715
34.71
34.705
34.7
34.694
34.688
34.681
34.674
34.666
34.656
34.647
34.636
34.625
34.614
34.602
34.589
34.575
34.561
34.547
34.533
34.521
34.509
34.499
34.491
34.485
34.48
34.476
34.471
34.466
34.459
34.452
34.443
34.434
34.424
34.413
34.402
34.39
34.378
34.366
34.354
34.342
34.332
34.321
34.311
34.299
34.288
34.277
34.267
34.259
34.253
34.25
34.249
34.252
34.257
34.268
34.285
34.312
34.35
34.401
34.469
34.557
34.665
34.797
34.951
35.128
35.323
35.534
35.756
35.984
36.213
36.437
36.652
36.853
37.038
37.203
37.345
37.465
37.561
37.635
37.688
37.722
37.737
37.736
37.718
37.688
37.646
37.596
37.539
37.479
37.416
37.354
37.293
37.233
37.176
37.12
37.066
37.014
36.964
36.914
36.867
36.821
36.777
36.737
36.699
36.666
36.637
36.611
36.588
36.568
36.55
36.533
36.519
36.507
36.496
36.487
36.479
36.469
36.459
36.446
36.43
36.412
36.39
36.366
36.339
36.311
36.282
36.252
36.221
36.192
36.164
36.138
36.114
36.093
36.075
36.061
36.049
36.042
36.038
36.038
36.042
36.051
36.063
36.078
36.094
36.113
36.132
36.151
36.17
36.189
36.206
36.221
36.234
36.245
36.254
36.26
36.263
36.263
36.26
36.253
36.243
36.229
36.213
36.194
36.173
36.149
36.123
36.095
36.064
36.033
36.0
35.967
35.934
35.9
35.865
35.831
35.798
35.766
35.736
35.708
35.681
35.656
35.632
35.609
35.586
35.564
35.541
35.519
35.497
35.476
35.455
35.434
35.415
35.398
35.382
35.368
35.355
35.343
35.333
35.325
35.317
35.31
35.302
35.294
35.286
35.277
35.267
35.258
35.25
35.244
35.239
35.235
35.232
35.228
35.223
35.218
35.212
35.204
35.194
35.183
35.171
35.158
35.145
35.134
35.123
35.114
35.107
35.101
35.096
35.091
35.087
35.082
35.077
35.07
35.062
35.053
35.043
35.032
35.022
35.011
35.001
34.99
34.978
34.967
34.956
34.946
34.936
34.925
34.914
34.902
34.889
34.875
34.862
34.848
34.836
34.823
34.812
34.801
34.79
34.779
34.767
34.757
34.746
34.736
34.726
34.717
34.71
34.704
34.699
34.695
34.69
34.685
34.679
34.671
34.662
34.651
34.639
34.626
34.613
34.599
34.586
34.573
34.56
34.549
34.539
34.53
34.522
34.514
34.507
34.502
34.498
34.496
34.494
34.492
34.491
34.491
34.491
34.491
34.491
34.49
34.488
34.485
34.48
34.473
34.463
34.452
34.438
34.424
34.409
34.395
34.382
34.37
34.36
34.353
34.347
34.342
34.338
34.335
34.332
34.326
34.32
34.313
34.306
34.301
34.3
34.304
34.318
34.343
34.383
34.44
34.517
34.617
34.739
34.884
35.051
35.236
35.436
35.648
35.868
36.091
36.313
36.529
36.734
36.925
37.098
37.249
37.378
37.484
37.567
37.627
37.666
37.687
37.689
37.676
37.649
37.611
37.563
37.508
37.449
37.387
37.324
37.261
37.199
37.14
37.084
37.032
36.983
36.937
36.893
36.851
36.811
36.773
36.736
36.701
36.668
36.636
36.605
36.576
36.548
36.52
36.494
36.469
36.444
36.421
36.397
36.374
36.35
36.327
36.304
36.282
36.261
36.241
36.222
36.204
36.186
36.168
36.15
36.134
36.118
36.103
36.09
36.079
36.069
36.062
36.059
36.059
36.063
36.071
36.08
36.091
36.104
36.117
36.131
36.146
36.162
36.178
36.193
36.207
36.221
36.232
36.241
36.248
36.252
36.256
36.257
36.256
36.253
36.248
36.24
36.229
36.216
36.2
36.18
36.156
36.129
36.099
36.066
36.03
35.993
35.955
35.918
35.882
35.847
35.813
35.781
35.751
35.723
35.696
35.67
35.644
35.618
35.592
35.567
35.542
35.519
35.498
35.479
35.462
35.447
35.432
35.416
35.399
35.382
35.365
35.348
35.331
35.315
35.3
35.285
35.272
35.258
35.245
35.233
35.221
35.21
35.199
35.188
35.177
35.168
35.159
35.151
35.145
35.138
35.132
35.125
35.117
35.108
35.098
35.086
35.074
35.062
35.05
35.038
35.028
35.019
35.011
35.005
35.0
34.995
34.991
34.985
34.979
34.972
34.964
34.955
34.946
34.936
34.925
34.914
34.903
34.891
34.88
34.868
34.855
34.841
34.826
34.812
34.797
34.783
34.77
34.758
34.747
34.737
34.728
34.72
34.713
34.708
34.704
34.701
34.697
34.693
34.688
34.684
34.678
34.671
34.663
34.655
34.646
34.637
34.628
34.619
34.611
34.602
34.593
34.582
34.571
34.558
34.546
34.534
34.522
34.512
34.502
34.492
34.483
34.473
34.463
34.453
34.443
34.434
34.426
34.419
34.412
34.405
34.398
34.392
34.387
34.381
34.375
34.369
34.364
34.359
34.356
34.353
34.349
34.346
34.341
34.337
34.333
34.329
34.326
34.321
34.316
34.31
34.303
34.297
34.291
34.286
34.281
34.275
34.269
34.261
34.252
34.242
34.232
34.223
34.216
34.214
34.219
34.233
34.261
34.306
34.37
34.457
34.569
34.705
34.865
35.046
35.246
35.46
35.685
35.915
36.145
36.372
36.59
36.795
36.985
37.157
37.308
37.437
37.544
37.627
37.689
37.731
37.755
37.762
37.755
37.735
37.704
37.664
37.617
37.563
37.504
37.443
37.379
37.316
37.255
37.195
37.139
37.088
37.041
37.0
36.962
36.929
36.898
36.869
36.842
36.817
36.794
36.772
36.751
36.732
36.713
36.697
36.682
36.668
36.655
36.642
36.629
36.616
36.604
36.59
36.576
36.558
36.539
36.516
36.491
36.462
36.432
36.399
36.364
36.329
36.293
36.259
36.225
36.195
36.169
36.148
36.132
36.123
36.12
36.123
36.131
36.143
36.159
36.175
36.193
36.211
36.229
36.247
36.264
36.278
36.29
36.3
36.306
36.309
36.309
36.305
36.299
36.29
36.277
36.261
36.241
36.218
36.193
36.166
36.138
36.11
36.082
36.054
36.026
35.999
35.973
35.947
35.92
35.893
35.865
35.836
35.806
35.777
35.748
35.72
35.693
35.668
35.644
35.622
35.6
35.579
35.558
35.537
35.515
35.491
35.467
35.443
35.42
35.398
35.377
35.358
35.34
35.324
35.31
35.296
35.281
35.265
35.247
35.227
35.206
35.185
35.165
35.147
35.131
35.118
35.108
35.101
35.098
35.096
35.095
35.095
35.095
35.095
35.094
35.093
35.091
35.089
35.085
35.08
35.075
35.069
35.063
35.056
35.048
35.037
35.025
35.011
34.997
34.983
34.97
34.958
34.947
34.938
34.928
34.915
34.9
34.882
34.865
34.848
34.832
34.817
34.803
34.792
34.783
34.778
34.774
34.773
34.774
34.776
34.781
34.787
34.794
34.801
34.806
34.809
34.809
34.804
34.795
34.782
34.766
34.747
34.726
34.705
34.683
34.661
34.64
34.62
34.602
34.583
34.565
34.545
34.526
34.505
34.484
34.464
34.444
34.426
34.41
34.397
34.386
34.378
34.372
34.369
34.367
34.366
34.365
34.364
34.361
34.356
34.349
34.339
34.327
34.313
34.299
34.285
34.273
34.262
34.254
34.248
34.244
34.241
34.24
34.24
34.24
34.239
34.239
34.239
34.239
34.239
34.239
34.239
34.239
34.238
34.236
34.233
34.228
34.221
34.211
34.199
34.186
34.171
34.157
34.143
34.13
34.119
34.11
34.104
34.1
34.1
34.102
34.108
34.119
34.136
34.161
34.197
34.246
34.311
34.396
34.501
34.629
34.78
34.952
35.143
35.351
35.572
35.8
36.031
36.258
36.478
36.684
36.875
37.048
37.2
37.33
37.438
37.523
37.587
37.631
37.658
37.668
37.665
37.648
37.619
37.581
37.533
37.478
37.417
37.353
37.288
37.222
37.156
37.092
37.03
36.969
36.912
36.857
36.805
36.757
36.713
36.674
36.64
36.612
36.588
36.567
36.55
36.535
36.522
36.509
36.495
36.48
36.465
36.448
36.43
36.41
36.387
36.364
36.339
36.312
36.285
36.256
36.227
36.199
36.172
36.146
36.123
36.102
36.084
36.069
36.056
36.045
36.037
36.031
36.027
36.025
36.025
36.028
36.032
36.039
36.049
36.061
36.075
36.09
36.105
36.12
36.133
36.144
36.153
36.159
36.164
36.166
36.167
36.166
36.164
36.16
36.155
36.147
36.138
36.126
36.112
36.095
36.076
36.055
36.031
36.005
35.977
35.947
35.916
35.882
35.847
35.811
35.775
35.739
35.704
35.669
35.634
35.6
35.567
35.537
35.508
35.481
35.456
35.433
35.41
35.388
35.366
35.345
35.323
35.302
35.281
35.261
35.241
35.222
35.205
35.19
35.177
35.166
35.158
35.151
35.146
35.141
35.136
35.131
35.126
35.12
35.115
35.11
35.104
35.098
35.092
35.086
35.081
35.076
35.07
35.063
35.054
35.044
35.034
35.023
35.012
35.002
34.995
34.989
34.985
34.982
34.981
34.981
34.982
34.982
34.981
34.978
34.973
34.967
34.959
34.95
34.94
34.93
34.919
34.908
34.9
34.899
34.907
34.921
34.94
34.96
34.978
34.992
34.999
34.999
34.992
34.978
34.957
34.931
34.9
34.867
34.832
34.796
34.762
34.728
34.695
34.664
34.633
34.605
34.579
34.554
34.532
34.51
34.491
34.473
34.456
34.441
34.427
34.415
34.405
34.396
34.388
34.381
34.374
34.366
34.36
34.353
34.348
34.342
34.337
34.332
34.328
34.326
34.324
34.323
34.323
34.322
34.322
34.321
34.32
34.318
34.315
34.31
34.303
34.293
34.281
34.267
34.252
34.237
34.222
34.207
34.193
34.18
34.167
34.154
34.14
34.125
34.109
34.09
34.071
34.05
34.029
34.009
33.99
33.972
33.958
33.947
33.94
33.938
33.943
33.954
33.974
34.005
34.05
34.111
34.191
34.291
34.413
34.558
34.724
34.909
35.11
35.323
35.545
35.771
35.996
36.215
36.423
36.615
36.79
36.943
37.076
37.186
37.274
37.341
37.388
37.417
37.43
37.428
37.413
37.387
37.354
37.315
37.271
37.225
37.176
37.126
37.076
37.026
36.977
36.93
36.883
36.837
36.792
36.747
36.704
36.661
36.618
36.577
36.536
36.497
36.461
36.427
36.395
36.367
36.342
36.321
36.302
36.285
36.27
36.257
36.244
36.232
36.22
36.208
36.196
36.184
36.173
36.162
36.151
36.14
36.128
36.115
36.1
36.083
36.066
36.048
36.031
36.016
36.003
35.993
35.986
35.982
35.987
36.006
36.041
36.089
36.145
36.203
36.257
36.302
36.337
36.359
36.367
36.363
36.346
36.319
36.284
36.243
36.198
36.152
36.106
36.061
36.018
35.978
35.941
35.906
35.875
35.848
35.824
35.803
35.784
35.765
35.747
35.73
35.713
35.695
35.677
35.657
35.635
35.612
35.584
35.549
35.508
35.461
35.414
35.366
35.321
35.281
35.246
35.218
35.196
35.181
35.171
35.165
35.161
35.16
35.161
35.162
35.164
35.166
35.168
35.171
35.174
35.176
35.178
35.177
35.175
35.17
35.163
35.153
35.141
35.126
35.11
35.092
35.072
35.052
35.029
35.006
34.983
34.961
34.939
34.917
34.898
34.883
34.87
34.861
34.855
34.85
34.847
34.846
34.845
34.844
34.842
34.84
34.839
34.837
34.834
34.831
34.826
34.82
34.813
34.806
34.799
34.792
34.785
34.779
34.774
34.769
34.765
34.76
34.756
34.751
34.745
34.738
34.73
34.722
34.713
34.703
34.692
34.681
34.668
34.656
34.644
34.634
34.624
34.615
34.607
34.599
34.591
34.581
34.571
34.56
34.549
34.537
34.525
34.512
34.498
34.483
34.469
34.455
34.442
34.431
34.421
34.412
34.403
34.396
34.389
34.384
34.38
34.378
34.376
34.373
34.371
34.369
34.366
34.362
34.358
34.353
34.348
34.34
34.332
34.323
34.314
34.305
34.297
34.289
34.281
34.274
34.268
34.262
34.257
34.253
34.249
34.244
34.239
34.234
34.226
34.218
34.207
34.196
34.183
34.168
34.153
34.138
34.123
34.111
34.1
34.09
34.081
34.073
34.066
34.059
34.053
34.048
34.046
34.049
34.06
34.08
34.114
34.163
34.232
34.323
34.435
34.57
34.726
34.902
35.096
35.304
35.521
35.745
35.969
36.19
36.402
36.603
36.787
36.954
37.1
37.225
37.327
37.408
37.467
37.506
37.527
37.53
37.52
37.498
37.467
37.428
37.385
37.339
37.291
37.243
37.193
37.144
37.094
37.043
36.993
36.942
36.891
36.841
36.791
36.743
36.696
36.652
36.611
36.572
36.536
36.503
36.473
36.445
36.421
36.4
36.383
36.368
