Trial 1:0back
34.676
34.718
34.756
34.79
34.818
34.842
34.861
34.875
34.885
34.891
34.894
34.893
34.889
34.881
34.871
34.859
34.845
34.829
34.811
34.791
34.769
34.744
34.716
34.687
34.656
34.624
34.591
34.558
34.525
34.492
34.46
34.428
34.397
34.367
34.339
34.312
34.286
34.262
34.239
34.215
34.193
34.17
34.148
34.127
34.108
34.09
34.072
34.056
34.041
34.026
34.013
34.001
33.989
33.979
33.97
33.96
33.951
33.942
33.932
33.923
33.913
33.902
33.892
33.882
33.872
33.862
33.853
33.845
33.837
33.83
33.823
33.817
33.81
33.802
33.792
33.782
33.772
33.762
33.752
33.743
33.736
33.729
33.725
33.721
33.72
33.72
33.721
33.724
33.727
33.732
33.737
33.742
33.746
33.749
33.751
33.751
33.75
33.746
33.74
33.733
33.724
33.714
33.704
33.693
33.683
33.673
33.663
33.654
33.645
33.637
33.631
33.626
33.623
33.623
33.626
33.635
33.651
33.676
33.712
33.763
33.828
33.912
34.013
34.131
34.266
34.416
34.579
34.751
34.929
35.11
35.289
35.463
35.628
35.78
35.916
36.036
36.137
36.218
36.28
36.322
36.345
36.351
36.341
36.316
36.277
36.226
36.166
36.097
36.021
35.939
35.854
35.765
35.675
35.585
35.496
35.409
35.324
35.243
35.166
35.093
35.026
34.963
34.905
34.85
34.8
34.753
34.709
34.668
34.629
34.592
34.555
34.518
34.48
34.44
34.399
34.356
34.312
34.267
34.223
34.18
34.14
34.104
34.072
34.047
34.027
34.015
34.01
34.012
34.021
34.036
34.057
34.084
34.117
34.155
34.197
34.242
34.29
34.34
34.392
34.444
34.496
34.547
34.597
34.645
34.689
34.73
34.766
34.798
34.825
34.847
34.863
34.875
34.881
34.881
34.876
34.866
34.852
34.834
34.812
34.789
34.763
34.736
34.708
34.679
34.649
34.618
34.587
34.554
34.522
34.489
34.456
34.424
34.393
34.363
34.334
34.306
34.281
34.257
34.235
34.215
34.196
34.178
34.161
34.145
34.129
34.114
34.099
34.083
34.068
34.052
34.037
34.022
34.007
33.992
33.979
33.967
33.956
33.947
33.939
33.933
33.929
33.925
33.923
33.92
33.918
33.916
33.914
33.911
33.909
33.906
33.903
33.9
33.897
33.895
33.893
33.891
33.89
33.889
33.888
33.886
33.885
33.883
33.882
33.88
33.878
33.875
33.87
33.864
33.858
33.85
33.843
33.836
33.83
33.824
33.82
33.816
33.812
33.808
33.804
33.8
33.795
33.789
33.782
33.775
33.768
33.763
33.761
33.763
33.772
33.789
33.817
33.858
33.914
33.986
34.077
34.185
34.311
34.454
34.613
34.783
34.962
35.146
35.332
35.516
35.694
35.863
36.019
36.161
36.285
36.392
36.48
36.548
36.596
36.627
36.639
36.634
36.614
36.579
36.532
36.474
36.406
36.33
36.247
36.161
36.07
35.979
35.887
35.797
35.708
35.622
35.54
35.462
35.389
35.321
35.257
35.199
35.146
35.098
35.054
35.014
34.977
34.941
34.906
34.871
34.836
34.799
34.761
34.721
34.678
34.634
34.588
34.542
34.497
34.455
34.418
34.386
34.361
34.343
34.332
34.328
34.33
34.338
34.352
34.371
34.395
34.424
34.456
34.492
34.531
34.573
34.617
34.663
34.711
34.759
34.807
34.854
34.901
34.946
34.99
35.031
35.068
35.102
35.13
35.153
35.171
35.184
35.191
35.194
35.191
35.183
35.17
35.152
35.131
35.105
35.077
35.046
35.013
34.978
34.943
34.909
34.874
34.841
34.808
34.776
34.744
34.713
34.683
34.655
34.627
34.601
34.576
34.552
34.529
34.506
34.484
34.462
34.441
34.421
34.402
34.383
34.365
34.347
34.329
34.312
34.294
34.277
34.261
34.247
34.233
34.22
34.209
34.198
34.189
34.18
34.173
34.167
34.163
34.16
34.158
34.157
34.157
34.157
34.158
34.159
34.16
34.16
34.159
34.157
34.153
34.148
34.143
34.137
34.131
34.125
34.12
34.116
34.113
34.112
34.112
34.114
34.115
34.116
34.117
34.115
34.113
34.108
34.102
34.095
34.088
34.08
34.072
34.066
34.061
34.058
34.057
34.059
34.064
34.075
34.091
34.115
34.149
34.195
34.253
34.325
34.413
34.517
34.637
34.773
34.923
35.086
35.259
35.44
35.624
35.809
35.992
36.169
36.336
36.493
36.636
36.763
36.873
36.965
37.037
37.09
37.124
37.138
37.135
37.116
37.081
37.033
36.973
36.903
36.826
36.742
36.653
36.561
36.467
36.373
36.28
36.19
36.105
36.024
35.949
35.879
35.815
35.756
35.702
35.652
35.605
35.562
35.522
35.484
35.446
35.41
35.373
35.335
35.296
35.256
35.215
35.173
35.131
35.088
35.046
35.006
34.968
34.934
34.905
34.88
34.862
34.85
34.845
34.846
34.854
34.868
34.888
34.913
34.943
34.978
35.016
35.057
35.1
35.144
35.19
35.235
35.28
35.323
35.366
35.406
35.445
35.481
35.514
35.544
35.57
35.592
35.609
35.62
35.628
35.63
35.628
35.621
35.61
35.595
35.576
35.553
35.527
35.499
35.469
35.437
35.404
35.37
35.336
35.302
35.269
35.237
35.206
35.177
35.15
35.124
35.098
35.073
35.048
35.023
34.998
34.972
34.946
34.92
34.895
34.872
34.849
34.827
34.807
34.787
34.768
34.751
34.735
34.721
34.709
34.699
34.691
34.685
34.68
34.676
34.673
34.669
34.666
34.661
34.655
34.648
34.64
34.63
34.62
34.611
34.601
34.593
34.585
34.578
34.573
34.567
34.563
34.559
34.556
34.553
34.552
34.552
34.553
34.555
34.559
34.564
34.57
34.577
34.583
34.588
34.59
34.591
34.588
34.582
34.573
34.562
34.55
34.538
34.527
34.517
34.511
34.509
34.513
34.524
34.544
34.574
34.616
34.672
34.744
34.831
34.935
35.055
35.19
35.338
35.499
35.669
35.846
36.027
36.209
36.388
36.559
36.721
36.869
37.0
37.114
37.209
37.284
37.339
37.375
37.392
37.391
37.373
37.341
37.295
37.238
37.17
37.094
37.011
36.923
36.831
36.738
36.644
36.551
36.46
36.372
36.288
36.209
36.136
36.069
36.008
35.953
35.903
35.857
35.815
35.776
35.739
35.705
35.672
35.64
35.607
35.574
35.539
35.502
35.464
35.423
35.382
35.341
35.301
35.263
35.229
35.2
35.176
35.157
35.145
35.139
35.14
35.147
35.161
35.182
35.208
35.24
35.276
35.318
35.363
35.411
35.461
35.511
35.562
35.611
35.659
35.703
35.744
35.78
35.811
35.837
35.858
35.874
35.885
35.892
35.894
35.892
35.886
35.878
35.866
35.852
35.835
35.817
35.796
35.774
35.75
35.725
35.697
35.668
35.638
35.605
35.572
35.537
35.502
35.466
35.43
35.394
35.358
35.323
35.29
35.259
35.229
35.202
35.178
35.154
35.133
35.112
35.092
35.072
35.052
35.032
35.013
34.994
34.975
34.958
34.942
34.926
34.913
34.901
34.891
34.883
34.877
34.873
34.87
34.868
34.865
34.862
34.859
34.854
34.849
34.842
34.835
34.826
34.818
34.809
34.8
34.791
34.783
34.776
34.769
34.764
34.76
34.757
34.754
34.75
34.746
34.741
34.735
34.728
34.72
34.71
34.7
34.689
34.677
34.666
34.656
34.647
34.641
34.637
34.637
34.641
34.649
34.664
34.686
34.716
34.756
34.808
34.873
34.952
35.045
35.153
35.275
35.41
35.556
35.711
35.873
36.039
36.206
36.372
36.532
36.685
36.828
36.959
37.077
37.179
37.265
37.335
37.388
37.423
37.441
37.442
37.427
37.397
37.353
37.297
37.229
37.151
37.066
36.975
36.88
36.783
36.684
36.587
36.492
36.402
36.317
36.238
36.165
36.099
36.039
35.984
35.935
35.889
35.847
35.807
35.768
35.729
35.69
35.651
35.609
35.566
35.52
35.472
35.423
35.376
35.33
35.287
35.248
35.215
35.188
35.168
35.154
35.148
35.148
35.156
35.169
35.19
35.216
35.247
35.283
35.322
35.365
35.41
35.458
35.506
35.555
35.604
35.652
35.698
35.741
35.781
35.815
35.845
35.87
35.89
35.905
35.915
35.92
35.92
35.916
35.905
35.89
35.871
35.848
35.821
35.792
35.761
35.729
35.695
35.661
35.627
35.593
35.56
35.529
35.499
35.471
35.444
35.418
35.394
35.37
35.347
35.324
35.303
35.283
35.263
35.245
35.228
35.211
35.193
35.174
35.154
35.133
35.112
35.09
35.07
35.05
35.03
35.011
34.992
34.974
34.957
34.941
34.927
34.915
34.906
34.898
34.893
34.889
34.886
34.883
34.88
34.877
34.873
34.868
34.862
34.855
34.848
34.841
34.834
34.828
34.824
34.82
34.818
34.816
34.816
34.816
34.817
34.817
34.817
34.815
34.812
34.808
34.802
34.794
34.785
34.775
34.764
34.753
34.742
34.732
34.723
34.717
34.713
34.714
34.719
34.73
34.748
34.773
34.808
34.854
34.912
34.984
35.071
35.172
35.287
35.415
35.556
35.707
35.865
36.029
36.194
36.358
36.519
36.672
36.815
36.946
37.063
37.164
37.248
37.313
37.361
37.391
37.403
37.399
37.379
37.345
37.299
37.241
37.174
37.099
37.018
36.932
36.843
36.753
36.662
36.573
36.485
36.402
36.322
36.246
36.176
36.11
36.051
35.997
35.947
35.902
35.859
35.819
35.779
35.74
35.7
35.659
35.616
35.573
35.528
35.483
35.438
35.393
35.35
35.309
35.273
35.241
35.215
35.196
35.184
35.18
35.184
35.196
35.214
35.24
35.272
35.309
35.351
35.397
35.447
35.498
35.55
35.601
35.651
35.699
35.744
35.786
35.826
35.861
35.891
35.916
35.936
35.95
35.958
35.962
35.963
35.96
35.955
35.947
35.937
35.925
35.91
35.892
35.872
35.849
35.823
35.795
35.764
35.731
35.697
35.661
35.625
35.588
35.551
35.514
35.478
35.443
35.409
35.378
35.347
35.319
35.293
35.268
35.246
35.225
35.206
35.19
35.174
35.16
35.147
35.134
35.121
35.108
35.095
35.083
35.071
35.06
35.048
35.037
35.027
35.017
35.008
35.001
34.995
34.99
34.986
34.984
34.982
34.98
34.979
34.977
34.975
34.973
34.971
34.968
34.966
34.963
34.96
34.956
34.951
34.945
34.939
34.932
34.927
34.922
34.919
34.915
34.912
34.909
34.906
34.902
34.898
34.894
34.889
34.884
34.878
34.872
34.866
34.86
34.855
34.851
34.849
34.851
34.858
34.871
34.893
34.925
34.971
35.032
35.108
35.201
35.311
35.438
35.579
35.734
35.899
36.072
36.249
36.427
36.602
36.77
36.928
37.074
37.205
37.32
37.416
37.494
37.554
37.594
37.616
37.62
37.607
37.58
37.54
37.489
37.428
37.36
37.285
37.206
37.123
37.038
36.952
36.866
36.781
36.698
36.619
36.543
36.471
36.402
36.337
36.276
36.218
36.163
36.11
36.059
36.009
35.96
35.912
35.864
35.817
35.77
35.725
35.681
35.639
35.6
35.565
35.532
35.504
35.479
35.457
35.44
35.426
35.416
35.411
35.41
35.414
35.422
35.436
35.453
35.476
35.502
35.533
35.567
35.605
35.646
35.689
35.734
35.779
35.825
35.87
35.914
35.956
35.995
36.03
36.061
36.088
36.108
36.123
36.132
36.135
36.132
36.122
36.107
36.087
36.063
36.035
36.004
35.971
35.937
35.902
35.867
35.833
35.799
35.767
35.736
35.706
35.676
35.646
35.616
35.587
35.558
35.53
35.502
35.474
35.448
35.422
35.396
35.372
35.348
35.324
35.302
35.28
35.259
35.239
35.22
35.203
35.187
35.172
35.158
35.146
35.135
35.126
35.118
35.11
35.103
35.096
35.087
35.077
35.066
35.054
35.041
35.029
35.017
35.006
34.997
34.991
34.987
34.985
34.986
34.988
34.992
34.996
35.001
35.005
35.009
35.01
35.01
35.007
35.002
34.995
34.985
34.974
34.962
34.949
34.934
34.919
34.903
34.886
34.869
34.852
34.836
34.822
34.81
34.801
34.795
34.792
34.791
34.794
34.8
34.812
34.829
34.854
34.888
34.933
34.992
35.065
35.155
35.262
35.386
35.526
35.681
35.848
36.024
36.206
36.391
36.574
36.752
36.922
37.081
37.227
37.357
37.469
37.562
37.635
37.688
37.722
37.735
37.731
37.71
37.674
37.625
37.565
37.496
37.418
37.335
37.247
37.156
37.065
36.974
36.886
36.801
36.722
36.648
36.581
36.521
36.466
36.416
36.371
36.329
36.291
36.256
36.222
36.189
36.156
36.121
36.085
36.046
36.006
35.964
35.922
35.879
35.837
35.796
35.757
35.721
35.689
35.662
35.639
35.621
35.609
35.602
35.6
35.604
35.614
35.628
35.646
35.669
35.695
35.724
35.757
35.794
35.833
35.873
35.915
35.957
35.998
36.038
36.075
36.111
36.142
36.17
36.194
36.212
36.226
36.236
36.24
36.24
36.234
36.225
36.211
36.193
36.172
36.148
36.121
36.091
36.06
36.026
35.99
35.953
35.914
35.874
35.834
35.795
35.758
35.722
35.687
35.655
35.625
35.597
35.572
35.548
35.526
35.506
35.486
35.468
35.45
35.433
35.415
35.397
35.379
35.36
35.342
35.324
35.305
35.287
35.269
35.251
35.233
35.217
35.201
35.188
35.177
35.169
35.162
35.157
35.154
35.151
35.148
35.145
35.141
35.137
35.133
35.128
35.121
35.114
35.106
35.097
35.087
35.078
35.069
35.062
35.055
35.049
35.044
35.04
35.037
35.033
35.03
35.026
35.021
35.016
35.009
35.001
34.992
34.98
34.968
34.954
34.941
34.928
34.916
34.906
34.899
34.894
34.892
34.893
34.896
34.904
34.916
34.934
34.96
34.996
35.043
35.103
35.178
35.268
35.374
35.495
35.631
35.78
35.94
36.108
36.281
36.455
36.628
36.795
36.954
37.102
37.238
37.358
37.463
37.551
37.621
37.673
37.707
37.723
37.723
37.706
37.676
37.633
37.579
37.517
37.448
37.374
37.297
37.218
37.138
37.058
36.979
36.901
36.825
36.752
36.682
36.617
36.556
36.5
36.45
36.404
36.362
36.324
36.289
36.256
36.224
36.191
36.158
36.122
36.085
36.045
36.004
35.961
35.918
35.874
35.831
35.79
35.752
35.717
35.686
35.66
35.639
35.623
35.614
35.611
35.615
35.626
35.644
35.668
35.698
35.734
35.775
35.821
35.869
35.92
35.972
36.025
36.076
36.126
36.172
36.214
36.25
36.281
36.305
36.322
36.333
36.338
36.336
36.329
36.315
36.297
36.273
36.245
36.213
36.179
36.142
36.104
36.065
36.025
35.987
35.949
35.912
35.876
35.843
35.811
35.782
35.755
35.73
35.707
35.685
35.663
35.643
35.622
35.601
35.579
35.556
35.532
35.508
35.484
35.46
35.437
35.415
35.394
35.375
35.356
35.339
35.323
35.308
35.295
35.282
35.27
35.259
35.248
35.238
35.23
35.222
35.215
35.21
35.205
35.2
35.195
35.189
35.184
35.177
35.171
35.163
35.156
35.149
35.143
35.138
35.133
35.129
35.126
35.122
35.118
35.114
35.111
35.107
35.103
35.099
35.096
35.092
35.087
35.082
35.076
35.071
35.065
35.058
35.05
35.041
35.031
35.018
35.004
34.988
34.971
34.953
34.936
34.92
34.905
34.891
34.881
34.873
34.87
34.872
34.88
34.896
34.92
34.955
35.002
35.062
35.138
35.229
35.337
35.462
35.602
35.756
35.921
36.096
36.275
36.457
36.637
36.812
36.979
37.135
37.276
37.402
37.509
37.598
37.667
37.718
37.749
37.763
37.759
37.74
37.706
37.661
37.606
37.543
37.473
37.399
37.321
37.242
37.162
37.082
37.004
36.928
36.856
36.787
36.723
36.664
36.609
36.558
36.51
36.465
36.423
36.383
36.343
36.304
36.265
36.225
36.184
36.142
36.098
36.053
36.007
35.961
35.916
35.874
35.834
35.798
35.766
35.741
35.721
35.707
35.699
35.697
35.701
35.711
35.727
35.748
35.774
35.804
35.838
35.874
35.911
35.949
35.988
36.028
36.068
36.107
36.145
36.182
36.216
36.246
36.273
36.295
36.312
36.325
36.333
36.337
36.337
36.333
36.326
36.315
36.301
36.284
36.263
36.239
36.213
36.184
36.155
36.124
36.093
36.062
36.029
35.996
35.962
35.926
35.89
35.853
35.817
35.782
35.748
35.715
35.683
35.652
35.622
35.593
35.566
35.54
35.516
35.494
35.474
35.455
35.437
35.421
35.405
35.389
35.373
35.357
35.341
35.325
35.309
35.293
35.277
35.26
35.243
35.226
35.21
35.193
35.178
35.163
35.149
35.135
35.123
35.113
35.104
35.097
35.092
35.087
35.084
35.082
35.081
35.08
35.079
35.078
35.076
35.074
35.071
35.067
35.063
35.057
35.049
35.04
35.029
35.017
35.004
34.991
34.979
34.967
34.957
34.947
34.938
34.93
34.922
34.914
34.906
34.899
34.892
34.885
34.879
34.873
34.867
34.86
34.854
34.847
34.839
34.831
34.821
34.811
34.801
34.792
34.784
34.78
34.781
34.79
34.81
34.844
34.892
34.958
35.043
35.148
35.272
35.414
35.574
35.747
35.933
36.126
36.323
36.521
36.715
36.9
37.075
37.234
37.375
37.496
37.597
37.676
37.734
37.771
37.788
37.787
37.768
37.735
37.689
37.631
37.564
37.489
37.408
37.324
37.238
37.151
37.064
36.979
36.897
36.818
36.744
36.674
36.609
36.549
36.494
36.444
36.398
36.356
36.317
36.28
36.245
36.211
36.177
36.142
36.107
36.07
36.033
35.994
35.955
35.916
35.877
35.839
35.803
35.77
35.74
35.713
35.69
35.672
35.66
35.653
35.653
35.66
35.673
35.693
35.72
35.752
35.789
35.832
35.877
35.926
35.977
36.029
36.082
36.133
36.182
36.228
36.27
36.307
36.339
36.365
36.385
36.399
36.407
36.409
36.404
36.393
36.377
36.355
36.328
36.297
36.263
36.225
36.185
36.143
36.099
36.056
36.012
35.969
35.928
35.889
35.853
35.819
35.787
35.757
35.73
35.703
35.677
35.653
35.63
35.608
35.587
35.567
35.547
35.528
35.509
35.49
35.47
35.449
35.427
35.405
35.383
35.361
35.339
35.317
35.296
35.275
35.255
35.235
35.217
35.198
35.18
35.163
35.147
35.132
35.118
35.105
35.094
35.086
35.079
35.075
35.073
35.073
35.073
35.075
35.076
35.077
35.076
35.075
35.072
35.069
35.064
35.058
35.051
35.043
35.034
35.025
35.015
35.005
34.994
34.983
34.972
34.961
34.95
34.939
34.928
34.918
34.908
34.898
34.889
34.88
34.872
34.863
34.855
34.848
34.84
34.833
34.825
34.816
34.806
34.796
34.784
34.772
34.76
34.748
34.739
34.733
34.733
34.741
34.759
34.79
34.835
34.896
34.976
35.074
35.19
35.325
35.477
35.642
35.819
36.002
36.189
36.376
36.557
36.732
36.895
37.045
37.18
37.297
37.396
37.476
37.536
37.576
37.597
37.599
37.584
37.553
37.508
37.452
37.386
37.312
37.232
37.147
37.061
36.974
36.887
36.801
36.718
36.638
36.562
36.49
36.422
36.36
36.303
36.25
36.201
36.157
36.115
36.075
36.038
36.002
35.966
35.93
35.892
35.853
35.811
35.769
35.726
35.683
35.641
35.6
35.563
35.53
35.501
35.477
35.46
35.448
35.443
35.444
35.452
35.466
35.487
35.513
35.546
35.583
35.624
35.668
35.716
35.766
35.817
35.869
35.921
35.971
36.019
36.063
36.103
36.138
36.168
36.191
36.209
36.22
36.225
36.224
36.217
36.204
36.187
36.164
36.138
36.108
36.075
36.04
36.003
35.965
35.925
35.884
35.841
35.799
35.757
35.716
35.676
35.638
35.601
35.567
35.535
35.505
35.477
35.451
35.427
35.405
35.384
35.365
35.347
35.329
35.313
35.296
35.28
35.264
35.247
35.23
35.212
35.194
35.176
35.157
35.137
35.117
35.097
35.076
35.057
35.038
35.02
35.004
34.991
34.979
34.97
34.963
34.957
34.953
34.95
34.948
34.946
34.945
34.942
34.94
34.937
34.933
34.929
34.923
34.916
34.908
34.899
34.89
34.88
34.87
34.859
34.846
34.833
34.82
34.806
34.794
34.782
34.771
34.762
34.754
34.747
34.741
34.735
34.729
34.724
34.718
34.713
34.707
34.701
34.695
34.688
34.68
34.672
34.662
34.652
34.641
34.629
34.619
34.61
34.604
34.602
34.606
34.617
34.639
34.674
34.726
34.794
34.882
34.988
35.112
35.253
35.408
35.575
35.752
35.936
36.122
36.309
36.492
36.668
36.834
36.987
37.123
37.241
37.339
37.417
37.474
37.511
37.527
37.522
37.498
37.458
37.402
37.334
37.257
37.173
37.085
36.995
36.905
36.816
36.73
36.648
36.57
36.496
36.426
36.36
36.297
36.236
36.178
36.122
36.069
36.017
35.967
35.919
35.871
35.824
35.778
35.732
35.687
35.643
35.599
35.556
35.514
35.474
35.436
35.401
35.37
35.342
35.318
35.299
35.285
35.276
35.273
35.275
35.284
35.297
35.316
35.339
35.366
35.397
35.432
35.471
35.513
35.557
35.602
35.649
35.696
35.743
35.788
35.832
35.872
35.909
35.94
35.966
35.987
36.001
36.009
36.01
36.005
35.995
35.979
35.958
35.934
35.906
35.875
35.841
35.805
35.767
35.727
35.686
35.645
35.603
35.562
35.522
35.482
35.443
35.405
35.369
35.335
35.303
35.273
35.246
35.22
35.197
35.175
35.154
35.135
35.116
35.097
35.079
35.061
35.043
35.025
35.008
34.992
34.975
34.959
34.943
34.926
34.909
34.891
34.874
34.857
34.839
34.821
34.804
34.786
34.769
34.753
34.739
34.727
34.716
34.708
34.702
34.699
34.698
34.698
34.7
34.701
34.703
34.704
34.705
34.705
34.705
34.705
34.703
