Trial 1:0back
33.747
33.788
33.847
33.926
34.027
34.151
34.297
34.466
34.656
34.867
35.096
35.341
35.597
35.859
36.122
36.382
36.635
36.877
37.104
37.313
37.501
37.667
37.809
37.927
38.021
38.093
38.142
38.173
38.185
38.183
38.17
38.147
38.118
38.085
38.051
38.016
37.981
37.947
37.914
37.883
37.855
37.83
37.808
37.79
37.775
37.764
37.754
37.746
37.739
37.733
37.727
37.723
37.72
37.719
37.72
37.721
37.721
37.72
37.716
37.71
37.7
37.686
37.668
37.645
37.617
37.585
37.548
37.508
37.464
37.418
37.37
37.32
37.269
37.217
37.167
37.119
37.076
37.037
37.003
36.975
36.95
36.93
36.913
36.9
36.89
36.883
36.879
36.877
36.877
36.876
36.875
36.873
36.87
36.866
36.861
36.854
36.845
36.833
36.818
36.799
36.776
36.75
36.722
36.693
36.663
36.633
36.603
36.574
36.544
36.515
36.487
36.459
36.43
36.401
36.371
36.34
36.307
36.272
36.236
36.198
36.159
36.118
36.078
36.036
35.996
35.957
35.919
35.884
35.85
35.816
35.784
35.751
35.718
35.685
35.653
35.621
35.589
35.558
35.526
35.496
35.466
35.438
35.41
35.384
35.357
35.329
35.3
35.269
35.236
35.2
35.163
35.125
35.087
35.05
35.014
34.98
34.948
34.92
34.894
34.871
34.85
34.832
34.816
34.801
34.787
34.775
34.763
34.752
34.741
34.732
34.723
34.714
34.703
34.692
34.679
34.664
34.648
34.63
34.611
34.589
34.566
34.54
34.514
34.486
34.458
34.428
34.399
34.37
34.342
34.316
34.292
34.27
34.25
34.232
34.215
34.2
34.185
34.171
34.158
34.145
34.133
34.12
34.107
34.091
34.074
34.058
34.042
34.027
34.014
34.002
33.989
33.976
33.961
33.945
33.927
33.907
33.885
33.863
33.84
33.816
33.793
33.77
33.748
33.727
33.709
33.695
33.685
33.681
33.685
33.699
33.726
33.77
33.833
33.917
34.023
34.153
34.307
34.485
34.686
34.91
35.153
35.41
35.676
35.945
36.214
36.477
36.731
36.972
37.197
37.402
37.585
37.745
37.881
37.993
38.081
38.147
38.191
38.217
38.226
38.221
38.205
38.179
38.146
38.109
38.067
38.024
37.98
37.937
37.894
37.853
37.814
37.777
37.742
37.711
37.683
37.658
37.637
37.619
37.605
37.593
37.584
37.577
37.57
37.563
37.553
37.542
37.529
37.512
37.494
37.474
37.451
37.425
37.396
37.363
37.327
37.287
37.244
37.199
37.153
37.105
37.056
37.005
36.954
36.903
36.854
36.808
36.766
36.727
36.691
36.658
36.628
36.601
36.578
36.56
36.546
36.536
36.529
36.525
36.524
36.524
36.525
36.525
36.523
36.521
36.516
36.51
36.501
36.489
36.475
36.458
36.437
36.414
36.388
36.359
36.327
36.293
36.258
36.222
36.186
36.151
36.116
36.081
36.045
36.01
35.975
35.942
35.911
35.881
35.851
35.821
35.789
35.757
35.722
35.687
35.65
35.613
35.574
35.533
35.49
35.445
35.397
35.349
35.299
35.251
35.204
35.158
35.115
35.074
35.035
35.0
34.967
34.936
34.907
34.878
34.85
34.823
34.796
34.769
34.744
34.721
34.699
34.68
34.663
34.649
34.637
34.626
34.615
34.605
34.594
34.583
34.57
34.556
34.542
34.528
34.515
34.503
34.492
34.481
34.47
34.457
34.443
34.428
34.412
34.395
34.377
34.358
34.337
34.315
34.291
34.267
34.242
34.217
34.193
34.17
34.148
34.127
34.108
34.089
34.072
34.057
34.042
34.028
34.015
34.002
33.99
33.979
33.971
33.964
33.958
33.952
33.943
33.932
33.918
33.901
33.882
33.861
33.84
33.818
33.797
33.778
33.759
33.743
33.728
33.715
33.702
33.691
33.681
33.671
33.66
33.649
33.638
33.626
33.614
33.602
33.592
33.582
33.573
33.568
33.569
33.575
33.589
33.612
33.646
33.692
33.755
33.837
33.94
34.065
34.214
34.386
34.578
34.79
35.017
35.256
35.502
35.751
35.998
36.238
36.467
36.682
36.879
37.055
37.208
37.337
37.443
37.525
37.585
37.624
37.643
37.645
37.633
37.608
37.574
37.532
37.484
37.432
37.376
37.32
37.263
37.208
37.157
37.11
37.067
37.027
36.99
36.955
36.924
36.896
36.871
36.849
36.829
36.81
36.792
36.773
36.754
36.735
36.716
36.697
36.676
36.653
36.628
36.599
36.568
36.533
36.496
36.457
36.416
36.374
36.33
36.285
36.241
36.197
36.155
36.115
36.077
36.043
36.013
35.988
35.968
35.954
35.947
35.947
35.951
35.96
35.972
35.987
36.002
36.017
36.031
36.044
36.054
36.062
36.066
36.066
36.062
36.055
36.044
36.031
36.015
35.996
35.974
35.949
35.922
35.894
35.865
35.836
35.806
35.776
35.745
35.713
35.679
35.645
35.61
35.575
35.54
35.504
35.468
35.433
35.397
35.362
35.327
35.295
35.264
35.237
35.212
35.188
35.164
35.14
35.116
35.09
35.063
35.033
35.0
34.965
34.929
34.891
34.853
34.815
34.778
34.743
34.709
34.677
34.646
34.617
34.589
34.563
34.54
34.518
34.498
34.479
34.46
34.442
34.423
34.404
34.386
34.366
34.347
34.326
34.306
34.285
34.266
34.247
34.23
34.214
34.199
34.185
34.172
34.16
34.147
34.133
34.119
34.105
34.089
34.073
34.057
34.04
34.023
34.008
33.995
33.982
33.969
33.957
33.943
33.928
33.914
33.899
33.885
33.872
33.859
33.846
33.832
33.818
33.804
33.789
33.775
33.761
33.746
33.732
33.718
33.702
33.687
33.671
33.656
33.641
33.625
33.608
33.591
33.573
33.556
33.54
33.524
33.509
33.494
33.479
33.463
33.447
33.429
33.41
33.391
33.372
33.355
33.339
33.326
33.316
33.311
33.313
33.324
33.347
33.385
33.44
33.516
33.613
33.734
33.879
34.048
34.24
34.453
34.685
34.931
35.189
35.455
35.724
35.992
36.254
36.505
36.739
36.953
37.143
37.309
37.45
37.567
37.659
37.728
37.773
37.798
37.805
37.795
37.773
37.74
37.7
37.655
37.606
37.556
37.504
37.454
37.405
37.36
37.319
37.281
37.249
37.222
37.201
37.184
37.172
37.164
37.158
37.155
37.154
37.155
37.157
37.16
37.161
37.16
37.157
37.151
37.143
37.132
37.118
37.101
37.081
37.058
37.034
37.007
36.978
36.947
36.912
36.874
36.833
36.79
36.747
36.704
36.66
36.616
36.572
36.528
36.486
36.447
36.412
36.382
36.357
36.336
36.319
36.306
36.294
36.284
36.275
36.267
36.26
36.254
36.25
36.246
36.242
36.239
36.235
36.23
36.224
36.216
36.207
36.195
36.181
36.165
36.148
36.13
36.11
36.089
36.066
36.04
36.01
35.979
35.946
35.91
35.872
35.832
35.79
35.744
35.697
35.649
35.604
35.561
35.523
35.487
35.454
35.422
35.39
35.359
35.328
35.298
35.268
35.238
35.207
35.176
35.144
35.111
35.079
35.047
35.016
34.986
34.956
34.924
34.891
34.855
34.819
34.783
34.748
34.715
34.685
34.658
34.634
34.613
34.595
34.579
34.565
34.551
34.538
34.525
34.51
34.494
34.477
34.458
34.437
34.415
34.391
34.364
34.335
34.306
34.276
34.248
34.221
34.197
34.175
34.157
34.141
34.127
34.117
34.108
34.101
34.095
34.089
34.084
34.077
34.071
34.064
34.056
34.048
34.039
34.029
34.017
34.002
33.984
33.965
33.943
33.92
33.896
33.87
33.843
33.816
33.789
33.763
33.74
33.72
33.703
33.688
33.676
33.665
33.656
33.648
33.639
33.631
33.624
33.616
33.609
33.6
33.589
33.576
33.56
33.543
33.525
33.505
33.483
33.46
33.437
33.415
33.395
33.378
33.364
33.353
33.344
33.338
33.334
33.331
33.331
33.335
33.343
33.358
33.382
33.418
33.469
33.538
33.627
33.738
33.873
34.032
34.215
34.419
34.643
34.883
35.136
35.397
35.662
35.924
36.179
36.422
36.649
36.86
37.05
37.22
37.367
37.489
37.585
37.656
37.703
37.727
37.732
37.718
37.69
37.65
37.6
37.544
37.483
37.421
37.361
37.305
37.255
37.211
37.173
37.142
37.118
37.099
37.085
37.075
37.068
37.065
37.065
37.065
37.067
37.07
37.073
37.075
37.076
37.075
37.073
37.069
37.062
37.053
37.042
37.026
37.006
36.982
36.952
36.916
36.873
36.824
36.771
36.716
36.66
36.605
36.551
36.499
36.45
36.403
36.359
36.321
36.287
36.258
36.234
36.213
36.196
36.183
36.172
36.163
36.156
36.15
36.144
36.14
36.136
36.133
36.131
36.128
36.124
36.12
36.114
36.107
36.099
36.09
36.079
36.068
36.056
36.044
36.032
36.018
36.0
35.979
35.954
35.925
35.893
35.86
35.824
35.787
35.748
35.708
35.667
35.625
35.584
35.544
35.505
35.468
35.43
35.394
35.357
35.322
35.287
35.254
35.222
35.191
35.161
35.131
35.102
35.073
35.045
35.018
34.991
34.964
34.938
34.912
34.887
34.862
34.838
34.812
34.786
34.759
34.731
34.704
34.676
34.649
34.623
34.597
34.573
34.549
34.525
34.501
34.478
34.455
34.432
34.411
34.39
34.37
34.35
34.33
34.311
34.295
34.281
34.269
34.26
34.252
34.245
34.235
34.222
34.202
34.177
34.146
34.11
34.072
34.033
33.995
33.958
33.925
33.896
33.871
33.852
33.836
33.825
33.816
33.81
33.806
33.805
33.805
33.807
33.809
33.81
33.809
33.805
33.8
33.792
33.783
33.772
33.759
33.745
33.728
33.709
33.687
33.664
33.64
33.616
33.594
33.572
33.552
33.535
33.519
33.506
33.494
33.484
33.474
33.465
33.455
33.446
33.437
33.429
33.422
33.416
33.409
33.401
33.391
33.379
33.365
33.349
33.332
33.313
33.294
33.274
33.255
33.236
33.219
33.204
33.19
33.178
33.169
33.162
33.158
33.156
33.159
33.166
33.182
33.208
33.246
33.299
33.368
33.456
33.566
33.7
33.859
34.042
34.248
34.474
34.717
34.971
35.231
35.493
35.751
35.999
36.234
36.452
36.65
36.826
36.976
37.101
37.201
37.275
37.325
37.352
37.359
37.348
37.322
37.284
37.235
37.181
37.122
37.062
37.001
36.943
36.887
36.834
36.785
36.741
36.702
36.667
36.635
36.606
36.579
36.553
36.53
36.508
36.488
36.471
36.455
36.44
36.427
36.415
36.404
36.394
36.385
36.375
36.365
36.352
36.337
36.317
36.295
36.268
36.236
36.201
36.163
36.122
36.079
36.035
35.993
35.952
35.913
35.877
35.846
35.818
35.794
35.773
35.757
35.744
35.736
35.732
35.731
35.732
35.735
35.739
35.743
35.748
35.753
35.758
35.762
35.764
35.764
35.761
35.756
35.75
35.743
35.734
35.724
35.712
35.697
35.679
35.66
35.639
35.614
35.588
35.559
35.528
35.497
35.468
35.44
35.414
35.388
35.362
35.335
35.305
35.274
35.239
35.203
35.165
35.126
35.088
35.049
35.011
34.973
34.935
34.899
34.864
34.83
34.799
34.769
34.741
34.714
34.687
34.66
34.634
34.609
34.587
34.568
34.55
34.534
34.519
34.506
34.494
34.483
34.473
34.464
34.453
34.441
34.427
34.412
34.396
34.379
34.361
34.344
34.325
34.306
34.286
34.265
34.243
34.221
34.199
34.177
34.156
34.135
34.114
34.093
34.073
34.055
34.039
34.025
34.013
34.003
33.993
33.983
33.974
33.965
33.958
33.951
33.944
33.937
33.928
33.918
33.905
33.892
33.877
33.86
33.841
33.82
33.798
33.775
33.752
33.729
33.707
33.686
33.666
33.646
33.628
33.61
33.594
33.58
33.567
33.557
33.547
33.538
33.529
33.52
33.511
33.501
33.492
33.482
33.473
33.464
33.454
33.446
33.437
33.429
33.422
33.414
33.407
33.4
33.394
33.387
33.383
33.381
33.384
33.393
33.411
33.441
33.485
33.547
33.632
33.741
33.875
34.034
34.217
34.421
34.643
34.879
35.125
35.377
35.629
35.878
36.118
36.345
36.557
36.75
36.921
37.069
37.194
37.296
37.375
37.432
37.47
37.489
37.492
37.48
37.456
37.423
37.383
37.338
37.291
37.243
37.195
37.149
37.105
37.064
37.026
36.991
36.959
36.93
36.904
36.884
36.869
36.857
36.849
36.842
36.836
36.83
36.823
36.818
36.813
36.808
36.804
36.8
36.794
36.786
36.775
36.759
36.739
36.714
36.684
36.649
36.61
36.567
36.522
36.474
36.425
36.375
36.327
36.28
36.236
36.194
36.156
36.122
36.09
36.062
36.036
36.013
35.992
35.974
35.959
35.946
35.936
35.931
35.929
35.93
35.934
35.939
35.945
35.952
35.957
35.962
35.966
35.966
35.962
35.955
35.943
35.927
35.909
35.89
35.868
35.846
35.824
35.8
35.777
35.752
35.726
35.699
35.67
35.64
35.61
35.578
35.545
35.511
35.477
35.443
35.409
35.376
35.344
35.312
35.281
35.249
35.217
35.186
35.154
35.121
35.087
35.053
35.017
34.981
34.945
34.909
34.874
34.84
34.808
34.777
34.749
34.721
34.695
34.669
34.646
34.625
34.606
34.588
34.571
34.556
34.541
34.526
34.511
34.496
34.48
34.462
34.442
34.421
34.399
34.377
34.355
34.334
34.314
34.295
34.277
34.26
34.244
34.23
34.218
34.207
34.197
34.185
34.172
34.156
34.139
34.119
34.098
34.076
34.052
34.029
34.005
33.983
33.963
33.946
33.93
33.917
33.906
33.896
33.888
33.88
33.873
33.867
33.861
33.857
33.852
33.846
33.839
33.831
33.821
33.81
33.798
33.785
33.769
33.751
33.73
33.708
33.683
33.659
33.634
33.611
33.59
33.57
33.552
33.536
33.522
33.51
33.499
33.491
33.485
33.479
33.474
33.469
33.463
33.455
33.445
33.432
33.417
33.399
33.379
33.357
33.336
33.316
33.301
33.29
33.285
33.287
33.299
33.322
33.359
33.413
33.486
33.581
33.699
33.841
34.006
34.194
34.401
34.624
34.86
35.105
35.353
35.601
35.843
36.074
36.291
36.491
36.671
36.829
36.964
37.074
37.161
37.224
37.266
37.29
37.298
37.292
37.273
37.244
37.206
37.162
37.115
37.066
37.018
36.971
36.927
36.885
36.846
36.81
36.779
36.753
36.731
36.714
36.701
36.692
36.688
36.686
36.688
36.691
36.695
36.7
36.705
36.709
36.712
36.713
36.71
36.704
36.695
36.681
36.664
36.642
36.615
36.584
36.548
36.508
36.466
36.422
36.377
36.33
36.283
36.236
36.191
36.149
36.111
36.077
36.048
36.024
36.004
35.988
35.977
35.97
35.967
35.967
35.969
35.973
35.978
35.984
35.989
35.993
35.997
35.999
36.0
35.999
35.997
35.993
35.987
35.98
35.971
35.961
35.951
35.939
35.924
35.906
35.885
35.861
35.834
35.804
35.773
35.74
35.707
35.673
35.638
35.602
35.567
35.531
35.496
35.461
35.425
35.39
35.354
35.319
35.284
35.25
35.219
35.192
35.168
35.147
35.127
35.106
35.084
35.061
35.036
35.009
34.979
34.947
34.914
34.88
34.847
34.815
34.784
34.753
34.723
34.693
34.663
34.635
34.607
34.581
34.557
34.533
34.51
34.488
34.466
34.444
34.423
34.404
34.387
34.372
34.357
34.343
34.329
34.316
34.303
34.29
34.277
34.263
34.249
34.236
34.222
34.209
34.198
34.188
34.179
34.171
34.164
34.158
34.15
34.141
34.13
34.117
34.104
34.088
34.071
34.053
34.034
34.013
33.992
33.971
33.95
33.93
33.91
33.89
33.871
33.852
33.834
33.817
33.802
33.79
33.779
33.771
33.764
33.759
33.754
33.749
33.743
33.736
33.729
33.72
33.71
33.698
33.686
33.672
33.656
33.636
33.613
33.589
33.565
33.542
33.523
33.507
33.494
33.483
33.474
33.467
33.46
33.454
33.449
33.443
33.437
33.43
33.423
33.415
33.407
33.398
33.391
33.386
33.385
33.389
33.401
33.424
33.459
33.511
33.58
33.671
33.784
33.919
34.074
34.247
34.437
34.641
34.857
35.082
35.313
35.544
35.771
35.991
36.198
36.389
36.563
36.717
36.849
36.961
37.05
37.119
37.168
37.198
37.21
37.208
37.192
37.165
37.129
37.088
37.043
36.995
36.948
36.901
36.855
36.812
36.772
36.735
36.701
36.669
36.638
36.608
36.579
36.551
36.523
36.494
36.465
36.436
36.408
36.383
36.361
36.342
36.325
36.306
36.285
36.26
36.23
36.196
36.159
36.117
36.073
36.026
35.977
35.926
35.876
35.826
35.778
35.732
35.691
35.655
35.624
35.599
35.578
35.563
35.552
35.545
35.542
35.544
35.549
35.557
35.571
35.59
35.614
35.64
35.669
35.697
35.724
35.748
35.767
35.781
35.79
35.792
35.787
35.775
35.756
35.731
35.703
35.671
35.639
35.606
35.574
35.543
35.512
35.481
35.45
35.419
35.388
35.358
35.328
35.299
35.27
35.242
35.215
35.188
35.162
35.138
35.113
35.088
35.061
35.033
35.003
34.972
34.941
34.911
34.883
34.855
34.827
34.799
34.769
34.739
34.708
34.677
34.647
34.616
34.583
34.548
34.512
34.476
34.44
34.406
34.373
34.342
34.313
34.286
34.26
34.237
34.216
34.198
34.184
34.171
34.161
34.151
34.142
34.133
34.123
34.112
34.101
34.088
34.074
34.059
34.043
34.027
34.011
33.998
33.987
33.977
33.967
33.955
33.942
33.926
33.907
33.888
33.867
33.847
33.828
33.813
33.8
33.792
33.789
33.79
33.794
33.8
33.809
33.818
33.827
33.838
33.85
33.863
33.876
33.887
33.896
33.899
33.898
33.892
33.88
33.866
33.847
33.825
33.8
33.772
33.743
33.713
33.685
33.66
33.639
33.623
33.611
33.601
33.595
33.591
33.592
33.599
33.614
33.638
33.675
33.728
33.797
33.885
33.994
34.123
34.274
34.445
34.636
34.842
35.061
35.291
35.528
35.769
36.009
36.243
36.467
36.677
36.871
37.046
37.202
37.339
37.456
37.552
37.628
37.684
37.723
37.745
37.754
37.751
37.738
37.716
37.689
37.657
37.621
37.584
37.546
37.507
37.468
37.431
37.396
37.363
37.333
37.306
37.281
37.259
37.24
37.224
37.211
37.2
37.192
37.184
37.177
37.17
37.161
37.151
37.138
37.123
37.104
37.081
37.054
37.025
36.992
36.957
36.919
36.877
36.832
36.783
36.733
36.682
36.63
36.578
36.526
36.474
36.425
36.378
36.336
36.297
36.265
36.238
36.217
36.203
36.193
36.188
36.187
36.188
36.192
36.197
36.202
36.208
36.214
36.218
36.22
36.221
36.218
36.214
36.207
36.197
36.183
36.166
36.145
36.121
36.093
36.062
36.029
35.994
35.958
35.921
35.882
35.844
35.805
35.768
35.731
35.694
35.658
35.62
35.582
35.544
35.505
35.465
35.424
35.383
35.341
35.3
35.26
35.221
35.184
35.148
35.115
35.082
35.05
35.018
34.985
34.952
34.918
34.885
34.853
34.822
34.791
34.762
34.734
34.708
34.685
34.663
34.643
34.623
34.602
34.579
34.554
34.527
34.495
34.46
34.423
34.385
34.347
34.31
34.275
34.243
34.217
34.195
34.179
34.168
34.16
34.156
34.153
34.152
34.152
34.153
34.154
34.155
34.156
34.155
34.153
34.149
34.144
34.137
34.128
34.118
34.105
34.091
34.075
34.059
34.043
34.028
34.012
33.996
33.979
33.962
33.942
33.922
33.902
33.883
33.865
33.848
33.834
33.82
33.809
33.798
33.787
33.777
33.768
33.759
33.75
33.74
33.73
33.719
33.708
33.696
33.683
33.669
33.654
33.637
33.62
33.601
33.582
33.563
33.544
33.527
33.511
33.499
33.492
33.492
33.501
33.522
33.558
33.612
33.685
33.781
33.901
34.046
34.215
34.405
34.615
34.841
35.08
35.328
35.581
35.836
36.088
36.334
36.569
36.79
36.993
37.176
37.337
37.475
37.589
37.681
37.751
37.801
37.831
37.843
37.839
37.823
37.797
37.764
37.727
37.689
37.649
37.611
37.574
37.539
37.507
37.477
37.449
37.423
37.398
37.376
37.356
37.338
37.322
37.308
37.295
37.284
37.273
37.263
37.253
37.244
37.235
37.226
37.215
37.203
37.189
37.172
37.151
37.125
37.093
37.055
37.013
36.966
36.915
36.862
36.806
36.748
36.69
36.633
36.579
36.528
36.481
36.437
36.397
36.361
36.327
36.297
36.271
36.247
36.226
36.208
36.193
36.18
36.169
36.159
36.15
36.142
36.133
36.125
36.116
36.107
36.096
36.084
36.07
36.055
36.039
36.022
36.004
35.985
35.966
35.946
35.927
35.908
35.889
35.869
35.846
35.819
35.788
35.752
35.713
35.67
35.624
35.576
35.525
35.472
35.417
35.361
35.304
35.248
35.193
35.139
35.087
35.036
34.987
34.94
34.895
34.853
34.813
34.775
34.739
34.704
34.671
34.639
34.608
34.579
34.551
34.524
34.498
34.474
34.449
34.425
34.401
34.378
34.354
34.332
34.309
34.285
34.262
34.238
34.214
34.191
34.168
34.146
34.126
34.107
34.089
34.072
34.057
34.041
34.026
34.01
33.993
33.975
33.957
33.937
33.917
33.896
33.874
33.853
33.834
33.815
33.799
33.784
33.772
33.762
33.755
33.749
33.745
33.742
33.738
33.735
33.731
33.725
33.718
33.709
33.696
33.681
33.663
33.643
33.622
33.601
33.58
33.559
33.54
33.523
33.507
33.492
33.479
33.466
33.454
33.442
33.429
33.416
33.402
33.389
33.376
33.366
33.357
33.349
33.341
33.333
33.324
33.314
33.304
33.293
33.281
33.268
33.255
33.24
33.227
33.216
33.211
33.212
33.225
33.251
33.293
33.355
33.437
33.542
33.669
33.821
33.996
34.191
34.403
34.629
34.866
35.108
35.354
35.599
