Trial 1:0back
34.372
34.313
34.255
34.196
34.137
34.077
34.017
33.957
33.897
33.838
33.78
33.723
33.668
33.613
33.56
33.507
33.456
33.407
33.359
33.312
33.267
33.226
33.188
33.154
33.122
33.092
33.063
33.033
33.003
32.972
32.939
32.904
32.866
32.826
32.783
32.739
32.694
32.649
32.604
32.562
32.524
32.492
32.464
32.442
32.427
32.421
32.426
32.444
32.475
32.521
32.584
32.666
32.768
32.891
33.035
33.201
33.388
33.595
33.825
34.08
34.363
34.678
35.027
35.409
35.823
36.264
36.722
37.19
37.654
38.103
38.527
38.915
39.258
39.553
39.794
39.982
40.116
40.196
40.228
40.215
40.165
40.085
39.979
39.856
39.719
39.574
39.426
39.28
39.139
39.008
38.887
38.776
38.674
38.58
38.492
38.41
38.329
38.25
38.17
38.088
38.002
37.912
37.817
37.718
37.616
37.512
37.407
37.301
37.196
37.091
36.988
36.887
36.788
36.693
36.604
36.519
36.44
36.366
36.296
36.232
36.172
36.116
36.066
36.02
35.981
35.947
35.918
35.893
35.872
35.853
35.835
35.818
35.8
35.783
35.766
35.75
35.733
35.716
35.697
35.677
35.653
35.627
35.598
35.567
35.533
35.498
35.462
35.423
35.383
35.34
35.294
35.245
35.194
35.143
35.089
35.033
34.974
34.913
34.851
34.789
34.728
34.668
34.611
34.557
34.506
34.457
34.411
34.367
34.324
34.28
34.235
34.188
34.14
34.09
34.04
33.988
33.936
33.883
33.829
33.772
33.714
33.654
33.593
33.532
33.471
33.41
33.35
33.293
33.236
33.18
33.125
33.073
33.023
32.976
32.932
32.892
32.854
32.818
32.784
32.751
32.72
32.689
32.66
32.632
32.605
32.579
32.553
32.527
32.5
32.471
32.439
32.405
32.369
32.33
32.289
32.252
32.221
32.199
32.187
32.183
32.189
32.205
32.231
32.269
32.318
32.38
32.456
32.547
32.653
32.776
32.915
33.072
33.247
33.441
33.655
33.893
34.158
34.454
34.783
35.145
35.54
35.962
36.403
36.854
37.303
37.741
38.155
38.536
38.876
39.167
39.407
39.592
39.722
39.798
39.826
39.81
39.755
39.668
39.555
39.423
39.276
39.122
38.966
38.811
38.663
38.523
38.393
38.271
38.161
38.06
37.969
37.886
37.809
37.736
37.666
37.597
37.528
37.457
37.384
37.307
37.225
37.138
37.045
36.948
36.846
36.743
36.64
36.538
36.438
36.343
36.252
36.165
36.082
36.003
35.93
35.862
35.799
35.741
35.69
35.646
35.608
35.575
35.549
35.528
35.512
35.499
35.487
35.478
35.469
35.461
35.451
35.439
35.425
35.409
35.39
35.367
35.342
35.316
35.288
35.26
35.231
35.203
35.173
35.142
35.109
35.074
35.037
34.999
34.96
34.921
34.882
34.841
34.798
34.754
34.708
34.659
34.61
34.559
34.506
34.452
34.395
34.337
34.278
34.216
34.153
34.089
34.026
33.964
33.903
33.843
33.784
33.724
33.664
33.605
33.546
33.489
33.436
33.386
33.339
33.294
33.251
33.208
33.164
33.12
33.073
33.027
32.981
32.935
32.889
32.844
32.798
32.752
32.708
32.665
32.626
32.591
32.559
32.531
32.505
32.48
32.456
32.432
32.407
32.382
32.357
32.332
32.308
32.282
32.255
32.226
32.196
32.164
32.132
32.101
32.071
32.045
32.022
32.006
31.997
31.998
32.011
32.039
32.083
32.145
32.225
32.325
32.445
32.585
32.745
32.924
33.121
33.339
33.582
33.853
34.153
34.48
34.835
35.213
35.612
36.026
36.447
36.866
37.273
37.66
38.017
38.337
38.614
38.844
39.026
39.159
39.244
39.282
39.277
39.235
39.163
39.065
38.949
38.819
38.679
38.534
38.387
38.242
38.103
37.971
37.848
37.734
37.628
37.529
37.438
37.353
37.272
37.193
37.116
37.039
36.962
36.884
36.805
36.725
36.643
36.559
36.473
36.385
36.295
36.206
36.117
36.029
35.943
35.859
35.779
35.704
35.632
35.565
35.503
35.448
35.4
35.359
35.325
35.297
35.274
35.254
35.237
35.223
35.211
35.203
35.197
35.192
35.188
35.184
35.18
35.175
35.169
35.161
35.152
35.14
35.127
35.113
35.098
35.082
35.065
35.047
35.026
35.003
34.976
34.946
34.912
34.874
34.833
34.791
34.746
34.698
34.647
34.594
34.539
34.482
34.423
34.365
34.307
34.249
34.193
34.138
34.083
34.029
33.976
33.922
33.869
33.819
33.77
33.724
33.677
33.631
33.584
33.536
33.487
33.438
33.387
33.337
33.285
33.234
33.181
33.129
33.075
33.023
32.971
32.92
32.873
32.829
32.788
32.749
32.712
32.676
32.642
32.61
32.579
32.549
32.52
32.492
32.464
32.435
32.406
32.377
32.348
32.318
32.289
32.261
32.233
32.206
32.178
32.149
32.122
32.096
32.071
32.048
32.025
32.003
31.982
31.963
31.947
31.936
31.932
31.937
31.954
31.984
32.03
32.093
32.174
32.275
32.397
32.538
32.7
32.881
33.079
33.293
33.523
33.765
34.02
34.287
34.566
34.859
35.168
35.492
35.831
36.181
36.535
36.889
37.232
37.557
37.857
38.127
38.36
38.553
38.702
38.806
38.867
38.887
38.869
38.816
38.734
38.628
38.505
38.369
38.226
38.08
37.934
37.793
37.658
37.53
37.413
37.306
37.21
37.123
37.043
36.968
36.899
36.832
36.767
36.701
36.633
36.561
36.486
36.408
36.326
36.242
36.157
36.072
35.985
35.9
35.815
35.734
35.656
35.583
35.515
35.453
35.397
35.348
35.307
35.274
35.248
35.229
35.215
35.207
35.204
35.204
35.209
35.215
35.222
35.228
35.235
35.24
35.244
35.245
35.244
35.239
35.232
35.222
35.21
35.197
35.182
35.164
35.144
35.122
35.097
35.07
35.041
35.009
34.976
34.939
34.901
34.858
34.812
34.763
34.71
34.657
34.602
34.547
34.493
34.44
34.389
34.339
34.289
34.24
34.189
34.138
34.086
34.033
33.98
33.929
33.878
33.827
33.777
33.727
33.677
33.629
33.581
33.534
33.489
33.444
33.4
33.356
33.311
33.266
33.22
33.173
33.126
33.079
33.033
32.989
32.945
32.901
32.858
32.815
32.774
32.735
32.699
32.666
32.636
32.608
32.582
32.558
32.534
32.509
32.481
32.451
32.419
32.386
32.352
32.316
32.279
32.241
32.205
32.17
32.138
32.109
32.083
32.062
32.045
32.033
32.028
32.031
32.047
32.076
32.121
32.183
32.264
32.364
32.484
32.622
32.78
32.955
33.148
33.355
33.576
33.81
34.054
34.309
34.573
34.845
35.126
35.418
35.72
36.03
36.348
36.669
36.987
37.297
37.59
37.861
38.103
38.313
38.484
38.614
38.704
38.755
38.768
38.748
38.698
38.623
38.526
38.412
38.285
38.15
38.01
37.868
37.727
37.59
37.457
37.331
37.214
37.105
37.005
36.912
36.825
36.743
36.663
36.586
36.51
36.434
36.359
36.283
36.205
36.126
36.046
35.968
35.891
35.816
35.743
35.672
35.603
35.538
35.476
35.419
35.366
35.319
35.277
35.241
35.209
35.184
35.164
35.15
35.141
35.135
35.133
35.135
35.14
35.147
35.155
35.164
35.172
35.177
35.179
35.178
35.174
35.164
35.15
35.131
35.107
35.079
35.047
35.013
34.975
34.936
34.896
34.855
34.813
34.772
34.733
34.696
34.661
34.628
34.595
34.562
34.527
34.49
34.45
34.406
34.358
34.309
34.258
34.206
34.155
34.105
34.058
34.012
33.967
33.922
33.879
33.836
33.793
33.75
33.706
33.66
33.611
33.559
33.504
33.448
33.391
33.334
33.279
33.227
33.177
33.13
33.085
33.041
32.999
32.96
32.923
32.888
32.856
32.825
32.794
32.764
32.732
32.699
32.666
32.632
32.598
32.563
32.529
32.495
32.461
32.427
32.392
32.356
32.321
32.288
32.257
32.227
32.199
32.173
32.148
32.125
32.103
32.083
32.064
32.048
32.035
32.026
32.02
32.02
32.026
32.04
32.064
32.102
32.155
32.225
32.314
32.421
32.547
32.691
32.853
33.033
33.23
33.443
33.673
33.917
34.174
34.445
34.73
35.03
35.344
35.673
36.014
36.365
36.721
37.076
37.423
37.754
38.061
38.338
38.578
38.775
38.925
39.03
39.088
39.105
39.083
39.028
38.944
38.838
38.714
38.578
38.436
38.292
38.148
38.009
37.875
37.748
37.631
37.523
37.424
37.333
37.249
37.169
37.092
37.017
36.942
36.866
36.789
36.709
36.627
36.542
36.455
36.369
36.284
36.201
36.119
36.04
35.964
35.892
35.825
35.762
35.705
35.652
35.603
35.558
35.516
35.478
35.443
35.41
35.379
35.351
35.325
35.303
35.285
35.27
35.259
35.253
35.25
35.251
35.254
35.259
35.266
35.273
35.279
35.284
35.287
35.289
35.288
35.284
35.275
35.263
35.247
35.226
35.201
35.171
35.135
35.095
35.05
35.001
34.949
34.895
34.84
34.783
34.727
34.672
34.619
34.566
34.513
34.46
34.409
34.36
34.313
34.268
34.225
34.184
34.143
34.102
34.061
34.019
33.977
33.934
33.89
33.844
33.798
33.75
33.702
33.654
33.606
33.558
33.51
33.464
33.419
33.375
33.332
33.289
33.245
33.2
33.155
33.11
33.065
33.02
32.976
32.931
32.888
32.846
32.804
32.763
32.724
32.688
32.655
32.625
32.599
32.575
32.554
32.534
32.514
32.495
32.477
32.46
32.444
32.428
32.41
32.391
32.37
32.348
32.323
32.297
32.272
32.247
32.223
32.201
32.18
32.163
32.15
32.143
32.145
32.159
32.187
32.232
32.294
32.375
32.476
32.597
32.737
32.896
33.074
33.268
33.476
33.696
33.926
34.163
34.407
34.658
34.915
35.179
35.453
35.736
36.029
36.331
36.639
36.948
37.253
37.545
37.818
38.066
38.283
38.466
38.612
38.719
38.788
38.819
38.817
38.784
38.725
38.641
38.539
38.422
38.294
38.16
38.024
37.89
37.76
37.636
37.518
37.407
37.304
37.208
37.118
37.033
36.951
36.871
36.791
36.711
36.63
36.549
36.468
36.387
36.307
36.229
36.152
36.079
36.009
35.942
35.878
35.817
35.758
35.704
35.652
35.604
35.56
35.521
35.487
35.457
35.432
35.41
35.392
35.377
35.364
35.354
35.345
35.337
35.329
35.32
35.31
35.299
35.288
35.276
35.265
35.253
35.241
35.23
35.219
35.209
35.2
35.19
35.178
35.164
35.147
35.127
35.106
35.082
35.056
35.027
34.996
34.961
34.924
34.885
34.843
34.8
34.755
34.709
34.663
34.617
34.57
34.523
34.476
34.429
34.383
34.339
34.297
34.255
34.213
34.171
34.127
34.082
34.036
33.988
33.937
33.885
33.83
33.774
33.719
33.663
33.611
33.561
33.514
33.47
33.427
33.387
33.348
33.311
33.275
33.239
33.204
33.17
33.136
33.103
33.07
33.037
33.004
32.969
32.933
32.897
32.861
32.825
32.789
32.752
32.714
32.677
32.641
32.606
32.574
32.545
32.519
32.497
32.477
32.458
32.44
32.423
32.407
32.392
32.378
32.366
32.354
32.34
32.324
32.306
32.286
32.266
32.246
32.231
32.222
32.22
32.226
32.242
32.27
32.315
32.377
32.458
32.56
32.683
32.827
32.991
33.172
33.368
33.576
33.796
34.024
34.258
34.496
34.736
34.975
35.212
35.444
35.67
35.89
36.104
36.313
36.514
36.709
36.897
37.078
37.249
37.41
37.558
37.689
37.802
37.895
37.965
38.012
38.038
38.043
38.029
37.996
37.947
37.884
37.809
37.725
37.632
37.533
37.43
37.324
37.217
37.111
37.007
36.904
36.803
36.705
36.61
36.517
36.428
36.344
36.266
36.192
36.123
36.058
35.997
35.938
35.882
35.827
35.773
35.721
35.669
35.618
35.568
35.521
35.476
35.433
35.395
35.361
35.332
35.309
35.291
35.276
35.264
35.256
35.251
35.25
35.251
35.255
35.259
35.262
35.264
35.266
35.266
35.263
35.256
35.245
35.23
35.213
35.193
35.172
35.149
35.125
35.099
35.072
35.045
35.017
34.989
34.961
34.931
34.9
34.866
34.831
34.795
34.758
34.719
34.68
34.639
34.598
34.556
34.512
34.463
34.407
34.347
34.283
34.219
34.156
34.097
34.042
33.993
33.948
33.909
33.874
33.842
33.813
33.784
33.756
33.727
33.694
33.658
33.617
33.571
33.52
33.466
33.408
33.348
33.288
33.227
33.166
33.106
33.047
32.991
32.937
32.889
32.845
32.807
32.773
32.744
32.719
32.698
32.678
32.66
32.644
32.628
32.614
32.601
32.589
32.577
32.566
32.555
32.543
32.533
32.523
32.513
32.504
32.495
32.486
32.476
32.465
32.454
32.442
32.431
32.419
32.409
32.402
32.397
32.396
32.4
32.411
32.43
32.46
32.503
32.56
32.632
32.719
32.822
32.94
33.072
33.219
33.378
33.548
33.728
33.914
34.105
34.298
34.49
34.679
34.862
35.038
35.206
35.366
35.517
35.658
35.791
35.915
36.028
36.129
36.219
36.295
36.36
36.414
36.457
36.491
36.517
36.536
36.548
36.552
36.55
36.541
36.527
36.509
36.486
36.461
36.431
36.398
36.36
36.319
36.274
36.226
36.176
36.123
36.069
36.013
35.956
35.9
35.842
35.781
35.72
35.657
35.595
35.533
35.473
35.416
35.361
35.308
35.258
35.211
35.169
35.131
35.098
35.069
35.044
35.022
35.005
34.991
34.981
34.974
34.969
34.968
34.969
34.973
34.981
34.992
35.007
35.023
35.041
35.059
35.077
35.095
35.112
35.127
35.138
35.146
35.15
35.15
35.147
35.141
35.131
35.118
35.101
35.079
35.054
35.026
34.995
34.961
34.923
34.883
34.841
34.799
34.755
34.711
34.667
34.622
34.579
34.537
34.497
34.459
34.422
34.386
34.35
34.313
34.277
34.241
34.205
34.169
34.134
34.101
34.068
34.036
34.004
33.971
33.936
33.901
33.865
33.828
33.79
33.752
33.712
33.67
33.626
33.581
33.536
33.491
33.447
33.405
33.366
33.33
33.297
33.266
33.237
33.211
33.186
33.162
33.139
33.117
33.096
33.074
33.051
33.027
33.002
32.977
32.953
32.93
32.909
32.891
32.873
32.856
32.837
32.818
32.798
32.777
32.756
32.735
32.714
32.694
32.675
32.656
32.641
32.631
32.622
32.609
32.595
32.585
32.586
32.604
32.643
32.709
32.804
32.932
33.094
33.287
33.508
33.753
34.016
34.292
34.572
34.854
35.132
35.405
35.67
35.928
36.178
36.421
36.657
36.886
37.109
37.324
37.532
37.732
37.921
38.098
38.259
38.402
38.525
38.626
38.703
38.755
38.781
38.783
38.761
38.716
38.652
38.571
38.477
38.374
38.264
38.15
38.036
37.923
37.813
37.706
37.602
37.501
37.404
37.311
37.222
37.137
37.056
36.977
36.9
36.823
36.748
36.675
36.604
36.534
36.465
36.397
36.331
36.267
36.205
36.146
36.09
36.036
35.986
35.938
35.894
35.855
35.821
35.793
35.769
35.751
35.738
35.729
35.726
35.725
35.726
35.728
35.729
35.73
35.73
35.728
35.725
35.719
35.712
35.702
35.689
35.674
35.656
35.635
35.61
35.583
35.554
35.524
35.492
35.459
35.425
35.391
35.357
35.323
35.29
35.257
35.223
35.188
35.152
35.114
35.075
35.035
34.994
34.95
34.906
34.86
34.814
34.768
34.721
34.672
34.621
34.568
34.514
34.461
34.411
34.365
34.322
34.282
34.244
34.208
34.174
34.14
34.106
34.071
34.034
33.996
33.958
33.918
33.875
33.832
33.786
33.74
33.693
33.646
33.601
33.558
33.518
33.48
33.443
33.409
33.377
33.348
33.319
33.293
33.269
33.248
33.227
33.207
33.185
33.162
33.136
33.109
33.08
33.049
33.017
32.985
32.951
32.918
32.885
32.856
32.832
32.815
32.806
32.807
32.82
32.846
32.885
32.938
33.006
33.091
33.192
33.31
33.447
33.6
33.77
33.953
34.148
34.352
34.563
34.78
35.001
35.223
35.448
35.672
35.896
36.119
36.339
36.555
36.768
36.976
37.178
37.372
37.559
37.738
37.907
38.066
38.209
38.335
38.44
38.52
38.573
38.599
38.597
38.571
38.521
38.451
38.364
38.263
38.153
38.037
37.917
37.796
37.676
37.56
37.448
37.341
37.24
37.145
37.056
36.972
36.89
36.81
36.733
36.656
36.58
36.504
36.428
36.353
36.279
36.206
36.135
36.067
36.0
35.93
35.853
35.77
35.682
35.594
35.51
35.434
35.367
35.313
35.273
35.249
35.239
35.242
35.256
35.281
35.312
35.349
35.387
35.424
35.458
35.486
35.507
35.521
35.529
35.531
35.527
35.518
35.504
35.488
35.469
35.449
35.426
35.4
35.373
35.344
35.315
35.284
35.253
35.222
35.19
35.157
35.124
35.092
35.06
35.029
34.998
34.968
34.938
34.908
34.877
34.846
34.813
34.777
34.738
34.696
34.65
34.603
34.554
34.505
34.455
34.404
34.353
34.301
34.25
34.198
34.146
34.092
34.038
33.986
33.936
33.889
33.844
33.803
33.763
33.724
33.687
33.653
33.62
33.589
33.559
33.529
33.499
33.47
33.439
33.407
33.375
33.342
33.31
33.28
33.25
33.223
33.198
33.175
33.152
33.129
33.107
33.085
33.063
33.04
33.017
32.992
32.967
32.941
32.916
32.893
32.876
32.867
32.868
32.881
32.907
32.95
33.01
33.087
33.183
33.297
33.429
33.58
33.746
33.925
34.116
34.316
34.523
34.732
34.941
35.148
35.349
35.542
35.726
35.901
36.067
36.226
36.376
36.518
36.651
36.776
36.893
37.003
37.106
37.202
37.291
37.373
37.448
37.515
37.573
37.622
37.66
37.688
37.706
37.712
37.708
37.695
37.673
37.643
37.605
37.559
37.507
37.447
37.38
37.307
37.23
37.149
37.067
36.983
36.899
36.815
36.732
36.649
36.567
36.485
36.404
36.324
36.246
36.17
36.096
36.025
35.957
35.893
35.833
35.777
35.726
35.68
35.638
35.602
35.571
35.547
35.528
35.514
35.504
35.498
35.495
35.495
35.498
35.502
35.508
35.513
35.517
35.52
35.521
35.522
35.521
35.519
35.515
35.509
35.501
35.492
35.481
35.468
35.452
35.432
35.409
35.383
35.355
35.326
35.297
35.268
35.239
35.209
35.18
35.153
35.127
35.103
35.079
35.055
35.031
35.005
34.976
34.943
34.908
34.868
34.823
34.775
34.723
34.67
34.617
34.563
34.509
34.456
34.405
34.356
34.31
34.266
34.224
34.183
34.143
34.102
34.061
34.02
33.976
33.932
33.885
33.838
33.792
33.746
33.701
33.657
33.615
33.576
33.539
33.504
33.472
33.442
33.416
33.394
33.374
33.358
33.344
33.331
33.318
33.305
33.29
33.273
33.255
33.234
33.212
33.187
33.161
33.134
33.107
33.08
33.055
33.035
33.022
33.02
33.031
33.056
33.098
33.158
33.235
33.331
33.444
33.575
33.721
33.882
34.055
34.238
34.428
34.624
34.821
35.018
35.212
35.403
35.59
35.771
35.945
36.112
36.269
36.414
36.547
36.665
36.769
36.859
36.938
37.003
37.057
37.099
37.131
37.156
37.173
37.185
37.192
37.195
37.194
37.19
37.183
37.174
37.165
37.156
37.147
37.136
37.124
37.109
37.089
37.064
37.034
36.999
36.959
36.914
36.866
36.816
36.765
36.714
36.661
36.607
36.551
36.493
36.434
36.373
36.312
36.252
36.192
36.136
36.081
36.028
35.979
35.932
35.889
35.849
35.813
35.781
35.754
35.732
35.716
35.704
35.696
35.691
35.689
35.688
35.688
35.692
35.697
35.703
35.71
35.716
35.723
35.729
35.736
35.741
35.744
35.742
35.736
35.724
35.708
35.686
35.659
35.628
35.593
35.554
35.513
35.472
35.431
35.389
35.347
35.306
35.266
35.226
35.186
35.147
35.108
35.071
35.035
35.001
34.969
34.939
34.908
34.876
34.844
34.81
34.776
34.741
34.706
34.669
34.631
34.592
34.553
34.514
34.474
34.432
34.39
34.347
34.302
34.257
34.212
34.167
34.122
34.077
34.033
33.989
33.949
33.91
33.874
33.841
33.81
33.783
33.758
33.733
33.708
33.682
33.653
33.624
33.593
33.563
33.534
33.507
33.481
33.456
33.433
33.413
33.397
33.383
33.372
33.367
33.367
33.375
33.391
33.418
33.458
33.512
33.581
33.667
33.771
33.894
34.035
34.193
34.365
34.548
34.739
34.937
35.137
35.34
35.542
35.743
35.943
36.14
36.334
36.525
36.713
36.896
37.073
37.244
37.407
37.564
37.714
37.856
37.99
38.116
38.232
38.335
38.423
38.493
38.543
38.573
38.581
38.568
38.536
38.486
38.421
38.345
38.26
38.171
38.084
37.998
37.915
37.832
37.748
37.662
37.574
37.483
37.389
37.294
37.199
37.105
37.011
36.918
36.826
36.735
36.645
36.557
36.471
36.389
36.312
36.24
36.174
36.115
36.062
36.014
35.973
35.937
35.904
35.877
35.854
35.836
35.824
35.816
35.812
35.812
35.813
35.816
35.819
35.821
35.823
35.823
35.822
35.818
35.813
35.808
35.802
35.794
35.785
35.773
35.76
35.744
35.727
35.708
35.687
35.664
35.638
35.609
35.578
35.545
35.512
35.479
35.446
35.414
35.38
35.344
35.306
35.265
35.22
35.173
35.123
35.071
35.018
34.965
34.912
34.859
34.806
34.754
34.702
34.652
34.603
34.555
34.508
34.461
34.415
34.371
34.328
34.286
34.246
34.208
34.171
34.136
34.104
34.072
34.043
34.013
33.984
33.954
33.925
33.897
33.869
33.842
33.814
33.786
33.757
33.728
33.697
33.667
33.636
33.606
33.576
33.545
33.515
33.484
33.454
33.423
33.394
33.368
33.346
33.329
33.317
33.313
33.318
33.334
33.362
33.405
33.463
33.539
33.634
33.748
33.88
34.031
34.201
