Trial 1:0back
34.918
34.873
34.833
34.8
34.772
34.75
34.733
34.72
34.712
34.706
34.703
34.7
34.697
34.691
34.682
34.669
34.652
34.631
34.606
34.578
34.547
34.514
34.483
34.454
34.43
34.412
34.402
34.398
34.402
34.414
34.432
34.455
34.483
34.514
34.548
34.582
34.616
34.648
34.677
34.701
34.722
34.737
34.747
34.753
34.754
34.752
34.748
34.741
34.734
34.727
34.721
34.715
34.711
34.707
34.705
34.702
34.699
34.694
34.689
34.681
34.671
34.658
34.641
34.621
34.598
34.574
34.549
34.524
34.5
34.478
34.459
34.442
34.427
34.416
34.407
34.401
34.397
34.393
34.391
34.388
34.384
34.38
34.376
34.372
34.367
34.363
34.36
34.357
34.355
34.356
34.36
34.37
34.386
34.411
34.447
34.495
34.557
34.631
34.72
34.821
34.933
35.056
35.185
35.32
35.456
35.592
35.723
35.848
35.963
36.066
36.157
36.233
36.294
36.34
36.373
36.394
36.404
36.405
36.4
36.389
36.374
36.357
36.339
36.321
36.303
36.285
36.268
36.251
36.234
36.215
36.196
36.174
36.149
36.122
36.091
36.057
36.02
35.98
35.939
35.896
35.851
35.804
35.756
35.706
35.654
35.601
35.547
35.494
35.441
35.389
35.338
35.288
35.238
35.19
35.143
35.099
35.057
35.019
34.985
34.955
34.929
34.907
34.887
34.87
34.855
34.841
34.828
34.815
34.803
34.791
34.779
34.766
34.753
34.741
34.731
34.722
34.716
34.712
34.711
34.714
34.72
34.73
34.742
34.755
34.77
34.785
34.8
34.815
34.827
34.838
34.845
34.848
34.848
34.844
34.836
34.824
34.808
34.79
34.769
34.746
34.723
34.699
34.674
34.65
34.627
34.604
34.583
34.563
34.544
34.528
34.514
34.502
34.493
34.487
34.483
34.481
34.482
34.484
34.486
34.489
34.491
34.491
34.49
34.486
34.48
34.472
34.462
34.451
34.439
34.426
34.412
34.399
34.387
34.375
34.365
34.356
34.349
34.346
34.345
34.35
34.36
34.378
34.405
34.443
34.494
34.558
34.635
34.726
34.831
34.948
35.076
35.213
35.356
35.503
35.652
35.799
35.942
36.08
36.212
36.335
36.449
36.553
36.645
36.725
36.792
36.846
36.888
36.918
36.937
36.948
36.95
36.945
36.936
36.924
36.91
36.896
36.882
36.869
36.857
36.845
36.833
36.82
36.804
36.785
36.76
36.729
36.69
36.643
36.587
36.522
36.449
36.367
36.279
36.186
36.088
35.989
35.889
35.79
35.694
35.603
35.517
35.439
35.368
35.306
35.252
35.207
35.168
35.134
35.106
35.082
35.063
35.047
35.033
35.022
35.011
35.001
34.99
34.98
34.969
34.958
34.947
34.934
34.922
34.908
34.895
34.881
34.867
34.853
34.84
34.826
34.814
34.803
34.792
34.783
34.775
34.768
34.762
34.757
34.752
34.746
34.74
34.733
34.725
34.716
34.707
34.696
34.686
34.674
34.661
34.646
34.631
34.614
34.597
34.579
34.562
34.544
34.528
34.513
34.5
34.488
34.477
34.467
34.459
34.451
34.443
34.436
34.428
34.42
34.412
34.403
34.395
34.388
34.381
34.374
34.368
34.361
34.354
34.345
34.336
34.326
34.315
34.303
34.289
34.275
34.26
34.243
34.224
34.205
34.184
34.163
34.143
34.125
34.112
34.106
34.11
34.124
34.154
34.2
34.264
34.348
34.451
34.572
34.709
34.86
35.022
35.19
35.362
35.533
35.701
35.863
36.017
36.161
36.292
36.411
36.515
36.605
36.682
36.745
36.795
36.833
36.86
36.877
36.885
36.885
36.878
36.867
36.853
36.835
36.814
36.791
36.766
36.738
36.71
36.68
36.65
36.619
36.586
36.551
36.515
36.477
36.436
36.393
36.348
36.299
36.247
36.192
36.134
36.072
36.006
35.939
35.869
35.798
35.728
35.659
35.594
35.533
35.478
35.429
35.387
35.351
35.322
35.299
35.281
35.267
35.257
35.249
35.242
35.234
35.226
35.216
35.205
35.193
35.181
35.167
35.154
35.14
35.129
35.119
35.113
35.109
35.109
35.111
35.115
35.121
35.127
35.132
35.135
35.136
35.135
35.13
35.122
35.11
35.094
35.076
35.054
35.03
35.006
34.981
34.957
34.935
34.916
34.9
34.888
34.881
34.878
34.88
34.885
34.893
34.902
34.911
34.918
34.924
34.926
34.926
34.923
34.917
34.909
34.899
34.886
34.872
34.857
34.84
34.821
34.801
34.78
34.758
34.734
34.71
34.685
34.659
34.634
34.609
34.586
34.564
34.544
34.527
34.512
34.5
34.492
34.486
34.485
34.488
34.496
34.51
34.531
34.56
34.599
34.649
34.712
34.787
34.877
34.979
35.093
35.218
35.353
35.497
35.646
35.799
35.954
36.109
36.261
36.408
36.548
36.68
36.803
36.916
37.019
37.11
37.19
37.259
37.316
37.361
37.396
37.421
37.436
37.442
37.439
37.429
37.411
37.387
37.358
37.325
37.289
37.25
37.21
37.17
37.128
37.087
37.046
37.004
36.963
36.92
36.877
36.832
36.787
36.741
36.694
36.647
36.599
36.552
36.505
36.46
36.417
36.377
36.34
36.307
36.277
36.249
36.223
36.198
36.175
36.151
36.128
36.105
36.083
36.061
36.04
36.022
36.006
35.993
35.985
35.982
35.983
35.99
36.002
36.017
36.034
36.052
36.07
36.086
36.1
36.111
36.118
36.121
36.12
36.116
36.108
36.097
36.085
36.071
36.056
36.041
36.026
36.012
35.999
35.987
35.976
35.965
35.955
35.944
35.934
35.924
35.912
35.901
35.889
35.877
35.865
35.853
35.841
35.829
35.816
35.802
35.788
35.771
35.753
35.732
35.709
35.685
35.659
35.632
35.604
35.574
35.544
35.513
35.481
35.45
35.417
35.385
35.353
35.321
35.291
35.263
35.237
35.214
35.194
35.178
35.167
35.16
35.158
35.164
35.179
35.204
35.243
35.297
35.367
35.455
35.56
35.682
35.819
35.969
36.129
36.296
36.47
36.646
36.822
36.998
37.17
37.338
37.5
37.657
37.806
37.947
38.08
38.203
38.315
38.416
38.505
38.581
38.646
38.699
38.74
38.771
38.792
38.805
38.812
38.812
38.806
38.795
38.779
38.759
38.734
38.703
38.668
38.627
38.58
38.526
38.467
38.403
38.335
38.265
38.193
38.121
38.048
37.976
37.905
37.836
37.767
37.699
37.631
37.564
37.498
37.434
37.372
37.314
37.258
37.205
37.157
37.111
37.07
37.032
36.998
36.966
36.938
36.912
36.888
36.866
36.847
36.831
36.819
36.809
36.804
36.801
36.802
36.804
36.808
36.814
36.82
36.826
36.831
36.834
36.835
36.834
36.831
36.826
36.818
36.808
36.796
36.782
36.767
36.753
36.738
36.724
36.711
36.698
36.686
36.672
36.657
36.641
36.622
36.6
36.576
36.55
36.523
36.495
36.468
36.441
36.415
36.391
36.369
36.349
36.33
36.313
36.297
36.282
36.266
36.25
36.232
36.213
36.192
36.17
36.146
36.121
36.095
36.068
36.04
36.012
35.985
35.958
35.933
35.909
35.887
35.866
35.848
35.834
35.825
35.822
35.828
35.845
35.874
35.918
35.978
36.055
36.15
36.261
36.39
36.534
36.692
36.861
37.038
37.221
37.405
37.587
37.763
37.93
38.086
38.229
38.357
38.47
38.567
38.651
38.722
38.781
38.829
38.866
38.894
38.913
38.925
38.928
38.925
38.916
38.9
38.879
38.854
38.823
38.79
38.754
38.716
38.677
38.636
38.594
38.551
38.507
38.462
38.416
38.369
38.321
38.272
38.221
38.168
38.113
38.056
37.996
37.934
37.869
37.802
37.731
37.656
37.578
37.498
37.417
37.337
37.258
37.182
37.109
37.041
36.979
36.923
36.874
36.831
36.796
36.768
36.746
36.73
36.72
36.715
36.714
36.716
36.719
36.724
36.728
36.732
36.735
36.736
36.735
36.733
36.729
36.724
36.717
36.709
36.699
36.688
36.677
36.664
36.649
36.633
36.614
36.592
36.568
36.54
36.509
36.474
36.436
36.395
36.352
36.308
36.264
36.22
36.177
36.135
36.095
36.058
36.024
35.994
35.969
35.947
35.929
35.913
35.899
35.886
35.872
35.857
35.841
35.824
35.804
35.783
35.76
35.735
35.707
35.678
35.647
35.615
35.583
35.551
35.52
35.492
35.468
35.446
35.429
35.415
35.404
35.397
35.394
35.394
35.398
35.407
35.423
35.448
35.484
35.534
35.599
35.68
35.779
35.895
36.028
36.179
36.345
36.523
36.712
36.908
37.107
37.306
37.502
37.693
37.873
38.041
38.195
38.333
38.455
38.559
38.645
38.715
38.77
38.809
38.835
38.85
38.854
38.85
38.84
38.825
38.806
38.784
38.759
38.731
38.701
38.668
38.633
38.596
38.556
38.513
38.467
38.418
38.365
38.31
38.252
38.193
38.132
38.071
38.01
37.949
37.889
37.83
37.773
37.717
37.664
37.613
37.564
37.518
37.473
37.43
37.387
37.345
37.302
37.26
37.217
37.173
37.128
37.083
37.037
36.992
36.949
36.909
36.873
36.842
36.815
36.795
36.78
36.771
36.767
36.766
36.769
36.774
36.779
36.784
36.788
36.789
36.787
36.782
36.773
36.762
36.747
36.73
36.71
36.687
36.663
36.637
36.609
36.579
36.548
36.516
36.483
36.449
36.413
36.374
36.334
36.291
36.246
36.199
36.149
36.098
36.045
35.993
35.942
35.893
35.846
35.802
35.762
35.724
35.689
35.655
35.624
35.593
35.562
35.533
35.504
35.477
35.45
35.423
35.398
35.373
35.349
35.326
35.302
35.277
35.25
35.22
35.189
35.154
35.118
35.08
35.04
35.0
34.959
34.918
34.879
34.843
34.811
34.786
34.772
34.769
34.78
34.807
34.851
34.912
34.992
35.092
35.211
35.349
35.503
35.672
35.854
36.047
36.249
36.457
36.668
36.88
37.091
37.298
37.498
37.689
37.869
38.037
38.192
38.331
38.455
38.562
38.652
38.726
38.785
38.828
38.857
38.873
38.878
38.874
38.861
38.84
38.814
38.783
38.747
38.707
38.663
38.614
38.562
38.506
38.447
38.386
38.323
38.259
38.194
38.128
38.062
37.996
37.929
37.861
37.793
37.724
37.655
37.584
37.513
37.442
37.372
37.302
37.234
37.168
37.103
37.041
36.983
36.928
36.877
36.83
36.788
36.75
36.716
36.687
36.662
36.64
36.622
36.608
36.597
36.59
36.585
36.584
36.586
36.59
36.596
36.604
36.613
36.621
36.628
36.633
36.636
36.637
36.634
36.628
36.618
36.604
36.585
36.562
36.535
36.504
36.47
36.433
36.393
36.352
36.309
36.265
36.222
36.18
36.138
36.098
36.06
36.023
35.988
35.954
35.92
35.885
35.851
35.816
35.78
35.744
35.708
35.672
35.636
35.601
35.566
35.532
35.5
35.471
35.444
35.419
35.395
35.373
35.35
35.327
35.301
35.273
35.241
35.206
35.168
35.126
35.083
35.037
34.992
34.947
34.906
34.868
34.835
34.808
34.786
34.772
34.766
34.769
34.783
34.809
34.849
34.903
34.973
35.059
35.161
35.279
35.412
35.559
35.719
35.889
36.069
36.255
36.447
36.641
36.836
37.029
37.218
37.401
37.576
37.741
37.895
38.038
38.168
38.284
38.387
38.477
38.553
38.616
38.667
38.706
38.732
38.747
38.751
38.745
38.729
38.703
38.668
38.625
38.573
38.516
38.453
38.386
38.315
38.242
38.166
38.089
38.01
37.929
37.846
37.762
37.676
37.588
37.498
37.408
37.316
37.224
37.133
37.044
36.957
36.874
36.795
36.721
36.652
36.59
36.533
36.482
36.436
36.395
36.359
36.327
36.3
36.276
36.254
36.235
36.217
36.199
36.182
36.165
36.149
36.133
36.118
36.104
36.091
36.078
36.068
36.059
36.051
36.046
36.043
36.043
36.044
36.047
36.051
36.055
36.058
36.06
36.06
36.058
36.052
36.043
36.028
36.008
35.983
35.951
35.914
35.872
35.826
35.776
35.725
35.674
35.625
35.58
35.538
35.501
35.469
35.443
35.422
35.407
35.397
35.39
35.385
35.381
35.377
35.372
35.364
35.351
35.335
35.314
35.287
35.254
35.217
35.177
35.134
35.09
35.046
35.003
34.961
34.921
34.883
34.848
34.816
34.788
34.763
34.743
34.727
34.715
34.707
34.703
34.704
34.711
34.725
34.75
34.787
34.838
34.907
34.994
35.1
35.226
35.371
35.535
35.717
35.915
36.126
36.347
36.574
36.806
37.038
37.267
37.491
37.706
37.909
38.098
38.27
38.423
38.556
38.669
38.762
38.836
38.893
38.934
38.962
38.979
38.988
38.989
38.985
38.976
38.963
38.947
38.927
38.903
38.875
38.843
38.807
38.766
38.72
38.669
38.611
38.548
38.48
38.406
38.327
38.243
38.156
38.066
37.974
37.881
37.788
37.696
37.607
37.522
37.441
37.365
37.295
37.231
37.172
37.118
37.069
37.025
36.984
36.946
36.911
36.877
36.845
36.815
36.787
36.761
36.737
36.718
36.702
36.692
36.687
36.688
36.695
36.706
36.723
36.743
36.767
36.793
36.82
36.847
36.874
36.898
36.92
36.938
36.952
36.962
36.967
36.966
36.961
36.95
36.935
36.915
36.892
36.867
36.839
36.809
36.776
36.742
36.706
36.668
36.629
36.589
36.548
36.505
36.461
36.417
36.371
36.324
36.276
36.226
36.175
36.122
36.07
36.019
35.971
35.925
35.883
35.845
35.81
35.78
35.754
35.731
35.71
35.69
35.669
35.648
35.625
35.6
35.571
35.54
35.506
35.469
35.431
35.391
35.353
35.319
35.292
35.273
35.268
35.279
35.308
35.358
35.43
35.527
35.647
35.791
35.958
36.144
36.347
36.564
36.791
37.025
37.263
37.5
37.731
37.955
38.167
38.366
38.549
38.716
38.866
38.999
39.114
39.211
39.291
39.355
39.404
39.438
39.46
39.471
39.471
39.463
39.447
39.425
39.398
39.365
39.327
39.284
39.236
39.183
39.125
39.062
38.993
38.92
38.843
38.761
38.677
38.589
38.5
38.41
38.32
38.23
38.141
38.054
37.969
37.886
37.804
37.724
37.645
37.569
37.496
37.426
37.358
37.293
37.232
37.174
37.12
37.07
37.025
36.984
36.948
36.918
36.894
36.877
36.867
36.865
36.869
36.88
36.896
36.917
36.943
36.971
37.0
37.029
37.056
37.08
37.1
37.116
37.128
37.136
37.14
37.139
37.134
37.126
37.116
37.104
37.091
37.077
37.061
37.044
37.025
37.004
36.981
36.955
36.927
36.895
36.858
36.816
36.77
36.718
36.66
36.597
36.528
36.456
36.382
36.308
36.235
36.165
36.1
36.041
35.987
35.938
35.895
35.857
35.823
35.793
35.767
35.742
35.718
35.693
35.667
35.639
35.609
35.576
35.54
35.503
35.463
35.423
35.381
35.341
35.302
35.267
35.236
35.212
35.196
35.191
35.198
35.22
35.258
35.315
35.391
35.488
35.606
35.745
35.905
36.085
36.283
36.495
36.721
36.956
37.198
37.443
37.689
37.932
38.168
38.396
38.613
38.817
39.007
39.182
39.341
39.484
39.609
39.718
39.81
39.885
39.944
39.988
40.017
40.032
40.033
40.021
39.998
39.964
39.919
39.865
39.803
39.733
39.656
39.574
39.488
39.397
39.302
39.204
39.102
38.997
38.89
38.78
38.669
38.558
38.447
38.338
38.231
38.126
38.026
37.929
37.838
37.752
37.672
37.599
37.532
37.473
37.422
37.378
37.34
37.308
37.281
37.257
37.237
37.219
37.203
37.19
37.179
37.171
37.164
37.16
37.156
37.153
37.152
37.151
37.152
37.154
37.157
37.161
37.166
37.17
37.173
37.175
37.175
37.171
37.164
37.15
37.13
37.104
37.07
37.028
36.978
36.92
36.856
36.786
36.711
36.631
36.547
36.46
36.371
36.282
36.193
36.106
36.022
35.94
35.862
35.788
35.717
35.65
35.586
35.525
35.467
35.41
35.356
35.304
35.255
35.209
35.166
35.126
35.09
35.058
35.027
34.999
34.973
34.946
34.92
34.893
34.865
34.834
34.799
34.761
34.717
34.669
34.616
34.558
34.497
34.433
34.368
34.303
34.24
34.181
34.128
34.084
34.049
34.028
34.021
34.03
34.058
34.106
34.175
34.266
34.379
34.514
34.672
34.851
35.05
35.267
35.5
35.746
36.004
36.271
36.544
36.819
37.094
37.364
37.625
37.875
38.11
38.327
38.523
38.698
38.849
38.978
39.083
39.167
39.23
39.275
39.303
39.317
39.317
39.307
39.288
39.261
39.229
39.19
39.148
39.102
39.053
39.002
38.949
38.894
38.838
38.78
38.719
38.655
38.589
38.518
38.444
38.366
38.285
38.201
38.116
38.029
37.94
37.851
37.761
37.673
37.587
37.503
37.423
37.347
37.276
37.21
37.149
37.092
37.04
36.992
36.948
36.909
36.874
36.844
36.817
36.792
36.77
36.75
36.731
36.713
36.696
36.682
36.669
36.659
36.651
36.645
36.64
36.635
36.63
36.625
36.619
36.61
36.598
36.583
36.564
36.54
36.512
36.48
36.443
36.404
36.361
36.317
36.273
36.229
36.187
36.148
36.111
36.077
36.044
36.012
35.979
35.945
35.909
35.871
35.83
35.787
35.74
35.691
35.639
35.586
35.532
35.477
35.424
35.371
35.321
35.274
35.23
35.189
35.151
35.116
35.084
35.053
35.024
34.994
34.964
34.931
34.896
34.857
34.814
34.767
34.718
34.666
34.613
34.559
34.506
34.454
34.404
34.357
34.314
34.276
34.241
34.211
34.186
34.167
34.156
34.153
34.16
34.18
34.213
34.261
34.325
34.406
34.504
34.619
34.752
34.902
35.068
35.248
35.441
35.645
35.856
36.071
36.289
36.507
36.724
36.937
37.146
37.348
37.542
37.728
37.903
38.066
38.215
38.348
38.462
38.557
38.632
38.685
38.718
38.73
38.723
38.699
38.66
38.608
38.547
38.478
38.403
38.326
38.247
38.168
38.09
38.014
37.939
37.867
37.797
37.731
37.667
37.606
37.547
37.49
37.435
37.38
37.327
37.275
37.222
37.168
37.113
37.056
36.996
36.935
36.873
36.81
36.748
36.689
36.632
36.579
36.531
36.49
36.457
36.432
36.415
36.407
36.407
36.413
36.426
36.444
36.467
36.493
36.52
36.548
36.576
36.603
36.628
36.65
36.669
36.684
36.695
36.701
36.704
36.704
36.699
36.69
36.678
36.663
36.645
36.624
36.601
36.574
36.545
36.514
36.48
36.444
36.406
36.368
36.329
36.291
36.255
36.22
36.186
36.154
36.122
36.091
36.06
36.029
35.997
35.963
35.927
35.889
35.848
35.805
35.76
35.712
35.662
35.611
35.559
35.506
35.454
35.401
35.348
35.295
35.243
35.192
35.142
35.092
35.042
34.993
34.944
34.895
34.846
34.797
34.747
34.697
34.647
34.599
34.554
34.514
34.481
34.456
34.443
34.442
34.456
34.487
34.537
34.606
34.697
34.81
34.945
35.102
35.28
35.477
35.692
35.923
36.166
36.418
36.675
36.934
37.191
37.445
37.691
37.929
38.155
38.367
38.563
38.742
38.903
39.045
39.168
39.273
39.359
39.426
39.476
39.509
39.526
39.528
39.516
39.493
39.459
39.416
39.365
39.307
39.244
39.176
39.103
39.027
38.947
38.864
38.779
38.691
38.602
38.51
38.416
38.32
38.222
38.123
38.022
37.921
37.82
37.72
37.622
37.527
37.436
37.348
37.265
37.187
37.113
37.045
36.981
36.922
36.868
36.82
36.776
36.737
36.703
36.674
36.65
36.63
36.614
36.602
36.592
36.586
36.581
36.578
36.576
36.575
36.575
36.575
36.575
36.575
36.574
36.572
36.567
36.561
36.552
36.541
36.527
36.511
36.491
36.467
36.44
36.409
36.375
36.338
36.299
36.257
36.214
36.169
36.123
36.076
36.028
35.98
35.932
35.884
35.837
35.79
35.745
35.701
35.66
35.622
35.587
35.554
35.524
35.496
35.468
35.442
35.414
35.385
35.354
35.32
35.282
35.242
35.199
35.152
35.103
35.051
34.998
34.944
34.89
34.837
34.786
34.735
34.686
34.639
34.594
34.551
34.51
34.471
34.434
34.398
34.366
34.336
34.311
34.292
34.28
34.279
34.292
34.32
34.369
34.439
34.533
34.653
34.8
34.973
35.172
35.395
35.637
35.897
36.17
36.453
36.74
37.028
37.314
37.592
37.86
38.116
38.358
38.582
38.787
38.973
39.138
39.283
39.407
39.512
39.597
39.664
39.715
39.75
39.772
39.78
39.776
39.761
39.735
39.699
39.651
39.594
39.527
39.451
39.369
39.28
39.186
39.087
38.986
38.884
38.782
38.68
38.58
38.481
38.383
38.287
38.191
38.096
38.001
37.906
37.812
37.718
37.624
37.533
37.443
37.356
37.272
37.192
37.116
37.045
36.978
36.917
36.861
36.812
36.77
36.733
36.703
36.678
36.659
36.644
36.635
36.629
36.627
36.626
36.628
36.629
36.631
36.632
36.633
36.634
36.636
36.638
36.64
36.643
36.644
36.646
36.645
36.643
36.639
36.632
36.621
36.607
36.589
36.568
36.542
36.513
36.481
36.445
36.403
36.357
36.306
36.249
36.186
36.119
36.049
35.976
35.903
35.829
35.757
35.685
35.615
35.548
35.483
35.421
35.363
35.308
35.257
35.209
35.163
35.12
35.079
35.037
34.996
34.953
34.91
34.865
34.819
34.771
34.724
34.676
34.629
34.583
34.539
34.497
34.457
34.42
34.385
34.351
34.317
34.282
34.246
34.208
34.168
34.127
34.086
34.045
34.005
33.969
33.938
33.913
33.897
33.893
33.903
33.931
33.979
34.051
34.146
34.267
34.412
34.582
34.776
34.991
35.227
35.48
35.748
36.027
36.313
36.603
36.895
37.186
37.472
37.752
38.023
38.283
38.53
38.762
38.976
39.171
39.343
39.494
39.62
39.721
39.799
39.853
39.886
39.9
39.896
39.877
39.845
39.802
39.751
39.692
39.629
