Trial 1:0back
37.656
37.617
37.578
37.543
37.51
37.482
37.457
37.434
37.413
37.393
37.375
37.36
37.349
37.34
37.336
37.333
37.333
37.332
37.33
37.327
37.322
37.315
37.305
37.292
37.276
37.258
37.236
37.21
37.181
37.147
37.111
37.073
37.033
36.992
36.949
36.905
36.86
36.816
36.773
36.732
36.694
36.66
36.63
36.604
36.583
36.565
36.55
36.539
36.531
36.526
36.523
36.522
36.522
36.521
36.52
36.517
36.513
36.508
36.502
36.495
36.488
36.48
36.471
36.46
36.447
36.433
36.416
36.398
36.377
36.355
36.331
36.303
36.272
36.238
36.2
36.162
36.122
36.082
36.043
36.005
35.968
35.933
35.898
35.865
35.832
35.799
35.766
35.731
35.695
35.658
35.619
35.578
35.537
35.496
35.454
35.411
35.367
35.323
35.279
35.237
35.196
35.158
35.123
35.091
35.062
35.036
35.014
34.994
34.976
34.959
34.943
34.927
34.91
34.892
34.872
34.851
34.83
34.808
34.786
34.764
34.742
34.721
34.7
34.679
34.658
34.638
34.618
34.6
34.581
34.564
34.547
34.532
34.518
34.506
34.496
34.487
34.479
34.471
34.462
34.453
34.443
34.432
34.42
34.407
34.394
34.38
34.367
34.353
34.34
34.326
34.311
34.295
34.279
34.261
34.24
34.216
34.19
34.163
34.136
34.11
34.085
34.061
34.04
34.02
34.002
33.987
33.973
33.962
33.952
33.944
33.937
33.93
33.924
33.917
33.911
33.905
33.899
33.892
33.884
33.875
33.863
33.848
33.831
33.813
33.794
33.775
33.757
33.739
33.723
33.708
33.695
33.683
33.674
33.667
33.662
33.658
33.655
33.651
33.648
33.643
33.638
33.632
33.626
33.619
33.611
33.602
33.592
33.581
33.569
33.556
33.543
33.53
33.519
33.509
33.504
33.505
33.515
33.537
33.573
33.626
33.698
33.792
33.91
34.051
34.215
34.401
34.606
34.827
35.062
35.307
35.557
35.811
36.062
36.309
36.547
36.773
36.984
37.176
37.349
37.5
37.629
37.735
37.819
37.882
37.923
37.947
37.953
37.945
37.924
37.894
37.856
37.814
37.769
37.722
37.675
37.628
37.581
37.535
37.491
37.448
37.408
37.37
37.336
37.305
37.276
37.248
37.222
37.197
37.174
37.154
37.137
37.122
37.109
37.094
37.077
37.057
37.032
37.005
36.975
36.944
36.911
36.877
36.839
36.798
36.753
36.706
36.659
36.611
36.566
36.522
36.479
36.439
36.399
36.363
36.329
36.301
36.278
36.262
36.252
36.246
36.244
36.245
36.248
36.253
36.26
36.268
36.278
36.288
36.298
36.306
36.312
36.316
36.317
36.317
36.314
36.309
36.302
36.29
36.275
36.256
36.234
36.21
36.185
36.159
36.133
36.105
36.077
36.047
36.016
35.983
35.949
35.914
35.878
35.84
35.801
35.759
35.714
35.669
35.622
35.575
35.528
35.482
35.438
35.394
35.351
35.31
35.27
35.23
35.192
35.155
35.118
35.08
35.043
35.005
34.968
34.932
34.898
34.866
34.837
34.81
34.784
34.759
34.735
34.71
34.685
34.661
34.637
34.613
34.59
34.568
34.546
34.525
34.504
34.485
34.466
34.449
34.433
34.417
34.402
34.385
34.367
34.347
34.327
34.306
34.285
34.265
34.246
34.228
34.212
34.198
34.186
34.177
34.17
34.165
34.16
34.155
34.149
34.141
34.132
34.122
34.11
34.097
34.082
34.067
34.05
34.033
34.016
34.0
33.983
33.967
33.952
33.937
33.922
33.908
33.893
33.879
33.864
33.848
33.832
33.816
33.799
33.782
33.764
33.746
33.728
33.709
33.69
33.672
33.656
33.641
33.627
33.614
33.603
33.592
33.582
33.572
33.561
33.551
33.541
33.531
33.521
33.511
33.501
33.493
33.484
33.475
33.465
33.454
33.44
33.423
33.404
33.382
33.36
33.339
33.318
33.299
33.283
33.27
33.261
33.257
33.256
33.262
33.273
33.292
33.321
33.363
33.421
33.499
33.597
33.718
33.861
34.026
34.213
34.42
34.646
34.887
35.141
35.403
35.669
35.934
36.194
36.444
36.682
36.903
37.106
37.289
37.449
37.586
37.701
37.792
37.861
37.909
37.939
37.953
37.954
37.943
37.924
37.898
37.868
37.834
37.799
37.763
37.727
37.692
37.659
37.628
37.598
37.57
37.544
37.52
37.498
37.477
37.459
37.442
37.426
37.412
37.4
37.387
37.375
37.363
37.351
37.338
37.323
37.305
37.283
37.257
37.227
37.194
37.16
37.123
37.086
37.048
37.01
36.971
36.933
36.895
36.858
36.821
36.784
36.748
36.713
36.679
36.647
36.618
36.592
36.57
36.552
36.536
36.524
36.513
36.504
36.495
36.488
36.481
36.475
36.469
36.463
36.456
36.447
36.437
36.426
36.413
36.4
36.386
36.372
36.355
36.337
36.316
36.292
36.266
36.238
36.208
36.177
36.145
36.111
36.077
36.042
36.007
35.972
35.939
35.907
35.876
35.845
35.813
35.78
35.746
35.712
35.678
35.644
35.61
35.577
35.543
35.508
35.473
35.437
35.402
35.366
35.33
35.293
35.256
35.218
35.18
35.142
35.104
35.067
35.031
34.994
34.957
34.919
34.882
34.846
34.813
34.783
34.757
34.735
34.716
34.7
34.687
34.675
34.664
34.653
34.642
34.63
34.619
34.607
34.594
34.582
34.569
34.556
34.542
34.528
34.513
34.497
34.48
34.461
34.441
34.42
34.398
34.375
34.353
34.331
34.309
34.288
34.266
34.243
34.22
34.197
34.174
34.153
34.134
34.117
34.101
34.087
34.074
34.063
34.053
34.044
34.036
34.028
34.019
34.007
33.991
33.972
33.95
33.927
33.903
33.88
33.856
33.832
33.808
33.782
33.757
33.733
33.71
33.689
33.669
33.65
33.63
33.61
33.591
33.573
33.557
33.543
33.532
33.523
33.516
33.511
33.508
33.507
33.508
33.513
33.519
33.526
33.533
33.541
33.549
33.557
33.565
33.575
33.586
33.598
33.611
33.625
33.639
33.653
33.667
33.682
33.698
33.715
33.733
33.753
33.775
33.799
33.825
33.853
33.883
33.915
33.95
33.987
34.026
34.068
34.113
34.16
34.21
34.262
34.316
34.37
34.425
34.48
34.535
34.59
34.648
34.711
34.781
34.86
34.952
35.059
35.183
35.327
35.491
35.675
35.878
36.1
36.337
36.587
36.845
37.109
37.374
37.637
37.896
38.145
38.383
38.604
38.807
38.99
39.15
39.29
39.41
39.513
39.599
39.67
39.727
39.77
39.8
39.818
39.825
39.82
39.806
39.783
39.753
39.715
39.672
39.623
39.57
39.516
39.461
39.409
39.36
39.314
39.273
39.235
39.201
39.17
39.143
39.121
39.104
39.092
39.086
39.084
39.083
39.083
39.081
39.075
39.063
39.044
39.017
38.981
38.937
38.885
38.827
38.762
38.692
38.618
38.541
38.463
38.385
38.308
38.233
38.161
38.091
38.024
37.961
37.902
37.846
37.794
37.743
37.693
37.644
37.595
37.544
37.492
37.435
37.375
37.308
37.235
37.154
37.066
36.971
36.872
36.77
36.667
36.565
36.465
36.367
36.272
36.179
36.09
36.003
35.92
35.839
35.761
35.684
35.609
35.535
35.465
35.398
35.334
35.273
35.213
35.155
35.097
35.037
34.977
34.916
34.853
34.79
34.727
34.664
34.602
34.541
34.481
34.422
34.367
34.314
34.264
34.218
34.174
34.132
34.091
34.05
34.01
33.97
33.929
33.886
33.842
33.796
33.747
33.694
33.638
33.58
33.518
33.452
33.381
33.305
33.221
33.131
33.033
32.93
32.823
32.712
32.599
32.486
32.372
32.26
32.151
32.044
31.941
31.842
31.746
31.654
31.565
31.479
31.395
31.314
31.235
31.156
31.078
31.001
30.924
30.848
30.772
30.697
30.623
30.551
30.482
30.415
30.351
30.291
30.235
30.184
30.138
30.099
30.067
30.042
30.026
30.017
30.016
30.024
30.039
30.062
30.093
30.13
30.171
30.215
30.261
30.309
30.359
30.411
30.464
30.519
30.575
30.63
30.684
30.738
30.792
30.845
30.898
30.95
31.003
31.056
31.109
31.161
31.214
31.267
31.32
31.373
31.427
31.48
31.533
31.585
31.635
31.683
31.729
31.773
31.816
31.857
31.897
31.935
31.972
32.008
32.044
32.08
32.117
32.154
32.192
32.23
32.267
32.302
32.337
32.371
32.404
32.439
32.477
32.519
32.57
32.63
32.705
32.796
32.906
33.036
33.186
33.357
33.546
33.752
33.973
34.204
34.442
34.683
34.921
35.152
35.373
35.579
35.768
35.938
36.088
36.217
36.324
36.409
36.473
36.518
36.545
36.556
36.555
36.543
36.524
36.5
36.472
36.444
36.417
36.392
36.371
36.355
36.345
36.339
36.338
36.341
36.348
36.357
36.369
36.383
36.4
36.418
36.439
36.462
36.485
36.51
36.535
36.561
36.586
36.611
36.635
36.658
36.678
36.696
36.711
36.725
36.737
36.748
36.757
36.767
36.776
36.786
36.797
36.809
36.822
36.837
36.853
36.871
36.891
36.913
36.937
36.962
36.989
37.016
37.042
37.068
37.091
37.111
37.125
37.135
37.14
37.141
37.137
37.132
37.124
37.116
37.109
37.103
37.099
37.098
37.098
37.1
37.103
37.108
37.114
37.119
37.121
37.121
37.117
37.108
37.096
37.079
37.06
37.038
37.012
36.985
36.955
36.922
36.888
36.853
36.817
36.779
36.741
36.702
36.661
36.62
36.578
36.536
36.495
36.454
36.415
36.376
36.339
36.303
36.268
36.233
36.198
36.162
36.126
36.09
36.053
36.017
35.982
35.949
35.918
35.888
35.86
35.834
35.81
35.786
35.762
35.737
35.711
35.684
35.656
35.628
35.599
35.571
35.543
35.516
35.489
35.463
35.436
35.41
35.383
35.358
35.334
35.311
35.291
35.274
35.259
35.247
35.239
35.234
35.231
35.23
35.228
35.224
35.22
35.213
35.205
35.196
35.185
35.173
35.16
35.146
35.131
35.114
35.098
35.08
35.062
35.043
35.023
35.001
34.978
34.956
34.935
34.915
34.898
34.884
34.871
34.859
34.847
34.836
34.826
34.817
34.808
34.8
34.792
34.782
34.77
34.755
34.738
34.718
34.697
34.674
34.65
34.625
34.597
34.567
34.537
34.507
34.478
34.451
34.426
34.403
34.381
34.361
34.343
34.328
34.314
34.304
34.298
34.298
34.303
34.318
34.342
34.38
34.432
34.502
34.592
34.702
34.835
34.989
35.165
35.361
35.575
35.804
36.044
36.293
36.547
36.801
37.052
37.295
37.527
37.745
37.947
38.129
38.292
38.432
38.55
38.646
38.721
38.775
38.812
38.833
38.842
38.84
38.829
38.811
38.788
38.76
38.73
38.697
38.663
38.629
38.595
38.56
38.526
38.492
38.459
38.428
38.398
38.369
38.342
38.316
38.293
38.271
38.25
38.232
38.214
38.198
38.182
38.165
38.148
38.128
38.106
38.081
38.053
38.023
37.99
37.956
37.92
37.882
37.839
37.794
37.746
37.695
37.644
37.593
37.542
37.494
37.447
37.402
37.36
37.321
37.284
37.252
37.223
37.198
37.177
37.158
37.141
37.126
37.113
37.102
37.094
37.088
37.083
37.079
37.075
37.07
37.065
37.059
37.051
37.042
37.03
37.016
36.999
36.979
36.956
36.93
36.903
36.874
36.844
36.813
36.781
36.748
36.714
36.679
36.642
36.604
36.565
36.524
36.481
36.437
36.391
36.344
36.295
36.246
36.198
36.15
36.103
36.056
36.01
35.963
35.915
35.866
35.818
35.771
35.726
35.682
35.641
35.603
35.567
35.534
35.502
35.473
35.446
35.419
35.394
35.368
35.343
35.316
35.288
35.259
35.227
35.194
35.16
35.124
35.088
35.052
35.015
34.978
34.942
34.907
34.874
34.844
34.817
34.793
34.771
34.751
34.732
34.713
34.694
34.675
34.656
34.637
34.617
34.597
34.575
34.553
34.53
34.508
34.486
34.464
34.442
34.418
34.394
34.369
34.345
34.321
34.299
34.278
34.258
34.238
34.22
34.201
34.184
34.167
34.15
34.134
34.116
34.098
34.078
34.058
34.038
34.019
34.002
33.986
33.97
33.954
33.936
33.916
33.895
33.874
33.853
33.832
33.812
33.791
33.77
33.75
33.73
33.71
33.692
33.674
33.658
33.642
33.627
33.612
33.598
33.584
33.571
33.559
33.546
33.533
33.518
33.501
33.481
33.46
33.439
33.418
33.398
33.381
33.365
33.351
33.339
33.328
33.317
33.307
33.298
33.289
33.28
33.272
33.263
33.255
33.246
33.239
33.231
33.226
33.223
33.224
33.233
33.253
33.286
33.336
33.406
33.499
33.617
33.76
33.928
34.122
34.34
34.58
34.837
35.109
35.389
35.674
35.959
36.238
36.509
36.765
37.005
37.225
37.422
37.596
37.745
37.868
37.966
38.04
38.092
38.126
38.142
38.145
38.137
38.119
38.093
38.061
38.026
37.988
37.949
37.912
37.875
37.84
37.806
37.773
37.741
37.711
37.684
37.661
37.641
37.623
37.608
37.593
37.579
37.564
37.549
37.534
37.518
37.502
37.485
37.466
37.446
37.423
37.399
37.374
37.348
37.321
37.292
37.262
37.229
37.195
37.157
37.117
37.074
37.029
36.983
36.936
36.889
36.844
36.801
36.76
36.723
36.69
36.661
36.635
36.613
36.595
36.581
36.57
36.563
36.559
36.556
36.555
36.555
36.556
36.556
36.556
36.554
36.55
36.544
36.534
36.521
36.506
36.487
36.466
36.443
36.418
36.392
36.364
36.335
36.304
36.273
36.24
36.205
36.167
36.127
36.084
36.039
35.993
35.945
35.898
35.853
35.809
35.767
35.726
35.686
35.647
35.609
35.571
35.534
35.498
35.462
35.426
35.39
35.354
35.319
35.284
35.249
35.214
35.18
35.145
35.109
35.074
35.038
35.002
34.966
34.931
34.896
34.861
34.828
34.796
34.765
34.735
34.706
34.679
34.652
34.626
34.601
34.575
34.55
34.527
34.504
34.483
34.462
34.441
34.419
34.397
34.375
34.353
34.331
34.31
34.29
34.268
34.246
34.223
34.2
34.178
34.156
34.137
34.118
34.101
34.085
34.071
34.058
34.048
34.038
34.031
34.024
34.016
34.007
33.997
33.985
33.972
33.958
33.942
33.926
33.909
33.893
33.876
33.859
33.843
33.829
33.816
33.804
33.793
33.782
33.772
33.76
33.749
33.737
33.725
33.714
33.704
33.693
33.683
33.671
33.658
33.643
33.628
33.613
33.599
33.584
33.57
33.555
33.541
33.525
33.51
33.494
33.48
33.465
33.452
33.438
33.426
33.414
33.403
33.393
33.385
33.377
33.37
33.363
33.357
33.349
33.342
33.334
33.325
33.316
33.307
33.297
33.287
33.275
33.262
33.249
33.236
33.225
33.213
33.203
33.193
33.183
33.174
33.166
33.159
33.153
33.147
33.141
33.136
33.132
33.13
33.131
33.136
33.149
33.172
33.209
33.262
33.333
33.426
33.542
33.683
33.85
34.042
34.257
34.493
34.746
35.011
35.284
35.559
35.831
36.096
36.349
36.586
36.803
36.997
37.165
37.307
37.423
37.513
37.581
37.627
37.653
37.663
37.656
37.637
37.606
37.566
37.52
37.469
37.415
37.361
37.306
37.253
37.202
37.154
37.11
37.071
37.037
37.008
36.984
36.963
36.945
36.929
36.916
36.904
36.892
36.881
36.87
36.857
36.843
36.826
36.807
36.787
36.764
36.74
36.714
36.684
36.652
36.617
36.579
36.54
36.501
36.462
36.424
36.387
36.35
36.314
36.28
36.248
36.218
36.191
36.168
36.148
36.131
36.116
36.104
36.096
36.091
36.09
36.095
36.103
36.115
36.127
36.14
36.152
36.163
36.172
36.18
36.186
36.191
36.192
36.188
36.18
36.168
36.152
36.134
36.113
36.091
36.067
36.041
36.012
35.98
35.945
35.909
35.872
35.834
35.797
35.759
35.721
35.683
35.647
35.611
35.578
35.547
35.516
35.486
35.455
35.422
35.387
35.351
35.313
35.276
35.238
35.202
35.165
35.128
35.09
35.051
35.011
34.972
34.934
34.896
34.86
34.825
34.79
34.757
34.724
34.692
34.662
34.634
34.607
34.583
34.559
34.535
34.512
34.49
34.468
34.446
34.426
34.406
34.387
34.368
34.348
34.328
34.307
34.286
34.265
34.246
34.228
34.212
34.196
34.181
34.166
34.152
34.137
34.123
34.108
34.093
34.077
34.061
34.044
34.028
34.013
33.999
33.986
33.973
33.96
33.947
33.933
33.917
33.9
33.882
33.863
33.844
33.825
33.807
33.79
33.774
33.759
33.743
33.728
33.712
33.695
33.679
33.663
33.647
33.634
33.624
33.616
33.609
33.604
33.598
33.592
33.584
33.573
33.562
33.549
33.535
33.521
33.506
33.49
33.472
33.453
33.433
33.413
33.394
33.377
33.361
33.348
33.337
33.327
33.318
33.309
33.3
33.29
33.278
33.266
33.252
33.237
33.22
33.204
33.188
33.173
33.162
33.154
33.153
33.16
33.178
33.209
33.257
33.323
33.411
33.52
33.654
33.811
33.991
34.193
34.415
34.654
34.907
35.17
35.44
35.713
35.984
36.249
36.504
36.742
36.962
37.162
37.34
37.496
37.627
37.735
37.819
37.882
37.923
37.946
37.953
37.947
37.93
37.906
37.876
37.842
37.806
37.769
37.731
37.694
37.658
37.624
37.592
37.563
37.536
37.511
37.488
37.468
37.451
37.435
37.423
37.412
37.404
37.397
37.391
37.384
37.376
37.366
37.354
37.338
37.321
37.301
37.279
37.254
37.227
37.198
37.167
37.134
37.099
37.061
37.021
36.979
36.934
36.887
36.839
36.791
36.743
36.698
36.655
36.615
36.579
36.546
36.518
36.494
36.474
36.458
36.446
36.437
36.431
36.427
36.425
36.424
36.423
36.424
36.424
36.424
36.424
36.422
36.419
36.414
36.407
36.398
36.387
36.374
36.359
36.343
36.326
36.308
36.288
36.267
36.243
36.217
36.188
36.156
36.122
36.085
36.047
36.008
35.969
35.928
35.887
35.846
35.804
35.763
35.721
35.681
35.64
35.599
35.559
35.518
35.478
35.438
35.4
35.362
35.327
35.292
35.259
35.226
35.194
35.162
35.13
35.098
35.066
35.034
35.0
34.966
34.932
34.897
34.862
34.826
34.791
34.755
34.72
34.685
34.651
34.619
34.588
34.559
34.532
34.506
34.482
34.46
34.439
34.419
34.402
34.386
34.371
34.357
34.344
34.331
34.316
34.293
34.261
34.222
34.178
34.132
34.087
34.044
34.006
33.974
33.949
33.93
33.918
33.913
33.913
33.917
33.924
33.931
33.939
33.945
33.95
33.952
33.953
33.951
33.946
33.939
33.929
33.915
33.898
33.879
33.858
33.836
33.814
33.792
33.77
33.749
33.729
33.71
33.692
33.675
33.658
33.642
33.627
33.613
33.599
33.586
33.574
33.561
33.548
33.534
33.518
33.501
33.483
33.463
33.443
33.423
33.402
33.381
33.361
33.34
33.32
33.3
33.281
33.263
33.246
33.231
33.215
33.2
33.185
33.171
33.159
33.149
33.142
33.136
33.131
33.125
33.117
33.109
33.1
33.092
33.085
33.078
33.071
33.064
33.056
33.046
33.037
33.028
33.019
33.011
33.003
32.996
32.988
32.981
32.973
32.965
32.956
32.946
32.935
32.924
32.914
32.905
32.899
32.897
32.9
32.908
32.925
32.952
32.992
33.047
33.12
33.212
33.327
33.466
33.629
33.818
34.031
34.266
34.521
34.792
35.076
35.366
35.659
35.95
36.236
36.511
36.774
37.02
37.247
37.454
37.638
37.799
37.936
38.049
38.14
38.209
38.257
38.286
38.299
38.296
38.276
38.238
38.187
38.125
38.057
37.986
37.919
37.856
37.801
37.755
37.718
37.69
37.67
37.658
37.653
37.654
37.659
37.666
37.676
37.685
37.693
37.698
37.702
37.703
37.702
37.699
37.694
37.686
37.675
37.66
37.641
37.618
37.594
37.566
37.538
37.508
37.477
37.444
37.41
37.375
37.339
37.302
37.265
37.229
37.194
37.159
37.126
37.094
37.065
37.038
37.013
36.992
36.972
36.955
36.94
36.927
36.914
36.903
36.893
36.884
36.875
36.865
36.855
36.844
36.832
36.82
36.807
36.794
36.782
36.769
36.755
36.741
36.724
36.707
36.689
36.67
36.652
36.634
36.615
36.594
36.572
36.546
36.517
36.485
36.45
36.414
36.376
36.336
36.296
36.255
36.214
36.173
36.132
36.092
36.053
36.014
35.975
35.936
35.896
35.855
35.814
35.773
35.732
35.691
35.651
35.612
35.573
35.535
35.498
35.461
35.425
35.391
35.357
35.324
35.293
35.263
35.235
35.207
35.181
35.154
35.128
35.101
35.073
35.046
35.017
34.989
34.962
34.936
34.911
34.888
34.867
34.846
34.825
34.804
34.782
34.761
34.74
34.72
34.7
34.681
34.661
34.641
34.621
34.601
34.582
34.564
34.547
34.528
34.506
34.481
34.453
34.423
34.393
34.365
34.339
34.314
34.291
34.27
34.25
34.234
34.221
34.211
34.206
34.202
34.199
34.195
34.189
34.182
34.173
34.163
34.151
34.138
34.123
34.106
34.088
34.068
34.048
34.028
34.008
33.988
33.969
33.95
33.931
33.912
33.895
33.88
33.865
33.853
33.841
33.831
33.822
33.812
33.801
33.79
33.777
33.763
33.75
33.736
33.722
33.709
33.697
33.686
33.676
33.667
33.658
33.649
33.639
33.63
33.62
33.611
33.6
33.59
33.58
33.57
33.559
33.548
33.537
33.526
33.513
33.5
33.484
33.466
33.446
33.425
33.403
33.381
33.361
33.342
33.325
33.311
33.301
33.295
33.293
33.297
33.306
33.324
33.35
33.389
33.44
33.507
33.591
33.693
33.816
33.961
34.129
34.32
34.533
34.767
35.019
35.284
35.558
35.838
36.119
36.396
36.667
36.927
37.171
37.397
37.602
37.784
37.942
38.078
38.19
38.281
38.351
38.401
