Trial 1:0back
33.386
33.436
33.503
33.589
33.694
33.818
33.961
34.121
34.298
34.489
34.69
34.901
35.118
35.338
35.559
35.776
35.987
36.19
36.382
36.561
36.725
36.874
37.005
37.119
37.215
37.294
37.356
37.403
37.436
37.455
37.463
37.461
37.451
37.435
37.415
37.391
37.366
37.341
37.317
37.293
37.272
37.254
37.238
37.224
37.213
37.205
37.198
37.194
37.191
37.19
37.19
37.191
37.19
37.189
37.186
37.18
37.172
37.159
37.144
37.125
37.104
37.081
37.056
37.031
37.005
36.979
36.955
36.931
36.91
36.891
36.875
36.863
36.854
36.85
36.85
36.854
36.861
36.872
36.884
36.898
36.912
36.926
36.939
36.95
36.958
36.965
36.969
36.971
36.969
36.966
36.959
36.949
36.938
36.923
36.906
36.885
36.862
36.836
36.807
36.776
36.744
36.71
36.674
36.637
36.598
36.558
36.517
36.475
36.433
36.391
36.349
36.306
36.264
36.222
36.18
36.137
36.095
36.052
36.009
35.966
35.924
35.882
35.84
35.799
35.759
35.72
35.68
35.641
35.602
35.563
35.525
35.487
35.449
35.412
35.377
35.343
35.31
35.279
35.25
35.223
35.198
35.175
35.153
35.132
35.111
35.092
35.072
35.053
35.033
35.013
34.994
34.974
34.953
34.932
34.909
34.885
34.861
34.835
34.809
34.782
34.755
34.729
34.704
34.68
34.657
34.634
34.612
34.59
34.569
34.547
34.526
34.505
34.484
34.463
34.444
34.425
34.406
34.388
34.37
34.352
34.334
34.316
34.298
34.279
34.258
34.236
34.213
34.187
34.16
34.131
34.1
34.067
34.033
33.998
33.964
33.929
33.895
33.861
33.829
33.797
33.766
33.736
33.708
33.681
33.655
33.63
33.606
33.583
33.561
33.541
33.524
33.511
33.504
33.504
33.512
33.532
33.565
33.614
33.679
33.763
33.867
33.991
34.135
34.298
34.48
34.678
34.889
35.112
35.343
35.578
35.814
36.046
36.271
36.486
36.688
36.874
37.043
37.194
37.326
37.44
37.534
37.612
37.672
37.719
37.752
37.774
37.786
37.79
37.788
37.779
37.767
37.751
37.733
37.713
37.692
37.671
37.651
37.632
37.615
37.6
37.587
37.576
37.566
37.558
37.551
37.546
37.542
37.537
37.533
37.528
37.523
37.516
37.507
37.495
37.481
37.463
37.443
37.421
37.398
37.373
37.348
37.322
37.297
37.272
37.248
37.225
37.204
37.184
37.166
37.151
37.138
37.127
37.118
37.111
37.108
37.106
37.108
37.111
37.116
37.122
37.128
37.133
37.138
37.141
37.141
37.138
37.132
37.122
37.11
37.094
37.074
37.052
37.027
36.999
36.969
36.936
36.9
36.863
36.823
36.782
36.74
36.697
36.653
36.608
36.563
36.517
36.471
36.425
36.378
36.33
36.282
36.235
36.187
36.14
36.092
36.046
35.999
35.954
35.909
35.866
35.823
35.781
35.738
35.696
35.653
35.609
35.565
35.52
35.475
35.429
35.384
35.34
35.295
35.252
35.209
35.169
35.13
35.092
35.055
35.02
34.986
34.953
34.921
34.89
34.86
34.83
34.8
34.77
34.741
34.713
34.685
34.658
34.631
34.604
34.578
34.552
34.527
34.502
34.477
34.452
34.426
34.4
34.374
34.347
34.319
34.291
34.262
34.233
34.203
34.174
34.144
34.114
34.083
34.053
34.023
33.993
33.963
33.934
33.906
33.878
33.851
33.825
33.799
33.774
33.749
33.724
33.699
33.674
33.65
33.625
33.6
33.574
33.549
33.523
33.497
33.47
33.443
33.416
33.389
33.362
33.334
33.306
33.277
33.247
33.216
33.185
33.153
33.121
33.089
33.056
33.023
32.99
32.956
32.922
32.887
32.853
32.82
32.787
32.756
32.727
32.701
32.68
32.664
32.656
32.657
32.668
32.693
32.733
32.79
32.867
32.963
33.081
33.218
33.375
33.548
33.737
33.937
34.147
34.362
34.582
34.802
35.021
35.234
35.44
35.636
35.818
35.986
36.138
36.272
36.387
36.484
36.562
36.622
36.666
36.695
36.711
36.715
36.709
36.694
36.674
36.649
36.621
36.592
36.563
36.534
36.506
36.481
36.457
36.435
36.415
36.398
36.382
36.369
36.357
36.347
36.338
36.331
36.325
36.32
36.314
36.309
36.303
36.295
36.286
36.275
36.261
36.246
36.228
36.209
36.187
36.164
36.14
36.116
36.093
36.071
36.051
36.034
36.02
36.01
36.002
35.999
36.0
36.005
36.014
36.027
36.042
36.059
36.078
36.097
36.116
36.133
36.149
36.162
36.173
36.181
36.186
36.188
36.186
36.181
36.173
36.162
36.147
36.129
36.108
36.083
36.054
36.022
35.986
35.947
35.904
35.857
35.807
35.754
35.698
35.64
35.579
35.517
35.454
35.391
35.329
35.268
35.209
35.151
35.096
35.043
34.992
34.943
34.897
34.853
34.81
34.77
34.732
34.694
34.659
34.625
34.592
34.562
34.533
34.505
34.477
34.45
34.424
34.397
34.371
34.344
34.317
34.289
34.26
34.23
34.198
34.165
34.132
34.097
34.062
34.025
33.989
33.952
33.915
33.879
33.845
33.813
33.784
33.757
33.733
33.711
33.69
33.671
33.654
33.637
33.622
33.608
33.595
33.581
33.568
33.554
33.539
33.524
33.508
33.491
33.473
33.455
33.434
33.413
33.389
33.365
33.34
33.315
33.291
33.267
33.244
33.223
33.202
33.182
33.164
33.147
33.131
33.115
33.1
33.084
33.068
33.052
33.037
33.021
33.007
32.993
32.979
32.965
32.95
32.934
32.918
32.9
32.882
32.863
32.844
32.824
32.804
32.783
32.76
32.737
32.712
32.687
32.662
32.636
32.609
32.582
32.555
32.528
32.502
32.478
32.455
32.436
32.418
32.405
32.394
32.39
32.391
32.402
32.424
32.458
32.508
32.574
32.657
32.757
32.876
33.012
33.165
33.333
33.514
33.706
33.906
34.111
34.317
34.523
34.724
34.919
35.104
35.278
35.437
35.582
35.711
35.824
35.92
36.001
36.066
36.117
36.154
36.178
36.191
36.195
36.19
36.179
36.161
36.139
36.113
36.083
36.052
36.019
35.986
35.952
35.918
35.885
35.851
35.819
35.787
35.757
35.729
35.702
35.678
35.655
35.634
35.614
35.594
35.574
35.553
35.532
35.51
35.488
35.464
35.441
35.418
35.396
35.375
35.355
35.337
35.322
35.31
35.301
35.296
35.295
35.298
35.304
35.313
35.325
35.341
35.359
35.379
35.401
35.424
35.447
35.469
35.49
35.509
35.527
35.543
35.558
35.571
35.582
35.59
35.595
35.597
35.596
35.593
35.588
35.58
35.57
35.558
35.543
35.527
35.508
35.487
35.464
35.439
35.413
35.385
35.355
35.324
35.291
35.256
35.22
35.182
35.143
35.103
35.063
35.023
34.983
34.945
34.907
34.87
34.835
34.801
34.768
34.735
34.704
34.672
34.641
34.611
34.581
34.55
34.521
34.491
34.463
34.435
34.408
34.381
34.356
34.331
34.306
34.283
34.26
34.239
34.218
34.198
34.178
34.159
34.138
34.118
34.097
34.077
34.056
34.037
34.018
34.0
33.983
33.968
33.954
33.94
33.928
33.917
33.906
33.896
33.886
33.875
33.864
33.851
33.836
33.82
33.803
33.784
33.765
33.746
33.726
33.707
33.689
33.672
33.657
33.643
33.63
33.618
33.606
33.596
33.586
33.575
33.564
33.552
33.538
33.521
33.502
33.481
33.458
33.433
33.407
33.38
33.352
33.323
33.293
33.262
33.231
33.201
33.171
33.144
33.119
33.096
33.076
33.06
33.047
33.038
33.035
33.04
33.053
33.077
33.114
33.166
33.233
33.317
33.419
33.539
33.675
33.828
33.994
34.172
34.359
34.552
34.749
34.947
35.144
35.336
35.521
35.696
35.86
36.01
36.146
36.266
36.371
36.461
36.536
36.596
36.643
36.678
36.7
36.712
36.716
36.711
36.699
36.681
36.658
36.632
36.603
36.573
36.541
36.509
36.477
36.445
36.414
36.384
36.355
36.328
36.301
36.274
36.247
36.22
36.194
36.169
36.143
36.119
36.094
36.069
36.044
36.018
35.991
35.963
35.935
35.908
35.881
35.856
35.833
35.813
35.796
35.782
35.772
35.767
35.765
35.768
35.775
35.786
35.801
35.819
35.84
35.865
35.89
35.917
35.943
35.969
35.992
36.013
36.031
36.047
36.059
36.069
36.075
36.078
36.078
36.074
36.068
36.058
36.045
36.03
36.012
35.993
35.972
35.95
35.927
35.903
35.877
35.848
35.817
35.782
35.745
35.707
35.666
35.625
35.583
35.541
35.499
35.458
35.418
35.38
35.345
35.311
35.278
35.246
35.214
35.181
35.148
35.114
35.08
35.046
35.013
34.98
34.948
34.917
34.886
34.856
34.826
34.797
34.769
34.742
34.714
34.687
34.661
34.635
34.61
34.585
34.562
34.539
34.517
34.495
34.474
34.452
34.431
34.41
34.389
34.368
34.348
34.327
34.306
34.285
34.265
34.245
34.226
34.208
34.191
34.175
34.16
34.145
34.13
34.115
34.1
34.085
34.07
34.055
34.041
34.027
34.012
33.997
33.982
33.967
33.952
33.937
33.923
33.908
33.893
33.877
33.86
33.842
33.823
33.802
33.779
33.755
33.729
33.703
33.676
33.65
33.623
33.598
33.574
33.549
33.526
33.502
33.479
33.455
33.432
33.411
33.391
33.374
33.362
33.354
33.354
33.364
33.384
33.419
33.47
33.538
33.625
33.732
33.858
34.004
34.168
34.348
34.544
34.751
34.968
35.192
35.418
35.645
35.868
36.085
36.294
36.492
36.678
36.851
37.01
37.153
37.282
37.395
37.494
37.579
37.651
37.709
37.755
37.789
37.811
37.823
37.825
37.82
37.807
37.787
37.763
37.735
37.705
37.674
37.642
37.611
37.581
37.552
37.525
37.499
37.475
37.453
37.432
37.413
37.396
37.379
37.363
37.348
37.333
37.317
37.3
37.281
37.259
37.235
37.208
37.18
37.151
37.122
37.093
37.065
37.038
37.014
36.994
36.978
36.966
36.96
36.959
36.963
36.972
36.986
37.005
37.027
37.052
37.079
37.107
37.135
37.162
37.188
37.211
37.231
37.248
37.261
37.271
37.277
37.278
37.276
37.271
37.263
37.252
37.238
37.221
37.2
37.178
37.152
37.123
37.092
37.058
37.022
36.983
36.943
36.902
36.86
36.817
36.773
36.729
36.685
36.641
36.597
36.553
36.51
36.468
36.425
36.381
36.337
36.292
36.245
36.196
36.146
36.096
36.045
35.994
35.944
35.896
35.85
35.806
35.765
35.726
35.689
35.653
35.619
35.587
35.557
35.528
35.5
35.473
35.446
35.42
35.394
35.369
35.343
35.318
35.292
35.266
35.239
35.212
35.185
35.158
35.131
35.105
35.08
35.055
35.03
35.006
34.981
34.956
34.93
34.904
34.878
34.852
34.825
34.8
34.775
34.752
34.73
34.709
34.689
34.671
34.653
34.635
34.617
34.6
34.582
34.565
34.549
34.532
34.517
34.503
34.489
34.476
34.464
34.451
34.439
34.427
34.414
34.401
34.387
34.373
34.357
34.34
34.323
34.305
34.286
34.266
34.246
34.225
34.203
34.18
34.157
34.133
34.109
34.083
34.056
34.027
33.996
33.964
33.93
33.895
33.858
33.819
33.78
33.739
33.698
33.656
33.616
33.577
33.543
33.514
33.494
33.485
33.488
33.507
33.544
33.603
33.685
33.793
33.927
34.089
34.276
34.487
34.72
34.971
35.238
35.516
35.799
36.084
36.366
36.641
36.905
37.154
37.387
37.6
37.794
37.967
38.118
38.248
38.357
38.446
38.517
38.571
38.609
38.632
38.643
38.643
38.632
38.613
38.587
38.556
38.52
38.482
38.442
38.401
38.36
38.32
38.28
38.241
38.203
38.168
38.134
38.103
38.074
38.048
38.024
38.001
37.979
37.957
37.934
37.91
37.885
37.86
37.832
37.804
37.775
37.744
37.712
37.68
37.648
37.616
37.585
37.556
37.53
37.508
37.491
37.479
37.472
37.47
37.473
37.48
37.492
37.508
37.526
37.547
37.569
37.592
37.615
37.637
37.658
37.677
37.694
37.708
37.717
37.722
37.721
37.716
37.705
37.691
37.672
37.651
37.627
37.6
37.572
37.542
37.511
37.478
37.444
37.409
37.372
37.334
37.294
37.253
37.211
37.168
37.124
37.078
37.031
36.983
36.935
36.886
36.837
36.788
36.738
36.688
36.637
36.587
36.537
36.488
36.439
36.391
36.344
36.299
36.254
36.211
36.169
36.127
36.086
36.046
36.006
35.966
35.925
35.884
35.842
35.801
35.761
35.721
35.682
35.643
35.605
35.568
35.531
35.494
35.459
35.423
35.388
35.353
35.319
35.284
35.248
35.213
35.178
35.144
35.11
35.077
35.044
35.013
34.982
34.952
34.924
34.896
34.87
34.844
34.821
34.799
34.778
34.76
34.742
34.724
34.705
34.685
34.663
34.639
34.612
34.583
34.554
34.523
34.491
34.458
34.424
34.39
34.356
34.323
34.289
34.256
34.223
34.191
34.16
34.129
34.099
34.069
34.039
34.009
33.979
33.949
33.918
33.886
33.854
33.82
33.786
33.751
33.715
33.679
33.644
33.609
33.573
33.539
33.505
33.472
33.442
33.414
33.389
33.368
33.352
33.344
33.344
33.357
33.385
33.431
33.496
33.585
33.696
33.831
33.99
34.172
34.375
34.596
34.834
35.084
35.344
35.608
35.876
36.142
36.404
36.658
36.903
37.135
37.352
37.552
37.732
37.893
38.034
38.155
38.255
38.336
38.398
38.443
38.473
38.489
38.494
38.488
38.474
38.452
38.424
38.391
38.355
38.315
38.272
38.227
38.18
38.133
38.085
38.038
37.992
37.948
37.907
37.869
37.834
37.801
37.771
37.743
37.716
37.69
37.663
37.636
37.607
37.576
37.542
37.506
37.468
37.428
37.387
37.346
37.307
37.27
37.238
37.209
37.186
37.168
37.154
37.145
37.141
37.141
37.146
37.153
37.163
37.176
37.191
37.206
37.223
37.24
37.256
37.272
37.285
37.297
37.306
37.313
37.318
37.321
37.321
37.319
37.313
37.304
37.291
37.275
37.255
37.231
37.204
37.174
37.14
37.104
37.066
37.026
36.985
36.942
36.898
36.853
36.807
36.761
36.714
36.666
36.619
36.571
36.523
36.474
36.425
36.376
36.327
36.278
36.229
36.181
36.133
36.085
36.037
35.989
35.941
35.894
35.847
35.8
35.753
35.706
35.659
35.612
35.566
35.52
35.475
35.43
35.387
35.344
35.303
35.264
35.225
35.189
35.154
35.12
35.087
35.055
35.024
34.992
34.96
34.929
34.897
34.865
34.833
34.801
34.769
34.737
34.706
34.675
34.645
34.617
34.589
34.562
34.537
34.512
34.489
34.467
34.446
34.426
34.406
34.386
34.366
34.345
34.324
34.302
34.28
34.257
34.235
34.211
34.187
34.161
34.134
34.104
34.073
34.04
34.007
33.972
33.938
33.903
33.867
33.831
33.794
33.758
33.722
33.687
33.654
33.622
33.591
33.562
33.534
33.508
33.486
33.469
33.459
33.459
33.469
33.492
33.53
33.585
33.658
33.752
33.867
34.003
34.16
34.337
34.532
34.743
34.967
35.203
35.447
35.695
35.946
36.194
36.438
36.673
36.898
37.11
37.307
37.487
37.651
37.797
37.925
38.036
38.128
38.204
38.262
38.304
38.331
38.344
38.344
38.334
38.314
38.286
38.251
38.211
38.167
38.12
38.07
38.02
37.968
37.917
37.867
37.818
37.771
37.726
37.684
37.643
37.604
37.566
37.529
37.492
37.455
37.416
37.376
37.335
37.292
37.247
37.203
37.158
37.114
37.072
37.032
36.994
36.962
36.934
36.912
36.897
36.888
36.887
36.893
36.904
36.921
36.943
36.968
36.996
37.025
37.054
37.082
37.109
37.134
37.156
37.175
37.191
37.204
37.214
37.22
37.223
37.224
37.221
37.216
37.208
37.198
37.184
37.168
37.149
37.126
37.1
37.072
37.04
37.003
36.963
36.92
36.874
36.825
36.773
36.72
36.665
36.61
36.554
36.498
36.442
36.386
36.33
36.273
36.216
36.159
36.102
36.045
35.989
35.935
35.883
35.832
35.782
35.733
35.684
35.637
35.59
35.543
35.497
35.451
35.405
35.359
35.313
35.268
35.224
35.181
35.14
35.1
35.061
35.023
34.988
34.954
34.923
34.893
34.864
34.836
34.809
34.781
34.754
34.728
34.703
34.679
34.657
34.634
34.613
34.593
34.573
34.554
34.535
34.517
34.497
34.477
34.454
34.43
34.404
34.377
34.349
34.319
34.288
34.256
34.223
34.189
34.155
34.122
34.09
34.059
34.03
34.003
33.98
33.96
33.945
33.937
33.935
33.943
33.962
33.995
34.042
34.106
34.189
34.292
34.416
34.56
34.725
34.908
35.108
35.322
35.548
35.783
36.024
36.268
36.511
36.752
36.986
37.212
37.426
37.627
37.812
37.98
38.13
38.261
38.372
38.465
38.54
38.596
38.636
38.66
38.671
38.669
38.657
38.636
38.608
38.575
38.536
38.494
38.449
38.402
38.353
38.303
38.252
38.2
38.148
38.096
38.046
37.996
37.948
37.901
37.854
37.808
37.761
37.714
37.665
37.615
37.564
37.513
37.461
37.411
37.362
37.315
37.272
37.232
37.197
37.166
37.14
37.12
37.106
37.098
37.096
37.099
37.108
37.122
37.14
37.161
37.185
37.21
37.237
37.264
37.29
37.317
37.342
37.367
37.391
37.412
37.431
37.445
37.454
37.458
37.456
37.449
37.436
37.419
37.396
37.37
37.339
37.304
37.266
37.225
37.182
37.136
37.089
37.041
36.993
36.944
36.894
36.844
36.793
36.742
36.69
36.638
36.586
36.534
36.482
36.431
36.379
36.328
36.278
36.226
36.175
36.124
36.072
36.021
35.97
35.919
35.868
35.818
35.769
35.721
35.674
35.628
35.583
35.539
35.497
35.455
35.414
35.375
35.337
35.3
35.265
35.23
35.196
35.161
35.126
35.09
35.053
35.015
34.975
34.934
34.891
34.847
34.802
34.756
34.71
34.663
34.616
34.568
34.522
34.476
34.431
34.388
34.346
34.307
34.27
34.235
34.202
34.173
34.145
34.119
34.096
34.074
34.053
34.033
34.014
33.995
33.977
33.961
33.946
33.933
33.924
33.919
33.92
33.93
33.949
33.982
34.029
34.093
34.177
34.28
34.404
34.549
34.714
34.898
35.1
35.318
35.549
35.791
36.04
36.293
36.546
36.796
37.039
37.272
37.493
37.699
37.888
38.06
38.213
38.346
38.458
38.551
38.624
38.678
38.714
38.733
38.737
38.726
38.705
38.673
38.634
38.587
38.535
38.479
38.421
38.362
38.302
38.243
38.186
38.13
38.077
38.027
37.979
37.933
37.89
37.848
37.807
37.766
37.726
37.684
37.641
37.598
37.553
37.508
37.463
37.419
37.375
37.332
37.29
37.249
37.211
37.174
37.14
37.11
37.083
37.06
37.041
37.027
37.017
37.013
37.013
37.018
37.026
37.039
37.054
37.072
37.091
37.11
37.129
37.145
37.159
37.169
37.176
37.178
37.176
37.169
37.157
37.141
37.121
37.096
37.069
37.038
37.004
36.968
36.929
36.888
36.844
36.799
36.752
36.703
36.651
36.597
36.54
36.482
36.422
36.361
36.298
36.234
36.169
36.104
36.037
35.97
35.902
35.835
35.767
35.701
35.634
35.568
35.504
35.44
35.378
35.317
35.258
35.2
35.143
35.087
35.032
34.978
34.926
34.875
34.824
34.773
34.724
34.674
34.625
34.577
34.53
34.485
34.441
34.399
34.358
34.319
34.282
34.246
34.212
34.18
34.149
34.118
34.087
34.056
34.025
33.992
33.96
33.927
33.895
33.864
33.834
33.805
33.777
33.75
33.723
33.696
33.67
33.643
33.616
33.589
33.562
33.533
33.504
33.474
33.443
33.411
33.377
33.342
33.306
33.27
33.233
33.196
33.16
33.125
33.091
33.059
33.031
33.007
32.989
32.979
32.981
32.995
33.026
33.075
33.145
33.237
33.351
33.489
33.649
33.83
34.031
34.249
34.481
34.724
34.975
35.231
35.487
35.741
35.987
36.224
36.446
36.653
36.841
37.009
37.158
37.286
37.393
37.479
37.546
37.594
37.624
37.638
37.638
37.625
37.601
37.567
37.527
37.48
37.43
37.378
37.324
37.271
37.219
37.169
37.121
37.076
37.033
36.994
36.957
36.922
36.889
36.858
36.827
36.797
36.768
36.739
36.708
36.676
36.641
36.604
36.565
36.524
36.481
36.437
36.392
36.346
36.3
36.255
36.212
36.171
36.133
36.099
36.069
36.044
36.023
36.007
35.995
35.987
35.984
35.984
35.987
35.993
36.0
36.008
36.016
36.023
36.028
36.031
36.03
36.026
36.019
36.008
35.993
35.974
35.95
35.923
35.893
35.859
35.823
35.785
35.745
35.703
35.66
35.615
35.57
35.523
35.475
35.427
35.378
35.329
35.279
35.228
35.177
35.125
35.073
35.021
34.97
34.919
34.868
34.818
34.768
34.718
34.669
34.62
34.572
34.524
34.476
34.43
34.383
34.338
34.293
34.25
34.207
34.165
34.125
34.085
34.045
34.006
33.967
33.927
33.888
33.849
33.811
33.773
33.737
33.702
33.668
33.636
33.604
33.572
33.542
33.512
33.482
33.453
33.423
33.393
33.362
33.332
33.302
33.272
33.243
33.214
33.187
33.16
33.134
33.107
33.081
33.055
33.029
33.003
32.976
32.949
32.921
32.892
32.862
32.831
32.799
32.767
32.734
32.7
32.666
32.631
32.596
32.559
32.523
32.486
32.449
32.411
32.373
32.336
32.3
32.265
32.231
32.2
32.172
32.146
32.126
32.112
32.106
32.109
32.124
32.153
32.197
32.259
32.338
32.437
32.553
32.688
32.839
33.006
33.187
33.378
33.58
33.788
34.0
34.213
34.425
34.631
34.83
35.018
35.194
35.355
35.501
35.629
35.739
35.832
35.906
35.962
36.002
36.026
36.036
36.034
36.021
36.0
35.972
35.938
