Trial 1:0back
34.118
34.098
34.087
34.085
34.086
34.089
34.088
34.081
34.068
34.047
34.017
33.98
33.935
33.886
33.833
33.777
33.721
33.666
33.613
33.564
33.52
33.479
33.443
33.41
33.381
33.355
33.33
33.306
33.284
33.264
33.246
33.23
33.216
33.204
33.193
33.183
33.174
33.166
33.159
33.152
33.147
33.142
33.138
33.135
33.134
33.135
33.137
33.141
33.145
33.15
33.153
33.155
33.157
33.158
33.158
33.157
33.155
33.151
33.144
33.132
33.112
33.087
33.059
33.028
32.998
32.968
32.94
32.915
32.892
32.873
32.856
32.842
32.829
32.818
32.806
32.793
32.777
32.759
32.738
32.713
32.685
32.653
32.618
32.579
32.538
32.494
32.448
32.4
32.351
32.301
32.25
32.2
32.151
32.104
32.059
32.016
31.975
31.937
31.901
31.867
31.836
31.808
31.785
31.766
31.753
31.75
31.759
31.785
31.831
31.903
32.006
32.148
32.336
32.575
32.872
33.227
33.642
34.114
34.638
35.205
35.806
36.429
37.06
37.685
38.294
38.874
39.415
39.909
40.351
40.734
41.058
41.321
41.524
41.672
41.768
41.818
41.828
41.803
41.748
41.67
41.573
41.463
41.341
41.213
41.08
40.945
40.809
40.673
40.537
40.402
40.268
40.134
40.002
39.869
39.735
39.602
39.469
39.338
39.209
39.082
38.96
38.843
38.732
38.627
38.528
38.435
38.347
38.264
38.186
38.11
38.036
37.963
37.89
37.813
37.734
37.651
37.564
37.474
37.382
37.288
37.194
37.101
37.011
36.923
36.841
36.763
36.692
36.628
36.573
36.526
36.487
36.456
36.431
36.411
36.397
36.388
36.386
36.39
36.4
36.416
36.437
36.462
36.49
36.52
36.551
36.582
36.611
36.638
36.663
36.684
36.701
36.714
36.721
36.722
36.719
36.711
36.698
36.682
36.66
36.634
36.603
36.567
36.526
36.48
36.429
36.373
36.311
36.245
36.174
36.098
36.02
35.938
35.853
35.767
35.68
35.593
35.507
35.421
35.338
35.257
35.179
35.103
35.029
34.957
34.887
34.817
34.749
34.682
34.616
34.551
34.486
34.42
34.352
34.285
34.218
34.153
34.091
34.034
33.982
33.935
33.894
33.859
33.829
33.803
33.781
33.761
33.743
33.728
33.716
33.706
33.698
33.692
33.687
33.682
33.678
33.674
33.669
33.665
33.661
33.658
33.657
33.658
33.662
33.669
33.677
33.686
33.696
33.706
33.714
33.721
33.726
33.728
33.729
33.729
33.728
33.728
33.728
33.728
33.728
33.727
33.726
33.724
33.722
33.721
33.719
33.718
33.717
33.716
33.716
33.716
33.714
33.712
33.707
33.701
33.692
33.68
33.666
33.649
33.631
33.611
33.59
33.567
33.544
33.522
33.501
33.481
33.461
33.441
33.422
33.403
33.383
33.364
33.344
33.321
33.297
33.269
33.239
33.207
33.171
33.133
33.094
33.054
33.013
32.972
32.932
32.893
32.855
32.819
32.785
32.755
32.727
32.704
32.684
32.668
32.657
32.652
32.654
32.665
32.687
32.724
32.78
32.861
32.974
33.125
33.321
33.567
33.866
34.22
34.628
35.086
35.588
36.123
36.683
37.255
37.828
38.388
38.924
39.427
39.888
40.3
40.66
40.965
41.214
41.408
41.549
41.641
41.688
41.695
41.667
41.61
41.529
41.431
41.318
41.197
41.069
40.937
40.803
40.668
40.533
40.397
40.26
40.124
39.986
39.848
39.71
39.572
39.435
39.3
39.167
39.036
38.908
38.785
38.667
38.553
38.445
38.342
38.245
38.154
38.067
37.983
37.9
37.818
37.735
37.651
37.566
37.479
37.39
37.3
37.209
37.118
37.027
36.937
36.851
36.769
36.694
36.626
36.567
36.517
36.476
36.445
36.425
36.42
36.431
36.456
36.491
36.535
36.582
36.63
36.676
36.717
36.752
36.781
36.803
36.82
36.833
36.841
36.847
36.85
36.851
36.852
36.852
36.851
36.851
36.85
36.85
36.849
36.846
36.841
36.833
36.82
36.803
36.783
36.759
36.731
36.702
36.669
36.635
36.597
36.555
36.509
36.459
36.404
36.345
36.281
36.213
36.14
36.063
35.984
35.902
35.82
35.738
35.656
35.576
35.498
35.423
35.351
35.283
35.219
35.157
35.099
35.043
34.989
34.936
34.884
34.833
34.783
34.733
34.684
34.635
34.586
34.537
34.488
34.437
34.387
34.339
34.291
34.245
34.202
34.161
34.122
34.086
34.052
34.02
33.989
33.959
33.929
33.9
33.869
33.839
33.808
33.776
33.742
33.707
33.669
33.628
33.586
33.541
33.494
33.447
33.399
33.35
33.303
33.256
33.211
33.166
33.12
33.075
33.029
32.984
32.94
32.897
32.856
32.818
32.782
32.75
32.722
32.697
32.676
32.659
32.644
32.633
32.624
32.617
32.614
32.613
32.615
32.62
32.627
32.637
32.65
32.665
32.682
32.699
32.716
32.734
32.751
32.77
32.79
32.813
32.837
32.864
32.892
32.92
32.949
32.975
32.999
33.02
33.035
33.045
33.049
33.047
33.039
33.027
33.011
32.991
32.969
32.945
32.92
32.892
32.864
32.836
32.808
32.782
32.76
32.742
32.728
32.721
32.72
32.728
32.748
32.783
32.839
32.922
33.039
33.197
33.402
33.661
33.975
34.347
34.773
35.248
35.765
36.313
36.881
37.455
38.025
38.576
39.098
39.584
40.027
40.422
40.765
41.052
41.279
41.448
41.559
41.614
41.619
41.578
41.497
41.381
41.236
41.069
40.885
40.69
40.487
40.281
40.074
39.87
39.67
39.477
39.292
39.116
38.948
38.789
38.639
38.498
38.366
38.245
38.133
38.031
37.938
37.854
37.778
37.71
37.649
37.597
37.551
37.513
37.479
37.45
37.426
37.404
37.382
37.361
37.337
37.31
37.279
37.241
37.198
37.148
37.092
37.03
36.964
36.896
36.827
36.76
36.695
36.635
36.582
36.537
36.502
36.477
36.464
36.463
36.474
36.496
36.529
36.57
36.618
36.671
36.728
36.787
36.847
36.906
36.963
37.019
37.071
37.118
37.159
37.194
37.221
37.242
37.256
37.262
37.259
37.248
37.227
37.198
37.16
37.114
37.06
37.0
36.935
36.865
36.793
36.717
36.64
36.561
36.48
36.397
36.314
36.23
36.144
36.057
35.967
35.875
35.781
35.687
35.593
35.498
35.405
35.312
35.221
35.132
35.045
34.961
34.879
34.8
34.722
34.648
34.575
34.504
34.436
34.37
34.309
34.251
34.198
34.15
34.105
34.065
34.027
33.992
33.96
33.93
33.902
33.876
33.851
33.826
33.802
33.778
33.754
33.732
33.71
33.689
33.669
33.649
33.63
33.611
33.593
33.576
33.561
33.547
33.536
33.527
33.521
33.518
33.517
33.52
33.526
33.534
33.544
33.555
33.564
33.573
33.58
33.584
33.586
33.585
33.582
33.576
33.569
33.56
33.551
33.542
33.533
33.523
33.513
33.502
33.491
33.479
33.467
33.456
33.446
33.438
33.432
33.428
33.427
33.426
33.421
33.411
33.395
33.375
33.352
33.329
33.307
33.287
33.271
33.259
33.251
33.247
33.245
33.245
33.245
33.244
33.241
33.236
33.227
33.213
33.194
33.17
33.14
33.107
33.069
33.03
32.989
32.949
32.911
32.874
32.839
32.808
32.78
32.757
32.74
32.731
32.734
32.753
32.793
32.861
32.964
33.109
33.301
33.544
33.843
34.197
34.604
35.059
35.557
36.087
36.64
37.202
37.762
38.307
38.826
39.311
39.754
40.148
40.49
40.778
41.01
41.187
41.312
41.388
41.42
41.411
41.367
41.294
41.195
41.076
40.941
40.794
40.639
40.478
40.314
40.15
39.988
39.829
39.675
39.527
39.387
39.255
39.132
39.019
38.914
38.819
38.732
38.654
38.584
38.523
38.469
38.422
38.381
38.344
38.311
38.281
38.253
38.226
38.199
38.17
38.14
38.106
38.068
38.027
37.981
37.93
37.876
37.818
37.755
37.69
37.622
37.555
37.49
37.426
37.365
37.307
37.253
37.203
37.16
37.122
37.091
37.067
37.05
37.039
37.034
37.034
37.04
37.05
37.066
37.085
37.106
37.121
37.131
37.136
37.136
37.133
37.128
37.122
37.114
37.106
37.095
37.082
37.066
37.046
37.02
36.989
36.951
36.908
36.857
36.799
36.735
36.663
36.585
36.501
36.413
36.321
36.226
36.129
36.031
35.931
35.831
35.73
35.629
35.528
35.43
35.333
35.24
35.15
35.062
34.978
34.896
34.818
34.743
34.67
34.6
34.531
34.464
34.398
34.333
34.271
34.21
34.152
34.097
34.045
33.997
33.952
33.908
33.868
33.83
33.794
33.76
33.729
33.699
33.673
33.65
33.631
33.615
33.601
33.591
33.581
33.572
33.563
33.554
33.544
33.533
33.522
33.511
33.499
33.488
33.477
33.465
33.453
33.441
33.428
33.414
33.399
33.382
33.364
33.343
33.321
33.299
33.275
33.252
33.228
33.206
33.184
33.164
33.144
33.125
33.106
33.087
33.067
33.046
33.024
33.001
32.975
32.948
32.92
32.892
32.863
32.835
32.808
32.78
32.753
32.726
32.699
32.673
32.648
32.621
32.594
32.566
32.536
32.503
32.469
32.432
32.395
32.356
32.317
32.277
32.237
32.198
32.159
32.122
32.086
32.053
32.021
31.991
31.963
31.937
31.914
31.893
31.875
31.859
31.848
31.84
31.837
31.841
31.854
31.88
31.922
31.984
32.073
32.194
32.355
32.561
32.819
33.131
33.497
33.916
34.385
34.895
35.439
36.003
36.577
37.147
37.703
38.233
38.727
39.178
39.58
39.928
40.22
40.456
40.635
40.762
40.839
40.871
40.863
40.82
40.747
40.648
40.528
40.393
40.247
40.091
39.931
39.769
39.606
39.445
39.288
39.132
38.98
38.83
38.684
38.541
38.403
38.269
38.14
38.015
37.897
37.784
37.678
37.579
37.486
37.398
37.315
37.235
37.158
37.083
37.009
36.935
36.861
36.786
36.71
36.632
36.551
36.467
36.38
36.289
36.198
36.105
36.013
35.924
35.838
35.759
35.688
35.628
35.578
35.541
35.516
35.503
35.501
35.511
35.531
35.561
35.598
35.643
35.693
35.746
35.802
35.86
35.918
35.976
36.033
36.089
36.142
36.19
36.234
36.271
36.302
36.327
36.345
36.357
36.362
36.36
36.35
36.332
36.305
36.27
36.227
36.177
36.122
36.062
35.999
35.934
35.865
35.793
35.717
35.637
35.554
35.469
35.381
35.292
35.202
35.112
35.022
34.932
34.843
34.755
34.668
34.584
34.501
34.422
34.345
34.272
34.201
34.133
34.068
34.007
33.949
33.895
33.845
33.799
33.757
33.72
33.687
33.659
33.634
33.613
33.594
33.577
33.56
33.545
33.53
33.515
33.501
33.486
33.472
33.457
33.442
33.429
33.416
33.404
33.391
33.377
33.363
33.348
33.334
33.322
33.311
33.302
33.296
33.292
33.291
33.292
33.293
33.296
33.299
33.301
33.303
33.303
33.302
33.298
33.292
33.283
33.271
33.257
33.24
33.223
33.204
33.185
33.166
33.147
33.13
33.114
33.098
33.084
33.071
33.058
33.047
33.036
33.026
33.018
33.01
33.001
32.992
32.981
32.968
32.952
32.932
32.909
32.883
32.854
32.823
32.791
32.758
32.725
32.69
32.655
32.618
32.58
32.541
32.502
32.463
32.425
32.391
32.36
32.335
32.315
32.302
32.297
32.303
32.318
32.347
32.392
32.457
32.55
32.677
32.844
33.058
33.321
33.637
34.005
34.423
34.886
35.387
35.917
36.467
37.024
37.576
38.112
38.622
39.096
39.526
39.907
40.234
40.505
40.719
40.878
40.985
41.043
41.058
41.033
40.977
40.894
40.791
40.673
40.542
40.404
40.26
40.113
39.966
39.819
39.673
39.529
39.388
39.249
39.112
38.977
38.844
38.715
38.588
38.466
38.347
38.232
38.12
38.013
37.91
37.811
37.718
37.635
37.562
37.497
37.438
37.382
37.324
37.262
37.194
37.117
37.032
36.938
36.836
36.728
36.616
36.503
36.391
36.282
36.179
36.085
36.0
35.928
35.871
35.829
35.803
35.793
35.799
35.82
35.855
35.902
35.96
36.027
36.102
36.184
36.271
36.362
36.455
36.549
36.642
36.733
36.819
36.9
36.973
37.038
37.095
37.143
37.18
37.208
37.225
37.232
37.229
37.217
37.197
37.171
37.139
37.101
37.057
37.008
36.953
36.891
36.823
36.749
36.668
36.581
36.488
36.391
36.288
36.179
36.065
35.946
35.824
35.697
35.568
35.438
35.306
35.173
35.04
34.909
34.778
34.65
34.525
34.404
34.288
34.177
34.071
33.971
33.875
33.782
33.691
33.602
33.515
33.428
33.342
33.257
33.173
33.091
33.012
32.935
32.861
32.79
32.722
32.657
32.595
32.537
32.484
32.436
32.392
32.353
32.32
32.292
32.269
32.25
32.237
32.227
32.222
32.22
32.221
32.225
32.232
32.242
32.255
32.271
32.289
32.308
32.328
32.35
32.372
32.394
32.416
32.437
32.457
32.475
32.489
32.499
32.507
32.513
32.519
32.525
32.533
32.543
32.556
32.571
32.588
32.609
32.633
32.659
32.686
32.713
32.74
32.765
32.788
32.808
32.826
32.841
32.852
32.858
32.86
32.857
32.848
32.835
32.816
32.792
32.764
32.729
32.69
32.647
32.601
32.553
32.504
32.454
32.403
32.352
32.301
32.25
32.199
32.149
32.1
32.052
32.006
31.963
31.923
31.888
31.858
31.833
31.814
31.803
31.8
31.809
31.832
31.876
31.947
32.053
32.202
32.401
32.658
32.977
33.358
33.802
34.303
34.856
35.449
36.071
36.709
37.348
37.976
38.579
39.144
39.663
40.126
40.529
40.87
41.147
41.36
41.514
41.612
41.659
41.661
41.625
41.557
41.464
41.351
41.224
41.085
40.938
40.788
40.635
40.482
40.33
40.179
40.029
39.882
39.738
39.596
39.458
39.324
39.193
39.065
38.94
38.818
38.698
38.582
38.469
38.359
38.255
38.157
38.065
37.978
37.898
37.824
37.756
37.691
37.63
37.571
37.514
37.457
37.399
37.341
37.281
37.218
37.152
37.082
37.008
36.933
36.855
36.776
36.698
36.623
36.551
36.485
36.426
36.375
36.335
36.305
36.285
36.275
36.274
36.28
36.294
36.314
36.338
36.366
36.397
36.429
36.462
36.495
36.526
36.553
36.577
36.596
36.61
36.618
36.62
36.617
36.607
36.591
36.568
36.539
36.504
36.463
36.417
36.366
36.312
36.253
36.192
36.128
36.06
35.988
35.914
35.836
35.754
35.67
35.584
35.496
35.406
35.317
35.229
35.143
35.058
34.976
34.897
34.82
34.745
34.672
34.601
34.532
34.463
34.396
34.33
34.266
34.202
34.141
34.081
34.022
33.966
33.912
33.861
33.811
33.764
33.719
33.675
33.631
33.59
33.55
33.512
33.476
33.443
33.412
33.385
33.36
33.337
33.317
33.298
33.28
33.263
33.246
33.23
33.215
33.201
33.188
33.177
33.166
33.155
33.146
33.136
33.126
33.115
33.104
33.093
33.082
33.07
33.057
33.045
33.031
33.016
33.0
32.985
32.969
32.953
32.936
32.92
32.905
32.891
32.877
32.86
32.838
32.813
32.784
32.755
32.727
32.702
32.68
32.664
32.652
32.644
32.64
32.637
32.637
32.637
32.638
32.638
32.637
32.635
32.632
32.628
32.623
32.619
32.614
32.608
32.6
32.589
32.576
32.559
32.538
32.514
32.488
32.46
32.432
32.403
32.375
32.348
32.322
32.296
32.27
32.245
32.22
32.196
32.172
32.149
32.128
32.109
32.092
32.076
32.064
32.054
32.046
32.04
32.038
32.041
32.051
32.071
32.105
32.158
32.235
32.343
32.489
32.683
32.931
33.241
33.615
34.051
34.544
35.085
35.663
36.266
36.88
37.492
38.088
38.655
39.183
39.664
40.091
40.46
40.768
41.016
41.205
41.338
41.42
41.456
41.453
41.415
41.35
41.264
41.161
41.046
40.922
40.793
40.661
40.528
40.395
40.263
40.132
40.002
39.873
39.744
39.614
39.483
39.349
39.213
39.076
38.94
38.805
38.672
38.543
38.418
38.3
38.186
38.076
37.969
37.867
37.768
37.672
37.58
37.489
37.4
37.313
37.224
37.135
37.043
36.949
36.854
36.756
36.658
36.56
36.464
36.372
36.285
36.205
36.134
36.073
36.024
35.987
35.962
35.95
35.95
35.963
35.988
36.023
36.069
36.123
36.185
36.252
36.323
36.394
36.466
36.537
36.604
36.667
36.723
36.772
36.813
36.844
36.865
36.875
36.876
36.867
36.847
36.818
36.781
36.737
36.687
36.63
36.567
36.499
36.425
36.347
36.265
36.181
36.093
36.003
35.909
35.813
35.713
35.61
35.504
35.394
35.282
35.169
35.055
34.94
34.826
34.712
34.6
34.49
34.384
34.28
34.179
34.082
33.987
33.895
33.806
33.721
33.64
33.563
33.491
33.424
33.362
33.305
33.254
33.208
33.168
33.133
33.103
33.076
33.051
33.027
33.002
32.977
32.951
32.925
32.9
32.877
32.855
32.834
32.815
32.798
32.781
32.764
32.749
32.735
32.721
32.708
32.696
32.686
32.679
32.676
32.675
32.676
32.679
32.682
32.684
32.686
32.687
32.687
32.686
32.686
32.685
32.685
32.684
32.684
32.684
32.684
32.683
32.68
32.675
32.67
32.662
32.654
32.645
32.636
32.626
32.617
32.609
32.602
32.595
32.589
32.583
32.576
32.568
32.56
32.552
32.544
32.536
32.53
32.525
32.523
32.521
32.519
32.517
32.513
32.507
32.497
32.484
32.467
32.447
32.423
32.396
32.366
32.333
32.299
32.264
32.229
32.193
32.159
32.126
32.096
32.068
32.045
32.026
32.013
32.006
32.007
32.016
32.036
32.07
32.12
32.193
32.293
32.43
32.609
32.838
33.123
33.469
33.878
34.35
34.882
35.465
36.092
36.748
37.422
38.097
38.759
39.394
39.992
40.54
41.031
41.458
41.817
42.107
42.329
42.487
42.584
42.627
42.623
42.578
42.5
42.396
42.27
42.13
41.98
41.824
41.666
41.509
41.353
41.2
41.049
40.901
40.757
40.614
40.474
40.335
40.196
40.058
39.92
39.782
39.644
39.508
39.374
39.242
39.113
38.987
38.865
38.747
38.634
38.524
38.419
38.318
38.22
38.125
38.032
37.941
37.85
37.759
37.668
37.575
37.481
37.384
37.284
37.182
37.079
36.975
36.872
36.771
36.674
36.583
36.498
36.422
36.356
36.299
36.253
36.219
36.196
36.183
36.18
36.187
36.202
36.223
36.249
36.279
36.309
36.34
36.371
36.4
36.427
36.452
36.473
36.491
36.503
36.51
36.51
36.503
36.489
36.467
36.439
36.403
36.361
36.313
36.258
36.199
36.135
36.067
35.998
35.928
35.857
35.786
35.715
35.643
35.572
35.499
35.427
35.355
35.285
35.216
35.148
35.082
35.016
34.952
34.888
34.824
34.762
34.702
34.643
34.585
34.527
34.469
34.409
34.348
34.284
34.218
34.152
34.084
34.018
33.952
33.889
33.827
33.769
33.716
33.668
33.626
33.593
33.566
33.545
33.53
33.519
33.51
33.503
33.494
33.482
33.467
33.447
33.423
33.394
33.362
33.328
33.293
33.258
33.224
33.19
33.159
33.13
33.104
33.08
33.059
33.039
33.021
33.003
32.986
32.969
32.952
32.933
32.913
32.892
32.869
32.845
32.82
32.793
32.766
32.737
32.709
32.682
32.654
32.628
32.601
32.575
32.547
32.519
32.492
32.466
32.442
32.419
32.399
32.382
32.367
32.354
32.343
32.335
32.327
32.319
32.311
32.302
32.292
32.282
32.27
32.258
32.245
32.23
32.213
32.194
32.172
32.148
32.121
32.09
32.057
32.022
31.985
31.948
31.91
31.874
31.838
31.804
31.772
31.742
31.714
31.686
31.66
31.635
31.611
31.588
31.565
31.543
31.523
31.503
31.485
31.471
31.464
31.468
31.487
31.527
31.594
31.694
31.835
32.024
32.265
32.563
32.921
33.338
33.813
34.339
34.909
35.511
36.134
36.764
37.389
37.994
38.567
39.099
39.581
40.006
40.369
40.668
40.904
41.078
41.194
41.258
41.274
41.248
41.188
41.099
40.989
40.861
40.721
40.574
40.423
40.271
40.12
39.972
39.828
39.686
39.548
39.412
39.278
39.145
39.013
38.88
38.747
38.612
38.478
38.344
38.21
38.077
37.946
37.817
37.69
37.566
37.445
37.328
37.216
37.108
37.001
36.897
36.794
36.692
36.589
36.484
36.377
36.268
36.156
36.043
35.927
35.81
35.694
35.579
35.467
35.361
35.261
35.17
35.089
35.019
34.96
34.914
34.88
34.858
34.85
34.853
34.869
34.895
34.932
34.979
35.034
35.094
35.158
35.225
35.293
35.36
35.422
35.477
35.522
35.558
35.586
35.607
35.622
35.632
35.637
35.637
35.634
35.627
35.617
35.603
35.584
35.56
35.532
35.499
35.462
35.42
35.374
35.323
35.269
35.213
35.154
35.095
35.034
34.972
34.909
34.845
34.779
34.712
34.645
34.577
34.509
34.444
34.381
34.321
34.264
34.211
34.161
34.115
34.072
34.032
33.995
33.959
33.924
33.888
33.851
33.814
33.776
33.737
33.698
33.659
33.621
33.585
33.55
33.518
33.487
33.458
33.431
33.405
33.381
33.358
33.337
33.318
33.3
33.284
33.27
33.256
33.242
33.228
33.212
33.191
33.166
33.138
33.105
33.071
33.035
33.0
32.966
32.934
32.904
32.877
32.852
32.83
32.81
32.791
32.775
32.76
32.746
32.732
32.718
32.703
32.687
32.67
32.651
32.63
32.607
32.582
32.555
32.528
32.5
32.474
32.448
32.424
32.401
32.38
32.359
32.339
32.321
32.304
32.289
32.275
32.263
32.253
32.245
32.237
32.231
32.226
32.221
32.217
32.213
32.21
32.209
32.213
32.224
32.244
32.276
32.325
32.395
32.491
32.62
32.788
32.999
33.259
33.568
33.927
34.334
