Trial 1:0back
37.664
37.633
37.602
37.57
37.538
37.505
37.472
37.44
37.409
37.379
37.349
37.319
37.288
37.257
37.224
37.191
37.154
37.115
37.073
37.027
36.978
36.925
36.868
36.808
36.744
36.678
36.611
36.545
36.481
36.421
36.364
36.311
36.264
36.222
36.186
36.155
36.131
36.112
36.098
36.087
36.079
36.072
36.065
36.057
36.049
36.04
36.032
36.023
36.014
36.003
35.989
35.969
35.942
35.909
35.87
35.827
35.783
35.74
35.7
35.664
35.633
35.608
35.587
35.571
35.559
35.55
35.541
35.533
35.524
35.513
35.499
35.482
35.462
35.436
35.404
35.367
35.324
35.279
35.23
35.179
35.127
35.075
35.026
34.979
34.935
34.895
34.856
34.819
34.783
34.747
34.713
34.678
34.644
34.611
34.577
34.542
34.507
34.469
34.431
34.391
34.352
34.314
34.278
34.245
34.216
34.193
34.176
34.164
34.156
34.15
34.143
34.134
34.122
34.108
34.092
34.076
34.061
34.045
34.03
34.014
33.996
33.977
33.957
33.937
33.916
33.897
33.879
33.863
33.85
33.84
33.83
33.82
33.81
33.798
33.785
33.77
33.755
33.74
33.727
33.716
33.707
33.702
33.699
33.699
33.702
33.709
33.722
33.743
33.772
33.813
33.865
33.931
34.01
34.105
34.213
34.336
34.471
34.617
34.772
34.937
35.109
35.287
35.469
35.653
35.836
36.016
36.191
36.359
36.52
36.672
36.816
36.951
37.075
37.188
37.287
37.373
37.445
37.504
37.55
37.586
37.613
37.632
37.643
37.646
37.641
37.63
37.611
37.588
37.562
37.532
37.502
37.47
37.437
37.404
37.369
37.332
37.293
37.252
37.21
37.169
37.136
37.11
37.089
37.072
37.052
37.027
36.993
36.95
36.897
36.836
36.77
36.699
36.626
36.552
36.478
36.405
36.335
36.268
36.206
36.149
36.097
36.049
36.005
35.964
35.925
35.889
35.855
35.825
35.799
35.777
35.758
35.742
35.729
35.719
35.712
35.707
35.704
35.701
35.699
35.696
35.692
35.686
35.679
35.668
35.655
35.639
35.62
35.598
35.572
35.544
35.516
35.487
35.458
35.43
35.402
35.376
35.35
35.325
35.302
35.278
35.255
35.231
35.206
35.18
35.152
35.122
35.091
35.058
35.022
34.983
34.943
34.901
34.858
34.816
34.774
34.733
34.693
34.654
34.615
34.575
34.534
34.494
34.455
34.417
34.381
34.345
34.311
34.277
34.243
34.211
34.18
34.15
34.122
34.095
34.07
34.048
34.028
34.011
33.996
33.982
33.969
33.957
33.943
33.93
33.917
33.904
33.892
33.88
33.869
33.856
33.844
33.831
33.818
33.807
33.798
33.79
33.784
33.779
33.775
33.77
33.764
33.757
33.75
33.743
33.736
33.729
33.721
33.712
33.702
33.691
33.679
33.667
33.654
33.641
33.629
33.618
33.608
33.601
33.596
33.596
33.602
33.615
33.638
33.67
33.715
33.773
33.845
33.929
34.026
34.134
34.254
34.384
34.526
34.677
34.838
35.006
35.181
35.361
35.544
35.728
35.91
36.087
36.256
36.415
36.562
36.696
36.818
36.928
37.027
37.115
37.191
37.256
37.308
37.348
37.377
37.395
37.404
37.405
37.4
37.388
37.369
37.344
37.311
37.271
37.226
37.178
37.127
37.076
37.026
36.978
36.933
36.891
36.85
36.81
36.769
36.728
36.686
36.643
36.6
36.556
36.511
36.466
36.418
36.366
36.312
36.255
36.197
36.137
36.078
36.02
35.963
35.909
35.855
35.801
35.747
35.694
35.644
35.599
35.559
35.526
35.499
35.479
35.465
35.456
35.451
35.45
35.45
35.453
35.458
35.465
35.474
35.484
35.494
35.503
35.509
35.513
35.512
35.508
35.502
35.494
35.485
35.476
35.466
35.455
35.441
35.423
35.401
35.376
35.348
35.317
35.283
35.246
35.209
35.17
35.13
35.091
35.051
35.011
34.973
34.936
34.901
34.868
34.836
34.805
34.776
34.748
34.72
34.69
34.658
34.624
34.59
34.555
34.52
34.486
34.451
34.416
34.386
34.362
34.344
34.332
34.323
34.316
34.309
34.301
34.29
34.276
34.256
34.232
34.203
34.171
34.135
34.096
34.055
34.014
33.973
33.935
33.899
33.866
33.834
33.804
33.775
33.748
33.724
33.702
33.683
33.668
33.656
33.645
33.635
33.626
33.617
33.608
33.6
33.594
33.59
33.588
33.588
33.591
33.597
33.605
33.617
33.632
33.653
33.68
33.715
33.759
33.813
33.879
33.956
34.044
34.143
34.253
34.373
34.503
34.644
34.796
34.957
35.125
35.3
35.479
35.659
35.838
36.012
36.181
36.342
36.493
36.635
36.765
36.882
36.988
37.081
37.163
37.234
37.294
37.344
37.383
37.413
37.432
37.442
37.444
37.437
37.422
37.401
37.373
37.339
37.301
37.261
37.219
37.177
37.135
37.092
37.049
37.007
36.964
36.921
36.876
36.83
36.78
36.728
36.672
36.614
36.554
36.493
36.433
36.375
36.318
36.262
36.207
36.151
36.094
36.037
35.98
35.925
35.871
35.819
35.77
35.724
35.682
35.643
35.609
35.578
35.553
35.533
35.516
35.504
35.495
35.49
35.488
35.488
35.489
35.49
35.49
35.488
35.484
35.48
35.475
35.469
35.462
35.456
35.449
35.443
35.437
35.432
35.428
35.424
35.42
35.415
35.408
35.4
35.391
35.384
35.377
35.369
35.359
35.346
35.329
35.306
35.277
35.244
35.206
35.165
35.123
35.08
35.037
34.996
34.958
34.924
34.892
34.864
34.836
34.809
34.781
34.751
34.722
34.692
34.664
34.637
34.612
34.589
34.565
34.541
34.517
34.493
34.468
34.442
34.415
34.388
34.36
34.33
34.298
34.264
34.227
34.188
34.148
34.107
34.066
34.027
33.99
33.957
33.928
33.901
33.876
33.854
33.833
33.815
33.797
33.782
33.768
33.755
33.742
33.727
33.71
33.69
33.667
33.641
33.612
33.58
33.543
33.505
33.465
33.426
33.389
33.355
33.324
33.297
33.275
33.26
33.25
33.247
33.251
33.264
33.285
33.316
33.36
33.417
33.488
33.575
33.678
33.796
33.928
34.074
34.231
34.398
34.575
34.761
34.955
35.154
35.359
35.565
35.77
35.972
36.168
36.357
36.537
36.707
36.866
37.015
37.151
37.274
37.383
37.479
37.561
37.63
37.686
37.728
37.758
37.773
37.776
37.767
37.747
37.719
37.684
37.644
37.599
37.551
37.499
37.444
37.387
37.328
37.269
37.21
37.153
37.098
37.047
37.001
36.965
36.939
36.919
36.903
36.887
36.868
36.844
36.813
36.774
36.725
36.668
36.6
36.524
36.441
36.353
36.262
36.17
36.082
35.998
35.921
35.85
35.786
35.728
35.676
35.63
35.591
35.559
35.534
35.516
35.504
35.498
35.497
35.498
35.501
35.505
35.507
35.509
35.511
35.512
35.512
35.511
35.509
35.503
35.495
35.481
35.462
35.439
35.412
35.385
35.358
35.333
35.31
35.288
35.266
35.245
35.223
35.199
35.174
35.146
35.116
35.087
35.057
35.027
34.996
34.963
34.927
34.888
34.847
34.802
34.756
34.709
34.664
34.621
34.582
34.546
34.512
34.478
34.442
34.406
34.369
34.332
34.294
34.257
34.221
34.186
34.153
34.12
34.087
34.055
34.022
33.99
33.96
33.931
33.904
33.881
33.861
33.846
33.835
33.826
33.818
33.809
33.8
33.789
33.777
33.764
33.752
33.739
33.727
33.716
33.706
33.697
33.689
33.682
33.675
33.668
33.66
33.651
33.642
33.632
33.622
33.613
33.605
33.596
33.587
33.576
33.564
33.549
33.533
33.518
33.504
33.494
33.487
33.486
33.491
33.501
33.515
33.528
33.542
33.565
33.601
33.655
33.728
33.822
33.937
34.071
34.222
34.385
34.557
34.734
34.917
35.103
35.293
35.485
35.679
35.872
36.063
36.249
36.429
36.602
36.767
36.923
37.07
37.206
37.331
37.443
37.543
37.629
37.702
37.761
37.808
37.843
37.864
37.872
37.869
37.854
37.831
37.8
37.764
37.725
37.684
37.642
37.6
37.558
37.518
37.477
37.436
37.394
37.351
37.307
37.262
37.216
37.169
37.12
37.068
37.013
36.955
36.892
36.827
36.761
36.695
36.63
36.565
36.501
36.436
36.37
36.303
36.234
36.166
36.098
36.034
35.973
35.917
35.866
35.821
35.781
35.745
35.713
35.685
35.661
35.641
35.625
35.613
35.604
35.597
35.592
35.587
35.581
35.573
35.564
35.555
35.546
35.538
35.531
35.526
35.52
35.514
35.505
35.494
35.48
35.464
35.446
35.428
35.407
35.385
35.362
35.336
35.308
35.277
35.244
35.209
35.174
35.138
35.102
35.069
35.036
35.005
34.975
34.944
34.913
34.879
34.845
34.809
34.773
34.737
34.703
34.67
34.637
34.603
34.567
34.528
34.487
34.447
34.407
34.369
34.333
34.299
34.267
34.237
34.208
34.18
34.151
34.121
34.092
34.063
34.036
34.011
33.988
33.967
33.95
33.943
33.945
33.957
33.975
33.997
34.019
34.039
34.053
34.058
34.054
34.04
34.014
33.98
33.938
33.89
33.839
33.787
33.737
33.691
33.65
33.615
33.587
33.566
33.552
33.542
33.538
33.536
33.536
33.538
33.539
33.541
33.543
33.544
33.545
33.544
33.542
33.541
33.542
33.546
33.557
33.575
33.604
33.646
33.704
33.779
33.874
33.988
34.121
34.273
34.44
34.622
34.817
35.021
35.232
35.448
35.666
35.883
36.097
36.305
36.505
36.695
36.873
37.038
37.189
37.324
37.443
37.545
37.632
37.702
37.758
37.802
37.833
37.853
37.862
37.86
37.85
37.832
37.809
37.782
37.75
37.714
37.676
37.634
37.59
37.543
37.493
37.442
37.391
37.339
37.289
37.241
37.193
37.147
37.101
37.054
37.007
36.959
36.907
36.854
36.797
36.738
36.677
36.616
36.554
36.492
36.43
36.368
36.305
36.243
36.181
36.119
36.059
36.002
35.947
35.897
35.852
35.814
35.782
35.755
35.733
35.714
35.699
35.688
35.682
35.679
35.681
35.686
35.695
35.704
35.715
35.723
35.73
35.734
35.738
35.741
35.744
35.747
35.749
35.748
35.742
35.732
35.716
35.697
35.674
35.649
35.623
35.597
35.572
35.547
35.522
35.496
35.469
35.439
35.406
35.37
35.333
35.293
35.254
35.214
35.174
35.133
35.09
35.043
34.992
34.938
34.883
34.829
34.777
34.73
34.687
34.648
34.613
34.581
34.55
34.519
34.488
34.457
34.426
34.395
34.366
34.339
34.314
34.29
34.266
34.241
34.214
34.185
34.156
34.127
34.1
34.077
34.056
34.037
34.02
34.002
33.983
33.963
33.941
33.918
33.894
33.871
33.85
33.831
33.814
33.8
33.789
33.778
33.769
33.76
33.75
33.741
33.734
33.731
33.732
33.739
33.751
33.77
33.796
33.829
33.87
33.919
33.979
34.05
34.134
34.23
34.341
34.466
34.605
34.757
34.92
35.093
35.273
35.461
35.654
35.851
36.051
36.251
36.449
36.642
36.828
37.004
37.167
37.318
37.455
37.581
37.695
37.797
37.886
37.958
38.015
38.056
38.082
38.095
38.097
38.089
38.071
38.044
38.009
37.965
37.914
37.858
37.798
37.735
37.67
37.605
37.541
37.477
37.414
37.352
37.29
37.229
37.168
37.108
37.047
36.986
36.924
36.862
36.8
36.739
36.679
36.619
36.558
36.497
36.435
36.373
36.311
36.249
36.187
36.125
36.063
36.003
35.945
35.891
35.842
35.798
35.758
35.724
35.695
35.67
35.65
35.634
35.623
35.617
35.614
35.615
35.618
35.622
35.626
35.631
35.634
35.637
35.639
35.641
35.642
35.642
35.642
35.641
35.637
35.631
35.622
35.608
35.591
35.571
35.548
35.525
35.5
35.474
35.445
35.413
35.378
35.34
35.3
35.26
35.222
35.185
35.149
35.115
35.083
35.051
35.019
34.986
34.951
34.915
34.879
34.842
34.805
34.767
34.729
34.691
34.655
34.618
34.582
34.547
34.513
34.481
34.452
34.427
34.404
34.385
34.369
34.355
34.342
34.331
34.32
34.311
34.302
34.295
34.288
34.281
34.274
34.265
34.255
34.242
34.226
34.206
34.181
34.152
34.118
34.083
34.047
34.012
33.98
33.951
33.926
33.903
33.881
33.861
33.841
33.822
33.804
33.789
33.777
33.77
33.769
33.774
33.785
33.803
33.827
33.859
33.899
33.949
34.01
34.085
34.176
34.283
34.408
34.55
34.706
34.875
35.056
35.248
35.45
35.659
35.875
36.095
36.315
36.532
36.743
36.945
37.137
37.316
37.481
37.632
37.767
37.886
37.989
38.076
38.148
38.203
38.245
38.274
38.292
38.299
38.297
38.285
38.264
38.237
38.204
38.167
38.126
38.083
38.037
37.991
37.944
37.898
37.851
37.803
37.755
37.706
37.656
37.606
37.556
37.507
37.458
37.409
37.359
37.308
37.255
37.201
37.145
37.088
37.029
36.969
36.909
36.847
36.784
36.72
36.657
36.595
36.536
36.479
36.426
36.376
36.33
36.287
36.249
36.215
36.185
36.16
36.138
36.12
36.104
36.09
36.08
36.071
36.064
36.059
36.056
36.055
36.055
36.056
36.058
36.059
36.06
36.06
36.059
36.056
36.051
36.044
36.034
36.021
36.006
35.988
35.967
35.944
35.917
35.888
35.857
35.824
35.79
35.755
35.717
35.677
35.634
35.589
35.542
35.494
35.446
35.398
35.35
35.302
35.255
35.209
35.163
35.117
35.071
35.025
34.98
34.935
34.889
34.844
34.8
34.757
34.716
34.677
34.639
34.601
34.565
34.529
34.495
34.463
34.432
34.401
34.37
34.34
34.31
34.281
34.253
34.226
34.201
34.178
34.157
34.137
34.118
34.098
34.078
34.06
34.043
34.029
34.016
34.007
34.003
34.005
34.01
34.018
34.025
34.029
34.027
34.02
34.007
33.989
33.967
33.942
33.915
33.887
33.859
33.832
33.806
33.783
33.766
33.755
33.752
33.759
33.777
33.804
33.842
33.892
33.955
34.034
34.129
34.242
34.373
34.523
34.692
34.88
35.084
35.301
35.528
35.761
35.998
36.236
36.473
36.708
36.938
37.162
37.375
37.577
37.765
37.937
38.092
38.231
38.353
38.459
38.549
38.622
38.678
38.719
38.743
38.752
38.749
38.737
38.719
38.694
38.663
38.626
38.583
38.536
38.487
38.437
38.387
38.338
38.29
38.241
38.193
38.143
38.092
38.04
37.988
37.933
37.877
37.819
37.759
37.697
37.632
37.563
37.491
37.417
37.342
37.266
37.192
37.119
37.048
36.979
36.913
36.85
36.789
36.728
36.668
36.608
36.55
36.494
36.44
36.39
36.343
36.299
36.261
36.229
36.203
36.183
36.166
36.153
36.143
36.135
36.129
36.125
36.124
36.125
36.129
36.134
36.14
36.144
36.146
36.144
36.138
36.13
36.12
36.109
36.096
36.08
36.061
36.037
36.008
35.975
35.936
35.895
35.85
35.804
35.756
35.708
35.66
35.612
35.566
35.52
35.474
35.428
35.381
35.334
35.287
35.24
35.194
35.148
35.103
35.056
35.009
34.96
34.91
34.86
34.811
34.764
34.719
34.675
34.631
34.588
34.545
34.502
34.459
34.417
34.375
34.336
34.301
34.27
34.244
34.221
34.201
34.181
34.162
34.141
34.12
34.098
34.075
34.053
34.033
34.014
33.996
33.979
33.963
33.945
33.928
33.911
33.895
33.879
33.865
33.852
33.842
33.833
33.828
33.824
33.821
33.819
33.816
33.811
33.805
33.798
33.792
33.789
33.789
33.796
33.811
33.834
33.869
33.915
33.975
34.05
34.141
34.251
34.379
34.526
34.691
34.872
35.069
35.279
35.498
35.723
35.953
36.185
36.418
36.65
36.879
37.102
37.316
37.52
37.711
37.887
38.049
38.194
38.323
38.435
38.53
38.607
38.667
38.71
38.736
38.749
38.751
38.743
38.726
38.701
38.669
38.628
38.581
38.527
38.47
38.41
38.351
38.291
38.232
38.174
38.118
38.064
38.012
37.961
37.912
37.862
37.811
37.758
37.703
37.644
37.581
37.516
37.449
37.381
37.312
37.24
37.167
37.091
37.014
36.935
36.857
36.78
36.705
36.635
36.569
36.508
36.452
36.401
36.354
36.311
36.272
36.236
36.202
36.169
36.138
36.109
36.083
36.062
36.045
36.031
36.02
36.013
36.01
36.011
36.015
36.023
36.033
36.044
36.053
36.059
36.061
36.059
36.052
36.039
36.021
35.999
35.972
35.941
35.908
35.871
35.83
35.786
35.74
35.69
35.638
35.586
35.533
35.481
35.428
35.376
35.324
35.27
35.215
35.159
35.104
35.05
34.999
34.95
34.903
34.86
34.82
34.781
34.743
34.705
34.667
34.627
34.586
34.543
34.499
34.454
34.408
34.363
34.317
34.273
34.229
34.186
34.146
34.109
34.075
34.045
34.019
33.996
33.975
33.956
33.937
33.92
33.904
33.889
33.875
33.862
33.85
33.837
33.823
33.807
33.791
33.776
33.76
33.746
33.732
33.719
33.706
33.693
33.68
33.669
33.658
33.649
33.641
33.636
33.634
33.636
33.643
33.656
33.677
33.707
33.748
33.801
33.867
33.949
34.048
34.165
34.3
34.452
34.62
34.803
34.999
35.208
35.428
35.658
35.894
36.135
36.377
36.618
36.853
37.08
37.298
37.503
37.693
37.868
38.027
38.17
38.296
38.406
38.5
38.577
38.638
38.684
38.719
38.749
38.774
38.795
38.811
38.822
38.824
38.817
38.8
38.774
38.737
38.691
38.635
38.572
38.501
38.425
38.343
38.257
38.168
38.078
37.989
37.903
37.819
37.739
37.661
37.586
37.513
37.442
37.371
37.301
37.231
37.159
37.087
37.014
36.94
36.867
36.794
36.722
36.651
36.582
36.515
36.45
36.387
36.328
36.273
36.223
36.178
36.138
36.101
36.068
36.036
36.007
35.979
35.955
35.934
35.919
35.91
35.906
35.906
35.91
35.916
35.922
35.927
35.929
35.929
35.925
35.918
35.908
35.896
35.88
35.861
35.836
35.807
35.773
35.735
35.694
35.65
35.607
35.564
35.523
35.481
35.438
35.391
35.341
35.288
35.232
35.175
35.117
35.061
35.006
34.954
34.905
34.857
34.811
34.765
34.72
34.676
34.632
34.591
34.55
34.511
34.473
34.436
34.397
34.357
34.313
34.266
34.216
34.167
34.12
34.077
34.039
34.005
33.975
33.949
33.926
33.905
33.884
33.865
33.846
33.829
33.813
33.799
33.787
33.777
33.768
33.76
33.753
33.745
33.736
33.726
33.717
33.708
33.702
33.699
33.698
33.7
33.703
33.708
33.712
33.717
33.722
33.727
33.732
33.735
33.738
33.74
33.741
33.74
33.736
33.73
33.72
33.709
33.698
33.689
33.687
33.694
33.713
33.747
33.798
33.865
33.951
34.054
34.177
34.318
34.48
34.661
34.861
35.079
35.312
35.557
35.811
36.069
36.329
36.586
36.839
37.084
37.32
37.544
37.754
37.949
38.128
38.29
38.434
38.559
38.664
38.749
38.814
38.859
38.884
38.892
38.884
38.862
38.83
38.79
38.745
38.696
38.645
38.592
38.536
38.475
38.411
38.343
38.273
38.201
38.128
38.054
37.98
37.905
37.831
37.758
37.688
37.62
37.555
37.492
37.431
37.37
37.308
37.244
37.179
37.114
37.049
36.985
36.921
36.858
36.795
36.731
36.666
36.6
36.535
36.471
36.41
36.354
36.303
36.256
36.214
36.176
36.14
36.108
36.077
36.05
36.025
36.005
35.988
35.975
35.966
35.959
35.952
35.945
35.936
35.925
35.913
35.901
35.89
35.88
35.87
35.86
35.848
35.831
35.81
35.785
35.756
35.724
35.689
35.651
35.611
35.569
35.525
35.479
35.43
35.379
35.327
35.273
35.221
35.169
35.12
35.072
35.026
34.981
34.935
34.886
34.834
34.78
34.724
34.668
34.612
34.559
34.507
34.459
34.42
34.392
34.377
34.37
34.369
34.369
34.366
34.358
34.342
34.32
34.29
34.253
34.208
34.157
34.1
34.04
33.978
33.916
33.855
33.796
33.74
33.69
33.645
33.605
33.572
33.543
33.519
33.499
33.484
33.471
33.461
33.453
33.446
33.44
33.434
33.428
33.422
33.414
33.402
33.387
33.368
33.347
33.323
33.299
33.275
33.252
33.23
33.209
33.19
33.172
33.156
33.142
33.13
33.119
33.11
33.102
33.097
33.094
33.094
33.098
33.106
33.121
33.144
33.177
33.222
33.282
33.359
33.455
33.569
33.703
33.855
34.026
34.214
34.419
34.64
34.875
35.121
35.374
35.631
35.887
36.139
36.385
36.623
36.85
37.065
37.267
37.454
37.626
37.781
37.921
38.045
38.153
38.245
38.32
38.379
38.422
38.45
38.463
38.465
38.455
38.436
38.408
38.374
38.333
38.287
38.237
38.183
38.127
38.068
38.008
37.949
37.893
37.838
37.786
37.735
37.687
37.639
37.593
37.546
37.497
37.445
37.39
37.332
37.271
37.207
37.139
37.067
36.989
36.907
36.82
36.731
36.642
36.553
36.466
36.381
36.301
36.225
36.156
36.094
36.037
35.988
35.946
35.912
35.884
35.863
35.848
35.838
35.832
35.829
35.828
35.827
35.823
35.816
35.804
35.79
35.773
35.757
35.742
35.727
35.712
35.698
35.683
35.665
35.645
35.621
35.593
35.563
35.531
35.498
35.464
35.43
35.394
35.357
35.318
35.276
35.233
35.187
35.141
35.095
35.049
35.004
34.959
34.911
34.861
34.808
34.751
34.693
34.634
34.575
34.517
34.463
34.412
34.365
34.321
34.28
34.239
34.199
34.159
34.119
34.079
34.04
34.002
33.964
33.928
33.892
33.856
33.818
33.779
33.739
33.7
33.664
33.631
33.603
33.579
33.558
33.54
33.525
33.511
33.497
33.483
33.468
33.453
33.437
33.422
33.407
33.394
33.383
33.371
33.36
33.346
33.329
33.309
33.286
33.26
