Trial 1:0back
32.721
32.724
32.74
32.773
32.824
32.899
32.998
33.125
33.282
33.47
33.689
33.94
34.223
34.538
34.884
35.259
35.658
36.076
36.506
36.941
37.372
37.793
38.198
38.579
38.93
39.244
39.519
39.751
39.94
40.085
40.187
40.249
40.272
40.261
40.218
40.148
40.054
39.941
39.81
39.666
39.51
39.345
39.174
38.997
38.816
38.633
38.449
38.264
38.08
37.898
37.72
37.547
37.378
37.215
37.057
36.904
36.755
36.61
36.468
36.329
36.193
36.061
35.932
35.806
35.684
35.564
35.447
35.334
35.226
35.123
35.027
34.938
34.857
34.784
34.72
34.665
34.62
34.585
34.561
34.547
34.543
34.548
34.561
34.582
34.611
34.646
34.687
34.732
34.781
34.833
34.89
34.949
35.011
35.073
35.134
35.191
35.243
35.288
35.325
35.352
35.37
35.378
35.379
35.371
35.354
35.329
35.296
35.254
35.205
35.15
35.089
35.025
34.959
34.891
34.823
34.755
34.686
34.617
34.549
34.481
34.413
34.347
34.28
34.214
34.148
34.083
34.018
33.955
33.894
33.835
33.779
33.725
33.673
33.626
33.582
33.541
33.501
33.465
33.43
33.396
33.365
33.335
33.307
33.28
33.254
33.229
33.203
33.176
33.148
33.119
33.089
33.058
33.029
33.002
32.977
32.956
32.937
32.923
32.913
32.907
32.904
32.903
32.904
32.906
32.907
32.908
32.908
32.906
32.903
32.897
32.889
32.88
32.87
32.858
32.845
32.831
32.817
32.802
32.787
32.772
32.757
32.743
32.733
32.728
32.731
32.745
32.774
32.819
32.886
32.976
33.092
33.236
33.409
33.611
33.844
34.112
34.413
34.747
35.11
35.498
35.906
36.329
36.759
37.19
37.615
38.028
38.421
38.788
39.123
39.421
39.679
39.894
40.065
40.193
40.278
40.322
40.327
40.298
40.238
40.151
40.039
39.907
39.756
39.59
39.412
39.226
39.034
38.837
38.639
38.439
38.24
38.042
37.846
37.653
37.463
37.277
37.096
36.919
36.747
36.581
36.42
36.263
36.111
35.963
35.82
35.681
35.546
35.415
35.288
35.166
35.049
34.94
34.839
34.748
34.667
34.596
34.536
34.488
34.451
34.424
34.408
34.403
34.407
34.419
34.44
34.466
34.499
34.536
34.579
34.626
34.677
34.733
34.79
34.849
34.909
34.968
35.025
35.079
35.128
35.171
35.208
35.238
35.262
35.278
35.286
35.285
35.277
35.262
35.239
35.209
35.172
35.13
35.081
35.028
34.97
34.909
34.845
34.778
34.71
34.639
34.567
34.494
34.421
34.349
34.279
34.213
34.149
34.086
34.024
33.961
33.899
33.838
33.777
33.719
33.664
33.61
33.56
33.514
33.472
33.433
33.398
33.365
33.336
33.308
33.281
33.254
33.227
33.201
33.175
33.15
33.125
33.103
33.082
33.062
33.044
33.028
33.014
33.001
32.99
32.979
32.968
32.955
32.94
32.923
32.904
32.885
32.867
32.85
32.836
32.825
32.817
32.81
32.805
32.799
32.791
32.781
32.768
32.753
32.735
32.715
32.696
32.679
32.665
32.657
32.655
32.661
32.68
32.712
32.761
32.831
32.923
33.04
33.184
33.356
33.557
33.79
34.052
34.346
34.669
35.02
35.395
35.791
36.202
36.622
37.044
37.462
37.868
38.256
38.62
38.954
39.255
39.517
39.74
39.921
40.06
40.158
40.215
40.233
40.214
40.162
40.081
39.973
39.842
39.691
39.525
39.347
39.157
38.958
38.751
38.539
38.324
38.109
37.896
37.687
37.483
37.287
37.099
36.918
36.745
36.58
36.423
36.272
36.128
35.99
35.856
35.726
35.601
35.478
35.359
35.242
35.131
35.023
34.921
34.826
34.737
34.656
34.584
34.52
34.467
34.424
34.391
34.371
34.364
34.371
34.391
34.422
34.465
34.517
34.578
34.645
34.717
34.791
34.867
34.942
35.016
35.088
35.157
35.221
35.282
35.337
35.386
35.428
35.463
35.491
35.51
35.522
35.527
35.523
35.51
35.487
35.454
35.413
35.364
35.308
35.246
35.18
35.11
35.038
34.965
34.89
34.815
34.739
34.664
34.59
34.518
34.448
34.381
34.317
34.256
34.197
34.138
34.079
34.02
33.963
33.909
33.858
33.81
33.765
33.721
33.679
33.64
33.603
33.569
33.537
33.508
33.481
33.456
33.431
33.407
33.384
33.362
33.34
33.32
33.3
33.281
33.263
33.246
33.229
33.213
33.196
33.179
33.162
33.146
33.132
33.118
33.105
33.094
33.083
33.071
33.06
33.047
33.035
33.023
33.01
32.996
32.98
32.963
32.945
32.927
32.911
32.898
32.892
32.892
32.902
32.922
32.955
33.005
33.075
33.168
33.289
33.44
33.622
33.837
34.085
34.364
34.674
35.012
35.377
35.764
36.169
36.586
37.008
37.429
37.841
38.238
38.614
38.964
39.284
39.569
39.815
40.02
40.181
40.298
40.372
40.405
40.399
40.358
40.286
40.186
40.06
39.913
39.748
39.57
39.381
39.186
38.986
38.783
38.58
38.377
38.175
37.976
37.781
37.59
37.404
37.223
37.047
36.875
36.708
36.545
36.387
36.234
36.086
35.944
35.808
35.676
35.549
35.427
35.31
35.197
35.088
34.984
34.887
34.799
34.72
34.652
34.597
34.553
34.522
34.502
34.495
34.499
34.514
34.54
34.576
34.62
34.672
34.73
34.793
34.861
34.932
35.005
35.079
35.151
35.219
35.282
35.338
35.386
35.426
35.459
35.486
35.506
35.52
35.53
35.535
35.534
35.526
35.513
35.492
35.466
35.432
35.392
35.344
35.29
35.23
35.164
35.094
35.02
34.945
34.868
34.79
34.712
34.635
34.558
34.484
34.413
34.345
34.279
34.215
34.153
34.094
34.037
33.983
33.932
33.885
33.841
33.8
33.763
33.729
33.698
33.668
33.637
33.607
33.577
33.548
33.521
33.497
33.475
33.456
33.441
33.428
33.417
33.407
33.398
33.389
33.38
33.371
33.364
33.359
33.354
33.351
33.347
33.341
33.334
33.325
33.313
33.299
33.284
33.267
33.249
33.23
33.208
33.185
33.161
33.138
33.117
33.101
33.093
33.096
33.112
33.144
33.195
33.269
33.367
33.493
33.649
33.835
34.053
34.303
34.585
34.899
35.243
35.613
36.005
36.413
36.832
37.254
37.673
38.081
38.472
38.839
39.177
39.481
39.747
39.974
40.158
40.3
40.401
40.463
40.489
40.481
40.441
40.374
40.281
40.168
40.038
39.893
39.736
39.57
39.396
39.215
39.029
38.841
38.653
38.465
38.279
38.094
37.911
37.73
37.55
37.374
37.2
37.029
36.862
36.699
36.54
36.385
36.234
36.086
35.941
35.801
35.666
35.538
35.417
35.303
35.199
35.105
35.021
34.947
34.885
34.834
34.795
34.768
34.751
34.746
34.75
34.763
34.785
34.815
34.852
34.895
34.942
34.994
35.05
35.109
35.17
35.233
35.296
35.36
35.423
35.483
35.541
35.595
35.644
35.688
35.726
35.757
35.779
35.792
35.794
35.787
35.77
35.745
35.711
35.67
35.622
35.568
35.509
35.444
35.375
35.302
35.226
35.148
35.069
34.99
34.912
34.834
34.758
34.683
34.609
34.538
34.468
34.401
34.338
34.278
34.223
34.171
34.123
34.077
34.033
33.991
33.95
33.91
33.871
33.833
33.798
33.765
33.735
33.709
33.686
33.665
33.646
33.628
33.609
33.591
33.572
33.554
33.535
33.516
33.496
33.475
33.454
33.433
33.411
33.389
33.368
33.347
33.328
33.31
33.293
33.276
33.261
33.246
33.233
33.22
33.207
33.196
33.189
33.186
33.19
33.203
33.228
33.267
33.325
33.404
33.507
33.638
33.797
33.986
34.207
34.461
34.747
35.065
35.414
35.791
36.191
36.608
37.034
37.463
37.885
38.294
38.682
39.043
39.371
39.662
39.912
40.12
40.284
40.405
40.485
40.524
40.527
40.496
40.436
40.349
40.238
40.108
39.961
39.802
39.634
39.458
39.278
39.097
38.915
38.735
38.558
38.382
38.209
38.038
37.871
37.707
37.548
37.392
37.24
37.09
36.943
36.797
36.652
36.506
36.363
36.221
36.082
35.947
35.816
35.689
35.568
35.455
35.351
35.256
35.172
35.098
35.036
34.985
34.943
34.911
34.888
34.876
34.873
34.882
34.9
34.93
34.97
35.02
35.078
35.142
35.211
35.285
35.36
35.437
35.514
35.589
35.661
35.729
35.791
35.848
35.897
35.936
35.964
35.981
35.986
35.98
35.964
35.939
35.905
35.864
35.817
35.763
35.705
35.642
35.576
35.507
35.436
35.363
35.289
35.213
35.136
35.057
34.978
34.898
34.82
34.742
34.667
34.595
34.525
34.458
34.393
34.331
34.272
34.216
34.163
34.115
34.07
34.029
33.99
33.954
33.919
33.887
33.856
33.827
33.8
33.774
33.75
33.726
33.703
33.681
33.658
33.634
33.609
33.583
33.555
33.527
33.498
33.469
33.442
33.416
33.392
33.37
33.35
33.331
33.313
33.297
33.281
33.268
33.258
33.252
33.25
33.256
33.269
33.292
33.327
33.376
33.441
33.524
33.629
33.758
33.915
34.101
34.319
34.571
34.856
35.174
35.521
35.894
36.288
36.696
37.112
37.528
37.936
38.327
38.697
39.039
39.348
39.621
39.857
40.053
40.21
40.327
40.405
40.447
40.453
40.427
40.372
40.289
40.182
40.056
39.914
39.758
39.592
39.418
39.239
39.056
38.87
38.685
38.5
38.318
38.14
37.965
37.794
37.626
37.461
37.298
37.137
36.979
36.824
36.671
36.521
36.372
36.225
36.078
35.934
35.794
35.66
35.533
35.415
35.306
35.207
35.118
35.041
34.977
34.926
34.888
34.863
34.85
34.848
34.856
34.874
34.903
34.942
34.991
35.05
35.117
35.191
35.27
35.353
35.436
35.517
35.597
35.673
35.745
35.812
35.875
35.931
35.98
36.022
36.054
36.075
36.086
36.086
36.076
36.058
36.031
35.994
35.949
35.895
35.833
35.763
35.685
35.6
35.51
35.417
35.321
35.226
35.13
35.035
34.942
34.852
34.765
34.682
34.603
34.528
34.455
34.384
34.317
34.252
34.191
34.133
34.078
34.027
33.981
33.939
33.902
33.869
33.84
33.812
33.787
33.763
33.739
33.715
33.692
33.671
33.651
33.633
33.616
33.601
33.585
33.569
33.552
33.535
33.516
33.497
33.477
33.457
33.435
33.414
33.393
33.373
33.353
33.334
33.317
33.303
33.293
33.29
33.294
33.308
33.332
33.369
33.42
33.489
33.577
33.687
33.822
33.986
34.182
34.412
34.676
34.975
35.306
35.666
36.051
36.454
36.869
37.291
37.72
38.15
38.57
38.97
39.341
39.673
39.962
40.201
40.389
40.526
40.614
40.654
40.651
40.609
40.534
40.432
40.307
40.164
40.007
39.839
39.665
39.487
39.307
39.128
38.95
38.775
38.603
38.435
38.271
38.109
37.951
37.794
37.639
37.484
37.329
37.175
37.021
36.867
36.715
36.564
36.416
36.272
36.132
35.996
35.865
35.741
35.623
35.512
35.411
35.319
35.238
35.168
35.11
35.066
35.034
35.016
35.01
35.018
35.038
35.07
35.113
35.165
35.226
35.296
35.372
35.454
35.54
35.628
35.716
35.804
35.889
35.971
36.049
36.121
36.187
36.245
36.294
36.332
36.357
36.37
36.369
36.356
36.329
36.292
36.244
36.186
36.12
36.045
35.964
35.877
35.786
35.692
35.597
35.501
35.405
35.31
35.218
35.127
35.039
34.954
34.871
34.791
34.713
34.638
34.565
34.496
34.431
34.369
34.309
34.252
34.196
34.142
34.092
34.045
34.001
33.959
33.921
33.884
33.85
33.818
33.788
33.759
33.731
33.704
33.679
33.656
33.634
33.607
33.576
33.539
33.498
33.457
33.415
33.376
33.34
33.31
33.285
33.267
33.253
33.244
33.238
33.235
33.235
33.238
33.245
33.255
33.27
33.289
33.315
33.35
33.396
33.457
33.537
33.638
33.766
33.922
34.111
34.334
34.593
34.887
35.215
35.574
35.959
36.365
36.784
37.209
37.63
38.04
38.431
38.796
39.129
39.425
39.681
39.896
40.07
40.204
40.298
40.356
40.379
40.371
40.334
40.273
40.191
40.092
39.979
39.853
39.717
39.573
39.423
39.265
39.1
38.927
38.749
38.567
38.383
38.199
38.017
37.839
37.668
37.504
37.349
37.203
37.063
36.93
36.802
36.678
36.555
36.434
36.313
36.193
36.075
35.959
35.847
35.738
35.635
35.538
35.448
35.366
35.293
35.23
35.179
35.14
35.115
35.102
35.103
35.117
35.143
35.182
35.234
35.299
35.374
35.458
35.55
35.647
35.746
35.844
35.939
36.03
36.114
36.189
36.253
36.306
36.347
36.375
36.391
36.395
36.387
36.368
36.337
36.296
36.245
36.186
36.119
36.047
35.97
35.888
35.803
35.715
35.626
35.534
35.442
35.348
35.255
35.163
35.074
34.987
34.902
34.818
34.737
34.657
34.579
34.503
34.431
34.363
34.298
34.237
34.18
34.124
34.072
34.022
33.976
33.934
33.896
33.861
33.827
33.793
33.761
33.729
33.698
33.668
33.64
33.614
33.591
33.57
33.552
33.533
33.514
33.493
33.472
33.449
33.426
33.402
33.378
33.354
33.329
33.305
33.281
33.258
33.235
33.213
33.193
33.177
33.164
33.155
33.152
33.156
33.17
33.195
33.235
33.293
33.374
33.481
33.618
33.79
33.998
34.245
34.53
34.853
35.209
35.595
36.003
36.427
36.859
37.293
37.719
38.129
38.515
38.872
39.195
39.48
39.725
39.928
40.09
40.213
40.297
40.346
40.364
40.353
40.316
40.257
40.18
40.086
39.979
39.861
39.734
39.599
39.459
39.314
39.167
39.017
38.866
38.716
38.566
38.418
38.271
38.124
37.979
37.835
37.693
37.551
37.411
37.272
37.134
36.995
36.855
36.715
36.576
36.439
36.306
36.175
36.045
35.917
35.792
35.674
35.564
35.466
35.381
35.312
35.261
35.229
35.215
35.22
35.241
35.277
35.329
35.393
35.469
35.555
35.648
35.745
35.845
35.945
36.043
36.137
36.226
36.308
36.383
36.448
36.502
36.543
36.571
36.585
36.585
36.571
36.545
36.507
36.46
36.404
36.34
36.27
36.194
36.112
36.025
35.932
35.836
35.736
35.635
35.533
35.432
35.333
35.235
35.139
35.046
34.957
34.87
34.787
34.706
34.628
34.554
34.482
34.415
34.351
34.292
34.236
34.183
34.131
34.08
34.03
33.982
33.935
33.889
33.845
33.802
33.762
33.725
33.692
33.662
33.635
33.61
33.586
33.564
33.542
33.52
33.499
33.478
33.456
33.435
33.414
33.391
33.368
33.343
33.317
33.29
33.262
33.233
33.202
33.171
33.141
33.115
33.093
33.079
33.072
33.075
33.089
33.116
33.159
33.221
33.306
33.417
33.559
33.735
33.949
34.2
34.489
34.815
35.174
35.562
35.973
36.399
36.834
37.269
37.697
38.108
38.495
38.854
39.18
39.47
39.721
39.931
40.101
40.231
40.324
40.381
40.406
40.401
40.37
40.317
40.244
40.156
40.055
39.943
39.824
39.698
39.568
39.434
39.299
39.163
39.027
38.891
38.757
38.623
38.49
38.358
38.227
38.096
37.965
37.834
37.702
37.57
37.436
37.301
37.166
37.028
36.891
36.753
36.617
36.481
36.347
36.215
36.088
35.967
35.853
35.749
35.656
35.575
35.508
35.455
35.417
35.394
35.386
35.391
35.409
35.438
35.479
35.53
35.589
35.655
35.727
35.802
35.879
35.956
36.031
36.103
36.171
36.232
36.285
36.328
36.361
36.382
36.39
36.385
36.368
36.34
36.302
36.256
36.201
36.137
36.065
35.986
35.901
35.812
35.719
35.624
35.527
35.428
35.327
35.226
35.125
35.024
34.925
34.829
34.736
34.646
34.56
34.476
34.396
34.318
34.242
34.17
34.1
34.034
33.971
33.911
33.856
33.803
33.753
33.705
33.658
33.612
33.567
33.523
33.48
33.438
33.396
33.356
33.317
33.278
33.242
33.206
33.172
33.139
33.108
33.079
33.052
33.028
33.009
32.993
32.982
32.972
32.964
32.957
32.948
32.939
32.928
32.916
32.902
32.887
32.871
32.854
32.838
32.822
32.809
32.8
32.795
32.799
32.813
32.843
32.894
32.97
33.076
33.216
33.393
33.612
33.874
34.179
34.524
34.906
35.318
35.752
36.201
36.656
37.108
37.55
37.974
38.375
38.746
39.081
39.377
39.631
39.843
40.014
40.143
40.235
40.293
40.318
40.316
40.287
40.235
40.164
40.077
39.976
39.864
39.744
39.618
39.487
39.352
39.213
39.072
38.93
38.787
38.643
38.498
38.352
38.205
38.058
37.91
37.763
37.617
37.473
37.33
37.189
37.049
36.911
36.773
36.635
36.499
36.365
36.234
36.107
35.986
35.872
35.765
35.668
35.58
35.502
35.429
35.358
35.286
35.218
35.157
35.107
35.073
35.057
35.062
35.09
35.139
35.208
35.295
35.395
35.505
35.622
35.743
35.863
35.98
36.089
36.188
36.274
36.345
36.4
36.437
36.459
36.466
36.458
36.435
36.399
36.35
36.29
36.221
36.145
36.063
35.976
35.884
35.79
35.693
35.593
35.492
35.391
35.291
35.193
35.097
35.002
34.909
34.817
34.726
34.636
34.548
34.462
34.378
34.296
34.218
34.144
34.073
34.003
33.937
33.873
33.814
33.759
33.708
33.661
33.617
33.576
33.537
33.5
33.466
33.433
33.402
33.374
33.346
33.321
33.296
33.274
33.251
33.23
33.21
33.19
33.17
33.149
33.128
33.107
33.084
33.06
33.035
33.009
32.982
32.954
32.927
32.899
32.872
32.847
32.825
32.807
32.793
32.785
32.781
32.784
32.792
32.806
32.828
32.859
32.904
32.966
33.05
33.163
33.308
33.49
33.711
33.973
34.274
34.613
34.986
35.388
35.813
36.253
36.7
37.144
37.578
37.995
38.387
38.751
39.081
39.375
39.631
39.848
40.024
40.162
40.263
40.329
40.363
40.367
40.345
40.298
40.231
40.145
40.045
39.931
39.809
39.679
39.544
39.405
39.262
39.116
38.967
38.816
38.663
38.51
38.356
38.204
38.053
37.902
37.752
37.603
37.456
37.313
37.173
37.035
36.899
36.765
36.633
36.502
36.374
36.248
36.125
36.007
35.893
35.784
35.683
35.588
35.503
35.427
35.362
35.309
35.267
35.236
35.217
35.21
35.216
35.235
35.266
35.309
35.364
35.43
35.503
35.583
35.667
35.753
35.839
35.923
36.002
36.074
36.137
36.189
36.228
36.253
36.265
36.263
36.249
36.223
36.185
36.138
36.081
36.016
35.945
35.867
35.784
35.696
35.605
35.512
35.416
35.318
35.219
35.119
35.02
34.928
34.849
34.784
34.73
34.684
34.641
34.595
34.543
34.482
34.412
34.333
34.246
34.152
34.054
33.953
33.852
33.754
33.659
33.569
33.485
33.409
33.342
33.285
33.237
33.197
33.164
33.137
33.114
33.093
33.073
33.053
33.033
33.013
32.995
32.978
32.961
32.944
32.926
32.906
32.885
32.864
32.841
32.819
32.798
32.776
32.756
32.736
32.717
32.698
32.68
32.664
32.648
32.634
32.62
32.607
32.594
32.58
32.566
32.552
32.539
32.528
32.521
32.52
32.527
32.544
32.574
32.621
32.689
32.785
32.912
33.076
33.281
33.529
33.82
34.155
34.53
34.941
35.383
35.847
36.325
36.806
37.281
37.742
38.181
38.592
38.97
39.311
39.614
39.876
40.096
40.277
40.421
40.529
40.605
40.65
40.667
40.658
40.626
40.571
40.498
40.409
40.307
40.193
40.07
39.938
39.797
39.648
39.493
39.334
39.172
39.008
38.844
38.682
38.523
38.368
38.216
38.069
37.927
37.79
37.659
37.531
37.405
37.28
37.155
37.03
36.904
36.775
36.643
36.51
36.377
36.246
36.118
35.995
35.879
35.773
35.677
35.595
35.526
35.473
35.435
35.412
35.404
35.41
35.429
35.46
35.503
35.555
35.615
35.681
35.751
35.822
35.892
35.962
36.028
36.09
36.144
36.191
36.23
36.26
36.282
36.294
36.297
36.289
36.272
36.244
36.206
36.16
36.106
36.044
35.976
35.902
35.821
35.735
35.643
35.546
35.444
35.34
35.234
35.126
35.018
34.911
34.805
34.701
34.599
34.498
34.4
34.305
34.214
34.126
34.041
33.958
33.878
33.8
33.726
33.654
33.586
33.521
33.461
33.406
33.354
33.304
33.258
33.213
33.171
33.132
33.096
33.063
33.033
33.006
32.981
32.959
32.939
32.919
32.899
32.88
32.861
32.842
32.824
32.806
32.788
32.77
32.752
32.734
32.718
32.703
32.689
32.676
32.662
32.648
32.634
32.618
32.602
32.584
32.566
32.548
32.528
32.508
32.487
32.466
32.445
32.426
32.41
32.395
32.384
32.374
32.367
32.363
32.364
32.37
32.386
32.414
32.459
32.524
32.615
32.736
32.892
33.087
33.323
33.602
33.924
34.288
34.689
35.122
35.58
36.054
36.537
37.018
37.491
37.946
38.377
38.776
39.14
39.463
39.743
39.979
40.171
40.32
40.429
40.501
40.539
40.55
40.536
40.499
40.443
40.369
40.281
40.181
40.07
39.949
39.818
39.679
39.533
39.382
39.226
39.067
38.908
38.749
38.591
38.434
38.278
38.125
37.974
37.827
37.684
37.545
37.409
37.275
37.144
37.015
36.886
36.759
36.635
36.514
36.396
36.282
36.17
36.061
35.955
35.852
35.755
35.663
35.577
35.499
35.43
35.372
35.326
35.292
35.272
35.264
35.269
35.286
35.313
35.352
35.399
35.455
35.517
35.584
35.654
35.725
35.793
35.857
35.916
35.966
36.006
36.035
36.055
36.063
36.061
36.049
36.026
35.994
35.953
35.905
35.85
35.788
35.719
35.643
35.561
35.473
35.381
35.285
35.184
35.08
34.973
34.863
34.751
34.639
34.527
34.416
34.305
34.197
34.092
33.99
33.892
33.8
33.713
33.632
