Trial 1:0back
34.357
34.342
34.322
34.298
34.269
34.236
34.2
34.161
34.123
34.088
34.06
34.04
34.034
34.044
34.071
34.117
34.184
34.272
34.382
34.514
34.669
34.845
35.04
35.251
35.476
35.709
35.945
36.18
36.41
36.63
36.836
37.027
37.2
37.353
37.485
37.595
37.684
37.752
37.8
37.832
37.848
37.852
37.845
37.83
37.809
37.784
37.756
37.727
37.697
37.669
37.642
37.617
37.594
37.573
37.554
37.537
37.522
37.508
37.495
37.483
37.472
37.462
37.452
37.442
37.431
37.418
37.404
37.388
37.37
37.35
37.33
37.309
37.289
37.268
37.248
37.227
37.205
37.182
37.159
37.136
37.113
37.09
37.067
37.043
37.019
36.994
36.97
36.946
36.921
36.896
36.87
36.843
36.815
36.787
36.758
36.73
36.702
36.675
36.651
36.631
36.616
36.606
36.6
36.599
36.602
36.607
36.612
36.618
36.622
36.623
36.623
36.62
36.613
36.603
36.588
36.569
36.546
36.521
36.493
36.464
36.434
36.405
36.378
36.352
36.328
36.305
36.283
36.261
36.239
36.217
36.194
36.17
36.143
36.113
36.08
36.044
36.005
35.963
35.921
35.878
35.835
35.793
35.751
35.711
35.672
35.634
35.598
35.564
35.535
35.508
35.485
35.464
35.443
35.421
35.398
35.373
35.345
35.315
35.282
35.248
35.212
35.176
35.14
35.103
35.067
35.032
34.999
34.969
34.944
34.922
34.903
34.886
34.872
34.858
34.844
34.829
34.813
34.794
34.774
34.751
34.728
34.703
34.677
34.651
34.625
34.6
34.576
34.555
34.535
34.518
34.502
34.487
34.474
34.461
34.449
34.436
34.424
34.412
34.401
34.391
34.381
34.371
34.361
34.351
34.341
34.33
34.319
34.307
34.295
34.28
34.263
34.244
34.222
34.197
34.17
34.142
34.113
34.085
34.056
34.028
34.001
33.975
33.951
33.929
33.908
33.89
33.875
33.862
33.851
33.841
33.834
33.828
33.824
33.822
33.824
33.831
33.845
33.869
33.905
33.956
34.024
34.112
34.221
34.351
34.504
34.677
34.87
35.078
35.298
35.526
35.757
35.987
36.213
36.431
36.638
36.833
37.011
37.171
37.312
37.433
37.532
37.612
37.673
37.717
37.747
37.764
37.771
37.77
37.762
37.747
37.727
37.702
37.676
37.649
37.622
37.597
37.573
37.551
37.53
37.51
37.492
37.477
37.468
37.464
37.462
37.464
37.466
37.469
37.47
37.468
37.463
37.455
37.443
37.428
37.41
37.389
37.365
37.338
37.308
37.275
37.237
37.196
37.153
37.108
37.062
37.017
36.972
36.929
36.887
36.848
36.811
36.777
36.747
36.72
36.698
36.679
36.663
36.649
36.637
36.627
36.618
36.61
36.603
36.596
36.591
36.585
36.578
36.572
36.564
36.554
36.544
36.533
36.521
36.509
36.497
36.486
36.474
36.46
36.446
36.429
36.409
36.388
36.364
36.339
36.312
36.285
36.256
36.226
36.194
36.162
36.128
36.094
36.059
36.026
35.995
35.964
35.935
35.907
35.878
35.849
35.818
35.785
35.75
35.714
35.675
35.635
35.595
35.555
35.515
35.477
35.44
35.404
35.374
35.35
35.331
35.316
35.303
35.29
35.275
35.256
35.233
35.205
35.171
35.131
35.087
35.038
34.985
34.929
34.871
34.814
34.758
34.706
34.658
34.615
34.575
34.54
34.506
34.475
34.445
34.415
34.386
34.356
34.326
34.296
34.265
34.235
34.206
34.178
34.151
34.127
34.106
34.086
34.069
34.052
34.035
34.017
33.997
33.976
33.954
33.931
33.908
33.885
33.863
33.843
33.823
33.806
33.79
33.775
33.762
33.75
33.737
33.724
33.71
33.694
33.675
33.653
33.63
33.607
33.583
33.561
33.54
33.522
33.507
33.494
33.484
33.475
33.468
33.462
33.455
33.449
33.441
33.432
33.421
33.407
33.391
33.372
33.352
33.332
33.314
33.298
33.284
33.273
33.266
33.264
33.268
33.281
33.303
33.338
33.387
33.452
33.535
33.637
33.757
33.896
34.052
34.226
34.416
34.618
34.831
35.049
35.269
35.487
35.696
35.895
36.079
36.247
36.397
36.528
36.641
36.735
36.81
36.866
36.905
36.928
36.936
36.932
36.92
36.9
36.877
36.851
36.823
36.795
36.766
36.737
36.707
36.677
36.648
36.619
36.591
36.563
36.538
36.514
36.49
36.469
36.449
36.43
36.412
36.394
36.378
36.362
36.346
36.33
36.314
36.297
36.278
36.257
36.234
36.208
36.179
36.148
36.113
36.077
36.039
36.0
35.961
35.923
35.886
35.852
35.819
35.788
35.759
35.733
35.708
35.687
35.669
35.656
35.647
35.644
35.645
35.65
35.659
35.67
35.684
35.699
35.715
35.733
35.752
35.771
35.79
35.809
35.825
35.839
35.85
35.856
35.858
35.856
35.85
35.84
35.826
35.81
35.791
35.77
35.748
35.724
35.7
35.675
35.651
35.626
35.601
35.576
35.55
35.525
35.499
35.473
35.448
35.422
35.396
35.371
35.344
35.317
35.288
35.259
35.23
35.201
35.173
35.147
35.121
35.097
35.074
35.052
35.029
35.007
34.984
34.96
34.937
34.914
34.891
34.867
34.843
34.818
34.791
34.764
34.736
34.708
34.68
34.653
34.626
34.602
34.579
34.558
34.537
34.518
34.5
34.484
34.469
34.455
34.441
34.427
34.411
34.393
34.374
34.354
34.334
34.314
34.296
34.28
34.266
34.253
34.242
34.233
34.227
34.224
34.224
34.225
34.226
34.226
34.221
34.212
34.198
34.181
34.16
34.138
34.114
34.091
34.068
34.046
34.024
34.005
33.992
33.984
33.981
33.981
33.983
33.986
33.987
33.986
33.98
33.969
33.953
33.933
33.91
33.885
33.859
33.834
33.809
33.787
33.768
33.753
33.743
33.739
33.743
33.755
33.779
33.815
33.867
33.936
34.024
34.132
34.261
34.411
34.582
34.771
34.975
35.19
35.41
35.63
35.846
36.052
36.245
36.422
36.58
36.718
36.834
36.93
37.003
37.056
37.09
37.106
37.108
37.098
37.079
37.054
37.025
36.995
36.964
36.933
36.903
36.873
36.843
36.811
36.779
36.745
36.709
36.671
36.63
36.588
36.545
36.502
36.462
36.424
36.391
36.362
36.339
36.319
36.304
36.292
36.282
36.273
36.263
36.253
36.242
36.228
36.21
36.187
36.158
36.124
36.085
36.042
35.996
35.95
35.903
35.858
35.815
35.778
35.75
35.73
35.718
35.715
35.717
35.725
35.736
35.747
35.758
35.765
35.77
35.77
35.766
35.757
35.744
35.728
35.709
35.691
35.672
35.653
35.636
35.621
35.606
35.593
35.581
35.571
35.56
35.549
35.537
35.525
35.51
35.493
35.474
35.453
35.43
35.405
35.377
35.345
35.31
35.273
35.233
35.191
35.148
35.106
35.066
35.026
34.989
34.953
34.919
34.886
34.854
34.823
34.793
34.765
34.739
34.715
34.692
34.67
34.647
34.624
34.6
34.574
34.547
34.518
34.487
34.455
34.422
34.387
34.352
34.317
34.284
34.251
34.221
34.193
34.166
34.142
34.119
34.097
34.074
34.053
34.032
34.013
33.995
33.979
33.965
33.953
33.941
33.928
33.916
33.903
33.889
33.875
33.861
33.846
33.83
33.813
33.795
33.776
33.755
33.735
33.714
33.693
33.673
33.653
33.632
33.61
33.586
33.564
33.543
33.525
33.51
33.499
33.492
33.486
33.482
33.479
33.475
33.469
33.462
33.454
33.445
33.436
33.427
33.419
33.41
33.401
33.392
33.381
33.37
33.357
33.342
33.325
33.306
33.283
33.259
33.234
33.209
33.184
33.161
33.141
33.124
33.11
33.099
33.089
33.081
33.074
33.068
33.062
33.056
33.05
33.044
33.039
33.035
33.032
33.03
33.032
33.039
33.054
33.078
33.114
33.164
33.229
33.311
33.411
33.528
33.664
33.818
33.988
34.173
34.371
34.578
34.79
35.004
35.215
35.418
35.613
35.795
35.961
36.112
36.243
36.356
36.448
36.519
36.57
36.603
36.619
36.619
36.606
36.582
36.548
36.508
36.461
36.407
36.348
36.285
36.222
36.16
36.101
36.048
36.002
35.963
35.931
35.906
35.888
35.877
35.87
35.868
35.87
35.873
35.877
35.879
35.879
35.875
35.867
35.855
35.839
35.82
35.799
35.775
35.75
35.723
35.694
35.664
35.632
35.599
35.566
35.532
35.499
35.466
35.433
35.401
35.369
35.339
35.312
35.287
35.266
35.246
35.229
35.214
35.201
35.191
35.184
35.18
35.179
35.181
35.186
35.194
35.204
35.216
35.226
35.236
35.244
35.248
35.25
35.249
35.246
35.24
35.232
35.222
35.21
35.196
35.181
35.166
35.15
35.134
35.119
35.105
35.091
35.077
35.063
35.047
35.03
35.011
34.99
34.966
34.939
34.91
34.879
34.847
34.813
34.78
34.746
34.713
34.682
34.653
34.626
34.601
34.578
34.555
34.533
34.513
34.493
34.474
34.454
34.433
34.412
34.39
34.367
34.343
34.319
34.294
34.27
34.247
34.225
34.205
34.187
34.169
34.151
34.131
34.11
34.086
34.061
34.033
34.004
33.974
33.945
33.917
33.892
33.87
33.85
33.835
33.824
33.818
33.815
33.816
33.819
33.821
33.823
33.821
33.816
33.808
33.798
33.784
33.769
33.753
33.735
33.717
33.698
33.679
33.66
33.641
33.623
33.605
33.588
33.57
33.551
33.532
33.512
33.491
33.471
33.452
33.435
33.42
33.408
33.398
33.391
33.386
33.382
33.378
33.376
33.372
33.369
33.365
33.361
33.356
33.351
33.344
33.337
33.328
33.319
33.308
33.296
33.284
33.27
33.256
33.241
33.225
33.211
33.197
33.185
33.174
33.166
33.16
33.155
33.152
33.15
33.148
33.148
33.147
33.146
33.144
33.144
33.144
33.145
33.148
33.151
33.155
33.159
33.163
33.168
33.174
33.183
33.195
33.212
33.237
33.273
33.322
33.387
33.471
33.574
33.697
33.839
33.997
34.171
34.357
34.552
34.751
34.952
35.151
35.344
35.529
35.701
35.858
35.998
36.118
36.217
36.296
36.354
36.393
36.415
36.422
36.416
36.4
36.375
36.346
36.315
36.282
36.251
36.221
36.194
36.168
36.143
36.119
36.096
36.074
36.052
36.031
36.01
35.989
35.969
35.948
35.927
35.905
35.882
35.86
35.839
35.819
35.802
35.787
35.775
35.765
35.757
35.75
35.742
35.734
35.724
35.711
35.697
35.68
35.659
35.636
35.608
35.578
35.546
35.514
35.483
35.455
35.431
35.412
35.397
35.388
35.383
35.384
35.389
35.399
35.411
35.424
35.438
35.449
35.459
35.464
35.466
35.465
35.46
35.454
35.446
35.438
35.43
35.424
35.418
35.414
35.411
35.409
35.408
35.408
35.407
35.405
35.4
35.393
35.382
35.366
35.346
35.321
35.293
35.262
35.231
35.199
35.168
35.14
35.113
35.088
35.065
35.043
35.022
35.001
34.98
34.958
34.934
34.907
34.877
34.843
34.807
34.77
34.734
34.699
34.667
34.638
34.612
34.591
34.572
34.555
34.54
34.527
34.513
34.5
34.486
34.47
34.45
34.426
34.397
34.363
34.326
34.287
34.246
34.206
34.168
34.132
34.1
34.071
34.045
34.023
34.004
33.987
33.973
33.96
33.948
33.936
33.925
33.914
33.904
33.895
33.889
33.884
33.882
33.883
33.885
33.889
33.894
33.898
33.901
33.903
33.904
33.904
33.903
33.902
33.899
33.896
33.891
33.884
33.877
33.869
33.861
33.853
33.846
33.838
33.83
33.822
33.814
33.805
33.798
33.791
33.785
33.779
33.773
33.766
33.758
33.748
33.736
33.722
33.706
33.689
33.671
33.652
33.634
33.616
33.598
33.581
33.565
33.55
33.537
33.525
33.516
33.508
33.502
33.498
33.494
33.491
33.49
33.489
33.49
33.494
33.499
33.506
33.513
33.521
33.529
33.538
33.55
33.566
33.587
33.618
33.658
33.711
33.779
33.861
33.96
34.075
34.207
34.355
34.519
34.697
34.885
35.082
35.283
35.485
35.682
35.874
36.055
36.224
36.377
36.513
36.631
36.731
36.811
36.873
36.918
36.948
36.966
36.973
36.973
36.966
36.954
36.937
36.917
36.895
36.87
36.845
36.818
36.792
36.766
36.74
36.712
36.682
36.649
36.614
36.577
36.54
36.505
36.473
36.446
36.425
36.409
36.398
36.391
36.388
36.388
36.391
36.395
36.399
36.403
36.405
36.404
36.398
36.387
36.369
36.346
36.318
36.286
36.252
36.215
36.178
36.141
36.103
36.067
36.031
35.997
35.966
35.938
35.913
35.891
35.872
35.856
35.843
35.832
35.823
35.817
35.813
35.811
35.811
35.812
35.814
35.816
35.818
35.819
35.819
35.819
35.819
35.818
35.817
35.815
35.812
35.808
35.802
35.793
35.783
35.771
35.758
35.745
35.731
35.716
35.7
35.683
35.663
35.641
35.616
35.588
35.558
35.525
35.49
35.454
35.418
35.381
35.345
35.309
35.276
35.245
35.218
35.195
35.175
35.158
35.143
35.128
35.114
35.1
35.084
35.067
35.049
35.029
35.007
34.984
34.959
34.933
34.905
34.876
34.846
34.817
34.79
34.763
34.738
34.714
34.69
34.666
34.641
34.615
34.588
34.559
34.529
34.497
34.464
34.431
34.398
34.367
34.338
34.314
34.295
34.28
34.269
34.26
34.254
34.247
34.24
34.231
34.22
34.208
34.194
34.179
34.165
34.15
34.136
34.122
34.108
34.095
34.083
34.073
34.064
34.058
34.052
34.048
34.043
34.04
34.036
34.031
34.026
34.02
34.013
34.005
33.996
33.987
33.978
33.968
33.96
33.952
33.946
33.941
33.937
33.932
33.927
33.919
33.909
33.897
33.882
33.866
33.85
33.833
33.816
33.8
33.784
33.77
33.756
33.743
33.73
33.716
33.701
33.685
33.666
33.645
33.621
33.594
33.565
33.536
33.508
33.482
33.46
33.444
33.432
33.426
33.425
33.427
33.432
33.439
33.449
33.461
33.479
33.503
33.536
33.581
33.639
33.714
33.807
33.919
34.052
34.205
34.376
34.562
34.761
34.968
35.18
35.393
35.603
35.806
35.999
36.181
36.347
36.497
36.628
36.74
36.832
36.904
36.958
36.995
37.018
37.027
37.026
37.016
36.997
36.971
36.938
36.9
36.86
36.817
36.775
36.733
36.693
36.655
36.618
36.583
36.55
36.519
36.49
36.463
36.439
36.418
36.4
36.383
36.368
36.355
36.342
36.329
36.316
36.304
36.292
36.28
36.267
36.254
36.239
36.222
36.203
36.182
36.16
36.136
36.11
36.082
36.051
36.018
35.981
35.943
35.902
35.86
35.82
35.781
35.746
35.715
35.689
35.667
35.65
35.637
35.627
35.621
35.618
35.618
35.621
35.626
35.633
35.641
35.648
35.654
35.66
35.665
35.667
35.668
35.665
35.661
35.654
35.645
35.635
35.623
35.611
35.597
35.584
35.571
35.558
35.546
35.533
35.519
35.505
35.49
35.473
35.454
35.435
35.414
35.39
35.364
35.335
35.302
35.265
35.227
35.187
35.148
35.109
35.071
35.036
35.003
34.972
34.943
34.917
34.893
34.871
34.851
34.833
34.817
34.801
34.786
34.77
34.754
34.735
34.716
34.695
34.673
34.651
34.628
34.605
34.581
34.558
34.534
34.511
34.489
34.467
34.447
34.428
34.41
34.392
34.374
34.357
34.34
34.324
34.309
34.296
34.285
34.275
34.267
34.259
34.252
34.244
34.235
34.225
34.213
34.201
34.187
34.172
34.155
34.137
34.118
34.098
34.079
34.061
34.043
34.027
34.011
33.997
33.985
33.975
33.967
33.961
33.959
33.961
33.966
33.973
33.98
33.987
33.99
33.99
33.985
33.976
33.964
33.948
33.929
33.909
33.887
33.866
33.845
33.826
33.81
33.796
33.786
33.778
33.773
33.77
33.768
33.766
33.764
33.759
33.754
33.747
33.739
33.73
33.722
33.715
33.708
33.702
33.697
33.693
33.689
33.683
33.677
33.669
33.66
33.648
33.634
33.619
33.603
33.587
33.573
33.563
33.558
33.559
33.566
33.582
33.609
33.646
33.698
33.766
33.85
33.952
34.073
34.211
34.367
34.538
34.723
34.919
35.124
35.335
35.549
35.763
35.973
36.176
36.369
36.549
36.712
36.857
36.982
37.087
37.172
37.238
37.286
37.317
37.332
37.331
37.317
37.292
37.258
37.217
37.172
37.126
37.079
37.035
36.993
36.955
36.921
36.889
36.86
36.833
36.809
36.787
36.767
36.749
36.732
36.716
36.7
36.685
36.668
36.65
36.63
36.607
36.582
36.555
36.525
36.492
36.458
36.422
36.385
36.349
36.314
36.281
36.251
36.222
36.195
36.169
36.145
36.122
36.1
36.079
36.06
36.042
36.026
36.012
35.999
35.987
35.978
35.97
35.965
35.964
35.967
35.973
35.982
35.994
36.008
36.024
36.041
36.059
36.077
36.095
36.11
36.124
36.135
36.142
36.146
36.145
36.14
36.132
36.121
36.107
36.093
36.076
36.059
36.04
36.02
35.998
35.976
35.952
35.928
35.902
35.877
35.849
35.821
35.79
35.757
35.722
35.686
35.648
35.611
35.575
35.541
35.508
35.477
35.448
35.421
35.394
35.368
35.343
35.319
35.296
35.274
35.252
35.232
35.211
35.19
35.169
35.147
35.125
35.102
35.079
35.055
35.03
35.004
34.979
34.955
34.932
34.91
34.888
34.866
34.844
34.822
34.798
34.774
34.75
34.726
34.704
34.683
34.665
34.649
34.636
34.625
34.614
34.604
34.593
34.581
34.568
34.554
34.539
34.524
34.509
34.494
34.479
34.465
34.452
34.442
34.433
34.426
34.421
34.416
34.413
34.408
34.403
34.397
34.389
34.379
34.367
34.354
34.339
34.323
34.306
34.289
34.27
34.251
34.232
34.213
34.195
34.178
34.164
34.151
34.139
34.127
34.116
34.103
34.091
34.078
34.064
34.05
34.035
34.02
34.005
33.989
33.974
33.959
33.946
33.933
33.922
33.912
33.902
33.892
33.881
33.871
33.862
33.857
33.858
33.868
33.891
33.93
33.988
34.066
34.167
34.291
34.436
34.601
34.783
34.98
35.188
35.404
35.624
35.844
36.061
36.273
36.474
36.664
36.838
36.994
37.132
37.249
37.345
37.423
37.482
37.524
37.552
37.567
37.572
37.57
37.563
37.551
37.536
37.518
37.499
37.478
37.455
37.432
37.407
37.38
37.352
37.321
37.287
37.25
37.21
37.168
37.125
37.085
37.049
37.017
36.992
36.972
36.959
36.949
36.943
36.939
36.936
36.933
36.928
36.92
36.909
36.892
36.869
36.838
36.8
36.754
36.704
36.649
36.593
36.537
36.483
36.435
36.392
36.355
36.324
36.3
36.283
36.272
36.269
36.272
36.28
36.292
36.306
36.32
36.334
36.346
36.354
36.36
36.361
36.359
36.354
36.346
36.336
36.324
36.312
36.301
36.292
36.285
36.28
36.277
36.276
36.276
36.275
36.274
36.27
36.263
36.253
36.238
36.219
36.195
36.168
36.142
36.117
36.093
36.07
36.048
36.025
36.001
35.975
35.947
35.916
35.882
35.845
35.804
35.76
35.713
35.665
35.616
35.567
35.519
35.472
35.428
35.385
35.344
35.306
35.27
35.237
35.207
35.179
35.153
35.128
35.103
35.078
35.054
35.03
35.006
34.982
34.959
34.936
34.913
34.89
34.867
34.844
34.821
34.8
34.78
34.761
34.743
34.727
34.711
34.695
34.679
34.662
34.644
34.627
34.609
34.592
34.575
34.559
34.544
34.529
34.515
34.501
34.489
34.477
34.466
34.456
34.445
34.434
34.422
34.409
34.395
34.381
34.366
34.353
34.34
34.329
34.319
34.31
34.3
34.291
34.281
34.27
34.259
34.246
34.233
34.218
34.203
34.187
34.17
34.154
34.137
34.122
34.108
34.097
34.088
34.081
34.076
34.071
34.066
34.062
34.057
34.052
34.046
34.041
34.035
34.029
34.02
34.01
33.996
33.979
33.96
33.939
33.918
33.897
33.877
33.859
33.842
33.828
33.816
33.807
33.801
33.799
33.8
33.807
33.821
33.844
33.877
33.922
33.984
34.064
34.164
34.287
34.433
34.599
34.785
34.987
35.203
35.429
35.661
35.895
36.128
36.356
36.576
36.784
36.978
37.156
37.315
37.455
37.575
37.677
37.761
37.827
37.877
37.913
37.935
37.944
37.941
37.929
37.907
37.879
37.846
37.81
37.772
37.733
37.696
37.659
37.624
37.591
37.56
37.532
37.505
37.481
37.459
37.439
37.421
37.403
37.387
37.371
37.356
37.341
37.328
37.314
37.3
37.284
37.265
37.244
37.219
37.191
37.159
37.126
37.09
37.054
37.017
36.978
36.937
36.896
36.853
36.809
36.765
36.721
36.679
36.638
36.6
36.564
36.528
36.495
36.463
36.434
36.409
36.389
36.375
36.366
36.361
36.359
36.359
36.36
36.362
36.366
36.37
36.375
36.38
36.384
36.388
36.391
36.393
36.394
36.393
36.39
36.386
36.38
36.373
36.364
36.353
36.339
36.322
36.303
36.28
36.254
36.225
36.194
36.16
36.125
36.087
36.047
36.006
35.964
35.921
35.88
35.84
35.802
35.766
35.732
35.699
35.665
35.632
35.599
35.566
35.533
35.5
35.467
35.434
35.401
35.369
35.336
35.304
35.271
35.239
35.209
35.181
35.154
35.129
35.105
35.082
35.058
35.035
35.011
34.987
34.962
34.936
34.909
34.881
34.852
34.822
34.793
34.764
34.739
34.717
34.701
34.688
34.68
34.674
34.671
34.668
34.666
34.662
34.657
34.651
34.642
34.631
34.618
34.603
34.586
34.567
34.546
34.522
34.497
34.473
34.449
34.427
34.407
34.389
34.374
34.362
34.351
34.342
34.335
34.33
34.324
34.318
34.31
34.3
34.288
34.273
34.257
34.24
34.223
34.208
34.193
34.18
34.168
34.156
34.143
34.13
34.116
34.1
34.083
34.065
34.046
34.027
