Trial 1:0back
37.908
37.783
37.659
37.538
37.417
37.298
37.181
37.065
36.951
36.837
36.723
36.608
36.492
36.374
36.257
36.141
36.027
35.917
35.813
35.714
35.622
35.54
35.469
35.409
35.36
35.324
35.299
35.285
35.283
35.293
35.313
35.344
35.385
35.435
35.492
35.556
35.625
35.697
35.773
35.849
35.927
36.005
36.083
36.157
36.225
36.286
36.336
36.375
36.403
36.417
36.418
36.406
36.382
36.347
36.301
36.247
36.186
36.119
36.047
35.968
35.886
35.8
35.712
35.624
35.535
35.446
35.358
35.271
35.185
35.101
35.019
34.938
34.859
34.782
34.707
34.634
34.562
34.491
34.42
34.35
34.281
34.213
34.148
34.085
34.025
33.968
33.914
33.863
33.816
33.773
33.734
33.699
33.667
33.64
33.617
33.596
33.578
33.562
33.548
33.536
33.524
33.513
33.502
33.49
33.478
33.465
33.451
33.436
33.42
33.404
33.388
33.37
33.352
33.334
33.317
33.3
33.284
33.269
33.255
33.241
33.226
33.212
33.197
33.181
33.164
33.147
33.131
33.116
33.103
33.095
33.09
33.092
33.101
33.12
33.15
33.195
33.259
33.345
33.456
33.596
33.768
33.975
34.216
34.49
34.793
35.122
35.473
35.84
36.218
36.602
36.984
37.357
37.716
38.055
38.367
38.649
38.896
39.108
39.284
39.425
39.53
39.602
39.642
39.655
39.642
39.606
39.552
39.481
39.397
39.302
39.199
39.09
38.975
38.856
38.732
38.605
38.476
38.347
38.218
38.091
37.966
37.843
37.723
37.605
37.488
37.373
37.26
37.148
37.038
36.93
36.824
36.721
36.619
36.52
36.422
36.327
36.233
36.144
36.059
35.979
35.905
35.839
35.78
35.728
35.684
35.648
35.62
35.6
35.589
35.585
35.59
35.603
35.625
35.655
35.691
35.733
35.78
35.831
35.885
35.941
35.997
36.051
36.104
36.152
36.196
36.235
36.267
36.292
36.309
36.318
36.32
36.313
36.295
36.268
36.23
36.184
36.131
36.071
36.006
35.935
35.859
35.778
35.692
35.601
35.507
35.411
35.314
35.217
35.12
35.025
34.933
34.845
34.76
34.678
34.598
34.521
34.446
34.374
34.305
34.239
34.176
34.115
34.058
34.003
33.951
33.903
33.858
33.815
33.775
33.737
33.701
33.666
33.632
33.599
33.567
33.535
33.504
33.473
33.444
33.417
33.391
33.366
33.342
33.32
33.298
33.278
33.258
33.238
33.219
33.202
33.187
33.174
33.165
33.157
33.15
33.144
33.138
33.132
33.123
33.111
33.096
33.079
33.06
33.041
33.022
33.006
32.993
32.985
32.983
32.988
33.005
33.033
33.076
33.137
33.219
33.327
33.462
33.629
33.827
34.057
34.319
34.611
34.931
35.276
35.641
36.02
36.405
36.791
37.171
37.537
37.883
38.204
38.495
38.752
38.975
39.161
39.309
39.42
39.495
39.538
39.551
39.539
39.503
39.448
39.377
39.293
39.198
39.093
38.979
38.859
38.734
38.605
38.474
38.343
38.211
38.079
37.948
37.819
37.692
37.568
37.447
37.329
37.214
37.102
36.992
36.883
36.774
36.664
36.553
36.442
36.332
36.224
36.118
36.017
35.919
35.827
35.74
35.66
35.586
35.519
35.461
35.411
35.37
35.339
35.316
35.303
35.3
35.306
35.321
35.345
35.376
35.415
35.46
35.51
35.564
35.62
35.678
35.736
35.794
35.85
35.902
35.95
35.991
36.025
36.052
36.072
36.083
36.086
36.079
36.064
36.04
36.007
35.964
35.912
35.849
35.775
35.692
35.602
35.509
35.414
35.319
35.225
35.133
35.044
34.958
34.875
34.794
34.715
34.639
34.566
34.496
34.431
34.368
34.308
34.248
34.189
34.13
34.071
34.012
33.955
33.899
33.844
33.793
33.743
33.696
33.651
33.606
33.563
33.519
33.477
33.436
33.395
33.357
33.321
33.287
33.256
33.227
33.202
33.179
33.16
33.143
33.128
33.115
33.103
33.092
33.082
33.074
33.067
33.06
33.054
33.046
33.036
33.023
33.007
32.988
32.968
32.948
32.928
32.911
32.898
32.889
32.888
32.895
32.912
32.942
32.986
33.048
33.13
33.235
33.365
33.525
33.716
33.941
34.199
34.49
34.812
35.16
35.529
35.913
36.305
36.695
37.079
37.448
37.798
38.123
38.42
38.683
38.91
39.097
39.245
39.354
39.426
39.463
39.469
39.447
39.401
39.334
39.25
39.151
39.04
38.921
38.795
38.664
38.529
38.392
38.255
38.12
37.987
37.855
37.724
37.595
37.466
37.338
37.212
37.087
36.964
36.843
36.724
36.606
36.49
36.375
36.26
36.146
36.034
35.924
35.817
35.713
35.613
35.516
35.423
35.335
35.252
35.177
35.11
35.052
35.004
34.964
34.935
34.915
34.906
34.907
34.921
34.945
34.98
35.026
35.079
35.14
35.207
35.279
35.353
35.429
35.506
35.581
35.654
35.722
35.784
35.839
35.885
35.92
35.944
35.954
35.951
35.933
35.903
35.861
35.808
35.745
35.676
35.601
35.521
35.437
35.35
35.26
35.17
35.079
34.989
34.901
34.815
34.731
34.649
34.569
34.49
34.413
34.337
34.263
34.192
34.122
34.056
33.994
33.935
33.881
33.827
33.774
33.721
33.668
33.615
33.564
33.513
33.465
33.419
33.376
33.338
33.304
33.274
33.247
33.222
33.198
33.175
33.153
33.132
33.113
33.095
33.08
33.065
33.051
33.038
33.024
33.01
32.995
32.98
32.965
32.948
32.932
32.915
32.897
32.879
32.861
32.844
32.827
32.812
32.798
32.787
32.78
32.777
32.78
32.791
32.81
32.841
32.886
32.948
33.031
33.139
33.275
33.442
33.643
33.879
34.15
34.453
34.786
35.145
35.524
35.917
36.316
36.715
37.105
37.48
37.831
38.155
38.447
38.703
38.921
39.099
39.238
39.338
39.4
39.427
39.422
39.388
39.329
39.249
39.151
39.039
38.915
38.781
38.64
38.493
38.343
38.192
38.042
37.894
37.749
37.607
37.468
37.332
37.198
37.065
36.932
36.799
36.667
36.538
36.41
36.286
36.165
36.045
35.926
35.808
35.691
35.576
35.464
35.354
35.249
35.15
35.059
34.976
34.904
34.841
34.788
34.744
34.71
34.687
34.675
34.674
34.683
34.702
34.732
34.772
34.822
34.879
34.944
35.014
35.087
35.163
35.238
35.311
35.381
35.446
35.503
35.552
35.592
35.622
35.642
35.651
35.65
35.64
35.619
35.589
35.55
35.502
35.446
35.382
35.313
35.239
35.161
35.081
34.999
34.917
34.834
34.752
34.671
34.591
34.511
34.433
34.355
34.278
34.202
34.127
34.054
33.982
33.911
33.842
33.776
33.712
33.651
33.594
33.54
33.49
33.443
33.399
33.359
33.322
33.287
33.256
33.227
33.201
33.176
33.152
33.128
33.105
33.081
33.057
33.033
33.01
32.987
32.967
32.949
32.933
32.92
32.91
32.902
32.896
32.89
32.883
32.873
32.862
32.849
32.836
32.822
32.809
32.795
32.781
32.767
32.753
32.738
32.723
32.708
32.695
32.683
32.674
32.67
32.674
32.689
32.717
32.761
32.823
32.905
33.01
33.141
33.301
33.491
33.713
33.969
34.258
34.579
34.928
35.299
35.687
36.085
36.487
36.885
37.272
37.641
37.986
38.3
38.579
38.818
39.017
39.174
39.29
39.367
39.406
39.41
39.382
39.326
39.244
39.142
39.023
38.89
38.746
38.596
38.44
38.283
38.124
37.966
37.808
37.652
37.499
37.348
37.199
37.053
36.908
36.764
36.621
36.479
36.337
36.194
36.05
35.909
35.77
35.635
35.506
35.381
35.261
35.147
35.039
34.939
34.847
34.765
34.691
34.627
34.574
34.531
34.499
34.477
34.465
34.462
34.468
34.483
34.509
34.545
34.592
34.649
34.714
34.786
34.863
34.942
35.022
35.1
35.177
35.251
35.321
35.387
35.449
35.506
35.556
35.599
35.633
35.658
35.673
35.679
35.674
35.658
35.633
35.599
35.557
35.506
35.447
35.382
35.31
35.232
35.15
35.064
34.975
34.885
34.793
34.699
34.605
34.511
34.416
34.321
34.227
34.134
34.043
33.958
33.878
33.805
33.739
33.68
33.629
33.587
33.551
33.522
33.497
33.476
33.456
33.437
33.417
33.397
33.376
33.353
33.329
33.305
33.281
33.256
33.233
33.209
33.185
33.159
33.131
33.1
33.07
33.04
33.013
32.989
32.969
32.954
32.944
32.939
32.937
32.937
32.937
32.935
32.932
32.928
32.925
32.921
32.919
32.917
32.915
32.912
32.911
32.91
32.913
32.922
32.939
32.965
33.005
33.061
33.136
33.234
33.355
33.504
33.683
33.894
34.139
34.418
34.729
35.071
35.438
35.825
36.225
36.63
37.031
37.42
37.789
38.131
38.442
38.718
38.956
39.153
39.309
39.423
39.495
39.528
39.525
39.49
39.426
39.338
39.231
39.106
38.968
38.819
38.663
38.502
38.338
38.174
38.009
37.847
37.688
37.532
37.378
37.226
37.076
36.928
36.783
36.639
36.498
36.358
36.22
36.084
35.95
35.819
35.69
35.564
35.44
35.32
35.203
35.092
34.987
34.889
34.797
34.712
34.636
34.568
34.512
34.467
34.435
34.417
34.411
34.417
34.436
34.465
34.505
34.554
34.612
34.677
34.75
34.828
34.911
34.997
35.083
35.166
35.245
35.318
35.386
35.446
35.498
35.54
35.573
35.596
35.609
35.612
35.606
35.591
35.566
35.532
35.49
35.44
35.383
35.32
35.251
35.177
35.098
35.015
34.931
34.847
34.762
34.678
34.595
34.512
34.431
34.353
34.276
34.201
34.129
34.06
33.992
33.927
33.865
33.804
33.747
33.693
33.643
33.596
33.553
33.515
33.48
33.45
33.423
33.399
33.375
33.352
33.327
33.302
33.277
33.252
33.227
33.204
33.182
33.162
33.144
33.129
33.117
33.107
33.099
33.091
33.083
33.074
33.063
33.052
33.04
33.028
33.016
33.004
32.991
32.978
32.965
32.952
32.94
32.928
32.918
32.91
32.905
32.905
32.912
32.926
32.949
32.982
33.026
33.085
33.161
33.259
33.382
33.532
33.714
33.929
34.177
34.46
34.775
35.119
35.488
35.876
36.278
36.687
37.097
37.499
37.885
38.248
38.582
38.88
39.139
39.356
39.529
39.66
39.749
39.8
39.814
39.795
39.747
39.673
39.578
39.465
39.338
39.201
39.057
38.908
38.756
38.601
38.444
38.286
38.128
37.971
37.816
37.663
37.514
37.368
37.225
37.085
36.948
36.813
36.68
36.549
36.42
36.294
36.17
36.049
35.931
35.815
35.702
35.593
35.487
35.386
35.291
35.201
35.119
35.044
34.978
34.922
34.876
34.841
34.817
34.804
34.803
34.812
34.832
34.861
34.898
34.943
34.995
35.053
35.117
35.185
35.256
35.33
35.404
35.477
35.548
35.613
35.671
35.721
35.762
35.793
35.816
35.828
35.831
35.823
35.804
35.776
35.74
35.695
35.642
35.583
35.518
35.448
35.374
35.296
35.216
35.133
35.047
34.96
34.872
34.784
34.689
34.582
34.462
34.334
34.203
34.073
33.95
33.839
33.743
33.663
33.601
33.556
33.525
33.507
33.499
33.499
33.503
33.51
33.517
33.523
33.527
33.528
33.524
33.516
33.505
33.489
33.469
33.446
33.42
33.393
33.366
33.339
33.313
33.287
33.263
33.24
33.219
33.2
33.181
33.163
33.146
33.129
33.114
33.102
33.093
33.087
33.082
33.079
33.076
33.072
33.065
33.057
33.048
33.038
33.028
33.019
33.014
33.014
33.022
33.04
33.071
33.116
33.177
33.257
33.36
33.49
33.65
33.844
34.073
34.337
34.635
34.966
35.326
35.71
36.112
36.525
36.942
37.354
37.753
38.131
38.479
38.791
39.065
39.297
39.487
39.634
39.741
39.809
39.841
39.841
39.809
39.75
39.667
39.564
39.444
39.311
39.168
39.015
38.856
38.691
38.525
38.359
38.195
38.036
37.881
37.731
37.589
37.452
37.321
37.193
37.068
36.945
36.824
36.704
36.587
36.471
36.356
36.243
36.129
36.017
35.906
35.796
35.69
35.588
35.49
35.398
35.312
35.234
35.164
35.103
35.053
35.017
34.993
34.982
34.984
34.997
35.019
35.049
35.086
35.129
35.177
35.229
35.284
35.342
35.402
35.462
35.52
35.576
35.629
35.677
35.72
35.757
35.788
35.811
35.829
35.84
35.846
35.845
35.836
35.818
35.792
35.756
35.712
35.661
35.602
35.538
35.468
35.395
35.32
35.241
35.16
35.076
34.989
34.901
34.812
34.724
34.639
34.558
34.481
34.407
34.336
34.267
34.202
34.138
34.076
34.016
33.957
33.899
33.844
33.791
33.742
33.696
33.654
33.613
33.575
33.539
33.506
33.475
33.446
33.418
33.391
33.366
33.342
33.321
33.301
33.283
33.266
33.25
33.233
33.217
33.201
33.186
33.173
33.161
33.15
33.14
33.13
33.12
33.109
33.097
33.084
33.069
33.053
33.037
33.02
33.002
32.984
32.967
32.952
32.94
32.93
32.923
32.919
32.919
32.923
32.933
32.951
32.979
33.02
33.077
33.151
33.247
33.368
33.516
33.695
33.904
34.146
34.42
34.727
35.063
35.426
35.81
36.209
36.615
37.021
37.418
37.798
38.156
38.485
38.782
39.041
39.26
39.436
39.569
39.659
39.709
39.722
39.701
39.649
39.571
39.472
39.355
39.225
39.083
38.932
38.773
38.609
38.443
38.277
38.113
37.951
37.793
37.638
37.487
37.339
37.194
37.051
36.911
36.772
36.636
36.502
36.371
36.24
36.111
35.983
35.856
35.731
35.61
35.493
35.38
35.273
35.173
35.08
34.995
34.918
34.85
34.792
34.744
34.707
34.682
34.67
34.669
34.681
34.704
34.737
34.78
34.831
34.889
34.953
35.022
35.092
35.162
35.232
35.299
35.364
35.426
35.484
35.537
35.585
35.626
35.661
35.689
35.71
35.724
35.73
35.728
35.716
35.697
35.669
35.633
35.59
35.541
35.484
35.421
35.352
35.277
35.197
35.113
35.026
34.938
34.849
34.763
34.682
34.604
34.531
34.46
34.39
34.32
34.251
34.182
34.115
34.049
33.986
33.924
33.866
33.812
33.762
33.716
33.673
33.633
33.596
33.56
33.527
33.496
33.468
33.443
33.42
33.4
33.38
33.362
33.344
33.326
33.31
33.295
33.28
33.267
33.256
33.247
33.239
33.233
33.228
33.222
33.216
33.207
33.196
33.181
33.165
33.146
33.127
33.107
33.088
33.069
33.052
33.037
33.024
33.012
33.001
32.993
32.986
32.981
32.978
32.978
32.981
32.991
33.01
33.041
33.088
33.151
33.235
33.34
33.469
33.623
33.806
34.018
34.262
34.538
34.845
35.181
35.541
35.921
36.313
36.709
37.102
37.485
37.851
38.193
38.506
38.785
39.028
39.229
39.389
39.507
39.585
39.627
39.634
39.608
39.553
39.472
39.369
39.248
39.113
38.968
38.817
38.662
38.506
38.351
38.199
38.049
37.899
37.751
37.602
37.453
37.303
37.154
37.004
36.855
36.707
36.562
36.42
36.281
36.145
36.012
35.883
35.758
35.637
35.523
35.416
35.315
35.22
35.132
35.052
34.979
34.915
34.86
34.814
34.778
34.753
34.737
34.732
34.738
34.753
34.777
34.808
34.849
34.897
34.953
35.016
35.085
35.159
35.235
35.312
35.389
35.465
35.538
35.606
35.67
35.725
35.773
35.81
35.837
35.853
35.858
35.852
35.835
35.807
35.771
35.727
35.677
35.621
35.561
35.495
35.425
35.35
35.269
35.184
35.097
35.009
34.921
34.834
34.749
34.667
34.588
34.51
34.435
34.36
34.289
34.22
34.156
34.097
34.043
33.992
33.944
33.897
33.852
33.808
33.765
33.723
33.683
33.645
33.61
33.576
33.545
33.517
33.491
33.467
33.444
33.421
33.398
33.376
33.356
33.337
33.32
33.304
33.291
33.28
33.272
33.267
33.264
33.262
33.259
33.255
33.25
33.243
33.236
33.227
33.218
33.207
33.196
33.184
33.169
33.154
33.136
33.117
33.097
33.077
33.058
33.042
33.03
33.024
33.025
33.035
33.056
33.089
33.138
33.205
33.293
33.404
33.542
33.71
33.91
34.144
34.412
34.714
35.047
35.408
35.791
36.189
36.594
36.999
37.396
37.779
38.142
38.478
38.784
39.054
39.287
39.479
39.632
39.744
39.819
39.857
39.862
39.836
39.782
39.703
39.602
39.484
39.35
39.205
39.051
38.891
38.726
38.559
38.393
38.228
38.068
37.912
37.76
37.614
37.473
37.336
37.203
37.073
36.945
36.821
36.698
36.577
36.456
36.335
36.213
36.09
35.969
35.851
35.736
35.625
35.52
35.42
35.326
35.24
35.162
35.094
35.034
34.985
34.946
34.918
34.902
34.898
34.906
34.926
34.959
35.003
35.057
35.119
35.187
35.261
35.337
35.415
35.494
35.571
35.646
35.715
35.778
35.834
35.881
35.919
35.949
35.97
35.981
35.983
35.974
35.956
35.927
35.89
35.843
35.789
35.728
35.661
35.591
35.518
35.443
35.368
35.293
35.218
35.142
35.064
34.985
34.905
34.823
34.741
34.659
34.579
34.5
34.424
34.35
34.28
34.214
34.15
34.09
34.033
33.978
33.925
33.875
33.829
33.786
33.747
33.711
33.677
33.645
33.615
33.586
33.557
33.527
33.498
33.47
33.444
33.419
33.397
33.377
33.358
33.34
33.322
33.305
33.287
33.271
33.255
33.24
33.226
33.213
33.203
33.196
33.191
33.185
33.179
33.171
33.16
33.147
33.132
33.116
33.101
33.086
33.072
33.06
33.048
33.037
33.027
33.018
33.013
33.012
33.018
33.033
33.062
33.107
33.17
33.253
33.359
33.49
33.647
33.834
34.052
34.302
34.584
34.897
35.237
35.601
35.982
36.375
36.773
37.168
37.552
37.919
38.262
38.574
38.851
39.091
39.291
39.451
39.572
39.656
39.704
39.718
39.701
39.656
39.585
39.492
39.38
39.252
39.112
38.963
38.807
38.647
38.486
38.322
38.159
37.995
37.834
37.676
37.521
37.371
37.224
37.081
36.941
36.804
36.668
36.535
36.404
36.276
36.151
36.03
35.912
35.797
35.686
35.578
35.474
35.373
35.277
35.189
35.109
35.038
34.975
34.922
34.879
34.845
34.821
34.808
34.805
34.813
34.831
34.86
34.901
34.952
35.013
35.081
35.155
35.232
35.31
35.388
35.464
35.537
35.605
35.669
35.726
35.776
35.819
35.854
35.879
35.895
35.899
35.894
35.878
35.853
35.82
35.779
35.73
35.675
35.613
35.545
35.473
35.397
35.318
35.238
35.157
35.077
34.997
34.919
34.842
34.766
34.691
34.617
34.544
34.473
34.404
34.336
34.272
34.21
34.152
34.096
34.042
33.99
33.941
33.895
33.851
33.81
33.771
33.735
33.7
33.668
33.637
33.608
33.581
33.554
33.527
33.501
33.475
33.45
33.425
33.402
33.379
33.358
33.337
33.319
33.304
33.293
33.288
33.286
33.288
33.292
33.298
33.304
33.31
33.313
33.313
33.308
33.299
33.287
33.272
33.256
33.238
33.219
33.2
33.18
33.16
33.141
33.124
33.109
33.096
33.086
33.08
33.078
33.083
33.096
33.119
33.154
33.202
33.269
33.357
33.469
33.609
33.778
33.977
34.207
34.469
34.76
35.08
35.424
35.788
36.168
36.556
36.946
37.331
37.703
38.057
38.386
38.686
38.951
39.179
39.368
39.516
39.625
39.694
39.728
39.728
39.698
39.641
39.56
39.458
39.337
39.201
39.052
38.894
38.729
38.561
38.392
38.223
38.057
37.895
37.737
37.584
37.437
37.294
37.156
37.023
36.893
36.767
36.644
36.522
36.401
36.281
36.162
36.044
35.928
35.813
35.701
35.593
35.492
35.397
35.309
35.228
35.154
35.087
35.028
34.978
34.938
34.908
34.89
34.883
34.888
34.905
34.934
34.975
35.025
35.082
35.146
35.216
35.29
35.368
35.447
35.527
35.604
35.678
35.746
35.809
35.863
35.91
35.947
35.974
35.99
35.997
35.994
35.984
35.968
35.944
35.914
35.877
35.833
35.782
35.726
35.663
35.596
35.524
35.448
35.368
35.285
35.2
35.114
35.027
34.941
34.856
34.773
34.693
34.615
34.539
34.466
34.396
34.33
34.267
34.208
34.153
34.101
34.052
34.006
33.96
33.917
33.876
33.84
33.808
33.779
33.753
33.729
33.707
33.687
33.667
33.647
33.628
33.608
33.586
33.565
33.542
33.52
33.498
33.477
33.458
33.44
33.426
33.414
33.405
33.398
33.393
33.388
33.383
33.377
33.371
33.363
33.356
33.347
33.336
33.323
33.307
33.29
33.271
33.251
33.233
33.216
33.202
33.193
33.188
33.191
33.2
33.218
33.245
33.282
33.333
33.401
33.488
33.598
33.733
33.894
34.085
34.308
34.564
34.852
35.172
35.519
35.888
36.273
36.668
37.065
37.457
37.837
38.196
38.528
38.829
39.094
39.321
39.509
39.658
39.768
39.842
39.88
39.884
39.858
39.805
39.728
39.632
39.52
39.395
39.26
39.117
38.967
38.812
38.654
38.496
38.337
38.178
38.021
37.864
37.709
37.556
37.403
37.252
37.102
36.955
36.81
36.668
36.53
36.397
36.269
36.146
36.028
35.916
35.808
35.705
35.606
35.513
35.425
35.342
35.265
35.196
35.134
35.08
35.035
34.999
34.972
34.955
34.948
34.952
34.967
34.992
35.026
35.069
35.12
35.179
35.244
35.313
35.386
35.46
35.534
35.607
35.677
35.744
35.805
35.86
35.908
35.949
35.981
36.004
36.017
36.019
36.01
35.99
35.96
35.921
35.874
35.82
35.759
35.693
35.622
35.548
35.471
35.391
35.308
35.224
35.138
35.051
34.964
34.877
34.791
34.707
34.625
34.546
34.471
34.4
34.332
34.268
34.207
34.149
34.094
34.042
33.994
33.949
33.908
33.868
33.831
33.794
33.76
33.726
33.692
33.66
33.63
33.601
