Trial 1:0back
33.806
33.775
33.745
33.714
33.683
33.652
33.621
33.59
33.559
33.53
33.502
33.475
33.449
33.424
33.401
33.379
33.359
33.34
33.323
33.308
33.295
33.282
33.271
33.262
33.253
33.245
33.238
33.231
33.224
33.218
33.215
33.214
33.218
33.227
33.243
33.268
33.303
33.35
33.41
33.486
33.58
33.693
33.828
33.986
34.166
34.37
34.597
34.844
35.11
35.394
35.692
36.001
36.318
36.637
36.955
37.266
37.565
37.848
38.11
38.348
38.56
38.742
38.893
39.012
39.1
39.155
39.178
39.172
39.138
39.08
39.0
38.901
38.786
38.659
38.522
38.376
38.225
38.071
37.916
37.76
37.606
37.454
37.306
37.163
37.024
36.891
36.762
36.638
36.517
36.401
36.288
36.179
36.073
35.97
35.87
35.772
35.676
35.583
35.493
35.404
35.316
35.229
35.144
35.062
34.986
34.915
34.851
34.796
34.75
34.713
34.685
34.667
34.657
34.654
34.658
34.667
34.683
34.703
34.726
34.752
34.781
34.809
34.837
34.864
34.888
34.911
34.93
34.946
34.959
34.97
34.977
34.981
34.983
34.981
34.978
34.972
34.964
34.954
34.941
34.926
34.909
34.89
34.869
34.848
34.824
34.799
34.773
34.744
34.714
34.682
34.649
34.614
34.578
34.541
34.503
34.464
34.425
34.386
34.347
34.309
34.272
34.236
34.2
34.166
34.134
34.103
34.075
34.049
34.024
34.001
33.979
33.957
33.936
33.914
33.892
33.871
33.848
33.826
33.803
33.779
33.754
33.728
33.701
33.675
33.648
33.622
33.596
33.569
33.543
33.518
33.495
33.472
33.452
33.436
33.424
33.418
33.418
33.427
33.446
33.477
33.522
33.583
33.662
33.76
33.878
34.018
34.18
34.365
34.573
34.803
35.055
35.328
35.619
35.927
36.248
36.577
36.912
37.246
37.574
37.892
38.194
38.475
38.73
38.956
39.149
39.307
39.431
39.519
39.573
39.595
39.587
39.551
39.491
39.408
39.307
39.19
39.06
38.92
38.772
38.62
38.465
38.311
38.159
38.008
37.861
37.717
37.576
37.438
37.304
37.172
37.044
36.918
36.795
36.674
36.555
36.439
36.328
36.221
36.119
36.02
35.924
35.829
35.737
35.646
35.558
35.471
35.387
35.306
35.229
35.157
35.09
35.03
34.976
34.929
34.889
34.855
34.829
34.809
34.795
34.787
34.784
34.786
34.793
34.803
34.817
34.834
34.854
34.875
34.896
34.917
34.938
34.958
34.976
34.992
35.006
35.018
35.026
35.03
35.031
35.029
35.022
35.011
34.996
34.976
34.952
34.924
34.893
34.859
34.822
34.783
34.744
34.704
34.664
34.624
34.584
34.546
34.507
34.469
34.43
34.392
34.353
34.315
34.277
34.24
34.203
34.167
34.131
34.096
34.061
34.028
33.995
33.964
33.934
33.904
33.874
33.845
33.816
33.787
33.758
33.729
33.699
33.669
33.639
33.609
33.58
33.55
33.521
33.493
33.465
33.438
33.413
33.39
33.369
33.35
33.334
33.32
33.308
33.298
33.292
33.289
33.292
33.301
33.319
33.349
33.393
33.453
33.533
33.634
33.758
33.908
34.083
34.285
34.515
34.77
35.051
35.356
35.68
36.022
36.376
36.737
37.099
37.457
37.806
38.138
38.449
38.734
38.989
39.213
39.402
39.557
39.676
39.76
39.811
39.831
39.822
39.785
39.725
39.645
39.548
39.436
39.314
39.183
39.046
38.904
38.76
38.615
38.47
38.326
38.185
38.047
37.912
37.78
37.652
37.527
37.405
37.286
37.169
37.055
36.942
36.832
36.724
36.617
36.51
36.403
36.296
36.188
36.081
35.975
35.87
35.768
35.669
35.574
35.484
35.399
35.319
35.245
35.177
35.115
35.061
35.014
34.975
34.942
34.916
34.896
34.882
34.875
34.873
34.876
34.882
34.892
34.903
34.915
34.928
34.941
34.954
34.967
34.978
34.987
34.995
35.0
35.003
35.003
35.001
34.997
34.991
34.982
34.971
34.956
34.939
34.919
34.896
34.871
34.844
34.814
34.782
34.748
34.712
34.673
34.633
34.592
34.554
34.521
34.493
34.469
34.446
34.424
34.4
34.373
34.342
34.307
34.265
34.218
34.167
34.111
34.053
33.994
33.935
33.877
33.822
33.77
33.722
33.677
33.637
33.601
33.569
33.54
33.515
33.493
33.474
33.457
33.443
33.43
33.418
33.407
33.397
33.386
33.374
33.36
33.344
33.328
33.311
33.293
33.277
33.263
33.251
33.243
33.241
33.247
33.264
33.293
33.337
33.399
33.483
33.588
33.718
33.874
34.058
34.269
34.509
34.776
35.069
35.387
35.724
36.077
36.44
36.809
37.177
37.536
37.882
38.209
38.511
38.785
39.028
39.239
39.416
39.559
39.666
39.739
39.78
39.789
39.769
39.722
39.652
39.56
39.451
39.326
39.191
39.047
38.898
38.745
38.59
38.437
38.285
38.137
37.991
37.85
37.713
37.581
37.454
37.332
37.215
37.102
36.992
36.885
36.78
36.676
36.573
36.47
36.366
36.261
36.155
36.048
35.94
35.832
35.724
35.617
35.513
35.412
35.317
35.227
35.143
35.066
34.996
34.934
34.88
34.834
34.795
34.765
34.742
34.725
34.716
34.712
34.713
34.718
34.726
34.737
34.749
34.762
34.776
34.791
34.805
34.818
34.829
34.839
34.846
34.851
34.852
34.849
34.843
34.831
34.815
34.794
34.77
34.743
34.713
34.681
34.649
34.615
34.58
34.544
34.509
34.474
34.438
34.402
34.366
34.329
34.291
34.252
34.213
34.174
34.135
34.096
34.056
34.017
33.978
33.938
33.897
33.856
33.816
33.776
33.737
33.698
33.66
33.623
33.587
33.553
33.52
33.488
33.458
33.43
33.403
33.376
33.35
33.326
33.302
33.28
33.258
33.238
33.22
33.204
33.19
33.178
33.169
33.161
33.154
33.147
33.14
33.133
33.125
33.116
33.105
33.094
33.083
33.072
33.062
33.055
33.052
33.057
33.07
33.095
33.134
33.191
33.277
33.398
33.554
33.744
33.964
34.209
34.476
34.76
35.056
35.362
35.673
35.988
36.305
36.621
36.935
37.243
37.544
37.832
38.105
38.359
38.59
38.796
38.975
39.124
39.244
39.334
39.393
39.422
39.421
39.393
39.339
39.26
39.16
39.042
38.908
38.763
38.608
38.446
38.28
38.112
37.944
37.777
37.614
37.455
37.301
37.153
37.012
36.876
36.746
36.622
36.502
36.386
36.275
36.168
36.062
35.96
35.859
35.758
35.659
35.561
35.464
35.368
35.274
35.183
35.095
35.011
34.933
34.859
34.793
34.733
34.681
34.637
34.601
34.575
34.559
34.553
34.555
34.564
34.579
34.599
34.623
34.649
34.676
34.702
34.727
34.75
34.771
34.789
34.804
34.816
34.826
34.833
34.838
34.841
34.84
34.836
34.83
34.821
34.81
34.797
34.783
34.767
34.749
34.729
34.706
34.682
34.656
34.629
34.6
34.571
34.541
34.509
34.476
34.443
34.408
34.372
34.336
34.299
34.261
34.223
34.186
34.148
34.111
34.075
34.039
34.005
33.972
33.941
33.911
33.882
33.853
33.826
33.799
33.772
33.745
33.719
33.692
33.665
33.638
33.611
33.585
33.56
33.535
33.512
33.489
33.467
33.445
33.424
33.404
33.385
33.368
33.351
33.336
33.323
33.312
33.303
33.296
33.292
33.291
33.293
33.299
33.31
33.328
33.354
33.392
33.443
33.509
33.594
33.699
33.827
33.978
34.156
34.359
34.588
34.844
35.126
35.431
35.757
36.099
36.453
36.814
37.175
37.529
37.871
38.195
38.495
38.768
39.01
39.219
39.392
39.529
39.629
39.692
39.72
39.716
39.68
39.617
39.529
39.421
39.296
39.159
39.01
38.854
38.693
38.528
38.361
38.195
38.03
37.868
37.709
37.555
37.406
37.262
37.121
36.985
36.852
36.722
36.595
36.47
36.346
36.22
36.092
35.96
35.829
35.698
35.571
35.448
35.333
35.225
35.127
35.039
34.961
34.893
34.837
34.79
34.753
34.725
34.705
34.692
34.684
34.683
34.686
34.693
34.704
34.718
34.736
34.756
34.779
34.804
34.832
34.862
34.893
34.923
34.952
34.977
34.999
35.016
35.028
35.034
35.036
35.032
35.024
35.011
34.994
34.974
34.951
34.926
34.899
34.872
34.843
34.814
34.785
34.756
34.726
34.694
34.662
34.629
34.594
34.558
34.521
34.482
34.442
34.402
34.36
34.317
34.274
34.231
34.187
34.144
34.102
34.061
34.021
33.984
33.948
33.914
33.881
33.849
33.816
33.782
33.747
33.712
33.676
33.64
33.604
33.569
33.535
33.504
33.474
33.446
33.421
33.399
33.38
33.362
33.347
33.332
33.32
33.307
33.296
33.285
33.275
33.266
33.259
33.255
33.253
33.257
33.268
33.287
33.318
33.362
33.422
33.501
33.602
33.727
33.878
34.057
34.265
34.502
34.77
35.066
35.389
35.738
36.107
36.491
36.884
37.28
37.671
38.052
38.414
38.753
39.063
39.341
39.583
39.788
39.955
40.083
40.174
40.228
40.248
40.235
40.193
40.125
40.036
39.928
39.803
39.658
39.497
39.322
39.139
38.954
38.77
38.591
38.419
38.257
38.105
37.964
37.831
37.707
37.589
37.475
37.364
37.253
37.143
37.031
36.919
36.805
36.689
36.572
36.453
36.332
36.211
36.089
35.969
35.849
35.733
35.62
35.511
35.407
35.309
35.218
35.134
35.057
34.988
34.927
34.874
34.829
34.793
34.765
34.745
34.732
34.725
34.725
34.73
34.74
34.753
34.77
34.79
34.811
34.834
34.857
34.879
34.899
34.917
34.932
34.942
34.948
34.949
34.947
34.94
34.931
34.918
34.902
34.883
34.862
34.837
34.81
34.78
34.747
34.713
34.675
34.635
34.592
34.545
34.495
34.443
34.39
34.337
34.285
34.232
34.181
34.132
34.085
34.04
33.997
33.956
33.916
33.878
33.841
33.805
33.771
33.738
33.705
33.675
33.646
33.619
33.593
33.569
33.545
33.522
33.5
33.478
33.457
33.436
33.416
33.396
33.377
33.357
33.337
33.317
33.297
33.277
33.258
33.239
33.221
33.204
33.189
33.174
33.16
33.147
33.135
33.126
33.119
33.116
33.118
33.128
33.148
33.18
33.227
33.293
33.38
33.491
33.63
33.799
34.0
34.235
34.503
34.805
35.14
35.503
35.891
36.299
36.719
37.145
37.569
37.983
38.382
38.759
39.107
39.421
39.698
39.934
40.128
40.281
40.392
40.464
40.5
40.502
40.474
40.419
40.34
40.24
40.123
39.991
39.849
39.698
39.542
39.383
39.222
39.06
38.898
38.737
38.576
38.416
38.258
38.1
37.945
37.791
37.638
37.487
37.338
37.192
37.048
36.906
36.766
36.628
36.493
36.36
36.229
36.1
35.974
35.851
35.732
35.617
35.507
35.402
35.303
35.209
35.122
35.041
34.966
34.899
34.84
34.79
34.747
34.712
34.685
34.665
34.651
34.644
34.643
34.646
34.655
34.664
34.667
34.663
34.652
34.639
34.623
34.61
34.599
34.595
34.596
34.601
34.612
34.627
34.645
34.665
34.686
34.707
34.726
34.741
34.75
34.753
34.749
34.738
34.721
34.697
34.667
34.632
34.591
34.546
34.497
34.445
34.391
34.336
34.28
34.225
34.17
34.115
34.061
34.007
33.954
33.902
33.852
33.804
33.759
33.716
33.676
33.639
33.603
33.57
33.537
33.506
33.476
33.447
33.418
33.39
33.361
33.332
33.303
33.274
33.245
33.216
33.188
33.161
33.135
33.11
33.088
33.067
33.049
33.033
33.018
33.005
32.993
32.982
32.972
32.957
32.932
32.898
32.855
32.809
32.763
32.723
32.694
32.682
32.689
32.72
32.775
32.856
32.964
33.1
33.265
33.459
33.682
33.935
34.218
34.53
34.87
35.234
35.62
36.024
36.439
36.86
37.279
37.691
38.09
38.468
38.819
39.14
39.425
39.672
39.88
40.046
40.172
40.259
40.308
40.321
40.3
40.249
40.171
40.068
39.944
39.803
39.648
39.481
39.307
39.127
38.945
38.762
38.579
38.398
38.22
38.044
37.872
37.702
37.536
37.374
37.215
37.06
36.907
36.758
36.61
36.466
36.323
36.182
36.044
35.906
35.766
35.624
35.482
35.342
35.206
35.077
34.958
34.849
34.753
34.669
34.598
34.541
34.495
34.46
34.434
34.417
34.408
34.404
34.404
34.408
34.414
34.422
34.432
34.443
34.456
34.47
34.485
34.503
34.521
34.541
34.562
34.582
34.603
34.623
34.641
34.657
34.67
34.679
34.683
34.683
34.678
34.669
34.657
34.64
34.621
34.599
34.575
34.548
34.518
34.487
34.453
34.418
34.381
34.342
34.302
34.261
34.219
34.176
34.133
34.09
34.046
34.004
33.961
33.92
33.88
33.84
33.801
33.763
33.726
33.689
33.653
33.617
33.58
33.543
33.506
33.47
33.435
33.402
33.371
33.344
33.319
33.296
33.275
33.256
33.238
33.22
33.202
33.184
33.167
33.151
33.135
33.121
33.108
33.095
33.084
33.072
33.061
33.051
33.041
33.031
33.023
33.016
33.01
33.005
33.002
33.002
33.007
33.017
33.037
33.068
33.114
33.178
33.262
33.37
33.504
33.668
33.862
34.09
34.352
34.648
34.976
35.334
35.717
36.12
36.537
36.961
37.384
37.8
38.201
38.581
38.934
39.254
39.538
39.78
39.98
40.138
40.252
40.326
40.359
40.355
40.318
40.25
40.156
40.037
39.898
39.742
39.569
39.383
39.188
38.987
38.784
38.579
38.375
38.172
37.973
37.778
37.587
37.403
37.226
37.056
36.894
36.739
36.591
36.45
36.313
36.179
36.049
35.922
35.798
35.677
35.559
35.444
35.333
35.225
35.12
35.02
34.926
34.838
34.758
34.686
34.624
34.57
34.524
34.487
34.458
34.437
34.423
34.417
34.419
34.427
34.44
34.459
34.483
34.509
34.538
34.568
34.599
34.631
34.661
34.691
34.72
34.746
34.769
34.79
34.807
34.822
34.833
34.84
34.842
34.841
34.834
34.824
34.809
34.792
34.774
34.753
34.731
34.705
34.677
34.644
34.607
34.565
34.519
34.469
34.417
34.362
34.305
34.248
34.19
34.133
34.078
34.026
33.976
33.929
33.884
33.843
33.804
33.766
33.729
33.694
33.66
33.625
33.591
33.558
33.526
33.494
33.463
33.432
33.403
33.374
33.347
33.321
33.296
33.273
33.251
33.229
33.21
33.192
33.175
33.158
33.143
33.13
33.116
33.104
33.092
33.082
33.072
33.065
33.059
33.057
33.06
33.067
33.081
33.105
33.141
33.192
33.26
33.35
33.465
33.606
33.778
33.982
34.219
34.49
34.794
35.13
35.495
35.887
36.298
36.722
37.152
37.58
37.998
38.4
38.779
39.128
39.444
39.722
39.96
40.156
40.311
40.425
40.5
40.536
40.537
40.507
40.447
40.36
40.251
40.123
39.98
39.824
39.657
39.483
39.303
39.12
38.935
38.75
38.566
38.384
38.206
38.032
37.861
37.695
37.533
37.374
37.218
37.064
36.912
36.762
36.614
36.469
36.326
36.185
36.047
35.912
35.78
35.653
35.529
35.41
35.296
35.187
35.084
34.987
34.896
34.812
34.736
34.667
34.608
34.559
34.518
34.485
34.46
34.443
34.434
34.43
34.433
34.441
34.456
34.476
34.501
34.53
34.56
34.591
34.622
34.651
34.679
34.705
34.727
34.747
34.761
34.772
34.778
34.78
34.778
34.773
34.765
34.753
34.738
34.719
34.697
34.673
34.645
34.615
34.584
34.55
34.514
34.475
34.433
34.39
34.344
34.297
34.249
34.202
34.156
34.11
34.064
34.019
33.975
33.932
33.889
33.848
33.807
33.767
33.729
33.691
33.653
33.617
33.582
33.547
33.513
33.48
33.447
33.414
33.382
33.351
33.32
33.29
33.261
33.232
33.204
33.178
33.152
33.128
33.105
33.083
33.062
33.043
33.023
33.004
32.985
32.968
32.951
32.937
32.925
32.917
32.912
32.912
32.92
32.936
32.963
33.003
33.059
33.134
33.231
33.352
33.5
33.679
33.89
34.136
34.416
34.73
35.078
35.455
35.858
36.281
36.718
37.16
37.6
38.031
38.445
38.835
39.196
39.521
39.808
40.054
40.258
40.418
40.537
40.615
40.655
40.659
40.629
40.569
40.483
40.373
40.243
40.097
39.938
39.768
39.59
39.407
39.221
39.034
38.847
38.662
38.48
38.303
38.129
37.961
37.797
37.639
37.487
37.338
37.193
37.05
36.91
36.771
36.633
36.496
36.36
36.226
36.093
35.963
35.835
35.712
35.591
35.476
35.365
35.261
35.163
35.071
34.987
34.91
34.841
34.779
34.725
34.678
34.638
34.605
34.579
34.559
34.546
34.539
34.538
34.542
34.551
34.565
34.582
34.602
34.625
34.649
34.674
34.698
34.722
34.745
34.767
34.786
34.802
34.816
34.825
34.831
34.832
34.829
34.822
34.811
34.795
34.775
34.752
34.724
34.693
34.658
34.619
34.578
34.533
34.486
34.437
34.386
34.334
34.281
34.229
34.177
34.126
34.076
34.027
33.98
33.935
33.893
33.853
33.815
33.78
33.746
33.713
33.68
33.647
33.612
33.575
33.538
33.5
33.461
33.423
33.385
33.349
33.314
33.281
33.25
33.222
33.196
33.172
33.15
33.128
33.108
33.089
33.071
33.053
33.037
33.021
33.006
32.991
32.977
32.964
32.951
32.94
32.931
32.925
32.922
32.923
32.93
32.945
32.972
33.011
33.066
33.14
33.237
33.358
33.506
33.683
33.891
34.133
34.408
34.715
35.053
35.419
35.808
36.215
36.634
37.059
37.481
37.893
38.289
38.662
39.007
39.32
39.597
39.835
40.03
40.182
40.289
40.353
40.378
40.365
40.318
40.241
40.14
40.017
39.878
39.725
39.564
39.395
39.222
39.045
38.866
38.687
38.508
38.33
38.153
37.979
37.807
37.637
37.471
37.308
37.149
36.992
36.839
36.689
36.543
36.399
36.257
36.118
35.981
35.848
35.717
35.589
35.464
35.344
35.228
35.117
35.012
34.914
34.822
34.738
34.661
34.594
34.535
34.485
34.443
34.41
34.384
34.367
34.356
34.35
34.351
34.357
34.367
34.38
34.396
34.416
34.436
34.458
34.48
34.504
34.527
34.55
34.571
34.592
34.61
34.626
34.64
34.651
34.659
34.663
34.663
34.659
34.652
34.641
34.626
34.61
34.59
34.568
34.542
34.514
34.484
34.452
34.419
34.384
34.349
34.312
34.275
34.236
34.196
34.155
34.112
34.069
34.024
33.979
33.935
33.89
33.846
33.804
33.763
33.724
33.686
33.649
33.614
33.581
33.548
33.516
33.486
33.457
33.428
33.401
33.375
33.35
33.326
33.302
33.28
33.258
33.238
33.218
33.2
33.183
33.167
33.152
33.138
33.124
33.112
33.1
33.088
33.077
33.066
33.055
33.045
33.038
33.034
33.031
33.032
33.036
33.047
33.064
33.091
33.13
33.183
33.253
33.343
33.455
33.592
33.756
33.95
34.175
34.43
34.717
35.034
35.377
35.743
36.128
36.526
36.931
37.335
37.732
38.116
38.478
38.814
39.118
39.385
39.613
39.801
39.946
40.049
40.112
40.137
40.126
40.082
40.009
39.91
39.789
39.65
39.497
39.331
39.156
38.974
38.788
38.6
38.412
38.225
38.039
37.856
37.676
37.5
37.327
37.158
36.994
36.834
36.679
36.529
36.383
36.243
36.105
35.968
35.832
35.699
35.569
35.442
35.32
35.205
35.096
34.993
34.898
34.812
34.734
34.664
34.604
34.552
34.51
34.476
34.451
34.433
34.424
34.422
34.426
34.436
34.451
34.471
34.494
34.521
34.549
34.581
34.613
34.645
34.677
34.707
34.737
34.764
34.788
34.808
34.825
34.839
34.848
34.854
34.856
34.855
34.85
34.843
34.832
34.818
34.802
34.783
34.762
34.738
34.711
34.681
34.648
34.613
34.576
34.537
34.497
34.455
34.413
34.37
34.327
34.285
34.243
34.202
34.162
34.123
34.086
34.05
34.015
33.982
33.951
33.92
33.891
33.863
33.835
33.807
33.779
33.752
33.725
33.699
33.672
33.646
33.618
33.59
33.562
33.533
33.504
33.476
33.449
33.423
33.399
33.375
33.354
33.334
33.316
33.301
33.287
33.275
33.264
33.255
33.247
33.241
33.239
33.243
33.255
33.277
33.312
33.362
33.43
33.519
33.631
33.77
33.936
34.132
34.358
34.614
34.9
35.214
35.555
35.918
36.3
36.694
37.095
37.494
37.885
38.262
38.617
38.945
39.24
39.499
39.719
39.9
40.041
40.141
40.202
40.228
40.22
40.182
40.118
40.032
39.927
39.805
39.668
39.52
39.361
39.195
39.023
38.847
38.669
38.492
38.315
38.14
37.967
37.797
37.631
37.468
37.309
37.154
37.004
36.857
36.714
36.575
36.44
36.307
36.178
36.052
35.929
35.809
35.69
35.573
35.459
35.347
35.24
35.137
35.041
34.952
34.871
34.798
34.734
34.678
34.631
34.593
34.563
34.541
34.526
34.517
34.513
34.516
34.522
34.532
34.545
34.562
34.581
34.602
34.625
34.649
34.675
34.701
34.727
34.752
34.775
34.796
34.814
34.829
34.842
34.852
34.859
34.863
34.862
34.857
34.846
34.83
34.808
34.781
34.75
34.715
34.676
34.635
34.592
34.547
34.5
34.453
34.404
34.355
34.306
34.258
34.211
34.166
34.122
34.081
34.042
34.005
33.969
33.935
33.901
33.868
33.836
33.805
33.773
33.741
33.709
33.677
33.644
33.612
33.58
33.549
33.517
33.486
33.456
33.427
33.4
33.373
33.347
33.322
33.297
33.273
33.249
33.226
33.203
33.182
33.162
33.143
33.125
33.11
33.097
33.085
33.077
33.073
33.073
33.08
33.095
33.12
33.156
33.206
33.276
33.368
33.486
33.632
33.809
34.02
34.264
34.542
34.855
35.2
35.574
35.97
36.384
36.809
37.237
37.661
38.073
38.465
38.831
39.165
