Trial 1:0back
34.819
34.808
34.797
34.785
34.772
34.76
34.749
34.738
34.729
34.72
34.713
34.707
34.703
34.699
34.697
34.694
34.69
34.686
34.68
34.674
34.666
34.657
34.646
34.632
34.617
34.602
34.588
34.576
34.565
34.558
34.555
34.557
34.564
34.578
34.599
34.629
34.668
34.718
34.779
34.852
34.935
35.029
35.132
35.243
35.361
35.485
35.613
35.743
35.874
36.004
36.13
36.251
36.366
36.474
36.574
36.666
36.748
36.82
36.881
36.933
36.973
37.003
37.024
37.037
37.043
37.042
37.037
37.027
37.013
36.995
36.975
36.952
36.927
36.9
36.871
36.841
36.81
36.779
36.747
36.716
36.685
36.655
36.626
36.598
36.569
36.54
36.512
36.483
36.454
36.424
36.393
36.359
36.323
36.284
36.243
36.2
36.156
36.113
36.069
36.027
35.985
35.946
35.91
35.877
35.849
35.825
35.806
35.792
35.781
35.773
35.768
35.766
35.767
35.772
35.78
35.79
35.802
35.815
35.83
35.847
35.865
35.885
35.906
35.926
35.946
35.966
35.985
36.002
36.017
36.029
36.038
36.043
36.044
36.04
36.032
36.021
36.008
35.992
35.975
35.955
35.934
35.911
35.887
35.863
35.839
35.815
35.79
35.766
35.741
35.717
35.693
35.669
35.644
35.62
35.596
35.571
35.545
35.519
35.493
35.466
35.44
35.413
35.387
35.361
35.336
35.311
35.286
35.262
35.237
35.213
35.189
35.166
35.143
35.121
35.099
35.078
35.056
35.034
35.014
34.994
34.975
34.958
34.942
34.926
34.911
34.896
34.882
34.869
34.855
34.842
34.828
34.814
34.801
34.787
34.775
34.764
34.754
34.744
34.735
34.727
34.719
34.713
34.709
34.707
34.706
34.706
34.707
34.707
34.707
34.705
34.704
34.701
34.697
34.692
34.685
34.676
34.665
34.655
34.645
34.637
34.629
34.622
34.616
34.609
34.602
34.595
34.588
34.582
34.576
34.569
34.562
34.555
34.547
34.538
34.529
34.519
34.507
34.495
34.483
34.47
34.457
34.446
34.436
34.427
34.418
34.41
34.403
34.397
34.392
34.388
34.386
34.385
34.386
34.39
34.399
34.413
34.435
34.466
34.505
34.553
34.611
34.679
34.756
34.842
34.938
35.043
35.157
35.277
35.402
35.53
35.659
35.788
35.913
36.033
36.148
36.254
36.351
36.438
36.516
36.582
36.638
36.684
36.721
36.748
36.767
36.777
36.78
36.777
36.768
36.753
36.735
36.712
36.686
36.656
36.623
36.587
36.549
36.51
36.471
36.431
36.392
36.354
36.316
36.279
36.242
36.206
36.17
36.135
36.1
36.064
36.027
35.989
35.95
35.91
35.868
35.826
35.784
35.743
35.704
35.666
35.632
35.599
35.569
35.542
35.517
35.496
35.48
35.467
35.458
35.453
35.45
35.45
35.453
35.459
35.468
35.48
35.494
35.51
35.526
35.544
35.563
35.583
35.603
35.625
35.645
35.664
35.68
35.694
35.707
35.716
35.724
35.728
35.729
35.727
35.722
35.717
35.711
35.704
35.697
35.689
35.678
35.666
35.652
35.637
35.623
35.609
35.594
35.579
35.561
35.542
35.521
35.497
35.473
35.449
35.425
35.401
35.377
35.355
35.333
35.311
35.291
35.27
35.249
35.228
35.205
35.182
35.159
35.135
35.111
35.087
35.064
35.04
35.017
34.995
34.973
34.952
34.932
34.914
34.897
34.882
34.868
34.855
34.843
34.831
34.818
34.806
34.794
34.781
34.768
34.754
34.739
34.723
34.706
34.69
34.674
34.658
34.643
34.629
34.617
34.605
34.595
34.587
34.579
34.574
34.57
34.567
34.565
34.564
34.564
34.563
34.562
34.561
34.557
34.552
34.545
34.535
34.525
34.512
34.5
34.487
34.474
34.461
34.448
34.436
34.425
34.416
34.409
34.402
34.397
34.392
34.388
34.384
34.38
34.376
34.371
34.366
34.36
34.353
34.347
34.34
34.335
34.332
34.331
34.334
34.343
34.357
34.378
34.409
34.449
34.499
34.56
34.632
34.713
34.803
34.902
35.008
35.121
35.24
35.362
35.487
35.611
35.733
35.851
35.965
36.074
36.176
36.272
36.36
36.439
36.509
36.569
36.618
36.658
36.689
36.71
36.723
36.728
36.725
36.716
36.7
36.681
36.657
36.63
36.602
36.571
36.539
36.507
36.474
36.442
36.409
36.375
36.342
36.307
36.273
36.237
36.201
36.163
36.124
36.083
36.041
35.997
35.953
35.909
35.865
35.821
35.778
35.736
35.694
35.653
35.614
35.577
35.541
35.508
35.476
35.447
35.42
35.397
35.378
35.364
35.354
35.349
35.348
35.351
35.359
35.371
35.387
35.406
35.428
35.451
35.476
35.5
35.524
35.546
35.567
35.587
35.606
35.622
35.636
35.647
35.656
35.662
35.668
35.671
35.672
35.671
35.668
35.662
35.653
35.642
35.629
35.615
35.6
35.582
35.562
35.54
35.517
35.492
35.467
35.443
35.418
35.394
35.371
35.347
35.323
35.301
35.278
35.255
35.233
35.21
35.186
35.16
35.134
35.107
35.08
35.053
35.026
34.999
34.972
34.946
34.919
34.893
34.867
34.842
34.817
34.794
34.772
34.752
34.734
34.718
34.702
34.688
34.674
34.661
34.647
34.632
34.617
34.602
34.586
34.569
34.553
34.537
34.521
34.504
34.489
34.473
34.459
34.445
34.432
34.421
34.412
34.405
34.401
34.399
34.399
34.401
34.405
34.408
34.412
34.415
34.416
34.417
34.416
34.415
34.413
34.411
34.408
34.405
34.402
34.399
34.395
34.392
34.389
34.385
34.381
34.376
34.37
34.364
34.359
34.353
34.347
34.34
34.332
34.323
34.312
34.302
34.291
34.281
34.271
34.262
34.251
34.241
34.231
34.222
34.214
34.207
34.201
34.196
34.194
34.196
34.202
34.216
34.237
34.268
34.307
34.357
34.417
34.489
34.571
34.666
34.77
34.884
35.005
35.132
35.265
35.401
35.539
35.677
35.814
35.948
36.076
36.196
36.308
36.41
36.502
36.582
36.651
36.708
36.754
36.787
36.809
36.821
36.825
36.821
36.811
36.797
36.78
36.76
36.737
36.712
36.686
36.659
36.632
36.606
36.579
36.551
36.522
36.49
36.457
36.423
36.389
36.354
36.32
36.285
36.249
36.214
36.179
36.145
36.11
36.075
36.04
36.004
35.968
35.931
35.894
35.857
35.821
35.786
35.752
35.72
35.69
35.661
35.636
35.614
35.595
35.58
35.569
35.562
35.558
35.557
35.559
35.564
35.57
35.579
35.589
35.601
35.614
35.628
35.642
35.657
35.672
35.687
35.703
35.718
35.734
35.749
35.763
35.775
35.785
35.794
35.8
35.804
35.806
35.806
35.802
35.795
35.783
35.767
35.748
35.727
35.704
35.681
35.657
35.633
35.609
35.586
35.563
35.542
35.521
35.501
35.481
35.461
35.441
35.42
35.399
35.378
35.356
35.333
35.308
35.282
35.255
35.228
35.201
35.175
35.15
35.127
35.104
35.082
35.061
35.04
35.021
35.001
34.981
34.96
34.937
34.914
34.89
34.867
34.844
34.822
34.8
34.78
34.759
34.74
34.723
34.707
34.694
34.683
34.675
34.667
34.66
34.653
34.646
34.639
34.632
34.625
34.617
34.608
34.597
34.586
34.574
34.562
34.552
34.542
34.534
34.526
34.519
34.514
34.509
34.506
34.504
34.503
34.501
34.5
34.498
34.496
34.494
34.492
34.489
34.485
34.479
34.471
34.462
34.45
34.438
34.426
34.413
34.4
34.387
34.376
34.365
34.357
34.35
34.344
34.341
34.338
34.336
34.334
34.334
34.335
34.337
34.339
34.343
34.346
34.349
34.351
34.353
34.356
34.362
34.373
34.391
34.417
34.452
34.499
34.558
34.629
34.714
34.811
34.919
35.038
35.164
35.297
35.434
35.572
35.71
35.846
35.977
36.103
36.22
36.329
36.428
36.517
36.594
36.661
36.718
36.765
36.801
36.829
36.848
36.86
36.864
36.862
36.855
36.843
36.827
36.806
36.783
36.755
36.726
36.695
36.664
36.632
36.602
36.572
36.541
36.511
36.48
36.448
36.417
36.385
36.354
36.323
36.292
36.26
36.228
36.193
36.156
36.116
36.076
36.034
35.993
35.951
35.911
35.872
35.835
35.8
35.768
35.739
35.713
35.689
35.668
35.649
35.633
35.619
35.609
35.603
35.601
35.601
35.604
35.608
35.615
35.624
35.636
35.65
35.667
35.684
35.702
35.72
35.738
35.755
35.771
35.786
35.798
35.808
35.815
35.819
35.822
35.823
35.823
35.823
35.822
35.819
35.816
35.81
35.802
35.792
35.779
35.764
35.748
35.73
35.712
35.692
35.671
35.649
35.625
35.599
35.572
35.545
35.517
35.49
35.463
35.438
35.413
35.388
35.362
35.336
35.31
35.282
35.254
35.225
35.194
35.164
35.135
35.106
35.08
35.056
35.033
35.011
34.989
34.967
34.946
34.925
34.905
34.886
34.868
34.849
34.829
34.81
34.791
34.772
34.753
34.734
34.716
34.698
34.68
34.663
34.647
34.633
34.621
34.61
34.601
34.592
34.583
34.576
34.569
34.563
34.558
34.553
34.548
34.543
34.536
34.529
34.523
34.517
34.512
34.507
34.503
34.499
34.495
34.491
34.489
34.488
34.488
34.489
34.49
34.49
34.49
34.489
34.488
34.487
34.484
34.48
34.474
34.467
34.459
34.451
34.442
34.432
34.423
34.414
34.404
34.394
34.385
34.377
34.37
34.365
34.36
34.357
34.354
34.351
34.347
34.343
34.337
34.33
34.321
34.312
34.301
34.291
34.282
34.276
34.272
34.269
34.269
34.271
34.277
34.286
34.301
34.321
34.35
34.387
34.434
34.493
34.563
34.644
34.737
34.841
34.954
35.074
35.201
35.331
35.464
35.597
35.728
35.857
35.981
36.1
36.211
36.313
36.406
36.489
36.561
36.623
36.675
36.716
36.748
36.771
36.786
36.792
36.791
36.784
36.77
36.751
36.728
36.701
36.672
36.641
36.608
36.574
36.539
36.504
36.468
36.431
36.395
36.358
36.321
36.283
36.244
36.205
36.167
36.129
36.091
36.053
36.015
35.977
35.937
35.898
35.858
35.819
35.781
35.743
35.705
35.668
35.631
35.597
35.566
35.538
35.515
35.496
35.481
35.471
35.464
35.462
35.463
35.469
35.477
35.489
35.503
35.519
35.537
35.556
35.577
35.598
35.62
35.641
35.662
35.682
35.7
35.717
35.732
35.747
35.759
35.77
35.779
35.787
35.792
35.795
35.796
35.796
35.794
35.789
35.782
35.772
35.761
35.747
35.733
35.717
35.7
35.682
35.661
35.639
35.615
35.589
35.564
35.539
35.515
35.493
35.472
35.452
35.432
35.411
35.39
35.369
35.348
35.327
35.307
35.287
35.266
35.244
35.221
35.198
35.175
35.152
35.129
35.107
35.085
35.063
35.041
35.02
34.999
34.979
34.959
34.939
34.92
34.902
34.884
34.867
34.851
34.836
34.82
34.804
34.789
34.774
34.76
34.747
34.736
34.726
34.719
34.713
34.708
34.705
34.704
34.704
34.704
34.705
34.706
34.708
34.709
34.71
34.711
34.711
34.709
34.707
34.703
34.698
34.692
34.686
34.68
34.674
34.668
34.663
34.658
34.652
34.646
34.639
34.632
34.624
34.615
34.605
34.595
34.584
34.573
34.562
34.551
34.54
34.53
34.52
34.511
34.501
34.492
34.483
34.475
34.468
34.464
34.462
34.463
34.467
34.475
34.488
34.505
34.528
34.557
34.592
34.636
34.687
34.746
34.815
34.892
34.978
35.072
35.174
35.282
35.394
35.509
35.626
35.744
35.86
35.975
36.087
36.192
36.29
36.379
36.457
36.525
36.58
36.625
36.659
36.682
36.696
36.701
36.699
36.692
36.681
36.666
36.649
36.629
36.607
36.581
36.553
36.523
36.492
36.46
36.427
36.393
36.358
36.322
36.284
36.245
36.206
36.165
36.125
36.084
36.042
36.0
35.957
35.914
35.87
35.828
35.786
35.745
35.706
35.669
35.632
35.596
35.561
35.527
35.495
35.465
35.437
35.412
35.39
35.372
35.36
35.353
35.353
35.358
35.369
35.383
35.401
35.422
35.444
35.469
35.495
35.521
35.547
35.572
35.596
35.619
35.64
35.659
35.676
35.691
35.704
35.715
35.724
35.731
35.737
35.742
35.745
35.745
35.744
35.738
35.729
35.716
35.7
35.681
35.66
35.639
35.617
35.596
35.576
35.557
35.538
35.519
35.5
35.482
35.463
35.444
35.425
35.405
35.384
35.362
35.34
35.317
35.294
35.27
35.246
35.222
35.197
35.172
35.147
35.123
35.099
35.076
35.053
35.032
35.011
34.99
34.97
34.949
34.929
34.908
34.886
34.864
34.842
34.82
34.799
34.778
34.758
34.738
34.72
34.704
34.689
34.675
34.664
34.655
34.648
34.643
34.639
34.637
34.634
34.632
34.629
34.626
34.622
34.618
34.613
34.608
34.602
34.595
34.587
34.579
34.572
34.565
34.558
34.552
34.546
34.54
34.535
34.53
34.525
34.522
34.52
34.517
34.515
34.513
34.511
34.509
34.506
34.502
34.497
34.489
34.48
34.469
34.458
34.446
34.436
34.426
34.417
34.409
34.404
34.4
34.398
34.398
34.398
34.399
34.399
34.4
34.4
34.402
34.405
34.409
34.416
34.425
34.438
34.456
34.482
34.517
34.561
34.616
34.681
34.759
34.847
34.947
35.057
35.177
35.304
35.438
35.575
35.713
35.85
35.983
36.112
36.235
36.352
36.461
36.561
36.653
36.735
36.808
36.871
36.926
36.972
37.01
37.04
37.061
37.073
37.077
37.071
37.058
37.039
37.016
36.988
36.957
36.924
36.889
36.852
36.814
36.777
36.74
36.705
36.671
36.638
36.605
36.574
36.543
36.514
36.487
36.46
36.433
36.405
36.376
36.346
36.314
36.282
36.249
36.216
36.184
36.151
36.119
36.086
36.054
36.021
35.99
35.96
35.932
35.905
35.881
35.858
35.839
35.823
35.81
35.802
35.797
35.795
35.797
35.803
35.811
35.823
35.837
35.854
35.872
35.893
35.915
35.938
35.961
35.983
36.003
36.022
36.04
36.055
36.069
36.08
36.09
36.097
36.102
36.104
36.104
36.101
36.095
36.086
36.076
36.063
36.047
36.028
36.007
35.982
35.955
35.926
35.896
35.866
35.836
35.806
35.777
35.747
35.718
35.69
35.665
35.64
35.617
35.594
35.571
35.548
35.525
35.502
35.478
35.453
35.428
35.401
35.374
35.347
35.32
35.295
35.271
35.248
35.225
35.203
35.182
35.161
35.14
35.121
35.102
35.083
35.064
35.044
35.024
35.004
34.984
34.965
34.947
34.93
34.914
34.898
34.883
34.869
34.857
34.846
34.836
34.827
34.819
34.811
34.804
34.797
34.792
34.788
34.784
34.78
34.775
34.77
34.764
34.758
34.751
34.744
34.737
34.729
34.722
34.716
34.709
34.704
34.699
34.694
34.691
34.687
34.684
34.68
34.676
34.671
34.666
34.66
34.654
34.648
34.641
34.634
34.626
34.618
34.609
34.599
34.588
34.577
34.565
34.553
34.542
34.531
34.521
34.512
34.504
34.496
34.49
34.484
34.478
34.473
34.467
34.461
34.455
34.449
34.443
34.437
34.432
34.429
34.427
34.429
34.435
34.446
34.464
34.491
34.528
34.576
34.638
34.712
34.8
34.9
35.013
35.136
35.268
35.409
35.554
35.703
35.853
36.002
36.147
36.288
36.422
36.548
36.665
36.772
36.869
36.955
37.029
37.092
37.143
37.182
37.211
37.23
37.24
37.241
37.235
37.223
37.205
37.181
37.154
37.122
37.089
37.054
37.018
36.983
36.947
36.911
36.875
36.839
36.803
36.767
36.732
36.698
36.664
36.632
36.601
36.569
36.537
36.505
36.473
36.44
36.407
36.373
36.338
36.302
36.264
36.226
36.187
36.148
36.11
36.073
36.038
36.004
35.973
35.945
35.921
35.902
35.888
35.878
35.872
35.871
35.873
35.879
35.888
35.9
35.915
35.931
35.947
35.964
35.98
35.996
36.011
36.025
36.039
36.052
36.064
36.075
36.085
36.095
36.103
36.111
36.117
36.123
36.125
36.125
36.12
36.111
36.098
36.083
36.065
36.045
36.023
35.999
35.973
35.945
35.916
35.886
35.856
35.828
35.8
35.773
35.746
35.719
35.693
35.667
35.642
35.617
35.592
35.567
35.541
35.514
35.486
35.459
35.432
35.406
35.38
35.354
35.328
35.301
35.276
35.25
35.226
35.203
35.181
35.16
35.14
35.119
35.1
35.08
35.061
35.041
35.021
34.999
34.977
34.954
34.931
34.909
34.888
34.869
34.851
34.836
34.822
34.812
34.803
34.797
34.793
34.79
34.788
34.786
34.783
34.78
34.777
34.774
34.769
34.764
34.758
34.751
34.742
34.732
34.722
34.711
34.701
34.692
34.684
34.677
34.671
34.666
34.662
34.659
34.657
34.655
34.653
34.649
34.645
34.64
34.634
34.628
34.622
34.615
34.607
34.598
34.589
34.58
34.57
34.561
34.553
34.545
34.539
34.533
34.529
34.524
34.52
34.515
34.51
34.502
34.491
34.478
34.462
34.444
34.423
34.402
34.38
34.359
34.339
34.321
34.306
34.294
34.285
34.28
34.278
34.281
34.288
34.299
34.316
34.339
34.369
34.406
34.452
34.507
34.571
34.645
34.728
34.821
34.923
35.036
35.157
35.286
35.42
35.558
35.698
35.837
35.974
36.108
36.237
36.36
36.475
36.581
36.677
36.762
36.835
36.897
36.946
36.985
37.013
37.032
37.042
37.043
37.038
37.026
37.009
36.988
36.965
36.939
36.911
36.881
36.849
36.814
36.776
36.738
36.699
36.659
36.62
36.581
36.541
36.5
36.46
36.42
36.382
36.345
36.31
36.276
36.243
36.21
36.175
36.139
36.101
36.061
36.02
35.978
35.937
35.895
35.854
35.815
35.776
35.741
35.709
35.682
35.66
35.644
35.633
35.628
35.628
35.632
35.64
35.652
35.666
35.683
35.701
35.72
35.74
35.759
35.779
35.798
35.817
35.837
35.856
35.876
35.897
35.916
35.935
35.953
35.968
35.981
35.992
36.0
36.006
36.008
36.007
36.001
35.992
35.978
35.961
35.942
35.92
35.898
35.875
35.851
35.827
35.803
35.779
35.756
35.734
35.713
35.694
35.675
35.655
35.634
35.61
35.586
35.56
35.534
35.508
35.481
35.454
35.427
35.398
35.37
35.343
35.316
35.291
35.267
35.245
35.224
35.204
35.185
35.167
35.15
35.134
35.118
35.102
35.085
35.068
35.05
35.031
35.011
34.992
34.974
34.956
34.939
34.923
34.908
34.893
34.879
34.867
34.856
34.846
34.837
34.829
34.821
34.813
34.804
34.796
34.787
34.778
34.768
34.759
34.749
34.74
34.732
34.723
34.716
34.709
34.703
34.698
34.694
34.691
34.689
34.686
34.684
34.681
34.678
34.674
34.671
34.666
34.661
34.655
34.647
34.638
34.626
34.613
34.597
34.581
34.563
34.544
34.526
34.509
34.493
34.48
34.47
34.462
34.457
34.452
34.448
34.444
34.441
34.438
34.435
34.432
34.43
34.429
34.428
34.428
34.431
34.436
34.447
34.465
34.491
34.526
34.57
34.624
34.69
34.768
34.859
34.962
35.077
35.202
35.336
35.474
35.615
35.756
35.895
36.029
36.158
36.28
36.392
36.494
36.583
36.661
36.725
36.778
36.819
36.85
36.872
36.886
36.891
36.888
36.878
36.863
36.842
36.818
36.79
36.76
36.728
36.695
36.66
36.624
36.587
36.549
36.512
36.474
36.437
36.399
36.361
36.321
36.281
36.239
36.197
36.154
36.11
36.066
36.021
35.975
35.927
35.879
35.829
35.779
35.728
35.678
35.63
35.585
35.544
35.507
35.474
35.446
35.423
35.406
35.394
35.388
35.388
35.393
35.403
35.417
35.433
35.451
35.469
35.488
35.508
35.528
35.549
35.57
35.59
35.61
35.628
35.646
35.664
35.68
35.696
35.71
35.724
35.735
35.744
35.75
35.753
35.754
35.753
35.751
35.747
35.741
35.733
35.722
35.708
35.691
35.673
35.654
35.633
35.613
35.591
35.569
35.546
35.522
35.498
35.473
35.449
35.426
35.403
35.38
35.356
35.331
35.303
35.274
35.243
35.211
35.178
35.146
35.113
35.081
35.049
35.019
34.991
34.964
34.94
34.918
34.899
34.88
34.861
34.842
34.824
34.805
34.787
34.768
34.749
34.73
34.71
34.69
34.671
34.652
34.634
34.618
34.603
34.59
34.579
34.57
34.563
34.558
34.556
34.555
34.555
34.555
34.556
34.556
34.556
34.554
34.551
34.547
34.542
34.536
34.528
34.52
34.512
34.503
34.493
34.483
34.474
34.466
34.459
34.453
34.448
34.445
34.443
34.443
34.443
34.445
34.447
34.45
34.452
34.452
34.45
34.445
34.438
34.429
34.418
34.406
34.392
34.379
34.364
34.35
34.336
34.322
34.31
34.298
34.288
34.281
34.275
34.272
34.272
34.273
34.278
34.286
34.298
34.314
34.335
34.36
34.39
34.426
34.469
34.522
34.587
34.663
34.752
34.853
34.964
35.085
35.215
35.353
35.497
35.647
35.799
35.951
36.101
36.245
36.381
36.509
36.625
36.731
36.824
36.906
36.975
37.033
37.079
37.115
37.142
37.158
37.167
37.168
37.161
37.148
37.129
37.105
37.074
37.04
37.002
36.961
36.919
36.877
36.833
36.79
36.748
36.705
36.664
36.624
36.587
36.551
36.518
36.486
36.455
36.423
36.391
36.357
36.321
36.283
36.244
36.205
36.164
36.123
36.08
36.036
35.99
35.944
35.899
35.856
35.816
35.779
35.746
35.718
35.695
35.677
35.666
35.66
35.66
35.665
35.674
35.685
35.699
35.714
35.73
35.748
35.767
35.786
35.806
35.827
35.847
35.866
35.885
35.903
35.919
35.935
35.949
35.963
35.975
35.987
35.997
36.005
36.009
36.009
36.004
35.995
35.983
35.969
35.952
35.934
35.914
35.893
