Trial 1:0back
33.313
33.267
33.221
33.177
33.134
33.093
33.052
33.011
32.969
32.93
32.899
32.877
32.862
32.853
32.848
32.843
32.836
32.823
32.803
32.774
32.735
32.688
32.634
32.575
32.512
32.448
32.385
32.325
32.27
32.223
32.187
32.164
32.154
32.157
32.176
32.212
32.267
32.339
32.432
32.546
32.681
32.839
33.017
33.216
33.433
33.671
33.932
34.219
34.534
34.877
35.246
35.636
36.038
36.445
36.848
37.236
37.603
37.939
38.237
38.492
38.701
38.863
38.978
39.049
39.078
39.069
39.028
38.96
38.871
38.768
38.656
38.539
38.418
38.296
38.175
38.058
37.945
37.838
37.736
37.639
37.546
37.456
37.37
37.286
37.204
37.122
37.039
36.955
36.868
36.78
36.69
36.599
36.506
36.412
36.318
36.225
36.134
36.046
35.962
35.882
35.807
35.737
35.673
35.615
35.563
35.516
35.474
35.437
35.405
35.376
35.351
35.329
35.31
35.293
35.279
35.267
35.257
35.249
35.243
35.239
35.235
35.233
35.23
35.228
35.225
35.221
35.215
35.207
35.196
35.181
35.16
35.135
35.104
35.069
35.031
34.989
34.945
34.9
34.856
34.813
34.771
34.73
34.69
34.649
34.606
34.562
34.516
34.469
34.42
34.371
34.32
34.269
34.217
34.165
34.112
34.058
34.006
33.955
33.905
33.857
33.81
33.763
33.717
33.671
33.625
33.581
33.536
33.492
33.448
33.403
33.359
33.316
33.273
33.232
33.192
33.155
33.121
33.089
33.058
33.027
32.996
32.966
32.936
32.907
32.878
32.848
32.817
32.784
32.748
32.711
32.673
32.639
32.61
32.588
32.572
32.563
32.558
32.558
32.564
32.575
32.594
32.622
32.659
32.707
32.766
32.839
32.927
33.031
33.153
33.294
33.455
33.635
33.835
34.056
34.3
34.571
34.868
35.192
35.541
35.91
36.292
36.679
37.062
37.429
37.773
38.085
38.359
38.589
38.775
38.916
39.013
39.069
39.087
39.07
39.023
38.951
38.858
38.749
38.629
38.502
38.371
38.24
38.111
37.987
37.869
37.758
37.652
37.551
37.455
37.363
37.277
37.197
37.121
37.047
36.972
36.896
36.818
36.736
36.651
36.562
36.468
36.37
36.269
36.168
36.068
35.971
35.876
35.787
35.702
35.625
35.556
35.495
35.442
35.395
35.355
35.321
35.292
35.269
35.249
35.231
35.214
35.197
35.182
35.168
35.154
35.141
35.128
35.116
35.105
35.096
35.089
35.084
35.081
35.079
35.077
35.075
35.072
35.068
35.062
35.052
35.038
35.019
34.998
34.972
34.941
34.907
34.868
34.825
34.78
34.732
34.683
34.633
34.582
34.53
34.478
34.426
34.377
34.33
34.285
34.241
34.198
34.156
34.113
34.067
34.019
33.969
33.916
33.862
33.807
33.751
33.694
33.637
33.578
33.521
33.466
33.413
33.363
33.316
33.272
33.23
33.191
33.155
33.122
33.09
33.06
33.031
33.002
32.971
32.939
32.905
32.869
32.833
32.796
32.759
32.721
32.682
32.642
32.601
32.561
32.523
32.488
32.456
32.428
32.407
32.394
32.39
32.397
32.417
32.452
32.504
32.573
32.661
32.779
32.93
33.115
33.329
33.57
33.84
34.139
34.47
34.832
35.227
35.65
36.097
36.56
37.031
37.503
37.965
38.409
38.826
39.208
39.547
39.841
40.085
40.277
40.418
40.509
40.551
40.549
40.509
40.437
40.338
40.22
40.088
39.946
39.798
39.646
39.494
39.343
39.196
39.052
38.914
38.783
38.658
38.541
38.43
38.326
38.227
38.131
38.036
37.942
37.847
37.751
37.653
37.553
37.45
37.344
37.235
37.124
37.012
36.9
36.788
36.678
36.571
36.468
36.369
36.274
36.184
36.097
36.014
35.935
35.861
35.793
35.729
35.67
35.618
35.571
35.531
35.497
35.47
35.449
35.435
35.425
35.418
35.412
35.407
35.4
35.391
35.38
35.366
35.35
35.33
35.307
35.28
35.25
35.217
35.181
35.143
35.101
35.057
35.011
34.964
34.915
34.865
34.813
34.76
34.706
34.652
34.598
34.546
34.495
34.446
34.396
34.346
34.296
34.247
34.196
34.145
34.091
34.037
33.982
33.924
33.86
33.788
33.707
33.62
33.53
33.439
33.352
33.27
33.196
33.13
33.074
33.027
32.99
32.961
32.938
32.921
32.907
32.896
32.883
32.868
32.85
32.827
32.799
32.768
32.732
32.692
32.649
32.603
32.554
32.505
32.456
32.409
32.364
32.322
32.281
32.243
32.207
32.173
32.143
32.117
32.098
32.086
32.083
32.089
32.105
32.133
32.175
32.232
32.306
32.4
32.513
32.648
32.807
32.994
33.215
33.477
33.786
34.145
34.554
35.01
35.506
36.032
36.573
37.116
37.646
38.149
38.614
39.03
39.393
39.697
39.942
40.126
40.253
40.325
40.348
40.325
40.265
40.172
40.053
39.917
39.767
39.61
39.45
39.292
39.139
38.992
38.853
38.721
38.595
38.475
38.359
38.246
38.135
38.026
37.917
37.809
37.7
37.591
37.481
37.371
37.26
37.147
37.032
36.917
36.803
36.691
36.58
36.472
36.367
36.265
36.167
36.073
35.984
35.902
35.825
35.754
35.688
35.627
35.571
35.52
35.472
35.427
35.383
35.336
35.287
35.237
35.189
35.144
35.104
35.069
35.039
35.015
34.996
34.983
34.974
34.966
34.96
34.955
34.95
34.944
34.936
34.925
34.911
34.893
34.87
34.844
34.813
34.777
34.739
34.696
34.65
34.602
34.55
34.495
34.438
34.378
34.316
34.253
34.189
34.124
34.06
33.996
33.934
33.873
33.813
33.755
33.699
33.645
33.593
33.542
33.493
33.445
33.397
33.348
33.299
33.248
33.196
33.143
33.087
33.03
32.972
32.914
32.857
32.796
32.725
32.645
32.557
32.466
32.376
32.291
32.215
32.15
32.096
32.056
32.028
32.013
32.008
32.01
32.018
32.028
32.039
32.048
32.054
32.055
32.052
32.044
32.031
32.012
31.99
31.966
31.941
31.918
31.899
31.887
31.885
31.894
31.916
31.953
32.006
32.079
32.17
32.283
32.416
32.572
32.753
32.963
33.208
33.494
33.825
34.203
34.624
35.082
35.568
36.072
36.58
37.08
37.559
38.005
38.409
38.765
39.068
39.314
39.504
39.638
39.718
39.749
39.735
39.691
39.625
39.541
39.445
39.338
39.223
39.101
38.973
38.839
38.701
38.559
38.415
38.268
38.12
37.972
37.827
37.686
37.55
37.42
37.295
37.176
37.06
36.947
36.837
36.728
36.622
36.52
36.42
36.323
36.228
36.135
36.043
35.952
35.863
35.775
35.689
35.606
35.526
35.45
35.379
35.312
35.248
35.189
35.133
35.081
35.035
34.994
34.958
34.928
34.902
34.881
34.863
34.848
34.836
34.825
34.813
34.801
34.788
34.774
34.758
34.74
34.719
34.695
34.669
34.641
34.61
34.577
34.543
34.508
34.471
34.434
34.397
34.359
34.321
34.283
34.244
34.204
34.166
34.129
34.093
34.056
34.017
33.977
33.934
33.89
33.844
33.794
33.742
33.688
33.632
33.575
33.518
33.46
33.401
33.342
33.283
33.226
33.171
33.117
33.065
33.013
32.963
32.915
32.868
32.823
32.779
32.734
32.69
32.647
32.603
32.56
32.517
32.474
32.431
32.389
32.348
32.31
32.273
32.238
32.205
32.175
32.147
32.122
32.099
32.076
32.054
32.03
32.005
31.977
31.945
31.908
31.868
31.826
31.783
31.74
31.699
31.661
31.627
31.598
31.576
31.563
31.56
31.569
31.591
31.631
31.687
31.761
31.851
31.96
32.086
32.232
32.396
32.58
32.785
33.013
33.269
33.555
33.878
34.236
34.63
35.054
35.499
35.956
36.412
36.857
37.278
37.666
38.011
38.309
38.556
38.749
38.889
38.979
39.02
39.019
38.979
38.905
38.802
38.678
38.538
38.389
38.235
38.081
37.932
37.789
37.654
37.528
37.41
37.3
37.196
37.096
36.999
36.904
36.813
36.724
36.636
36.548
36.46
36.37
36.278
36.185
36.091
35.997
35.904
35.813
35.722
35.634
35.548
35.464
35.384
35.307
35.234
35.165
35.101
35.042
34.986
34.935
34.886
34.842
34.801
34.764
34.732
34.704
34.68
34.658
34.637
34.619
34.603
34.589
34.577
34.567
34.559
34.553
34.547
34.542
34.538
34.532
34.526
34.519
34.51
34.499
34.486
34.471
34.452
34.429
34.403
34.375
34.344
34.309
34.269
34.224
34.175
34.123
34.069
34.013
33.957
33.902
33.847
33.794
33.743
33.696
33.651
33.61
33.57
33.532
33.495
33.458
33.421
33.382
33.343
33.303
33.264
33.223
33.182
33.139
33.096
33.051
33.006
32.96
32.914
32.867
32.82
32.773
32.728
32.683
32.639
32.596
32.553
32.512
32.471
32.431
32.391
32.351
32.312
32.272
32.234
32.196
32.16
32.125
32.091
32.06
32.031
32.004
31.981
31.96
31.942
31.927
31.914
31.903
31.893
31.885
31.876
31.867
31.86
31.854
31.852
31.857
31.869
31.894
31.93
31.981
32.048
32.132
32.235
32.358
32.499
32.659
32.836
33.028
33.233
33.447
33.669
33.898
34.133
34.372
34.617
34.867
35.122
35.381
35.64
35.896
36.146
36.383
36.603
36.802
36.976
37.124
37.244
37.335
37.395
37.427
37.43
37.407
37.361
37.295
37.213
37.12
37.022
36.919
36.816
36.713
36.613
36.515
36.421
36.331
36.246
36.166
36.089
36.016
35.946
35.877
35.811
35.744
35.678
35.611
35.544
35.477
35.409
35.341
35.273
35.205
35.137
35.069
34.999
34.93
34.861
34.793
34.728
34.666
34.608
34.556
34.511
34.472
34.44
34.417
34.403
34.397
34.398
34.402
34.41
34.418
34.425
34.431
34.436
34.439
34.441
34.442
34.44
34.436
34.43
34.422
34.412
34.399
34.386
34.371
34.356
34.339
34.321
34.302
34.283
34.262
34.242
34.221
34.2
34.179
34.156
34.131
34.103
34.073
34.039
34.003
33.965
33.924
33.882
33.839
33.795
33.75
33.704
33.659
33.616
33.574
33.535
33.5
33.467
33.437
33.407
33.376
33.346
33.314
33.282
33.249
33.214
33.179
33.142
33.104
33.065
33.025
32.985
32.945
32.905
32.866
32.828
32.792
32.757
32.722
32.688
32.655
32.623
32.592
32.562
32.532
32.504
32.477
32.451
32.426
32.402
32.378
32.353
32.328
32.303
32.28
32.26
32.244
32.233
32.231
32.239
32.26
32.297
32.352
32.426
32.52
32.635
32.77
32.925
33.097
33.286
33.487
33.7
33.919
34.145
34.374
34.606
34.837
35.067
35.296
35.527
35.758
35.99
36.221
36.448
36.671
36.884
37.083
37.265
37.426
37.562
37.671
37.752
37.803
37.828
37.826
37.799
37.749
37.68
37.594
37.497
37.391
37.279
37.163
37.048
36.934
36.824
36.72
36.623
36.535
36.453
36.378
36.307
36.24
36.175
36.11
36.045
35.977
35.908
35.838
35.767
35.696
35.624
35.553
35.482
35.412
35.342
35.274
35.208
35.147
35.089
35.035
34.983
34.936
34.893
34.854
34.82
34.79
34.766
34.748
34.735
34.727
34.723
34.723
34.724
34.726
34.728
34.731
34.733
34.735
34.734
34.731
34.724
34.715
34.704
34.689
34.672
34.654
34.635
34.614
34.593
34.571
34.547
34.52
34.492
34.463
34.435
34.408
34.383
34.357
34.332
34.305
34.277
34.247
34.215
34.18
34.143
34.102
34.057
34.009
33.958
33.905
33.851
33.796
33.741
33.689
33.64
33.593
33.549
33.505
33.463
33.423
33.385
33.349
33.315
33.283
33.252
33.221
33.19
33.16
33.129
33.098
33.065
33.031
32.994
32.956
32.916
32.875
32.833
32.79
32.747
32.706
32.667
32.63
32.597
32.568
32.543
32.52
32.501
32.484
32.469
32.458
32.452
32.452
32.462
32.482
32.514
32.558
32.615
32.688
32.778
32.884
33.006
33.145
33.3
33.471
33.657
33.858
34.073
34.301
34.541
34.793
35.057
35.335
35.624
35.923
36.229
36.535
36.836
37.127
37.401
37.651
37.872
38.061
38.214
38.33
38.409
38.453
38.464
38.445
38.398
38.328
38.239
38.135
38.021
37.9
37.775
37.65
37.525
37.405
37.289
37.18
37.078
36.983
36.896
36.812
36.733
36.655
36.579
36.504
36.429
36.353
36.276
36.199
36.122
36.043
35.965
35.886
35.807
35.729
35.653
35.579
35.508
35.441
35.378
35.319
35.264
35.215
35.171
35.133
35.101
35.074
35.052
35.034
35.02
35.007
34.994
34.981
34.967
34.954
34.94
34.927
34.914
34.903
34.891
34.88
34.87
34.859
34.85
34.841
34.832
34.824
34.817
34.808
34.796
34.782
34.766
34.746
34.724
34.699
34.673
34.647
34.618
34.588
34.555
34.519
34.48
34.441
34.4
34.358
34.316
34.273
34.228
34.183
34.138
34.095
34.054
34.014
33.976
33.94
33.903
33.867
33.83
33.791
33.75
33.707
33.665
33.623
33.582
33.542
33.502
33.461
33.418
33.374
33.329
33.285
33.24
33.196
33.152
33.108
33.065
33.022
32.978
32.936
32.895
32.857
32.822
32.79
32.76
32.731
32.703
32.677
32.654
32.633
32.615
32.602
32.592
32.589
32.595
32.611
32.64
32.683
32.743
32.821
32.919
33.036
33.171
33.323
33.491
33.673
33.867
34.072
34.287
34.509
34.737
34.97
35.208
35.451
35.699
35.951
36.206
36.461
36.712
36.958
37.192
37.412
37.612
37.789
37.938
38.058
38.145
38.202
38.228
38.226
38.198
38.147
38.077
37.991
37.892
37.786
37.673
37.557
37.44
37.324
37.211
37.101
36.996
36.895
36.799
36.706
36.618
36.534
36.453
36.376
36.301
36.226
36.152
36.078
36.005
35.931
35.858
35.786
35.716
35.649
35.583
35.52
35.459
35.401
35.345
35.292
35.242
35.195
35.153
35.114
35.079
35.047
35.021
34.998
34.979
34.962
34.946
34.933
34.923
34.915
34.912
34.913
34.919
34.928
34.938
34.949
34.958
34.965
34.968
34.968
34.963
34.955
34.943
34.927
34.907
34.882
34.853
34.822
34.787
34.75
34.711
34.67
34.628
34.584
34.539
34.493
34.448
34.404
34.362
34.322
34.285
34.25
34.217
34.185
34.153
34.121
34.089
34.057
34.024
33.991
33.957
33.921
33.883
33.842
33.798
33.754
33.709
33.663
33.617
33.569
33.522
33.475
33.427
33.38
33.333
33.289
33.247
33.208
33.172
33.139
33.108
33.079
33.052
33.027
33.002
32.98
32.959
32.937
32.916
32.895
32.873
32.851
32.83
32.812
32.801
32.798
32.804
32.823
32.854
32.901
32.964
33.046
33.146
33.267
33.407
33.565
33.74
33.928
34.13
34.342
34.562
34.788
35.019
35.254
35.493
35.734
35.976
36.218
36.458
36.693
36.921
37.138
37.34
37.525
37.69
37.833
37.95
38.04
38.102
38.136
38.14
38.118
38.072
38.007
37.924
37.828
37.721
37.609
37.493
37.378
37.265
37.155
37.049
36.949
36.853
36.763
36.678
36.595
36.512
36.424
36.329
36.23
36.129
36.029
35.931
35.838
35.752
35.673
35.603
35.541
35.487
35.44
35.398
35.36
35.326
35.294
35.266
35.239
35.213
35.188
35.163
35.139
35.116
35.094
35.072
35.051
35.031
35.012
34.994
34.977
34.962
34.949
34.938
34.93
34.923
34.92
34.918
34.917
34.917
34.916
34.914
34.911
34.908
34.902
34.893
34.882
34.867
34.848
34.825
34.799
34.769
34.736
34.701
34.663
34.623
34.582
34.54
34.497
34.453
34.409
34.366
34.323
34.28
34.238
34.197
34.156
34.116
34.075
34.033
33.99
33.946
33.901
33.856
33.812
33.769
33.727
33.687
33.647
33.608
33.57
33.534
33.497
33.462
33.428
33.396
33.365
33.335
33.306
33.278
33.252
33.227
33.202
33.178
33.155
33.131
33.106
33.079
33.05
33.019
32.988
32.959
32.933
32.911
32.898
32.893
32.9
32.921
32.958
33.015
33.092
33.19
33.31
33.45
33.608
33.782
33.969
34.166
34.372
34.583
34.797
35.011
35.224
35.435
35.641
35.839
36.029
36.211
36.384
36.551
36.711
36.864
37.01
37.149
37.279
37.396
37.499
37.582
37.645
37.687
37.709
37.71
37.693
37.66
37.613
37.553
37.484
37.406
37.324
37.237
37.149
37.062
36.977
36.895
36.816
36.739
36.665
36.591
36.518
36.445
36.373
36.301
36.23
36.16
36.089
36.018
35.947
35.875
35.803
35.73
35.656
35.583
35.512
35.445
35.382
35.324
35.27
35.221
35.176
35.136
35.101
35.072
35.049
35.032
35.019
35.01
35.005
35.002
35.001
35.002
35.003
35.006
35.01
35.016
35.023
35.03
35.036
35.04
35.04
35.038
35.033
35.027
35.016
35.001
34.981
34.958
34.932
34.905
34.876
34.846
34.814
34.78
34.745
34.709
34.671
34.632
34.592
34.55
34.508
34.467
34.428
34.39
34.354
34.318
34.284
34.252
34.221
34.19
34.159
34.127
34.094
34.06
34.025
33.988
33.949
33.908
33.863
33.817
33.769
33.721
33.674
33.627
33.581
33.536
33.494
33.454
33.418
33.384
33.353
33.324
33.297
33.272
33.247
33.221
33.194
33.165
33.135
33.103
33.07
33.039
33.01
32.985
32.967
32.959
32.964
32.985
33.023
33.079
33.155
33.251
33.369
33.505
33.659
33.829
34.011
34.205
34.406
34.615
34.828
35.045
35.262
35.477
35.69
35.9
36.106
36.307
36.504
36.695
36.88
37.059
37.229
37.388
37.534
37.664
37.776
37.869
37.94
37.989
38.016
38.021
38.006
37.972
37.921
37.855
37.777
37.688
37.59
37.488
37.382
37.276
37.17
37.067
36.967
36.871
36.778
36.689
36.603
36.519
36.438
36.358
36.281
36.206
36.134
36.064
35.996
35.928
35.86
35.791
35.723
35.656
35.591
35.529
35.471
35.418
35.37
35.327
35.289
35.256
35.228
35.205
35.188
35.178
35.176
35.179
35.187
35.197
35.208
35.218
35.226
35.231
35.232
35.23
35.226
35.219
35.209
35.197
35.183
35.167
35.148
35.127
35.106
35.084
35.062
35.041
35.019
34.997
34.974
34.95
34.924
34.896
34.864
34.831
34.795
34.756
34.716
34.676
34.635
34.593
34.552
34.512
34.473
34.437
34.402
34.368
34.335
34.301
34.266
34.23
34.192
34.152
34.112
34.071
34.03
33.989
33.948
33.906
33.864
33.821
33.779
33.738
33.696
33.653
33.611
33.57
33.53
33.49
33.45
33.407
33.363
33.317
33.272
33.228
33.186
33.146
33.11
33.079
33.053
33.034
33.023
33.022
33.031
33.052
33.086
33.135
33.199
33.279
33.375
33.486
33.613
33.757
33.915
34.086
34.269
34.462
34.663
34.871
35.083
35.296
35.509
35.719
35.924
36.124
36.319
36.507
36.689
36.864
37.032
37.192
37.345
37.489
37.622
37.744
37.851
37.942
38.016
38.07
38.104
38.12
38.118
38.098
38.06
38.005
37.937
37.856
37.766
37.668
37.563
37.452
37.338
37.223
37.108
36.996
36.887
36.781
36.678
36.578
36.482
36.389
36.299
36.214
36.131
36.053
35.979
35.909
35.843
35.781
35.724
35.67
35.62
35.575
35.534
35.497
35.465
35.436
35.41
35.387
35.367
35.349
35.335
35.322
35.313
35.307
35.304
35.304
35.304
35.304
35.302
35.299
35.294
35.288
35.281
35.274
35.267
35.258
35.249
35.237
35.224
35.209
35.193
35.177
35.16
35.143
35.127
35.11
35.091
35.07
35.045
35.017
34.985
34.951
34.915
34.876
34.836
34.794
34.75
34.705
34.659
34.613
34.567
34.521
34.478
34.435
34.393
34.349
34.303
34.257
34.21
34.162
34.115
34.071
34.03
33.994
33.961
33.93
33.902
33.876
33.851
33.827
33.804
33.781
33.755
33.728
33.697
33.663
33.627
33.59
33.554
33.519
33.487
33.458
33.431
33.406
33.381
33.358
33.337
33.318
33.303
33.293
33.289
33.292
33.303
33.326
33.363
33.415
33.485
33.572
33.678
33.802
33.942
34.097
34.265
34.442
34.625
34.813
35.001
35.19
35.376
35.559
35.737
35.908
36.069
36.22
36.359
36.487
36.603
36.705
36.793
36.867
36.926
36.972
37.005
37.027
37.041
37.048
37.049
37.046
37.039
37.031
37.02
37.007
36.993
36.978
36.963
36.947
36.931
36.911
36.889
36.864
36.835
36.803
36.767
36.728
36.684
36.634
36.579
36.519
36.455
36.387
36.317
36.244
36.169
36.094
36.02
35.948
35.878
35.812
35.75
35.692
35.639
35.59
35.545
35.507
35.473
35.445
35.421
35.403
35.389
35.38
35.375
35.372
35.373
35.375
35.38
35.386
35.392
35.399
35.406
35.412
35.418
35.422
35.426
35.428
35.427
35.425
35.42
35.411
35.4
35.385
35.365
35.342
35.316
35.288
35.258
35.227
35.194
35.16
35.126
35.09
35.054
35.017
34.98
34.941
34.902
34.862
34.822
34.782
34.743
34.705
34.667
34.631
34.597
34.563
34.528
34.493
34.457
34.42
34.383
34.344
34.305
34.266
34.224
34.181
34.136
34.09
34.044
33.999
33.955
33.913
33.873
33.836
33.8
33.765
33.73
33.697
33.667
33.64
33.614
33.591
33.57
33.549
33.528
33.509
33.491
33.478
33.472
33.476
33.492
33.521
33.565
33.626
33.703
33.796
33.905
34.031
34.169
34.31
34.454
34.599
34.747
34.899
35.056
35.219
35.39
35.569
35.753
35.943
36.134
36.325
36.512
36.69
36.856
37.007
37.142
37.259
37.36
37.443
37.512
37.566
37.608
37.636
37.653
37.659
37.656
37.643
37.624
37.599
37.569
37.537
37.503
37.468
37.431
37.394
37.356
37.316
37.272
37.223
37.171
37.115
37.055
36.992
36.926
36.857
36.785
