Trial 1:0back
33.558
33.792
34.071
34.394
34.758
35.159
35.588
36.038
36.497
36.957
37.408
37.841
38.245
38.615
38.944
39.227
39.464
39.654
39.797
39.896
39.952
39.971
39.956
39.913
39.846
39.759
39.657
39.544
39.422
39.294
39.162
39.029
38.897
38.766
38.64
38.519
38.404
38.294
38.191
38.094
38.004
37.92
37.842
37.767
37.695
37.626
37.557
37.49
37.423
37.355
37.284
37.212
37.138
37.061
36.981
36.896
36.806
36.713
36.617
36.517
36.414
36.305
36.191
36.074
35.954
35.834
35.717
35.605
35.5
35.403
35.317
35.242
35.18
35.132
35.096
35.073
35.062
35.064
35.076
35.097
35.127
35.163
35.201
35.24
35.276
35.31
35.339
35.362
35.378
35.386
35.386
35.378
35.363
35.342
35.314
35.28
35.241
35.198
35.152
35.104
35.054
35.002
34.949
34.894
34.839
34.783
34.726
34.667
34.604
34.538
34.469
34.397
34.321
34.242
34.162
34.081
34.0
33.92
33.841
33.766
33.693
33.625
33.561
33.501
33.446
33.397
33.354
33.316
33.283
33.254
33.228
33.206
33.186
33.169
33.155
33.142
33.131
33.12
33.108
33.095
33.08
33.065
33.049
33.032
33.014
32.995
32.976
32.958
32.94
32.926
32.915
32.908
32.903
32.902
32.902
32.906
32.913
32.923
32.935
32.95
32.964
32.978
32.992
33.004
33.012
33.016
33.015
33.01
33.002
32.991
32.978
32.963
32.946
32.927
32.906
32.883
32.859
32.836
32.814
32.795
32.78
32.768
32.761
32.76
32.768
32.786
32.816
32.861
32.925
33.011
33.125
33.27
33.451
33.671
33.933
34.236
34.579
34.959
35.369
35.802
36.249
36.701
37.149
37.583
37.994
38.374
38.715
39.015
39.268
39.474
39.633
39.745
39.813
39.839
39.828
39.785
39.715
39.623
39.514
39.393
39.266
39.137
39.007
38.879
38.755
38.635
38.52
38.411
38.306
38.207
38.11
38.016
37.926
37.838
37.752
37.668
37.586
37.505
37.425
37.346
37.269
37.192
37.115
37.036
36.955
36.871
36.784
36.693
36.597
36.498
36.395
36.288
36.178
36.064
35.946
35.828
35.709
35.591
35.474
35.359
35.249
35.145
35.05
34.965
34.892
34.831
34.783
34.749
34.728
34.72
34.722
34.736
34.759
34.791
34.83
34.875
34.922
34.972
35.021
35.07
35.118
35.162
35.2
35.231
35.254
35.267
35.271
35.265
35.249
35.223
35.189
35.145
35.093
35.033
34.968
34.897
34.822
34.745
34.666
34.586
34.507
34.429
34.353
34.279
34.207
34.136
34.068
34.0
33.935
33.87
33.805
33.741
33.678
33.615
33.554
33.495
33.438
33.385
33.336
33.29
33.248
33.209
33.174
33.144
33.117
33.095
33.076
33.06
33.048
33.038
33.032
33.03
33.031
33.035
33.041
33.049
33.057
33.065
33.072
33.077
33.078
33.076
33.07
33.061
33.048
33.033
33.014
32.995
32.974
32.953
32.933
32.915
32.899
32.886
32.875
32.865
32.858
32.854
32.851
32.85
32.85
32.849
32.847
32.846
32.845
32.847
32.851
32.859
32.874
32.902
32.945
33.009
33.095
33.211
33.361
33.548
33.774
34.042
34.352
34.702
35.087
35.503
35.94
36.39
36.843
37.289
37.719
38.123
38.492
38.818
39.097
39.324
39.499
39.621
39.692
39.715
39.693
39.632
39.537
39.414
39.268
39.106
38.933
38.754
38.573
38.394
38.22
38.054
37.896
37.75
37.615
37.49
37.375
37.268
37.17
37.079
36.994
36.915
36.84
36.767
36.697
36.626
36.556
36.485
36.412
36.336
36.256
36.17
36.079
35.982
35.879
35.77
35.657
35.539
35.418
35.298
35.18
35.066
34.958
34.858
34.767
34.686
34.616
34.559
34.513
34.478
34.453
34.438
34.432
34.434
34.445
34.462
34.485
34.513
34.545
34.581
34.618
34.655
34.69
34.722
34.75
34.773
34.794
34.812
34.827
34.838
34.844
34.846
34.842
34.833
34.819
34.797
34.767
34.729
34.682
34.629
34.569
34.505
34.436
34.363
34.288
34.211
34.134
34.056
33.978
33.901
33.824
33.748
33.675
33.603
33.536
33.473
33.415
33.36
33.31
33.265
33.225
33.19
33.16
33.133
33.11
33.089
33.07
33.053
33.038
33.026
33.015
33.006
32.999
32.992
32.986
32.98
32.976
32.973
32.97
32.968
32.966
32.964
32.963
32.963
32.963
32.962
32.962
32.96
32.959
32.959
32.96
32.963
32.967
32.97
32.972
32.975
32.976
32.977
32.977
32.977
32.974
32.97
32.963
32.954
32.943
32.932
32.921
32.912
32.904
32.895
32.885
32.875
32.87
32.875
32.897
32.943
33.021
33.137
33.298
33.508
33.768
34.077
34.433
34.833
35.271
35.737
36.222
36.713
37.2
37.672
38.119
38.533
38.906
39.232
39.508
39.732
39.905
40.03
40.109
40.145
40.144
40.11
40.048
39.963
39.859
39.74
39.612
39.477
39.339
39.201
39.064
38.93
38.798
38.67
38.546
38.425
38.307
38.192
38.079
37.97
37.864
37.761
37.662
37.567
37.475
37.386
37.3
37.217
37.136
37.056
36.976
36.893
36.807
36.719
36.628
36.534
36.438
36.339
36.238
36.135
36.031
35.926
35.822
35.717
35.615
35.516
35.421
35.333
35.254
35.184
35.122
35.07
35.027
34.993
34.967
34.95
34.94
34.937
34.939
34.947
34.962
34.982
35.007
35.036
35.069
35.105
35.141
35.175
35.207
35.235
35.257
35.272
35.279
35.278
35.27
35.253
35.229
35.195
35.153
35.102
35.044
34.98
34.91
34.836
34.758
34.676
34.594
34.514
34.435
34.361
34.29
34.223
34.159
34.1
34.044
33.991
33.941
33.892
33.843
33.795
33.747
33.701
33.655
33.611
33.568
33.527
33.486
33.446
33.409
33.373
33.339
33.307
33.277
33.25
33.226
33.207
33.191
33.18
33.174
33.172
33.173
33.178
33.187
33.197
33.209
33.22
33.23
33.237
33.243
33.245
33.244
33.238
33.229
33.214
33.197
33.177
33.156
33.134
33.113
33.093
33.075
33.057
33.04
33.026
33.014
33.006
33.0
32.996
32.994
32.995
32.999
33.009
33.025
33.048
33.079
33.122
33.18
33.258
33.359
33.487
33.649
33.848
34.087
34.369
34.694
35.058
35.458
35.883
36.324
36.771
37.215
37.647
38.058
38.441
38.792
39.105
39.376
39.603
39.785
39.922
40.014
40.065
40.077
40.053
39.996
39.91
39.8
39.671
39.527
39.373
39.213
39.05
38.887
38.727
38.573
38.426
38.287
38.156
38.035
37.923
37.821
37.729
37.646
37.569
37.498
37.433
37.374
37.318
37.265
37.212
37.158
37.102
37.042
36.978
36.909
36.832
36.748
36.656
36.555
36.448
36.335
36.215
36.091
35.965
35.838
35.712
35.589
35.471
35.361
35.258
35.165
35.085
35.017
34.963
34.923
34.896
34.881
34.876
34.881
34.894
34.914
34.938
34.966
34.995
35.024
35.054
35.084
35.112
35.137
35.157
35.172
35.181
35.185
35.182
35.173
35.157
35.134
35.103
35.067
35.024
34.977
34.927
34.874
34.819
34.762
34.705
34.649
34.594
34.541
34.488
34.435
34.38
34.323
34.264
34.203
34.139
34.073
34.005
33.936
33.868
33.802
33.739
33.678
33.622
33.57
33.522
33.479
33.441
33.409
33.383
33.362
33.344
33.327
33.312
33.297
33.283
33.269
33.253
33.236
33.218
33.198
33.178
33.158
33.137
33.118
33.1
33.084
33.07
33.058
33.049
33.042
33.037
33.033
33.03
33.027
33.026
33.027
33.03
33.034
33.039
33.045
33.051
33.056
33.058
33.059
33.058
33.054
33.048
33.038
33.023
33.004
32.982
32.956
32.93
32.904
32.88
32.859
32.841
32.829
32.825
32.83
32.849
32.886
32.944
33.028
33.144
33.296
33.489
33.725
34.004
34.325
34.686
35.082
35.508
35.957
36.42
36.889
37.352
37.801
38.226
38.619
38.971
39.279
39.537
39.745
39.903
40.013
40.077
40.1
40.086
40.04
39.968
39.874
39.762
39.636
39.499
39.357
39.212
39.067
38.924
38.784
38.647
38.515
38.389
38.267
38.149
38.036
37.928
37.825
37.726
37.633
37.544
37.459
37.378
37.301
37.226
37.152
37.08
37.008
36.935
36.861
36.787
36.71
36.63
36.546
36.457
36.365
36.27
36.171
36.071
35.968
35.864
35.758
35.654
35.552
35.455
35.362
35.276
35.197
35.126
35.066
35.017
34.98
34.954
34.94
34.936
34.943
34.958
34.982
35.012
35.046
35.083
35.121
35.161
35.202
35.241
35.279
35.313
35.341
35.362
35.377
35.383
35.382
35.373
35.354
35.326
35.29
35.247
35.197
35.14
35.078
35.01
34.939
34.864
34.789
34.714
34.639
34.565
34.492
34.42
34.35
34.282
34.216
34.152
34.089
34.028
33.969
33.913
33.859
33.807
33.757
33.708
33.659
33.611
33.564
33.519
33.475
33.433
33.393
33.355
33.32
33.288
33.26
33.236
33.215
33.196
33.18
33.168
33.159
33.153
33.15
33.15
33.15
33.151
33.154
33.157
33.162
33.168
33.174
33.18
33.188
33.2
33.217
33.236
33.256
33.272
33.282
33.285
33.281
33.27
33.253
33.229
33.201
33.17
33.138
33.106
33.075
33.048
33.024
33.004
32.988
32.978
32.974
32.978
32.992
33.018
33.058
33.115
33.192
33.292
33.419
33.577
33.772
34.006
34.28
34.595
34.948
35.335
35.75
36.185
36.631
37.079
37.518
37.94
38.335
38.695
39.012
39.283
39.503
39.673
39.792
39.864
39.892
39.88
39.834
39.759
39.66
39.543
39.411
39.269
39.12
38.967
38.813
38.659
38.506
38.355
38.209
38.068
37.933
37.805
37.683
37.568
37.459
37.357
37.261
37.173
37.091
37.013
36.939
36.869
36.801
36.733
36.664
36.59
36.51
36.424
36.331
36.232
36.125
36.013
35.894
35.771
35.647
35.523
35.401
35.285
35.176
35.074
34.98
34.897
34.825
34.766
34.72
34.688
34.669
34.663
34.67
34.687
34.713
34.745
34.782
34.822
34.863
34.906
34.949
34.992
35.032
35.067
35.098
35.122
35.14
35.151
35.155
35.152
35.142
35.125
35.103
35.077
35.046
35.012
34.975
34.936
34.895
34.851
34.804
34.754
34.701
34.643
34.582
34.516
34.448
34.376
34.304
34.23
34.156
34.081
34.006
33.931
33.858
33.787
33.718
33.652
33.59
33.532
33.478
33.431
33.39
33.354
33.324
33.298
33.277
33.26
33.247
33.239
33.235
33.234
33.234
33.234
33.234
33.234
33.233
33.229
33.221
33.212
33.199
33.185
33.17
33.155
33.14
33.127
33.114
33.101
33.088
33.074
33.062
33.053
33.047
33.045
33.046
33.05
33.056
33.063
33.071
33.08
33.089
33.101
33.117
33.141
33.178
33.232
33.31
33.416
33.556
33.735
33.956
34.222
34.533
34.886
35.277
35.699
36.144
36.604
37.068
37.527
37.97
38.386
38.768
39.108
39.401
39.644
39.836
39.976
40.065
40.106
40.102
40.06
39.983
39.877
39.748
39.6
39.439
39.269
39.095
38.92
38.747
38.577
38.414
38.257
38.109
37.969
37.837
37.714
37.599
37.491
37.389
37.293
37.203
37.117
37.036
36.958
36.883
36.807
36.731
36.653
36.571
36.487
36.399
36.305
36.205
36.1
35.99
35.878
35.765
35.65
35.535
35.422
35.311
35.206
35.109
35.02
34.939
34.869
34.809
34.762
34.725
34.701
34.687
34.684
34.69
34.703
34.723
34.748
34.778
34.812
34.849
34.887
34.924
34.961
34.995
35.028
35.057
35.082
35.1
35.112
35.119
35.119
35.113
35.101
35.083
35.058
35.029
34.995
34.957
34.913
34.864
34.81
34.752
34.691
34.626
34.559
34.49
34.418
34.344
34.268
34.192
34.115
34.039
33.963
33.889
33.817
33.747
33.681
33.62
33.564
33.514
33.469
33.428
33.392
33.36
33.333
33.31
33.291
33.277
33.265
33.256
33.249
33.243
33.237
33.232
33.226
33.218
33.208
33.195
33.181
33.165
33.148
33.126
33.099
33.065
33.025
32.984
32.943
32.906
32.876
32.854
32.839
32.831
32.83
32.835
32.845
32.86
32.878
32.9
32.924
32.952
32.983
33.019
33.059
33.105
33.161
33.229
33.314
33.422
33.559
33.728
33.936
34.185
34.478
34.815
35.193
35.608
36.052
36.515
36.986
37.456
37.912
38.345
38.744
39.101
39.412
39.671
39.877
40.029
40.127
40.176
40.179
40.142
40.07
39.969
39.846
39.707
39.555
39.396
39.233
39.07
38.911
38.757
38.61
38.473
38.345
38.227
38.118
38.017
37.924
37.839
37.761
37.689
37.62
37.555
37.492
37.429
37.366
37.301
37.233
37.161
37.084
37.002
36.913
36.819
36.719
36.613
36.501
36.383
36.262
36.138
36.014
35.891
35.771
35.654
35.542
35.436
35.337
35.245
35.16
35.082
35.013
34.953
34.904
34.866
34.838
34.819
34.81
34.811
34.822
34.841
34.867
34.897
34.93
34.965
34.998
35.029
35.058
35.084
35.104
35.119
35.129
35.133
35.132
35.127
35.117
35.102
35.08
35.052
35.017
34.978
34.934
34.884
34.83
34.77
34.705
34.637
34.566
34.494
34.419
34.345
34.269
34.193
34.117
34.042
33.968
33.896
33.827
33.761
33.697
33.638
33.582
33.532
33.487
33.446
33.409
33.376
33.348
33.324
33.305
33.288
33.272
33.258
33.242
33.226
33.208
33.189
33.171
33.154
33.138
33.125
33.116
33.11
33.109
33.111
33.117
33.125
33.134
33.142
33.149
33.152
33.153
33.151
33.147
33.14
33.131
33.12
33.109
33.098
33.087
33.077
33.067
33.058
33.05
33.045
33.044
33.048
33.06
33.083
33.118
33.169
33.24
33.335
33.461
33.623
33.825
34.071
34.362
34.697
35.074
35.487
35.928
36.388
36.857
37.326
37.783
38.219
38.623
38.988
39.306
39.575
39.792
39.957
40.071
40.137
40.158
40.139
40.086
40.004
39.9
39.778
39.644
39.501
39.354
39.206
39.06
38.918
38.781
38.651
38.528
38.412
38.305
38.204
38.108
38.017
37.929
37.846
37.766
37.689
37.613
37.536
37.459
37.381
37.302
37.221
37.137
37.047
36.952
36.851
36.745
36.635
36.521
36.404
36.285
36.166
36.047
35.931
35.818
35.71
35.606
35.508
35.418
35.337
35.266
35.205
35.154
35.113
35.083
35.063
35.051
35.048
35.051
35.059
35.071
35.085
35.102
35.122
35.144
35.168
35.192
35.216
35.239
35.261
35.282
35.299
35.312
35.32
35.323
35.321
35.315
35.303
35.284
35.258
35.224
35.184
35.136
35.082
35.023
34.96
34.892
34.82
34.744
34.665
34.584
34.501
34.418
34.335
34.254
34.175
34.099
34.028
33.962
33.902
33.847
33.797
33.751
33.71
33.674
33.641
33.612
33.584
33.56
33.537
33.517
33.497
33.478
33.46
33.441
33.418
33.39
33.355
33.315
33.273
33.231
33.19
33.152
33.121
33.096
33.081
33.073
33.072
33.077
33.088
33.104
33.124
33.148
33.173
33.199
33.225
33.248
33.267
33.281
33.289
33.29
33.286
33.276
33.26
33.24
33.217
33.193
33.17
33.148
33.128
33.11
33.096
33.087
33.086
33.094
33.115
33.151
33.207
33.285
33.391
33.53
33.706
33.923
34.182
34.484
34.826
35.203
35.611
36.043
36.49
36.941
37.386
37.816
38.22
38.591
38.922
39.208
39.446
39.635
39.775
39.867
39.915
39.92
39.89
39.829
39.742
39.636
39.513
39.379
39.239
39.096
38.954
38.814
38.678
38.548
38.425
38.31
38.202
38.101
38.005
37.915
37.829
37.747
37.667
37.59
37.515
37.441
37.367
37.293
37.219
37.144
37.068
36.99
36.91
36.829
36.745
36.657
36.565
36.469
36.368
36.263
36.156
36.046
35.937
35.827
35.719
35.614
35.512
35.416
35.327
35.245
35.17
35.104
35.046
34.998
34.959
34.932
34.917
34.912
34.916
34.929
34.95
34.978
35.01
35.046
35.084
35.121
35.157
35.19
35.221
35.248
35.272
35.291
35.303
35.309
35.307
35.298
35.281
35.255
35.22
35.175
35.122
35.061
34.993
34.921
34.845
34.766
34.685
34.604
34.523
34.445
34.37
34.301
34.24
34.188
34.144
34.108
34.078
34.052
34.027
33.999
33.968
33.931
33.89
33.845
33.796
33.744
33.691
33.637
33.583
33.53
33.479
33.43
33.384
33.341
33.302
33.265
33.232
33.203
33.178
33.158
33.143
33.133
33.129
33.129
33.134
33.143
33.154
33.167
33.179
33.19
33.198
33.205
33.209
33.211
33.208
33.201
33.19
33.174
33.154
33.131
33.105
33.077
33.048
33.018
32.99
32.963
32.938
32.917
32.9
32.887
32.88
32.877
32.88
32.89
32.907
32.935
32.974
33.026
33.093
33.18
33.289
33.424
33.591
33.793
34.031
34.306
34.619
34.966
35.344
35.748
36.171
36.604
37.039
37.468
37.881
38.268
38.622
38.936
39.204
39.425
39.597
39.719
39.795
39.825
39.815
39.768
39.689
39.584
39.457
39.315
39.162
39.003
38.841
38.679
38.519
38.362
38.21
38.063
37.922
37.788
37.66
37.54
37.427
37.321
37.222
37.129
37.043
36.963
36.888
36.818
36.751
36.687
36.622
36.555
36.483
36.406
36.324
36.235
36.14
36.039
35.931
35.817
35.699
35.58
35.461
35.344
35.232
35.125
35.026
34.937
34.86
34.796
34.746
34.709
34.688
34.68
34.687
34.706
34.736
34.776
34.823
34.875
34.93
34.986
35.04
35.091
35.135
35.174
35.206
35.232
35.252
35.265
35.27
35.266
35.255
35.238
35.216
35.189
35.157
35.119
35.075
35.025
34.97
34.911
34.847
34.781
34.712
34.641
34.57
34.499
34.429
34.359
34.289
34.219
34.148
34.078
34.007
33.938
33.871
33.805
33.743
33.682
33.625
33.573
33.524
33.481
33.443
33.41
33.382
33.36
33.343
33.33
33.321
33.316
33.312
33.309
33.305
33.3
33.295
33.291
33.287
33.286
33.286
33.285
33.284
33.282
33.278
33.273
33.266
33.257
33.245
33.232
33.216
33.198
33.179
33.16
33.14
33.121
33.102
33.086
33.072
33.061
33.054
33.05
33.048
33.047
33.048
33.05
33.054
33.061
33.071
33.086
33.108
33.141
33.19
33.262
33.36
33.491
33.659
33.868
34.121
34.418
34.756
35.132
35.539
35.968
36.413
36.863
37.308
37.736
38.137
38.506
38.834
39.119
39.357
39.546
39.685
39.775
39.817
39.816
39.777
39.703
39.6
39.473
39.326
39.166
38.994
38.817
38.637
38.457
38.281
38.113
37.953
37.803
37.662
37.531
37.409
37.297
37.194
37.101
37.014
36.935
36.861
36.793
36.728
36.665
36.602
36.536
36.468
36.395
36.319
36.237
36.149
36.056
35.957
35.854
35.748
35.64
35.53
35.421
35.313
35.21
35.112
35.022
34.941
34.87
34.81
34.763
34.729
34.708
34.698
34.7
34.711
34.729
34.753
34.781
34.813
34.847
34.882
34.916
34.949
34.978
35.004
35.027
35.049
35.069
35.083
35.09
35.088
35.079
35.062
35.036
35.001
34.96
34.913
34.863
34.812
34.759
34.706
34.653
34.601
34.55
34.498
34.445
34.392
34.339
34.282
34.223
34.159
34.092
34.023
33.955
33.887
33.82
33.756
33.695
33.639
33.588
33.545
33.507
33.474
33.448
33.425
33.407
33.392
33.38
33.371
33.363
33.356
33.348
33.341
33.334
33.328
33.322
33.317
33.311
33.303
33.294
33.283
33.271
33.258
33.244
33.232
33.222
33.212
33.204
33.197
33.193
33.19
33.189
33.187
33.185
33.184
33.182
33.18
33.177
33.173
33.166
33.158
33.146
33.133
33.117
33.098
33.078
33.057
33.037
33.018
33.002
32.994
32.995
33.01
33.04
33.091
33.164
33.266
33.399
33.565
33.769
34.012
34.297
34.623
34.987
35.384
35.807
36.248
36.699
37.152
37.596
38.023
38.422
38.786
39.108
39.384
39.611
39.788
39.915
39.994
40.027
40.02
39.976
39.901
39.799
39.676
39.535
39.383
39.224
39.063
38.903
38.745
38.593
38.448
38.31
38.179
38.055
37.938
37.827
37.724
37.628
37.539
37.456
37.378
37.302
37.231
37.162
37.095
37.027
36.959
36.887
36.813
36.736
36.655
36.571
36.482
36.389
36.292
36.191
36.087
35.979
35.867
35.751
35.635
35.519
35.408
35.303
35.205
35.118
35.04
34.973
34.917
34.871
34.834
34.808
34.79
34.782
34.782
34.792
34.809
34.834
34.864
34.898
34.936
34.977
35.019
35.059
35.095
35.125
35.148
35.164
35.171
35.17
35.161
35.145
35.121
35.09
35.051
35.005
34.954
34.898
34.837
34.771
34.7
34.625
34.549
34.472
34.394
34.318
34.242
34.168
34.097
34.03
33.967
33.91
33.857
33.811
33.77
33.734
33.702
33.672
33.644
33.617
33.588
33.557
33.525
33.491
33.456
33.421
33.386
33.351
33.317
33.286
33.257
33.231
33.211
33.195
33.184
33.178
33.175
33.174
33.175
33.178
33.182
33.188
33.194
33.201
33.209
33.215
33.22
33.224
33.227
33.228
33.228
33.226
33.223
33.219
33.214
33.209
33.203
33.197
33.189
33.18
33.171
33.161
33.151
33.14
33.13
33.12
33.111
33.104
33.1
33.099
33.102
33.111
33.127
33.151
33.187
33.239
33.311
33.406
33.53
33.685
33.877
34.109
34.381
34.696
35.05
35.441
35.861
36.302
36.757
37.213
37.66
38.088
38.488
38.851
39.172
39.444
39.665
39.835
39.955
40.026
40.052
40.035
39.981
39.896
39.784
39.651
39.503
39.345
39.179
39.011
38.841
38.674
38.51
38.352
38.201
38.058
