Trial 1:0back
33.146
33.68
34.298
34.994
35.759
36.581
37.446
38.336
39.23
40.11
40.956
41.75
42.479
43.13
43.695
44.167
44.545
44.828
45.021
45.128
45.158
45.117
45.015
44.861
44.664
44.431
44.17
43.887
43.588
43.279
42.962
42.643
42.323
42.004
41.687
41.372
41.06
40.751
40.445
40.142
39.841
39.542
39.247
38.955
38.668
38.386
38.109
37.838
37.573
37.315
37.062
36.814
36.569
36.327
36.089
35.853
35.623
35.398
35.182
34.978
34.785
34.607
34.443
34.295
34.164
34.05
33.955
33.878
33.82
33.78
33.76
33.759
33.778
33.816
33.873
33.949
34.042
34.153
34.278
34.415
34.564
34.72
34.882
35.047
35.212
35.375
35.534
35.687
35.831
35.964
36.083
36.188
36.276
36.347
36.399
36.432
36.447
36.444
36.423
36.385
36.332
36.264
36.181
36.085
35.978
35.86
35.736
35.606
35.474
35.341
35.207
35.074
34.941
34.807
34.673
34.537
34.4
34.263
34.125
33.988
33.853
33.722
33.594
33.47
33.348
33.228
33.11
32.993
32.876
32.759
32.644
32.53
32.42
32.313
32.212
32.116
32.027
31.945
31.867
31.795
31.727
31.664
31.604
31.551
31.502
31.46
31.423
31.391
31.363
31.337
31.313
31.289
31.266
31.241
31.216
31.191
31.166
31.142
31.12
31.101
31.084
31.07
31.059
31.051
31.047
31.046
31.048
31.054
31.065
31.08
31.098
31.118
31.139
31.16
31.181
31.201
31.219
31.235
31.25
31.262
31.272
31.279
31.284
31.286
31.286
31.285
31.283
31.282
31.286
31.296
31.316
31.351
31.406
31.488
31.607
31.772
31.991
32.274
32.627
33.057
33.567
34.158
34.828
35.569
36.374
37.228
38.116
39.018
39.914
40.785
41.612
42.377
43.067
43.671
44.18
44.591
44.903
45.118
45.24
45.276
45.235
45.125
44.957
44.742
44.489
44.206
43.902
43.584
43.257
42.926
42.593
42.259
41.928
41.599
41.275
40.954
40.639
40.328
40.023
39.725
39.431
39.144
38.861
38.582
38.305
38.031
37.759
37.489
37.223
36.958
36.696
36.437
36.182
35.931
35.684
35.444
35.212
34.991
34.782
34.587
34.41
34.25
34.11
33.988
33.886
33.803
33.739
33.694
33.667
33.658
33.669
33.699
33.749
33.818
33.907
34.013
34.136
34.274
34.425
34.586
34.753
34.925
35.096
35.266
35.431
35.59
35.74
35.879
36.006
36.12
36.22
36.305
36.373
36.424
36.458
36.474
36.471
36.451
36.413
36.358
36.286
36.199
36.098
35.985
35.862
35.731
35.594
35.454
35.311
35.17
35.029
34.89
34.754
34.619
34.485
34.353
34.221
34.09
33.96
33.831
33.703
33.576
33.45
33.327
33.205
33.086
32.97
32.856
32.745
32.636
32.531
32.428
32.329
32.233
32.141
32.054
31.971
31.894
31.823
31.756
31.692
31.631
31.572
31.515
31.461
31.409
31.361
31.315
31.272
31.232
31.196
31.164
31.135
31.111
31.092
31.077
31.065
31.055
31.049
31.045
31.044
31.047
31.054
31.064
31.076
31.091
31.106
31.123
31.141
31.159
31.177
31.193
31.208
31.221
31.233
31.242
31.25
31.256
31.262
31.268
31.274
31.279
31.283
31.285
31.284
31.278
31.269
31.257
31.244
31.232
31.222
31.216
31.216
31.222
31.236
31.257
31.287
31.331
31.393
31.483
31.608
31.777
32.001
32.288
32.647
33.083
33.6
34.197
34.872
35.617
36.42
37.268
38.145
39.032
39.911
40.762
41.568
42.312
42.982
43.567
44.06
44.457
44.757
44.961
45.074
45.103
45.055
44.94
44.767
44.545
44.283
43.99
43.674
43.342
43.0
42.653
42.305
41.96
41.621
41.289
40.965
40.649
40.341
40.039
39.744
39.455
39.171
38.89
38.61
38.332
38.054
37.777
37.501
37.227
36.955
36.688
36.425
36.17
35.923
35.683
35.452
35.229
35.015
34.812
34.619
34.439
34.273
34.123
33.988
33.871
33.772
33.693
33.634
33.596
33.579
33.582
33.606
33.651
33.716
33.8
33.906
34.04
34.203
34.39
34.596
34.815
35.04
35.264
35.481
35.687
35.876
36.046
36.194
36.319
36.42
36.499
36.555
36.59
36.606
36.605
36.588
36.558
36.515
36.462
36.399
36.327
36.246
36.158
36.063
35.961
35.853
35.741
35.624
35.502
35.378
35.25
35.12
34.989
34.856
34.721
34.587
34.452
34.318
34.185
34.056
33.929
33.807
33.689
33.576
33.469
33.368
33.273
33.182
33.093
33.005
32.917
32.826
32.733
32.637
32.54
32.441
32.342
32.244
32.15
32.059
31.973
31.892
31.815
31.744
31.677
31.615
31.559
31.507
31.462
31.422
31.388
31.36
31.335
31.314
31.296
31.281
31.267
31.254
31.243
31.234
31.227
31.222
31.219
31.22
31.222
31.227
31.233
31.239
31.246
31.252
31.258
31.265
31.272
31.28
31.29
31.3
31.309
31.32
31.33
31.34
31.351
31.361
31.371
31.381
31.389
31.396
31.402
31.406
31.41
31.414
31.418
31.424
31.432
31.444
31.462
31.489
31.528
31.585
31.666
31.776
31.925
32.122
32.373
32.688
33.073
33.532
34.065
34.673
35.35
36.088
36.877
37.703
38.551
39.403
40.243
41.053
41.822
42.545
43.21
43.807
44.322
44.747
45.077
45.307
45.438
45.475
45.424
45.292
45.091
44.83
44.52
44.172
43.797
43.405
43.002
42.597
42.196
41.802
41.419
41.048
40.69
40.345
40.012
39.689
39.375
39.068
38.768
38.473
38.183
37.896
37.614
37.334
37.058
36.785
36.516
36.25
35.99
35.736
35.49
35.253
35.026
34.81
34.606
34.415
34.237
34.072
33.92
33.781
33.656
33.546
33.453
33.378
33.323
33.29
33.279
33.292
33.328
33.388
33.469
33.569
33.689
33.824
33.974
34.136
34.309
34.491
34.681
34.875
35.072
35.268
35.462
35.652
35.834
36.004
36.16
36.298
36.414
36.506
36.572
36.612
36.625
36.613
36.578
36.523
36.449
36.361
36.262
36.153
36.037
35.917
35.793
35.666
35.536
35.404
35.27
35.133
34.994
34.852
34.709
34.565
34.419
34.273
34.127
33.983
33.839
33.698
33.559
33.423
33.291
33.162
33.035
32.911
32.791
32.675
32.564
32.459
32.361
32.271
32.189
32.113
32.044
31.979
31.92
31.865
31.813
31.766
31.721
31.68
31.643
31.61
31.579
31.55
31.524
31.5
31.48
31.461
31.443
31.427
31.41
31.394
31.377
31.361
31.345
31.33
31.315
31.301
31.289
31.279
31.272
31.267
31.264
31.261
31.258
31.255
31.252
31.249
31.244
31.238
31.232
31.227
31.222
31.218
31.216
31.216
31.22
31.231
31.251
31.285
31.339
31.42
31.536
31.696
31.909
32.183
32.527
32.946
33.443
34.02
34.674
35.397
36.181
37.014
37.881
38.765
39.646
40.506
41.328
42.095
42.792
43.408
43.934
44.364
44.697
44.934
45.078
45.134
45.111
45.016
44.86
44.652
44.402
44.12
43.815
43.494
43.162
42.825
42.486
42.15
41.818
41.492
41.172
40.859
40.551
40.25
39.954
39.662
39.374
39.088
38.803
38.518
38.233
37.948
37.661
37.374
37.087
36.801
36.517
36.237
35.963
35.698
35.443
35.2
34.971
34.758
34.562
34.385
34.225
34.081
33.952
33.839
33.74
33.657
33.588
33.533
33.495
33.474
33.47
33.484
33.518
33.571
33.643
33.735
33.845
33.972
34.114
34.271
34.441
34.622
34.809
35.002
35.196
35.389
35.577
35.755
35.922
36.072
36.204
36.316
36.407
36.474
36.519
36.542
36.545
36.528
36.494
36.442
36.373
36.29
36.193
36.086
35.962
35.82
35.661
35.491
35.316
35.139
34.967
34.801
34.645
34.499
34.364
34.238
34.121
34.012
33.907
33.805
33.705
33.605
33.506
33.407
33.309
33.211
33.114
33.016
32.917
32.818
32.719
32.619
32.519
32.42
32.323
32.228
32.138
32.053
31.973
31.9
31.831
31.768
31.711
31.659
31.613
31.571
31.535
31.503
31.475
31.452
31.432
31.415
31.4
31.386
31.372
31.358
31.344
31.329
31.313
31.298
31.285
31.274
31.267
31.264
31.264
31.267
31.273
31.279
31.285
31.291
31.297
31.302
31.307
31.313
31.318
31.325
31.333
31.34
31.347
31.354
31.358
31.36
31.359
31.357
31.352
31.348
31.344
31.34
31.339
31.34
31.341
31.344
31.349
31.358
31.375
31.403
31.447
31.512
31.604
31.734
31.915
32.155
32.464
32.851
33.321
33.878
34.521
35.244
36.04
36.897
37.798
38.727
39.664
40.589
41.482
42.326
43.102
43.799
44.405
44.913
45.32
45.625
45.831
45.944
45.971
45.921
45.804
45.631
45.412
45.156
44.874
44.572
44.257
43.936
43.612
43.291
42.974
42.662
42.358
42.06
41.767
41.48
41.197
40.917
40.639
40.362
40.085
39.809
39.531
39.255
38.98
38.707
38.437
38.169
37.903
37.64
37.38
37.124
36.873
36.626
36.386
36.153
35.931
35.719
35.52
35.336
35.167
35.016
34.884
34.771
34.678
34.604
34.55
34.516
34.5
34.504
34.526
34.566
34.624
34.7
34.794
34.905
35.033
35.177
35.335
35.505
35.684
35.869
36.057
36.243
36.425
36.605
36.782
36.955
37.118
37.266
37.392
37.494
37.568
37.611
37.626
37.612
37.572
37.509
37.425
37.324
37.209
37.084
36.95
36.81
36.665
36.514
36.358
36.196
36.031
35.864
35.697
35.53
35.365
35.202
35.042
34.888
34.739
34.595
34.456
34.323
34.193
34.065
33.938
33.811
33.683
33.555
33.425
33.297
33.171
33.047
32.928
32.813
32.702
32.595
32.491
32.391
32.295
32.202
32.114
32.033
31.959
31.892
31.833
31.782
31.74
31.705
31.679
31.659
31.645
31.635
31.629
31.626
31.624
31.623
31.623
31.622
31.623
31.623
31.623
31.622
31.62
31.616
31.611
31.604
31.597
31.59
31.584
31.58
31.577
31.577
31.578
31.581
31.585
31.59
31.596
31.604
31.613
31.626
31.641
31.656
31.673
31.69
31.708
31.729
31.751
31.774
31.8
31.828
31.858
31.891
31.928
31.972
32.027
32.1
32.195
32.32
32.485
32.698
32.966
33.298
33.701
34.177
34.728
35.353
36.045
36.796
37.593
38.421
39.264
40.105
40.926
41.71
42.444
43.114
43.708
44.22
44.645
44.981
45.228
45.391
45.473
45.483
45.429
45.319
45.163
44.969
44.745
44.497
44.233
43.958
43.674
43.386
43.095
42.803
42.51
42.218
41.925
41.63
41.335
41.039
40.742
40.446
40.153
39.861
39.574
39.29
39.01
38.736
38.468
38.205
37.946
37.691
37.441
37.195
36.954
36.72
36.492
36.271
36.06
35.859
35.671
35.494
35.331
35.182
35.047
34.928
34.825
34.738
34.665
34.608
34.566
34.54
34.532
34.542
34.571
34.617
34.681
34.762
34.86
34.973
35.099
35.236
35.382
35.534
35.688
35.841
35.991
36.136
36.274
36.404
36.526
36.637
36.736
36.822
36.893
36.948
36.986
37.007
37.01
36.994
36.961
36.911
36.845
36.765
36.672
36.569
36.457
36.337
36.21
36.078
35.941
35.801
35.658
35.514
35.369
35.224
35.077
34.93
34.782
34.633
34.485
34.338
34.192
34.05
33.91
33.774
33.64
33.511
33.385
33.264
33.149
33.038
32.932
32.831
32.734
32.641
32.551
32.463
32.379
32.298
32.218
32.141
32.065
31.992
31.921
31.853
31.789
31.727
31.67
31.615
31.565
31.52
31.48
31.446
31.417
31.392
31.374
31.361
31.353
31.35
31.353
31.359
31.369
31.382
31.396
31.411
31.428
31.446
31.465
31.487
31.511
31.537
31.563
31.589
31.615
31.64
31.663
31.683
31.7
31.713
31.723
31.729
31.733
31.738
31.743
31.749
31.757
31.767
31.778
31.793
31.813
31.841
31.879
31.934
32.011
32.12
32.27
32.468
32.724
33.045
33.439
33.91
34.459
35.084
35.776
36.527
37.325
38.152
38.992
39.827
40.639
41.41
42.125
42.771
43.341
43.825
44.223
44.532
44.756
44.898
44.963
44.957
44.89
44.769
44.604
44.404
44.175
43.926
43.662
43.388
43.108
42.824
42.541
42.259
41.978
41.7
41.423
41.146
40.87
40.593
40.316
40.038
39.761
39.483
39.205
38.927
38.65
38.374
38.101
37.83
37.562
37.298
37.037
36.782
36.533
36.292
36.059
35.834
35.619
35.414
35.22
35.038
34.869
34.715
34.577
34.457
34.357
34.278
34.22
34.183
34.17
34.179
34.211
34.265
34.342
34.439
34.557
34.691
34.841
35.003
35.175
35.356
35.541
35.728
35.915
36.099
36.275
36.442
36.596
36.736
36.859
36.965
37.051
37.119
37.167
37.197
37.21
37.207
37.189
37.156
37.11
37.051
36.98
36.898
36.805
36.7
36.584
36.458
36.323
36.182
36.035
35.884
35.731
35.578
35.425
35.273
35.124
34.977
34.833
34.692
34.552
34.415
34.277
34.14
34.003
33.866
33.73
33.596
33.467
33.343
33.226
33.116
33.014
32.918
32.828
32.742
32.661
32.584
32.511
32.441
32.376
32.317
32.264
32.217
32.176
32.141
32.11
32.083
32.058
32.035
32.012
31.991
31.97
31.949
31.93
31.912
31.897
31.885
31.876
31.871
31.87
31.872
31.876
31.879
31.881
31.88
31.878
31.874
31.87
31.867
31.867
31.876
31.895
31.931
31.988
32.075
32.198
32.367
32.59
32.876
33.23
33.656
34.156
34.728
35.368
36.067
36.814
37.593
38.39
39.186
39.966
40.712
41.411
42.05
42.619
43.112
43.522
43.849
44.094
44.258
44.348
44.369
44.329
44.237
44.099
43.925
43.723
43.502
43.269
43.029
42.785
42.538
42.287
42.034
41.776
41.515
41.248
40.977
40.701
40.42
40.136
39.848
39.558
39.268
38.982
38.7
38.424
38.153
37.888
37.628
37.372
37.12
36.872
36.627
36.385
36.147
35.912
35.682
35.458
35.241
35.032
34.833
34.645
34.468
34.306
34.16
34.033
33.927
33.843
33.783
33.746
33.735
33.749
33.786
33.846
33.925
34.024
34.14
34.272
34.419
34.577
34.745
34.921
35.102
35.284
35.467
35.648
35.825
35.995
36.153
36.299
36.43
36.542
36.634
36.704
36.752
36.777
36.78
36.763
36.729
36.677
36.612
36.535
36.449
36.355
36.255
36.148
36.035
35.916
35.792
35.662
35.526
35.384
35.238
35.089
34.937
34.783
34.628
34.474
34.322
34.172
34.027
33.885
33.747
33.614
33.483
33.355
33.229
33.105
32.984
32.867
32.753
32.645
32.542
32.443
32.349
32.259
32.173
32.091
32.014
31.941
31.873
31.811
31.756
31.707
31.666
31.63
31.601
31.577
31.558
31.541
31.526
31.511
31.497
31.483
31.469
31.456
31.445
31.436
31.429
31.424
31.423
31.424
31.426
31.431
31.436
31.442
31.448
31.455
31.463
31.474
31.487
31.503
31.522
31.546
31.575
31.61
31.653
31.706
31.774
31.861
31.974
32.121
32.312
32.554
32.859
33.232
33.679
34.201
34.796
35.457
36.175
36.937
37.73
38.535
39.338
40.121
40.87
41.569
42.209
42.78
43.275
43.692
44.028
44.284
44.464
44.573
44.616
44.599
44.531
44.418
44.268
44.087
43.88
43.653
43.41
43.156
42.892
42.622
42.349
42.073
41.796
41.52
41.244
40.969
40.695
40.423
40.152
39.883
39.617
39.355
39.097
38.845
38.6
38.362
38.132
37.909
37.693
37.482
37.275
37.072
36.869
36.666
36.462
36.257
36.052
35.85
35.652
35.462
35.282
35.116
34.967
34.836
34.725
34.636
34.567
34.518
34.489
34.479
34.487
34.512
34.553
34.609
34.678
34.76
34.856
34.966
35.088
35.223
35.368
35.521
35.679
35.841
36.001
36.158
36.308
36.447
36.574
36.684
36.776
36.847
36.896
36.925
36.934
36.925
36.898
36.856
36.799
36.728
36.645
36.551
36.449
36.338
36.22
36.095
35.965
35.831
35.694
35.554
35.414
35.272
35.13
34.987
34.844
34.701
34.557
34.415
34.274
34.134
33.995
33.856
33.718
33.579
33.442
33.307
33.175
33.047
32.923
32.805
32.691
32.584
32.484
32.392
32.307
32.229
32.158
32.093
32.033
31.977
31.924
31.874
31.826
31.781
31.739
31.698
31.66
31.624
31.591
31.562
31.537
31.516
31.498
31.483
31.47
31.458
31.446
31.437
31.429
31.425
31.425
31.43
31.441
31.457
31.477
31.499
31.524
31.549
31.577
31.605
31.635
31.666
31.697
31.726
31.754
31.779
31.8
31.816
31.825
31.83
31.831
31.828
31.825
31.821
31.82
31.826
31.842
31.875
31.93
32.014
32.134
32.301
32.52
32.8
33.147
33.567
34.063
34.635
35.276
35.98
36.734
37.524
38.333
39.144
39.94
40.704
41.422
42.08
42.669
43.18
43.611
43.958
44.223
44.409
44.52
44.561
44.541
44.466
44.345
44.186
43.995
43.78
43.546
43.298
43.039
42.774
42.505
42.233
41.959
41.684
41.409
41.135
40.861
40.591
40.323
40.06
39.801
39.546
39.297
39.053
38.815
38.582
38.354
38.13
37.911
37.694
37.479
37.265
37.052
36.838
36.625
36.414
36.205
36.001
35.802
35.611
35.43
35.262
35.107
34.968
34.846
34.74
34.652
34.579
34.523
34.483
34.459
34.451
34.46
34.485
34.528
34.589
34.668
34.763
34.873
34.996
35.129
35.27
35.416
35.564
35.71
35.853
35.989
36.118
36.236
36.342
36.433
36.509
36.568
36.61
36.634
36.642
36.633
36.608
36.568
36.513
36.444
36.363
36.269
36.165
36.053
35.933
35.81
35.683
35.555
35.426
35.298
35.17
35.041
34.912
34.781
34.648
34.512
34.373
34.232
34.091
33.952
33.815
33.681
33.552
33.426
33.305
33.186
33.069
32.952
32.837
32.723
32.612
32.504
32.4
32.303
32.212
32.128
32.051
31.98
31.915
31.854
31.796
31.74
31.684
31.629
31.576
31.525
31.478
31.435
31.397
31.365
31.338
31.316
31.297
31.283
31.271
31.263
31.259
31.257
31.257
31.258
31.263
31.27
31.279
31.292
31.307
31.324
31.342
31.359
31.377
31.396
31.416
31.439
31.466
31.498
31.534
31.573
31.614
31.656
31.696
31.736
31.774
31.809
31.84
31.868
31.89
31.909
31.922
31.929
31.932
31.928
31.92
31.908
31.891
31.871
31.848
31.822
31.795
31.768
31.744
31.726
31.716
31.718
31.737
31.778
31.85
31.96
32.118
32.333
32.613
32.968
33.401
33.917
34.513
35.183
35.918
36.704
37.524
38.363
39.2
40.019
40.802
41.533
42.201
42.793
43.303
43.725
44.059
44.306
44.471
44.56
44.579
44.536
44.439
44.296
44.116
43.906
43.673
43.422
43.16
42.891
42.618
42.344
42.069
41.796
41.525
41.256
40.988
40.722
40.455
40.188
39.92
39.649
39.377
39.104
38.829
38.554
38.28
38.009
37.744
37.485
37.235
36.994
36.764
36.545
36.336
36.136
35.945
35.763
35.588
35.421
35.261
35.11
34.965
34.83
34.704
34.591
34.493
34.411
34.347
34.302
34.279
34.278
34.299
34.341
34.403
34.482
34.577
34.686
34.807
34.938
35.077
35.222
35.371
35.522
35.673
35.82
35.962
36.097
36.221
36.332
36.429
36.51
36.574
36.62
36.648
36.659
36.653
36.629
36.589
36.533
36.463
36.38
36.286
36.182
36.07
35.951
35.825
35.693
35.556
35.415
35.272
35.128
34.984
34.84
34.698
34.557
34.418
34.282
34.148
34.017
33.889
33.762
33.638
33.516
33.396
33.278
33.161
33.044
32.928
32.814
32.702
32.593
32.487
32.385
32.287
32.193
32.102
32.014
31.928
31.846
31.767
31.692
31.621
31.554
31.491
31.433
31.38
31.332
31.288
31.25
31.218
31.19
31.168
31.15
31.137
31.129
31.125
31.125
31.128
31.133
31.14
31.148
31.158
31.17
31.184
31.202
31.221
31.241
31.263
31.284
31.305
31.324
31.341
31.358
31.376
31.395
31.416
31.439
31.465
31.494
31.524
31.554
31.581
31.606
31.629
31.649
31.668
31.684
31.699
31.713
31.726
31.737
31.748
31.758
31.765
31.767
31.765
31.759
31.747
31.733
31.717
31.701
31.685
31.669
31.653
31.638
31.624
31.61
31.597
31.586
31.58
31.584
31.603
31.646
31.72
31.834
32.0
32.225
32.52
32.892
33.347
33.887
34.509
35.207
35.97
36.783
37.631
38.494
39.354
40.194
40.997
41.746
42.429
43.034
43.554
43.983
44.321
44.567
44.726
44.804
44.806
44.743
44.623
44.456
44.249
44.012
43.75
43.472
43.182
42.884
42.583
42.28
41.978
41.677
41.378
41.081
40.787
40.497
40.21
39.926
39.643
39.363
39.085
38.809
38.536
38.264
37.996
37.732
37.473
37.219
36.97
36.726
36.488
36.255
36.026
35.802
35.582
35.367
35.156
34.953
34.757
34.574
34.405
34.252
34.118
34.003
33.909
33.837
33.787
33.758
33.752
33.768
33.804
33.858
33.93
34.018
34.121
34.239
34.371
34.514
34.667
34.829
34.996
35.166
35.336
35.501
35.659
35.807
35.944
36.066
36.173
36.263
36.337
36.392
36.43
36.452
36.457
36.446
36.419
36.375
36.316
36.24
36.15
36.047
35.933
35.81
35.682
35.549
35.414
35.277
35.14
35.004
34.867
34.731
34.595
34.459
34.321
34.181
34.039
33.894
33.748
33.603
33.46
33.32
33.185
33.056
32.934
32.816
32.702
32.592
32.486
32.382
32.28
32.182
32.088
31.998
31.913
31.833
31.759
31.689
31.624
31.564
31.506
31.451
31.398
31.346
31.296
31.247
31.2
31.158
31.121
31.09
31.064
31.041
31.022
31.005
30.989
