Trial 1:0back
33.526
33.507
33.491
33.476
33.463
33.451
33.44
33.429
33.417
33.405
33.392
33.378
33.364
33.352
33.34
33.328
33.316
33.304
33.293
33.281
33.27
33.259
33.248
33.237
33.226
33.213
33.201
33.188
33.174
33.16
33.145
33.129
33.113
33.097
33.084
33.072
33.063
33.058
33.057
33.061
33.07
33.086
33.11
33.146
33.196
33.262
33.346
33.45
33.575
33.725
33.902
34.111
34.351
34.626
34.935
35.274
35.64
36.025
36.425
36.831
37.237
37.635
38.018
38.38
38.716
39.02
39.289
39.519
39.708
39.856
39.963
40.032
40.065
40.064
40.032
39.972
39.889
39.787
39.669
39.541
39.404
39.262
39.116
38.967
38.816
38.663
38.509
38.354
38.197
38.04
37.881
37.723
37.566
37.41
37.257
37.105
36.956
36.808
36.664
36.522
36.382
36.245
36.111
35.98
35.853
35.73
35.611
35.498
35.39
35.287
35.189
35.099
35.017
34.946
34.887
34.84
34.807
34.787
34.782
34.788
34.807
34.838
34.879
34.93
34.99
35.058
35.132
35.211
35.292
35.375
35.459
35.541
35.621
35.698
35.771
35.839
35.9
35.954
35.998
36.034
36.059
36.074
36.077
36.071
36.055
36.029
35.994
35.949
35.894
35.832
35.762
35.687
35.606
35.522
35.434
35.343
35.251
35.158
35.064
34.97
34.876
34.783
34.692
34.605
34.521
34.441
34.364
34.292
34.222
34.158
34.097
34.042
33.992
33.946
33.904
33.864
33.828
33.794
33.764
33.736
33.71
33.687
33.666
33.646
33.626
33.606
33.585
33.564
33.543
33.521
33.5
33.479
33.458
33.437
33.415
33.394
33.374
33.354
33.337
33.321
33.308
33.298
33.289
33.281
33.273
33.264
33.254
33.242
33.229
33.214
33.198
33.183
33.169
33.157
33.147
33.139
33.132
33.127
33.123
33.12
33.122
33.129
33.145
33.171
33.212
33.271
33.35
33.452
33.581
33.739
33.929
34.155
34.417
34.715
35.048
35.412
35.804
36.215
36.641
37.073
37.502
37.923
38.327
38.706
39.055
39.368
39.64
39.871
40.057
40.199
40.298
40.357
40.379
40.367
40.325
40.259
40.171
40.065
39.944
39.811
39.668
39.517
39.362
39.206
39.049
38.893
38.739
38.587
38.436
38.288
38.144
38.003
37.866
37.731
37.599
37.469
37.34
37.211
37.083
36.956
36.829
36.703
36.577
36.451
36.326
36.202
36.08
35.96
35.845
35.735
35.631
35.536
35.45
35.373
35.306
35.249
35.203
35.167
35.141
35.125
35.119
35.123
35.137
35.159
35.191
35.231
35.278
35.334
35.396
35.463
35.534
35.607
35.679
35.75
35.818
35.881
35.938
35.988
36.029
36.062
36.085
36.098
36.1
36.092
36.075
36.05
36.017
35.977
35.928
35.873
35.81
35.741
35.666
35.587
35.503
35.418
35.331
35.244
35.158
35.072
34.985
34.896
34.807
34.718
34.63
34.544
34.461
34.381
34.304
34.232
34.165
34.102
34.043
33.987
33.936
33.889
33.848
33.812
33.781
33.752
33.726
33.701
33.676
33.65
33.624
33.598
33.57
33.544
33.518
33.494
33.472
33.449
33.427
33.406
33.385
33.364
33.345
33.329
33.315
33.304
33.295
33.289
33.284
33.28
33.277
33.273
33.268
33.263
33.257
33.249
33.239
33.228
33.216
33.202
33.187
33.172
33.156
33.14
33.126
33.114
33.105
33.101
33.103
33.114
33.136
33.171
33.221
33.291
33.383
33.501
33.649
33.829
34.044
34.294
34.581
34.902
35.256
35.637
36.04
36.456
36.878
37.299
37.713
38.111
38.487
38.835
39.151
39.431
39.672
39.873
40.034
40.156
40.241
40.293
40.312
40.3
40.261
40.198
40.114
40.013
39.897
39.769
39.632
39.487
39.334
39.176
39.014
38.848
38.681
38.517
38.355
38.197
38.044
37.896
37.754
37.617
37.486
37.36
37.238
37.119
37.003
36.889
36.777
36.666
36.556
36.447
36.34
36.234
36.129
36.026
35.926
35.827
35.733
35.642
35.556
35.477
35.406
35.344
35.291
35.25
35.22
35.201
35.194
35.198
35.213
35.239
35.274
35.319
35.372
35.432
35.498
35.566
35.636
35.707
35.776
35.842
35.903
35.957
36.003
36.041
36.07
36.09
36.1
36.102
36.097
36.083
36.063
36.035
36.0
35.958
35.907
35.849
35.783
35.711
35.632
35.549
35.463
35.376
35.288
35.201
35.114
35.028
34.943
34.859
34.776
34.695
34.617
34.54
34.467
34.397
34.329
34.265
34.203
34.144
34.087
34.032
33.98
33.932
33.886
33.843
33.802
33.762
33.723
33.685
33.646
33.608
33.57
33.533
33.498
33.465
33.437
33.412
33.392
33.376
33.362
33.351
33.342
33.336
33.332
33.33
33.33
33.331
33.333
33.334
33.333
33.329
33.322
33.311
33.297
33.28
33.261
33.241
33.222
33.201
33.179
33.154
33.128
33.101
33.075
33.051
33.03
33.014
33.004
33.001
33.006
33.022
33.049
33.088
33.142
33.212
33.302
33.417
33.558
33.729
33.933
34.172
34.446
34.755
35.097
35.467
35.861
36.272
36.692
37.115
37.533
37.937
38.32
38.675
38.999
39.286
39.535
39.744
39.914
40.045
40.141
40.201
40.228
40.225
40.194
40.139
40.062
39.967
39.858
39.738
39.608
39.472
39.33
39.182
39.03
38.877
38.724
38.572
38.422
38.275
38.13
37.988
37.849
37.713
37.58
37.451
37.325
37.203
37.083
36.966
36.851
36.738
36.626
36.514
36.404
36.295
36.187
36.08
35.977
35.877
35.783
35.696
35.615
35.544
35.481
35.427
35.383
35.349
35.324
35.311
35.308
35.316
35.336
35.367
35.405
35.449
35.498
35.552
35.608
35.668
35.73
35.793
35.857
35.92
35.981
36.039
36.091
36.136
36.174
36.203
36.223
36.235
36.239
36.232
36.216
36.189
36.152
36.106
36.051
35.987
35.915
35.837
35.751
35.661
35.566
35.469
35.371
35.273
35.175
35.08
34.988
34.901
34.818
34.739
34.666
34.597
34.533
34.471
34.41
34.351
34.291
34.233
34.177
34.123
34.071
34.02
33.971
33.922
33.876
33.831
33.788
33.747
33.708
33.671
33.638
33.61
33.586
33.566
33.548
33.532
33.517
33.502
33.488
33.473
33.458
33.443
33.428
33.413
33.398
33.384
33.369
33.354
33.338
33.323
33.309
33.295
33.283
33.27
33.257
33.243
33.228
33.212
33.196
33.18
33.164
33.15
33.137
33.126
33.117
33.111
33.108
33.107
33.111
33.118
33.131
33.151
33.18
33.223
33.28
33.357
33.455
33.579
33.731
33.916
34.135
34.39
34.681
35.006
35.362
35.744
36.147
36.562
36.983
37.402
37.812
38.204
38.572
38.911
39.216
39.485
39.714
39.904
40.052
40.161
40.23
40.264
40.263
40.233
40.176
40.096
39.998
39.885
39.76
39.624
39.481
39.334
39.183
39.032
38.881
38.732
38.584
38.44
38.298
38.158
38.021
37.887
37.755
37.627
37.502
37.378
37.256
37.134
37.012
36.891
36.772
36.654
36.538
36.423
36.309
36.198
36.09
35.985
35.885
35.791
35.705
35.626
35.556
35.495
35.443
35.402
35.372
35.354
35.348
35.353
35.371
35.401
35.441
35.491
35.549
35.614
35.682
35.752
35.821
35.888
35.952
36.01
36.064
36.112
36.155
36.191
36.222
36.246
36.265
36.276
36.278
36.272
36.256
36.23
36.194
36.149
36.096
36.036
35.97
35.899
35.822
35.74
35.654
35.564
35.472
35.38
35.289
35.2
35.112
35.027
34.944
34.864
34.786
34.71
34.635
34.562
34.49
34.421
34.353
34.287
34.223
34.161
34.101
34.042
33.986
33.932
33.882
33.835
33.792
33.752
33.717
33.685
33.657
33.632
33.608
33.585
33.564
33.544
33.527
33.513
33.5
33.489
33.479
33.469
33.459
33.449
33.438
33.426
33.413
33.398
33.382
33.365
33.348
33.331
33.314
33.299
33.284
33.271
33.257
33.244
33.232
33.22
33.208
33.196
33.185
33.174
33.164
33.153
33.143
33.133
33.123
33.116
33.114
33.118
33.133
33.163
33.211
33.281
33.378
33.505
33.666
33.864
34.1
34.373
34.683
35.026
35.397
35.79
36.199
36.616
37.033
37.443
37.839
38.214
38.563
38.883
39.168
39.415
39.624
39.792
39.92
40.009
40.061
40.08
40.069
40.033
39.973
39.895
39.8
39.691
39.57
39.44
39.305
39.164
39.021
38.877
38.733
38.589
38.444
38.301
38.158
38.017
37.879
37.744
37.612
37.482
37.354
37.228
37.104
36.982
36.86
36.74
36.623
36.507
36.394
36.283
36.174
36.066
35.96
35.856
35.756
35.662
35.575
35.495
35.426
35.366
35.318
35.283
35.26
35.25
35.254
35.27
35.297
35.335
35.381
35.435
35.495
35.56
35.628
35.7
35.774
35.848
35.92
35.989
36.054
36.113
36.167
36.213
36.251
36.278
36.294
36.298
36.289
36.267
36.234
36.19
36.136
36.073
36.004
35.929
35.851
35.768
35.683
35.594
35.503
35.412
35.321
35.232
35.144
35.058
34.973
34.889
34.807
34.727
34.649
34.573
34.5
34.429
34.362
34.299
34.239
34.181
34.126
34.072
34.02
33.968
33.918
33.868
33.82
33.773
33.728
33.687
33.648
33.612
33.578
33.547
33.519
33.494
33.472
33.453
33.437
33.423
33.41
33.4
33.39
33.381
33.373
33.365
33.356
33.348
33.339
33.328
33.316
33.303
33.289
33.275
33.261
33.247
33.233
33.218
33.203
33.187
33.17
33.153
33.136
33.119
33.103
33.088
33.074
33.062
33.051
33.042
33.038
33.039
33.048
33.068
33.1
33.149
33.216
33.303
33.415
33.554
33.722
33.922
34.156
34.426
34.73
35.066
35.431
35.82
36.225
36.639
37.056
37.468
37.868
38.249
38.604
38.929
39.218
39.467
39.676
39.842
39.967
40.051
40.096
40.104
40.079
40.023
39.941
39.836
39.715
39.581
39.44
39.294
39.146
38.999
38.855
38.714
38.577
38.442
38.311
38.181
38.055
37.932
37.81
37.69
37.57
37.449
37.328
37.205
37.081
36.956
36.828
36.7
36.573
36.446
36.32
36.197
36.074
35.953
35.835
35.721
35.613
35.513
35.421
35.34
35.27
35.211
35.164
35.129
35.105
35.095
35.098
35.115
35.144
35.185
35.235
35.294
35.359
35.429
35.503
35.579
35.656
35.73
35.801
35.867
35.925
35.975
36.018
36.052
36.078
36.097
36.108
36.112
36.107
36.093
36.07
36.038
35.998
35.95
35.894
35.832
35.764
35.688
35.606
35.519
35.429
35.336
35.241
35.146
35.052
34.96
34.871
34.783
34.697
34.614
34.534
34.458
34.387
34.32
34.256
34.193
34.132
34.071
34.012
33.956
33.902
33.853
33.807
33.764
33.726
33.69
33.659
33.629
33.6
33.572
33.544
33.518
33.493
33.47
33.447
33.427
33.408
33.391
33.376
33.362
33.349
33.337
33.326
33.317
33.311
33.307
33.304
33.3
33.295
33.289
33.281
33.271
33.259
33.245
33.229
33.211
33.191
33.169
33.145
33.12
33.094
33.069
33.044
33.02
32.999
32.982
32.967
32.957
32.952
32.953
32.962
32.981
33.012
33.057
33.119
33.2
33.304
33.432
33.589
33.775
33.994
34.247
34.535
34.856
35.207
35.584
35.98
36.389
36.805
37.219
37.626
38.019
38.39
38.734
39.045
39.319
39.554
39.747
39.899
40.01
40.081
40.115
40.114
40.081
40.019
39.934
39.829
39.709
39.576
39.434
39.284
39.131
38.976
38.821
38.668
38.517
38.369
38.225
38.084
37.948
37.816
37.687
37.561
37.437
37.315
37.192
37.069
36.946
36.822
36.697
36.574
36.451
36.329
36.207
36.087
35.968
35.853
35.742
35.636
35.535
35.439
35.35
35.269
35.198
35.138
35.091
35.057
35.039
35.037
35.049
35.075
35.114
35.164
35.223
35.289
35.36
35.436
35.514
35.592
35.669
35.744
35.814
35.879
35.936
35.985
36.026
36.058
36.081
36.095
36.099
36.094
36.081
36.058
36.028
35.988
35.941
35.886
35.824
35.755
35.679
35.596
35.507
35.413
35.315
35.217
35.117
35.019
34.923
34.829
34.737
34.648
34.563
34.482
34.406
34.335
34.27
34.208
34.15
34.093
34.039
33.986
33.936
33.889
33.845
33.805
33.768
33.733
33.7
33.667
33.633
33.6
33.567
33.535
33.504
33.476
33.449
33.424
33.4
33.376
33.353
33.331
33.309
33.287
33.265
33.244
33.225
33.209
33.195
33.182
33.17
33.159
33.149
33.14
33.131
33.123
33.115
33.107
33.098
33.088
33.076
33.063
33.047
33.03
33.012
32.994
32.976
32.957
32.937
32.918
32.899
32.882
32.868
32.857
32.853
32.855
32.867
32.892
32.93
32.985
33.06
33.156
33.278
33.429
33.61
33.823
34.068
34.347
34.658
35.0
35.369
35.761
36.169
36.587
37.007
37.42
37.819
38.197
38.547
38.866
39.148
39.391
39.594
39.756
39.876
39.955
39.997
40.002
39.976
39.922
39.844
39.745
39.628
39.498
39.357
39.207
39.05
38.889
38.726
38.563
38.402
38.245
38.09
37.939
37.792
37.647
37.505
37.366
37.229
37.095
36.964
36.836
36.709
36.582
36.455
36.328
36.201
36.075
35.951
35.83
35.712
35.599
35.491
35.39
35.295
35.208
35.129
35.057
34.996
34.945
34.906
34.878
34.861
34.855
34.859
34.873
34.896
34.928
34.968
35.016
35.072
35.133
35.2
35.27
35.342
35.413
35.484
35.552
35.617
35.677
35.732
35.779
35.818
35.847
35.867
35.876
35.876
35.866
35.848
35.83
35.813
35.796
35.775
35.748
35.711
35.661
35.598
35.522
35.433
35.333
35.224
35.106
34.983
34.857
34.73
34.607
34.487
34.371
34.261
34.157
34.06
33.971
33.889
33.816
33.751
33.694
33.647
33.607
33.573
33.544
33.519
33.496
33.474
33.454
33.435
33.416
33.396
33.375
33.354
33.333
33.311
33.288
33.266
33.243
33.222
33.202
33.185
33.17
33.156
33.143
33.131
33.119
33.107
33.094
33.081
33.069
33.056
33.045
33.035
33.027
33.022
33.02
33.018
33.017
33.015
33.011
33.006
32.999
32.991
32.981
32.97
32.957
32.942
32.923
32.903
32.88
32.857
32.835
32.815
32.8
32.791
32.79
32.799
32.82
32.856
32.909
32.981
33.075
33.192
33.336
33.508
33.71
33.944
34.211
34.511
34.843
35.202
35.585
35.985
36.398
36.814
37.227
37.63
38.015
38.376
38.706
39.002
39.258
39.473
39.646
39.778
39.871
39.926
39.947
39.936
39.897
39.832
39.746
39.641
39.52
39.388
39.245
39.095
38.939
38.778
38.614
38.448
38.28
38.112
37.943
37.774
37.606
37.439
37.274
37.109
36.947
36.787
36.63
36.478
36.33
36.186
36.047
35.913
35.785
35.663
35.546
35.435
35.329
35.23
35.138
35.053
34.977
34.908
34.84
34.771
34.703
34.639
34.584
34.539
34.508
34.494
34.499
34.522
34.565
34.626
34.704
34.795
34.896
35.005
35.117
35.23
35.341
35.447
35.546
35.636
35.715
35.783
35.84
35.886
35.919
35.94
35.949
35.946
35.931
35.905
35.867
35.82
35.764
35.7
35.629
35.551
35.469
35.383
35.295
35.204
35.113
35.022
34.93
34.839
34.748
34.658
34.57
34.484
34.401
34.319
34.241
34.166
34.095
34.028
33.965
33.906
33.849
33.796
33.745
33.698
33.654
33.615
33.58
33.548
33.521
33.497
33.474
33.452
33.43
33.407
33.384
33.361
33.34
33.32
33.302
33.285
33.271
33.257
33.246
33.235
33.226
33.217
33.209
33.201
33.194
33.187
33.18
33.172
33.162
33.151
33.139
33.126
33.114
33.104
33.094
33.085
33.077
33.067
33.055
33.041
33.024
33.005
32.985
32.964
32.944
32.924
32.907
32.892
32.88
32.873
32.87
32.873
32.884
32.906
32.94
32.992
33.062
33.156
33.276
33.424
33.603
33.816
34.064
34.348
34.665
35.015
35.393
35.793
36.211
36.639
37.071
37.497
37.911
38.305
38.671
39.004
39.299
39.554
39.766
39.936
40.064
40.152
40.202
40.217
40.199
40.153
40.082
39.99
39.881
39.757
39.62
39.474
39.319
39.158
38.993
38.827
38.66
38.495
38.332
38.172
38.013
37.857
37.704
37.555
37.412
37.273
37.138
37.006
36.878
36.751
36.626
36.503
36.38
36.258
36.139
36.022
35.908
35.796
35.687
35.58
35.478
35.38
35.289
35.204
35.127
35.06
35.004
34.959
34.925
34.903
34.892
34.893
34.905
34.927
34.956
34.994
35.038
35.087
35.141
35.2
35.263
35.327
35.393
35.458
35.521
35.582
35.639
35.692
35.739
35.78
35.811
35.834
35.846
35.847
35.837
35.817
35.787
35.75
35.709
35.663
35.612
35.555
35.493
35.423
35.347
35.264
35.175
35.081
34.984
34.885
34.786
34.687
34.59
34.496
34.404
34.316
34.232
34.152
34.077
34.006
33.94
33.88
33.824
33.773
33.726
33.683
33.643
33.604
33.566
33.529
33.493
33.46
33.429
33.401
33.377
33.355
33.335
33.319
33.305
33.293
33.282
33.273
33.263
33.255
33.245
33.236
33.225
33.212
33.198
33.182
33.166
33.15
33.134
33.117
33.102
33.086
33.072
33.057
33.041
33.024
33.005
32.986
32.966
32.948
32.932
32.918
32.907
32.899
32.892
32.887
32.883
32.881
32.881
32.885
32.894
32.91
32.936
32.976
33.032
33.107
33.204
33.324
33.471
33.648
33.857
34.101
34.38
34.693
35.039
35.413
35.811
36.226
36.653
37.082
37.507
37.92
38.313
38.68
39.015
39.314
39.574
39.794
39.971
40.107
40.2
40.255
40.273
40.258
40.213
40.142
40.047
39.933
39.801
39.656
39.501
39.337
39.168
38.997
38.823
38.647
38.468
38.287
38.106
37.926
37.749
37.577
37.413
37.256
37.108
36.968
36.836
36.71
36.588
36.471
36.357
36.247
36.139
36.031
35.923
35.816
35.709
35.604
35.503
35.405
35.312
35.224
35.143
35.07
35.005
34.948
34.899
34.859
34.827
34.806
34.794
34.793
34.802
34.821
34.851
34.891
34.94
34.998
35.061
35.13
35.203
35.277
35.352
35.425
35.494
35.559
35.617
35.667
35.709
35.74
35.76
35.768
35.766
35.752
35.728
35.695
35.653
35.603
35.545
35.482
35.412
35.338
35.26
35.179
35.095
35.009
34.921
34.833
34.745
34.658
34.572
34.488
34.406
34.326
34.25
34.178
34.109
34.043
33.982
33.923
33.869
33.817
33.768
33.722
33.679
33.639
33.602
33.568
33.537
33.509
33.48
33.451
33.421
33.391
33.362
33.333
33.304
33.277
33.251
33.229
33.209
33.191
33.174
33.157
33.141
33.124
33.108
33.093
33.079
33.067
33.057
33.048
33.04
33.033
33.026
33.017
33.007
32.995
32.982
32.968
32.953
32.937
32.919
32.9
32.88
32.859
32.839
32.82
32.803
32.788
32.777
32.77
32.77
32.779
32.799
32.832
32.879
32.946
33.033
33.143
33.28
33.446
33.644
33.876
34.143
34.444
34.778
35.143
35.533
35.944
36.369
36.801
37.231
37.651
38.054
38.434
38.785
39.102
39.381
39.62
39.816
39.97
40.083
40.156
40.192
40.192
40.161
40.101
40.016
39.909
39.785
39.646
39.496
39.336
39.17
39.0
38.826
38.649
38.471
38.293
38.116
37.94
37.768
37.598
37.43
37.265
37.103
36.945
36.79
36.641
36.497
36.36
36.23
36.105
35.985
35.869
35.757
35.647
35.541
35.438
35.34
35.245
35.157
35.074
34.998
34.928
34.862
34.803
34.749
34.703
34.667
34.642
34.628
34.625
34.634
34.652
34.678
34.712
34.753
34.802
34.857
34.918
34.984
35.051
35.119
35.187
35.253
35.316
35.374
35.428
35.474
35.513
35.543
35.564
35.576
35.578
35.57
35.553
35.526
35.49
35.444
35.389
35.325
35.256
35.18
35.101
35.019
34.936
34.852
34.769
34.686
34.604
34.522
34.441
34.362
34.284
34.209
34.137
34.069
34.004
33.942
33.883
33.828
33.774
33.723
33.675
33.63
33.589
33.552
33.52
33.491
33.464
33.44
33.418
33.398
33.379
33.362
33.345
33.327
33.309
33.29
33.269
33.247
33.223
33.196
33.169
33.143
33.119
33.099
33.083
33.071
33.062
33.056
33.051
33.046
33.041
33.036
33.029
33.024
33.019
33.014
33.008
33.001
32.992
32.982
32.971
32.958
32.943
32.926
32.907
32.886
32.864
32.843
32.825
32.811
32.803
32.805
32.82
32.851
32.903
32.978
33.079
33.209
33.369
33.561
33.785
34.042
34.334
34.658
35.012
35.395
35.799
36.219
36.648
37.079
37.505
37.919
38.313
38.68
39.015
39.313
39.571
39.787
39.959
40.088
40.175
40.221
40.23
40.203
40.144
40.059
39.949
39.82
39.676
39.519
39.352
39.177
38.996
38.811
38.624
38.435
38.247
38.06
37.875
37.693
37.515
37.342
37.175
37.014
36.859
36.711
36.569
36.434
36.304
36.179
36.057
35.938
35.823
35.709
35.599
35.491
35.387
35.288
35.194
35.106
35.023
34.945
34.873
34.808
34.751
34.704
34.665
34.636
34.616
34.606
34.605
34.614
34.631
34.656
34.689
34.729
34.778
34.835
34.899
34.97
35.044
35.121
35.198
35.273
35.344
35.41
35.468
35.52
35.563
35.597
35.621
35.634
35.637
35.627
35.607
35.576
35.535
35.485
35.428
35.365
35.297
35.224
35.147
35.067
34.985
34.902
34.817
34.732
34.649
34.568
34.489
34.41
34.33
34.25
34.171
34.093
34.018
33.948
33.883
33.823
33.769
33.721
33.678
33.641
33.608
33.579
33.553
33.529
33.507
33.487
33.468
33.448
33.427
