Trial 1:0back
35.152
35.146
35.141
35.136
35.131
35.126
35.12
35.113
35.105
35.096
35.085
35.074
35.062
35.051
35.04
35.031
35.023
35.016
35.011
35.006
35.0
34.993
34.984
34.973
34.96
34.946
34.931
34.916
34.903
34.891
34.881
34.873
34.868
34.865
34.863
34.862
34.862
34.863
34.863
34.864
34.865
34.866
34.867
34.87
34.875
34.881
34.89
34.9
34.911
34.922
34.934
34.945
34.956
34.965
34.972
34.977
34.978
34.977
34.973
34.966
34.958
34.947
34.935
34.922
34.908
34.893
34.878
34.862
34.845
34.828
34.81
34.792
34.775
34.757
34.74
34.725
34.711
34.699
34.688
34.677
34.666
34.654
34.641
34.626
34.61
34.593
34.576
34.559
34.543
34.529
34.518
34.511
34.507
34.508
34.512
34.519
34.526
34.533
34.538
34.541
34.542
34.542
34.539
34.536
34.532
34.527
34.522
34.519
34.517
34.517
34.518
34.52
34.522
34.525
34.529
34.533
34.536
34.539
34.541
34.542
34.543
34.544
34.544
34.544
34.544
34.543
34.542
34.541
34.541
34.541
34.541
34.543
34.547
34.552
34.558
34.564
34.57
34.583
34.6
34.622
34.646
34.668
34.687
34.699
34.704
34.701
34.689
34.67
34.643
34.611
34.574
34.536
34.499
34.466
34.437
34.414
34.397
34.388
34.386
34.393
34.409
34.434
34.467
34.508
34.556
34.61
34.671
34.738
34.808
34.88
34.952
35.022
35.088
35.148
35.203
35.252
35.294
35.33
35.358
35.379
35.394
35.402
35.406
35.407
35.405
35.401
35.395
35.388
35.379
35.369
35.358
35.348
35.339
35.331
35.325
35.321
35.319
35.319
35.321
35.325
35.33
35.337
35.343
35.349
35.353
35.354
35.352
35.346
35.337
35.324
35.309
35.293
35.276
35.258
35.241
35.225
35.209
35.195
35.182
35.17
35.16
35.152
35.144
35.135
35.125
35.113
35.101
35.087
35.075
35.064
35.056
35.051
35.048
35.047
35.05
35.055
35.064
35.074
35.085
35.097
35.108
35.117
35.127
35.135
35.141
35.145
35.147
35.146
35.144
35.139
35.134
35.128
35.122
35.116
35.111
35.107
35.103
35.099
35.095
35.091
35.087
35.081
35.075
35.067
35.056
35.042
35.026
35.009
34.99
34.97
34.948
34.926
34.904
34.883
34.864
34.847
34.83
34.816
34.804
34.796
34.792
34.79
34.79
34.791
34.792
34.794
34.797
34.801
34.805
34.808
34.81
34.81
34.809
34.805
34.798
34.788
34.777
34.764
34.751
34.737
34.724
34.713
34.705
34.699
34.697
34.697
34.7
34.703
34.706
34.708
34.711
34.713
34.716
34.72
34.723
34.726
34.727
34.726
34.723
34.718
34.71
34.701
34.691
34.679
34.666
34.652
34.637
34.623
34.611
34.601
34.594
34.591
34.59
34.592
34.595
34.599
34.603
34.606
34.61
34.612
34.614
34.616
34.619
34.623
34.628
34.636
34.646
34.659
34.675
34.695
34.721
34.754
34.793
34.84
34.894
34.955
35.023
35.095
35.168
35.241
35.312
35.377
35.436
35.487
35.529
35.562
35.588
35.605
35.616
35.623
35.625
35.625
35.623
35.619
35.613
35.604
35.593
35.578
35.561
35.542
35.523
35.504
35.486
35.468
35.451
35.436
35.425
35.416
35.41
35.407
35.405
35.404
35.405
35.407
35.41
35.414
35.417
35.421
35.424
35.423
35.416
35.403
35.382
35.356
35.325
35.293
35.261
35.231
35.204
35.181
35.164
35.152
35.148
35.149
35.157
35.17
35.186
35.205
35.226
35.246
35.265
35.281
35.295
35.306
35.316
35.323
35.329
35.332
35.335
35.335
35.335
35.333
35.331
35.328
35.324
35.32
35.316
35.312
35.309
35.305
35.303
35.303
35.307
35.313
35.32
35.327
35.332
35.333
35.332
35.326
35.315
35.299
35.278
35.255
35.231
35.206
35.181
35.155
35.13
35.104
35.078
35.052
35.027
35.003
34.982
34.964
34.948
34.935
34.924
34.915
34.907
34.9
34.893
34.887
34.882
34.877
34.873
34.87
34.868
34.867
34.867
34.866
34.865
34.863
34.859
34.857
34.861
34.872
34.889
34.91
34.934
34.958
34.98
34.999
35.012
35.019
35.019
35.01
34.994
34.972
34.944
34.914
34.882
34.85
34.82
34.793
34.77
34.751
34.736
34.725
34.717
34.711
34.706
34.701
34.697
34.693
34.688
34.683
34.678
34.673
34.67
34.668
34.667
34.669
34.674
34.681
34.691
34.705
34.721
34.739
34.76
34.784
34.811
34.843
34.88
34.922
34.968
35.019
35.075
35.134
35.197
35.26
35.324
35.385
35.444
35.499
35.549
35.594
35.633
35.667
35.696
35.718
35.735
35.747
35.754
35.758
35.758
35.755
35.75
35.742
35.732
35.719
35.705
35.69
35.674
35.658
35.642
35.628
35.615
35.604
35.595
35.589
35.586
35.586
35.59
35.597
35.605
35.614
35.622
35.626
35.627
35.623
35.615
35.604
35.589
35.572
35.555
35.537
35.519
35.502
35.486
35.47
35.457
35.444
35.433
35.422
35.412
35.402
35.393
35.386
35.38
35.377
35.377
35.378
35.383
35.39
35.399
35.411
35.423
35.437
35.448
35.459
35.467
35.472
35.474
35.474
35.471
35.467
35.461
35.453
35.445
35.436
35.428
35.421
35.414
35.407
35.401
35.395
35.388
35.381
35.373
35.364
35.355
35.345
35.336
35.327
35.317
35.307
35.297
35.284
35.27
35.255
35.238
35.219
35.199
35.177
35.156
35.135
35.115
35.095
35.078
35.063
35.052
35.044
35.039
35.034
35.03
35.028
35.027
35.028
35.03
35.033
35.038
35.043
35.049
35.055
35.06
35.064
35.066
35.067
35.066
35.064
35.062
35.06
35.057
35.055
35.054
35.051
35.047
35.04
35.031
35.019
35.006
34.992
34.978
34.965
34.955
34.946
34.941
34.939
34.941
34.945
34.95
34.957
34.964
34.971
34.976
34.98
34.981
34.98
34.976
34.971
34.964
34.957
34.95
34.942
34.933
34.923
34.912
34.899
34.887
34.875
34.865
34.857
34.85
34.846
34.843
34.844
34.847
34.854
34.863
34.876
34.893
34.913
34.939
34.97
35.007
35.05
35.1
35.157
35.22
35.286
35.355
35.423
35.49
35.554
35.613
35.667
35.714
35.753
35.785
35.809
35.827
35.839
35.847
35.85
35.848
35.843
35.836
35.826
35.814
35.801
35.788
35.775
35.764
35.756
35.75
35.748
35.749
35.751
35.756
35.761
35.765
35.767
35.767
35.764
35.755
35.743
35.727
35.708
35.688
35.669
35.65
35.634
35.62
35.609
35.599
35.591
35.586
35.582
35.579
35.577
35.574
35.571
35.567
35.561
35.554
35.544
35.533
35.52
35.507
35.495
35.483
35.473
35.462
35.453
35.444
35.435
35.428
35.423
35.42
35.42
35.423
35.429
35.437
35.446
35.456
35.466
35.474
35.482
35.487
35.49
35.489
35.486
35.481
35.476
35.471
35.465
35.459
35.453
35.445
35.436
35.426
35.415
35.403
35.393
35.382
35.372
35.362
35.352
35.342
35.333
35.324
35.316
35.309
35.303
35.297
35.292
35.289
35.286
35.284
35.284
35.283
35.283
35.282
35.279
35.273
35.264
35.252
35.237
35.219
35.2
35.181
35.161
35.143
35.128
35.115
35.105
35.098
35.094
35.093
35.094
35.097
35.1
35.102
35.104
35.105
35.104
35.102
35.097
35.091
35.081
35.068
35.052
35.033
35.012
34.991
34.971
34.951
34.932
34.914
34.898
34.884
34.875
34.869
34.867
34.868
34.871
34.876
34.88
34.884
34.888
34.89
34.892
34.893
34.893
34.892
34.892
34.893
34.894
34.895
34.895
34.893
34.89
34.885
34.879
34.872
34.865
34.859
34.856
34.857
34.864
34.878
34.9
34.93
34.968
35.012
35.062
35.118
35.176
35.236
35.297
35.357
35.416
35.471
35.523
35.572
35.618
35.66
35.7
35.737
35.771
35.8
35.824
35.844
35.859
35.869
35.876
35.879
35.879
35.877
35.873
35.868
35.863
35.858
35.852
35.846
35.839
35.831
35.82
35.808
35.795
35.78
35.763
35.746
35.729
35.712
35.696
35.681
35.667
35.656
35.646
35.638
35.632
35.627
35.622
35.619
35.615
35.611
35.605
35.597
35.586
35.572
35.555
35.537
35.517
35.498
35.479
35.46
35.445
35.433
35.426
35.423
35.424
35.429
35.435
35.441
35.446
35.45
35.452
35.453
35.452
35.451
35.45
35.45
35.453
35.458
35.465
35.476
35.488
35.5
35.513
35.523
35.53
35.533
35.532
35.528
35.521
35.51
35.497
35.482
35.466
35.45
35.435
35.419
35.404
35.389
35.375
35.361
35.348
35.335
35.321
35.306
35.289
35.27
35.251
35.23
35.209
35.188
35.168
35.15
35.135
35.122
35.112
35.106
35.103
35.102
35.102
35.103
35.102
35.1
35.097
35.094
35.089
35.084
35.078
35.072
35.067
35.062
35.058
35.055
35.052
35.047
35.04
35.03
35.018
35.004
34.989
34.973
34.958
34.944
34.932
34.924
34.92
34.919
34.921
34.926
34.932
34.938
34.943
34.947
34.948
34.948
34.946
34.945
34.942
34.939
34.935
34.931
34.928
34.925
34.924
34.925
34.925
34.925
34.924
34.922
34.92
34.917
34.911
34.903
34.892
34.879
34.864
34.846
34.824
34.799
34.773
34.745
34.718
34.692
34.669
34.65
34.636
34.626
34.622
34.622
34.627
34.635
34.646
34.66
34.675
34.694
34.717
34.744
34.779
34.82
34.87
34.928
34.994
35.066
35.143
35.223
35.304
35.386
35.465
35.542
35.613
35.679
35.739
35.793
35.84
35.883
35.921
35.956
35.987
36.014
36.039
36.06
36.079
36.095
36.107
36.116
36.12
36.12
36.114
36.104
36.09
36.075
36.059
36.043
36.028
36.015
36.003
35.993
35.984
35.978
35.972
35.967
35.963
35.959
35.956
35.954
35.953
35.953
35.954
35.956
35.959
35.962
35.965
35.968
35.969
35.967
35.963
35.955
35.944
35.931
35.914
35.896
35.879
35.864
35.853
35.846
35.842
35.839
35.837
35.836
35.835
35.833
35.828
35.821
35.811
35.8
35.788
35.775
35.763
35.752
35.743
35.737
35.733
35.732
35.732
35.733
35.734
35.733
35.729
35.723
35.715
35.703
35.688
35.672
35.655
35.638
35.622
35.606
35.59
35.576
35.562
35.55
35.539
35.528
35.518
35.507
35.495
35.482
35.468
35.453
35.437
35.42
35.403
35.387
35.371
35.355
35.339
35.323
35.307
35.29
35.274
35.26
35.247
35.237
35.229
35.224
35.221
35.219
35.218
35.217
35.217
35.215
35.213
35.21
35.206
35.201
35.195
35.189
35.183
35.178
35.172
35.167
35.161
35.155
35.148
35.141
35.134
35.124
35.111
35.094
35.077
35.06
35.045
35.032
35.022
35.014
35.01
35.009
35.01
35.013
35.017
35.022
35.028
35.034
35.042
35.049
35.056
35.061
35.064
35.063
35.058
35.049
35.037
35.021
35.002
34.983
34.964
34.946
34.929
34.914
34.901
34.891
34.882
34.874
34.867
34.859
34.85
34.839
34.828
34.817
34.806
34.796
34.786
34.777
34.769
34.762
34.757
34.752
34.75
34.749
34.75
34.754
34.762
34.774
34.791
34.813
34.841
34.876
34.919
34.97
35.029
35.094
35.165
35.241
35.32
35.4
35.48
35.559
35.633
35.704
35.769
35.827
35.879
35.924
35.963
35.996
36.024
36.048
36.067
36.083
36.096
36.106
36.113
36.118
36.119
36.117
36.113
36.106
36.097
36.088
36.079
36.071
36.065
36.059
36.054
36.05
36.047
36.043
36.04
36.036
36.032
36.028
36.022
36.016
36.008
36.0
35.991
35.983
35.976
35.97
35.965
35.96
35.956
35.951
35.946
35.94
35.933
35.925
35.917
35.909
35.902
35.897
35.892
35.886
35.88
35.875
35.869
35.864
35.858
35.852
35.844
35.834
35.822
35.808
35.794
35.781
35.769
35.759
35.751
35.745
35.74
35.737
35.735
35.734
35.733
35.731
35.729
35.725
35.72
35.712
35.704
35.695
35.686
35.677
35.668
35.658
35.648
35.638
35.627
35.616
35.606
35.596
35.587
35.579
35.573
35.568
35.563
35.557
35.548
35.538
35.527
35.513
35.497
35.479
35.459
35.437
35.414
35.392
35.37
35.349
35.331
35.316
35.303
35.293
35.285
35.279
35.273
35.268
35.264
35.26
35.255
35.249
35.241
35.232
35.222
35.212
35.204
35.197
35.189
35.181
35.173
35.165
35.157
35.15
35.144
35.139
35.135
35.131
35.128
35.121
35.108
35.09
35.069
35.047
35.025
35.005
34.988
34.974
34.964
34.957
34.955
34.956
34.959
34.964
34.969
34.975
34.979
34.981
34.981
34.979
34.975
34.969
34.962
34.954
34.946
34.937
34.927
34.917
34.906
34.896
34.886
34.878
34.87
34.863
34.856
34.85
34.844
34.838
34.831
34.825
34.82
34.815
34.81
34.804
34.798
34.793
34.788
34.784
34.781
34.779
34.777
34.773
34.769
34.765
34.76
34.757
34.756
34.757
34.762
34.772
34.787
34.808
34.837
34.873
34.915
34.964
35.019
35.078
35.143
35.212
35.285
35.362
35.442
35.523
35.604
35.684
35.761
35.832
35.897
35.955
36.003
36.043
36.074
36.095
36.109
36.121
36.138
36.16
36.187
36.217
36.245
36.27
36.289
36.299
36.299
36.289
36.269
36.241
36.206
36.168
36.129
36.09
36.053
36.019
35.989
35.964
35.941
35.921
35.903
35.888
35.874
35.862
35.851
35.841
35.833
35.825
35.82
35.816
35.813
35.81
35.808
35.806
35.803
35.8
35.795
35.789
35.78
35.769
35.757
35.742
35.725
35.707
35.689
35.672
35.656
35.643
35.633
35.627
35.624
35.625
35.629
35.636
35.645
35.656
35.669
35.682
35.695
35.706
35.715
35.722
35.726
35.728
35.727
35.724
35.717
35.708
35.695
35.68
35.663
35.646
35.628
35.611
35.593
35.576
35.559
35.542
35.528
35.514
35.503
35.49
35.476
35.459
35.441
35.421
35.401
35.381
35.362
35.344
35.326
35.309
35.291
35.273
35.256
35.239
35.225
35.213
35.205
35.2
35.199
35.201
35.205
35.21
35.217
35.223
35.229
35.233
35.235
35.233
35.228
35.221
35.21
35.198
35.184
35.169
35.155
35.141
35.128
35.116
35.104
35.093
35.081
35.07
35.058
35.046
35.033
35.017
35.0
34.981
34.962
34.945
34.931
34.919
34.911
34.907
34.907
34.91
34.917
34.925
34.934
34.942
34.947
34.948
34.945
34.937
34.924
34.908
34.89
34.872
34.853
34.834
34.816
34.799
34.783
34.768
34.756
34.746
34.737
34.728
34.72
34.712
34.704
34.697
34.691
34.686
34.681
34.675
34.668
34.66
34.652
34.645
34.637
34.629
34.622
34.616
34.612
34.608
34.606
34.606
34.609
34.617
34.63
34.648
34.672
34.701
34.738
34.781
34.831
34.889
34.952
35.021
35.093
35.169
35.245
35.32
35.393
35.463
35.528
35.586
35.639
35.685
35.725
35.758
35.786
35.809
35.827
35.843
35.857
35.87
35.88
35.889
35.895
35.897
35.896
35.891
35.884
35.874
35.864
35.853
35.841
35.828
35.815
35.802
35.789
35.778
35.767
35.757
35.748
35.739
35.732
35.728
35.727
35.728
35.73
35.734
35.737
35.739
35.739
35.737
35.731
35.72
35.706
35.689
35.67
35.65
35.631
35.612
35.596
35.584
35.574
35.568
35.566
35.565
35.566
35.569
35.572
35.576
35.579
35.581
35.581
35.581
35.581
35.58
35.579
35.578
35.576
35.574
35.572
35.571
35.569
35.567
35.565
35.562
35.559
35.555
35.551
35.545
35.537
35.527
35.513
35.498
35.48
35.46
35.439
35.416
35.393
35.369
35.345
35.322
35.299
35.279
35.261
35.247
35.236
35.228
35.22
35.213
35.206
35.199
35.193
35.186
35.179
35.17
35.161
35.15
35.138
35.125
35.112
35.098
35.086
35.074
35.063
35.054
35.047
35.041
35.037
35.034
35.031
35.029
35.026
35.023
35.018
35.011
35.002
34.991
34.98
34.969
34.958
34.948
34.939
34.931
34.924
34.919
34.913
34.907
34.903
34.9
34.9
34.901
34.905
34.911
34.917
34.925
34.932
34.937
34.941
34.942
34.938
34.931
34.921
34.908
34.894
34.879
34.865
34.853
34.843
34.835
34.83
34.825
34.821
34.817
34.812
34.807
34.802
34.796
34.79
34.785
34.78
34.774
34.768
34.761
34.752
34.741
34.729
34.717
34.705
34.693
34.683
34.675
34.667
34.661
34.656
34.652
34.648
34.643
34.637
34.63
34.624
34.618
34.613
34.611
34.612
34.616
34.623
34.633
34.648
34.668
34.695
34.729
34.771
34.82
34.878
34.943
35.015
35.093
35.175
35.261
35.35
35.44
35.53
35.62
35.707
35.79
35.865
35.932
35.989
36.035
36.07
36.094
36.109
36.115
36.113
36.104
36.09
36.073
36.054
36.035
36.017
36.0
35.986
35.973
35.962
35.953
35.946
35.942
35.94
35.942
35.945
35.95
35.956
35.963
35.97
35.977
35.982
35.984
35.982
35.977
35.967
35.953
35.937
35.919
35.9
35.88
35.861
35.842
35.824
35.807
35.792
35.78
35.772
35.766
35.761
35.758
35.754
35.751
35.746
35.741
35.736
35.731
35.726
35.721
35.715
35.709
35.702
35.694
35.687
35.681
35.676
35.673
35.672
35.674
35.677
35.681
35.686
35.69
35.693
35.696
35.698
35.696
35.691
35.682
35.67
35.655
35.64
35.625
35.61
35.596
35.582
35.57
35.56
35.551
35.545
35.539
35.534
35.528
35.522
35.515
35.508
35.498
35.485
35.469
35.452
35.433
35.413
35.392
35.369
35.344
35.319
35.293
35.267
35.242
35.219
35.197
35.178
35.162
35.148
35.136
35.126
35.116
35.107
35.099
35.091
35.083
35.076
35.069
35.061
35.054
35.047
35.041
35.036
35.032
35.029
35.026
35.023
35.021
35.02
35.019
35.019
35.019
35.019
35.019
35.017
35.012
35.006
34.998
34.988
34.975
34.958
34.939
34.919
34.898
34.879
34.861
34.846
34.834
34.824
34.817
34.812
34.809
34.807
34.806
34.807
34.809
34.812
34.815
34.82
34.823
34.826
34.826
34.824
34.819
34.811
34.8
34.786
34.77
34.753
34.735
34.718
34.702
34.687
34.674
34.663
34.654
34.647
34.643
34.642
34.644
34.648
34.655
34.662
34.67
34.678
34.686
34.694
34.702
34.71
34.72
34.731
34.747
34.769
34.798
34.833
34.876
34.927
34.985
35.05
35.122
35.197
35.276
35.356
35.435
35.512
35.586
35.656
35.72
35.779
35.831
35.878
35.92
35.957
35.989
36.014
36.033
36.045
36.053
36.056
36.056
36.051
36.044
36.036
36.025
36.014
36.002
35.99
35.979
35.969
35.962
35.957
35.955
35.954
35.956
35.96
35.966
35.972
35.978
35.984
35.987
35.989
35.989
35.986
35.981
35.975
35.966
35.956
35.944
35.931
35.916
35.9
35.883
35.865
35.847
35.828
35.811
35.795
35.781
35.77
35.763
35.758
35.757
35.757
35.759
35.763
35.768
35.773
35.778
35.784
35.789
35.793
35.795
35.797
35.799
35.799
35.798
35.796
35.791
35.783
35.774
35.763
35.752
35.741
35.73
35.72
35.71
35.701
35.692
35.684
35.676
35.67
35.665
35.659
35.652
35.644
35.636
35.627
35.619
35.611
35.603
35.593
35.582
35.569
35.555
35.539
35.521
35.501
35.479
35.455
35.431
35.407
35.385
35.364
35.345
35.327
35.31
35.295
35.281
35.267
35.252
35.237
35.222
35.207
35.193
35.18
35.168
35.157
35.147
35.136
35.127
35.117
35.106
35.096
35.085
35.078
35.078
35.087
35.104
35.126
35.149
35.173
35.194
35.21
35.221
35.226
35.224
35.216
35.202
35.183
35.16
35.134
35.104
35.071
35.037
35.002
34.969
34.938
34.912
34.889
34.873
34.861
34.855
34.855
34.858
34.864
34.873
34.884
34.896
34.907
34.918
34.926
34.932
34.933
34.931
34.923
34.912
34.897
34.88
34.86
34.838
34.816
34.795
34.775
34.758
34.743
34.73
34.72
34.711
34.703
34.698
34.694
34.691
34.689
34.688
34.688
34.689
34.69
34.692
34.694
34.699
34.706
34.717
34.735
34.761
34.796
34.843
34.901
34.969
35.047
35.132
35.222
35.313
35.406
35.498
35.588
35.674
35.754
35.826
35.891
35.946
35.992
36.028
36.054
36.071
36.081
36.083
36.081
36.075
36.067
36.058
36.049
36.041
36.033
36.027
36.022
36.017
36.012
36.008
36.004
36.0
35.998
35.996
35.995
35.995
35.996
35.998
35.999
35.998
35.996
35.992
35.988
35.983
35.977
35.973
35.968
35.965
35.962
35.959
35.956
35.95
35.94
35.927
35.91
35.891
35.87
35.849
35.828
35.808
35.79
35.774
35.761
35.75
35.741
35.735
35.731
35.729
35.729
35.73
35.732
35.736
35.74
35.744
35.748
35.751
35.751
35.749
35.745
35.739
35.731
35.722
35.713
35.704
35.695
35.687
35.681
35.675
35.67
35.665
35.658
35.649
35.635
35.612
35.581
35.545
35.505
35.464
35.423
35.384
35.349
35.319
35.294
35.276
35.264
35.257
35.255
35.258
35.264
35.272
35.281
35.29
35.296
35.301
35.302
35.302
35.299
35.294
35.289
35.284
35.279
35.273
35.267
35.261
35.256
35.251
35.249
35.248
35.25
35.252
35.255
35.259
35.263
35.266
35.268
35.268
35.264
35.256
35.244
35.227
35.208
35.186
35.163
35.141
35.12
35.1
35.082
35.066
35.052
35.041
35.032
35.026
35.021
35.018
35.016
35.014
35.012
35.01
35.007
35.003
34.996
34.986
34.973
34.959
34.943
34.926
34.91
34.895
34.881
