Trial 1:0back
31.46
31.457
31.453
31.448
31.444
31.438
31.432
31.426
31.417
31.408
31.396
31.382
31.366
31.349
31.331
31.312
31.294
31.28
31.271
31.269
31.279
31.302
31.343
31.406
31.495
31.614
31.767
31.959
32.193
32.471
32.797
33.175
33.608
34.099
34.648
35.253
35.909
36.607
37.337
38.085
38.837
39.579
40.297
40.976
41.605
42.172
42.67
43.095
43.442
43.711
43.906
44.03
44.087
44.084
44.027
43.925
43.783
43.609
43.41
43.19
42.956
42.712
42.462
42.21
41.958
41.708
41.463
41.222
40.988
40.76
40.537
40.321
40.11
39.905
39.704
39.508
39.317
39.129
38.944
38.762
38.583
38.406
38.232
38.062
37.895
37.731
37.57
37.411
37.255
37.102
36.952
36.806
36.666
36.533
36.407
36.29
36.184
36.088
36.003
35.929
35.866
35.812
35.769
35.735
35.711
35.696
35.689
35.692
35.702
35.718
35.74
35.765
35.793
35.821
35.85
35.877
35.902
35.925
35.945
35.961
35.971
35.977
35.977
35.97
35.956
35.936
35.907
35.872
35.831
35.783
35.729
35.669
35.605
35.536
35.462
35.385
35.304
35.22
35.133
35.045
34.955
34.865
34.775
34.684
34.594
34.502
34.407
34.308
34.206
34.101
33.996
33.893
33.794
33.699
33.608
33.523
33.444
33.371
33.304
33.242
33.185
33.131
33.079
33.027
32.974
32.919
32.862
32.804
32.746
32.689
32.633
32.578
32.526
32.475
32.425
32.376
32.329
32.284
32.24
32.198
32.159
32.123
32.09
32.06
32.033
32.01
31.989
31.972
31.957
31.943
31.93
31.918
31.906
31.894
31.884
31.874
31.865
31.857
31.85
31.841
31.832
31.822
31.812
31.803
31.795
31.789
31.785
31.782
31.778
31.774
31.769
31.763
31.755
31.748
31.739
31.73
31.72
31.709
31.696
31.683
31.671
31.66
31.65
31.644
31.642
31.646
31.66
31.687
31.733
31.801
31.898
32.026
32.192
32.398
32.65
32.951
33.304
33.712
34.179
34.703
35.284
35.916
36.591
37.299
38.028
38.765
39.496
40.207
40.885
41.518
42.096
42.611
43.057
43.43
43.728
43.954
44.11
44.2
44.23
44.205
44.133
44.02
43.873
43.698
43.501
43.287
43.061
42.827
42.588
42.348
42.107
41.869
41.634
41.402
41.173
40.949
40.729
40.514
40.304
40.102
39.906
39.717
39.534
39.357
39.184
39.015
38.849
38.686
38.524
38.363
38.203
38.044
37.885
37.727
37.57
37.415
37.263
37.113
36.968
36.828
36.695
36.569
36.451
36.343
36.245
36.158
36.084
36.021
35.971
35.933
35.907
35.891
35.885
35.887
35.895
35.91
35.931
35.955
35.982
36.011
36.04
36.066
36.088
36.104
36.114
36.117
36.114
36.104
36.089
36.068
36.043
36.013
35.976
35.934
35.885
35.831
35.772
35.709
35.641
35.57
35.497
35.421
35.343
35.261
35.177
35.09
35.001
34.911
34.82
34.729
34.638
34.547
34.456
34.365
34.273
34.18
34.086
33.992
33.898
33.805
33.715
33.627
33.541
33.457
33.375
33.294
33.216
33.141
33.068
32.998
32.932
32.868
32.807
32.75
32.696
32.647
32.601
32.558
32.518
32.479
32.441
32.404
32.365
32.326
32.287
32.249
32.211
32.173
32.137
32.102
32.068
32.034
32.0
31.967
31.934
31.902
31.873
31.847
31.824
31.805
31.791
31.78
31.774
31.771
31.771
31.774
31.778
31.783
31.788
31.793
31.797
31.8
31.803
31.806
31.808
31.809
31.807
31.803
31.795
31.784
31.77
31.755
31.738
31.72
31.702
31.684
31.666
31.647
31.629
31.613
31.599
31.587
31.579
31.574
31.574
31.579
31.592
31.616
31.653
31.71
31.791
31.901
32.046
32.229
32.457
32.733
33.061
33.446
33.892
34.402
34.975
35.609
36.297
37.031
37.797
38.581
39.368
40.143
40.891
41.6
42.256
42.851
43.377
43.83
44.208
44.51
44.737
44.893
44.982
45.01
44.983
44.91
44.795
44.647
44.47
44.273
44.059
43.835
43.604
43.371
43.137
42.905
42.676
42.453
42.235
42.025
41.821
41.626
41.438
41.259
41.086
40.921
40.763
40.61
40.463
40.319
40.179
40.041
39.903
39.766
39.627
39.487
39.345
39.2
39.054
38.905
38.754
38.601
38.448
38.296
38.145
37.997
37.854
37.716
37.586
37.463
37.348
37.241
37.143
37.054
36.974
36.904
36.845
36.794
36.753
36.719
36.693
36.672
36.657
36.646
36.64
36.638
36.638
36.639
36.64
36.64
36.637
36.63
36.617
36.599
36.577
36.549
36.518
36.482
36.441
36.396
36.345
36.289
36.227
36.16
36.088
36.012
35.931
35.848
35.761
35.671
35.577
35.48
35.38
35.277
35.173
35.068
34.964
34.86
34.756
34.654
34.553
34.452
34.351
34.252
34.155
34.06
33.968
33.879
33.793
33.711
33.63
33.552
33.476
33.403
33.333
33.264
33.198
33.135
33.073
33.015
32.958
32.903
32.851
32.8
32.752
32.706
32.664
32.625
32.59
32.556
32.524
32.493
32.463
32.434
32.404
32.374
32.342
32.308
32.272
32.234
32.197
32.16
32.125
32.093
32.064
32.038
32.016
31.998
31.984
31.973
31.965
31.959
31.954
31.95
31.946
31.941
31.936
31.93
31.924
31.918
31.912
31.904
31.895
31.882
31.868
31.85
31.831
31.81
31.79
31.77
31.751
31.734
31.718
31.704
31.693
31.689
31.694
31.712
31.748
31.805
31.887
32.0
32.146
32.332
32.561
32.84
33.175
33.569
34.028
34.551
35.136
35.778
36.467
37.193
37.943
38.702
39.456
40.191
40.892
41.549
42.151
42.69
43.16
43.558
43.883
44.136
44.32
44.44
44.499
44.505
44.464
44.382
44.267
44.124
43.959
43.776
43.579
43.372
43.158
42.94
42.721
42.503
42.288
42.077
41.87
41.669
41.475
41.288
41.108
40.936
40.772
40.613
40.461
40.313
40.169
40.029
39.891
39.754
39.618
39.481
39.341
39.2
39.055
38.908
38.759
38.607
38.454
38.301
38.148
37.995
37.842
37.693
37.546
37.405
37.269
37.139
37.017
36.903
36.798
36.703
36.617
36.542
36.477
36.423
36.378
36.344
36.317
36.298
36.284
36.275
36.267
36.259
36.247
36.23
36.209
36.184
36.157
36.128
36.098
36.066
36.032
35.996
35.957
35.915
35.872
35.826
35.778
35.728
35.674
35.615
35.551
35.482
35.406
35.324
35.237
35.145
35.049
34.95
34.85
34.748
34.646
34.543
34.439
34.336
34.233
34.132
34.032
33.935
33.841
33.749
33.658
33.569
33.481
33.393
33.306
33.219
33.132
33.047
32.962
32.878
32.796
32.716
32.638
32.562
32.488
32.419
32.352
32.289
32.228
32.17
32.115
32.063
32.014
31.968
31.926
31.888
31.853
31.82
31.789
31.76
31.732
31.705
31.681
31.658
31.636
31.615
31.594
31.574
31.554
31.535
31.517
31.501
31.487
31.476
31.465
31.455
31.446
31.438
31.43
31.424
31.42
31.417
31.414
31.411
31.407
31.4
31.391
31.378
31.362
31.344
31.324
31.302
31.28
31.258
31.238
31.221
31.209
31.203
31.205
31.218
31.242
31.28
31.337
31.416
31.521
31.657
31.829
32.041
32.299
32.606
32.969
33.39
33.872
34.416
35.019
35.675
36.376
37.109
37.864
38.624
39.375
40.102
40.792
41.431
42.011
42.524
42.964
43.33
43.619
43.833
43.976
44.053
44.069
44.033
43.95
43.828
43.674
43.494
43.295
43.083
42.862
42.638
42.411
42.185
41.96
41.738
41.519
41.305
41.096
40.894
40.699
40.512
40.332
40.16
39.996
39.84
39.69
39.545
39.404
39.266
39.129
38.992
38.854
38.713
38.57
38.423
38.273
38.119
37.961
37.801
37.64
37.479
37.321
37.166
37.016
36.872
36.736
36.608
36.489
36.38
36.281
36.194
36.117
36.05
35.995
35.948
35.911
35.881
35.858
35.841
35.827
35.817
35.809
35.801
35.794
35.785
35.775
35.764
35.75
35.732
35.712
35.687
35.658
35.625
35.587
35.546
35.499
35.447
35.39
35.327
35.26
35.189
35.114
35.034
34.951
34.865
34.777
34.686
34.593
34.499
34.402
34.305
34.206
34.105
34.005
33.904
33.803
33.703
33.606
33.511
33.419
33.331
33.247
33.167
33.09
33.017
32.946
32.877
32.81
32.746
32.683
32.621
32.561
32.502
32.444
32.386
32.329
32.272
32.215
32.158
32.103
32.049
31.998
31.95
31.905
31.862
31.82
31.781
31.743
31.707
31.673
31.64
31.609
31.579
31.551
31.525
31.502
31.481
31.464
31.45
31.438
31.425
31.413
31.4
31.386
31.371
31.355
31.339
31.322
31.303
31.283
31.26
31.237
31.215
31.193
31.174
31.157
31.144
31.134
31.127
31.122
31.121
31.122
31.129
31.143
31.165
31.198
31.244
31.307
31.392
31.502
31.644
31.823
32.043
32.309
32.628
33.004
33.439
33.937
34.496
35.111
35.778
36.485
37.221
37.973
38.726
39.467
40.18
40.854
41.477
42.04
42.535
42.957
43.304
43.576
43.773
43.898
43.957
43.955
43.9
43.799
43.66
43.49
43.296
43.084
42.861
42.63
42.396
42.162
41.929
41.7
41.474
41.253
41.037
40.827
40.624
40.426
40.235
40.05
39.871
39.698
39.531
39.369
39.21
39.052
38.892
38.729
38.563
38.395
38.225
38.055
37.887
37.722
37.56
37.402
37.248
37.098
36.952
36.81
36.673
36.542
36.416
36.298
36.187
36.084
35.989
35.902
35.824
35.754
35.692
35.639
35.593
35.556
35.525
35.501
35.482
35.469
35.459
35.453
35.45
35.448
35.446
35.443
35.439
35.432
35.421
35.408
35.391
35.371
35.346
35.317
35.283
35.245
35.202
35.153
35.101
35.044
34.982
34.917
34.847
34.772
34.694
34.611
34.524
34.434
34.342
34.248
34.153
34.058
33.961
33.864
33.767
33.67
33.575
33.482
33.389
33.298
33.208
33.12
33.033
32.949
32.868
32.79
32.716
32.645
32.576
32.511
32.45
32.392
32.336
32.283
32.231
32.18
32.129
32.078
32.028
31.978
31.928
31.878
31.827
31.777
31.726
31.676
31.628
31.581
31.537
31.495
31.457
31.423
31.391
31.362
31.336
31.312
31.292
31.272
31.254
31.235
31.215
31.193
31.168
31.142
31.114
31.086
31.057
31.028
30.999
30.97
30.942
30.917
30.896
30.88
30.873
30.875
30.89
30.919
30.967
31.038
31.136
31.267
31.434
31.642
31.896
32.2
32.558
32.975
33.451
33.987
34.579
35.223
35.909
36.628
37.365
38.107
38.838
39.543
40.211
40.828
41.386
41.877
42.294
42.634
42.898
43.087
43.206
43.261
43.258
43.204
43.107
42.975
42.813
42.629
42.427
42.213
41.988
41.758
41.523
41.286
41.049
40.814
40.582
40.354
40.132
39.916
39.707
39.506
39.312
39.125
38.944
38.767
38.594
38.423
38.254
38.087
37.92
37.755
37.59
37.425
37.262
37.099
36.937
36.777
36.618
36.46
36.304
36.152
36.003
35.861
35.726
35.6
35.484
35.379
35.285
35.202
35.128
35.064
35.008
34.96
34.918
34.884
34.856
34.834
34.817
34.805
34.797
34.792
34.789
34.789
34.792
34.796
34.801
34.807
34.813
34.816
34.814
34.808
34.796
34.778
34.754
34.725
34.69
34.649
34.603
34.551
34.493
34.429
34.359
34.285
34.207
34.126
34.044
33.961
33.877
33.792
33.707
33.621
33.536
33.451
33.367
33.285
33.203
33.124
33.047
32.971
32.895
32.82
32.744
32.668
32.592
32.517
32.443
32.369
32.297
32.227
32.158
32.09
32.024
31.959
31.896
31.837
31.78
31.727
31.677
31.628
31.581
31.535
31.49
31.448
31.407
31.37
31.334
31.301
31.27
31.241
31.212
31.184
31.157
31.129
31.101
31.073
31.045
31.018
30.991
30.966
30.942
30.92
30.9
30.882
30.867
30.854
30.843
30.833
30.827
30.825
30.83
30.844
30.87
30.914
30.977
31.065
31.183
31.335
31.528
31.768
32.06
32.413
32.83
33.313
33.862
34.469
35.128
35.826
36.55
37.287
38.019
38.734
39.417
40.055
40.639
41.16
41.612
41.991
42.296
42.526
42.686
42.779
42.81
42.785
42.711
42.594
42.441
42.26
42.056
41.836
41.605
41.365
41.121
40.876
40.631
40.39
40.153
39.922
39.696
39.476
39.263
39.055
38.854
38.66
38.471
38.289
38.112
37.938
37.766
37.596
37.425
37.255
37.084
36.915
36.746
36.58
36.416
36.254
36.094
35.938
35.785
35.638
35.497
35.364
35.239
35.124
35.019
34.924
34.839
34.763
34.698
34.642
34.597
34.563
34.54
34.526
34.522
34.526
34.536
34.553
34.575
34.601
34.63
34.66
34.692
34.722
34.751
34.776
34.796
34.811
34.819
34.819
34.812
34.797
34.773
34.742
34.705
34.66
34.61
34.554
34.493
34.427
34.355
34.278
34.196
34.11
34.019
33.926
33.83
33.735
33.639
33.544
33.45
33.358
33.267
33.178
33.091
33.007
32.924
32.843
32.765
32.689
32.616
32.545
32.475
32.408
32.343
32.278
32.214
32.15
32.087
32.024
31.961
31.898
31.835
31.773
31.711
31.65
31.59
31.532
31.477
31.426
31.379
31.336
31.297
31.263
31.232
31.204
31.179
31.157
31.137
31.118
31.101
31.084
31.068
31.053
31.037
31.019
31.001
30.981
30.961
30.939
30.917
30.895
30.872
30.85
30.829
30.81
30.794
30.78
30.772
30.77
30.778
30.798
30.833
30.886
30.963
31.069
31.208
31.388
31.616
31.898
32.241
32.65
33.128
33.674
34.284
34.949
35.66
36.401
37.159
37.917
38.66
39.375
40.047
40.667
41.225
41.714
42.13
42.472
42.738
42.932
43.057
43.118
43.119
43.069
42.974
42.843
42.681
42.497
42.296
42.084
41.864
41.641
41.417
41.195
40.975
40.758
40.545
40.335
40.13
39.929
39.734
39.543
39.359
39.18
39.008
38.842
38.68
38.523
38.369
38.217
38.066
37.916
37.766
37.617
37.469
37.32
37.172
37.023
36.874
36.726
36.577
36.43
36.285
36.144
36.009
35.879
35.757
35.642
35.535
35.437
35.349
35.271
35.204
35.148
35.104
35.072
35.051
35.04
35.037
35.042
35.051
35.063
35.078
35.094
35.109
35.124
35.137
35.147
35.155
35.159
35.158
35.152
35.138
35.116
35.086
35.046
34.998
34.944
34.884
34.82
34.751
34.68
34.604
34.525
34.444
34.359
34.274
34.187
34.101
34.015
33.929
33.842
33.754
33.664
33.57
33.474
33.376
33.278
33.18
33.084
32.99
32.898
32.807
32.719
32.631
32.545
32.461
32.379
32.299
32.223
32.151
32.082
32.018
31.957
31.898
31.842
31.788
31.736
31.685
31.637
31.592
31.549
31.51
31.473
31.437
31.402
31.366
31.329
31.293
31.257
31.222
31.189
31.157
31.126
31.098
31.07
31.044
31.02
30.996
30.975
30.956
30.939
30.925
30.915
30.907
30.903
30.901
30.9
30.9
30.899
30.896
30.891
30.885
30.877
30.868
30.857
30.843
30.828
30.81
30.792
30.774
30.761
30.755
30.759
30.778
30.815
30.875
30.962
31.083
31.243
31.45
31.712
32.037
32.432
32.9
33.441
34.052
34.725
35.449
36.211
36.996
37.789
38.574
39.336
40.061
40.736
41.351
41.899
42.373
42.771
43.094
43.343
43.522
43.634
43.687
43.686
43.638
43.551
43.43
43.283
43.114
42.929
42.732
42.528
42.321
42.112
41.905
41.701
41.501
41.306
41.116
40.93
40.749
40.572
40.399
40.232
40.07
39.914
39.763
39.618
39.478
39.344
39.214
39.086
38.96
38.833
38.704
38.574
38.44
38.304
38.166
38.026
37.884
37.74
37.597
37.453
37.31
37.17
37.033
36.9
36.773
36.652
36.538
36.433
36.337
36.25
36.172
36.102
36.04
35.985
35.936
35.894
35.859
35.83
35.808
35.792
35.781
35.775
35.775
35.781
35.792
35.806
35.818
35.828
35.831
35.827
35.814
35.79
35.756
35.712
35.658
35.595
35.523
35.444
35.359
35.268
35.173
35.074
34.974
34.872
34.769
34.664
34.559
34.454
34.349
34.246
34.145
34.047
33.95
33.856
33.762
33.669
33.576
33.484
33.393
33.303
33.214
33.126
33.038
32.95
32.862
32.775
32.689
32.605
32.522
32.443
32.366
32.292
32.221
32.152
32.086
32.02
31.957
31.894
31.833
31.773
31.716
31.661
31.609
31.559
31.513
31.469
31.427
31.386
31.346
31.307
31.268
31.23
31.193
31.159
31.129
31.102
31.078
31.057
31.039
31.022
31.006
30.99
30.976
30.962
30.951
30.941
30.933
30.927
30.92
30.914
30.907
30.898
30.888
30.878
30.867
30.856
30.846
30.835
30.824
30.814
30.803
30.792
30.78
30.768
30.756
30.745
30.736
30.732
30.735
30.749
30.776
30.823
30.893
30.992
31.128
31.308
31.54
31.833
32.195
32.63
33.141
33.725
34.376
35.086
35.841
36.627
37.428
38.227
39.008
39.756
40.459
41.105
41.685
42.193
42.625
42.98
43.258
43.463
43.6
43.674
43.692
43.66
43.586
43.475
43.33
43.157
42.963
42.755
42.538
42.318
42.098
41.882
41.672
41.469
41.275
41.088
40.91
40.737
40.569
40.406
40.245
40.086
39.93
39.775
39.622
39.471
39.321
39.173
39.026
38.879
38.734
38.589
38.444
38.299
38.153
38.008
37.861
37.715
37.568
37.422
37.278
37.136
36.997
36.863
36.735
36.613
36.498
36.391
36.291
36.199
36.115
36.039
35.971
35.911
35.859
35.816
35.781
35.754
35.734
35.72
35.71
35.704
35.7
35.697
35.694
35.69
35.685
35.678
35.668
35.655
35.637
35.613
35.583
35.547
35.503
35.453
35.396
35.335
35.27
35.2
35.128
35.051
34.971
34.887
34.798
34.706
34.612
34.516
34.419
34.323
34.229
34.137
34.046
33.956
33.867
33.778
33.689
33.601
33.513
33.425
33.338
33.251
33.163
33.075
32.987
32.9
32.813
32.728
32.644
32.563
32.484
32.407
32.333
32.261
32.192
32.126
32.062
32.001
31.942
31.883
31.825
31.767
31.709
31.652
31.597
31.545
31.494
31.446
31.401
31.357
31.317
31.28
31.247
31.218
31.193
31.17
31.148
31.127
31.104
31.08
31.056
31.032
31.009
30.988
30.968
30.952
30.936
30.922
30.908
30.895
30.883
30.873
30.864
30.857
30.852
30.85
30.85
30.852
30.854
30.855
30.855
30.851
30.845
30.836
30.824
30.809
30.794
30.777
30.76
30.743
30.727
30.713
30.701
30.695
30.697
30.71
30.738
30.786
30.859
30.962
31.103
31.289
31.526
31.823
32.186
32.621
33.129
33.708
34.354
35.055
35.801
36.577
37.367
38.154
38.924
39.66
40.349
40.981
41.546
42.04
42.459
42.804
43.074
43.272
43.403
43.472
43.485
43.449
43.37
43.254
43.107
42.935
42.743
42.536
42.319
42.095
41.868
41.638
41.409
41.183
40.96
40.741
40.527
40.318
40.113
39.914
39.719
39.528
39.34
39.156
38.974
38.796
38.62
38.448
38.278
38.11
37.945
37.782
37.621
37.464
37.309
37.158
37.009
36.864
36.721
36.581
36.445
36.314
36.189
36.071
35.962
35.862
35.771
35.689
35.618
35.556
35.503
35.461
35.428
35.406
35.394
35.392
35.399
35.414
35.435
35.46
35.488
35.517
35.547
35.575
35.602
35.626
35.646
35.661
35.671
35.673
35.668
35.654
35.631
35.599
35.558
35.508
35.451
35.387
35.317
35.242
35.162
35.078
34.99
34.899
34.807
34.713
34.618
34.521
34.423
34.323
34.222
34.119
34.016
33.913
33.81
33.709
33.611
33.516
33.422
33.332
33.244
33.157
33.072
32.988
32.906
32.825
32.746
32.669
32.594
32.52
32.448
32.377
32.308
32.24
32.175
32.112
32.051
31.993
31.938
31.886
31.837
31.791
31.749
31.709
31.671
31.634
31.6
31.566
31.534
31.503
31.474
31.447
31.421
31.395
31.37
31.344
31.319
31.295
31.273
31.253
31.235
31.219
31.206
31.193
31.181
31.169
31.158
31.149
31.141
31.135
31.131
31.128
31.124
31.12
31.114
31.105
31.095
31.082
31.068
31.052
31.035
31.018
31.002
30.989
30.983
30.987
31.003
31.036
31.089
31.168
31.277
31.421
31.607
31.843
32.134
32.489
32.91
33.402
33.962
34.585
35.263
35.984
36.735
37.5
38.264
39.009
39.724
40.394
41.011
41.565
42.051
42.464
42.806
43.075
43.276
43.412
43.487
43.506
43.476
43.403
43.292
43.151
42.984
42.797
42.594
42.38
42.159
41.934
41.707
41.48
41.254
41.031
40.81
40.592
40.377
40.166
39.957
39.752
39.549
39.35
39.153
38.96
38.77
38.584
38.402
38.223
38.048
37.876
37.706
37.538
37.373
37.211
37.054
36.901
36.753
36.608
36.469
36.334
36.205
36.081
35.965
35.856
35.754
35.661
35.577
35.503
35.438
35.385
35.342
35.311
35.291
35.282
35.282
35.291
35.306
35.326
35.35
35.377
35.406
35.435
35.463
35.49
35.514
35.535
35.55
35.559
35.562
35.557
35.546
35.527
35.501
35.468
35.429
35.383
35.33
35.27
35.204
35.131
35.052
34.969
34.882
34.791
34.697
34.602
34.504
34.404
34.302
34.197
34.092
33.986
33.88
33.776
33.675
33.577
33.483
33.392
33.305
33.22
33.139
33.061
32.986
32.913
32.843
32.776
32.71
32.646
32.583
32.521
32.459
32.396
32.334
32.271
32.207
32.143
32.079
32.015
31.952
31.893
31.836
31.783
31.735
31.69
31.647
31.607
31.569
31.532
31.497
31.465
31.437
31.412
31.39
31.371
31.352
31.335
31.317
31.3
31.284
