Trial 1:0back
35.324
35.301
35.278
35.253
35.228
35.2
35.171
35.141
35.11
35.079
35.048
35.018
34.992
34.969
34.952
34.941
34.936
34.937
34.944
34.959
34.98
35.007
35.039
35.078
35.121
35.168
35.217
35.269
35.321
35.372
35.422
35.468
35.509
35.546
35.578
35.604
35.624
35.638
35.645
35.646
35.64
35.628
35.609
35.583
35.553
35.519
35.481
35.44
35.397
35.353
35.307
35.259
35.211
35.161
35.112
35.064
35.017
34.971
34.927
34.885
34.845
34.807
34.772
34.739
34.708
34.68
34.654
34.63
34.609
34.589
34.572
34.556
34.541
34.528
34.515
34.501
34.487
34.473
34.457
34.441
34.425
34.408
34.392
34.376
34.361
34.347
34.335
34.324
34.316
34.309
34.304
34.3
34.298
34.296
34.295
34.295
34.295
34.296
34.298
34.3
34.303
34.306
34.31
34.314
34.317
34.32
34.323
34.324
34.326
34.327
34.327
34.325
34.322
34.318
34.311
34.303
34.293
34.281
34.268
34.254
34.24
34.225
34.211
34.198
34.185
34.174
34.164
34.155
34.147
34.141
34.135
34.129
34.125
34.121
34.118
34.115
34.112
34.109
34.106
34.102
34.096
34.089
34.08
34.07
34.058
34.046
34.032
34.016
34.0
33.984
33.966
33.949
33.93
33.912
33.893
33.874
33.855
33.837
33.821
33.807
33.796
33.788
33.785
33.787
33.795
33.811
33.837
33.876
33.93
34.0
34.089
34.198
34.326
34.474
34.639
34.817
35.007
35.203
35.402
35.6
35.792
35.974
36.143
36.296
36.431
36.544
36.637
36.707
36.754
36.781
36.786
36.774
36.744
36.699
36.642
36.574
36.498
36.415
36.328
36.237
36.145
36.053
35.962
35.873
35.788
35.707
35.63
35.559
35.493
35.432
35.376
35.326
35.281
35.241
35.205
35.173
35.144
35.117
35.092
35.068
35.044
35.02
34.994
34.968
34.941
34.914
34.887
34.859
34.832
34.805
34.779
34.754
34.73
34.709
34.692
34.679
34.671
34.669
34.672
34.682
34.698
34.721
34.75
34.785
34.825
34.869
34.917
34.968
35.021
35.075
35.127
35.178
35.225
35.269
35.307
35.34
35.367
35.388
35.401
35.407
35.406
35.397
35.381
35.359
35.331
35.299
35.263
35.223
35.181
35.136
35.089
35.041
34.992
34.943
34.895
34.848
34.802
34.758
34.716
34.676
34.638
34.602
34.568
34.538
34.51
34.485
34.464
34.444
34.426
34.41
34.394
34.379
34.365
34.351
34.337
34.324
34.311
34.298
34.286
34.273
34.259
34.246
34.233
34.22
34.207
34.194
34.181
34.169
34.158
34.148
34.138
34.129
34.121
34.114
34.108
34.104
34.101
34.098
34.097
34.097
34.097
34.097
34.098
34.099
34.101
34.103
34.106
34.109
34.113
34.117
34.121
34.124
34.127
34.13
34.133
34.135
34.135
34.134
34.131
34.127
34.12
34.113
34.104
34.093
34.082
34.071
34.06
34.049
34.038
34.027
34.017
34.008
33.999
33.991
33.984
33.978
33.973
33.97
33.966
33.963
33.958
33.952
33.944
33.935
33.923
33.911
33.898
33.884
33.871
33.858
33.846
33.834
33.821
33.809
33.796
33.782
33.769
33.755
33.742
33.73
33.718
33.708
33.7
33.694
33.691
33.69
33.693
33.702
33.718
33.743
33.781
33.833
33.903
33.992
34.101
34.231
34.381
34.549
34.733
34.929
35.134
35.343
35.553
35.759
35.956
36.142
36.312
36.463
36.594
36.702
36.788
36.85
36.89
36.908
36.907
36.888
36.853
36.804
36.743
36.672
36.593
36.508
36.419
36.328
36.237
36.146
36.058
35.973
35.891
35.814
35.742
35.675
35.613
35.557
35.508
35.464
35.427
35.394
35.367
35.343
35.323
35.305
35.29
35.276
35.262
35.249
35.234
35.219
35.201
35.18
35.157
35.13
35.1
35.068
35.036
35.004
34.975
34.948
34.925
34.908
34.896
34.891
34.893
34.903
34.921
34.945
34.976
35.013
35.055
35.1
35.149
35.2
35.251
35.302
35.353
35.401
35.447
35.489
35.526
35.559
35.585
35.604
35.616
35.621
35.618
35.609
35.593
35.572
35.545
35.515
35.48
35.444
35.405
35.364
35.323
35.282
35.24
35.2
35.161
35.124
35.088
35.055
35.023
34.994
34.966
34.94
34.914
34.89
34.866
34.842
34.818
34.793
34.767
34.74
34.714
34.688
34.663
34.639
34.617
34.596
34.577
34.559
34.542
34.527
34.513
34.501
34.489
34.479
34.47
34.462
34.455
34.449
34.444
34.438
34.434
34.429
34.424
34.419
34.415
34.411
34.407
34.403
34.399
34.395
34.391
34.387
34.384
34.381
34.379
34.377
34.376
34.374
34.373
34.371
34.368
34.365
34.362
34.358
34.354
34.351
34.347
34.344
34.341
34.338
34.336
34.334
34.331
34.328
34.324
34.319
34.314
34.309
34.302
34.295
34.287
34.278
34.268
34.258
34.246
34.235
34.223
34.211
34.198
34.186
34.173
34.16
34.147
34.134
34.122
34.111
34.1
34.09
34.081
34.072
34.064
34.056
34.048
34.041
34.034
34.028
34.022
34.017
34.012
34.008
34.003
33.998
33.992
33.986
33.98
33.974
33.969
33.968
33.972
33.983
34.003
34.037
34.086
34.153
34.24
34.348
34.479
34.63
34.801
34.989
35.19
35.4
35.615
35.83
36.042
36.245
36.436
36.612
36.77
36.908
37.024
37.117
37.187
37.234
37.258
37.261
37.244
37.209
37.159
37.096
37.023
36.942
36.855
36.765
36.673
36.582
36.493
36.407
36.325
36.248
36.176
36.109
36.049
35.993
35.943
35.897
35.856
35.818
35.783
35.752
35.723
35.696
35.67
35.646
35.622
35.599
35.576
35.552
35.528
35.503
35.477
35.45
35.421
35.393
35.366
35.34
35.316
35.296
35.279
35.268
35.261
35.261
35.266
35.276
35.292
35.312
35.338
35.368
35.403
35.441
35.482
35.526
35.571
35.617
35.664
35.709
35.753
35.794
35.832
35.866
35.896
35.922
35.942
35.956
35.965
35.967
35.963
35.953
35.936
35.914
35.888
35.857
35.822
35.785
35.745
35.702
35.658
35.612
35.566
35.519
35.474
35.43
35.388
35.348
35.312
35.279
35.25
35.223
35.198
35.174
35.151
35.129
35.108
35.086
35.064
35.043
35.021
34.998
34.975
34.952
34.928
34.906
34.884
34.863
34.843
34.825
34.808
34.792
34.777
34.764
34.751
34.74
34.73
34.721
34.715
34.71
34.706
34.703
34.701
34.699
34.697
34.695
34.693
34.691
34.689
34.688
34.685
34.682
34.677
34.672
34.664
34.655
34.644
34.633
34.62
34.607
34.593
34.581
34.571
34.562
34.556
34.551
34.548
34.548
34.548
34.55
34.552
34.554
34.555
34.555
34.553
34.549
34.543
34.536
34.527
34.517
34.506
34.495
34.482
34.469
34.454
34.438
34.422
34.404
34.387
34.37
34.353
34.337
34.322
34.307
34.293
34.281
34.27
34.26
34.252
34.245
34.239
34.234
34.229
34.225
34.22
34.216
34.21
34.204
34.196
34.187
34.177
34.166
34.155
34.145
34.137
34.133
34.135
34.144
34.164
34.198
34.248
34.316
34.406
34.518
34.652
34.808
34.984
35.178
35.386
35.604
35.829
36.055
36.278
36.493
36.695
36.881
37.048
37.193
37.314
37.41
37.481
37.528
37.551
37.553
37.536
37.502
37.453
37.391
37.32
37.241
37.158
37.07
36.982
36.893
36.806
36.721
36.639
36.561
36.487
36.418
36.355
36.296
36.241
36.191
36.145
36.103
36.065
36.03
35.998
35.97
35.943
35.918
35.894
35.87
35.846
35.82
35.792
35.763
35.732
35.7
35.668
35.635
35.604
35.573
35.544
35.519
35.497
35.481
35.47
35.466
35.468
35.478
35.495
35.519
35.55
35.586
35.628
35.674
35.724
35.777
35.833
35.891
35.948
36.005
36.06
36.111
36.157
36.196
36.228
36.252
36.268
36.275
36.275
36.267
36.253
36.232
36.207
36.179
36.147
36.113
36.078
36.043
36.008
35.974
35.94
35.907
35.874
35.841
35.809
35.775
35.741
35.707
35.671
35.635
35.599
35.562
35.526
35.49
35.456
35.423
35.392
35.363
35.336
35.311
35.288
35.267
35.249
35.233
35.219
35.207
35.196
35.186
35.175
35.165
35.153
35.141
35.128
35.115
35.101
35.086
35.071
35.056
35.041
35.027
35.013
34.999
34.987
34.975
34.965
34.956
34.949
34.944
34.94
34.937
34.936
34.934
34.933
34.931
34.93
34.928
34.926
34.924
34.921
34.918
34.915
34.912
34.909
34.905
34.902
34.898
34.893
34.886
34.879
34.87
34.86
34.848
34.837
34.825
34.814
34.803
34.793
34.784
34.775
34.766
34.758
34.749
34.741
34.732
34.723
34.712
34.701
34.69
34.677
34.662
34.647
34.63
34.611
34.591
34.569
34.546
34.523
34.499
34.475
34.453
34.433
34.416
34.402
34.391
34.386
34.385
34.391
34.405
34.428
34.463
34.511
34.575
34.657
34.758
34.878
35.017
35.175
35.349
35.537
35.737
35.944
36.155
36.367
36.574
36.775
36.964
37.139
37.296
37.435
37.553
37.65
37.726
37.78
37.814
37.829
37.827
37.808
37.775
37.729
37.672
37.606
37.531
37.451
37.366
37.278
37.19
37.102
37.016
36.933
36.854
36.78
36.711
36.649
36.592
36.541
36.495
36.455
36.419
36.387
36.358
36.33
36.303
36.275
36.245
36.212
36.177
36.139
36.098
36.056
36.013
35.969
35.926
35.885
35.848
35.815
35.788
35.768
35.756
35.754
35.76
35.777
35.802
35.836
35.877
35.925
35.978
36.034
36.092
36.15
36.208
36.264
36.317
36.367
36.413
36.454
36.49
36.521
36.547
36.567
36.582
36.592
36.597
36.597
36.592
36.583
36.57
36.554
36.534
36.511
36.485
36.456
36.425
36.391
36.355
36.317
36.277
36.236
36.195
36.153
36.111
36.07
36.03
35.991
35.953
35.917
35.883
35.85
35.819
35.789
35.761
35.733
35.707
35.681
35.656
35.631
35.607
35.582
35.557
35.531
35.504
35.477
35.449
35.421
35.393
35.367
35.342
35.32
35.3
35.281
35.266
35.252
35.24
35.231
35.224
35.219
35.215
35.211
35.208
35.206
35.203
35.2
35.197
35.193
35.19
35.185
35.18
35.174
35.167
35.159
35.151
35.142
35.133
35.124
35.116
35.109
35.102
35.095
35.088
35.08
35.073
35.066
35.058
35.051
35.044
35.038
35.031
35.024
35.016
35.007
34.998
34.988
34.977
34.964
34.951
34.937
34.921
34.904
34.886
34.867
34.847
34.827
34.806
34.785
34.765
34.746
34.729
34.714
34.701
34.69
34.681
34.672
34.664
34.656
34.648
34.64
34.631
34.624
34.617
34.612
34.611
34.616
34.632
34.661
34.706
34.77
34.855
34.963
35.095
35.25
35.427
35.624
35.838
36.066
36.305
36.549
36.795
37.037
37.272
37.496
37.704
37.894
38.064
38.212
38.337
38.439
38.516
38.572
38.605
38.619
38.615
38.596
38.563
38.518
38.463
38.401
38.334
38.264
38.192
38.12
38.048
37.979
37.912
37.849
37.789
37.733
37.68
37.63
37.583
37.539
37.498
37.46
37.424
37.391
37.36
37.33
37.302
37.273
37.245
37.217
37.189
37.159
37.128
37.095
37.06
37.024
36.987
36.949
36.913
36.878
36.847
36.82
36.799
36.783
36.774
36.773
36.779
36.793
36.814
36.844
36.881
36.924
36.973
37.027
37.084
37.143
37.203
37.26
37.315
37.366
37.412
37.451
37.483
37.508
37.527
37.538
37.543
37.543
37.537
37.525
37.509
37.488
37.462
37.432
37.399
37.362
37.322
37.279
37.234
37.187
37.139
37.089
37.038
36.987
36.936
36.885
36.835
36.787
36.741
36.697
36.654
36.614
36.575
36.538
36.503
36.471
36.44
36.411
36.383
36.356
36.33
36.305
36.28
36.256
36.232
36.208
36.184
36.16
36.136
36.113
36.089
36.065
36.042
36.02
35.999
35.978
35.959
35.94
35.923
35.908
35.894
35.882
35.87
35.86
35.849
35.84
35.83
35.82
35.81
35.798
35.786
35.773
35.759
35.745
35.73
35.717
35.703
35.691
35.68
35.67
35.66
35.65
35.64
35.629
35.618
35.607
35.596
35.585
35.573
35.56
35.546
35.532
35.516
35.499
35.48
35.461
35.44
35.42
35.399
35.378
35.357
35.337
35.317
35.298
35.279
35.26
35.242
35.224
35.208
35.192
35.176
35.161
35.145
35.129
35.111
35.092
35.072
35.049
35.025
35.0
34.974
34.947
34.921
34.897
34.874
34.855
34.84
34.832
34.833
34.845
34.873
34.917
34.982
35.068
35.178
35.313
35.471
35.651
35.853
36.072
36.307
36.553
36.806
37.063
37.318
37.567
37.806
38.032
38.241
38.431
38.6
38.746
38.87
38.971
39.05
39.107
39.144
39.163
39.164
39.149
39.12
39.08
39.03
38.974
38.912
38.848
38.782
38.716
38.65
38.587
38.526
38.468
38.414
38.364
38.318
38.276
38.237
38.202
38.168
38.136
38.106
38.077
38.047
38.015
37.983
37.949
37.912
37.874
37.833
37.789
37.745
37.699
37.653
37.609
37.567
37.528
37.492
37.462
37.436
37.416
37.4
37.391
37.388
37.391
37.401
37.418
37.442
37.474
37.513
37.556
37.605
37.655
37.708
37.759
37.81
37.857
37.901
37.941
37.976
38.005
38.03
38.048
38.06
38.066
38.065
38.059
38.047
38.03
38.008
37.983
37.954
37.923
37.888
37.852
37.812
37.77
37.726
37.678
37.629
37.576
37.522
37.466
37.409
37.351
37.294
37.237
37.182
37.129
37.08
37.034
36.991
36.951
36.912
36.876
36.841
36.806
36.772
36.738
36.705
36.671
36.638
36.605
36.571
36.538
36.505
36.472
36.44
36.408
36.377
36.347
36.319
36.291
36.266
36.242
36.22
36.2
36.18
36.161
36.143
36.125
36.107
36.088
36.069
36.049
36.028
36.007
35.985
35.965
35.945
35.926
35.908
35.892
35.877
35.864
35.851
35.838
35.826
35.814
35.801
35.787
35.772
35.756
35.739
35.72
35.699
35.676
35.652
35.627
35.601
35.575
35.548
35.521
35.495
35.469
35.443
35.419
35.397
35.376
35.357
35.339
35.324
35.31
35.297
35.284
35.273
35.261
35.248
35.235
35.22
35.204
35.185
35.163
35.139
35.112
35.084
35.054
35.023
34.991
34.959
34.926
34.894
34.863
34.832
34.803
34.776
34.752
34.732
34.717
34.708
34.708
34.718
34.741
34.779
34.836
34.912
35.01
35.13
35.273
35.437
35.622
35.827
36.048
36.283
36.528
36.779
37.031
37.281
37.525
37.759
37.979
38.184
38.369
38.534
38.677
38.797
38.894
38.969
39.021
39.053
39.067
39.063
39.046
39.015
38.975
38.925
38.869
38.807
38.742
38.675
38.606
38.538
38.472
38.409
38.349
38.293
38.241
38.191
38.144
38.099
38.056
38.014
37.973
37.933
37.893
37.854
37.814
37.773
37.731
37.688
37.644
37.599
37.552
37.505
37.458
37.412
37.367
37.323
37.282
37.244
37.21
37.182
37.159
37.142
37.132
37.129
37.134
37.146
37.165
37.19
37.223
37.261
37.304
37.35
37.4
37.452
37.504
37.553
37.6
37.641
37.676
37.705
37.728
37.745
37.756
37.759
37.757
37.749
37.735
37.716
37.693
37.665
37.632
37.596
37.555
37.512
37.465
37.416
37.363
37.308
37.251
37.192
37.132
37.071
37.011
36.951
36.892
36.834
36.779
36.726
36.675
36.626
36.58
36.536
36.494
36.454
36.416
36.379
36.344
36.31
36.277
36.245
36.213
36.181
36.147
36.113
36.078
36.041
36.004
35.966
35.929
35.893
35.858
35.826
35.797
35.77
35.745
35.723
35.702
35.682
35.664
35.647
35.63
35.614
35.598
35.581
35.564
35.546
35.527
35.508
35.487
35.466
35.444
35.423
35.402
35.382
35.362
35.343
35.325
35.307
35.289
35.272
35.255
35.239
35.224
35.21
35.196
35.183
35.169
35.155
35.14
35.124
35.106
35.086
35.066
35.044
35.021
34.997
34.973
34.948
34.923
34.897
34.872
34.848
34.824
34.801
34.779
34.759
34.74
34.723
34.707
34.692
34.677
34.661
34.646
34.629
34.611
34.591
34.569
34.546
34.52
34.493
34.465
34.436
34.407
34.379
34.35
34.322
34.295
34.271
34.25
34.234
34.227
34.23
34.246
34.28
34.332
34.407
34.505
34.628
34.777
34.95
35.147
35.363
35.597
35.845
36.102
36.364
36.626
36.883
37.13
37.363
37.58
37.777
37.952
38.105
38.235
38.341
38.425
38.486
38.527
38.548
38.553
38.541
38.516
38.479
38.432
38.377
38.317
38.251
38.183
38.113
38.042
37.971
37.901
37.833
37.766
37.702
37.64
37.581
37.524
37.469
37.417
37.366
37.316
37.267
37.219
37.171
37.122
37.072
37.021
36.968
36.912
36.855
36.796
36.737
36.679
36.623
36.571
36.524
36.484
36.451
36.426
36.41
36.402
36.404
36.416
36.437
36.466
36.503
36.547
36.596
36.648
36.703
36.758
36.813
36.866
36.917
36.964
37.008
37.047
37.082
37.112
37.137
37.156
37.169
37.176
37.176
37.17
37.159
37.142
37.12
37.094
37.063
37.028
36.988
36.943
36.894
36.842
36.786
36.728
36.668
36.607
36.546
36.487
36.429
36.373
36.319
36.266
36.215
36.165
36.116
36.069
36.024
35.98
35.937
35.896
35.856
35.816
35.777
35.738
35.7
35.662
35.625
35.588
35.552
35.515
35.479
35.443
35.408
35.373
35.34
35.308
35.277
35.248
35.22
35.195
35.172
35.151
35.132
35.115
35.1
35.085
35.072
35.059
35.046
35.033
35.02
35.006
34.992
34.977
34.961
34.944
34.926
34.908
34.89
34.871
34.852
34.833
34.814
34.795
34.776
34.757
34.739
34.72
34.702
34.685
34.669
34.653
34.638
34.624
34.611
34.597
34.583
34.569
34.554
34.538
34.521
34.503
34.484
34.464
34.442
34.42
34.396
34.372
34.346
34.32
34.294
34.267
34.24
34.214
34.187
34.161
34.135
34.11
34.084
34.06
34.036
34.013
33.992
33.972
33.954
33.938
33.923
33.912
33.903
33.898
33.898
33.904
33.92
33.948
33.989
34.048
34.127
34.228
34.353
34.501
34.674
34.868
35.084
35.318
35.566
35.827
36.094
36.365
36.635
36.9
37.154
37.395
37.619
37.824
38.007
38.167
38.303
38.414
38.502
38.567
38.61
38.632
38.636
38.624
38.598
38.56
38.514
38.46
38.402
38.34
38.277
38.212
38.149
38.087
38.027
37.97
37.915
37.863
37.813
37.766
37.72
37.676
37.633
37.589
37.545
37.501
37.456
37.41
37.362
37.314
37.264
37.213
37.16
37.107
37.054
37.001
36.949
36.898
36.848
36.801
36.759
36.721
36.689
36.663
36.645
36.634
36.631
36.636
36.65
36.671
36.699
36.734
36.774
36.819
36.868
36.919
36.971
37.023
37.074
37.123
37.168
37.21
37.245
37.275
37.298
37.314
37.322
37.322
37.314
37.297
37.273
37.241
37.202
37.158
37.108
37.054
36.997
36.939
36.88
36.822
36.764
36.708
36.653
36.599
36.547
36.497
36.447
36.398
36.349
36.301
36.252
36.204
36.155
36.106
36.057
36.008
35.959
35.91
35.862
35.816
35.771
35.728
35.686
35.647
35.61
35.574
35.54
35.508
35.477
35.446
35.417
35.388
35.359
35.331
35.303
35.275
35.246
35.218
35.189
35.16
35.13
35.1
35.07
35.04
35.01
34.981
34.954
34.928
34.904
34.881
34.861
34.841
34.823
34.806
34.791
34.778
34.764
34.752
34.74
34.727
34.713
34.698
34.682
34.665
34.646
34.627
34.607
34.587
34.566
34.545
34.524
34.503
34.482
34.461
34.441
34.422
34.403
34.384
34.366
34.349
34.331
34.314
34.297
34.279
34.261
34.242
34.222
34.202
34.181
34.159
34.136
34.111
34.085
34.058
34.03
34.001
33.973
33.944
33.915
33.887
33.858
33.83
33.803
33.777
33.754
33.734
33.72
33.711
33.711
33.722
33.746
33.787
33.847
33.928
34.032
34.161
34.316
34.495
34.699
34.926
35.173
35.436
35.713
35.998
36.288
36.577
36.861
37.136
37.399
37.645
37.874
38.083
38.27
38.435
38.577
38.696
38.793
38.867
38.921
38.955
38.971
38.97
38.955
38.927
38.889
38.842
38.79
38.733
38.673
38.612
38.552
38.492
38.435
38.381
38.329
38.281
38.235
38.192
38.151
38.112
38.073
38.036
37.998
37.96
37.921
37.88
37.838
37.795
37.749
37.702
37.653
37.602
37.55
37.496
37.441
37.387
37.332
37.279
37.229
37.183
37.142
37.109
37.083
37.065
37.056
37.056
37.065
37.081
37.105
37.136
37.173
37.215
37.262
37.311
37.362
37.412
37.459
37.504
37.543
37.576
37.604
37.624
37.638
37.645
37.644
37.637
37.623
37.603
37.577
37.546
37.51
37.47
37.427
37.382
37.333
37.283
37.231
37.176
37.12
37.061
37.001
36.94
36.878
36.815
36.752
36.688
36.626
36.564
36.503
36.443
36.385
36.328
36.272
36.219
36.167
36.118
36.071
36.025
35.979
35.933
35.887
35.841
35.793
35.745
35.696
35.647
35.6
35.553
35.509
35.466
35.424
35.384
35.346
35.31
35.277
35.245
35.216
35.189
35.164
35.142
35.122
35.103
35.085
35.067
35.048
35.029
35.009
34.988
34.966
34.945
34.923
34.901
34.879
34.857
34.835
34.813
34.791
34.77
34.749
34.729
34.71
34.693
34.675
34.659
34.644
34.629
34.615
34.602
34.588
34.575
34.562
34.548
34.532
34.515
34.497
34.476
34.453
34.428
34.401
34.371
34.34
34.307
34.274
34.24
34.206
34.172
34.139
34.107
34.076
34.047
34.019
