Trial 1:0back
38.698
38.654
38.614
38.579
38.546
38.516
38.488
38.459
38.43
38.4
38.366
38.328
38.286
38.238
38.186
38.129
38.068
38.005
37.94
37.877
37.815
37.757
37.704
37.655
37.612
37.574
37.542
37.515
37.495
37.48
37.472
37.47
37.474
37.483
37.496
37.513
37.535
37.56
37.587
37.616
37.646
37.675
37.702
37.725
37.743
37.754
37.758
37.754
37.74
37.718
37.686
37.645
37.596
37.539
37.475
37.404
37.327
37.247
37.163
37.078
36.991
36.904
36.816
36.73
36.646
36.565
36.486
36.41
36.337
36.266
36.197
36.129
36.06
35.989
35.917
35.843
35.767
35.69
35.613
35.536
35.46
35.385
35.311
35.239
35.167
35.097
35.029
34.962
34.898
34.838
34.781
34.729
34.681
34.636
34.594
34.556
34.519
34.485
34.451
34.417
34.384
34.352
34.32
34.29
34.261
34.233
34.207
34.183
34.161
34.141
34.121
34.102
34.084
34.067
34.05
34.033
34.016
33.998
33.978
33.956
33.933
33.907
33.881
33.855
33.828
33.801
33.773
33.746
33.719
33.693
33.668
33.645
33.623
33.602
33.583
33.563
33.543
33.521
33.497
33.471
33.442
33.41
33.376
33.341
33.304
33.267
33.232
33.199
33.168
33.14
33.115
33.091
33.068
33.046
33.024
33.001
32.976
32.95
32.922
32.892
32.858
32.821
32.779
32.734
32.686
32.636
32.584
32.532
32.479
32.426
32.373
32.321
32.27
32.222
32.177
32.135
32.098
32.065
32.038
32.016
32.0
31.989
31.983
31.983
31.991
32.008
32.038
32.085
32.153
32.246
32.369
32.527
32.723
32.961
33.243
33.567
33.931
34.331
34.761
35.214
35.681
36.153
36.623
37.08
37.517
37.928
38.306
38.649
38.952
39.214
39.434
39.612
39.751
39.852
39.919
39.956
39.966
39.952
39.918
39.868
39.803
39.727
39.642
39.549
39.45
39.348
39.243
39.137
39.033
38.929
38.828
38.729
38.632
38.539
38.449
38.363
38.282
38.204
38.131
38.061
37.995
37.935
37.879
37.826
37.777
37.73
37.684
37.639
37.594
37.547
37.498
37.446
37.39
37.331
37.268
37.202
37.134
37.064
36.993
36.922
36.851
36.781
36.713
36.647
36.584
36.526
36.473
36.427
36.388
36.358
36.337
36.325
36.322
36.327
36.34
36.36
36.384
36.412
36.443
36.475
36.506
36.535
36.561
36.583
36.6
36.611
36.616
36.616
36.61
36.598
36.58
36.557
36.528
36.493
36.452
36.406
36.357
36.305
36.252
36.197
36.142
36.086
36.028
35.968
35.905
35.839
35.769
35.697
35.621
35.543
35.462
35.379
35.293
35.205
35.117
35.027
34.938
34.85
34.765
34.683
34.604
34.53
34.46
34.394
34.333
34.275
34.221
34.169
34.121
34.074
34.028
33.984
33.94
33.897
33.854
33.812
33.772
33.732
33.694
33.658
33.623
33.59
33.559
33.529
33.501
33.473
33.446
33.419
33.391
33.364
33.336
33.309
33.282
33.255
33.226
33.192
33.152
33.109
33.066
33.024
32.988
32.957
32.935
32.92
32.913
32.914
32.92
32.931
32.943
32.957
32.969
32.978
32.983
32.984
32.98
32.971
32.959
32.941
32.919
32.895
32.868
32.84
32.812
32.783
32.755
32.727
32.701
32.675
32.65
32.627
32.605
32.584
32.565
32.546
32.528
32.509
32.491
32.471
32.451
32.43
32.407
32.382
32.354
32.325
32.294
32.262
32.229
32.196
32.162
32.128
32.094
32.061
32.028
31.997
31.968
31.942
31.915
31.89
31.865
31.841
31.82
31.801
31.787
31.779
31.779
31.791
31.817
31.86
31.926
32.018
32.139
32.295
32.489
32.722
32.998
33.315
33.671
34.062
34.483
34.928
35.387
35.854
36.319
36.774
37.212
37.626
38.01
38.359
38.67
38.943
39.175
39.369
39.525
39.646
39.734
39.793
39.825
39.833
39.821
39.791
39.747
39.691
39.625
39.553
39.474
39.391
39.303
39.213
39.121
39.028
38.933
38.838
38.741
38.644
38.548
38.454
38.361
38.27
38.182
38.097
38.015
37.936
37.859
37.786
37.716
37.647
37.579
37.512
37.445
37.379
37.312
37.245
37.177
37.108
37.039
36.971
36.903
36.837
36.774
36.714
36.657
36.606
36.559
36.52
36.488
36.465
36.451
36.445
36.448
36.459
36.478
36.504
36.536
36.574
36.616
36.661
36.709
36.758
36.807
36.857
36.906
36.953
36.998
37.039
37.075
37.107
37.131
37.148
37.157
37.157
37.147
37.127
37.096
37.056
37.008
36.951
36.888
36.82
36.747
36.67
36.59
36.508
36.424
36.339
36.253
36.166
36.079
35.99
35.901
35.812
35.723
35.635
35.546
35.459
35.372
35.287
35.204
35.123
35.044
34.967
34.893
34.821
34.75
34.682
34.616
34.553
34.493
34.435
34.379
34.325
34.272
34.222
34.174
34.129
34.086
34.045
34.006
33.969
33.933
33.898
33.862
33.828
33.797
33.768
33.741
33.718
33.697
33.679
33.663
33.648
33.634
33.622
33.611
33.598
33.585
33.57
33.555
33.538
33.522
33.505
33.489
33.472
33.456
33.439
33.422
33.405
33.388
33.371
33.355
33.339
33.323
33.307
33.29
33.273
33.254
33.235
33.214
33.192
33.169
33.144
33.119
33.093
33.066
33.041
33.016
32.993
32.972
32.952
32.933
32.915
32.897
32.877
32.856
32.834
32.811
32.786
32.759
32.732
32.705
32.676
32.647
32.618
32.589
32.56
32.531
32.503
32.474
32.446
32.416
32.386
32.355
32.323
32.29
32.256
32.221
32.185
32.148
32.109
32.071
32.033
31.996
31.961
31.931
31.905
31.885
31.873
31.87
31.88
31.906
31.952
32.023
32.123
32.257
32.43
32.646
32.91
33.221
33.581
33.988
34.437
34.922
35.435
35.965
36.503
37.039
37.562
38.063
38.535
38.971
39.366
39.716
40.02
40.277
40.488
40.655
40.78
40.866
40.917
40.937
40.93
40.898
40.845
40.775
40.69
40.595
40.49
40.38
40.264
40.146
40.028
39.91
39.795
39.685
39.579
39.479
39.385
39.298
39.218
39.145
39.077
39.015
38.959
38.907
38.859
38.814
38.771
38.731
38.692
38.653
38.614
38.574
38.531
38.484
38.434
38.381
38.324
38.264
38.199
38.131
38.06
37.986
37.911
37.835
37.761
37.688
37.618
37.551
37.489
37.431
37.377
37.329
37.286
37.25
37.22
37.196
37.18
37.172
37.171
37.178
37.192
37.211
37.235
37.262
37.292
37.32
37.347
37.37
37.388
37.4
37.404
37.4
37.388
37.367
37.338
37.301
37.257
37.207
37.15
37.086
37.016
36.941
36.862
36.78
36.695
36.609
36.524
36.44
36.357
36.275
36.193
36.112
36.029
35.946
35.862
35.775
35.686
35.594
35.5
35.405
35.308
35.211
35.114
35.017
34.921
34.826
34.733
34.642
34.554
34.469
34.387
34.309
34.234
34.161
34.092
34.025
33.96
33.897
33.835
33.776
33.718
33.663
33.609
33.557
33.507
33.459
33.413
33.37
33.329
33.292
33.258
33.227
33.199
33.173
33.149
33.128
33.109
33.091
33.074
33.059
33.043
33.028
33.012
32.996
32.979
32.962
32.945
32.929
32.912
32.896
32.88
32.864
32.848
32.833
32.818
32.802
32.786
32.768
32.748
32.726
32.702
32.677
32.65
32.622
32.594
32.567
32.54
32.514
32.487
32.461
32.436
32.41
32.386
32.362
32.338
32.314
32.289
32.263
32.234
32.204
32.171
32.137
32.103
32.068
32.034
32.0
31.967
31.935
31.903
31.871
31.84
31.808
31.778
31.748
31.718
31.69
31.663
31.637
31.611
31.586
31.564
31.543
31.523
31.505
31.488
31.473
31.459
31.445
31.431
31.416
31.402
31.387
31.371
31.356
31.341
31.327
31.314
31.302
31.291
31.281
31.272
31.264
31.259
31.254
31.252
31.249
31.247
31.245
31.243
31.241
31.238
31.235
31.232
31.227
31.222
31.214
31.204
31.192
31.177
31.161
31.143
31.124
31.105
31.088
31.072
31.058
31.045
31.035
31.028
31.023
31.019
31.018
31.017
31.017
31.019
31.025
31.038
31.06
31.096
31.149
31.225
31.331
31.471
31.652
31.878
32.153
32.478
32.853
33.277
33.746
34.251
34.786
35.342
35.908
36.473
37.026
37.559
38.061
38.525
38.946
39.32
39.644
39.918
40.141
40.315
40.443
40.529
40.578
40.594
40.582
40.547
40.492
40.422
40.34
40.25
40.155
40.056
39.955
39.855
39.754
39.654
39.555
39.457
39.358
39.261
39.165
39.07
38.976
38.885
38.797
38.712
38.632
38.555
38.482
38.411
38.343
38.278
38.215
38.154
38.095
38.037
37.979
37.921
37.862
37.802
37.742
37.683
37.624
37.564
37.503
37.441
37.378
37.315
37.254
37.195
37.139
37.088
37.041
37.0
36.966
36.939
36.921
36.911
36.912
36.922
36.941
36.967
37.0
37.037
37.08
37.127
37.177
37.228
37.28
37.331
37.379
37.423
37.46
37.49
37.512
37.524
37.528
37.523
37.509
37.488
37.461
37.426
37.385
37.338
37.284
37.225
37.16
37.091
37.016
36.938
36.858
36.776
36.693
36.609
36.527
36.444
36.362
36.28
36.199
36.119
36.039
35.96
35.881
35.801
35.722
35.642
35.562
35.48
35.398
35.316
35.233
35.151
35.069
34.989
34.91
34.833
34.759
34.688
34.62
34.555
34.494
34.437
34.383
34.331
34.282
34.235
34.191
34.149
34.11
34.074
34.041
34.011
33.985
33.962
33.941
33.923
33.907
33.894
33.883
33.874
33.868
33.862
33.857
33.851
33.845
33.837
33.826
33.812
33.797
33.778
33.758
33.736
33.713
33.689
33.667
33.645
33.626
33.61
33.595
33.581
33.569
33.557
33.547
33.536
33.524
33.509
33.491
33.47
33.445
33.417
33.385
33.35
33.313
33.273
33.232
33.19
33.148
33.105
33.065
33.027
32.99
32.955
32.92
32.886
32.855
32.824
32.795
32.767
32.74
32.713
32.686
32.659
32.633
32.609
32.587
32.566
32.547
32.529
32.511
32.493
32.475
32.459
32.443
32.428
32.414
32.401
32.39
32.38
32.372
32.363
32.354
32.344
32.333
32.322
32.31
32.294
32.276
32.254
32.228
32.199
32.166
32.131
32.095
32.058
32.022
31.987
31.953
31.922
31.895
31.872
31.854
31.84
31.829
31.822
31.818
31.817
31.82
31.828
31.845
31.872
31.914
31.975
32.062
32.178
32.332
32.528
32.771
33.066
33.411
33.808
34.251
34.736
35.256
35.799
36.358
36.921
37.477
38.017
38.53
39.01
39.45
39.846
40.193
40.49
40.736
40.933
41.083
41.19
41.256
41.287
41.286
41.259
41.21
41.142
41.061
40.969
40.869
40.763
40.656
40.547
40.438
40.332
40.228
40.128
40.03
39.936
39.843
39.753
39.664
39.575
39.487
39.399
39.312
39.227
39.144
39.064
38.986
38.912
38.842
38.776
38.714
38.655
38.598
38.542
38.488
38.434
38.379
38.323
38.265
38.204
38.14
38.074
38.005
37.933
37.861
37.788
37.715
37.645
37.576
37.512
37.452
37.397
37.349
37.308
37.275
37.249
37.23
37.219
37.216
37.22
37.232
37.249
37.272
37.3
37.33
37.361
37.391
37.419
37.442
37.458
37.466
37.466
37.458
37.443
37.423
37.396
37.366
37.331
37.293
37.251
37.207
37.159
37.107
37.05
36.989
36.923
36.853
36.78
36.703
36.624
36.543
36.459
36.374
36.285
36.194
36.1
36.004
35.904
35.802
35.699
35.595
35.491
35.388
35.286
35.187
35.09
34.995
34.902
34.811
34.721
34.633
34.546
34.462
34.379
34.298
34.219
34.144
34.072
34.004
33.939
33.878
33.821
33.768
33.718
33.671
33.629
33.589
33.549
33.507
33.46
33.412
33.363
33.316
33.272
33.234
33.202
33.176
33.157
33.144
33.137
33.134
33.135
33.138
33.143
33.149
33.155
33.16
33.163
33.165
33.163
33.16
33.154
33.145
33.134
33.12
33.104
33.085
33.062
33.037
33.009
32.979
32.949
32.919
32.889
32.86
32.832
32.804
32.777
32.752
32.726
32.701
32.675
32.648
32.622
32.594
32.565
32.535
32.505
32.474
32.444
32.414
32.384
32.354
32.324
32.294
32.263
32.233
32.202
32.172
32.142
32.112
32.082
32.05
32.018
31.985
31.952
31.92
31.889
31.861
31.836
31.814
31.794
31.777
31.763
31.75
31.738
31.727
31.717
31.707
31.696
31.686
31.675
31.664
31.653
31.643
31.633
31.622
31.61
31.598
31.584
31.57
31.554
31.537
31.519
31.502
31.485
31.468
31.453
31.439
31.426
31.414
31.404
31.394
31.386
31.377
31.37
31.362
31.354
31.347
31.34
31.336
31.333
31.332
31.335
31.343
31.356
31.377
31.409
31.456
31.525
31.62
31.748
31.914
32.123
32.374
32.667
33.002
33.38
33.8
34.258
34.75
35.268
35.805
36.349
36.891
37.42
37.927
38.404
38.843
39.238
39.586
39.885
40.135
40.336
40.491
40.603
40.675
40.712
40.717
40.695
40.65
40.587
40.509
40.418
40.319
40.215
40.106
39.996
39.883
39.769
39.655
39.542
39.43
39.32
39.212
39.107
39.006
38.908
38.814
38.724
38.636
38.55
38.465
38.383
38.302
38.223
38.145
38.068
37.993
37.919
37.846
37.774
37.705
37.637
37.57
37.503
37.437
37.372
37.308
37.246
37.185
37.125
37.066
37.009
36.956
36.907
36.863
36.826
36.797
36.776
36.763
36.761
36.767
36.784
36.808
36.84
36.879
36.924
36.974
37.027
37.081
37.135
37.189
37.241
37.29
37.335
37.375
37.41
37.439
37.462
37.477
37.484
37.483
37.473
37.455
37.429
37.394
37.353
37.305
37.249
37.188
37.12
37.048
36.971
36.89
36.805
36.718
36.629
36.539
36.449
36.36
36.273
36.188
36.104
36.022
35.942
35.862
35.783
35.703
35.623
35.541
35.457
35.373
35.288
35.203
35.119
35.036
34.954
34.876
34.8
34.728
34.659
34.594
34.532
34.473
34.417
34.364
34.314
34.266
34.221
34.178
34.138
34.1
34.063
34.026
33.989
33.953
33.917
33.884
33.852
33.821
33.793
33.768
33.744
33.723
33.705
33.689
33.675
33.665
33.657
33.651
33.648
33.645
33.643
33.641
33.638
33.635
33.632
33.627
33.623
33.618
33.613
33.606
33.599
33.592
33.584
33.575
33.565
33.553
33.539
33.523
33.504
33.484
33.461
33.436
33.408
33.378
33.346
33.312
33.276
33.239
33.203
33.167
33.133
33.099
33.068
33.038
33.011
32.985
32.96
32.937
32.916
32.895
32.876
32.858
32.842
32.825
32.809
32.791
32.773
32.753
32.731
32.708
32.682
32.655
32.626
32.595
32.563
32.529
32.493
32.456
32.417
32.378
32.339
32.3
32.262
32.225
32.19
32.157
32.126
32.097
32.071
32.047
32.026
32.008
31.993
31.98
31.971
31.966
31.965
31.971
31.985
32.011
32.051
32.111
32.196
32.314
32.469
32.669
32.917
33.216
33.566
33.967
34.413
34.901
35.422
35.968
36.527
37.091
37.648
38.189
38.703
39.183
39.622
40.015
40.359
40.652
40.894
41.087
41.234
41.339
41.405
41.438
41.44
41.417
41.372
41.31
41.234
41.147
41.054
40.955
40.853
40.749
40.645
40.541
40.441
40.343
40.249
40.159
40.07
39.984
39.9
39.817
39.735
39.654
39.574
39.494
39.414
39.335
39.257
39.18
39.105
39.03
38.957
38.883
38.81
38.737
38.664
38.59
38.515
38.439
38.361
38.282
38.203
38.124
38.044
37.963
37.883
37.805
37.731
37.661
37.598
37.543
37.495
37.457
37.428
37.408
37.397
37.393
37.396
37.405
37.419
37.437
37.458
37.482
37.506
37.532
37.557
37.58
37.602
37.623
37.642
37.659
37.674
37.686
37.693
37.695
37.691
37.681
37.662
37.636
37.602
37.56
37.511
37.456
37.396
37.331
37.262
37.19
37.115
37.038
36.958
36.877
36.793
36.709
36.623
36.537
36.45
36.363
36.274
36.185
36.095
36.004
35.912
35.818
35.724
35.629
35.534
35.44
35.346
35.258
35.181
35.115
35.059
35.011
34.968
34.927
34.887
34.843
34.793
34.735
34.67
34.598
34.52
34.437
34.352
34.267
34.183
34.103
34.027
33.956
33.891
33.833
33.782
33.738
33.702
33.672
33.648
33.629
33.614
33.601
33.591
33.582
33.573
33.565
33.555
33.544
33.532
33.52
33.506
33.493
33.479
33.464
33.45
33.435
33.419
33.403
33.385
33.366
33.345
33.322
33.296
33.267
33.234
33.199
33.161
33.122
33.081
33.039
32.997
32.954
32.913
32.872
32.831
32.792
32.753
32.715
32.678
32.64
32.603
32.566
32.529
32.492
32.456
32.419
32.382
32.345
32.308
32.27
32.232
32.194
32.156
32.119
32.083
32.047
32.012
31.977
31.943
31.909
31.876
31.844
31.813
31.786
31.761
31.739
31.72
31.702
31.685
31.669
31.653
31.638
31.623
31.609
31.595
31.581
31.568
31.556
31.545
31.535
31.525
31.516
31.508
31.501
31.494
31.486
31.478
31.469
31.458
31.446
31.432
31.417
31.4
31.381
31.361
31.341
31.319
31.299
31.285
31.278
31.28
31.288
31.301
31.316
31.331
31.343
31.351
31.354
31.353
31.349
31.342
31.336
31.334
31.34
31.361
31.4
31.464
31.561
31.696
31.877
32.108
32.393
32.734
33.129
33.574
34.066
34.596
35.154
35.731
36.315
36.896
37.463
38.008
38.522
38.996
39.425
39.807
40.138
40.419
40.65
40.833
40.97
41.065
41.122
41.145
41.139
41.107
41.055
40.986
40.906
40.818
40.726
40.631
40.536
40.442
40.349
40.258
40.17
40.084
39.998
39.912
39.825
39.737
39.648
39.558
39.465
39.371
39.276
39.18
39.085
38.992
38.902
38.814
38.73
38.65
38.575
38.504
38.436
38.37
38.306
38.243
38.179
38.114
38.047
37.978
37.906
37.833
37.758
37.684
37.61
37.539
37.472
37.411
37.356
37.309
37.27
37.239
37.218
37.204
37.2
37.204
37.216
37.235
37.26
37.291
37.325
37.363
37.403
37.443
37.483
37.521
37.555
37.585
37.609
37.628
37.64
37.645
37.644
37.637
37.625
37.609
37.59
37.567
37.541
37.51
37.475
37.435
37.39
37.339
37.284
37.226
37.165
37.101
37.034
36.963
36.889
36.812
36.73
36.644
36.554
36.46
36.362
36.26
36.156
36.051
35.945
35.839
35.735
35.634
35.536
35.442
35.354
35.27
35.192
35.118
35.048
34.981
34.918
34.858
34.801
34.747
34.695
34.646
34.599
34.554
34.51
34.466
34.423
34.38
34.337
34.293
34.251
34.209
34.169
34.131
34.095
34.062
34.033
34.008
33.985
33.967
33.952
33.94
33.93
33.923
33.917
33.911
33.906
33.899
33.891
33.883
33.874
33.864
33.853
33.842
33.832
33.821
33.809
33.798
33.785
33.772
33.758
33.743
33.725
33.704
33.679
33.651
33.62
33.587
33.553
33.52
33.487
33.456
33.426
33.398
33.372
33.348
33.325
33.302
33.28
33.256
33.231
33.204
33.176
33.145
33.113
33.08
33.046
33.013
32.98
32.948
32.918
32.89
32.865
32.842
32.821
32.802
32.785
32.768
32.751
32.733
32.713
32.692
32.669
32.644
32.617
32.587
32.556
32.523
32.49
32.457
32.423
32.39
32.357
32.324
32.291
32.259
32.229
32.2
32.173
32.151
32.132
32.118
32.109
32.103
32.098
32.096
32.097
32.102
32.114
32.138
32.176
32.234
32.318
32.431
32.579
32.767
33.0
33.281
33.611
33.99
34.414
34.879
35.379
35.904
36.447
36.997
37.543
38.077
38.589
39.069
39.513
39.913
40.266
40.569
40.821
41.022
41.176
41.283
41.349
41.376
41.372
41.34
41.287
41.216
41.131
41.037
40.936
40.831
40.725
40.619
40.515
40.412
40.311
40.212
40.115
40.017
39.92
39.823
39.724
39.626
39.528
39.431
39.335
39.241
39.148
39.056
38.964
38.873
38.784
38.697
38.611
38.529
38.449
38.371
38.294
38.219
38.144
38.07
37.996
37.921
37.847
37.773
37.7
37.627
37.554
37.483
37.415
37.35
37.289
37.234
37.187
37.147
37.115
37.091
37.075
37.069
37.07
37.079
37.095
37.117
37.144
37.175
37.211
37.25
37.29
37.33
37.37
37.407
37.44
37.469
37.491
37.508
37.518
37.522
37.518
37.507
37.489
37.465
37.436
37.4
37.359
37.312
37.259
37.201
37.138
37.069
36.996
36.919
36.838
36.754
36.665
36.574
36.481
36.387
36.292
36.197
36.102
36.008
35.915
35.822
35.729
35.636
35.543
35.449
35.353
35.257
35.16
35.063
34.967
34.871
34.778
34.688
34.601
34.517
34.438
34.364
34.296
34.233
34.176
34.123
34.074
34.029
33.987
33.947
33.909
33.871
33.835
33.799
33.764
33.729
33.695
33.663
33.631
33.601
33.572
33.544
33.519
33.497
33.476
33.458
33.442
33.428
33.417
33.406
33.396
33.386
33.375
33.363
33.35
33.337
33.322
33.306
33.29
33.273
33.256
33.239
33.22
33.199
33.173
33.141
33.105
33.066
33.026
32.988
32.952
32.918
32.888
32.861
32.839
32.82
32.804
32.79
32.777
32.764
32.751
32.737
32.722
32.706
32.687
32.666
32.643
32.617
32.588
32.558
32.527
32.494
32.46
32.426
32.391
32.357
32.323
32.29
32.259
32.228
32.2
32.173
32.146
32.12
32.094
32.068
32.041
32.012
31.983
31.955
31.926
31.899
31.874
31.85
31.828
31.808
31.789
31.772
31.756
31.743
31.731
31.72
31.71
31.699
31.688
31.674
31.657
31.637
31.612
31.583
31.551
31.517
31.481
31.445
31.411
31.379
31.349
31.322
31.298
31.275
31.255
31.237
