Trial 1:0back
37.885
37.816
37.742
37.666
37.587
37.505
37.421
37.334
37.245
37.154
37.062
36.968
36.872
36.777
36.682
36.587
36.493
36.401
36.311
36.222
36.133
36.046
35.961
35.876
35.792
35.71
35.63
35.551
35.475
35.4
35.327
35.255
35.186
35.118
35.052
34.988
34.925
34.863
34.802
34.743
34.685
34.629
34.574
34.519
34.466
34.414
34.363
34.314
34.266
34.22
34.176
34.133
34.092
34.053
34.015
33.98
33.947
33.917
33.889
33.864
33.84
33.818
33.797
33.776
33.755
33.732
33.709
33.685
33.66
33.635
33.609
33.583
33.557
33.532
33.507
33.483
33.46
33.438
33.417
33.397
33.379
33.361
33.344
33.327
33.31
33.293
33.275
33.256
33.237
33.217
33.196
33.174
33.152
33.13
33.107
33.084
33.06
33.036
33.011
32.986
32.961
32.935
32.908
32.88
32.851
32.82
32.788
32.754
32.72
32.686
32.651
32.615
32.578
32.541
32.504
32.466
32.429
32.392
32.356
32.322
32.29
32.259
32.23
32.202
32.176
32.15
32.124
32.099
32.072
32.046
32.019
31.991
31.963
31.933
31.901
31.867
31.831
31.793
31.753
31.712
31.671
31.63
31.589
31.549
31.512
31.476
31.443
31.414
31.389
31.369
31.357
31.353
31.36
31.383
31.424
31.489
31.582
31.708
31.87
32.072
32.317
32.604
32.933
33.302
33.707
34.144
34.608
35.093
35.593
36.102
36.614
37.122
37.622
38.107
38.574
39.017
39.435
39.823
40.181
40.506
40.799
41.06
41.288
41.485
41.652
41.791
41.902
41.987
42.049
42.088
42.107
42.106
42.087
42.052
42.002
41.939
41.864
41.778
41.681
41.577
41.465
41.347
41.224
41.098
40.969
40.839
40.708
40.577
40.445
40.315
40.185
40.056
39.929
39.803
39.678
39.555
39.432
39.309
39.187
39.064
38.941
38.817
38.693
38.568
38.444
38.321
38.201
38.085
37.975
37.873
37.778
37.692
37.617
37.554
37.502
37.462
37.434
37.417
37.411
37.416
37.43
37.453
37.484
37.521
37.564
37.612
37.662
37.715
37.769
37.822
37.873
37.922
37.968
38.01
38.047
38.078
38.103
38.122
38.134
38.14
38.139
38.131
38.116
38.093
38.065
38.03
37.989
37.943
37.891
37.834
37.773
37.706
37.636
37.561
37.483
37.401
37.317
37.23
37.141
37.051
36.959
36.867
36.775
36.682
36.589
36.497
36.405
36.314
36.224
36.136
36.048
35.962
35.878
35.794
35.713
35.633
35.554
35.476
35.4
35.325
35.25
35.176
35.102
35.029
34.955
34.883
34.813
34.744
34.677
34.613
34.55
34.489
34.431
34.376
34.324
34.275
34.229
34.188
34.149
34.112
34.076
34.043
34.01
33.979
33.949
33.921
33.894
33.868
33.844
33.822
33.8
33.779
33.759
33.739
33.72
33.701
33.682
33.664
33.647
33.631
33.615
33.599
33.584
33.57
33.555
33.54
33.524
33.509
33.494
33.479
33.464
33.449
33.434
33.418
33.402
33.386
33.369
33.353
33.335
33.318
33.299
33.28
33.26
33.239
33.216
33.192
33.167
33.14
33.113
33.085
33.056
33.025
32.994
32.961
32.928
32.894
32.859
32.825
32.79
32.756
32.721
32.687
32.652
32.618
32.585
32.553
32.521
32.489
32.457
32.425
32.392
32.358
32.322
32.285
32.247
32.207
32.167
32.125
32.084
32.041
31.999
31.957
31.916
31.875
31.835
31.796
31.759
31.724
31.69
31.658
31.629
31.601
31.577
31.556
31.538
31.525
31.518
31.521
31.534
31.562
31.609
31.678
31.775
31.903
32.067
32.27
32.514
32.799
33.124
33.487
33.883
34.308
34.757
35.224
35.703
36.187
36.671
37.148
37.614
38.063
38.492
38.898
39.277
39.628
39.949
40.239
40.497
40.724
40.92
41.086
41.223
41.333
41.417
41.475
41.511
41.526
41.522
41.499
41.46
41.406
41.338
41.257
41.166
41.064
40.955
40.838
40.715
40.588
40.458
40.325
40.19
40.054
39.918
39.783
39.648
39.514
39.381
39.25
39.119
38.988
38.858
38.726
38.593
38.458
38.323
38.186
38.048
37.91
37.772
37.637
37.504
37.376
37.254
37.14
37.035
36.942
36.861
36.793
36.74
36.702
36.679
36.671
36.676
36.693
36.722
36.76
36.808
36.863
36.924
36.99
37.057
37.125
37.192
37.257
37.318
37.374
37.425
37.47
37.509
37.542
37.567
37.586
37.597
37.602
37.6
37.592
37.577
37.556
37.528
37.493
37.453
37.406
37.355
37.3
37.241
37.18
37.116
37.05
36.982
36.911
36.839
36.765
36.689
36.612
36.534
36.454
36.372
36.289
36.204
36.118
36.031
35.942
35.852
35.761
35.67
35.579
35.489
35.402
35.316
35.233
35.15
35.069
34.989
34.91
34.83
34.751
34.671
34.592
34.514
34.437
34.361
34.287
34.215
34.145
34.077
34.011
33.949
33.889
33.833
33.781
33.731
33.685
33.641
33.601
33.562
33.526
33.492
33.459
33.428
33.398
33.369
33.342
33.316
33.29
33.266
33.244
33.222
33.202
33.184
33.168
33.153
33.139
33.126
33.114
33.102
33.09
33.078
33.066
33.053
33.039
33.025
33.01
32.995
32.979
32.962
32.944
32.926
32.907
32.888
32.869
32.849
32.83
32.811
32.792
32.773
32.753
32.732
32.711
32.69
32.668
32.645
32.622
32.598
32.575
32.552
32.528
32.505
32.481
32.458
32.434
32.41
32.385
32.36
32.334
32.308
32.282
32.256
32.23
32.204
32.179
32.153
32.128
32.103
32.077
32.051
32.025
31.999
31.972
31.946
31.92
31.894
31.868
31.842
31.816
31.791
31.765
31.74
31.716
31.691
31.667
31.641
31.615
31.588
31.56
31.531
31.501
31.469
31.437
31.403
31.369
31.334
31.299
31.264
31.23
31.197
31.165
31.136
31.11
31.087
31.068
31.054
31.047
31.049
31.064
31.094
31.143
31.217
31.319
31.453
31.624
31.836
32.09
32.387
32.728
33.111
33.532
33.988
34.473
34.982
35.507
36.043
36.583
37.119
37.648
38.162
38.657
39.129
39.574
39.989
40.374
40.726
41.046
41.332
41.586
41.808
42.0
42.161
42.295
42.401
42.481
42.536
42.568
42.577
42.566
42.536
42.489
42.427
42.351
42.263
42.165
42.059
41.945
41.826
41.701
41.573
41.443
41.311
41.178
41.045
40.914
40.784
40.656
40.53
40.406
40.286
40.168
40.052
39.938
39.825
39.712
39.6
39.486
39.371
39.255
39.138
39.02
38.903
38.786
38.671
38.56
38.453
38.352
38.258
38.172
38.095
38.027
37.969
37.921
37.883
37.855
37.836
37.828
37.828
37.838
37.855
37.881
37.913
37.951
37.994
38.04
38.088
38.137
38.184
38.228
38.269
38.306
38.337
38.364
38.384
38.397
38.403
38.402
38.393
38.377
38.353
38.322
38.285
38.241
38.191
38.135
38.074
38.007
37.936
37.861
37.781
37.697
37.61
37.52
37.428
37.335
37.241
37.148
37.054
36.963
36.872
36.782
36.693
36.605
36.517
36.429
36.341
36.253
36.166
36.078
35.99
35.903
35.816
35.73
35.644
35.558
35.471
35.385
35.298
35.212
35.125
35.04
34.957
34.877
34.801
34.728
34.659
34.595
34.534
34.477
34.424
34.373
34.325
34.278
34.234
34.191
34.149
34.109
34.069
34.029
33.989
33.95
33.91
33.871
33.832
33.794
33.757
33.721
33.686
33.652
33.618
33.586
33.555
33.525
33.498
33.472
33.447
33.422
33.399
33.375
33.352
33.329
33.306
33.282
33.258
33.233
33.208
33.183
33.158
33.134
33.111
33.088
33.067
33.046
33.026
33.008
32.992
32.975
32.959
32.943
32.925
32.906
32.885
32.862
32.838
32.812
32.785
32.757
32.729
32.7
32.671
32.642
32.612
32.582
32.551
32.519
32.487
32.456
32.424
32.394
32.363
32.332
32.301
32.27
32.239
32.208
32.178
32.146
32.114
32.082
32.049
32.015
31.982
31.949
31.917
31.886
31.857
31.828
31.799
31.772
31.745
31.719
31.693
31.668
31.643
31.619
31.596
31.573
31.551
31.527
31.503
31.477
31.45
31.422
31.392
31.362
31.33
31.296
31.262
31.226
31.19
31.152
31.115
31.078
31.041
31.006
30.972
30.941
30.91
30.883
30.857
30.834
30.814
30.796
30.781
30.77
30.766
30.769
30.783
30.812
30.862
30.937
31.042
31.182
31.363
31.587
31.858
32.176
32.541
32.951
33.403
33.89
34.407
34.948
35.504
36.068
36.634
37.194
37.742
38.273
38.781
39.264
39.718
40.142
40.533
40.89
41.214
41.505
41.762
41.986
42.178
42.34
42.472
42.576
42.653
42.704
42.731
42.735
42.717
42.679
42.624
42.552
42.465
42.366
42.256
42.137
42.011
41.878
41.741
41.6
41.458
41.315
41.172
41.031
40.891
40.754
40.619
40.487
40.358
40.231
40.105
39.981
39.857
39.734
39.61
39.485
39.359
39.232
39.104
38.976
38.846
38.717
38.589
38.463
38.341
38.223
38.113
38.011
37.92
37.839
37.771
37.715
37.672
37.641
37.622
37.614
37.617
37.629
37.65
37.68
37.716
37.758
37.806
37.858
37.913
37.969
38.025
38.079
38.13
38.177
38.22
38.256
38.287
38.311
38.329
38.339
38.343
38.34
38.331
38.314
38.29
38.26
38.223
38.18
38.131
38.076
38.015
37.948
37.876
37.798
37.716
37.63
37.541
37.449
37.354
37.258
37.161
37.063
36.965
36.867
36.769
36.672
36.576
36.481
36.387
36.295
36.203
36.111
36.02
35.928
35.836
35.745
35.653
35.562
35.471
35.38
35.29
35.201
35.113
35.026
34.94
34.856
34.774
34.694
34.616
34.541
34.469
34.401
34.335
34.273
34.212
34.155
34.1
34.049
33.999
33.953
33.909
33.868
33.829
33.793
33.759
33.727
33.697
33.668
33.64
33.612
33.585
33.557
33.53
33.503
33.477
33.45
33.423
33.396
33.368
33.34
33.312
33.285
33.258
33.232
33.207
33.183
33.159
33.137
33.117
33.097
33.079
33.062
33.047
33.033
33.02
33.006
32.992
32.978
32.962
32.946
32.928
32.909
32.89
32.871
32.851
32.832
32.811
32.791
32.769
32.747
32.725
32.702
32.678
32.653
32.628
32.603
32.578
32.553
32.527
32.5
32.473
32.444
32.414
32.384
32.352
32.32
32.287
32.253
32.218
32.182
32.147
32.111
32.076
32.041
32.007
31.972
31.938
31.905
31.872
31.84
31.806
31.773
31.738
31.703
31.666
31.629
31.59
31.551
31.511
31.47
31.429
31.388
31.347
31.307
31.266
31.226
31.185
31.146
31.107
31.07
31.034
31.001
30.972
30.947
30.927
30.912
30.902
30.9
30.907
30.925
30.959
31.012
31.089
31.195
31.335
31.513
31.733
31.996
32.304
32.655
33.047
33.477
33.938
34.425
34.932
35.453
35.98
36.507
37.028
37.538
38.03
38.502
38.949
39.369
39.76
40.121
40.45
40.748
41.015
41.251
41.458
41.637
41.787
41.91
42.007
42.079
42.127
42.152
42.154
42.135
42.095
42.036
41.958
41.864
41.753
41.628
41.491
41.344
41.189
41.027
40.862
40.693
40.524
40.354
40.186
40.02
39.856
39.694
39.534
39.377
39.222
39.07
38.92
38.771
38.623
38.476
38.33
38.184
38.038
37.894
37.752
37.612
37.476
37.344
37.219
37.102
36.995
36.899
36.816
36.746
36.69
36.649
36.622
36.609
36.608
36.619
36.64
36.67
36.709
36.756
36.81
36.87
36.935
37.003
37.073
37.144
37.215
37.283
37.349
37.41
37.466
37.515
37.556
37.589
37.613
37.628
37.636
37.635
37.627
37.61
37.587
37.556
37.519
37.476
37.428
37.375
37.317
37.256
37.19
37.121
37.048
36.971
36.89
36.806
36.719
36.63
36.539
36.447
36.354
36.261
36.168
36.074
35.982
35.889
35.797
35.703
35.609
35.515
35.418
35.321
35.222
35.123
35.023
34.923
34.825
34.726
34.629
34.533
34.439
34.347
34.258
34.171
34.088
34.009
33.932
33.86
33.79
33.724
33.66
33.599
33.54
33.483
33.429
33.376
33.327
33.279
33.234
33.191
33.151
33.112
33.076
33.041
33.008
32.975
32.944
32.914
32.884
32.856
32.829
32.802
32.776
32.749
32.723
32.696
32.67
32.645
32.62
32.597
32.574
32.553
32.534
32.516
32.5
32.484
32.47
32.456
32.441
32.427
32.413
32.4
32.385
32.371
32.356
32.34
32.325
32.31
32.295
32.28
32.266
32.251
32.237
32.222
32.207
32.191
32.174
32.155
32.134
32.113
32.089
32.065
32.04
32.014
31.986
31.958
31.93
31.901
31.872
31.842
31.812
31.782
31.752
31.722
31.692
31.663
31.635
31.607
31.58
31.553
31.526
31.5
31.473
31.446
31.419
31.392
31.365
31.339
31.313
31.288
31.262
31.237
31.21
31.183
31.154
31.124
31.093
31.061
31.028
30.994
30.959
30.923
30.887
30.849
30.812
30.774
30.736
30.699
30.662
30.627
30.593
30.562
30.533
30.508
30.487
30.47
30.459
30.457
30.466
30.49
30.535
30.605
30.706
30.844
31.024
31.25
31.525
31.851
32.227
32.652
33.121
33.629
34.17
34.738
35.325
35.923
36.525
37.123
37.711
38.283
38.834
39.359
39.854
40.318
40.747
41.14
41.497
41.818
42.102
42.351
42.563
42.742
42.888
43.002
43.088
43.146
43.178
43.187
43.174
43.142
43.093
43.028
42.949
42.857
42.753
42.638
42.512
42.379
42.237
42.09
41.938
41.783
41.627
41.47
41.315
41.161
41.01
40.861
40.717
40.576
40.438
40.304
40.173
40.044
39.917
39.79
39.663
39.535
39.406
39.275
39.143
39.01
38.877
38.744
38.614
38.488
38.366
38.252
38.145
38.046
37.958
37.881
37.815
37.761
37.719
37.688
37.669
37.662
37.666
37.68
37.704
37.736
37.775
37.82
37.869
37.92
37.973
38.026
38.078
38.128
38.176
38.22
38.26
38.295
38.325
38.349
38.367
38.377
38.38
38.375
38.361
38.339
38.31
38.274
38.231
38.182
38.128
38.068
38.003
37.934
37.861
37.783
37.701
37.616
37.526
37.433
37.337
37.24
37.14
37.039
36.937
36.834
36.73
36.626
36.522
36.417
36.312
36.206
36.1
35.994
35.888
35.783
35.68
35.577
35.476
35.377
35.279
35.184
35.09
34.998
34.908
34.819
34.732
34.646
34.562
34.48
34.398
34.318
34.24
34.164
34.089
34.017
33.948
33.881
33.817
33.756
33.699
33.644
33.593
33.545
33.5
33.457
33.416
33.378
33.341
33.306
33.271
33.238
33.207
33.176
33.146
33.116
33.086
33.055
33.024
32.993
32.962
32.931
32.901
32.872
32.845
32.82
32.797
32.776
32.757
32.739
32.723
32.708
32.695
32.682
32.67
32.658
32.646
32.634
32.622
32.609
32.597
32.584
32.57
32.556
32.541
32.525
32.507
32.488
32.468
32.447
32.426
32.403
32.38
32.356
32.331
32.305
32.277
32.248
32.218
32.188
32.157
32.126
32.094
32.063
32.031
31.999
31.966
31.932
31.897
31.861
31.825
31.788
31.751
31.713
31.675
31.637
31.598
31.56
31.521
31.482
31.444
31.406
31.369
31.332
31.297
31.263
31.229
31.196
31.165
31.134
31.104
31.076
31.05
31.025
31.001
30.977
30.952
30.927
30.902
30.875
30.848
30.819
30.789
30.756
30.722
30.687
30.65
30.612
30.574
30.536
30.499
30.461
30.425
30.391
30.359
30.33
30.304
30.285
30.273
30.27
30.281
30.31
30.361
30.439
30.55
30.701
30.896
31.139
31.434
31.782
32.182
32.632
33.127
33.662
34.23
34.823
35.434
36.054
36.675
37.291
37.895
38.48
39.041
39.572
40.072
40.536
40.964
41.355
41.707
42.022
42.3
42.542
42.748
42.92
43.058
43.164
43.24
43.287
43.308
43.305
43.28
43.234
43.169
43.088
42.992
42.884
42.764
42.635
42.497
42.352
42.201
42.046
41.886
41.724
41.56
41.396
41.231
41.067
40.905
40.746
40.591
40.439
40.292
40.149
40.01
39.875
39.743
39.614
39.487
39.361
39.235
39.108
38.98
38.852
38.724
38.597
38.473
38.354
38.241
38.136
38.039
37.953
37.876
37.809
37.751
37.702
37.663
37.633
37.611
37.598
37.595
37.599
37.612
37.634
37.663
37.7
37.744
37.794
37.848
37.905
37.962
38.018
38.07
38.118
38.16
38.195
38.223
38.244
38.256
38.261
38.258
38.248
38.23
38.206
38.174
38.136
38.09
38.039
37.981
37.917
37.849
37.775
37.697
37.616
37.53
37.441
37.348
37.251
37.152
37.05
36.946
36.841
36.734
36.627
36.521
36.416
36.312
36.209
36.108
36.007
35.906
35.805
35.705
35.603
35.502
35.4
35.298
35.197
35.097
34.998
34.901
34.806
34.712
34.622
34.534
34.449
34.367
34.288
34.213
34.14
34.07
34.004
33.94
33.879
33.821
33.765
33.711
33.66
33.611
33.564
33.519
33.475
33.433
33.391
33.35
33.31
33.271
33.232
33.195
33.159
33.126
33.094
33.065
33.038
33.013
32.989
32.966
32.942
32.919
32.896
32.872
32.849
32.826
32.804
32.783
32.762
32.742
32.723
32.704
32.687
32.671
32.656
32.642
32.627
32.613
32.597
32.581
32.565
32.548
32.53
32.511
32.493
32.474
32.456
32.437
32.419
32.402
32.384
32.368
32.351
32.335
32.32
32.304
32.287
32.269
32.25
32.228
32.204
32.179
32.152
32.124
32.094
32.064
32.034
32.004
31.974
31.944
31.915
31.886
31.857
31.829
31.803
31.777
31.752
31.727
31.703
31.678
31.652
31.625
31.596
31.566
31.534
31.5
31.465
31.428
31.388
31.347
31.305
31.26
31.215
31.168
31.121
31.073
31.025
30.978
30.93
30.883
30.837
30.792
30.752
30.715
30.685
30.664
30.655
30.661
30.688
30.738
30.82
30.937
31.095
31.299
31.55
31.851
32.201
32.599
33.041
33.521
34.034
34.573
35.129
35.696
36.265
36.829
37.381
37.916
38.428
38.912
39.367
39.789
40.176
40.529
40.846
41.127
41.373
41.586
41.765
41.914
42.032
42.123
42.186
42.224
42.238
42.231
42.203
42.157
42.093
42.013
41.92
41.813
41.694
41.565
41.425
41.277
41.121
40.957
40.788
40.614
40.437
40.258
40.078
39.899
39.722
39.548
39.376
39.208
39.042
38.879
38.717
38.555
38.392
38.228
38.063
37.897
37.731
37.566
37.402
37.242
37.087
36.94
36.803
36.676
36.561
36.461
36.375
36.305
36.252
36.214
36.194
36.19
36.201
36.227
36.265
36.316
36.376
36.444
36.518
36.598
36.681
36.767
36.853
36.938
37.022
37.102
37.178
37.248
37.311
37.367
37.415
37.455
37.486
37.508
37.522
37.526
37.523
37.512
37.494
37.469
37.437
37.399
37.355
37.306
37.251
37.19
37.124
37.052
36.974
36.892
36.805
36.715
36.621
36.525
36.427
36.328
36.226
36.124
36.02
35.915
35.81
35.705
35.6
35.495
35.391
35.288
35.186
35.084
34.983
34.883
34.783
34.683
34.582
34.482
34.383
34.285
34.188
34.093
34.001
33.91
33.823
33.738
33.655
33.575
33.498
33.424
33.353
33.285
33.22
33.156
33.095
33.036
32.979
32.924
32.873
32.824
32.777
32.734
32.692
32.653
32.615
32.579
32.544
32.511
32.48
32.45
32.423
32.398
32.374
32.352
32.331
32.311
32.292
32.275
32.26
32.246
32.234
32.225
32.217
32.211
32.207
32.203
32.2
32.198
32.195
32.192
32.188
32.183
32.178
32.171
32.164
32.155
32.145
32.134
32.123
32.111
32.1
32.087
32.075
32.063
32.05
32.037
32.024
32.01
31.996
31.98
31.963
31.944
31.923
31.9
31.876
31.849
31.822
31.793
31.764
31.735
31.706
31.677
31.648
31.619
31.59
31.56
31.531
31.501
31.471
31.441
31.412
31.382
31.351
31.32
31.288
31.255
31.221
31.186
31.151
31.116
31.08
31.045
31.008
30.972
30.934
30.897
30.859
30.821
30.784
30.748
30.711
30.676
30.64
30.606
30.572
30.54
30.508
30.477
30.448
30.419
30.393
30.369
30.348
30.334
30.328
30.335
30.361
30.409
30.488
30.603
30.76
30.964
31.22
31.53
31.896
32.316
32.788
33.306
33.865
34.458
35.075
35.71
36.352
36.994
37.627
38.243
38.838
39.406
39.942
40.443
40.908
41.333
41.72
42.069
42.379
42.653
42.892
43.097
43.269
43.41
43.52
43.602
43.657
43.685
43.689
43.67
43.63
43.571
43.494
43.401
43.294
43.174
43.043
42.903
42.756
42.602
42.445
42.284
42.121
41.958
41.796
41.635
41.476
41.32
41.168
41.019
40.873
40.731
40.592
40.455
40.319
40.184
40.048
39.91
39.771
39.63
39.486
39.342
39.196
39.052
38.91
38.772
38.638
38.512
38.394
38.285
38.187
38.101
38.028
37.969
37.923
37.892
37.875
37.871
37.879
37.899
37.928
37.965
38.008
38.056
38.108
38.161
38.215
38.268
38.319
38.368
38.415
38.458
38.496
38.53
38.558
38.581
38.598
38.608
38.612
38.609
38.598
38.579
38.552
38.519
38.477
38.428
38.372
38.31
38.241
38.166
38.087
38.002
37.913
37.819
37.723
37.623
37.521
37.417
37.311
37.204
37.096
36.988
36.88
36.771
36.662
36.553
36.444
36.336
36.228
36.122
36.016
35.911
35.807
35.705
35.605
35.505
35.407
35.31
35.213
35.118
35.024
34.93
34.839
34.749
34.661
34.576
34.494
34.416
34.341
34.27
34.202
34.136
34.073
34.011
33.951
33.892
33.835
33.78
33.727
33.677
33.629
33.583
33.54
33.499
33.46
33.422
33.387
33.352
33.319
33.287
33.255
33.225
33.195
33.165
33.136
33.107
33.078
