Trial 1:0back
35.257
35.194
35.126
35.054
34.979
34.9
34.818
34.734
34.649
34.564
34.482
34.401
34.321
34.242
34.163
34.085
34.008
33.933
33.859
33.787
33.715
33.645
33.574
33.505
33.438
33.372
33.308
33.245
33.184
33.126
33.07
33.017
32.967
32.918
32.872
32.828
32.786
32.746
32.707
32.671
32.637
32.605
32.575
32.546
32.519
32.493
32.469
32.446
32.424
32.402
32.382
32.362
32.344
32.329
32.316
32.305
32.297
32.29
32.285
32.279
32.274
32.27
32.267
32.266
32.264
32.263
32.262
32.261
32.26
32.259
32.257
32.254
32.249
32.243
32.234
32.225
32.213
32.2
32.186
32.172
32.156
32.139
32.12
32.101
32.08
32.059
32.038
32.017
31.995
31.973
31.951
31.928
31.906
31.885
31.868
31.855
31.848
31.848
31.857
31.879
31.917
31.977
32.064
32.184
32.346
32.554
32.815
33.132
33.508
33.941
34.431
34.971
35.555
36.172
36.812
37.462
38.11
38.744
39.351
39.92
40.441
40.905
41.307
41.642
41.908
42.105
42.235
42.299
42.302
42.251
42.151
42.007
41.828
41.619
41.387
41.139
40.882
40.621
40.36
40.105
39.858
39.621
39.396
39.185
38.989
38.808
38.64
38.484
38.337
38.197
38.061
37.928
37.795
37.661
37.524
37.383
37.238
37.088
36.932
36.769
36.602
36.43
36.256
36.083
35.913
35.749
35.594
35.449
35.319
35.202
35.102
35.019
34.953
34.903
34.867
34.846
34.837
34.84
34.854
34.876
34.904
34.938
34.977
35.018
35.062
35.107
35.151
35.193
35.231
35.263
35.288
35.305
35.313
35.312
35.303
35.284
35.257
35.221
35.178
35.127
35.071
35.008
34.94
34.867
34.79
34.711
34.63
34.548
34.466
34.384
34.302
34.219
34.134
34.047
33.959
33.868
33.778
33.687
33.597
33.509
33.421
33.336
33.253
33.174
33.098
33.026
32.957
32.892
32.83
32.77
32.713
32.66
32.61
32.564
32.521
32.481
32.442
32.404
32.368
32.334
32.3
32.267
32.235
32.205
32.175
32.147
32.12
32.094
32.07
32.049
32.03
32.013
31.999
31.987
31.978
31.971
31.966
31.964
31.964
31.966
31.971
31.978
31.987
31.998
32.011
32.026
32.042
32.057
32.073
32.087
32.1
32.11
32.118
32.123
32.124
32.123
32.119
32.113
32.106
32.098
32.088
32.078
32.067
32.055
32.043
32.031
32.016
32.0
31.982
31.962
31.942
31.92
31.898
31.876
31.852
31.828
31.804
31.78
31.757
31.734
31.714
31.695
31.678
31.666
31.66
31.663
31.678
31.708
31.758
31.835
31.946
32.098
32.299
32.556
32.875
33.259
33.711
34.228
34.806
35.44
36.12
36.835
37.571
38.313
39.044
39.749
40.414
41.025
41.573
42.047
42.444
42.761
42.999
43.161
43.252
43.277
43.245
43.16
43.031
42.866
42.672
42.457
42.226
41.987
41.742
41.496
41.255
41.021
40.795
40.58
40.377
40.186
40.009
39.844
39.693
39.555
39.427
39.31
39.199
39.095
38.993
38.891
38.788
38.679
38.564
38.443
38.313
38.176
38.03
37.876
37.716
37.551
37.382
37.212
37.041
36.869
36.699
36.533
36.373
36.223
36.084
35.958
35.849
35.757
35.682
35.625
35.583
35.557
35.543
35.542
35.551
35.567
35.588
35.613
35.64
35.667
35.692
35.713
35.73
35.741
35.747
35.745
35.737
35.721
35.698
35.668
35.633
35.591
35.545
35.494
35.439
35.381
35.319
35.254
35.185
35.114
35.041
34.966
34.888
34.808
34.724
34.638
34.551
34.462
34.374
34.285
34.197
34.111
34.026
33.944
33.862
33.782
33.703
33.625
33.548
33.47
33.392
33.315
33.239
33.165
33.095
33.028
32.964
32.903
32.847
32.794
32.745
32.702
32.664
32.632
32.604
32.579
32.555
32.532
32.508
32.483
32.458
32.432
32.404
32.375
32.345
32.317
32.289
32.263
32.239
32.219
32.203
32.19
32.18
32.171
32.163
32.156
32.15
32.146
32.142
32.139
32.136
32.133
32.131
32.128
32.125
32.122
32.12
32.119
32.118
32.116
32.114
32.111
32.108
32.104
32.099
32.094
32.088
32.081
32.074
32.065
32.056
32.047
32.038
32.03
32.022
32.012
32.002
31.991
31.98
31.967
31.954
31.94
31.924
31.907
31.887
31.867
31.845
31.822
31.8
31.778
31.758
31.741
31.728
31.721
31.724
31.738
31.768
31.818
31.893
31.999
32.144
32.336
32.582
32.886
33.254
33.687
34.183
34.74
35.35
36.006
36.696
37.408
38.127
38.841
39.535
40.194
40.807
41.363
41.855
42.275
42.621
42.89
43.084
43.206
43.262
43.255
43.194
43.086
42.937
42.758
42.553
42.329
42.094
41.851
41.608
41.367
41.133
40.907
40.69
40.484
40.288
40.104
39.931
39.769
39.618
39.476
39.344
39.219
39.1
38.984
38.87
38.754
38.637
38.515
38.39
38.259
38.122
37.978
37.828
37.672
37.51
37.343
37.173
37.002
36.832
36.665
36.504
36.352
36.209
36.077
35.957
35.851
35.76
35.685
35.625
35.579
35.548
35.529
35.521
35.523
35.533
35.549
35.572
35.599
35.629
35.659
35.688
35.714
35.737
35.755
35.767
35.771
35.767
35.753
35.731
35.701
35.662
35.615
35.562
35.502
35.436
35.364
35.288
35.207
35.123
35.037
34.951
34.864
34.776
34.687
34.597
34.506
34.415
34.324
34.232
34.14
34.048
33.955
33.864
33.774
33.687
33.602
33.519
33.44
33.365
33.293
33.224
33.158
33.094
33.034
32.977
32.923
32.872
32.824
32.779
32.737
32.698
32.661
32.625
32.59
32.557
32.525
32.496
32.469
32.446
32.425
32.406
32.387
32.367
32.347
32.326
32.307
32.288
32.27
32.254
32.24
32.229
32.22
32.214
32.211
32.21
32.211
32.213
32.216
32.219
32.221
32.225
32.229
32.234
32.239
32.244
32.249
32.254
32.258
32.261
32.261
32.26
32.257
32.252
32.245
32.237
32.228
32.217
32.204
32.19
32.174
32.157
32.139
32.12
32.101
32.08
32.057
32.034
32.011
31.988
31.965
31.943
31.921
31.9
31.879
31.857
31.835
31.813
31.79
31.768
31.747
31.728
31.711
31.695
31.682
31.671
31.665
31.666
31.676
31.698
31.735
31.794
31.88
32.002
32.167
32.383
32.657
32.992
33.389
33.849
34.366
34.935
35.549
36.198
36.87
37.552
38.232
38.897
39.534
40.132
40.681
41.174
41.604
41.969
42.267
42.496
42.657
42.753
42.788
42.767
42.695
42.58
42.425
42.24
42.031
41.804
41.567
41.322
41.074
40.828
40.586
40.35
40.124
39.906
39.699
39.503
39.318
39.145
38.983
38.831
38.687
38.549
38.416
38.286
38.156
38.027
37.896
37.763
37.628
37.491
37.353
37.212
37.07
36.927
36.783
36.642
36.503
36.37
36.242
36.122
36.012
35.914
35.827
35.755
35.698
35.657
35.63
35.616
35.615
35.626
35.647
35.677
35.712
35.752
35.793
35.833
35.871
35.905
35.933
35.954
35.968
35.974
35.973
35.965
35.95
35.928
35.899
35.864
35.823
35.776
35.725
35.669
35.61
35.548
35.482
35.413
35.339
35.262
35.182
35.1
35.014
34.927
34.838
34.747
34.656
34.565
34.477
34.39
34.304
34.221
34.139
34.058
33.978
33.9
33.825
33.753
33.684
33.618
33.555
33.496
33.439
33.384
33.33
33.278
33.227
33.178
33.129
33.082
33.037
32.993
32.951
32.912
32.875
32.84
32.807
32.776
32.747
32.721
32.698
32.677
32.66
32.645
32.634
32.627
32.623
32.621
32.622
32.624
32.628
32.633
32.638
32.642
32.646
32.65
32.655
32.659
32.662
32.664
32.664
32.664
32.662
32.658
32.654
32.649
32.642
32.634
32.625
32.614
32.602
32.589
32.575
32.559
32.54
32.519
32.497
32.473
32.446
32.418
32.389
32.36
32.332
32.306
32.28
32.257
32.236
32.218
32.204
32.195
32.192
32.2
32.22
32.259
32.32
32.41
32.535
32.701
32.916
33.185
33.512
33.898
34.344
34.847
35.402
35.999
36.627
37.275
37.93
38.577
39.204
39.797
40.344
40.837
41.269
41.635
41.932
42.16
42.318
42.407
42.434
42.402
42.321
42.198
42.041
41.858
41.655
41.438
41.214
40.987
40.76
40.538
40.323
40.116
39.919
39.732
39.557
39.392
39.236
39.089
38.949
38.813
38.68
38.547
38.414
38.278
38.139
37.997
37.852
37.702
37.547
37.389
37.227
37.062
36.896
36.732
36.571
36.416
36.267
36.126
35.995
35.876
35.769
35.677
35.6
35.538
35.492
35.46
35.44
35.432
35.434
35.444
35.461
35.482
35.505
35.53
35.555
35.578
35.6
35.619
35.635
35.648
35.658
35.665
35.669
35.669
35.663
35.652
35.634
35.609
35.573
35.523
35.46
35.388
35.307
35.221
35.132
35.042
34.953
34.866
34.783
34.703
34.626
34.552
34.479
34.407
34.337
34.266
34.194
34.121
34.047
33.972
33.896
33.82
33.743
33.666
33.591
33.518
33.446
33.377
33.311
33.249
33.189
33.132
33.078
33.027
32.977
32.929
32.882
32.837
32.793
32.752
32.713
32.676
32.64
32.604
32.569
32.535
32.502
32.471
32.443
32.419
32.399
32.383
32.37
32.361
32.354
32.35
32.347
32.347
32.348
32.35
32.354
32.357
32.361
32.366
32.37
32.374
32.377
32.377
32.376
32.373
32.368
32.363
32.357
32.35
32.343
32.333
32.321
32.308
32.294
32.279
32.265
32.25
32.235
32.221
32.207
32.195
32.183
32.172
32.162
32.153
32.145
32.136
32.129
32.121
32.112
32.104
32.096
32.089
32.082
32.078
32.078
32.086
32.105
32.139
32.194
32.276
32.392
32.549
32.754
33.012
33.33
33.709
34.15
34.652
35.208
35.81
36.45
37.116
37.795
38.475
39.143
39.786
40.391
40.948
41.447
41.883
42.25
42.545
42.767
42.92
43.005
43.029
42.997
42.919
42.8
42.65
42.474
42.278
42.069
41.85
41.626
41.402
41.179
40.961
40.751
40.551
40.362
40.187
40.027
39.881
39.748
39.628
39.519
39.418
39.322
39.229
39.136
39.042
38.944
38.841
38.731
38.612
38.483
38.345
38.199
38.043
37.88
37.711
37.539
37.366
37.194
37.028
36.869
36.721
36.584
36.46
36.349
36.252
36.169
36.1
36.045
36.002
35.971
35.951
35.939
35.934
35.935
35.94
35.947
35.955
35.962
35.969
35.974
35.976
35.975
35.971
35.963
35.952
35.937
35.917
35.892
35.862
35.827
35.787
35.74
35.688
35.631
35.567
35.498
35.424
35.347
35.266
35.181
35.093
35.003
34.913
34.821
34.729
34.635
34.541
34.447
34.353
34.261
34.172
34.085
34.002
33.922
33.846
33.773
33.702
33.634
33.568
33.503
33.44
33.376
33.314
33.252
33.192
33.134
33.079
33.026
32.977
32.93
32.884
32.84
32.798
32.757
32.719
32.683
32.65
32.619
32.591
32.566
32.544
32.525
32.508
32.494
32.482
32.471
32.462
32.454
32.449
32.447
32.448
32.453
32.46
32.466
32.472
32.475
32.478
32.478
32.477
32.475
32.471
32.466
32.459
32.45
32.439
32.426
32.412
32.395
32.377
32.357
32.336
32.315
32.295
32.275
32.257
32.24
32.225
32.21
32.195
32.179
32.162
32.143
32.122
32.102
32.081
32.06
32.041
32.024
32.009
31.997
31.989
31.987
31.994
32.014
32.053
32.116
32.209
32.339
32.511
32.731
33.004
33.335
33.726
34.175
34.68
35.235
35.832
36.463
37.117
37.779
38.438
39.081
39.696
40.271
40.797
41.264
41.667
42.001
42.264
42.455
42.577
42.634
42.633
42.58
42.483
42.348
42.182
41.993
41.788
41.573
41.352
41.129
40.91
40.696
40.49
40.296
40.113
39.943
39.786
39.642
39.509
39.388
39.276
39.171
39.071
38.974
38.878
38.78
38.679
38.574
38.462
38.341
38.211
38.07
37.919
37.759
37.591
37.418
37.242
37.066
36.893
36.726
36.566
36.416
36.277
36.151
36.039
35.943
35.862
35.796
35.745
35.705
35.677
35.657
35.643
35.635
35.63
35.628
35.627
35.626
35.623
35.619
35.612
35.603
35.593
35.58
35.563
35.543
35.519
35.49
35.458
35.422
35.384
35.342
35.298
35.252
35.202
35.148
35.09
35.027
34.961
34.89
34.815
34.736
34.652
34.564
34.473
34.378
34.283
34.186
34.09
33.996
33.904
33.814
33.729
33.647
33.569
33.494
33.422
33.352
33.285
33.221
33.16
33.101
33.046
32.993
32.945
32.899
32.856
32.815
32.778
32.743
32.709
32.676
32.643
32.61
32.577
32.541
32.502
32.458
32.412
32.366
32.32
32.278
32.24
32.208
32.183
32.164
32.153
32.149
32.151
32.159
32.17
32.183
32.197
32.21
32.223
32.236
32.247
32.256
32.263
32.268
32.27
32.271
32.27
32.268
32.264
32.259
32.254
32.248
32.24
32.233
32.225
32.218
32.211
32.203
32.194
32.185
32.175
32.163
32.149
32.133
32.115
32.096
32.076
32.056
32.036
32.017
32.0
31.985
31.971
31.958
31.946
31.934
31.923
31.912
31.902
31.893
31.884
31.878
31.874
31.876
31.886
31.91
31.951
32.018
32.115
32.25
32.429
32.658
32.943
33.285
33.686
34.144
34.655
35.214
35.814
36.446
37.095
37.75
38.397
39.023
39.616
40.166
40.663
41.1
41.472
41.778
42.016
42.186
42.292
42.336
42.325
42.265
42.162
42.024
41.856
41.665
41.458
41.239
41.014
40.787
40.562
40.344
40.133
39.933
39.743
39.566
39.401
39.247
39.103
38.968
38.84
38.716
38.595
38.474
38.351
38.226
38.097
37.963
37.824
37.682
37.536
37.387
37.237
37.085
36.936
36.79
36.649
36.514
36.387
36.269
36.161
36.064
35.979
35.905
35.845
35.796
35.758
35.731
35.712
35.701
35.697
35.699
35.708
35.723
35.744
35.769
35.797
35.827
35.857
35.885
35.91
35.93
35.944
35.953
35.954
35.946
35.928
35.9
35.864
35.821
35.771
35.715
35.652
35.584
35.511
35.432
35.349
35.262
35.172
35.079
34.986
34.893
34.802
34.711
34.623
34.536
34.452
34.371
34.292
34.217
34.145
34.077
34.013
33.951
33.893
33.838
33.786
33.738
33.692
33.646
33.601
33.554
33.504
33.453
33.401
33.348
33.294
33.241
33.19
33.139
33.09
33.043
33.0
32.962
32.929
32.901
32.878
32.862
32.851
32.845
32.844
32.846
32.851
32.859
32.869
32.879
32.889
32.898
32.906
32.914
32.921
32.929
32.936
32.944
32.95
32.957
32.962
32.964
32.963
32.958
32.948
32.935
32.918
32.9
32.882
32.863
32.846
32.83
32.815
32.8
32.785
32.77
32.755
32.741
32.726
32.71
32.694
32.678
32.66
32.641
32.622
32.603
32.586
32.572
32.564
32.567
32.584
32.62
32.68
32.769
32.893
33.058
33.268
33.527
33.838
34.201
34.615
35.077
35.58
36.119
36.684
37.264
37.849
38.427
38.987
39.521
40.019
40.472
40.875
41.222
41.511
41.74
41.911
42.024
42.082
42.089
42.049
41.97
41.857
41.714
41.548
41.363
41.165
40.959
40.749
40.54
40.335
40.137
39.948
39.769
39.601
39.444
39.297
39.16
39.029
38.905
38.784
38.666
38.551
38.436
38.32
38.203
38.082
37.957
37.827
37.69
37.546
37.396
37.241
37.08
36.916
36.75
36.584
36.42
36.262
36.113
35.975
35.849
35.739
35.643
35.563
35.499
35.45
35.417
35.398
35.393
35.403
35.425
35.457
35.497
35.541
35.587
35.633
35.677
35.717
35.751
35.778
35.798
35.81
35.811
35.803
35.785
35.757
35.721
35.677
35.626
35.57
35.508
35.442
35.373
35.302
35.229
35.154
35.077
35.0
34.923
34.847
34.77
34.694
34.617
34.542
34.467
34.393
34.319
34.245
34.171
34.097
34.022
33.947
33.87
33.793
33.716
33.638
33.562
33.486
33.413
33.343
33.278
33.219
33.165
33.116
33.071
33.031
32.995
32.962
32.931
32.902
32.877
32.855
32.835
32.818
32.803
32.789
32.775
32.761
32.747
32.732
32.717
32.703
32.69
32.679
32.67
32.662
32.657
32.654
32.653
32.654
32.656
32.658
32.662
32.667
32.672
32.676
32.68
32.682
32.682
32.68
32.674
32.666
32.655
32.641
32.625
32.608
32.589
32.57
32.55
32.529
32.508
32.488
32.468
32.449
32.431
32.414
32.398
32.382
32.367
32.351
32.334
32.317
32.298
32.28
32.261
32.243
32.225
32.21
32.199
32.195
32.201
32.221
32.26
32.324
32.419
32.55
32.722
32.942
33.212
33.538
33.918
34.353
34.84
35.371
35.94
36.536
37.149
37.768
38.379
38.971
39.531
40.05
40.52
40.933
41.286
41.576
41.803
41.967
42.072
42.121
42.12
42.076
41.995
41.882
41.745
41.589
41.419
41.24
41.057
40.874
40.693
40.517
40.346
40.183
40.029
39.884
39.748
39.62
39.5
39.386
39.279
39.176
39.079
38.984
38.89
38.798
38.704
38.608
38.509
38.405
38.296
38.18
38.057
37.927
37.791
37.65
37.503
37.351
37.196
37.039
36.883
36.729
36.58
36.438
36.304
36.18
36.067
35.967
35.879
35.804
35.741
35.69
35.652
35.624
35.609
35.604
35.609
35.619
35.635
35.651
35.668
35.683
35.695
35.701
35.701
35.692
35.675
35.649
35.616
35.577
35.531
35.481
35.424
35.364
35.301
35.235
35.167
35.098
35.028
34.957
34.886
34.815
34.744
34.673
34.604
34.535
34.468
34.402
34.338
34.273
34.209
34.146
34.082
34.019
33.956
33.893
33.83
33.767
33.702
33.637
33.57
33.503
33.435
33.367
33.299
33.23
33.163
33.098
33.036
32.976
32.919
32.866
32.817
32.773
32.732
32.696
32.663
32.635
32.612
32.594
32.582
32.574
32.571
32.572
32.576
32.582
32.589
32.597
32.605
32.614
32.621
32.627
32.629
32.628
32.624
32.618
32.608
32.594
32.574
32.549
32.52
32.488
32.453
32.418
32.382
32.348
32.315
32.284
32.254
32.227
32.202
32.18
32.161
32.143
32.128
32.114
32.102
32.091
32.082
32.074
32.068
32.063
32.061
32.061
32.067
32.08
32.106
32.147
32.21
32.298
32.418
32.575
32.774
33.019
33.314
33.659
34.053
34.494
34.977
35.496
36.041
36.602
37.17
37.735
38.285
38.812
39.307
39.761
40.168
40.522
40.822
41.065
41.252
41.384
41.464
41.493
41.478
41.424
41.336
41.222
41.087
40.936
40.774
40.606
40.436
40.267
40.102
39.941
39.788
39.642
39.502
39.368
39.239
39.114
38.993
38.875
38.759
38.643
38.529
38.415
38.301
38.185
38.067
37.945
37.818
37.688
37.552
37.411
37.265
37.117
36.968
36.818
36.671
36.526
36.388
36.257
36.136
36.027
35.931
35.848
35.779
35.723
35.681
35.652
35.635
35.63
35.636
35.653
35.68
35.715
35.758
35.804
35.854
35.903
35.95
35.994
36.032
36.064
36.088
36.105
36.114
36.115
36.108
36.093
36.073
36.047
36.016
35.98
35.941
35.898
35.852
35.804
35.753
35.7
35.643
35.583
35.521
35.457
35.391
35.324
35.254
35.183
35.112
35.041
34.971
34.903
34.836
34.772
34.711
34.655
34.602
34.553
34.508
34.467
34.43
34.395
34.361
34.328
34.294
34.26
34.225
34.187
34.148
34.106
34.061
34.015
33.966
33.917
33.866
33.814
33.762
33.711
33.661
33.612
33.563
33.515
33.469
33.424
33.382
33.342
33.305
33.27
33.237
33.208
33.18
33.156
33.135
33.117
33.102
33.089
33.078
33.068
33.059
33.053
33.049
33.048
33.051
33.059
33.073
33.095
33.127
33.172
33.234
33.32
33.432
33.575
33.752
33.967
34.223
34.522
34.864
35.248
35.67
36.126
36.607
37.106
37.612
38.116
38.608
39.078
39.517
39.917
40.273
40.581
40.839
41.046
41.203
41.313
41.377
41.4
41.384
41.335
41.255
41.15
41.025
40.885
40.735
40.579
40.42
40.263
40.109
39.96
39.818
39.682
39.553
39.432
39.318
39.211
39.109
39.011
38.917
38.824
38.731
38.635
38.534
38.427
38.313
38.189
38.057
37.917
37.768
37.612
37.449
37.279
37.106
36.932
36.757
36.586
36.419
36.26
36.111
35.974
35.851
35.742
35.648
35.57
35.509
35.463
35.433
35.419
35.42
35.435
35.462
35.5
35.546
35.598
35.654
35.712
35.768
35.821
35.868
35.905
35.934
35.952
35.959
35.956
35.94
35.913
35.876
35.829
35.775
35.714
35.648
35.578
35.506
35.43
35.352
35.272
35.19
35.106
35.02
34.933
34.845
34.757
34.669
34.582
34.498
34.417
34.338
34.263
34.19
34.121
34.054
33.989
33.926
33.864
33.804
33.748
33.696
33.647
33.6
33.556
33.515
33.475
33.436
33.397
33.359
33.323
33.289
33.257
33.227
33.199
33.172
33.148
33.124
33.101
33.078
33.055
33.033
33.011
32.991
32.972
32.954
32.937
32.922
32.91
32.898
32.887
32.876
32.865
32.854
32.841
32.827
32.811
32.795
32.78
32.767
32.756
32.749
32.746
32.751
32.765
32.791
32.831
32.889
32.972
33.086
33.236
33.427
33.663
33.948
34.281
34.662
35.087
35.552
36.048
36.567
37.098
37.633
38.162
38.676
39.166
39.625
40.047
40.426
40.758
41.04
41.27
41.448
41.576
41.655
41.69
41.684
41.643
41.573
41.479
41.366
41.239
41.102
40.958
40.812
40.666
40.523
40.384
40.25
40.122
40.002
39.889
39.785
39.688
39.599
39.516
39.438
39.364
39.292
39.221
39.149
39.073
38.991
38.901
38.8
38.686
38.558
38.417
38.263
38.098
37.923
