Trial 1:0back
36.782
36.724
36.669
36.615
36.563
36.511
36.458
36.404
36.348
36.289
36.229
36.167
36.105
36.045
35.986
35.93
35.879
35.832
35.791
35.758
35.734
35.717
35.71
35.71
35.717
35.733
35.754
35.78
35.809
35.841
35.874
35.907
35.939
35.967
35.993
36.014
36.031
36.043
36.049
36.048
36.041
36.028
36.01
35.989
35.965
35.938
35.907
35.875
35.842
35.809
35.776
35.742
35.708
35.674
35.64
35.607
35.574
35.54
35.505
35.468
35.429
35.388
35.344
35.298
35.248
35.196
35.142
35.085
35.026
34.966
34.904
34.841
34.779
34.718
34.659
34.601
34.546
34.494
34.447
34.405
34.366
34.333
34.303
34.277
34.255
34.236
34.218
34.203
34.187
34.173
34.16
34.147
34.135
34.122
34.107
34.092
34.075
34.057
34.038
34.018
33.998
33.977
33.957
33.938
33.919
33.9
33.882
33.864
33.847
33.832
33.817
33.804
33.794
33.785
33.778
33.773
33.77
33.77
33.771
33.773
33.775
33.776
33.777
33.778
33.779
33.782
33.79
33.803
33.825
33.857
33.903
33.964
34.041
34.138
34.255
34.393
34.552
34.729
34.924
35.133
35.356
35.587
35.825
36.065
36.304
36.538
36.766
36.983
37.187
37.375
37.543
37.689
37.812
37.909
37.981
38.027
38.05
38.049
38.028
37.987
37.929
37.858
37.775
37.684
37.585
37.48
37.373
37.264
37.156
37.049
36.946
36.846
36.75
36.66
36.576
36.498
36.424
36.355
36.289
36.224
36.161
36.097
36.033
35.967
35.899
35.831
35.761
35.691
35.622
35.554
35.488
35.427
35.371
35.321
35.277
35.241
35.214
35.196
35.189
35.191
35.201
35.219
35.244
35.274
35.308
35.345
35.384
35.424
35.463
35.499
35.532
35.56
35.584
35.603
35.617
35.624
35.625
35.619
35.608
35.591
35.572
35.551
35.528
35.503
35.477
35.45
35.422
35.394
35.366
35.337
35.307
35.276
35.244
35.211
35.177
35.14
35.103
35.063
35.022
34.979
34.934
34.888
34.84
34.79
34.739
34.686
34.633
34.579
34.525
34.471
34.417
34.365
34.314
34.264
34.216
34.171
34.129
34.09
34.055
34.023
33.995
33.97
33.948
33.93
33.915
33.903
33.892
33.883
33.875
33.868
33.862
33.855
33.849
33.843
33.836
33.827
33.818
33.806
33.793
33.778
33.762
33.747
33.733
33.719
33.707
33.695
33.683
33.673
33.664
33.658
33.653
33.65
33.648
33.648
33.649
33.652
33.655
33.659
33.662
33.665
33.667
33.668
33.666
33.661
33.655
33.647
33.64
33.635
33.633
33.638
33.651
33.677
33.718
33.776
33.854
33.952
34.073
34.217
34.382
34.569
34.774
34.995
35.229
35.471
35.719
35.969
36.215
36.454
36.682
36.895
37.092
37.268
37.423
37.554
37.66
37.741
37.798
37.831
37.84
37.829
37.8
37.754
37.696
37.626
37.549
37.464
37.376
37.286
37.194
37.103
37.013
36.924
36.84
36.759
36.682
36.608
36.539
36.472
36.409
36.349
36.29
36.233
36.176
36.118
36.058
35.997
35.933
35.866
35.798
35.73
35.663
35.598
35.538
35.482
35.432
35.388
35.351
35.322
35.299
35.283
35.273
35.27
35.273
35.283
35.297
35.315
35.337
35.362
35.387
35.415
35.445
35.483
35.53
35.583
35.632
35.67
35.695
35.705
35.703
35.689
35.665
35.635
35.599
35.56
35.521
35.483
35.446
35.413
35.383
35.357
35.335
35.316
35.3
35.286
35.273
35.258
35.241
35.221
35.197
35.169
35.137
35.1
35.06
35.016
34.968
34.917
34.863
34.807
34.749
34.69
34.631
34.572
34.515
34.46
34.407
34.359
34.315
34.275
34.239
34.206
34.178
34.153
34.132
34.114
34.098
34.084
34.07
34.058
34.047
34.034
34.021
34.007
33.992
33.974
33.956
33.936
33.914
33.889
33.864
33.838
33.812
33.786
33.761
33.737
33.715
33.694
33.676
33.662
33.652
33.645
33.642
33.641
33.643
33.649
33.657
33.667
33.678
33.689
33.699
33.708
33.715
33.719
33.719
33.714
33.705
33.691
33.674
33.654
33.631
33.607
33.581
33.554
33.526
33.497
33.467
33.438
33.41
33.385
33.364
33.349
33.344
33.349
33.368
33.404
33.458
33.532
33.627
33.744
33.882
34.042
34.222
34.42
34.633
34.858
35.093
35.333
35.576
35.818
36.055
36.284
36.502
36.707
36.896
37.068
37.222
37.356
37.471
37.566
37.642
37.7
37.741
37.766
37.777
37.774
37.758
37.73
37.691
37.642
37.584
37.518
37.445
37.366
37.283
37.197
37.109
37.021
36.933
36.848
36.765
36.686
36.611
36.54
36.473
36.411
36.353
36.299
36.249
36.203
36.16
36.12
36.083
36.05
36.019
35.991
35.966
35.942
35.919
35.898
35.878
35.858
35.839
35.82
35.802
35.785
35.77
35.754
35.74
35.725
35.711
35.698
35.687
35.677
35.669
35.664
35.661
35.661
35.665
35.67
35.678
35.687
35.698
35.711
35.724
35.737
35.748
35.756
35.762
35.764
35.761
35.753
35.74
35.721
35.696
35.666
35.63
35.589
35.543
35.493
35.439
35.383
35.325
35.266
35.206
35.148
35.091
35.037
34.984
34.935
34.889
34.847
34.809
34.775
34.744
34.715
34.687
34.66
34.633
34.606
34.578
34.548
34.516
34.484
34.449
34.413
34.376
34.336
34.295
34.252
34.21
34.168
34.127
34.087
34.05
34.017
33.986
33.96
33.938
33.92
33.906
33.896
33.889
33.886
33.885
33.886
33.888
33.891
33.895
33.897
33.899
33.899
33.898
33.894
33.887
33.878
33.865
33.85
33.83
33.808
33.784
33.758
33.731
33.703
33.674
33.647
33.621
33.598
33.579
33.562
33.55
33.543
33.542
33.548
33.564
33.59
33.63
33.683
33.754
33.842
33.948
34.074
34.217
34.377
34.552
34.742
34.943
35.154
35.372
35.593
35.815
36.033
36.245
36.446
36.635
36.81
36.969
37.111
37.236
37.341
37.428
37.498
37.551
37.589
37.612
37.62
37.613
37.594
37.561
37.516
37.46
37.395
37.32
37.239
37.152
37.06
36.966
36.871
36.777
36.686
36.599
36.515
36.437
36.363
36.295
36.234
36.179
36.13
36.087
36.049
36.015
35.984
35.956
35.93
35.904
35.879
35.854
35.828
35.802
35.775
35.748
35.72
35.693
35.665
35.638
35.611
35.586
35.562
35.539
35.52
35.503
35.488
35.477
35.469
35.467
35.469
35.477
35.489
35.504
35.523
35.544
35.566
35.589
35.61
35.629
35.646
35.659
35.667
35.671
35.668
35.66
35.646
35.625
35.599
35.567
35.53
35.488
35.443
35.395
35.344
35.293
35.241
35.19
35.14
35.093
35.048
35.004
34.962
34.922
34.882
34.845
34.81
34.776
34.743
34.709
34.676
34.643
34.609
34.575
34.539
34.501
34.462
34.422
34.381
34.338
34.295
34.252
34.21
34.169
34.13
34.094
34.061
34.031
34.004
33.982
33.964
33.95
33.94
33.933
33.928
33.926
33.926
33.927
33.928
33.93
33.931
33.932
33.931
33.929
33.924
33.917
33.907
33.896
33.882
33.866
33.849
33.83
33.81
33.789
33.768
33.746
33.723
33.702
33.682
33.665
33.65
33.639
33.633
33.631
33.635
33.646
33.665
33.694
33.734
33.786
33.852
33.933
34.029
34.141
34.269
34.412
34.57
34.742
34.926
35.12
35.321
35.527
35.734
35.939
36.139
36.331
36.512
36.681
36.836
36.977
37.103
37.214
37.308
37.387
37.45
37.497
37.53
37.548
37.552
37.543
37.521
37.485
37.438
37.379
37.311
37.234
37.151
37.063
36.972
36.878
36.784
36.691
36.598
36.508
36.422
36.34
36.264
36.194
36.131
36.074
36.022
35.976
35.935
35.898
35.865
35.834
35.806
35.778
35.751
35.725
35.699
35.672
35.644
35.617
35.591
35.566
35.543
35.523
35.506
35.493
35.484
35.478
35.475
35.476
35.48
35.488
35.501
35.517
35.537
35.56
35.585
35.612
35.639
35.667
35.694
35.718
35.739
35.756
35.768
35.773
35.773
35.767
35.755
35.737
35.715
35.687
35.654
35.616
35.573
35.527
35.477
35.425
35.372
35.319
35.267
35.217
35.168
35.122
35.079
35.039
35.002
34.967
34.934
34.902
34.871
34.841
34.811
34.78
34.748
34.715
34.68
34.643
34.606
34.567
34.528
34.488
34.447
34.406
34.365
34.326
34.287
34.25
34.215
34.184
34.157
34.134
34.116
34.102
34.092
34.085
34.082
34.083
34.085
34.09
34.096
34.102
34.107
34.111
34.111
34.109
34.103
34.094
34.082
34.067
34.049
34.03
34.008
33.986
33.963
33.939
33.916
33.895
33.875
33.86
33.851
33.848
33.855
33.871
33.9
33.943
34.0
34.074
34.166
34.276
34.404
34.549
34.711
34.887
35.075
35.274
35.481
35.691
35.903
36.112
36.316
36.512
36.697
36.869
37.026
37.166
37.288
37.39
37.474
37.54
37.588
37.619
37.635
37.637
37.627
37.606
37.576
37.538
37.494
37.442
37.384
37.321
37.252
37.179
37.102
37.022
36.94
36.857
36.773
36.69
36.608
36.528
36.45
36.374
36.301
36.231
36.164
36.101
36.041
35.986
35.934
35.887
35.844
35.806
35.772
35.743
35.719
35.697
35.679
35.664
35.651
35.638
35.626
35.615
35.605
35.595
35.588
35.582
35.577
35.573
35.571
35.573
35.578
35.586
35.598
35.612
35.627
35.644
35.662
35.679
35.696
35.71
35.724
35.734
35.741
35.746
35.748
35.746
35.74
35.729
35.712
35.692
35.671
35.646
35.612
35.568
35.516
35.459
35.398
35.335
35.274
35.215
35.159
35.109
35.063
35.021
34.984
34.95
34.919
34.891
34.864
34.838
34.812
34.787
34.762
34.737
34.712
34.687
34.662
34.635
34.607
34.577
34.547
34.515
34.483
34.449
34.416
34.381
34.347
34.314
34.282
34.251
34.223
34.196
34.171
34.15
34.131
34.115
34.102
34.092
34.084
34.077
34.073
34.071
34.07
34.071
34.074
34.077
34.079
34.081
34.082
34.081
34.077
34.071
34.061
34.049
34.034
34.018
34.0
33.981
33.962
33.945
33.93
33.922
33.92
33.929
33.951
33.988
34.042
34.116
34.211
34.328
34.468
34.63
34.812
35.012
35.226
35.453
35.687
35.924
36.161
36.392
36.615
36.826
37.021
37.199
37.358
37.497
37.615
37.712
37.788
37.843
37.878
37.896
37.899
37.887
37.863
37.828
37.785
37.735
37.68
37.621
37.559
37.494
37.428
37.36
37.291
37.222
37.151
37.081
37.011
36.942
36.874
36.809
36.745
36.683
36.623
36.565
36.509
36.455
36.403
36.353
36.305
36.26
36.217
36.177
36.14
36.106
36.075
36.047
36.022
36.002
35.984
35.969
35.956
35.945
35.935
35.926
35.916
35.907
35.898
35.889
35.88
35.87
35.862
35.853
35.846
35.839
35.834
35.83
35.828
35.828
35.83
35.834
35.84
35.847
35.855
35.862
35.87
35.876
35.88
35.881
35.877
35.869
35.854
35.833
35.805
35.771
35.731
35.685
35.635
35.58
35.523
35.462
35.401
35.34
35.279
35.219
35.162
35.106
35.052
35.001
34.952
34.906
34.863
34.823
34.787
34.754
34.724
34.698
34.674
34.652
34.632
34.611
34.589
34.567
34.543
34.516
34.487
34.456
34.422
34.387
34.349
34.311
34.273
34.237
34.201
34.168
34.138
34.112
34.089
34.071
34.057
34.046
34.039
34.035
34.034
34.035
34.04
34.047
34.056
34.066
34.075
34.084
34.09
34.094
34.094
34.091
34.083
34.07
34.053
34.032
34.008
33.98
33.95
33.919
33.888
33.858
33.83
33.806
33.786
33.772
33.765
33.767
33.78
33.805
33.844
33.9
33.972
34.063
34.172
34.299
34.445
34.607
34.785
34.977
35.178
35.388
35.603
35.819
36.034
36.244
36.447
36.638
36.816
36.979
37.125
37.253
37.364
37.457
37.531
37.588
37.629
37.653
37.664
37.661
37.646
37.622
37.588
37.545
37.495
37.439
37.377
37.311
37.241
37.169
37.096
37.022
36.947
36.873
36.8
36.729
36.66
36.594
36.532
36.475
36.422
36.374
36.33
36.29
36.254
36.221
36.189
36.16
36.13
36.101
36.071
36.04
36.007
35.972
35.936
35.898
35.86
35.821
35.783
35.747
35.711
35.678
35.646
35.617
35.592
35.57
35.553
35.541
35.533
35.531
35.534
35.541
35.553
35.568
35.585
35.603
35.621
35.638
35.652
35.664
35.672
35.677
35.677
35.672
35.661
35.645
35.622
35.594
35.559
35.519
35.474
35.424
35.371
35.315
35.259
35.203
35.148
35.094
35.042
34.993
34.947
34.905
34.867
34.831
34.799
34.769
34.741
34.714
34.687
34.66
34.633
34.604
34.574
34.541
34.506
34.469
34.431
34.391
34.351
34.309
34.267
34.225
34.184
34.146
34.111
34.079
34.05
34.026
34.007
33.991
33.98
33.972
33.966
33.963
33.961
33.96
33.961
33.962
33.963
33.964
33.964
33.963
33.959
33.953
33.945
33.934
33.922
33.907
33.891
33.873
33.853
33.834
33.814
33.794
33.775
33.756
33.736
33.718
33.699
33.682
33.665
33.65
33.637
33.624
33.613
33.603
33.596
33.591
33.588
33.589
33.593
33.602
33.617
33.639
33.67
33.71
33.762
33.828
33.908
34.005
34.119
34.248
34.394
34.553
34.726
34.909
35.1
35.296
35.495
35.691
35.883
36.067
36.241
36.401
36.547
36.677
36.79
36.883
36.956
37.009
37.042
37.057
37.053
37.031
36.994
36.942
36.879
36.805
36.725
36.639
36.551
36.461
36.372
36.284
36.2
36.121
36.048
35.983
35.925
35.874
35.832
35.797
35.768
35.745
35.727
35.712
35.699
35.686
35.671
35.654
35.633
35.607
35.578
35.544
35.506
35.465
35.421
35.375
35.33
35.287
35.247
35.211
35.182
35.158
35.142
35.134
35.132
35.138
35.151
35.169
35.191
35.218
35.248
35.279
35.31
35.341
35.371
35.398
35.421
35.44
35.453
35.459
35.46
35.454
35.442
35.425
35.402
35.375
35.345
35.311
35.276
35.239
35.202
35.166
35.129
35.094
35.059
35.026
34.992
34.96
34.928
34.896
34.865
34.834
34.802
34.771
34.739
34.706
34.671
34.635
34.596
34.556
34.514
34.471
34.427
34.382
34.336
34.291
34.247
34.204
34.162
34.123
34.086
34.052
34.023
33.999
33.98
33.965
33.955
33.948
33.945
33.945
33.947
33.952
33.957
33.963
33.968
33.973
33.975
33.975
33.971
33.965
33.955
33.942
33.926
33.908
33.888
33.866
33.843
33.82
33.796
33.774
33.754
33.736
33.721
33.709
33.699
33.693
33.689
33.687
33.687
33.688
33.689
33.69
33.69
33.69
33.69
33.687
33.684
33.68
33.675
33.67
33.667
33.665
33.667
33.674
33.688
33.711
33.747
33.796
33.861
33.941
34.039
34.153
34.283
34.428
34.587
34.758
34.939
35.125
35.314
35.502
35.686
35.863
36.03
36.184
36.323
36.445
36.548
36.632
36.697
36.742
36.768
36.776
36.767
36.743
36.705
36.655
36.596
36.529
36.457
36.383
36.308
36.234
36.163
36.096
36.034
35.977
35.925
35.879
35.838
35.8
35.766
35.735
35.706
35.678
35.65
35.621
35.591
35.557
35.521
35.483
35.441
35.398
35.354
35.31
35.267
35.227
35.19
35.158
35.132
35.111
35.098
35.091
35.091
35.096
35.106
35.121
35.139
35.158
35.179
35.199
35.219
35.236
35.252
35.265
35.276
35.285
35.291
35.294
35.295
35.293
35.289
35.282
35.274
35.263
35.25
35.236
35.222
35.208
35.195
35.182
35.17
35.156
35.142
35.126
35.108
35.088
35.066
35.04
35.012
34.981
34.947
34.91
34.871
34.83
34.787
34.742
34.695
34.647
34.598
34.549
34.501
34.455
34.41
34.367
34.327
34.29
34.257
34.227
34.2
34.177
34.158
34.14
34.125
34.111
34.099
34.087
34.076
34.066
34.056
34.046
34.037
34.028
34.019
34.008
33.995
33.98
33.961
33.939
33.914
33.889
33.864
33.839
33.814
33.79
33.769
33.749
33.732
33.718
33.706
33.698
33.692
33.687
33.682
33.677
33.672
33.666
33.661
33.659
33.666
33.682
33.705
33.733
33.763
33.793
33.819
33.839
33.852
33.857
33.854
33.842
33.823
33.798
33.767
33.734
33.699
33.664
33.63
33.599
33.571
33.546
33.527
33.512
33.502
33.497
33.497
33.503
33.513
33.529
33.55
33.579
33.614
33.658
33.712
33.776
33.852
33.942
34.045
34.16
34.288
34.429
34.581
34.743
34.914
35.092
35.274
35.459
35.645
35.828
36.006
36.176
36.337
36.486
36.619
36.737
36.836
36.917
36.98
37.024
37.049
37.057
37.048
37.023
36.984
36.933
36.873
36.804
36.728
36.648
36.564
36.479
36.396
36.315
36.239
36.169
36.106
36.05
36.002
35.96
35.925
35.895
35.871
35.85
35.831
35.814
35.798
35.78
35.76
35.739
35.714
35.687
35.657
35.624
35.588
35.549
35.51
35.47
35.43
35.393
35.358
35.327
35.3
35.28
35.265
35.257
35.256
35.261
35.272
35.288
35.309
35.334
35.363
35.393
35.424
35.454
35.482
35.506
35.527
35.543
35.554
35.56
35.561
35.557
35.549
35.537
35.521
35.501
35.479
35.454
35.427
35.399
35.369
35.339
35.308
35.277
35.245
35.214
35.182
35.151
35.12
35.089
35.057
35.026
34.994
34.96
34.926
34.89
34.853
34.814
34.775
34.733
34.69
34.647
34.604
34.562
34.521
34.483
34.446
34.411
34.379
34.351
34.325
34.303
34.283
34.267
34.253
34.243
34.235
34.229
34.225
34.222
34.219
34.215
34.21
34.204
34.195
34.184
34.17
34.155
34.138
34.118
34.097
34.075
34.052
34.029
34.007
33.987
33.969
33.954
33.942
33.933
33.927
33.923
33.923
33.925
33.93
33.938
33.948
33.96
33.972
33.984
33.994
34.002
34.007
34.009
34.007
34.001
33.991
33.978
33.961
33.94
33.916
33.889
33.86
33.829
33.798
33.767
33.736
33.706
33.679
33.655
33.635
33.62
33.609
33.604
33.606
33.616
33.634
33.661
33.698
33.745
33.803
33.875
33.961
34.06
34.172
34.298
34.438
34.589
34.752
34.924
35.103
35.287
35.475
35.665
35.854
36.04
36.221
36.395
36.56
36.713
36.853
36.978
37.087
37.181
37.258
37.318
37.362
37.389
37.401
37.398
37.381
37.35
37.308
37.256
37.194
37.125
37.05
36.972
36.891
36.811
36.733
36.657
36.584
36.516
36.453
36.396
36.345
36.301
36.262
36.231
36.205
36.184
36.166
36.151
36.137
36.123
36.107
36.09
36.071
36.048
36.022
35.994
35.963
35.931
35.897
35.862
35.827
35.793
35.761
35.732
35.707
35.686
35.669
35.657
35.65
35.648
35.651
35.658
35.669
35.684
35.703
35.724
35.747
35.772
35.795
35.817
35.837
35.852
35.862
35.868
35.868
35.864
35.855
35.841
35.822
35.798
35.771
35.739
35.704
35.666
35.626
35.585
35.544
35.503
35.463
35.424
35.387
35.351
35.318
35.287
35.257
35.227
35.199
35.171
35.142
35.113
35.082
35.048
35.011
34.973
34.932
34.89
34.846
34.8
34.753
34.706
34.66
34.615
34.571
34.528
34.489
34.452
34.418
34.388
34.361
34.339
34.321
34.307
34.297
34.29
34.285
34.282
34.281
34.281
34.28
34.279
34.275
34.269
34.26
34.247
34.232
34.214
34.193
34.169
34.144
34.118
34.092
34.067
34.042
34.02
33.999
33.981
33.966
33.955
33.948
33.944
33.944
33.947
33.954
33.963
33.972
33.983
33.992
34.0
34.006
34.008
34.007
34.001
33.991
33.976
33.958
33.936
33.91
33.882
33.853
33.825
33.796
33.769
33.741
33.715
33.691
33.67
33.653
33.64
33.632
33.631
33.636
33.65
33.675
33.711
33.76
33.824
33.903
33.998
34.11
34.237
34.38
34.538
34.708
34.89
35.079
35.273
35.471
35.67
35.868
36.062
36.251
36.431
36.602
36.762
36.908
37.04
37.157
37.259
37.345
37.415
37.47
37.508
37.531
37.539
37.533
37.514
37.484
37.441
37.388
37.326
37.257
37.182
37.102
37.021
36.938
36.856
36.776
36.697
36.622
36.552
36.487
36.428
36.375
36.329
36.289
36.255
36.226
36.203
36.183
36.165
36.149
36.132
36.115
36.097
36.077
36.054
36.028
36.001
35.971
35.939
35.907
35.873
35.841
35.81
35.783
35.76
35.739
35.723
35.71
35.703
35.701
35.703
35.711
35.722
35.737
35.756
35.778
35.801
35.826
35.85
35.875
35.897
35.916
35.93
35.939
35.942
35.94
35.932
35.917
35.896
35.868
35.836
35.798
35.758
35.714
35.669
35.622
35.575
35.528
35.482
35.438
35.395
35.353
35.314
35.277
35.243
35.211
35.181
35.152
35.123
35.095
35.065
35.034
35.002
34.967
34.932
34.894
34.854
34.813
34.77
34.727
34.683
34.64
34.598
34.558
34.521
34.487
34.456
34.429
34.405
34.384
34.366
34.351
34.339
34.33
34.322
34.316
34.312
34.309
34.306
34.302
34.297
34.291
34.285
34.277
34.267
34.255
34.24
34.224
34.207
34.19
34.172
34.154
34.136
34.12
34.106
34.096
34.09
34.087
34.086
34.087
34.089
34.092
34.095
34.099
34.102
34.104
34.105
34.105
34.103
34.099
34.093
34.085
34.076
34.066
34.056
34.048
34.043
34.043
34.051
34.069
34.098
34.142
34.2
34.276
34.37
34.482
34.615
34.765
34.932
35.114
35.308
35.511
35.72
35.931
36.14
36.345
36.542
36.727
36.897
37.051
37.187
37.303
37.4
37.477
37.532
37.568
37.585
37.585
