Trial 1:0back
33.574
33.549
33.525
33.502
33.48
33.461
33.443
33.427
33.413
33.4
33.389
33.378
33.369
33.361
33.354
33.349
33.346
33.344
33.343
33.342
33.341
33.339
33.335
33.33
33.323
33.316
33.31
33.305
33.301
33.298
33.296
33.295
33.297
33.3
33.306
33.316
33.334
33.361
33.404
33.463
33.544
33.649
33.781
33.941
34.131
34.354
34.611
34.901
35.221
35.569
35.94
36.327
36.724
37.122
37.515
37.895
38.256
38.592
38.898
39.17
39.404
39.599
39.753
39.866
39.94
39.978
39.983
39.959
39.908
39.836
39.744
39.637
39.517
39.387
39.249
39.106
38.96
38.813
38.665
38.518
38.372
38.227
38.083
37.942
37.804
37.669
37.538
37.41
37.284
37.159
37.035
36.911
36.787
36.664
36.542
36.423
36.306
36.193
36.087
35.989
35.9
35.819
35.746
35.678
35.617
35.56
35.508
35.459
35.414
35.374
35.339
35.311
35.29
35.277
35.272
35.278
35.295
35.321
35.357
35.4
35.449
35.502
35.558
35.615
35.672
35.726
35.778
35.825
35.866
35.901
35.928
35.945
35.953
35.952
35.941
35.923
35.897
35.866
35.827
35.782
35.731
35.674
35.612
35.545
35.473
35.398
35.32
35.24
35.159
35.077
34.993
34.909
34.824
34.737
34.651
34.565
34.482
34.401
34.325
34.253
34.186
34.126
34.074
34.029
33.99
33.956
33.924
33.894
33.864
33.834
33.803
33.772
33.739
33.706
33.672
33.638
33.603
33.569
33.535
33.501
33.469
33.44
33.414
33.392
33.373
33.358
33.346
33.335
33.326
33.318
33.31
33.302
33.293
33.283
33.272
33.259
33.244
33.228
33.211
33.194
33.178
33.164
33.15
33.137
33.124
33.11
33.096
33.083
33.07
33.059
33.05
33.044
33.042
33.044
33.052
33.069
33.096
33.135
33.19
33.264
33.36
33.481
33.63
33.805
34.005
34.23
34.482
34.762
35.069
35.403
35.76
36.134
36.521
36.913
37.303
37.683
38.045
38.382
38.689
38.961
39.195
39.388
39.54
39.651
39.723
39.759
39.76
39.729
39.671
39.589
39.487
39.37
39.239
39.099
38.95
38.796
38.638
38.479
38.322
38.168
38.016
37.868
37.724
37.582
37.444
37.309
37.177
37.047
36.919
36.791
36.662
36.533
36.402
36.272
36.144
36.018
35.895
35.777
35.664
35.557
35.457
35.363
35.277
35.199
35.131
35.073
35.027
34.991
34.967
34.954
34.951
34.959
34.977
35.005
35.042
35.087
35.141
35.2
35.263
35.33
35.4
35.471
35.542
35.612
35.678
35.741
35.798
35.849
35.892
35.928
35.955
35.973
35.983
35.983
35.973
35.953
35.924
35.887
35.842
35.79
35.732
35.667
35.596
35.522
35.443
35.363
35.281
35.199
35.117
35.035
34.956
34.878
34.803
34.729
34.656
34.583
34.51
34.438
34.368
34.299
34.232
34.168
34.107
34.049
33.996
33.947
33.901
33.859
33.819
33.781
33.744
33.709
33.676
33.645
33.617
33.592
33.569
33.548
33.529
33.512
33.495
33.479
33.464
33.452
33.441
33.432
33.424
33.419
33.414
33.41
33.405
33.399
33.392
33.384
33.374
33.362
33.349
33.333
33.316
33.299
33.282
33.265
33.25
33.236
33.224
33.212
33.2
33.188
33.176
33.163
33.152
33.142
33.135
33.131
33.133
33.143
33.163
33.196
33.244
33.307
33.39
33.494
33.621
33.773
33.954
34.163
34.403
34.674
34.974
35.301
35.652
36.022
36.404
36.792
37.179
37.56
37.926
38.271
38.589
38.874
39.123
39.334
39.504
39.633
39.721
39.772
39.786
39.767
39.719
39.645
39.547
39.429
39.295
39.149
38.995
38.835
38.672
38.509
38.346
38.186
38.029
37.875
37.723
37.573
37.426
37.283
37.143
37.007
36.874
36.743
36.615
36.487
36.362
36.239
36.117
35.999
35.884
35.774
35.669
35.571
35.479
35.394
35.315
35.244
35.18
35.124
35.078
35.041
35.015
35.0
34.997
35.004
35.023
35.052
35.091
35.141
35.199
35.265
35.336
35.413
35.492
35.573
35.654
35.734
35.812
35.886
35.955
36.017
36.072
36.119
36.156
36.184
36.203
36.212
36.211
36.201
36.181
36.15
36.108
36.057
35.997
35.929
35.854
35.772
35.687
35.597
35.505
35.411
35.315
35.219
35.123
35.026
34.932
34.839
34.75
34.664
34.583
34.506
34.433
34.365
34.301
34.243
34.188
34.137
34.089
34.044
34.003
33.967
33.934
33.905
33.879
33.854
33.829
33.805
33.781
33.757
33.733
33.711
33.688
33.667
33.646
33.626
33.607
33.588
33.568
33.547
33.526
33.505
33.486
33.468
33.453
33.44
33.429
33.419
33.411
33.405
33.399
33.393
33.388
33.383
33.376
33.369
33.36
33.349
33.337
33.322
33.305
33.288
33.27
33.253
33.238
33.226
33.216
33.211
33.211
33.217
33.231
33.256
33.294
33.349
33.422
33.515
33.632
33.774
33.944
34.144
34.377
34.642
34.938
35.261
35.609
35.975
36.354
36.738
37.12
37.494
37.851
38.186
38.494
38.77
39.013
39.221
39.391
39.525
39.622
39.684
39.712
39.709
39.679
39.626
39.554
39.464
39.36
39.244
39.117
38.983
38.842
38.696
38.548
38.399
38.251
38.104
37.959
37.816
37.675
37.534
37.395
37.257
37.121
36.988
36.857
36.729
36.604
36.481
36.361
36.243
36.128
36.016
35.908
35.805
35.709
35.619
35.536
35.46
35.39
35.327
35.27
35.22
35.179
35.148
35.126
35.115
35.113
35.122
35.141
35.169
35.206
35.25
35.301
35.359
35.423
35.491
35.563
35.637
35.711
35.783
35.852
35.916
35.972
36.018
36.054
36.08
36.095
36.099
36.092
36.075
36.049
36.014
35.972
35.922
35.866
35.806
35.742
35.674
35.603
35.527
35.446
35.361
35.274
35.185
35.097
35.01
34.924
34.841
34.76
34.682
34.607
34.535
34.467
34.402
34.341
34.283
34.229
34.179
34.132
34.088
34.046
34.004
33.963
33.922
33.882
33.843
33.805
33.769
33.735
33.702
33.671
33.642
33.615
33.589
33.564
33.541
33.519
33.499
33.48
33.464
33.449
33.436
33.423
33.412
33.402
33.393
33.385
33.38
33.375
33.37
33.364
33.358
33.352
33.346
33.338
33.328
33.317
33.303
33.288
33.272
33.255
33.238
33.221
33.206
33.193
33.182
33.176
33.174
33.178
33.189
33.208
33.238
33.282
33.342
33.422
33.525
33.653
33.809
33.995
34.215
34.469
34.757
35.076
35.424
35.796
36.184
36.582
36.983
37.38
37.764
38.129
38.466
38.771
39.039
39.268
39.457
39.605
39.712
39.781
39.813
39.812
39.78
39.722
39.639
39.537
39.418
39.286
39.146
38.999
38.848
38.697
38.546
38.397
38.251
38.107
37.965
37.826
37.689
37.555
37.424
37.296
37.169
37.044
36.921
36.799
36.679
36.561
36.445
36.331
36.219
36.11
36.004
35.902
35.804
35.71
35.62
35.535
35.457
35.386
35.323
35.27
35.226
35.191
35.167
35.154
35.151
35.158
35.175
35.2
35.233
35.273
35.321
35.375
35.436
35.5
35.568
35.637
35.704
35.769
35.829
35.884
35.932
35.974
36.01
36.038
36.06
36.073
36.078
36.074
36.06
36.037
36.004
35.962
35.911
35.852
35.785
35.711
35.632
35.547
35.458
35.366
35.27
35.174
35.076
34.98
34.885
34.793
34.706
34.625
34.55
34.479
34.413
34.351
34.292
34.237
34.185
34.135
34.088
34.043
34.001
33.962
33.924
33.887
33.85
33.813
33.774
33.736
33.699
33.663
33.628
33.595
33.563
33.532
33.503
33.476
33.45
33.426
33.401
33.375
33.349
33.324
33.301
33.281
33.263
33.248
33.236
33.228
33.222
33.22
33.218
33.218
33.219
33.219
33.218
33.215
33.21
33.203
33.195
33.184
33.171
33.156
33.139
33.122
33.106
33.09
33.076
33.064
33.055
33.052
33.053
33.061
33.077
33.103
33.141
33.195
33.266
33.359
33.475
33.618
33.791
33.995
34.232
34.503
34.807
35.141
35.502
35.884
36.28
36.682
37.083
37.474
37.848
38.197
38.517
38.801
39.047
39.253
39.418
39.54
39.622
39.666
39.675
39.652
39.602
39.529
39.435
39.324
39.199
39.062
38.916
38.764
38.609
38.452
38.294
38.136
37.978
37.819
37.661
37.503
37.347
37.195
37.048
36.906
36.77
36.64
36.516
36.397
36.283
36.174
36.068
35.964
35.863
35.764
35.669
35.576
35.488
35.404
35.323
35.247
35.175
35.109
35.05
34.999
34.957
34.924
34.901
34.887
34.884
34.891
34.908
34.933
34.967
35.01
35.061
35.118
35.182
35.249
35.319
35.39
35.459
35.526
35.589
35.648
35.7
35.746
35.785
35.814
35.835
35.846
35.846
35.837
35.817
35.788
35.751
35.705
35.653
35.593
35.529
35.46
35.387
35.311
35.234
35.155
35.076
34.996
34.917
34.838
34.758
34.677
34.596
34.515
34.435
34.355
34.278
34.204
34.134
34.067
34.005
33.948
33.895
33.847
33.803
33.762
33.722
33.685
33.65
33.617
33.585
33.553
33.522
33.489
33.456
33.423
33.39
33.358
33.327
33.299
33.273
33.252
33.236
33.226
33.221
33.22
33.222
33.226
33.229
33.232
33.233
33.231
33.227
33.22
33.21
33.2
33.191
33.181
33.172
33.161
33.148
33.132
33.116
33.101
33.088
33.078
33.071
33.067
33.066
33.067
33.071
33.077
33.087
33.1
33.119
33.145
33.18
33.228
33.291
33.371
33.472
33.597
33.747
33.927
34.137
34.378
34.651
34.954
35.285
35.639
36.011
36.395
36.784
37.169
37.544
37.902
38.236
38.541
38.813
39.049
39.245
39.402
39.519
39.597
39.638
39.645
39.621
39.568
39.489
39.39
39.274
39.144
39.003
38.856
38.703
38.548
38.392
38.237
38.083
37.931
37.781
37.634
37.49
37.35
37.214
37.082
36.953
36.827
36.703
36.582
36.463
36.343
36.224
36.104
35.986
35.87
35.757
35.646
35.539
35.436
35.337
35.244
35.159
35.082
35.014
34.956
34.909
34.873
34.849
34.836
34.835
34.845
34.865
34.896
34.937
34.99
35.056
35.14
35.241
35.355
35.477
35.603
35.727
35.842
35.946
36.035
36.107
36.16
36.195
36.212
36.212
36.198
36.169
36.129
36.078
36.017
35.949
35.875
35.797
35.717
35.635
35.552
35.469
35.386
35.303
35.221
35.14
35.059
34.979
34.9
34.822
34.744
34.667
34.593
34.519
34.448
34.378
34.311
34.246
34.182
34.121
34.062
34.005
33.952
33.902
33.856
33.815
33.777
33.743
33.709
33.676
33.644
33.611
33.58
33.549
33.521
33.496
33.474
33.455
33.44
33.427
33.415
33.404
33.392
33.381
33.37
33.359
33.35
33.341
33.334
33.326
33.319
33.312
33.305
33.296
33.285
33.271
33.256
33.24
33.225
33.211
33.199
33.19
33.182
33.175
33.169
33.163
33.158
33.154
33.15
33.148
33.148
33.151
33.158
33.171
33.189
33.216
33.251
33.3
33.363
33.446
33.552
33.685
33.848
34.044
34.275
34.539
34.838
35.166
35.52
35.894
36.283
36.681
37.08
37.472
37.85
38.206
38.533
38.827
39.083
39.3
39.477
39.612
39.707
39.764
39.787
39.778
39.741
39.681
39.6
39.502
39.389
39.265
39.131
38.991
38.845
38.696
38.545
38.393
38.242
38.093
37.946
37.8
37.657
37.516
37.379
37.245
37.114
36.988
36.866
36.749
36.634
36.523
36.413
36.304
36.197
36.092
35.989
35.889
35.792
35.699
35.61
35.525
35.445
35.37
35.301
35.24
35.188
35.145
35.114
35.094
35.088
35.094
35.112
35.141
35.178
35.223
35.275
35.334
35.398
35.466
35.536
35.607
35.677
35.744
35.808
35.867
35.92
35.966
36.005
36.037
36.063
36.081
36.089
36.087
36.075
36.052
36.019
35.976
35.925
35.866
35.8
35.728
35.651
35.57
35.485
35.396
35.306
35.214
35.121
35.029
34.939
34.851
34.764
34.68
34.598
34.518
34.441
34.366
34.296
34.228
34.164
34.103
34.047
33.994
33.945
33.9
33.858
33.82
33.783
33.748
33.715
33.683
33.655
33.629
33.605
33.583
33.562
33.543
33.524
33.507
33.491
33.477
33.464
33.451
33.439
33.426
33.412
33.398
33.383
33.368
33.353
33.339
33.327
33.317
33.31
33.304
33.299
33.294
33.289
33.283
33.276
33.269
33.261
33.253
33.246
33.237
33.23
33.223
33.217
33.213
33.211
33.211
33.215
33.224
33.241
33.267
33.307
33.361
33.431
33.522
33.637
33.779
33.952
34.159
34.4
34.676
34.985
35.325
35.691
36.076
36.475
36.878
37.278
37.667
38.036
38.381
38.696
38.978
39.222
39.427
39.591
39.715
39.799
39.845
39.858
39.839
39.793
39.724
39.634
39.528
39.409
39.28
39.145
39.004
38.861
38.718
38.574
38.431
38.289
38.149
38.011
37.875
37.741
37.61
37.48
37.353
37.228
37.108
36.99
36.877
36.766
36.658
36.554
36.452
36.352
36.254
36.159
36.066
35.975
35.886
35.798
35.712
35.629
35.552
35.48
35.418
35.365
35.323
35.294
35.277
35.274
35.284
35.307
35.342
35.388
35.441
35.502
35.568
35.637
35.707
35.778
35.848
35.915
35.978
36.037
36.09
36.136
36.174
36.203
36.223
36.234
36.239
36.242
36.24
36.233
36.22
36.199
36.17
36.13
36.079
36.018
35.946
35.864
35.773
35.677
35.576
35.471
35.366
35.26
35.155
35.051
34.948
34.848
34.751
34.658
34.569
34.484
34.404
34.329
34.259
34.194
34.135
34.082
34.033
33.989
33.949
33.912
33.877
33.845
33.815
33.786
33.758
33.733
33.708
33.684
33.661
33.637
33.613
33.586
33.56
33.534
33.51
33.489
33.47
33.453
33.439
33.426
33.415
33.405
33.395
33.384
33.372
33.361
33.35
33.341
33.333
33.326
33.319
33.311
33.301
33.289
33.275
33.26
33.244
33.227
33.21
33.193
33.178
33.165
33.153
33.143
33.135
33.129
33.126
33.13
33.143
33.168
33.206
33.262
33.338
33.435
33.558
33.709
33.89
34.102
34.346
34.623
34.932
35.269
35.632
36.013
36.405
36.8
37.19
37.567
37.925
38.257
38.558
38.825
39.054
39.243
39.393
39.504
39.578
39.617
39.625
39.604
39.559
39.492
39.407
39.306
39.194
39.073
38.945
38.811
38.674
38.535
38.394
38.252
38.111
37.973
37.837
37.705
37.576
37.45
37.327
37.207
37.089
36.972
36.855
36.74
36.624
36.51
36.398
36.289
36.181
36.076
35.974
35.873
35.774
35.68
35.589
35.504
35.426
35.356
35.296
35.246
35.208
35.181
35.165
35.161
35.168
35.184
35.21
35.245
35.287
35.336
35.391
35.451
35.514
35.58
35.647
35.713
35.779
35.843
35.905
35.963
36.017
36.063
36.1
36.128
36.144
36.149
36.141
36.122
36.092
36.051
36.002
35.945
35.881
35.811
35.735
35.654
35.568
35.478
35.387
35.296
35.207
35.119
35.034
34.951
34.87
34.791
34.714
34.638
34.563
34.489
34.416
34.346
34.278
34.213
34.15
34.09
34.033
33.977
33.925
33.875
33.828
33.783
33.74
33.699
33.658
33.619
33.582
33.547
33.515
33.487
33.462
33.441
33.424
33.41
33.397
33.386
33.377
33.37
33.363
33.357
33.35
33.343
33.335
33.327
33.317
33.305
33.292
33.279
33.265
33.251
33.237
33.225
33.213
33.203
33.193
33.183
33.175
33.166
33.158
33.15
33.14
33.129
33.117
33.104
33.093
33.086
33.082
33.083
33.091
33.108
33.135
33.176
33.231
33.303
33.395
33.508
33.646
33.811
34.005
34.23
34.486
34.771
35.083
35.421
35.778
36.151
36.533
36.916
37.294
37.66
38.007
38.33
38.622
38.879
39.099
39.28
39.42
39.52
39.582
39.608
39.601
39.565
39.504
39.421
39.321
39.207
39.083
38.952
38.817
38.678
38.536
38.393
38.249
38.105
37.963
37.822
37.685
37.55
37.418
37.288
37.162
37.038
36.917
36.798
36.68
36.564
36.449
36.336
36.224
36.114
36.008
35.904
35.804
35.706
35.612
35.522
35.437
35.357
35.283
35.216
35.159
35.112
35.076
35.052
35.041
35.043
35.059
35.088
35.132
35.187
35.252
35.324
35.401
35.481
35.563
35.644
35.723
35.798
35.869
35.934
35.991
36.042
36.085
36.12
36.146
36.163
36.17
36.168
36.156
36.133
36.099
36.055
36.001
35.939
35.87
35.795
35.716
35.633
35.548
35.463
35.377
35.291
35.206
35.12
35.034
34.947
34.86
34.773
34.688
34.605
34.524
34.446
34.371
34.298
34.227
34.159
34.093
34.03
33.971
33.916
33.865
33.819
33.778
33.741
33.709
33.679
33.651
33.625
33.599
33.574
33.55
33.526
33.504
33.483
33.464
33.447
33.432
33.42
33.409
33.399
33.39
33.38
33.371
33.362
33.355
33.349
33.346
33.345
33.345
33.345
33.343
33.338
33.33
33.32
33.307
33.292
33.275
33.258
33.24
33.223
33.204
33.185
33.165
33.145
33.124
33.106
33.091
33.082
33.081
33.089
33.109
33.142
33.19
33.255
33.339
33.444
33.572
33.725
33.908
34.121
34.368
34.647
34.957
35.295
35.656
36.033
36.422
36.813
37.201
37.578
37.939
38.279
38.59
38.87
39.114
39.32
39.486
39.614
39.704
39.758
39.778
39.766
39.728
39.665
39.582
39.482
39.369
39.245
39.114
38.976
38.835
38.692
38.548
38.406
38.267
38.13
37.996
37.864
37.736
37.608
37.483
37.359
37.236
37.114
36.994
36.876
36.76
36.645
36.531
36.417
36.304
36.192
36.082
35.976
35.873
35.774
35.682
35.597
35.521
35.453
35.395
35.346
35.307
35.276
35.254
35.242
35.239
35.246
35.262
35.289
35.324
35.368
35.417
35.471
35.529
35.59
35.654
35.72
35.787
35.854
35.917
35.976
36.029
36.075
36.112
36.14
36.159
36.168
36.168
36.159
36.142
36.116
36.08
36.033
35.977
35.912
35.838
35.759
35.675
35.587
35.497
35.405
35.313
35.221
35.128
35.035
34.943
34.853
34.767
34.686
34.609
34.536
34.468
34.403
34.341
34.281
34.223
34.167
34.113
34.061
34.011
33.962
33.915
33.87
33.827
33.786
33.747
33.71
33.675
33.642
33.612
33.583
33.557
33.532
33.511
33.491
33.474
33.458
33.444
33.431
33.418
33.406
33.394
33.383
33.372
33.362
33.352
33.342
33.332
33.323
33.314
33.305
33.295
33.283
33.269
33.254
33.239
33.222
33.206
33.19
33.175
33.16
33.147
33.133
33.121
33.109
33.097
33.087
33.079
33.076
33.08
33.094
33.118
33.157
33.213
33.29
33.392
33.522
33.683
33.876
34.105
34.37
34.669
35.0
35.359
35.74
36.137
36.543
36.949
37.349
37.734
38.098
38.436
38.742
39.013
39.247
39.442
39.597
39.712
39.79
39.833
39.844
39.824
39.779
39.711
39.624
39.52
39.402
39.274
39.137
38.994
38.848
38.7
38.553
38.408
38.267
38.131
38.0
37.874
37.752
37.633
37.517
37.404
37.295
37.187
37.082
36.977
36.873
36.767
36.661
36.553
36.444
36.336
36.228
36.122
36.02
35.921
35.827
35.741
35.662
35.593
35.534
35.483
35.442
35.41
35.389
35.377
35.376
35.385
35.405
35.434
35.472
35.517
35.569
35.624
35.682
35.743
35.804
35.867
35.929
35.989
36.045
36.096
36.139
36.176
36.204
36.223
36.233
36.232
36.221
36.201
36.172
36.136
36.093
36.042
35.984
35.919
35.847
35.769
35.684
35.595
35.503
35.408
35.311
35.214
35.117
35.021
34.924
34.827
34.732
34.638
34.547
34.46
34.377
34.299
34.226
34.158
34.095
34.037
33.983
33.934
33.89
33.85
33.813
33.779
33.747
33.717
33.688
33.659
33.631
33.602
33.574
33.546
33.52
33.494
33.471
33.449
33.43
33.412
33.397
33.385
33.378
33.375
33.375
33.376
33.376
33.375
33.372
33.367
33.359
33.348
33.333
33.315
33.294
33.27
33.243
33.215
33.187
33.159
33.132
33.106
33.08
33.054
33.028
33.004
32.981
32.96
32.942
32.926
32.913
32.902
32.894
32.889
32.888
32.893
32.907
32.933
32.974
33.033
33.114
33.219
33.353
33.516
33.712
33.942
34.207
34.506
34.837
35.196
35.577
35.975
36.381
36.789
37.189
37.574
37.938
38.276
38.582
38.853
39.086
39.279
39.433
39.547
39.624
39.665
39.674
39.655
39.61
39.545
39.464
39.369
39.262
39.146
39.021
38.889
38.753
38.613
38.472
38.33
38.189
38.048
37.908
37.771
37.634
37.5
37.368
37.24
37.115
36.995
36.877
36.763
36.651
36.542
36.434
36.327
36.221
36.116
36.012
35.91
35.808
35.708
35.609
35.513
35.421
35.334
35.254
35.183
35.123
35.076
35.043
35.025
35.023
35.036
35.062
35.101
35.151
35.211
35.279
35.352
35.429
35.507
35.585
35.66
35.733
35.802
35.864
35.92
35.97
36.012
36.047
36.071
36.084
36.086
36.076
36.056
36.025
35.985
35.937
35.881
35.818
35.75
35.679
35.603
35.525
35.444
35.362
35.279
35.195
35.112
35.03
34.947
34.864
34.781
34.698
34.615
34.533
34.452
34.371
34.292
34.215
34.141
34.07
34.002
33.938
33.879
33.823
33.771
33.722
33.677
33.636
33.598
33.563
33.532
33.504
33.48
33.458
33.438
33.419
33.401
33.383
33.366
33.348
33.33
33.312
33.293
33.275
33.257
33.239
33.223
33.207
33.193
33.181
33.17
33.161
33.153
33.145
33.139
33.134
33.131
33.13
33.13
33.13
33.129
33.126
33.12
33.11
33.097
33.081
33.061
