Trial 1:0back
34.868
34.808
34.75
34.694
34.64
34.589
34.541
34.497
34.456
34.42
34.388
34.361
34.339
34.323
34.311
34.304
34.303
34.307
34.316
34.329
34.346
34.367
34.389
34.413
34.436
34.46
34.482
34.503
34.522
34.539
34.553
34.565
34.573
34.579
34.582
34.582
34.579
34.573
34.565
34.554
34.54
34.523
34.504
34.481
34.456
34.429
34.399
34.367
34.331
34.294
34.254
34.212
34.168
34.123
34.077
34.031
33.985
33.938
33.892
33.845
33.8
33.754
33.71
33.667
33.625
33.584
33.544
33.505
33.466
33.426
33.387
33.347
33.306
33.265
33.224
33.182
33.141
33.1
33.06
33.02
32.982
32.944
32.908
32.872
32.836
32.801
32.765
32.731
32.696
32.663
32.63
32.599
32.568
32.538
32.509
32.48
32.452
32.424
32.397
32.371
32.347
32.323
32.302
32.281
32.261
32.24
32.22
32.199
32.178
32.156
32.133
32.11
32.088
32.065
32.043
32.022
32.001
31.982
31.965
31.949
31.935
31.926
31.921
31.925
31.939
31.966
32.008
32.069
32.15
32.254
32.38
32.53
32.704
32.899
33.114
33.348
33.595
33.854
34.12
34.39
34.66
34.927
35.189
35.44
35.68
35.905
36.114
36.305
36.477
36.629
36.762
36.875
36.968
37.043
37.099
37.137
37.159
37.165
37.158
37.137
37.106
37.066
37.017
36.962
36.901
36.836
36.768
36.696
36.623
36.548
36.472
36.396
36.32
36.245
36.171
36.098
36.027
35.957
35.887
35.82
35.754
35.689
35.627
35.567
35.508
35.451
35.394
35.339
35.285
35.231
35.178
35.126
35.074
35.024
34.975
34.927
34.882
34.838
34.797
34.759
34.724
34.693
34.665
34.643
34.624
34.609
34.598
34.591
34.588
34.587
34.589
34.594
34.602
34.611
34.623
34.636
34.651
34.667
34.683
34.699
34.713
34.726
34.737
34.745
34.751
34.754
34.753
34.75
34.743
34.733
34.721
34.706
34.688
34.667
34.644
34.619
34.591
34.562
34.531
34.497
34.463
34.426
34.389
34.35
34.31
34.269
34.227
34.185
34.141
34.098
34.054
34.009
33.965
33.921
33.876
33.831
33.786
33.74
33.694
33.648
33.602
33.556
33.51
33.465
33.422
33.38
33.34
33.302
33.266
33.232
33.199
33.168
33.137
33.106
33.075
33.044
33.013
32.981
32.949
32.917
32.885
32.852
32.821
32.79
32.76
32.73
32.702
32.675
32.647
32.62
32.593
32.566
32.539
32.512
32.485
32.459
32.432
32.407
32.381
32.357
32.334
32.312
32.292
32.273
32.257
32.242
32.232
32.226
32.227
32.237
32.259
32.295
32.348
32.42
32.513
32.628
32.766
32.926
33.106
33.306
33.523
33.753
33.995
34.244
34.497
34.749
34.998
35.239
35.471
35.689
35.893
36.08
36.25
36.402
36.535
36.65
36.747
36.825
36.886
36.929
36.955
36.965
36.961
36.942
36.912
36.87
36.818
36.758
36.692
36.621
36.546
36.469
36.39
36.31
36.231
36.152
36.074
35.997
35.921
35.847
35.774
35.703
35.634
35.566
35.5
35.436
35.374
35.313
35.254
35.197
35.141
35.086
35.033
34.981
34.93
34.88
34.832
34.784
34.738
34.692
34.648
34.605
34.564
34.526
34.491
34.459
34.431
34.406
34.386
34.37
34.358
34.352
34.349
34.35
34.355
34.362
34.371
34.382
34.394
34.405
34.417
34.429
34.439
34.449
34.457
34.464
34.468
34.472
34.474
34.474
34.472
34.47
34.465
34.458
34.448
34.436
34.421
34.404
34.384
34.363
34.34
34.315
34.289
34.261
34.232
34.202
34.17
34.138
34.105
34.071
34.037
34.003
33.967
33.932
33.895
33.858
33.82
33.783
33.745
33.707
33.669
33.63
33.592
33.552
33.512
33.473
33.434
33.397
33.36
33.325
33.291
33.258
33.226
33.196
33.165
33.135
33.106
33.076
33.047
33.019
32.99
32.961
32.932
32.903
32.874
32.845
32.817
32.789
32.762
32.734
32.706
32.678
32.649
32.621
32.594
32.567
32.541
32.516
32.492
32.47
32.449
32.43
32.413
32.396
32.38
32.365
32.35
32.336
32.322
32.31
32.301
32.296
32.297
32.307
32.328
32.363
32.415
32.485
32.576
32.689
32.824
32.981
33.158
33.353
33.564
33.789
34.024
34.265
34.51
34.754
34.995
35.229
35.452
35.663
35.858
36.036
36.196
36.336
36.456
36.556
36.636
36.696
36.739
36.764
36.773
36.767
36.747
36.716
36.674
36.622
36.564
36.5
36.432
36.361
36.288
36.213
36.138
36.062
35.986
35.91
35.834
35.758
35.681
35.605
35.529
35.454
35.379
35.306
35.234
35.164
35.097
35.032
34.969
34.909
34.852
34.796
34.742
34.69
34.639
34.59
34.542
34.495
34.449
34.406
34.365
34.326
34.292
34.261
34.235
34.214
34.197
34.186
34.18
34.179
34.182
34.191
34.204
34.22
34.24
34.263
34.287
34.313
34.34
34.368
34.395
34.421
34.446
34.469
34.491
34.509
34.523
34.534
34.541
34.544
34.545
34.544
34.541
34.537
34.531
34.522
34.511
34.498
34.481
34.462
34.44
34.415
34.387
34.357
34.325
34.292
34.258
34.224
34.189
34.154
34.118
34.083
34.048
34.014
33.979
33.945
33.91
33.877
33.843
33.81
33.777
33.745
33.714
33.683
33.654
33.626
33.599
33.574
33.549
33.524
33.5
33.475
33.45
33.424
33.398
33.371
33.345
33.319
33.293
33.268
33.244
33.22
33.197
33.176
33.156
33.136
33.118
33.1
33.083
33.066
33.049
33.031
33.011
32.99
32.968
32.944
32.919
32.894
32.868
32.843
32.82
32.8
32.784
32.774
32.774
32.784
32.809
32.85
32.911
32.992
33.096
33.222
33.369
33.537
33.723
33.924
34.139
34.362
34.592
34.826
35.059
35.289
35.514
35.73
35.935
36.127
36.304
36.465
36.609
36.734
36.841
36.93
37.0
37.053
37.089
37.109
37.114
37.106
37.086
37.055
37.014
36.965
36.909
36.847
36.779
36.707
36.632
36.555
36.476
36.398
36.32
36.243
36.168
36.094
36.021
35.95
35.881
35.814
35.747
35.683
35.619
35.556
35.495
35.434
35.375
35.316
35.258
35.202
35.146
35.091
35.037
34.984
34.933
34.884
34.837
34.793
34.754
34.719
34.689
34.664
34.645
34.631
34.622
34.618
34.618
34.622
34.63
34.641
34.656
34.673
34.693
34.715
34.738
34.762
34.786
34.81
34.832
34.854
34.874
34.892
34.909
34.922
34.933
34.94
34.945
34.946
34.945
34.941
34.934
34.925
34.913
34.9
34.884
34.865
34.845
34.822
34.798
34.771
34.744
34.714
34.683
34.651
34.618
34.584
34.549
34.514
34.479
34.443
34.407
34.371
34.334
34.297
34.261
34.226
34.192
34.159
34.127
34.096
34.065
34.035
34.006
33.977
33.947
33.918
33.888
33.859
33.829
33.8
33.771
33.742
33.715
33.687
33.66
33.634
33.609
33.584
33.561
33.539
33.518
33.498
33.478
33.458
33.439
33.419
33.401
33.382
33.363
33.344
33.325
33.305
33.285
33.265
33.245
33.225
33.206
33.186
33.167
33.148
33.13
33.113
33.097
33.082
33.07
33.063
33.06
33.067
33.084
33.115
33.162
33.228
33.314
33.422
33.552
33.704
33.877
34.069
34.279
34.505
34.742
34.989
35.241
35.496
35.75
35.998
36.239
36.47
36.687
36.889
37.074
37.242
37.39
37.519
37.63
37.721
37.794
37.85
37.888
37.91
37.918
37.914
37.897
37.87
37.835
37.792
37.743
37.688
37.628
37.564
37.496
37.426
37.354
37.281
37.207
37.134
37.062
36.992
36.923
36.857
36.794
36.734
36.677
36.623
36.571
36.521
36.472
36.425
36.379
36.333
36.288
36.244
36.2
36.158
36.115
36.074
36.032
35.991
35.952
35.913
35.876
35.842
35.809
35.779
35.751
35.727
35.705
35.688
35.673
35.662
35.655
35.651
35.65
35.653
35.659
35.667
35.676
35.687
35.699
35.711
35.723
35.736
35.748
35.76
35.771
35.781
35.789
35.796
35.8
35.801
35.8
35.796
35.789
35.78
35.769
35.756
35.741
35.723
35.704
35.684
35.661
35.636
35.61
35.581
35.551
35.52
35.488
35.455
35.421
35.386
35.351
35.315
35.28
35.243
35.207
35.169
35.131
35.092
35.052
35.012
34.972
34.932
34.893
34.853
34.815
34.776
34.738
34.7
34.662
34.626
34.59
34.556
34.523
34.491
34.461
34.432
34.404
34.376
34.349
34.322
34.296
34.269
34.242
34.215
34.188
34.161
34.134
34.107
34.081
34.056
34.031
34.007
33.984
33.962
33.94
33.919
33.898
33.878
33.859
33.84
33.821
33.803
33.785
33.767
33.749
33.732
33.715
33.7
33.685
33.673
33.664
33.661
33.664
33.677
33.702
33.741
33.798
33.873
33.97
34.089
34.231
34.394
34.578
34.781
35.0
35.232
35.475
35.724
35.978
36.232
36.482
36.727
36.961
37.184
37.393
37.586
37.761
37.919
38.058
38.178
38.279
38.362
38.427
38.475
38.508
38.527
38.533
38.526
38.509
38.482
38.446
38.401
38.35
38.292
38.228
38.161
38.09
38.016
37.941
37.864
37.788
37.712
37.637
37.564
37.494
37.426
37.361
37.299
37.24
37.184
37.132
37.083
37.036
36.991
36.946
36.903
36.859
36.815
36.77
36.724
36.676
36.628
36.578
36.528
36.479
36.43
36.383
36.339
36.298
36.26
36.227
36.199
36.175
36.156
36.142
36.133
36.129
36.129
36.132
36.139
36.149
36.161
36.174
36.189
36.205
36.222
36.239
36.255
36.271
36.286
36.299
36.309
36.317
36.322
36.323
36.321
36.315
36.306
36.294
36.278
36.26
36.239
36.216
36.19
36.164
36.135
36.104
36.072
36.039
36.004
35.967
35.931
35.893
35.856
35.818
35.781
35.743
35.705
35.665
35.625
35.584
35.542
35.499
35.456
35.412
35.368
35.324
35.28
35.237
35.195
35.153
35.111
35.07
35.028
34.987
34.947
34.907
34.866
34.827
34.788
34.749
34.712
34.675
34.638
34.603
34.567
34.533
34.499
34.467
34.436
34.406
34.377
34.35
34.324
34.298
34.272
34.247
34.222
34.197
34.173
34.15
34.128
34.106
34.085
34.063
34.041
34.019
33.996
33.973
33.95
33.928
33.905
33.883
33.861
33.84
33.819
33.802
33.789
33.783
33.785
33.8
33.828
33.872
33.935
34.018
34.122
34.249
34.399
34.571
34.764
34.975
35.201
35.44
35.687
35.938
36.191
36.443
36.689
36.928
37.156
37.371
37.571
37.754
37.919
38.063
38.188
38.293
38.379
38.446
38.495
38.527
38.544
38.547
38.537
38.515
38.482
38.441
38.39
38.332
38.268
38.199
38.126
38.051
37.975
37.899
37.822
37.745
37.67
37.594
37.52
37.446
37.374
37.304
37.235
37.167
37.102
37.039
36.978
36.918
36.86
36.803
36.747
36.692
36.638
36.584
36.531
36.478
36.425
36.373
36.323
36.274
36.227
36.182
36.141
36.104
36.07
36.04
36.014
35.992
35.974
35.961
35.954
35.951
35.954
35.96
35.971
35.985
36.001
36.019
36.037
36.056
36.076
36.095
36.114
36.133
36.149
36.164
36.176
36.185
36.191
36.193
36.191
36.185
36.175
36.162
36.145
36.124
36.102
36.076
36.05
36.021
35.991
35.96
35.929
35.896
35.863
35.829
35.794
35.758
35.72
35.681
35.641
35.599
35.557
35.514
35.47
35.425
35.381
35.336
35.291
35.247
35.204
35.161
35.12
35.08
35.04
35.002
34.964
34.927
34.89
34.854
34.818
34.782
34.747
34.713
34.679
34.646
34.614
34.584
34.555
34.527
34.499
34.47
34.442
34.413
34.384
34.355
34.326
34.297
34.267
34.238
34.208
34.178
34.148
34.119
34.091
34.063
34.036
34.009
33.983
33.957
33.932
33.908
33.886
33.867
33.853
33.847
33.849
33.863
33.891
33.936
33.999
34.082
34.185
34.31
34.456
34.622
34.807
35.01
35.226
35.455
35.692
35.936
36.181
36.425
36.666
36.898
37.119
37.327
37.518
37.692
37.846
37.98
38.094
38.187
38.26
38.314
38.352
38.373
38.38
38.375
38.358
38.33
38.294
38.25
38.198
38.14
38.076
38.008
37.935
37.86
37.781
37.701
37.62
37.537
37.453
37.369
37.285
37.201
37.119
37.038
36.96
36.885
36.812
36.743
36.676
36.612
36.55
36.49
36.431
36.372
36.314
36.257
36.201
36.147
36.094
36.042
35.994
35.947
35.905
35.865
35.83
35.799
35.773
35.752
35.735
35.723
35.715
35.711
35.712
35.716
35.724
35.735
35.749
35.766
35.784
35.803
35.823
35.843
35.862
35.88
35.897
35.911
35.923
35.933
35.939
35.943
35.943
35.94
35.933
35.923
35.911
35.895
35.876
35.854
35.83
35.802
35.771
35.737
35.702
35.664
35.624
35.584
35.542
35.499
35.456
35.412
35.369
35.326
35.284
35.243
35.203
35.163
35.123
35.084
35.045
35.006
34.968
34.93
34.892
34.854
34.816
34.778
34.74
34.702
34.665
34.627
34.589
34.551
34.512
34.472
34.432
34.392
34.352
34.313
34.274
34.236
34.2
34.164
34.13
34.097
34.064
34.032
34.001
33.97
33.941
33.913
33.887
33.863
33.84
33.819
33.799
33.778
33.757
33.735
33.714
33.691
33.668
33.644
33.62
33.596
33.571
33.545
33.519
33.494
33.468
33.443
33.42
33.399
33.381
33.369
33.364
33.369
33.386
33.418
33.469
33.538
33.63
33.744
33.881
34.042
34.224
34.428
34.65
34.888
35.14
35.402
35.67
35.941
36.21
36.475
36.732
36.978
37.21
37.426
37.624
37.802
37.96
38.096
38.211
38.305
38.379
38.433
38.47
38.489
38.493
38.483
38.461
38.429
38.387
38.337
38.28
38.216
38.148
38.076
38.001
37.924
37.846
37.768
37.69
37.613
37.537
37.464
37.393
37.325
37.26
37.198
37.138
37.081
37.026
36.971
36.918
36.865
36.812
36.76
36.707
36.653
36.6
36.547
36.495
36.443
36.393
36.344
36.297
36.252
36.209
36.167
36.129
36.093
36.061
36.031
36.005
35.982
35.963
35.946
35.934
35.925
35.92
35.92
35.922
35.927
35.935
35.945
35.956
35.968
35.981
35.993
36.005
36.016
36.025
36.033
36.039
36.043
36.045
36.045
36.042
36.037
36.03
36.019
36.006
35.99
35.971
35.949
35.924
35.897
35.867
35.836
35.803
35.769
35.732
35.694
35.655
35.613
35.57
35.526
35.482
35.436
35.39
35.343
35.297
35.251
35.205
35.159
35.114
35.07
35.027
34.985
34.943
34.902
34.861
34.82
34.779
34.738
34.696
34.653
34.61
34.567
34.524
34.481
34.438
34.397
34.357
34.317
34.279
34.242
34.207
34.174
34.143
34.114
34.086
34.058
34.032
34.006
33.981
33.956
33.932
33.908
33.883
33.859
33.835
33.811
33.786
33.762
33.738
33.713
33.689
33.665
33.64
33.615
33.591
33.566
33.542
33.519
33.497
33.476
33.456
33.438
33.422
33.409
33.399
33.395
33.398
33.411
33.436
33.476
33.532
33.607
33.704
33.822
33.963
34.127
34.312
34.517
34.74
34.978
35.228
35.485
35.747
36.01
36.27
36.524
36.768
36.999
37.215
37.414
37.594
37.754
37.894
38.014
38.114
38.196
38.259
38.305
38.335
38.35
38.35
38.338
38.313
38.278
38.234
38.183
38.125
38.062
37.995
37.925
37.854
37.78
37.706
37.63
37.554
37.477
37.4
37.324
37.25
37.176
37.105
37.035
36.966
36.9
36.836
36.774
36.713
36.655
36.598
36.544
36.49
36.438
36.385
36.333
36.28
36.227
36.174
36.122
36.072
36.023
35.977
35.935
35.896
35.86
35.829
35.801
35.778
35.759
35.744
35.734
35.728
35.727
35.73
35.736
35.744
35.755
35.768
35.782
35.796
35.811
35.826
35.839
35.85
35.859
35.866
35.87
35.872
35.87
35.866
35.859
35.849
35.836
35.821
35.802
35.781
35.757
35.73
35.701
35.67
35.637
35.602
35.567
35.53
35.492
35.454
35.415
35.375
35.334
35.293
35.251
35.208
35.165
35.123
35.08
35.037
34.994
34.952
34.91
34.868
34.827
34.786
34.746
34.705
34.663
34.622
34.58
34.538
34.496
34.454
34.412
34.37
34.329
34.288
34.248
34.209
34.171
34.135
34.101
34.068
34.037
34.006
33.975
33.944
33.914
33.883
33.852
33.822
33.792
33.762
33.732
33.703
33.675
33.647
33.62
33.593
33.566
33.54
33.514
33.489
33.464
33.44
33.417
33.394
33.372
33.349
33.326
33.303
33.28
33.257
33.235
33.214
33.195
33.179
33.167
33.161
33.163
33.176
33.202
33.243
33.302
33.38
33.478
33.597
33.737
33.898
34.079
34.278
34.495
34.726
34.968
35.217
35.469
35.721
35.969
36.21
36.441
36.66
36.864
37.052
37.221
37.372
37.503
37.613
37.703
37.772
37.822
37.855
37.87
37.87
37.857
37.831
37.794
37.747
37.692
37.63
37.563
37.491
37.415
37.337
37.257
37.175
37.092
37.009
36.925
36.842
36.76
36.679
36.6
36.522
36.446
36.372
36.3
36.23
36.162
36.097
36.034
35.974
35.916
35.86
35.806
35.753
35.702
35.651
35.601
35.553
35.506
35.462
35.419
35.379
35.342
35.309
35.28
35.254
35.231
35.212
35.197
35.185
35.178
35.175
35.176
35.182
35.192
35.207
35.225
35.246
35.27
35.295
35.32
35.346
35.37
35.392
35.412
35.429
35.442
35.45
35.456
35.457
35.455
35.45
35.441
35.43
35.414
35.396
35.375
35.351
35.324
35.296
35.266
35.234
35.202
35.169
35.135
35.1
35.064
35.027
34.989
34.948
34.907
34.863
34.819
34.774
34.729
34.684
34.639
34.594
34.55
34.507
34.464
34.423
34.382
34.341
34.301
34.26
34.219
34.178
34.137
34.097
34.057
34.018
33.981
33.945
33.912
33.88
33.85
33.822
33.794
33.767
33.741
33.714
33.688
33.661
33.634
33.606
33.58
33.553
33.528
33.502
33.478
33.454
33.43
33.407
33.383
33.358
33.334
33.308
33.282
33.256
33.23
33.204
33.18
33.157
33.138
33.124
33.116
33.118
33.132
33.16
33.205
33.27
33.357
33.467
33.6
33.756
33.934
34.131
34.345
34.572
34.811
35.056
35.305
35.553
35.798
36.035
36.263
36.477
36.678
36.861
37.027
37.174
37.302
37.41
37.499
37.569
37.62
37.653
37.671
37.674
37.664
37.642
37.608
37.565
37.514
37.456
37.393
37.326
37.256
37.184
37.11
37.035
36.959
36.882
36.803
36.724
36.645
36.566
36.488
36.412
36.338
36.265
36.194
36.124
36.055
35.987
35.919
35.851
35.784
35.717
35.651
35.585
35.522
35.46
35.4
35.343
35.288
35.237
35.189
35.145
35.105
35.07
35.04
35.015
34.995
34.979
34.968
34.962
34.96
34.963
34.969
34.979
34.992
35.008
35.027
35.047
35.068
35.089
35.111
35.131
35.151
35.169
35.186
35.201
35.213
35.223
35.229
35.233
35.233
35.23
35.224
35.215
35.203
35.188
35.171
35.15
35.127
35.102
35.075
35.045
35.013
34.98
34.945
34.908
34.869
34.829
34.787
34.744
34.701
34.658
34.615
34.574
34.533
34.494
34.454
34.415
34.377
34.338
34.3
34.262
34.224
34.186
34.147
34.108
34.069
34.029
33.99
33.951
33.913
33.876
33.84
33.805
33.772
33.739
33.708
33.679
33.651
33.624
33.599
33.575
33.552
33.531
33.511
33.491
33.471
33.451
33.43
33.41
33.389
33.367
33.345
33.322
33.298
33.274
33.248
33.223
33.198
33.174
33.151
33.13
33.11
33.091
33.073
33.056
33.041
33.029
33.02
33.015
33.016
33.025
33.044
33.076
33.123
33.189
33.274
33.381
33.51
33.663
33.837
34.032
34.245
34.475
34.719
34.972
35.231
35.492
35.751
36.005
36.252
36.487
36.708
36.914
37.101
37.269
37.416
37.543
37.65
37.737
37.806
37.856
37.889
37.905
37.907
37.895
37.872
37.838
37.795
37.745
37.688
37.625
37.558
37.487
37.413
37.337
37.26
37.182
37.104
37.026
36.949
36.873
36.799
36.726
36.654
36.586
36.52
36.456
36.395
36.335
36.278
36.223
36.169
36.116
36.065
36.014
35.965
35.917
35.869
35.821
35.774
35.726
35.679
35.633
35.588
35.546
35.507
35.471
35.439
35.411
35.388
35.37
35.358
35.35
35.347
35.348
35.352
35.358
35.367
35.378
35.39
35.402
35.414
35.426
35.438
35.449
35.46
35.47
35.478
35.485
35.49
35.493
35.493
35.49
35.483
35.475
35.463
35.45
35.434
35.416
35.396
35.374
35.35
35.324
35.296
35.267
35.236
35.203
35.168
35.132
35.093
35.054
35.013
34.972
34.931
34.891
34.851
34.811
34.771
34.731
34.691
34.651
34.611
34.571
34.531
34.491
34.451
34.411
34.371
34.331
34.293
34.255
34.219
34.184
34.15
34.116
34.083
34.051
34.018
33.986
33.954
33.922
33.89
33.859
33.827
33.796
33.764
33.734
33.704
33.675
33.647
33.621
33.596
33.572
33.549
33.528
33.507
33.488
33.469
33.45
33.432
33.413
33.393
33.373
33.351
33.328
33.304
33.28
33.255
33.23
33.206
33.183
33.163
33.147
33.137
33.135
33.144
33.166
33.202
33.256
33.328
33.421
33.535
33.67
33.826
34.002
34.196
34.406
34.63
34.865
35.108
35.356
35.605
35.852
36.094
36.327
36.548
36.756
36.948
37.123
37.28
37.418
37.536
37.635
37.715
37.776
37.819
37.843
37.851
37.844
37.823
37.79
37.747
37.695
37.636
37.571
37.502
37.429
37.355
37.278
37.2
37.121
37.042
36.963
36.885
36.808
36.733
36.659
