Trial 1:0back
34.695
34.653
34.611
34.568
34.525
34.484
34.443
34.404
34.366
34.33
34.296
34.264
34.235
34.21
34.187
34.168
34.153
34.141
34.132
34.128
34.126
34.127
34.129
34.131
34.133
34.133
34.131
34.127
34.119
34.108
34.094
34.077
34.057
34.037
34.015
33.992
33.971
33.953
33.937
33.926
33.921
33.923
33.935
33.959
33.998
34.053
34.128
34.223
34.341
34.481
34.644
34.829
35.033
35.254
35.489
35.734
35.986
36.24
36.492
36.739
36.977
37.202
37.413
37.607
37.781
37.934
38.065
38.174
38.261
38.326
38.37
38.394
38.4
38.39
38.364
38.325
38.274
38.214
38.147
38.074
37.997
37.916
37.832
37.746
37.658
37.57
37.481
37.391
37.301
37.213
37.125
37.039
36.955
36.872
36.791
36.712
36.635
36.56
36.486
36.413
36.342
36.273
36.206
36.142
36.081
36.025
35.973
35.928
35.89
35.859
35.836
35.822
35.815
35.815
35.821
35.834
35.85
35.87
35.893
35.916
35.941
35.966
35.99
36.012
36.031
36.048
36.063
36.076
36.086
36.094
36.099
36.102
36.102
36.1
36.097
36.091
36.082
36.07
36.055
36.038
36.018
35.994
35.967
35.937
35.903
35.864
35.821
35.774
35.722
35.666
35.606
35.543
35.476
35.405
35.331
35.256
35.18
35.104
35.029
34.956
34.885
34.817
34.753
34.693
34.638
34.588
34.543
34.502
34.466
34.435
34.408
34.385
34.364
34.346
34.329
34.313
34.297
34.282
34.266
34.249
34.231
34.212
34.192
34.171
34.148
34.124
34.098
34.071
34.044
34.017
33.99
33.963
33.937
33.912
33.889
33.868
33.85
33.836
33.824
33.815
33.809
33.807
33.808
33.812
33.818
33.828
33.84
33.857
33.879
33.908
33.944
33.99
34.046
34.117
34.204
34.309
34.432
34.575
34.738
34.919
35.119
35.335
35.565
35.805
36.054
36.307
36.561
36.813
37.059
37.295
37.52
37.731
37.926
38.101
38.255
38.386
38.493
38.576
38.634
38.668
38.679
38.667
38.635
38.585
38.518
38.437
38.344
38.242
38.134
38.022
37.907
37.792
37.68
37.573
37.472
37.377
37.29
37.21
37.138
37.072
37.013
36.96
36.912
36.866
36.823
36.78
36.738
36.694
36.648
36.599
36.547
36.492
36.437
36.38
36.324
36.268
36.215
36.165
36.119
36.076
36.037
36.004
35.978
35.958
35.945
35.939
35.938
35.943
35.953
35.967
35.984
36.003
36.023
36.043
36.063
36.081
36.098
36.111
36.121
36.127
36.127
36.122
36.111
36.094
36.072
36.045
36.012
35.976
35.934
35.888
35.837
35.782
35.726
35.667
35.608
35.548
35.488
35.428
35.37
35.312
35.257
35.203
35.151
35.1
35.049
35.0
34.95
34.898
34.845
34.79
34.733
34.674
34.615
34.555
34.495
34.434
34.374
34.314
34.257
34.201
34.148
34.098
34.052
34.01
33.974
33.943
33.918
33.897
33.88
33.867
33.858
33.851
33.847
33.844
33.842
33.84
33.839
33.84
33.841
33.842
33.842
33.841
33.837
33.832
33.825
33.815
33.804
33.79
33.775
33.759
33.743
33.727
33.712
33.697
33.683
33.669
33.656
33.644
33.634
33.623
33.613
33.604
33.595
33.587
33.58
33.573
33.565
33.557
33.548
33.538
33.526
33.514
33.502
33.49
33.481
33.477
33.479
33.49
33.515
33.554
33.61
33.686
33.784
33.905
34.049
34.215
34.403
34.61
34.835
35.073
35.322
35.578
35.838
36.098
36.355
36.606
36.845
37.069
37.277
37.464
37.629
37.77
37.885
37.974
38.039
38.08
38.099
38.098
38.078
38.043
37.993
37.932
37.861
37.784
37.701
37.616
37.53
37.445
37.362
37.283
37.209
37.141
37.081
37.028
36.982
36.942
36.907
36.877
36.849
36.823
36.797
36.771
36.742
36.711
36.677
36.639
36.596
36.55
36.498
36.444
36.386
36.328
36.269
36.212
36.159
36.109
36.066
36.029
35.999
35.978
35.963
35.956
35.955
35.959
35.967
35.979
35.993
36.008
36.023
36.036
36.048
36.056
36.061
36.062
36.06
36.053
36.042
36.028
36.01
35.99
35.967
35.941
35.913
35.882
35.848
35.813
35.776
35.737
35.698
35.659
35.619
35.578
35.538
35.498
35.457
35.416
35.374
35.332
35.288
35.244
35.198
35.15
35.1
35.048
34.995
34.94
34.885
34.829
34.773
34.717
34.662
34.608
34.554
34.502
34.452
34.405
34.36
34.319
34.283
34.25
34.221
34.195
34.174
34.156
34.141
34.13
34.121
34.112
34.105
34.097
34.089
34.08
34.07
34.058
34.044
34.029
34.011
33.992
33.972
33.95
33.928
33.906
33.884
33.862
33.84
33.818
33.798
33.779
33.763
33.75
33.741
33.734
33.731
33.73
33.731
33.733
33.738
33.743
33.749
33.754
33.758
33.762
33.764
33.762
33.758
33.749
33.737
33.72
33.699
33.675
33.648
33.618
33.586
33.551
33.515
33.477
33.439
33.4
33.363
33.327
33.294
33.265
33.242
33.224
33.213
33.212
33.221
33.245
33.286
33.345
33.425
33.526
33.651
33.798
33.967
34.155
34.362
34.583
34.816
35.057
35.302
35.548
35.79
36.025
36.25
36.463
36.66
36.841
37.002
37.144
37.266
37.367
37.449
37.512
37.557
37.584
37.597
37.596
37.583
37.561
37.53
37.492
37.447
37.396
37.34
37.277
37.211
37.141
37.069
36.995
36.922
36.849
36.778
36.709
36.644
36.582
36.526
36.474
36.426
36.383
36.345
36.31
36.278
36.249
36.221
36.193
36.165
36.137
36.11
36.082
36.053
36.023
35.992
35.96
35.927
35.894
35.862
35.83
35.799
35.768
35.739
35.711
35.684
35.658
35.634
35.612
35.592
35.574
35.559
35.547
35.537
35.531
35.528
35.528
35.529
35.532
35.536
35.541
35.545
35.549
35.551
35.55
35.546
35.537
35.524
35.507
35.484
35.456
35.423
35.384
35.34
35.291
35.239
35.184
35.126
35.067
35.008
34.948
34.888
34.829
34.772
34.716
34.663
34.612
34.564
34.519
34.477
34.438
34.402
34.37
34.34
34.313
34.289
34.266
34.243
34.218
34.192
34.163
34.131
34.098
34.062
34.024
33.985
33.946
33.907
33.869
33.833
33.798
33.767
33.737
33.71
33.684
33.661
33.64
33.621
33.606
33.592
33.581
33.573
33.566
33.562
33.559
33.559
33.56
33.562
33.564
33.565
33.565
33.563
33.559
33.551
33.541
33.529
33.514
33.498
33.481
33.463
33.445
33.428
33.41
33.392
33.374
33.355
33.336
33.318
33.299
33.282
33.265
33.248
33.231
33.215
33.198
33.182
33.165
33.149
33.132
33.115
33.098
33.08
33.062
33.044
33.024
33.003
32.982
32.961
32.94
32.921
32.905
32.893
32.886
32.887
32.896
32.917
32.951
33.001
33.069
33.155
33.262
33.389
33.534
33.698
33.879
34.073
34.278
34.491
34.708
34.926
35.142
35.351
35.55
35.736
35.907
36.06
36.193
36.307
36.399
36.471
36.523
36.556
36.571
36.569
36.552
36.522
36.48
36.43
36.373
36.31
36.244
36.176
36.108
36.041
35.977
35.915
35.857
35.802
35.752
35.706
35.665
35.627
35.593
35.561
35.532
35.504
35.476
35.449
35.421
35.391
35.36
35.327
35.292
35.256
35.218
35.181
35.143
35.106
35.07
35.036
35.004
34.976
34.951
34.93
34.914
34.902
34.895
34.893
34.895
34.903
34.915
34.933
34.954
34.98
35.009
35.039
35.07
35.1
35.127
35.15
35.169
35.183
35.191
35.193
35.188
35.177
35.161
35.139
35.112
35.083
35.05
35.016
34.981
34.946
34.911
34.877
34.845
34.814
34.784
34.754
34.725
34.696
34.666
34.636
34.606
34.574
34.541
34.505
34.467
34.426
34.385
34.341
34.295
34.249
34.204
34.16
34.116
34.074
34.032
33.993
33.954
33.916
33.871
33.821
33.767
33.712
33.659
33.61
33.57
33.538
33.517
33.507
33.507
33.518
33.538
33.565
33.598
33.634
33.671
33.707
33.74
33.768
33.791
33.806
33.814
33.816
33.81
33.798
33.78
33.759
33.735
33.709
33.682
33.655
33.63
33.606
33.584
33.564
33.547
33.533
33.522
33.514
33.508
33.505
33.503
33.502
33.501
33.5
33.498
33.495
33.49
33.484
33.475
33.464
33.452
33.438
33.423
33.408
33.393
33.379
33.368
33.36
33.358
33.362
33.374
33.396
33.429
33.476
33.539
33.618
33.714
33.828
33.958
34.104
34.263
34.433
34.612
34.795
34.981
35.167
35.348
35.524
35.689
35.843
35.981
36.103
36.207
36.292
36.357
36.405
36.434
36.448
36.446
36.432
36.406
36.37
36.328
36.28
36.229
36.176
36.123
36.07
36.019
35.971
35.925
35.884
35.845
35.81
35.778
35.748
35.721
35.694
35.667
35.64
35.611
35.579
35.545
35.507
35.466
35.423
35.378
35.331
35.284
35.237
35.192
35.149
35.11
35.076
35.047
35.024
35.007
34.997
34.994
34.997
35.006
35.02
35.038
35.06
35.085
35.112
35.141
35.171
35.201
35.231
35.259
35.284
35.307
35.326
35.341
35.35
35.354
35.352
35.345
35.334
35.317
35.296
35.271
35.243
35.212
35.18
35.147
35.113
35.08
35.047
35.016
34.985
34.957
34.929
34.903
34.877
34.852
34.827
34.802
34.776
34.748
34.717
34.684
34.648
34.609
34.566
34.521
34.472
34.421
34.368
34.314
34.26
34.206
34.154
34.103
34.056
34.012
33.972
33.935
33.903
33.875
33.852
33.834
33.819
33.809
33.802
33.798
33.797
33.799
33.802
33.807
33.813
33.819
33.823
33.825
33.825
33.823
33.818
33.811
33.803
33.792
33.781
33.768
33.755
33.741
33.728
33.716
33.705
33.695
33.687
33.68
33.676
33.673
33.674
33.677
33.682
33.689
33.699
33.711
33.724
33.738
33.753
33.766
33.777
33.786
33.791
33.792
33.789
33.781
33.768
33.752
33.732
33.709
33.683
33.655
33.625
33.595
33.565
33.536
33.51
33.486
33.468
33.457
33.453
33.46
33.48
33.515
33.567
33.637
33.726
33.834
33.961
34.106
34.269
34.446
34.635
34.833
35.038
35.246
35.454
35.658
35.857
36.045
36.222
36.384
36.53
36.659
36.77
36.862
36.935
36.991
37.03
37.054
37.065
37.065
37.056
37.038
37.014
36.985
36.952
36.914
36.874
36.83
36.784
36.736
36.685
36.634
36.581
36.528
36.474
36.419
36.364
36.31
36.256
36.202
36.151
36.101
36.053
36.007
35.963
35.922
35.882
35.845
35.811
35.778
35.748
35.721
35.697
35.675
35.657
35.641
35.629
35.621
35.616
35.614
35.615
35.618
35.624
35.632
35.641
35.651
35.661
35.671
35.681
35.69
35.699
35.707
35.714
35.721
35.726
35.73
35.733
35.736
35.738
35.74
35.741
35.743
35.745
35.746
35.748
35.748
35.747
35.745
35.741
35.733
35.722
35.707
35.688
35.665
35.637
35.604
35.567
35.526
35.482
35.434
35.384
35.33
35.275
35.217
35.158
35.1
35.043
34.988
34.936
34.887
34.844
34.804
34.77
34.739
34.713
34.691
34.671
34.653
34.637
34.622
34.607
34.59
34.573
34.553
34.532
34.509
34.484
34.457
34.429
34.399
34.368
34.338
34.307
34.277
34.248
34.22
34.195
34.172
34.151
34.134
34.121
34.111
34.106
34.106
34.109
34.115
34.125
34.137
34.15
34.165
34.182
34.198
34.213
34.226
34.236
34.241
34.242
34.238
34.23
34.217
34.199
34.177
34.151
34.122
34.091
34.059
34.025
33.991
33.957
33.925
33.895
33.868
33.845
33.827
33.815
33.811
33.817
33.833
33.862
33.904
33.962
34.037
34.129
34.239
34.366
34.51
34.668
34.839
35.02
35.208
35.401
35.596
35.792
35.984
36.17
36.348
36.515
36.669
36.811
36.938
37.051
37.148
37.231
37.298
37.352
37.391
37.418
37.432
37.435
37.427
37.41
37.385
37.352
37.314
37.272
37.225
37.174
37.12
37.063
37.004
36.943
36.882
36.82
36.759
36.698
36.638
36.579
36.522
36.467
36.415
36.366
36.319
36.274
36.232
36.193
36.156
36.122
36.089
36.058
36.028
35.999
35.973
35.948
35.926
35.907
35.891
35.878
35.867
35.858
35.852
35.846
35.842
35.839
35.836
35.834
35.831
35.829
35.828
35.827
35.826
35.826
35.826
35.827
35.827
35.829
35.83
35.83
35.83
35.829
35.827
35.824
35.819
35.813
35.804
35.792
35.776
35.757
35.733
35.705
35.671
35.633
35.591
35.544
35.493
35.438
35.381
35.321
35.26
35.199
35.137
35.077
35.017
34.961
34.907
34.857
34.81
34.767
34.727
34.692
34.66
34.632
34.606
34.582
34.559
34.535
34.511
34.485
34.458
34.428
34.397
34.363
34.329
34.293
34.257
34.22
34.184
34.148
34.113
34.079
34.047
34.017
33.991
33.967
33.948
33.932
33.92
33.912
33.907
33.905
33.905
33.906
33.91
33.914
33.919
33.924
33.928
33.932
33.933
33.933
33.93
33.925
33.917
33.906
33.892
33.877
33.858
33.838
33.815
33.789
33.762
33.733
33.704
33.676
33.651
33.628
33.607
33.591
33.578
33.569
33.566
33.568
33.578
33.596
33.623
33.662
33.713
33.778
33.857
33.951
34.059
34.182
34.319
34.469
34.631
34.802
34.982
35.167
35.356
35.545
35.733
35.916
36.092
36.259
36.415
36.558
36.688
36.803
36.902
36.986
37.053
37.107
37.146
37.172
37.185
37.186
37.177
37.156
37.127
37.088
37.041
36.988
36.929
36.865
36.797
36.727
36.653
36.578
36.502
36.426
36.35
36.276
36.203
36.134
36.068
36.007
35.951
35.899
35.853
35.812
35.775
35.741
35.711
35.683
35.656
35.631
35.608
35.587
35.568
35.552
35.538
35.526
35.517
35.511
35.506
35.504
35.503
35.504
35.507
35.51
35.515
35.52
35.527
35.536
35.545
35.556
35.567
35.58
35.594
35.609
35.626
35.643
35.661
35.678
35.695
35.71
35.723
35.733
35.739
35.74
35.737
35.727
35.711
35.689
35.661
35.627
35.588
35.545
35.497
35.445
35.391
35.335
35.277
35.217
35.158
35.099
35.042
34.987
34.935
34.886
34.84
34.799
34.76
34.725
34.693
34.663
34.635
34.609
34.584
34.561
34.538
34.515
34.492
34.469
34.445
34.421
34.396
34.37
34.345
34.319
34.293
34.268
34.244
34.221
34.199
34.178
34.158
34.139
34.121
34.104
34.09
34.078
34.069
34.062
34.057
34.055
34.054
34.055
34.057
34.062
34.067
34.074
34.08
34.085
34.089
34.091
34.091
34.089
34.085
34.079
34.071
34.063
34.057
34.054
34.056
34.065
34.082
34.11
34.151
34.207
34.278
34.366
34.469
34.59
34.728
34.88
35.046
35.223
35.409
35.602
35.797
35.99
36.171
36.338
36.489
36.621
36.737
36.838
36.926
37.003
37.069
37.126
37.173
37.208
37.232
37.243
37.242
37.229
37.203
37.167
37.121
37.066
37.004
36.937
36.864
36.788
36.711
36.632
36.555
36.48
36.408
36.34
36.275
36.214
36.156
36.1
36.047
35.995
35.943
35.891
35.839
35.786
35.732
35.679
35.627
35.577
35.53
35.487
35.45
35.418
35.394
35.378
35.37
35.37
35.378
35.393
35.416
35.444
35.477
35.514
35.552
35.592
35.631
35.668
35.703
35.734
35.761
35.784
35.803
35.818
35.828
35.835
35.838
35.836
35.83
35.819
35.804
35.785
35.763
35.739
35.713
35.685
35.657
35.626
35.596
35.564
35.533
35.501
35.468
35.435
35.401
35.366
35.33
35.292
35.254
35.214
35.172
35.129
35.083
35.036
34.986
34.934
34.881
34.826
34.771
34.715
34.659
34.604
34.548
34.494
34.441
34.39
34.34
34.293
34.249
34.209
34.172
34.141
34.113
34.091
34.074
34.061
34.052
34.046
34.041
34.038
34.036
34.034
34.031
34.027
34.021
34.013
34.002
33.99
33.977
33.962
33.945
33.926
33.907
33.887
33.868
33.85
33.834
33.819
33.806
33.797
33.791
33.791
33.796
33.809
33.829
33.859
33.899
33.952
34.018
34.098
34.193
34.304
34.432
34.577
34.736
34.909
35.093
35.286
35.486
35.689
35.894
36.097
36.295
36.486
36.667
36.836
36.99
37.129
37.251
37.357
37.447
37.52
37.578
37.62
37.649
37.665
37.669
37.664
37.648
37.623
37.588
37.545
37.494
37.435
37.37
37.298
37.222
37.141
37.056
36.969
36.879
36.788
36.697
36.607
36.52
36.436
36.355
36.279
36.208
36.142
36.082
36.027
35.976
35.929
35.886
35.847
35.812
35.78
35.753
35.729
35.709
35.693
35.68
35.671
35.665
35.662
35.662
35.663
35.666
35.671
35.677
35.683
35.69
35.698
35.708
35.72
35.733
35.747
35.763
35.78
35.797
35.815
35.832
35.849
35.863
35.876
35.888
35.897
35.903
35.906
35.905
35.901
35.892
35.878
35.858
35.832
35.801
35.764
35.722
35.675
35.624
35.569
35.511
35.451
35.389
35.327
35.265
35.202
35.14
35.08
35.022
34.967
34.916
34.868
34.823
34.782
34.744
34.71
34.679
34.651
34.625
34.601
34.577
34.552
34.526
34.5
34.472
34.444
34.414
34.384
34.354
34.324
34.293
34.261
34.229
34.197
34.166
34.137
34.108
34.081
34.056
34.032
34.012
33.993
33.978
33.965
33.956
33.948
33.944
33.942
33.942
33.944
33.947
33.952
33.957
33.964
33.973
33.984
33.998
34.018
34.044
34.08
34.126
34.186
34.261
34.353
34.463
34.59
34.736
34.898
35.074
35.263
35.462
35.67
35.883
36.098
36.312
36.522
36.724
36.917
37.098
37.265
37.414
37.545
37.655
37.745
37.814
37.862
37.89
37.899
37.89
37.864
37.821
37.764
37.693
37.611
37.521
37.425
37.324
37.222
37.12
37.021
36.925
36.835
36.751
36.673
36.601
36.536
36.477
36.424
36.376
36.332
36.291
36.251
36.213
36.176
36.138
36.099
36.06
36.019
35.978
35.936
35.894
35.852
35.811
35.771
35.734
35.7
35.67
35.645
35.625
35.61
35.602
35.6
35.605
35.615
35.631
35.651
35.676
35.705
35.736
35.768
35.8
35.831
35.86
35.886
35.908
35.925
35.938
35.944
35.944
35.937
35.924
35.905
35.878
35.846
35.808
35.765
35.719
35.67
35.62
35.567
35.514
35.461
35.41
35.36
35.313
35.268
35.225
35.184
35.144
35.107
35.07
35.034
34.999
34.964
34.929
34.893
34.856
34.818
34.778
34.736
34.693
34.649
34.604
34.56
34.516
34.473
34.431
34.392
34.356
34.321
34.29
34.26
34.234
34.21
34.188
34.169
34.152
34.138
34.127
34.119
34.115
34.112
34.111
34.111
34.11
34.109
34.107
34.104
34.099
34.093
34.085
34.074
34.061
34.045
34.027
34.006
33.984
33.962
33.94
33.922
33.908
33.902
33.907
33.924
33.958
34.009
34.081
34.175
34.29
34.427
34.585
34.764
34.96
35.17
35.39
35.618
35.85
36.081
36.307
36.525
36.732
36.924
37.098
37.253
37.388
37.501
37.593
37.664
37.714
37.745
37.758
37.754
37.736
37.705
37.664
37.614
37.557
37.493
37.425
37.354
37.283
37.211
37.14
37.071
37.003
36.938
36.875
36.814
36.754
36.696
36.639
36.583
36.529
36.476
36.424
36.371
36.319
36.267
36.216
36.166
36.118
36.071
36.028
35.989
35.954
35.925
35.899
35.878
35.86
35.846
35.836
35.829
35.825
35.824
35.825
35.828
35.834
35.841
35.849
35.857
35.865
35.873
35.879
35.884
35.887
35.888
35.886
35.883
35.879
35.873
35.866
35.857
35.846
35.834
35.821
35.808
35.793
35.777
35.761
35.743
35.724
35.703
35.681
35.656
35.628
35.598
35.564
35.527
35.486
35.441
35.393
35.341
35.285
35.227
35.165
35.101
35.036
34.97
34.905
34.84
34.777
34.716
34.658
34.603
34.552
34.506
34.465
34.428
34.394
34.365
34.339
34.318
34.3
34.285
34.27
34.256
34.242
34.228
34.212
34.195
34.176
34.156
34.133
34.11
34.086
34.061
34.037
34.012
33.989
33.966
33.946
33.927
33.909
33.893
33.879
33.866
33.854
33.845
33.836
33.829
33.823
33.817
33.812
33.808
33.805
33.802
33.8
33.797
33.794
33.792
33.79
33.789
33.791
33.797
33.808
33.828
33.86
33.905
33.967
34.045
34.142
34.259
34.395
34.549
34.719
34.904
35.099
35.303
35.512
35.722
35.931
36.135
36.33
36.515
36.686
36.842
36.981
37.101
37.201
37.282
37.342
37.381
37.401
37.402
37.385
37.352
37.305
37.246
37.177
37.1
37.018
36.932
36.845
36.757
36.669
36.584
36.502
36.424
36.351
36.283
36.222
36.166
36.117
36.074
36.035
36.001
35.97
35.941
35.914
35.886
35.858
35.828
35.797
35.763
35.729
35.694
35.659
35.624
35.588
35.554
35.522
35.494
35.47
35.45
35.436
35.426
35.421
35.42
35.424
35.43
35.438
35.448
35.458
35.47
35.483
35.498
35.514
35.53
35.546
35.561
35.576
35.588
35.597
35.601
35.599
35.591
35.578
35.559
35.536
35.508
35.477
35.442
35.405
35.366
35.324
35.28
35.233
35.184
35.132
35.081
35.029
34.978
34.929
34.882
34.836
34.793
34.752
34.714
34.677
34.639
34.602
34.566
34.53
34.494
34.457
34.422
34.392
34.374
34.37
34.376
34.389
34.406
34.426
34.445
34.458
34.463
34.457
34.439
34.41
34.37
34.323
34.27
34.213
34.154
34.096
34.041
33.991
33.946
33.907
33.875
33.848
33.828
33.814
33.805
33.8
33.798
33.798
33.799
33.799
33.799
33.796
33.791
33.783
33.773
33.76
33.747
33.734
