Trial 1:0back
30.369
30.335
30.301
30.267
30.234
30.203
30.172
30.142
30.114
30.089
30.067
30.049
30.033
30.021
30.012
30.004
29.998
29.993
29.99
29.988
29.986
29.984
29.98
29.975
29.967
29.958
29.947
29.935
29.922
29.908
29.892
29.876
29.859
29.843
29.827
29.814
29.802
29.794
29.79
29.793
29.803
29.824
29.857
29.909
29.983
30.086
30.225
30.409
30.648
30.95
31.323
31.774
32.304
32.912
33.593
34.338
35.134
35.968
36.822
37.681
38.527
39.343
40.114
40.829
41.477
42.05
42.544
42.956
43.287
43.538
43.714
43.821
43.866
43.856
43.799
43.702
43.575
43.424
43.256
43.076
42.888
42.696
42.504
42.316
42.131
41.95
41.774
41.602
41.433
41.266
41.103
40.941
40.783
40.627
40.474
40.326
40.183
40.046
39.914
39.788
39.667
39.553
39.444
39.341
39.242
39.145
39.047
38.947
38.843
38.735
38.622
38.504
38.383
38.258
38.13
38.001
37.87
37.741
37.616
37.497
37.385
37.282
37.189
37.106
37.034
36.974
36.925
36.889
36.864
36.849
36.844
36.846
36.853
36.865
36.878
36.893
36.907
36.918
36.925
36.926
36.921
36.907
36.885
36.856
36.819
36.776
36.725
36.668
36.605
36.536
36.462
36.382
36.296
36.206
36.111
36.012
35.907
35.798
35.687
35.573
35.459
35.345
35.231
35.117
35.002
34.887
34.772
34.657
34.543
34.43
34.318
34.205
34.093
33.981
33.869
33.758
33.648
33.54
33.436
33.336
33.24
33.148
33.06
32.975
32.893
32.813
32.734
32.657
32.582
32.509
32.437
32.368
32.302
32.238
32.176
32.117
32.059
32.003
31.949
31.897
31.848
31.801
31.756
31.714
31.674
31.635
31.597
31.56
31.525
31.491
31.458
31.428
31.4
31.373
31.348
31.323
31.299
31.274
31.25
31.225
31.201
31.177
31.154
31.132
31.11
31.088
31.066
31.043
31.02
30.997
30.975
30.954
30.935
30.916
30.899
30.882
30.866
30.851
30.837
30.824
30.812
30.802
30.793
30.784
30.775
30.764
30.751
30.734
30.714
30.692
30.668
30.643
30.62
30.599
30.581
30.566
30.554
30.544
30.536
30.529
30.522
30.517
30.511
30.504
30.496
30.487
30.476
30.464
30.451
30.437
30.421
30.404
30.386
30.366
30.346
30.325
30.305
30.286
30.269
30.257
30.251
30.253
30.267
30.293
30.335
30.398
30.485
30.604
30.76
30.963
31.22
31.542
31.935
32.404
32.951
33.574
34.265
35.014
35.808
36.631
37.467
38.297
39.108
39.882
40.607
41.273
41.87
42.393
42.838
43.203
43.491
43.704
43.848
43.927
43.95
43.921
43.847
43.737
43.596
43.43
43.244
43.044
42.834
42.618
42.399
42.179
41.96
41.746
41.536
41.332
41.135
40.946
40.764
40.59
40.424
40.264
40.109
39.959
39.813
39.671
39.532
39.397
39.264
39.134
39.006
38.881
38.758
38.635
38.512
38.388
38.261
38.133
38.005
37.875
37.747
37.619
37.493
37.37
37.25
37.134
37.023
36.917
36.818
36.725
36.64
36.562
36.491
36.429
36.376
36.333
36.3
36.277
36.264
36.259
36.261
36.269
36.28
36.293
36.307
36.319
36.328
36.333
36.331
36.323
36.308
36.286
36.257
36.22
36.177
36.128
36.072
36.009
35.938
35.862
35.779
35.69
35.595
35.495
35.391
35.283
35.174
35.065
34.956
34.847
34.739
34.63
34.52
34.408
34.295
34.181
34.068
33.957
33.849
33.744
33.642
33.542
33.444
33.347
33.251
33.155
33.062
32.971
32.882
32.797
32.714
32.633
32.552
32.471
32.392
32.314
32.238
32.167
32.101
32.039
31.983
31.93
31.88
31.831
31.784
31.737
31.691
31.646
31.603
31.56
31.517
31.473
31.429
31.384
31.339
31.295
31.254
31.216
31.182
31.153
31.127
31.105
31.085
31.067
31.051
31.038
31.026
31.016
31.007
30.998
30.988
30.977
30.964
30.949
30.931
30.912
30.893
30.873
30.854
30.836
30.819
30.801
30.783
30.765
30.748
30.73
30.714
30.698
30.685
30.672
30.661
30.652
30.644
30.636
30.629
30.621
30.613
30.604
30.594
30.583
30.569
30.554
30.537
30.519
30.5
30.48
30.461
30.442
30.424
30.408
30.393
30.378
30.365
30.353
30.341
30.331
30.322
30.313
30.305
30.297
30.289
30.281
30.273
30.265
30.258
30.251
30.245
30.24
30.237
30.237
30.242
30.254
30.276
30.311
30.363
30.435
30.533
30.662
30.831
31.046
31.317
31.652
32.061
32.549
33.119
33.769
34.494
35.283
36.121
36.994
37.883
38.769
39.633
40.458
41.23
41.936
42.566
43.114
43.576
43.952
44.243
44.453
44.59
44.658
44.666
44.621
44.531
44.404
44.246
44.065
43.867
43.657
43.438
43.214
42.988
42.762
42.539
42.32
42.105
41.896
41.692
41.495
41.303
41.118
40.938
40.764
40.593
40.428
40.267
40.112
39.962
39.817
39.678
39.544
39.415
39.289
39.162
39.035
38.906
38.776
38.647
38.52
38.394
38.27
38.147
38.026
37.906
37.788
37.674
37.566
37.462
37.366
37.275
37.193
37.117
37.05
36.989
36.937
36.89
36.851
36.818
36.791
36.769
36.753
36.742
36.736
36.734
36.735
36.737
36.737
36.734
36.726
36.712
36.692
36.666
36.636
36.601
36.562
36.521
36.476
36.427
36.374
36.315
36.249
36.176
36.096
36.008
35.914
35.814
35.709
35.602
35.492
35.38
35.265
35.148
35.029
34.908
34.786
34.663
34.542
34.423
34.307
34.194
34.084
33.978
33.876
33.776
33.678
33.583
33.49
33.401
33.313
33.228
33.144
33.063
32.982
32.903
32.824
32.748
32.673
32.602
32.534
32.466
32.399
32.33
32.259
32.187
32.113
32.041
31.972
31.907
31.848
31.796
31.751
31.711
31.676
31.643
31.613
31.585
31.559
31.534
31.51
31.487
31.465
31.442
31.42
31.398
31.376
31.355
31.333
31.312
31.29
31.269
31.247
31.224
31.199
31.173
31.145
31.118
31.092
31.067
31.044
31.023
31.005
30.987
30.971
30.957
30.944
30.933
30.924
30.918
30.913
30.908
30.904
30.899
30.892
30.883
30.872
30.86
30.847
30.835
30.823
30.812
30.802
30.791
30.779
30.767
30.754
30.74
30.726
30.712
30.697
30.683
30.668
30.654
30.64
30.626
30.613
30.6
30.587
30.574
30.56
30.545
30.53
30.515
30.503
30.493
30.487
30.487
30.495
30.512
30.542
30.588
30.652
30.738
30.851
30.998
31.184
31.417
31.705
32.059
32.484
32.986
33.565
34.22
34.942
35.722
36.545
37.396
38.257
39.111
39.939
40.725
41.455
42.115
42.698
43.197
43.609
43.933
44.173
44.333
44.419
44.439
44.401
44.314
44.185
44.024
43.839
43.635
43.42
43.196
42.967
42.737
42.507
42.279
42.054
41.832
41.614
41.398
41.185
40.974
40.767
40.564
40.366
40.173
39.987
39.807
39.636
39.473
39.318
39.171
39.032
38.899
38.77
38.644
38.519
38.395
38.27
38.144
38.017
37.891
37.764
37.637
37.512
37.389
37.27
37.154
37.044
36.94
36.842
36.754
36.676
36.607
36.549
36.503
36.467
36.442
36.427
36.421
36.422
36.429
36.438
36.448
36.458
36.466
36.471
36.473
36.473
36.469
36.463
36.454
36.443
36.43
36.413
36.392
36.366
36.332
36.291
36.242
36.184
36.12
36.049
35.973
35.893
35.81
35.723
35.632
35.537
35.44
35.341
35.24
35.137
35.034
34.93
34.827
34.725
34.626
34.528
34.432
34.337
34.243
34.149
34.055
33.961
33.868
33.777
33.688
33.602
33.519
33.437
33.357
33.276
33.195
33.112
33.03
32.947
32.867
32.79
32.716
32.645
32.576
32.508
32.442
32.376
32.312
32.249
32.189
32.133
32.081
32.034
31.989
31.947
31.906
31.867
31.829
31.792
31.755
31.72
31.687
31.658
31.633
31.612
31.594
31.578
31.563
31.549
31.533
31.517
31.499
31.479
31.457
31.434
31.412
31.39
31.37
31.35
31.333
31.317
31.303
31.29
31.278
31.267
31.257
31.247
31.238
31.23
31.222
31.213
31.205
31.196
31.187
31.177
31.165
31.153
31.14
31.126
31.111
31.097
31.083
31.07
31.058
31.046
31.035
31.024
31.012
31.0
30.988
30.974
30.961
30.948
30.935
30.923
30.911
30.899
30.888
30.878
30.87
30.867
30.872
30.887
30.916
30.964
31.034
31.131
31.26
31.426
31.634
31.89
32.201
32.573
33.013
33.524
34.107
34.757
35.469
36.231
37.03
37.85
38.674
39.484
40.264
40.999
41.675
42.281
42.812
43.26
43.625
43.907
44.107
44.231
44.287
44.28
44.218
44.11
43.962
43.783
43.579
43.357
43.123
42.883
42.639
42.396
42.156
41.919
41.688
41.462
41.24
41.025
40.814
40.608
40.406
40.209
40.016
39.829
39.649
39.475
39.308
39.147
38.993
38.844
38.699
38.557
38.417
38.279
38.14
38.001
37.861
37.72
37.58
37.441
37.306
37.175
37.051
36.933
36.824
36.723
36.629
36.544
36.466
36.397
36.337
36.285
36.243
36.21
36.186
36.172
36.166
36.168
36.176
36.189
36.205
36.222
36.239
36.254
36.267
36.277
36.284
36.288
36.289
36.286
36.279
36.267
36.25
36.226
36.194
36.153
36.103
36.045
35.979
35.906
35.829
35.747
35.663
35.576
35.487
35.395
35.302
35.207
35.109
35.009
34.908
34.805
34.703
34.602
34.503
34.405
34.307
34.209
34.111
34.01
33.909
33.807
33.706
33.608
33.513
33.422
33.335
33.251
33.171
33.093
33.016
32.94
32.866
32.795
32.726
32.661
32.6
32.542
32.486
32.431
32.375
32.321
32.267
32.216
32.167
32.12
32.077
32.037
31.999
31.961
31.925
31.888
31.852
31.817
31.785
31.755
31.729
31.704
31.681
31.659
31.636
31.613
31.589
31.565
31.542
31.52
31.498
31.477
31.457
31.436
31.415
31.394
31.373
31.353
31.334
31.319
31.306
31.295
31.286
31.278
31.27
31.266
31.267
31.277
31.293
31.315
31.339
31.361
31.38
31.393
31.398
31.395
31.384
31.365
31.339
31.308
31.273
31.235
31.195
31.155
31.115
31.077
31.043
31.013
30.989
30.971
30.958
30.949
30.943
30.938
30.933
30.927
30.921
30.913
30.906
30.899
30.893
30.887
30.884
30.883
30.885
30.894
30.911
30.941
30.988
31.055
31.148
31.269
31.424
31.617
31.853
32.139
32.481
32.887
33.363
33.911
34.532
35.221
35.968
36.764
37.593
38.44
39.286
40.116
40.913
41.664
42.354
42.975
43.517
43.977
44.353
44.644
44.854
44.987
45.05
45.05
44.995
44.893
44.753
44.584
44.393
44.188
43.972
43.752
43.528
43.304
43.081
42.859
42.641
42.426
42.217
42.012
41.814
41.621
41.436
41.257
41.085
40.921
40.765
40.616
40.474
40.339
40.207
40.078
39.951
39.824
39.698
39.571
39.445
39.319
39.193
39.066
38.939
38.812
38.684
38.556
38.429
38.302
38.176
38.052
37.931
37.813
37.699
37.592
37.491
37.4
37.317
37.245
37.184
37.132
37.091
37.058
37.033
37.014
36.998
36.985
36.975
36.966
36.959
36.953
36.948
36.943
36.936
36.927
36.913
36.893
36.864
36.827
36.781
36.727
36.665
36.598
36.526
36.451
36.373
36.293
36.211
36.126
36.037
35.944
35.847
35.747
35.645
35.541
35.438
35.336
35.235
35.135
35.035
34.936
34.838
34.739
34.639
34.539
34.439
34.34
34.24
34.141
34.043
33.946
33.851
33.759
33.668
33.58
33.494
33.41
33.329
33.251
33.177
33.107
33.04
32.976
32.914
32.853
32.792
32.732
32.673
32.615
32.558
32.503
32.45
32.398
32.347
32.297
32.247
32.199
32.153
32.111
32.073
32.038
32.007
31.977
31.947
31.918
31.888
31.859
31.83
31.802
31.776
31.751
31.729
31.707
31.687
31.666
31.645
31.624
31.605
31.587
31.571
31.556
31.542
31.528
31.515
31.502
31.489
31.476
31.464
31.453
31.442
31.432
31.422
31.412
31.4
31.388
31.374
31.36
31.347
31.334
31.321
31.31
31.298
31.286
31.273
31.259
31.244
31.23
31.216
31.204
31.192
31.182
31.172
31.162
31.152
31.143
31.137
31.134
31.138
31.151
31.175
31.215
31.274
31.357
31.47
31.617
31.805
32.04
32.33
32.68
33.098
33.584
34.141
34.766
35.451
36.188
36.964
37.764
38.574
39.376
40.155
40.895
41.584
42.211
42.767
43.246
43.645
43.963
44.202
44.365
44.456
44.483
44.452
44.37
44.246
44.087
43.901
43.695
43.475
43.248
43.016
42.784
42.555
42.33
42.111
41.898
41.692
41.493
41.299
41.11
40.925
40.744
40.567
40.394
40.226
40.063
39.905
39.752
39.603
39.459
39.32
39.185
39.055
38.928
38.805
38.683
38.562
38.439
38.313
38.184
38.052
37.917
37.78
37.644
37.51
37.38
37.256
37.139
37.032
36.933
36.845
36.766
36.699
36.641
36.593
36.554
36.524
36.502
36.489
36.483
36.484
36.489
36.497
36.508
36.518
36.526
36.53
36.53
36.525
36.515
36.5
36.48
36.455
36.425
36.389
36.348
36.302
36.25
36.192
36.129
36.06
35.985
35.906
35.822
35.736
35.646
35.555
35.462
35.367
35.27
35.171
35.069
34.965
34.859
34.752
34.646
34.541
34.438
34.337
34.238
34.141
34.046
33.954
33.864
33.776
33.691
33.608
33.529
33.453
33.379
33.306
33.235
33.165
33.094
33.025
32.956
32.888
32.823
32.76
32.7
32.643
32.587
32.534
32.481
32.43
32.383
32.341
32.303
32.27
32.24
32.213
32.187
32.162
32.135
32.106
32.075
32.04
32.004
31.966
31.928
31.889
31.851
31.814
31.779
31.745
31.713
31.684
31.658
31.634
31.613
31.595
31.579
31.566
31.555
31.546
31.539
31.533
31.528
31.524
31.519
31.513
31.507
31.5
31.493
31.486
31.479
31.473
31.468
31.464
31.459
31.454
31.447
31.438
31.426
31.412
31.397
31.38
31.362
31.343
31.323
31.303
31.284
31.266
31.251
31.239
31.232
31.232
31.241
31.262
31.298
31.355
31.436
31.545
31.689
31.87
32.095
32.369
32.7
33.092
33.55
34.077
34.67
35.323
36.027
36.77
37.537
38.314
39.085
39.835
40.551
41.219
41.829
42.37
42.838
43.227
43.538
43.772
43.933
44.026
44.057
44.033
43.961
43.848
43.7
43.525
43.328
43.116
42.892
42.662
42.428
42.194
41.961
41.732
41.509
41.292
41.081
40.876
40.678
40.486
40.301
40.122
39.947
39.778
39.612
39.452
39.296
39.144
38.997
38.852
38.709
38.567
38.427
38.289
38.153
38.019
37.887
37.758
37.632
37.508
37.388
37.272
37.16
37.053
36.954
36.86
36.773
36.694
36.623
36.56
36.508
36.464
36.43
36.404
36.386
36.375
36.371
36.374
36.382
36.396
36.414
36.434
36.455
36.476
36.495
36.509
36.518
36.521
36.517
36.508
36.491
36.468
36.436
36.396
36.349
36.293
36.229
36.157
36.08
35.997
35.911
35.82
35.728
35.633
35.536
35.439
35.341
35.243
35.145
35.047
34.949
34.852
34.755
34.658
34.563
34.469
34.377
34.288
34.201
34.115
34.031
33.948
33.865
33.783
33.702
33.622
33.543
33.466
33.391
33.317
33.245
33.176
33.11
33.047
32.988
32.932
32.88
32.831
32.786
32.742
32.7
32.659
32.619
32.578
32.538
32.498
32.457
32.416
32.375
32.333
32.291
32.249
32.207
32.166
32.126
32.088
32.052
32.02
31.99
31.963
31.939
31.917
31.897
31.879
31.863
31.85
31.841
31.835
31.831
31.831
31.832
31.834
31.835
31.835
31.835
31.833
31.831
31.829
31.825
31.82
31.814
31.805
31.794
31.781
31.766
31.751
31.736
31.722
31.709
31.696
31.683
31.669
31.652
31.633
31.612
31.589
31.567
31.547
31.527
31.509
31.492
31.476
31.462
31.451
31.446
31.451
31.469
31.505
31.565
31.65
31.765
31.915
32.104
32.339
32.627
32.975
33.389
33.873
34.428
35.05
35.733
36.468
37.242
38.04
38.846
39.645
40.421
41.159
41.846
42.471
43.024
43.502
43.903
44.225
44.473
44.65
44.762
44.816
44.817
44.775
44.696
44.588
44.456
44.308
44.149
43.983
43.813
43.643
43.472
43.301
43.133
42.966
42.803
42.642
42.485
42.33
42.178
42.027
41.88
41.736
41.596
41.46
41.33
41.205
41.084
40.966
40.85
40.735
40.62
40.503
40.384
40.262
40.138
40.01
39.879
39.745
39.609
39.472
39.334
39.196
39.059
38.924
38.793
38.667
38.545
38.429
38.319
38.216
38.122
38.034
37.955
37.884
37.821
37.766
37.721
37.683
37.654
37.633
37.617
37.605
37.596
37.586
37.575
37.561
37.543
37.52
37.49
37.454
37.411
37.361
37.303
37.239
37.168
37.092
37.01
36.923
36.832
36.737
36.639
36.54
36.439
36.338
36.236
36.134
36.03
35.925
35.818
35.71
35.6
35.489
35.378
35.268
35.157
35.048
34.94
34.834
34.73
34.628
34.528
34.432
34.339
34.249
34.164
34.088
34.017
33.952
33.89
33.828
33.765
33.699
33.628
33.554
33.476
33.394
33.309
33.223
33.135
33.048
32.962
32.879
32.8
32.726
32.657
32.593
32.537
32.486
32.442
32.404
32.371
32.342
32.316
32.292
32.269
32.249
32.229
32.21
32.19
32.171
32.151
32.131
32.11
32.088
32.065
32.042
32.017
31.992
31.967
31.942
31.917
31.893
31.87
31.849
31.829
31.81
31.792
31.775
31.757
31.74
31.723
31.707
31.691
31.676
31.662
31.649
31.636
31.623
31.608
31.591
31.573
31.554
31.536
31.518
31.5
31.484
31.468
31.452
31.435
31.417
31.398
31.379
31.359
31.34
31.323
31.312
31.308
31.319
31.348
31.398
31.471
31.57
31.7
31.864
32.069
32.321
32.627
32.995
33.429
33.93
34.498
35.129
35.814
36.544
37.305
38.085
38.868
39.639
40.384
41.091
41.748
42.346
42.879
43.343
43.735
44.055
44.305
44.488
44.61
44.676
44.692
44.664
44.598
44.501
44.377
44.234
44.075
43.904
43.725
43.542
43.358
43.176
42.998
42.826
42.662
42.506
42.358
42.219
42.089
41.968
41.854
41.747
41.645
41.547
41.452
41.358
41.263
41.165
41.063
40.954
40.838
40.716
40.587
40.451
40.309
40.162
40.011
39.856
39.699
39.539
39.379
39.217
39.055
38.893
38.734
38.579
38.431
38.29
38.158
38.035
37.923
37.823
37.734
37.656
37.588
37.528
37.478
37.434
37.397
37.364
37.336
37.312
37.289
37.268
37.247
37.224
37.198
37.168
37.135
37.099
37.058
37.014
36.964
36.909
36.847
36.778
36.701
36.617
36.527
36.432
36.332
36.229
36.123
36.015
35.906
35.797
35.687
35.578
35.47
35.363
35.256
35.149
35.042
34.934
34.826
34.719
34.612
34.505
34.4
34.297
34.196
34.096
33.998
33.902
33.809
33.718
33.631
33.545
33.462
33.381
33.303
33.227
33.153
33.082
33.013
32.947
32.883
32.819
32.756
32.694
32.631
32.567
32.504
32.442
32.381
32.321
32.262
32.205
32.15
32.096
32.043
31.992
31.945
31.903
31.867
31.835
31.807
31.783
31.76
31.738
31.715
31.693
31.669
31.645
31.621
31.596
31.572
31.547
31.523
31.498
31.474
31.451
31.428
31.407
31.388
31.37
31.354
31.339
31.326
31.313
31.3
31.288
31.275
31.262
31.249
31.237
31.226
31.214
31.203
31.19
31.176
31.161
31.145
31.129
31.113
31.097
31.08
31.063
31.045
31.027
31.008
30.99
30.971
30.954
30.937
30.921
30.905
30.889
30.871
30.852
30.832
30.814
30.798
30.787
30.783
30.786
30.8
30.828
30.871
30.936
31.027
31.149
31.309
31.514
31.771
32.088
32.47
32.922
33.445
34.037
34.694
35.406
36.163
36.951
37.754
38.557
39.344
40.101
40.817
41.48
42.081
42.615
43.076
43.462
43.773
44.01
44.177
44.279
44.321
44.311
44.254
44.158
44.031
43.879
43.708
43.524
43.332
43.137
42.941
42.748
42.561
42.38
42.207
42.043
41.887
41.738
41.596
41.459
41.326
41.197
41.069
40.941
40.813
40.684
40.555
40.427
40.301
40.176
40.053
39.93
39.807
39.684
39.559
39.432
39.303
39.17
39.032
38.891
38.746
38.599
38.452
38.307
38.167
38.032
37.905
37.788
37.682
37.588
37.506
37.435
37.377
37.328
37.29
37.259
37.236
37.22
37.21
37.204
37.202
37.203
37.205
37.206
37.205
37.2
37.188
37.169
37.139
37.1
37.051
36.992
36.926
36.855
36.779
36.701
36.619
36.534
36.445
36.351
36.252
36.149
36.042
35.933
35.822
35.711
35.599
35.488
35.378
35.269
35.16
35.05
34.939
34.827
34.714
34.6
34.486
34.372
34.261
34.153
34.048
33.946
33.847
33.751
33.658
33.568
33.482
33.4
33.322
33.248
33.178
33.111
33.048
32.988
32.93
32.874
32.819
32.764
32.709
32.654
32.598
32.541
32.484
32.426
32.37
32.314
32.26
32.209
32.159
32.111
32.064
32.019
31.975
31.932
31.891
31.853
31.817
31.785
31.755
31.728
31.703
31.678
31.654
31.63
31.607
31.585
31.563
31.542
31.522
31.503
31.484
31.466
31.447
31.428
31.408
31.388
31.369
31.351
31.334
31.32
31.307
31.297
31.289
31.282
31.275
31.269
31.261
31.252
31.241
31.227
31.211
31.192
31.172
31.15
31.128
31.104
31.079
31.053
31.026
30.998
30.972
30.947
30.924
30.903
30.885
30.87
30.859
30.852
30.851
30.857
30.873
30.902
30.945
