Trial 1:0back
33.869
33.872
33.887
33.916
33.962
34.027
34.114
34.225
34.362
34.523
34.708
34.917
35.145
35.392
35.653
35.925
36.203
36.483
36.762
37.036
37.301
37.555
37.795
38.019
38.225
38.412
38.579
38.725
38.851
38.957
39.044
39.113
39.165
39.2
39.221
39.228
39.222
39.205
39.179
39.144
39.101
39.051
38.995
38.934
38.869
38.8
38.728
38.654
38.578
38.5
38.421
38.339
38.257
38.174
38.09
38.006
37.922
37.837
37.752
37.666
37.581
37.496
37.412
37.328
37.245
37.162
37.08
36.998
36.917
36.837
36.758
36.682
36.607
36.534
36.464
36.397
36.333
36.272
36.217
36.166
36.12
36.079
36.044
36.015
35.992
35.974
35.963
35.957
35.956
35.96
35.968
35.979
35.994
36.01
36.028
36.047
36.065
36.083
36.099
36.112
36.122
36.129
36.132
36.131
36.126
36.117
36.103
36.086
36.066
36.043
36.017
35.99
35.962
35.933
35.904
35.875
35.845
35.815
35.784
35.751
35.718
35.683
35.647
35.61
35.571
35.532
35.491
35.449
35.405
35.361
35.316
35.271
35.226
35.182
35.137
35.093
35.049
35.004
34.96
34.915
34.871
34.827
34.782
34.737
34.693
34.648
34.604
34.561
34.519
34.479
34.44
34.402
34.365
34.327
34.29
34.253
34.216
34.18
34.144
34.109
34.074
34.039
34.006
33.973
33.943
33.914
33.89
33.87
33.858
33.856
33.867
33.895
33.944
34.017
34.115
34.241
34.395
34.577
34.786
35.02
35.277
35.551
35.841
36.14
36.445
36.75
37.052
37.346
37.629
37.897
38.147
38.379
38.592
38.783
38.953
39.103
39.231
39.338
39.425
39.494
39.543
39.576
39.592
39.594
39.581
39.557
39.521
39.476
39.423
39.363
39.298
39.229
39.156
39.08
39.0
38.918
38.834
38.748
38.662
38.574
38.487
38.4
38.312
38.225
38.137
38.049
37.96
37.871
37.78
37.689
37.597
37.504
37.411
37.318
37.226
37.136
37.046
36.959
36.874
36.791
36.712
36.635
36.563
36.495
36.431
36.373
36.32
36.273
36.232
36.198
36.17
36.148
36.132
36.123
36.119
36.121
36.128
36.14
36.154
36.171
36.188
36.205
36.221
36.236
36.249
36.259
36.268
36.273
36.275
36.275
36.271
36.264
36.254
36.242
36.227
36.209
36.189
36.166
36.14
36.112
36.081
36.048
36.012
35.975
35.938
35.899
35.861
35.823
35.785
35.747
35.707
35.668
35.627
35.586
35.545
35.502
35.459
35.414
35.369
35.324
35.278
35.232
35.186
35.14
35.095
35.049
35.004
34.96
34.915
34.871
34.827
34.783
34.739
34.695
34.652
34.608
34.564
34.519
34.475
34.43
34.387
34.344
34.302
34.261
34.22
34.181
34.142
34.106
34.072
34.041
34.016
33.998
33.991
33.998
34.022
34.067
34.136
34.231
34.355
34.507
34.689
34.899
35.136
35.397
35.679
35.978
36.29
36.611
36.936
37.261
37.582
37.896
38.198
38.485
38.755
39.005
39.234
39.441
39.627
39.79
39.932
40.053
40.152
40.232
40.292
40.333
40.358
40.367
40.361
40.344
40.316
40.278
40.233
40.182
40.124
40.062
39.994
39.923
39.848
39.769
39.687
39.602
39.515
39.426
39.336
39.245
39.154
39.061
38.967
38.873
38.777
38.68
38.582
38.483
38.384
38.286
38.187
38.088
37.99
37.892
37.796
37.7
37.606
37.513
37.421
37.333
37.247
37.166
37.09
37.019
36.954
36.895
36.843
36.797
36.758
36.725
36.699
36.678
36.663
36.653
36.647
36.645
36.647
36.652
36.659
36.667
36.676
36.685
36.693
36.701
36.707
36.712
36.714
36.714
36.71
36.703
36.692
36.676
36.655
36.631
36.603
36.571
36.537
36.5
36.462
36.422
36.383
36.343
36.303
36.262
36.221
36.179
36.137
36.094
36.05
36.004
35.958
35.911
35.863
35.814
35.764
35.713
35.662
35.61
35.558
35.506
35.455
35.404
35.353
35.302
35.252
35.202
35.153
35.104
35.056
35.01
34.964
34.919
34.874
34.83
34.785
34.741
34.695
34.65
34.603
34.556
34.509
34.462
34.415
34.369
34.322
34.276
34.231
34.186
34.143
34.104
34.07
34.045
34.032
34.035
34.056
34.101
34.172
34.272
34.403
34.565
34.76
34.986
35.241
35.524
35.829
36.154
36.493
36.842
37.195
37.548
37.896
38.235
38.561
38.872
39.164
39.437
39.687
39.914
40.118
40.297
40.453
40.586
40.697
40.787
40.858
40.911
40.948
40.971
40.98
40.977
40.963
40.939
40.906
40.864
40.814
40.758
40.694
40.625
40.549
40.468
40.382
40.29
40.195
40.096
39.994
39.89
39.785
39.679
39.573
39.467
39.362
39.257
39.153
39.05
38.948
38.845
38.743
38.642
38.54
38.439
38.339
38.239
38.14
38.042
37.945
37.85
37.758
37.669
37.584
37.504
37.43
37.362
37.3
37.245
37.196
37.154
37.117
37.087
37.062
37.041
37.025
37.012
37.002
36.995
36.991
36.988
36.987
36.987
36.987
36.987
36.986
36.983
36.979
36.972
36.963
36.951
36.936
36.917
36.896
36.872
36.845
36.816
36.783
36.749
36.713
36.675
36.634
36.592
36.549
36.503
36.457
36.408
36.358
36.307
36.254
36.2
36.145
36.088
36.03
35.971
35.911
35.851
35.789
35.727
35.664
35.6
35.537
35.474
35.412
35.35
35.29
35.231
35.174
35.117
35.06
35.005
34.95
34.896
34.842
34.789
34.737
34.685
34.634
34.583
34.531
34.479
34.426
34.372
34.317
34.261
34.204
34.147
34.09
34.034
33.981
33.931
33.886
33.85
33.825
33.814
33.822
33.851
33.906
33.99
34.105
34.252
34.432
34.644
34.887
35.158
35.454
35.772
36.106
36.453
36.806
37.161
37.512
37.856
38.189
38.506
38.806
39.085
39.343
39.577
39.786
39.971
40.131
40.267
40.379
40.468
40.536
40.583
40.611
40.622
40.617
40.599
40.568
40.525
40.473
40.413
40.344
40.269
40.187
40.1
40.007
39.909
39.807
39.7
39.59
39.478
39.363
39.247
39.13
39.014
38.897
38.781
38.666
38.552
38.438
38.325
38.212
38.099
37.986
37.874
37.762
37.651
37.541
37.432
37.327
37.224
37.124
37.028
36.936
36.849
36.766
36.688
36.615
36.547
36.484
36.425
36.372
36.324
36.282
36.245
36.212
36.185
36.163
36.145
36.132
36.122
36.115
36.111
36.108
36.105
36.103
36.1
36.096
36.091
36.084
36.075
36.063
36.047
36.028
36.004
35.976
35.944
35.91
35.872
35.833
35.791
35.749
35.706
35.662
35.617
35.572
35.527
35.482
35.437
35.391
35.344
35.296
35.246
35.194
35.14
35.084
35.026
34.968
34.908
34.848
34.789
34.731
34.674
34.619
34.565
34.511
34.458
34.404
34.349
34.294
34.237
34.18
34.122
34.064
34.007
33.949
33.893
33.837
33.783
33.729
33.676
33.624
33.573
33.522
33.472
33.423
33.374
33.326
33.278
33.23
33.184
33.14
33.101
33.068
33.045
33.035
33.042
33.07
33.123
33.202
33.309
33.447
33.616
33.815
34.042
34.296
34.572
34.867
35.177
35.498
35.825
36.152
36.477
36.794
37.099
37.389
37.662
37.914
38.145
38.353
38.538
38.699
38.836
38.95
39.042
39.112
39.162
39.193
39.206
39.202
39.183
39.15
39.104
39.047
38.981
38.905
38.822
38.733
38.638
38.54
38.438
38.334
38.229
38.123
38.018
37.913
37.81
37.708
37.607
37.506
37.406
37.306
37.205
37.104
37.003
36.901
36.798
36.695
36.591
36.487
36.382
36.277
36.172
36.069
35.966
35.867
35.77
35.677
35.59
35.508
35.432
35.362
35.299
35.242
35.192
35.148
35.11
35.079
35.056
35.039
35.029
35.024
35.023
35.026
35.032
35.039
35.048
35.058
35.068
35.078
35.087
35.094
35.099
35.102
35.102
35.099
35.092
35.081
35.067
35.049
35.028
35.003
34.976
34.946
34.913
34.878
34.84
34.8
34.758
34.714
34.669
34.622
34.575
34.527
34.48
34.432
34.385
34.339
34.294
34.25
34.206
34.162
34.117
34.072
34.026
33.978
33.929
33.879
33.827
33.774
33.721
33.669
33.617
33.567
33.517
33.468
33.42
33.374
33.33
33.286
33.244
33.202
33.16
33.118
33.076
33.034
32.992
32.95
32.908
32.867
32.827
32.788
32.752
32.719
32.691
32.671
32.661
32.664
32.685
32.725
32.789
32.877
32.992
33.135
33.304
33.5
33.721
33.963
34.225
34.501
34.789
35.083
35.38
35.676
35.965
36.245
36.513
36.765
37.0
37.215
37.409
37.581
37.729
37.854
37.956
38.035
38.093
38.131
38.151
38.154
38.141
38.115
38.077
38.028
37.969
37.903
37.83
37.751
37.667
37.58
37.49
37.398
37.304
37.209
37.113
37.016
36.918
36.819
36.719
36.618
36.517
36.416
36.314
36.211
36.108
36.005
35.902
35.799
35.696
35.594
35.493
35.394
35.296
35.202
35.111
35.024
34.942
34.865
34.793
34.728
34.669
34.617
34.572
34.534
34.502
34.477
34.457
34.443
34.433
34.428
34.426
34.428
34.433
34.442
34.452
34.465
34.48
34.495
34.511
34.527
34.542
34.556
34.568
34.576
34.582
34.584
34.584
34.58
34.574
34.565
34.552
34.537
34.518
34.497
34.473
34.446
34.417
34.386
34.352
34.316
34.279
34.239
34.199
34.157
34.115
34.072
34.029
33.986
33.944
33.902
33.859
33.816
33.771
33.726
33.681
33.635
33.589
33.543
33.499
33.455
33.413
33.372
33.332
33.292
33.253
33.213
33.173
33.133
33.092
33.051
33.009
32.967
32.926
32.885
32.845
32.805
32.767
32.728
32.691
32.655
32.621
32.591
32.567
32.552
32.548
32.558
32.588
32.638
32.713
32.814
32.942
33.097
33.278
33.485
33.715
33.966
34.234
34.517
34.811
35.111
35.414
35.716
36.011
36.297
36.57
36.826
37.065
37.284
37.482
37.658
37.812
37.943
38.052
38.139
38.206
38.253
38.283
38.296
38.293
38.276
38.246
38.205
38.153
38.093
38.024
37.949
37.869
37.784
37.695
37.605
37.512
37.42
37.327
37.236
37.144
37.054
36.964
36.874
36.785
36.696
36.607
36.518
36.429
36.34
36.252
36.164
36.077
35.99
35.904
35.819
35.736
35.655
35.576
35.501
35.429
35.36
35.295
35.233
35.176
35.124
35.077
35.034
34.998
34.966
34.94
34.92
34.905
34.895
34.89
34.89
34.894
34.9
34.909
34.918
34.928
34.938
34.947
34.956
34.963
34.968
34.972
34.974
34.974
34.971
34.965
34.957
34.946
34.933
34.918
34.901
34.881
34.86
34.836
34.81
34.782
34.753
34.722
34.69
34.655
34.619
34.582
34.544
34.505
34.467
34.428
34.389
34.35
34.311
34.272
34.232
34.192
34.151
34.108
34.065
34.02
33.975
33.928
33.881
33.834
33.788
33.742
33.698
33.655
33.613
33.573
33.533
33.493
33.454
33.415
33.377
33.338
33.3
33.263
33.225
33.188
33.15
33.114
33.078
33.043
33.009
32.977
32.947
32.92
32.898
32.883
32.878
32.886
32.909
32.952
33.016
33.104
33.218
33.36
33.53
33.727
33.949
34.195
34.46
34.741
35.034
35.335
35.64
35.944
36.243
36.532
36.809
37.071
37.314
37.537
37.74
37.92
38.077
38.212
38.325
38.416
38.487
38.54
38.575
38.593
38.597
38.587
38.566
38.533
38.492
38.443
38.387
38.325
38.257
38.185
38.109
38.029
37.946
37.86
37.771
37.681
37.59
37.498
37.407
37.316
37.226
37.138
37.052
36.968
36.887
36.807
36.73
36.655
36.582
36.511
36.44
36.371
36.303
36.235
36.169
36.104
36.039
35.976
35.915
35.855
35.797
35.742
35.69
35.642
35.597
35.557
35.521
35.49
35.464
35.443
35.426
35.413
35.404
35.398
35.396
35.396
35.398
35.402
35.408
35.415
35.422
35.429
35.435
35.441
35.446
35.449
35.45
35.449
35.445
35.439
35.429
35.417
35.401
35.382
35.361
35.336
35.307
35.277
35.244
35.208
35.171
35.132
35.092
35.051
35.009
34.967
34.924
34.882
34.839
34.797
34.755
34.713
34.672
34.63
34.589
34.547
34.504
34.462
34.418
34.374
34.33
34.286
34.241
34.197
34.152
34.108
34.063
34.018
33.973
33.928
33.883
33.839
33.796
33.752
33.71
33.668
33.626
33.584
33.544
33.504
33.465
33.427
33.392
33.359
33.33
33.306
33.29
33.282
33.287
33.306
33.342
33.397
33.475
33.576
33.702
33.852
34.027
34.225
34.443
34.68
34.932
35.195
35.466
35.74
36.015
36.285
36.548
36.8
37.039
37.263
37.47
37.66
37.829
37.979
38.107
38.215
38.301
38.367
38.414
38.442
38.452
38.447
38.427
38.395
38.353
38.302
38.244
38.179
38.109
38.035
37.957
37.877
37.794
37.71
37.626
37.541
37.456
37.372
37.29
37.208
37.128
37.049
36.971
36.893
36.816
36.738
36.659
36.581
36.502
36.423
36.345
36.267
36.189
36.112
36.036
35.961
35.889
35.821
35.755
35.694
35.637
35.585
35.538
35.497
35.461
35.43
35.404
35.382
35.365
35.351
35.341
35.333
35.327
35.324
35.322
35.32
35.32
35.32
35.32
35.319
35.318
35.315
35.312
35.307
35.302
35.296
35.288
35.279
35.269
35.256
35.242
35.225
35.207
35.186
35.162
35.136
35.108
35.078
35.046
35.012
34.976
34.939
34.9
34.859
34.817
34.774
34.73
34.685
34.639
34.592
34.545
34.498
34.451
34.405
34.359
34.314
34.268
34.223
34.177
34.131
34.086
34.041
33.998
33.955
33.913
33.872
33.832
33.792
33.753
33.714
33.675
33.637
33.599
33.561
33.524
33.486
33.448
33.41
33.372
33.333
33.295
33.255
33.215
33.175
33.136
33.098
33.063
33.031
33.003
32.983
32.97
32.969
32.98
33.008
33.055
33.123
33.215
33.331
33.471
33.636
33.823
34.031
34.256
34.494
34.743
34.998
35.255
35.511
35.763
36.006
36.239
36.459
36.664
36.852
37.022
37.173
37.303
37.413
37.504
37.576
37.63
37.669
37.692
37.7
37.696
37.679
37.651
37.613
37.567
37.513
37.451
37.385
37.314
37.239
37.163
37.084
37.004
36.922
36.839
36.757
36.674
36.591
36.509
36.427
36.345
36.264
36.184
36.105
36.028
35.953
35.88
35.808
35.739
35.671
35.605
35.54
35.476
35.413
35.352
35.293
35.235
35.18
35.126
35.075
35.027
34.982
34.941
34.904
34.872
34.844
34.822
34.805
34.792
34.784
34.781
34.781
34.786
34.793
34.803
34.816
34.83
34.845
34.86
34.875
34.887
34.898
34.907
34.913
34.916
34.917
34.917
34.913
34.908
34.9
34.89
34.876
34.86
34.84
34.818
34.793
34.765
34.736
34.705
34.672
34.638
34.603
34.568
34.531
34.495
34.458
34.422
34.385
34.349
34.312
34.276
34.238
34.2
34.162
34.123
34.083
34.042
34.0
33.958
33.915
33.872
33.828
33.784
33.741
33.697
33.655
33.615
33.576
33.54
33.505
33.473
33.442
33.412
33.383
33.353
33.324
33.295
33.265
33.236
33.206
33.176
33.146
33.115
33.084
33.055
33.028
33.003
32.982
32.966
32.956
32.956
32.966
32.989
33.028
33.085
33.162
33.26
33.38
33.522
33.685
33.869
34.07
34.285
34.513
34.749
34.989
35.23
35.468
35.7
35.922
36.133
36.33
36.511
36.674
36.818
36.943
37.049
37.136
37.205
37.255
37.289
37.307
37.31
37.299
37.276
37.242
37.198
37.146
37.087
37.022
36.953
36.88
36.805
36.728
36.65
36.571
36.491
36.412
36.333
36.255
36.179
36.103
36.03
35.959
35.89
35.823
35.758
35.694
35.631
35.569
35.507
35.444
35.382
35.319
35.256
35.194
35.133
35.073
35.014
34.959
34.906
34.857
34.812
34.772
34.736
34.706
34.682
34.663
34.649
34.64
34.637
34.637
34.641
34.648
34.658
34.67
34.684
34.699
34.714
34.729
34.743
34.757
34.769
34.779
34.789
34.797
34.803
34.807
34.808
34.806
34.802
34.794
34.784
34.771
34.754
34.736
34.714
34.69
34.665
34.637
34.609
34.58
34.551
34.522
34.492
34.461
34.431
34.399
34.366
34.332
34.296
34.26
34.223
34.186
34.149
34.111
34.073
34.036
34.0
33.964
33.928
33.894
33.86
33.826
33.792
33.757
33.723
33.688
33.653
33.619
33.586
33.553
33.522
33.491
33.46
33.43
33.4
33.371
33.343
33.315
33.288
33.26
33.233
33.205
33.177
33.148
33.119
33.091
33.064
33.038
33.016
32.998
32.986
32.983
32.991
33.012
33.05
33.106
33.182
33.281
33.404
33.549
33.718
33.907
34.116
34.342
34.58
34.828
35.08
35.333
35.584
35.829
36.065
36.288
36.497
36.689
36.863
37.018
37.153
37.27
37.367
37.447
37.508
37.554
37.584
37.6
37.603
37.595
37.575
37.546
37.507
37.461
37.408
37.35
37.287
37.221
37.153
37.083
37.011
36.938
36.866
36.793
36.721
36.651
36.582
36.514
36.449
36.385
36.323
36.262
36.203
36.144
36.086
36.028
35.971
35.915
35.86
35.805
35.751
35.697
35.644
35.593
35.543
35.494
35.447
35.402
35.359
35.319
35.281
35.246
35.214
35.185
35.16
35.137
35.118
35.102
35.09
35.082
35.076
35.074
35.074
35.077
35.083
35.091
35.1
35.11
35.121
35.131
35.14
35.148
35.154
35.159
35.163
35.164
35.163
35.161
35.157
35.151
35.144
35.134
35.122
35.108
35.09
35.07
35.048
35.023
34.996
34.968
34.937
34.905
34.872
34.837
34.801
34.764
34.726
34.688
34.649
34.611
34.573
34.535
34.498
34.462
34.427
34.392
34.357
34.323
34.289
34.254
34.22
34.186
34.152
34.118
34.085
34.052
34.019
33.987
33.956
33.926
33.897
33.869
33.843
33.818
33.793
33.769
33.744
33.72
33.694
33.668
33.641
33.613
33.584
33.555
33.525
33.495
33.465
33.435
33.405
33.377
33.352
33.329
33.311
33.299
33.296
33.303
33.324
33.361
33.417
33.493
33.59
33.709
33.85
34.012
34.193
34.392
34.607
34.835
35.073
35.317
35.564
35.81
36.051
36.286
36.511
36.724
36.923
37.106
37.271
37.418
37.547
37.657
37.748
37.823
37.88
37.922
37.948
37.959
37.956
37.941
37.915
37.88
37.837
37.786
37.731
37.671
37.609
37.543
37.476
37.407
37.337
37.266
37.194
37.122
37.051
36.981
36.913
36.847
36.782
36.72
36.66
36.602
36.547
36.493
36.441
36.391
36.341
36.292
36.244
36.196
36.148
36.1
36.052
36.004
35.957
35.909
35.862
35.815
35.77
35.726
35.683
35.644
35.607
35.574
35.545
35.52
35.5
35.485
35.474
35.469
35.468
35.471
35.477
35.485
35.495
35.505
35.516
35.526
35.535
35.543
35.55
35.555
35.559
35.561
35.562
35.561
35.559
35.555
35.549
35.541
35.53
35.516
35.5
35.481
35.459
35.436
35.41
35.383
35.355
35.326
35.296
35.267
35.236
35.204
35.171
35.136
35.1
35.061
35.021
34.98
34.937
34.893
34.85
34.807
34.765
34.724
34.685
34.648
34.613
34.579
34.546
34.514
34.482
34.45
34.418
34.386
34.354
34.322
34.29
34.258
34.227
34.195
34.164
34.133
34.103
34.074
34.045
34.015
33.986
33.958
33.929
33.901
33.874
33.847
33.821
33.796
33.771
33.746
33.721
33.696
33.67
33.646
33.622
33.6
33.58
33.565
33.555
33.553
33.562
33.583
33.62
33.675
33.75
33.845
33.963
34.102
34.264
34.446
34.648
34.865
35.096
35.336
35.583
35.832
36.08
36.324
36.56
36.785
36.996
37.19
37.368
37.527
37.666
37.787
37.887
37.969
38.031
38.076
38.105
38.119
38.119
38.107
38.085
38.053
38.013
37.966
37.915
37.86
37.802
37.742
37.681
37.619
37.556
37.493
37.43
37.368
37.306
37.244
37.183
37.122
37.061
37.0
36.94
36.88
36.821
36.763
36.705
36.648
36.591
36.535
36.477
36.42
36.361
36.303
36.243
36.185
36.126
36.069
36.013
35.96
35.911
35.866
35.825
35.79
35.759
35.732
35.711
35.694
35.682
35.675
35.672
35.671
35.674
35.677
35.682
35.687
35.693
35.699
35.705
35.711
35.717
35.723
35.729
35.735
35.739
35.743
35.744
35.743
35.74
35.733
35.724
35.711
35.695
35.678
35.659
35.639
35.618
35.596
35.574
35.552
35.528
35.502
35.475
35.446
35.416
35.384
35.35
35.315
35.279
35.242
35.203
35.164
35.123
35.08
35.037
34.992
34.947
34.901
34.855
34.81
34.766
34.723
34.682
34.643
34.605
34.568
34.533
34.5
34.467
34.434
34.401
34.369
34.336
34.303
34.27
34.236
34.202
34.169
34.136
34.103
34.071
34.039
34.008
33.976
33.945
33.915
33.884
33.855
33.825
33.796
33.767
33.738
33.71
33.683
33.657
33.63
33.604
33.578
33.551
33.525
33.499
33.473
33.447
33.421
33.396
33.371
33.348
33.328
33.312
33.304
33.307
33.323
33.355
33.406
33.477
33.571
33.688
33.829
33.994
34.179
34.384
34.606
34.842
35.088
35.341
35.597
35.852
36.104
36.349
36.583
36.806
37.014
37.206
37.381
37.537
37.675
37.793
37.893
37.974
38.037
38.083
38.113
38.128
38.13
38.119
38.097
38.067
38.028
37.983
37.932
37.876
37.818
37.757
37.694
37.631
37.567
37.503
37.439
37.374
37.31
37.245
37.18
37.115
37.05
36.986
36.923
36.86
36.798
36.737
36.676
36.617
36.558
36.501
36.444
36.387
36.33
36.274
36.218
36.163
36.108
36.056
36.006
35.96
35.917
