Trial 1:0back
34.015
34.006
33.998
33.993
33.99
33.988
33.987
33.988
33.989
33.991
33.993
33.993
33.991
33.988
33.983
33.977
33.969
33.961
33.952
33.942
33.932
33.923
33.916
33.911
33.91
33.911
33.914
33.918
33.922
33.927
33.932
33.938
33.944
33.948
33.95
33.951
33.949
33.945
33.94
33.935
33.929
33.923
33.917
33.911
33.906
33.902
33.898
33.895
33.893
33.892
33.895
33.9
33.913
33.934
33.97
34.025
34.104
34.212
34.352
34.526
34.732
34.97
35.236
35.525
35.83
36.143
36.457
36.764
37.057
37.33
37.579
37.8
37.99
38.148
38.274
38.369
38.433
38.469
38.476
38.452
38.397
38.314
38.211
38.093
37.968
37.843
37.724
37.615
37.519
37.436
37.369
37.316
37.276
37.249
37.23
37.217
37.209
37.201
37.193
37.183
37.17
37.154
37.135
37.113
37.087
37.059
37.029
36.997
36.965
36.933
36.901
36.87
36.839
36.809
36.779
36.752
36.725
36.701
36.679
36.657
36.637
36.616
36.596
36.576
36.557
36.538
36.518
36.498
36.476
36.455
36.433
36.413
36.395
36.38
36.367
36.358
36.353
36.351
36.352
36.356
36.362
36.369
36.376
36.383
36.388
36.391
36.392
36.393
36.392
36.39
36.385
36.378
36.366
36.351
36.332
36.31
36.286
36.261
36.234
36.206
36.177
36.148
36.117
36.086
36.054
36.023
35.993
35.963
35.935
35.907
35.878
35.849
35.819
35.789
35.759
35.727
35.695
35.663
35.632
35.604
35.578
35.554
35.533
35.514
35.497
35.483
35.469
35.457
35.444
35.431
35.417
35.404
35.392
35.381
35.371
35.362
35.354
35.346
35.338
35.329
35.319
35.308
35.298
35.287
35.276
35.266
35.255
35.245
35.234
35.224
35.212
35.2
35.187
35.173
35.158
35.142
35.126
35.108
35.09
35.072
35.054
35.038
35.024
35.013
35.006
35.001
35.0
35.0
35.001
35.002
35.002
35.002
35.0
34.997
34.992
34.985
34.975
34.962
34.947
34.93
34.911
34.893
34.874
34.855
34.837
34.82
34.804
34.789
34.776
34.763
34.751
34.739
34.727
34.714
34.7
34.686
34.673
34.66
34.649
34.639
34.63
34.622
34.617
34.613
34.612
34.613
34.613
34.613
34.612
34.609
34.604
34.597
34.586
34.573
34.557
34.539
34.521
34.502
34.482
34.462
34.441
34.422
34.404
34.388
34.373
34.361
34.35
34.34
34.331
34.323
34.316
34.309
34.301
34.293
34.284
34.274
34.265
34.258
34.254
34.252
34.253
34.257
34.266
34.281
34.305
34.341
34.392
34.46
34.546
34.652
34.777
34.921
35.084
35.262
35.453
35.652
35.857
36.063
36.267
36.467
36.658
36.839
37.004
37.152
37.279
37.384
37.466
37.525
37.562
37.577
37.574
37.555
37.523
37.482
37.433
37.381
37.327
37.271
37.215
37.158
37.101
37.045
36.99
36.937
36.886
36.837
36.792
36.75
36.711
36.675
36.643
36.613
36.585
36.557
36.528
36.498
36.467
36.435
36.401
36.366
36.331
36.297
36.265
36.234
36.207
36.183
36.161
36.141
36.122
36.105
36.089
36.074
36.059
36.045
36.03
36.014
35.996
35.978
35.958
35.94
35.923
35.909
35.897
35.889
35.884
35.883
35.886
35.891
35.898
35.906
35.914
35.921
35.927
35.932
35.936
35.94
35.943
35.945
35.946
35.947
35.947
35.946
35.943
35.938
35.93
35.919
35.904
35.886
35.865
35.842
35.818
35.792
35.765
35.735
35.702
35.669
35.635
35.601
35.567
35.534
35.503
35.472
35.443
35.414
35.386
35.358
35.331
35.305
35.28
35.257
35.236
35.215
35.196
35.178
35.16
35.144
35.129
35.115
35.103
35.091
35.08
35.069
35.058
35.047
35.037
35.025
35.014
35.005
34.999
34.997
34.997
34.999
35.001
35.004
35.004
35.003
34.997
34.989
34.977
34.962
34.944
34.922
34.899
34.873
34.847
34.82
34.795
34.77
34.747
34.724
34.703
34.683
34.665
34.649
34.635
34.623
34.612
34.603
34.595
34.589
34.584
34.58
34.578
34.576
34.576
34.575
34.573
34.571
34.569
34.567
34.563
34.559
34.554
34.547
34.539
34.529
34.519
34.507
34.494
34.479
34.461
34.439
34.414
34.388
34.362
34.337
34.314
34.293
34.276
34.261
34.25
34.242
34.237
34.237
34.238
34.242
34.247
34.252
34.257
34.262
34.266
34.269
34.272
34.274
34.275
34.273
34.27
34.265
34.258
34.249
34.238
34.226
34.212
34.198
34.183
34.169
34.155
34.143
34.13
34.117
34.104
34.09
34.076
34.061
34.046
34.03
34.014
33.998
33.984
33.97
33.957
33.945
33.935
33.928
33.923
33.923
33.925
33.93
33.938
33.949
33.963
33.983
34.012
34.051
34.103
34.17
34.255
34.359
34.483
34.629
34.794
34.976
35.171
35.377
35.587
35.8
36.01
36.214
36.408
36.588
36.751
36.895
37.016
37.116
37.195
37.253
37.293
37.315
37.322
37.316
37.299
37.272
37.238
37.198
37.154
37.107
37.057
37.007
36.956
36.905
36.856
36.808
36.762
36.719
36.678
36.639
36.601
36.565
36.531
36.498
36.467
36.437
36.41
36.385
36.364
36.346
36.331
36.32
36.312
36.306
36.301
36.297
36.292
36.287
36.281
36.272
36.26
36.244
36.225
36.202
36.175
36.146
36.115
36.082
36.049
36.015
35.981
35.947
35.914
35.884
35.856
35.832
35.813
35.797
35.785
35.778
35.774
35.774
35.777
35.783
35.791
35.799
35.806
35.813
35.818
35.823
35.828
35.831
35.834
35.836
35.836
35.833
35.828
35.819
35.808
35.794
35.776
35.756
35.735
35.712
35.688
35.664
35.641
35.618
35.596
35.574
35.554
35.535
35.518
35.503
35.488
35.473
35.456
35.437
35.415
35.392
35.368
35.345
35.322
35.301
35.281
35.262
35.245
35.229
35.215
35.2
35.185
35.169
35.15
35.131
35.111
35.091
35.072
35.054
35.036
35.02
35.004
34.99
34.975
34.961
34.946
34.931
34.915
34.898
34.882
34.866
34.85
34.834
34.818
34.803
34.789
34.777
34.765
34.755
34.747
34.741
34.736
34.733
34.732
34.732
34.731
34.729
34.726
34.721
34.713
34.703
34.691
34.678
34.662
34.644
34.626
34.607
34.588
34.57
34.554
34.538
34.524
34.511
34.498
34.486
34.475
34.464
34.455
34.447
34.439
34.431
34.424
34.417
34.41
34.403
34.397
34.391
34.387
34.384
34.38
34.376
34.371
34.365
34.357
34.348
34.337
34.326
34.314
34.302
34.291
34.281
34.271
34.262
34.253
34.244
34.234
34.223
34.212
34.2
34.189
34.178
34.167
34.156
34.146
34.137
34.128
34.121
34.116
34.113
34.112
34.114
34.116
34.118
34.119
34.118
34.114
34.108
34.101
34.094
34.086
34.076
34.066
34.054
34.042
34.029
34.018
34.009
34.001
33.996
33.992
33.989
33.987
33.987
33.987
33.988
33.988
33.988
33.988
33.987
33.987
33.987
33.99
33.997
34.011
34.034
34.069
34.121
34.191
34.28
34.389
34.52
34.67
34.839
35.022
35.217
35.416
35.617
35.813
36.002
36.181
36.346
36.496
36.627
36.74
36.833
36.907
36.962
37.002
37.026
37.034
37.029
37.011
36.981
36.942
36.896
36.846
36.793
36.738
36.682
36.627
36.573
36.521
36.469
36.42
36.374
36.331
36.292
36.256
36.223
36.194
36.168
36.146
36.127
36.112
36.1
36.091
36.086
36.082
36.078
36.075
36.069
36.062
36.052
36.041
36.026
36.009
35.988
35.965
35.939
35.91
35.88
35.848
35.817
35.787
35.758
35.731
35.707
35.686
35.668
35.654
35.643
35.634
35.627
35.622
35.621
35.622
35.625
35.629
35.633
35.638
35.642
35.646
35.649
35.651
35.651
35.651
35.649
35.646
35.643
35.639
35.635
35.629
35.622
35.613
35.603
35.591
35.578
35.564
35.55
35.537
35.524
35.513
35.503
35.494
35.485
35.475
35.464
35.451
35.437
35.42
35.402
35.384
35.364
35.342
35.319
35.292
35.263
35.231
35.196
35.16
35.125
35.091
35.061
35.035
35.014
34.998
34.986
34.977
34.971
34.965
34.96
34.956
34.953
34.95
34.947
34.944
34.94
34.936
34.931
34.926
34.922
34.917
34.913
34.908
34.903
34.899
34.894
34.889
34.882
34.874
34.863
34.85
34.835
34.817
34.8
34.782
34.765
34.75
34.735
34.722
34.709
34.697
34.685
34.674
34.664
34.655
34.648
34.642
34.636
34.63
34.622
34.614
34.604
34.593
34.582
34.571
34.56
34.549
34.54
34.531
34.525
34.52
34.518
34.516
34.516
34.517
34.519
34.52
34.522
34.523
34.522
34.52
34.516
34.508
34.499
34.489
34.478
34.468
34.459
34.451
34.445
34.439
34.433
34.426
34.418
34.402
34.378
34.343
34.302
34.256
34.209
34.164
34.126
34.096
34.075
34.063
34.061
34.067
34.08
34.099
34.122
34.147
34.172
34.197
34.221
34.241
34.259
34.272
34.281
34.285
34.286
34.282
34.276
34.268
34.26
34.253
34.249
34.249
34.257
34.275
34.307
34.354
34.417
34.498
34.596
34.711
34.841
34.984
35.138
35.298
35.462
35.625
35.784
35.938
36.084
36.221
36.348
36.463
36.564
36.651
36.723
36.779
36.821
36.847
36.86
36.859
36.845
36.819
36.784
36.74
36.691
36.639
36.584
36.528
36.471
36.413
36.357
36.304
36.253
36.206
36.163
36.122
36.086
36.054
36.027
36.005
35.988
35.975
35.965
35.958
35.951
35.945
35.94
35.934
35.928
35.921
35.912
35.9
35.886
35.869
35.85
35.829
35.807
35.783
35.758
35.732
35.706
35.681
35.656
35.633
35.611
35.59
35.57
35.551
35.534
35.519
35.508
35.5
35.496
35.496
35.499
35.506
35.516
35.527
35.54
35.555
35.57
35.585
35.599
35.613
35.626
35.638
35.646
35.652
35.654
35.652
35.645
35.634
35.62
35.604
35.588
35.571
35.554
35.536
35.519
35.5
35.481
35.462
35.444
35.427
35.41
35.394
35.378
35.363
35.347
35.331
35.314
35.296
35.276
35.256
35.234
35.211
35.188
35.166
35.144
35.123
35.101
35.08
35.058
35.037
35.015
34.994
34.972
34.952
34.933
34.916
34.901
34.887
34.876
34.872
34.879
34.897
34.924
34.957
34.992
35.027
35.059
35.083
35.1
35.107
35.104
35.093
35.072
35.045
35.01
34.971
34.928
34.883
34.839
34.795
34.753
34.712
34.674
34.639
34.608
34.583
34.562
34.546
34.533
34.524
34.517
34.513
34.511
34.511
34.512
34.515
34.517
34.52
34.523
34.527
34.532
34.537
34.543
34.548
34.552
34.557
34.561
34.564
34.566
34.567
34.566
34.565
34.561
34.556
34.549
34.539
34.526
34.511
34.496
34.479
34.463
34.447
34.433
34.42
34.41
34.402
34.398
34.396
34.396
34.397
34.396
34.395
34.392
34.388
34.383
34.377
34.371
34.363
34.355
34.347
34.339
34.33
34.323
34.317
34.312
34.309
34.306
34.304
34.303
34.302
34.301
34.3
34.297
34.292
34.284
34.273
34.259
34.244
34.228
34.211
34.194
34.178
34.163
34.148
34.134
34.122
34.112
34.107
34.106
34.112
34.127
34.151
34.189
34.241
34.309
34.395
34.499
34.622
34.761
34.916
35.085
35.263
35.449
35.638
35.827
36.01
36.185
36.348
36.498
36.633
36.749
36.846
36.923
36.982
37.023
37.049
37.06
37.06
37.051
37.034
37.009
36.977
36.94
36.898
36.853
36.806
36.758
36.709
36.662
36.618
36.577
36.54
36.508
36.481
36.458
36.438
36.422
36.41
36.4
36.393
36.388
36.384
36.382
36.38
36.378
36.375
36.371
36.366
36.358
36.349
36.337
36.324
36.308
36.289
36.269
36.246
36.221
36.194
36.165
36.134
36.102
36.067
36.03
35.994
35.959
35.926
35.898
35.874
35.853
35.837
35.824
35.815
35.81
35.808
35.81
35.815
35.821
35.829
35.838
35.848
35.857
35.865
35.872
35.877
35.879
35.879
35.877
35.873
35.869
35.864
35.859
35.853
35.845
35.836
35.825
35.814
35.801
35.788
35.773
35.757
35.739
35.719
35.698
35.676
35.652
35.628
35.603
35.579
35.556
35.535
35.514
35.495
35.476
35.458
35.44
35.422
35.405
35.39
35.375
35.362
35.351
35.341
35.331
35.321
35.312
35.302
35.291
35.281
35.27
35.259
35.248
35.236
35.223
35.209
35.193
35.177
35.16
35.142
35.124
35.107
35.09
35.073
35.059
35.046
35.034
35.025
35.016
35.007
35.0
34.996
34.994
34.995
34.998
35.002
35.007
35.012
35.017
35.023
35.028
35.032
35.033
35.033
35.029
35.023
35.014
35.003
34.99
34.974
34.956
34.936
34.915
34.894
34.874
34.854
34.836
34.819
34.804
34.79
34.779
34.768
34.758
34.749
34.74
34.731
34.723
34.716
34.709
34.701
34.694
34.686
34.672
34.651
34.623
34.589
34.553
34.517
34.483
34.454
34.432
34.419
34.415
34.42
34.432
34.449
34.47
34.493
34.517
34.539
34.559
34.576
34.591
34.602
34.61
34.614
34.614
34.612
34.609
34.603
34.597
34.59
34.582
34.575
34.567
34.561
34.555
34.549
34.543
34.535
34.526
34.515
34.502
34.489
34.476
34.463
34.452
34.443
34.435
34.428
34.422
34.416
34.41
34.406
34.404
34.404
34.409
34.419
34.438
34.466
34.505
34.555
34.618
34.695
34.785
34.889
35.007
35.137
35.278
35.429
35.587
35.748
35.909
36.065
36.214
36.352
36.478
36.591
36.69
36.773
36.841
36.894
36.931
36.954
36.964
36.964
36.954
36.939
36.918
36.893
36.865
36.832
36.794
36.754
36.711
36.666
36.622
36.578
36.535
36.495
36.459
36.428
36.4
36.376
36.355
36.336
36.319
36.303
36.288
36.274
36.262
36.252
36.243
36.237
36.233
36.23
36.228
36.226
36.222
36.216
36.208
36.197
36.183
36.166
36.148
36.126
36.101
36.073
36.041
36.007
35.973
35.94
35.908
35.878
35.85
35.825
35.804
35.787
35.775
35.769
35.766
35.768
35.772
35.778
35.787
35.797
35.808
35.819
35.831
35.841
35.851
35.86
35.868
35.875
35.882
35.887
35.89
35.891
35.89
35.886
35.879
35.869
35.856
35.841
35.824
35.804
35.784
35.764
35.744
35.725
35.707
35.69
35.672
35.655
35.637
35.619
35.601
35.582
35.564
35.545
35.527
35.508
35.488
35.464
35.433
35.396
35.354
35.31
35.265
35.223
35.186
35.156
35.136
35.125
35.124
35.13
35.143
35.16
35.181
35.205
35.229
35.254
35.276
35.295
35.309
35.318
35.321
35.319
35.312
35.301
35.288
35.271
35.254
35.235
35.216
35.198
35.181
35.163
35.146
35.129
35.114
35.099
35.085
35.072
35.06
35.048
35.039
35.032
35.026
35.023
35.021
35.02
35.019
35.019
35.019
35.019
35.018
35.016
35.011
35.003
34.993
34.982
34.97
34.958
34.948
34.938
34.928
34.919
34.909
34.901
34.894
34.888
34.883
34.878
34.871
34.864
34.857
34.85
34.843
34.837
34.83
34.823
34.816
34.81
34.805
34.801
34.799
34.798
34.801
34.804
34.809
34.814
34.818
34.819
34.817
34.811
34.802
34.789
34.773
34.754
34.732
34.708
34.683
34.658
34.634
34.611
34.59
34.572
34.556
34.542
34.532
34.524
34.52
34.519
34.521
34.528
34.539
34.557
34.584
34.62
34.669
34.729
34.803
34.888
34.984
35.091
35.206
35.33
35.459
35.592
35.727
35.861
35.993
36.121
36.242
36.357
36.462
36.556
36.638
36.706
36.76
36.799
36.824
36.835
36.833
36.82
36.798
36.767
36.731
36.689
36.645
36.598
36.552
36.505
36.459
36.415
36.374
36.335
36.301
36.273
36.251
36.235
36.224
36.216
36.212
36.21
36.209
36.209
36.209
36.208
36.206
36.201
36.195
36.188
36.18
36.171
36.161
36.148
36.132
36.112
36.089
36.064
36.038
36.012
35.985
35.958
35.931
35.902
35.873
35.845
35.817
35.791
35.769
35.751
35.739
35.731
35.729
35.731
35.736
35.744
35.754
35.765
35.777
35.789
35.802
35.814
35.826
35.837
35.847
35.855
35.86
35.861
35.859
35.853
35.843
35.831
35.817
35.8
35.781
35.759
35.736
35.712
35.687
35.665
35.644
35.627
35.613
35.602
35.593
35.585
35.579
35.572
35.566
35.558
35.548
35.536
35.519
35.5
35.477
35.452
35.426
35.398
35.371
35.344
35.318
35.294
35.273
35.255
35.24
35.229
35.221
35.216
35.212
35.21
35.208
35.206
35.203
35.2
35.196
35.192
35.188
35.184
35.18
35.178
35.181
35.189
35.202
35.217
35.233
35.246
35.255
35.259
35.258
35.251
35.239
35.223
35.204
35.181
35.157
35.13
35.102
35.074
35.047
35.022
35.0
34.979
34.961
34.945
34.93
34.917
34.905
34.895
34.887
34.879
34.87
34.861
34.85
34.84
34.83
34.822
34.816
34.812
34.808
34.806
34.803
34.801
34.799
34.797
34.795
34.793
34.79
34.786
34.782
34.776
34.769
34.762
34.755
34.749
34.742
34.737
34.732
34.728
34.725
34.722
34.718
34.714
34.71
34.707
34.703
34.7
34.696
34.693
34.69
34.688
34.687
34.685
34.682
34.677
34.671
34.664
34.656
34.647
34.638
34.629
34.618
34.605
34.592
34.577
34.562
34.545
34.527
34.508
34.488
34.469
34.45
34.434
34.419
34.406
34.395
34.387
34.381
34.378
34.378
34.379
34.383
34.388
34.395
34.402
34.41
34.417
34.424
34.431
34.439
34.45
34.464
34.484
34.512
34.549
34.598
34.659
34.734
34.823
34.926
35.042
35.168
35.304
35.445
35.589
35.735
35.878
36.017
36.15
36.275
36.39
36.494
36.585
36.663
36.728
36.779
36.814
36.836
36.845
36.842
36.828
36.804
36.771
36.732
36.688
36.64
36.59
36.538
36.486
36.436
36.39
36.349
36.313
36.284
36.26
36.243
36.23
36.222
36.219
36.22
36.225
36.232
36.241
36.251
36.261
36.269
36.277
36.282
36.285
36.284
36.279
36.27
36.257
36.241
36.221
36.197
36.169
36.137
36.102
36.065
36.028
35.991
35.955
35.921
35.89
35.86
35.833
35.81
35.792
35.779
35.771
35.765
35.762
35.761
35.761
35.762
35.765
35.769
35.772
35.774
35.773
35.77
35.765
35.758
35.751
35.743
35.734
35.726
35.719
35.714
35.71
35.708
35.706
35.705
35.704
35.702
35.701
35.701
35.701
35.702
35.701
35.699
35.693
35.683
35.669
35.65
35.628
35.603
35.576
35.549
35.522
35.495
35.47
35.446
35.424
35.403
35.383
35.364
35.346
35.328
35.308
35.289
35.269
35.251
35.235
35.221
35.21
35.202
35.196
35.193
35.191
35.191
35.192
35.194
35.196
35.198
35.198
35.196
35.191
35.185
35.176
35.166
35.154
35.14
35.124
35.108
35.091
35.074
35.06
35.047
35.036
35.026
35.016
35.005
34.994
34.981
34.968
34.955
34.943
34.931
34.92
34.911
34.903
34.899
34.897
34.899
34.903
34.909
34.916
34.924
34.931
34.937
34.943
34.947
34.948
34.947
34.942
34.935
34.925
34.914
34.902
34.888
34.874
34.859
34.843
34.829
34.814
34.801
34.788
34.777
34.768
34.761
34.757
34.754
34.754
34.754
34.754
34.754
34.754
34.752
34.748
34.743
34.736
34.728
34.719
34.71
34.701
34.693
34.685
34.677
34.669
34.66
34.653
34.645
34.639
34.632
34.625
34.617
34.608
34.6
34.591
34.583
34.574
34.566
34.558
34.551
34.546
34.541
34.537
34.532
34.526
34.52
34.516
34.512
34.51
34.507
34.504
34.5
34.493
34.483
34.473
34.46
34.447
34.434
34.422
34.41
34.4
34.392
34.386
34.385
34.387
34.395
34.41
34.433
34.465
34.507
34.561
34.627
34.706
34.797
34.899
35.011
35.131
35.258
35.39
35.524
35.66
35.794
35.924
36.05
36.168
36.279
36.379
36.467
36.543
36.606
36.655
36.69
36.712
36.721
36.718
36.705
36.684
36.656
36.622
36.584
36.543
36.5
36.456
36.411
36.366
36.322
36.279
36.239
36.203
36.172
36.144
36.122
36.104
36.091
36.082
36.077
36.075
36.074
36.075
36.076
36.076
36.076
36.076
36.074
36.069
36.061
36.048
36.031
36.009
35.985
35.958
35.931
35.902
35.872
35.843
35.814
35.787
35.763
35.742
35.722
35.705
35.69
35.677
35.666
35.659
35.654
35.652
35.652
35.654
35.658
35.662
35.668
35.675
35.683
35.692
35.7
35.709
35.718
35.726
35.732
35.735
35.735
35.732
35.727
35.719
35.709
35.699
35.688
35.678
35.669
35.66
35.652
35.644
35.636
35.629
35.619
35.607
35.593
35.576
35.557
35.537
35.515
35.491
35.464
35.435
35.404
35.371
35.338
35.305
35.275
35.248
35.224
35.202
35.183
35.166
35.152
35.141
35.132
35.125
35.121
35.118
35.116
35.114
35.112
35.109
35.107
35.103
35.099
35.094
35.089
35.083
35.076
35.069
35.062
35.055
35.049
35.044
35.039
35.035
35.031
35.029
35.027
35.026
35.026
35.026
35.025
35.024
35.021
35.016
35.009
35.001
34.993
34.985
34.978
34.971
34.965
34.959
34.952
34.945
34.938
34.931
34.923
34.914
34.905
34.895
34.885
34.874
34.863
34.85
34.837
34.821
34.804
34.786
34.766
34.746
34.725
34.704
34.685
34.67
34.658
34.651
34.649
34.649
34.652
34.656
34.662
34.67
34.679
34.689
34.698
34.705
34.711
34.717
34.721
34.724
34.726
34.726
34.724
34.72
34.714
34.705
34.695
34.682
34.666
34.649
34.631
34.613
34.594
