Trial 1:0back
36.039
36.219
36.395
36.564
36.725
36.878
37.021
37.151
37.269
37.372
37.462
37.539
37.604
37.658
37.701
37.735
37.762
37.781
37.793
37.798
37.797
37.79
37.779
37.764
37.745
37.725
37.703
37.68
37.654
37.626
37.595
37.561
37.523
37.481
37.435
37.385
37.331
37.274
37.215
37.152
37.088
37.021
36.954
36.886
36.816
36.745
36.672
36.598
36.522
36.446
36.37
36.296
36.226
36.161
36.101
36.047
35.999
35.957
35.92
35.887
35.858
35.831
35.806
35.782
35.76
35.738
35.718
35.7
35.686
35.674
35.664
35.658
35.653
35.648
35.644
35.639
35.632
35.623
35.612
35.598
35.581
35.561
35.54
35.518
35.497
35.475
35.455
35.434
35.413
35.391
35.367
35.34
35.31
35.277
35.241
35.202
35.161
35.119
35.077
35.033
34.988
34.942
34.896
34.849
34.803
34.757
34.712
34.669
34.628
34.591
34.557
34.526
34.498
34.474
34.453
34.434
34.417
34.401
34.385
34.367
34.347
34.325
34.299
34.27
34.237
34.201
34.161
34.119
34.075
34.03
33.986
33.942
33.9
33.859
33.821
33.785
33.753
33.724
33.698
33.675
33.654
33.637
33.621
33.607
33.595
33.584
33.573
33.563
33.553
33.543
33.532
33.522
33.511
33.499
33.486
33.474
33.461
33.45
33.44
33.434
33.432
33.436
33.447
33.467
33.495
33.532
33.579
33.636
33.702
33.779
33.867
33.967
34.078
34.2
34.332
34.474
34.626
34.786
34.955
35.129
35.307
35.486
35.665
35.843
36.017
36.186
36.348
36.501
36.645
36.778
36.898
37.007
37.104
37.19
37.266
37.331
37.386
37.43
37.465
37.492
37.51
37.522
37.526
37.526
37.521
37.512
37.499
37.483
37.465
37.443
37.419
37.392
37.363
37.331
37.296
37.26
37.221
37.18
37.136
37.091
37.044
36.996
36.944
36.888
36.828
36.766
36.7
36.633
36.564
36.494
36.425
36.356
36.288
36.223
36.161
36.103
36.048
35.996
35.947
35.899
35.853
35.81
35.77
35.734
35.702
35.674
35.65
35.63
35.615
35.603
35.595
35.589
35.585
35.58
35.575
35.566
35.554
35.539
35.521
35.5
35.477
35.453
35.427
35.401
35.375
35.351
35.327
35.305
35.282
35.26
35.236
35.211
35.183
35.153
35.121
35.087
35.051
35.015
34.977
34.941
34.905
34.871
34.838
34.808
34.779
34.751
34.723
34.692
34.66
34.624
34.586
34.544
34.501
34.455
34.409
34.363
34.317
34.275
34.236
34.201
34.17
34.143
34.119
34.096
34.074
34.051
34.027
34.0
33.971
33.94
33.908
33.874
33.841
33.81
33.782
33.756
33.735
33.717
33.701
33.687
33.673
33.659
33.643
33.625
33.604
33.581
33.556
33.529
33.502
33.477
33.454
33.433
33.416
33.401
33.389
33.379
33.371
33.362
33.354
33.346
33.337
33.326
33.314
33.3
33.285
33.269
33.253
33.237
33.225
33.218
33.217
33.222
33.234
33.252
33.275
33.304
33.338
33.377
33.421
33.47
33.525
33.586
33.654
33.731
33.818
33.916
34.026
34.147
34.281
34.425
34.577
34.736
34.899
35.063
35.226
35.385
35.538
35.685
35.826
35.959
36.086
36.206
36.32
36.427
36.527
36.62
36.703
36.777
36.84
36.892
36.934
36.965
36.987
37.001
37.008
37.011
37.01
37.008
37.003
36.998
36.993
36.988
36.983
36.976
36.969
36.96
36.948
36.935
36.92
36.904
36.887
36.869
36.848
36.823
36.794
36.759
36.72
36.675
36.624
36.57
36.511
36.449
36.386
36.322
36.259
36.197
36.137
36.08
36.024
35.971
35.921
35.875
35.834
35.795
35.759
35.725
35.693
35.663
35.636
35.612
35.591
35.573
35.559
35.548
35.538
35.531
35.524
35.517
35.511
35.504
35.495
35.485
35.472
35.458
35.442
35.423
35.403
35.381
35.358
35.333
35.308
35.282
35.257
35.232
35.207
35.182
35.156
35.129
35.1
35.07
35.038
35.004
34.968
34.93
34.89
34.849
34.809
34.769
34.731
34.694
34.66
34.627
34.597
34.568
34.541
34.514
34.487
34.46
34.432
34.402
34.371
34.338
34.303
34.268
34.232
34.195
34.157
34.119
34.082
34.045
34.01
33.978
33.948
33.92
33.896
33.873
33.853
33.835
33.818
33.802
33.786
33.768
33.75
33.73
33.709
33.686
33.663
33.641
33.619
33.6
33.582
33.565
33.551
33.54
33.531
33.524
33.517
33.51
33.502
33.493
33.483
33.471
33.459
33.446
33.432
33.419
33.405
33.391
33.376
33.362
33.348
33.335
33.322
33.31
33.297
33.283
33.268
33.252
33.235
33.217
33.199
33.181
33.162
33.146
33.133
33.125
33.124
33.131
33.146
33.17
33.205
33.252
33.31
33.381
33.464
33.559
33.664
33.779
33.9
34.029
34.163
34.301
34.441
34.584
34.728
34.872
35.016
35.16
35.304
35.446
35.584
35.718
35.846
35.967
36.078
36.18
36.27
36.35
36.418
36.478
36.529
36.572
36.609
36.64
36.664
36.683
36.697
36.706
36.711
36.711
36.708
36.701
36.691
36.68
36.669
36.657
36.644
36.628
36.61
36.59
36.568
36.544
36.52
36.495
36.469
36.441
36.412
36.382
36.35
36.317
36.284
36.249
36.214
36.178
36.141
36.103
36.063
36.023
35.983
35.942
35.902
35.862
35.823
35.785
35.746
35.706
35.666
35.627
35.589
35.553
35.518
35.486
35.456
35.429
35.406
35.386
35.368
35.353
35.34
35.329
35.317
35.307
35.296
35.285
35.274
35.263
35.251
35.238
35.224
35.209
35.195
35.18
35.165
35.149
35.132
35.114
35.094
35.074
35.052
35.03
35.007
34.982
34.957
34.929
34.901
34.872
34.843
34.813
34.783
34.752
34.72
34.688
34.655
34.622
34.589
34.556
34.522
34.487
34.453
34.418
34.384
34.351
34.32
34.291
34.262
34.234
34.207
34.182
34.158
34.136
34.114
34.094
34.073
34.053
34.032
34.011
33.989
33.967
33.945
33.922
33.899
33.877
33.854
33.833
33.812
33.792
33.774
33.756
33.738
33.72
33.703
33.686
33.669
33.652
33.637
33.623
33.612
33.602
33.595
33.591
33.587
33.586
33.585
33.583
33.581
33.578
33.573
33.565
33.556
33.544
33.532
33.519
33.505
33.493
33.481
33.47
33.46
33.452
33.444
33.436
33.428
33.42
33.411
33.401
33.391
33.382
33.376
33.374
33.377
33.386
33.404
33.43
33.466
33.513
33.572
33.642
33.724
33.816
33.917
34.026
34.142
34.264
34.39
34.518
34.648
34.78
34.911
35.042
35.171
35.299
35.424
35.546
35.663
35.773
35.876
35.97
36.054
36.127
36.19
36.243
36.286
36.321
36.35
36.372
36.39
36.405
36.417
36.427
36.436
36.444
36.45
36.453
36.452
36.447
36.438
36.424
36.408
36.388
36.367
36.345
36.323
36.301
36.279
36.257
36.234
36.209
36.181
36.149
36.114
36.076
36.033
35.988
35.94
35.891
35.842
35.795
35.75
35.706
35.664
35.624
35.587
35.551
35.515
35.48
35.445
35.409
35.373
35.337
35.302
35.271
35.243
35.22
35.202
35.19
35.184
35.183
35.185
35.191
35.197
35.202
35.205
35.205
35.202
35.196
35.186
35.173
35.16
35.146
35.132
35.119
35.108
35.096
35.083
35.069
35.053
35.035
35.017
34.999
34.98
34.96
34.94
34.92
34.899
34.878
34.857
34.837
34.816
34.795
34.774
34.753
34.732
34.709
34.684
34.658
34.629
34.599
34.567
34.536
34.505
34.476
34.448
34.424
34.402
34.383
34.368
34.355
34.344
34.333
34.322
34.308
34.292
34.273
34.25
34.223
34.193
34.159
34.121
34.082
34.043
34.003
33.966
33.931
33.898
33.869
33.843
33.82
33.799
33.782
33.766
33.751
33.738
33.726
33.715
33.704
33.695
33.686
33.679
33.671
33.663
33.655
33.648
33.64
33.632
33.624
33.616
33.607
33.596
33.583
33.567
33.548
33.526
33.501
33.472
33.44
33.406
33.37
33.335
33.3
33.269
33.242
33.22
33.204
33.196
33.196
33.205
33.224
33.251
33.287
33.334
33.39
33.457
33.534
33.622
33.72
33.83
33.951
34.081
34.22
34.368
34.521
34.68
34.841
35.002
35.16
35.315
35.464
35.605
35.737
35.86
35.975
36.081
36.179
36.268
36.35
36.425
36.493
36.554
36.607
36.653
36.692
36.722
36.743
36.757
36.763
36.764
36.76
36.754
36.746
36.737
36.729
36.722
36.715
36.708
36.701
36.693
36.683
36.672
36.658
36.642
36.623
36.6
36.575
36.548
36.52
36.491
36.462
36.433
36.404
36.373
36.342
36.308
36.274
36.237
36.199
36.16
36.119
36.078
36.037
35.997
35.959
35.925
35.895
35.867
35.842
35.819
35.796
35.773
35.75
35.727
35.704
35.681
35.659
35.639
35.621
35.605
35.592
35.581
35.573
35.566
35.56
35.555
35.549
35.541
35.531
35.518
35.501
35.48
35.456
35.43
35.403
35.374
35.347
35.32
35.295
35.272
35.25
35.229
35.206
35.182
35.155
35.125
35.091
35.053
35.011
34.966
34.92
34.874
34.83
34.79
34.753
34.721
34.693
34.669
34.647
34.627
34.608
34.587
34.564
34.539
34.51
34.477
34.441
34.403
34.363
34.323
34.283
34.245
34.209
34.177
34.148
34.122
34.099
34.079
34.06
34.042
34.024
34.005
33.986
33.965
33.942
33.918
33.893
33.869
33.846
33.825
33.807
33.793
33.782
33.774
33.77
33.767
33.765
33.762
33.76
33.755
33.75
33.742
33.731
33.718
33.703
33.685
33.666
33.646
33.625
33.605
33.585
33.568
33.553
33.54
33.53
33.523
33.518
33.515
33.513
33.512
33.509
33.505
33.498
33.489
33.478
33.464
33.448
33.431
33.412
33.393
33.375
33.36
33.347
33.34
33.338
33.343
33.355
33.375
33.402
33.437
33.48
33.53
33.588
33.653
33.725
33.806
33.895
33.994
34.104
34.225
34.356
34.497
34.647
34.804
34.967
35.132
35.297
35.461
35.619
35.771
35.915
36.048
36.172
36.286
36.39
36.486
36.574
36.654
36.729
36.797
36.86
36.916
36.966
37.01
37.047
37.076
37.098
37.113
37.122
37.126
37.127
37.125
37.121
37.115
37.109
37.101
37.092
37.08
37.068
37.053
37.037
37.02
37.002
36.982
36.961
36.939
36.917
36.894
36.872
36.849
36.824
36.798
36.769
36.737
36.702
36.664
36.623
36.58
36.534
36.487
36.439
36.392
36.346
36.301
36.258
36.218
36.179
36.143
36.108
36.075
36.043
36.012
35.982
35.954
35.928
35.904
35.881
35.86
35.841
35.824
35.811
35.801
35.795
35.79
35.786
35.78
35.771
35.759
35.743
35.723
35.7
35.675
35.647
35.618
35.588
35.559
35.531
35.505
35.48
35.455
35.429
35.402
35.373
35.341
35.307
35.27
35.231
35.19
35.149
35.108
35.068
35.03
34.995
34.962
34.931
34.902
34.875
34.848
34.822
34.795
34.767
34.736
34.702
34.666
34.628
34.588
34.548
34.509
34.473
34.44
34.409
34.383
34.36
34.34
34.322
34.304
34.285
34.264
34.24
34.212
34.181
34.149
34.115
34.081
34.048
34.015
33.984
33.955
33.929
33.907
33.889
33.874
33.862
33.852
33.841
33.831
33.819
33.806
33.791
33.773
33.751
33.727
33.701
33.675
33.649
33.626
33.606
33.589
33.577
33.568
33.563
33.561
33.561
33.563
33.565
33.566
33.566
33.564
33.558
33.549
33.537
33.522
33.504
33.484
33.462
33.439
33.416
33.396
33.377
33.36
33.346
33.335
33.325
33.316
33.309
33.302
33.295
33.288
33.282
33.276
33.272
33.27
33.271
33.278
33.291
33.311
33.342
33.383
33.438
33.505
33.587
33.683
33.792
33.913
34.046
34.189
34.339
34.493
34.651
34.809
34.965
35.12
35.272
35.42
35.566
35.707
35.839
35.961
36.072
36.172
36.264
36.349
36.428
36.502
36.571
36.637
36.699
36.757
36.812
36.862
36.91
36.954
36.994
37.031
37.064
37.094
37.118
37.137
37.15
37.157
37.157
37.15
37.137
37.117
37.093
37.065
37.036
37.006
36.975
36.945
36.916
36.886
36.856
36.824
36.791
36.756
36.719
36.681
36.64
36.598
36.555
36.512
36.47
36.428
36.386
36.346
36.306
36.267
36.228
36.188
36.146
36.104
36.06
36.017
35.975
35.935
35.899
35.867
35.84
35.818
35.8
35.788
35.778
35.771
35.765
35.758
35.75
35.741
35.731
35.719
35.706
35.69
35.674
35.658
35.64
35.622
35.604
35.587
35.57
35.552
35.533
35.514
35.493
35.471
35.449
35.431
35.416
35.404
35.395
35.385
35.373
35.357
35.335
35.307
35.272
35.232
35.186
35.136
35.083
35.029
34.974
34.919
34.867
34.817
34.77
34.727
34.688
34.653
34.62
34.59
34.561
34.534
34.508
34.484
34.461
34.437
34.414
34.391
34.366
34.341
34.314
34.285
34.254
34.221
34.188
34.152
34.117
34.081
34.045
34.011
33.979
33.949
33.922
33.899
33.879
33.862
33.848
33.836
33.825
33.814
33.803
33.791
33.777
33.762
33.744
33.725
33.705
33.684
33.664
33.646
33.628
33.612
33.597
33.585
33.575
33.567
33.561
33.557
33.554
33.551
33.546
33.538
33.529
33.517
33.503
33.488
33.471
33.455
33.44
33.425
33.413
33.403
33.396
33.393
33.391
33.392
33.397
33.406
33.418
33.431
33.443
33.452
33.456
33.453
33.444
33.427
33.406
33.381
33.354
33.328
33.304
33.284
33.27
33.264
33.268
33.281
33.307
33.346
33.398
33.462
33.54
33.63
33.733
33.847
33.97
34.102
34.24
34.385
34.536
34.691
34.851
35.013
35.176
35.338
35.497
35.652
35.803
35.947
36.084
36.211
36.328
36.433
36.526
36.607
36.678
36.74
36.794
36.841
36.883
36.921
36.953
36.981
37.004
37.022
37.035
37.043
37.045
37.042
37.035
37.024
37.011
36.996
36.982
36.967
36.952
36.938
36.923
36.906
36.888
36.867
36.844
36.818
36.789
36.756
36.721
36.682
36.642
36.601
36.559
36.517
36.476
36.434
36.393
36.352
36.31
36.268
36.225
36.18
36.135
36.087
36.039
35.992
35.946
35.905
35.87
35.847
35.839
35.845
35.861
35.884
35.91
35.936
35.96
35.977
35.988
35.991
35.987
35.975
35.957
35.935
35.91
35.884
35.858
35.832
35.808
35.784
35.76
35.735
35.708
35.676
35.639
35.595
35.544
35.489
35.43
35.369
35.311
35.255
35.204
35.157
35.114
35.075
35.039
35.005
34.973
34.94
34.907
34.872
34.836
34.799
34.76
34.721
34.681
34.641
34.602
34.564
34.53
34.498
34.47
34.445
34.422
34.4
34.378
34.356
34.333
34.307
34.279
34.248
34.215
34.179
34.141
34.102
34.062
34.023
33.986
33.951
33.92
33.892
33.868
33.847
33.829
33.815
33.804
33.797
33.791
33.787
33.784
33.782
33.78
33.778
33.776
33.774
33.774
33.774
33.775
33.777
33.779
33.78
33.78
33.779
33.776
33.772
33.766
33.759
33.749
33.738
33.727
33.715
33.704
33.693
33.682
33.674
33.666
33.66
33.656
33.653
33.654
33.656
33.66
33.665
33.673
33.682
33.695
33.712
33.735
33.765
33.803
33.85
33.908
33.976
34.057
34.149
34.253
34.366
34.488
34.618
34.756
34.901
35.052
35.208
35.366
35.524
35.679
35.83
35.975
36.114
36.245
36.367
36.479
36.581
36.674
36.758
36.833
36.902
36.963
37.018
37.066
37.107
37.14
37.165
37.183
37.193
37.197
37.195
37.189
37.18
37.168
37.156
37.142
37.128
37.114
37.1
37.084
37.067
37.046
37.022
36.992
36.958
36.921
36.882
36.841
36.8
36.758
36.718
36.677
36.637
36.595
36.553
36.507
36.458
36.405
36.348
36.287
36.224
36.159
36.096
36.034
35.977
35.925
35.88
35.841
35.809
35.784
35.763
35.746
35.733
35.72
35.709
35.697
35.686
35.675
35.664
35.652
35.641
35.63
35.618
35.608
35.598
35.589
35.581
35.572
35.563
35.553
35.542
35.528
35.512
35.493
35.472
35.447
35.418
35.387
35.354
35.319
35.283
35.249
35.217
35.188
35.161
35.139
35.119
35.102
35.088
35.074
35.06
35.045
35.027
35.005
34.98
34.949
34.914
34.875
34.832
34.786
34.739
34.691
34.645
34.602
34.563
34.527
34.494
34.465
34.438
34.412
34.387
34.361
34.333
34.302
34.269
34.234
34.196
34.157
34.117
34.078
34.039
34.003
33.969
33.938
33.91
33.885
33.864
33.847
33.832
33.821
33.812
33.804
33.797
33.79
33.779
33.766
33.749
33.727
33.702
33.673
33.642
33.611
33.581
33.554
33.53
33.51
33.495
33.485
33.48
33.478
33.481
33.486
33.493
33.501
33.508
33.513
33.516
33.516
33.512
33.506
33.496
33.483
33.467
33.449
33.43
33.412
33.395
33.382
33.374
33.373
33.381
33.399
33.428
33.471
33.527
33.598
33.683
33.781
33.892
34.014
34.148
34.29
34.441
34.598
34.761
34.929
35.1
35.273
35.446
35.62
35.792
35.962
36.128
36.29
36.445
36.593
36.734
36.865
36.985
37.096
37.197
37.289
37.372
37.445
37.511
37.568
37.618
37.661
37.696
37.725
37.748
37.764
37.776
37.783
37.785
37.782
37.775
37.766
37.753
37.739
37.723
37.704
37.683
37.659
37.633
37.604
37.574
37.542
37.51
37.475
37.437
37.397
37.355
37.309
37.26
37.207
37.152
37.093
37.032
36.97
36.906
36.842
36.78
36.719
36.661
36.605
36.552
36.501
36.453
36.408
36.365
36.325
36.288
36.252
36.219
36.188
36.161
36.136
36.115
36.096
36.079
36.063
36.049
36.036
36.024
36.013
36.002
35.99
35.979
35.967
35.955
35.943
35.931
35.919
35.908
35.896
35.884
35.872
35.858
35.843
35.825
35.805
35.782
35.756
35.729
35.7
35.669
35.638
35.606
35.573
35.54
35.508
35.475
35.442
35.408
35.374
35.338
35.301
35.262
35.222
35.181
35.138
35.096
35.055
35.015
34.976
34.938
34.899
34.861
34.822
34.783
34.744
34.706
34.669
34.633
34.597
34.561
34.526
34.491
34.457
34.425
34.393
34.361
34.33
34.298
34.268
34.238
34.209
34.181
34.154
34.128
34.104
34.08
34.059
34.04
34.022
34.005
33.99
33.976
33.962
33.949
33.937
33.924
33.912
33.899
33.887
33.874
33.862
33.849
33.837
33.825
33.813
33.801
33.79
33.778
33.766
33.754
33.742
33.729
33.716
33.704
33.69
33.676
33.662
33.649
33.636
33.624
33.614
33.607
33.603
33.603
33.607
33.615
33.628
33.648
33.674
33.71
33.757
33.815
33.885
33.969
34.067
34.18
34.309
34.452
34.608
34.775
34.952
35.135
35.323
35.514
35.705
35.895
36.083
36.266
36.443
36.613
36.775
36.93
37.076
37.214
37.343
37.462
37.572
37.671
37.759
37.836
37.901
37.956
38.0
38.035
38.061
38.081
38.094
38.102
38.106
38.105
38.101
38.093
38.081
38.065
38.046
38.023
37.997
37.968
37.938
37.905
37.872
37.837
37.8
37.763
37.724
37.683
37.64
37.595
37.547
37.497
37.443
37.387
37.329
37.27
37.212
37.153
37.094
37.037
36.98
36.925
36.872
36.82
36.772
36.725
36.679
36.633
36.586
36.538
36.491
36.445
36.4
36.36
36.324
36.292
36.267
36.247
36.233
36.222
36.214
36.207
36.2
36.19
36.179
36.167
36.152
36.138
36.122
36.106
36.088
36.07
36.051
36.032
36.013
35.995
35.978
35.96
35.941
35.919
35.896
35.87
35.842
35.811
35.776
35.739
35.698
35.655
35.61
35.565
35.521
35.479
35.438
35.399
35.362
35.326
35.291
35.257
35.224
35.189
35.153
35.114
35.074
35.032
34.99
34.949
34.909
34.871
34.834
34.798
34.764
34.73
34.698
34.665
34.633
34.599
34.565
34.529
34.491
34.452
34.411
34.369
34.325
34.28
34.235
34.192
34.152
34.115
34.082
34.054
34.031
34.013
34.0
33.991
33.986
33.982
33.979
33.974
33.968
33.959
33.947
33.931
33.911
33.888
33.862
33.834
33.806
33.779
33.753
33.728
33.706
33.684
33.664
33.644
33.626
33.609
33.595
33.583
33.573
33.565
33.561
33.559
33.56
33.564
33.572
33.585
33.604
33.63
33.664
33.708
33.764
33.832
33.913
34.009
34.118
34.243
34.38
34.529
34.688
34.857
35.033
35.214
35.399
35.585
35.77
35.953
36.132
36.304
36.471
36.629
36.78
36.921
37.053
37.174
37.286
37.387
37.479
37.56
37.631
37.693
37.746
37.79
37.825
37.851
37.87
37.881
37.886
37.886
37.88
37.87
37.856
37.838
37.816
37.789
37.757
37.723
37.686
37.647
37.607
37.565
37.524
37.483
37.444
37.407
37.374
37.344
37.316
37.288
37.26
37.229
37.196
37.16
37.12
37.077
37.03
36.979
36.924
36.867
36.809
36.75
36.693
36.636
36.58
36.524
36.469
36.415
36.363
36.313
36.265
36.221
36.179
36.141
36.108
36.079
36.056
36.039
36.026
36.017
36.011
36.006
36.002
36.0
35.998
35.996
35.994
35.99
35.984
35.976
35.965
35.953
35.94
35.926
35.911
35.894
35.874
35.852
35.828
35.802
35.773
35.741
35.704
35.662
35.617
35.568
35.516
35.463
35.409
35.354
35.299
35.243
35.187
35.132
35.077
35.024
34.971
34.919
34.873
34.835
34.805
34.781
34.762
34.744
34.724
34.701
34.674
34.644
34.611
34.575
34.537
34.499
34.46
34.42
34.381
34.343
34.306
34.271
34.237
34.205
34.174
34.145
34.117
34.09
34.064
34.039
34.015
33.991
33.967
