Trial 1:0back
35.571
35.545
35.521
35.498
35.476
35.455
35.435
35.416
35.399
35.382
35.366
35.352
35.339
35.327
35.318
35.312
35.307
35.303
35.299
35.294
35.29
35.285
35.281
35.277
35.274
35.273
35.273
35.275
35.277
35.28
35.282
35.283
35.283
35.282
35.279
35.274
35.266
35.256
35.244
35.231
35.218
35.203
35.188
35.173
35.157
35.141
35.126
35.111
35.097
35.084
35.072
35.062
35.053
35.045
35.037
35.028
35.019
35.01
35.002
34.994
34.986
34.977
34.969
34.96
34.95
34.938
34.923
34.907
34.889
34.87
34.851
34.834
34.818
34.804
34.792
34.781
34.771
34.761
34.751
34.74
34.73
34.722
34.716
34.714
34.718
34.727
34.742
34.764
34.795
34.835
34.885
34.945
35.015
35.093
35.18
35.273
35.372
35.475
35.579
35.683
35.783
35.88
35.972
36.057
36.135
36.203
36.262
36.312
36.351
36.38
36.398
36.407
36.406
36.399
36.386
36.37
36.353
36.335
36.319
36.304
36.29
36.278
36.267
36.257
36.247
36.239
36.231
36.223
36.214
36.205
36.194
36.182
36.169
36.154
36.138
36.121
36.104
36.087
36.071
36.056
36.041
36.028
36.017
36.006
35.998
35.99
35.983
35.974
35.965
35.955
35.942
35.927
35.911
35.895
35.885
35.885
35.896
35.915
35.938
35.963
35.985
36.003
36.017
36.023
36.023
36.015
36.002
35.984
35.961
35.935
35.906
35.874
35.842
35.811
35.781
35.754
35.73
35.708
35.688
35.672
35.66
35.65
35.642
35.636
35.629
35.622
35.614
35.604
35.592
35.578
35.561
35.541
35.518
35.493
35.467
35.442
35.417
35.393
35.372
35.353
35.337
35.323
35.311
35.301
35.29
35.279
35.267
35.254
35.239
35.225
35.21
35.195
35.179
35.162
35.145
35.128
35.112
35.098
35.085
35.074
35.063
35.052
35.041
35.029
35.016
35.002
34.989
34.976
34.963
34.951
34.94
34.932
34.925
34.92
34.915
34.911
34.907
34.902
34.896
34.89
34.883
34.877
34.871
34.866
34.861
34.856
34.849
34.839
34.827
34.814
34.799
34.784
34.77
34.758
34.747
34.739
34.734
34.73
34.726
34.723
34.719
34.716
34.711
34.706
34.699
34.69
34.68
34.668
34.656
34.645
34.634
34.624
34.615
34.606
34.599
34.593
34.587
34.581
34.575
34.568
34.561
34.556
34.552
34.551
34.556
34.568
34.589
34.62
34.66
34.711
34.772
34.842
34.92
35.006
35.096
35.19
35.285
35.38
35.472
35.562
35.646
35.725
35.797
35.862
35.92
35.969
36.01
36.041
36.062
36.076
36.082
36.083
36.08
36.073
36.064
36.053
36.042
36.029
36.016
36.004
35.991
35.978
35.964
35.949
35.933
35.917
35.902
35.887
35.874
35.862
35.851
35.841
35.833
35.826
35.82
35.816
35.813
35.81
35.806
35.802
35.798
35.794
35.789
35.782
35.774
35.763
35.75
35.734
35.716
35.696
35.675
35.654
35.633
35.614
35.596
35.579
35.564
35.55
35.537
35.525
35.513
35.501
35.489
35.477
35.465
35.454
35.445
35.438
35.433
35.43
35.43
35.432
35.435
35.439
35.442
35.446
35.451
35.456
35.46
35.463
35.464
35.463
35.458
35.452
35.443
35.433
35.421
35.408
35.396
35.383
35.371
35.36
35.349
35.339
35.327
35.315
35.302
35.287
35.271
35.252
35.233
35.212
35.191
35.172
35.154
35.138
35.125
35.114
35.105
35.097
35.089
35.08
35.071
35.06
35.048
35.035
35.022
35.01
35.0
34.99
34.981
34.971
34.96
34.948
34.935
34.919
34.902
34.885
34.867
34.848
34.829
34.811
34.793
34.775
34.758
34.744
34.732
34.722
34.714
34.71
34.709
34.711
34.714
34.717
34.72
34.721
34.719
34.714
34.706
34.697
34.687
34.678
34.669
34.661
34.654
34.649
34.646
34.644
34.645
34.649
34.655
34.663
34.671
34.677
34.68
34.68
34.675
34.667
34.654
34.637
34.616
34.593
34.57
34.548
34.528
34.511
34.497
34.487
34.481
34.476
34.472
34.469
34.466
34.462
34.458
34.453
34.449
34.449
34.452
34.462
34.48
34.508
34.546
34.595
34.655
34.726
34.806
34.893
34.986
35.082
35.179
35.275
35.368
35.456
35.538
35.612
35.678
35.737
35.788
35.832
35.868
35.897
35.92
35.937
35.948
35.954
35.956
35.954
35.949
35.942
35.933
35.923
35.913
35.902
35.891
35.88
35.871
35.861
35.852
35.842
35.834
35.826
35.82
35.813
35.806
35.798
35.787
35.774
35.759
35.742
35.722
35.699
35.674
35.648
35.622
35.598
35.577
35.558
35.54
35.519
35.492
35.459
35.422
35.382
35.341
35.303
35.268
35.238
35.216
35.2
35.192
35.192
35.199
35.212
35.232
35.257
35.285
35.315
35.344
35.373
35.399
35.42
35.435
35.446
35.451
35.451
35.446
35.436
35.422
35.406
35.389
35.373
35.359
35.347
35.337
35.329
35.321
35.312
35.302
35.292
35.281
35.27
35.259
35.246
35.233
35.22
35.208
35.197
35.188
35.181
35.175
35.171
35.168
35.165
35.163
35.158
35.152
35.143
35.132
35.119
35.103
35.085
35.065
35.043
35.021
34.998
34.976
34.956
34.939
34.925
34.914
34.905
34.899
34.894
34.889
34.883
34.876
34.869
34.859
34.849
34.836
34.824
34.812
34.801
34.792
34.786
34.782
34.78
34.78
34.78
34.782
34.783
34.782
34.781
34.778
34.774
34.768
34.76
34.751
34.741
34.731
34.722
34.714
34.708
34.704
34.703
34.703
34.705
34.707
34.708
34.708
34.705
34.7
34.694
34.685
34.674
34.661
34.647
34.632
34.618
34.606
34.596
34.588
34.581
34.577
34.574
34.573
34.574
34.575
34.577
34.577
34.577
34.573
34.568
34.562
34.556
34.551
34.548
34.547
34.549
34.552
34.558
34.566
34.576
34.589
34.605
34.625
34.65
34.68
34.718
34.763
34.816
34.876
34.944
35.019
35.1
35.185
35.274
35.362
35.449
35.531
35.606
35.675
35.734
35.784
35.825
35.855
35.875
35.887
35.892
35.891
35.886
35.878
35.869
35.861
35.853
35.847
35.843
35.841
35.839
35.837
35.834
35.829
35.821
35.81
35.795
35.777
35.756
35.732
35.707
35.681
35.655
35.628
35.603
35.579
35.556
35.534
35.514
35.495
35.478
35.463
35.45
35.438
35.428
35.418
35.409
35.4
35.391
35.381
35.372
35.363
35.354
35.345
35.338
35.333
35.328
35.325
35.324
35.325
35.329
35.336
35.346
35.359
35.374
35.389
35.403
35.414
35.422
35.427
35.428
35.426
35.42
35.411
35.401
35.389
35.377
35.365
35.354
35.344
35.333
35.323
35.313
35.303
35.293
35.281
35.269
35.255
35.241
35.226
35.21
35.195
35.18
35.167
35.155
35.146
35.138
35.132
35.127
35.121
35.114
35.105
35.092
35.076
35.058
35.04
35.021
35.001
34.98
34.959
34.937
34.917
34.899
34.885
34.875
34.869
34.865
34.862
34.86
34.859
34.859
34.859
34.86
34.863
34.867
34.873
34.881
34.891
34.902
34.913
34.925
34.937
34.949
34.958
34.963
34.965
34.963
34.957
34.949
34.937
34.925
34.912
34.899
34.888
34.878
34.87
34.864
34.859
34.855
34.85
34.846
34.839
34.829
34.817
34.801
34.782
34.763
34.743
34.724
34.708
34.695
34.684
34.676
34.671
34.667
34.666
34.665
34.664
34.663
34.662
34.659
34.655
34.651
34.645
34.64
34.636
34.632
34.628
34.625
34.623
34.62
34.617
34.614
34.612
34.61
34.607
34.605
34.603
34.601
34.601
34.601
34.605
34.613
34.626
34.646
34.674
34.711
34.757
34.813
34.878
34.952
35.034
35.123
35.218
35.315
35.412
35.506
35.595
35.678
35.754
35.822
35.882
35.933
35.975
36.007
36.03
36.045
36.053
36.054
36.051
36.045
36.036
36.026
36.015
36.004
35.992
35.979
35.965
35.95
35.935
35.92
35.905
35.891
35.878
35.864
35.851
35.839
35.829
35.82
35.813
35.808
35.804
35.801
35.799
35.795
35.791
35.783
35.774
35.764
35.751
35.737
35.722
35.706
35.69
35.675
35.662
35.65
35.641
35.634
35.629
35.627
35.626
35.626
35.625
35.624
35.621
35.618
35.615
35.611
35.607
35.603
35.597
35.591
35.585
35.579
35.573
35.568
35.562
35.557
35.553
35.55
35.548
35.547
35.545
35.543
35.541
35.537
35.532
35.527
35.52
35.513
35.505
35.498
35.492
35.486
35.479
35.472
35.463
35.453
35.442
35.43
35.417
35.404
35.391
35.377
35.361
35.344
35.327
35.31
35.294
35.28
35.268
35.258
35.251
35.246
35.242
35.238
35.235
35.231
35.227
35.222
35.215
35.207
35.198
35.188
35.177
35.165
35.155
35.144
35.135
35.127
35.121
35.117
35.114
35.112
35.111
35.109
35.106
35.101
35.096
35.089
35.082
35.072
35.062
35.052
35.043
35.036
35.03
35.026
35.022
35.018
35.012
35.004
34.996
34.985
34.973
34.959
34.944
34.928
34.914
34.901
34.891
34.883
34.878
34.877
34.878
34.882
34.887
34.892
34.896
34.898
34.9
34.899
34.896
34.891
34.882
34.87
34.853
34.834
34.813
34.792
34.772
34.755
34.742
34.734
34.731
34.732
34.735
34.74
34.747
34.754
34.762
34.769
34.773
34.777
34.778
34.779
34.779
34.78
34.782
34.783
34.785
34.788
34.793
34.8
34.809
34.821
34.838
34.862
34.891
34.929
34.974
35.028
35.091
35.162
35.241
35.326
35.416
35.51
35.604
35.696
35.783
35.862
35.933
35.994
36.045
36.086
36.119
36.145
36.163
36.175
36.183
36.185
36.183
36.179
36.171
36.161
36.148
36.134
36.119
36.103
36.088
36.074
36.061
36.049
36.038
36.028
36.021
36.014
36.01
36.006
36.003
36.0
35.997
35.992
35.985
35.976
35.963
35.947
35.927
35.904
35.879
35.854
35.829
35.805
35.781
35.757
35.733
35.71
35.689
35.67
35.654
35.639
35.627
35.617
35.609
35.604
35.601
35.6
35.601
35.604
35.608
35.613
35.62
35.626
35.631
35.635
35.639
35.643
35.646
35.649
35.653
35.656
35.66
35.664
35.668
35.672
35.675
35.677
35.678
35.677
35.675
35.668
35.658
35.644
35.627
35.607
35.586
35.564
35.541
35.52
35.501
35.484
35.47
35.458
35.448
35.44
35.432
35.425
35.416
35.406
35.393
35.378
35.362
35.345
35.328
35.313
35.299
35.287
35.278
35.272
35.268
35.266
35.267
35.269
35.273
35.276
35.279
35.279
35.276
35.271
35.263
35.253
35.241
35.228
35.214
35.2
35.187
35.174
35.162
35.151
35.14
35.129
35.117
35.105
35.094
35.082
35.07
35.058
35.047
35.037
35.027
35.019
35.013
35.008
35.005
35.004
35.003
35.002
35.0
34.999
34.996
34.992
34.987
34.981
34.973
34.964
34.953
34.942
34.929
34.917
34.905
34.894
34.884
34.877
34.873
34.871
34.872
34.873
34.875
34.877
34.877
34.877
34.875
34.873
34.87
34.867
34.865
34.863
34.862
34.862
34.862
34.861
34.859
34.857
34.854
34.85
34.844
34.837
34.829
34.821
34.813
34.808
34.806
34.811
34.824
34.845
34.876
34.917
34.966
35.024
35.09
35.164
35.243
35.325
35.41
35.494
35.577
35.658
35.737
35.813
35.884
35.951
36.012
36.067
36.117
36.161
36.197
36.226
36.247
36.262
36.27
36.272
36.269
36.26
36.248
36.232
36.215
36.198
36.181
36.166
36.152
36.14
36.13
36.123
36.117
36.113
36.11
36.109
36.109
36.109
36.108
36.107
36.103
36.098
36.09
36.08
36.066
36.05
36.032
36.012
35.991
35.968
35.944
35.918
35.892
35.866
35.842
35.82
35.801
35.784
35.77
35.759
35.75
35.743
35.738
35.736
35.737
35.74
35.746
35.754
35.764
35.775
35.787
35.798
35.809
35.819
35.829
35.836
35.842
35.847
35.85
35.85
35.849
35.846
35.841
35.834
35.825
35.815
35.804
35.793
35.782
35.772
35.763
35.756
35.75
35.746
35.741
35.735
35.728
35.719
35.707
35.693
35.677
35.66
35.642
35.623
35.605
35.588
35.571
35.557
35.544
35.533
35.524
35.517
35.512
35.509
35.505
35.5
35.493
35.483
35.469
35.454
35.438
35.421
35.404
35.388
35.373
35.359
35.347
35.336
35.326
35.317
35.308
35.297
35.286
35.274
35.261
35.246
35.23
35.215
35.2
35.186
35.174
35.163
35.153
35.145
35.138
35.133
35.129
35.124
35.12
35.114
35.107
35.1
35.092
35.083
35.073
35.064
35.055
35.049
35.045
35.043
35.042
35.042
35.044
35.048
35.055
35.063
35.072
35.079
35.085
35.089
35.09
35.089
35.085
35.079
35.072
35.063
35.054
35.046
35.038
35.031
35.024
35.019
35.013
35.007
34.999
34.989
34.977
34.964
34.95
34.935
34.92
34.906
34.893
34.881
34.871
34.862
34.855
34.847
34.839
34.83
34.82
34.811
34.803
34.796
34.792
34.791
34.794
34.802
34.817
34.841
34.875
34.92
34.978
35.046
35.126
35.214
35.311
35.413
35.519
35.626
35.732
35.834
35.931
36.021
36.104
36.179
36.245
36.303
36.354
36.397
36.432
36.461
36.483
36.499
36.509
36.514
36.514
36.509
36.501
36.489
36.473
36.456
36.436
36.415
36.393
36.371
36.349
36.33
36.313
36.301
36.293
36.289
36.288
36.288
36.29
36.294
36.298
36.303
36.307
36.312
36.315
36.317
36.317
36.316
36.311
36.304
36.296
36.288
36.279
36.271
36.265
36.259
36.254
36.251
36.246
36.242
36.235
36.228
36.219
36.21
36.201
36.191
36.18
36.169
36.158
36.15
36.142
36.136
36.131
36.128
36.125
36.125
36.125
36.125
36.126
36.126
36.125
36.124
36.121
36.118
36.115
36.112
36.11
36.107
36.104
36.099
36.092
36.085
36.077
36.068
36.058
36.045
36.03
36.013
35.993
35.971
35.947
35.921
35.893
35.865
35.837
35.812
35.79
35.772
35.759
35.75
35.745
35.744
35.746
35.749
35.753
35.755
35.756
35.753
35.748
35.738
35.724
35.707
35.686
35.663
35.638
35.613
35.588
35.567
35.548
35.532
35.519
35.509
35.501
35.495
35.49
35.486
35.482
35.477
35.472
35.466
35.459
35.451
35.443
35.434
35.425
35.417
35.41
35.403
35.396
35.39
35.384
35.379
35.373
35.367
35.36
35.353
35.345
35.337
35.328
35.318
35.306
35.293
35.277
35.262
35.247
35.233
35.222
35.211
35.203
35.195
35.19
35.186
35.184
35.185
35.187
35.189
35.19
35.189
35.185
35.178
35.168
35.156
35.143
35.129
35.116
35.104
35.091
35.079
35.067
35.054
35.04
35.026
35.012
34.996
34.981
34.966
34.952
34.94
34.931
34.925
34.923
34.924
34.929
34.938
34.951
34.967
34.987
35.011
35.042
35.079
35.123
35.174
35.232
35.298
35.371
35.451
35.539
35.632
35.731
35.832
35.934
36.034
36.13
36.22
36.301
36.373
36.434
36.485
36.525
36.556
36.576
36.589
36.594
36.594
36.59
36.583
36.574
36.565
36.557
36.549
36.543
36.537
36.533
36.529
36.526
36.523
36.522
36.52
36.519
36.517
36.514
36.511
36.506
36.501
36.495
36.488
36.481
36.474
36.467
36.46
36.452
36.444
36.437
36.429
36.422
36.413
36.403
36.391
36.375
36.356
36.334
36.309
36.284
36.259
36.235
36.212
36.192
36.175
36.162
36.151
36.144
36.14
36.139
36.141
36.144
36.149
36.154
36.159
36.164
36.167
36.167
36.165
36.16
36.154
36.147
36.14
36.134
36.129
36.126
36.126
36.127
36.13
36.133
36.135
36.135
36.134
36.13
36.125
36.116
36.104
36.089
36.07
36.05
36.028
36.005
35.983
35.962
35.944
35.926
35.91
35.896
35.883
35.87
35.857
35.843
35.826
35.807
35.786
35.763
35.739
35.714
35.69
35.666
35.644
35.624
35.606
35.59
35.576
35.564
35.553
35.544
35.535
35.526
35.517
35.506
35.493
35.478
35.462
35.445
35.428
35.411
35.396
35.382
35.371
35.361
35.35
35.335
35.317
35.298
35.278
35.259
35.241
35.225
35.211
35.201
35.194
35.192
35.194
35.2
35.209
35.22
35.231
35.243
35.253
35.262
35.268
35.27
35.269
35.265
35.257
35.246
35.231
35.214
35.195
35.175
35.156
35.138
35.12
35.103
35.087
35.073
35.059
35.047
35.036
35.026
35.017
35.008
34.999
34.989
34.977
34.964
34.949
34.93
34.91
34.888
34.867
34.847
34.83
34.817
34.81
34.809
34.816
34.831
34.853
34.881
34.916
34.957
35.006
35.062
35.126
35.199
35.28
35.369
35.466
35.569
35.677
35.788
35.899
36.008
36.113
36.214
36.307
36.393
36.471
36.54
36.6
36.651
36.693
36.727
36.754
36.775
36.789
36.8
36.806
36.811
36.813
36.814
36.812
36.808
36.803
36.796
36.789
36.782
36.773
36.764
36.755
36.745
36.735
36.725
36.716
36.709
36.702
36.696
36.691
36.687
36.683
36.68
36.678
36.676
36.676
36.675
36.674
36.672
36.667
36.659
36.648
36.634
36.615
36.593
36.57
36.545
36.521
36.497
36.475
36.454
36.435
36.419
36.406
36.396
36.389
36.385
36.383
36.383
36.383
36.383
36.382
36.379
36.375
36.371
36.367
36.362
36.358
36.354
36.349
36.345
36.34
36.335
36.328
36.321
36.313
36.304
36.294
36.282
36.269
36.253
36.235
36.215
36.195
36.175
36.155
36.135
36.117
36.1
36.086
36.075
36.065
36.057
36.05
36.043
36.036
36.029
36.019
36.006
35.991
35.971
35.949
35.924
35.898
35.869
35.839
35.808
35.776
35.746
35.717
35.69
35.666
35.644
35.625
35.61
35.596
35.586
35.578
35.571
35.565
35.558
35.551
35.543
35.533
35.522
35.511
35.5
35.488
35.478
35.467
35.456
35.445
35.433
35.422
35.41
35.399
35.388
35.377
35.365
35.353
35.341
35.328
35.316
35.303
35.289
35.275
35.262
35.249
35.236
35.224
35.212
35.201
35.19
35.181
35.172
35.163
35.154
35.145
35.134
35.123
35.11
35.098
35.085
35.073
35.061
35.048
35.035
35.021
35.007
34.994
34.98
34.968
34.956
34.945
34.935
34.926
34.917
34.908
34.899
34.889
34.878
34.865
34.851
34.833
34.813
34.791
34.768
34.746
34.726
34.71
34.698
34.694
34.699
34.715
34.743
34.783
34.835
34.9
34.975
35.062
35.158
35.263
35.373
35.488
35.605
35.724
35.843
35.96
36.075
36.184
36.287
36.382
36.467
36.542
36.605
36.656
36.696
36.725
36.743
36.752
36.754
36.75
36.742
36.731
36.719
36.707
36.696
36.686
36.678
36.67
36.664
36.657
36.652
36.646
36.641
36.636
36.633
36.63
36.629
36.628
36.628
36.627
36.625
36.621
36.617
36.612
36.607
36.602
36.599
36.597
36.598
36.601
36.607
36.614
36.623
36.631
36.639
36.643
36.642
36.637
36.626
36.611
36.592
36.57
36.549
36.527
36.507
36.489
36.474
36.46
36.449
36.439
36.43
36.422
36.415
36.408
36.403
36.399
36.396
36.394
36.394
36.395
36.396
36.399
36.403
36.406
36.41
36.414
36.42
36.427
36.435
36.443
36.448
36.45
36.446
36.436
36.418
36.394
36.364
36.329
36.291
36.252
36.213
36.174
36.135
36.096
36.056
36.015
35.973
35.93
35.888
35.846
35.806
35.768
35.734
35.703
35.676
35.651
35.63
35.613
35.599
35.587
35.576
35.566
35.555
35.543
35.53
35.516
35.501
35.485
35.469
35.454
35.442
35.431
35.423
35.416
35.412
35.409
35.407
35.405
35.403
35.4
35.395
35.389
35.382
35.374
35.366
35.357
35.349
35.342
35.337
35.334
35.333
35.333
35.335
35.338
35.34
35.342
35.341
35.336
35.326
35.311
35.291
35.268
35.242
35.214
35.185
35.155
35.126
35.099
35.073
35.049
35.027
35.006
34.985
34.965
34.944
34.924
34.907
34.893
34.881
34.872
34.864
34.856
34.847
34.838
34.828
34.818
34.808
34.798
34.787
34.775
34.762
34.748
34.734
34.72
34.707
34.694
34.683
34.673
34.663
34.655
34.647
34.64
34.634
34.629
34.626
34.626
34.631
34.642
34.661
34.69
34.73
34.783
34.849
34.928
35.018
35.118
35.225
35.337
35.451
35.564
35.674
35.78
35.88
35.974
36.061
36.14
36.212
36.276
36.332
36.381
36.423
36.457
36.485
36.505
36.518
36.525
36.524
36.518
36.506
36.49
36.471
36.45
36.428
36.407
36.387
36.368
36.352
36.339
36.33
36.323
36.319
36.316
36.314
36.312
36.308
36.303
36.295
36.286
36.275
36.263
36.25
36.235
36.218
36.2
36.183
36.166
36.15
36.135
36.122
36.111
36.103
36.096
36.092
36.09
36.088
36.087
36.087
36.087
36.087
36.087
36.086
36.083
36.079
36.075
36.07
36.066
36.061
36.056
36.05
36.043
36.036
36.029
36.022
36.015
36.009
36.005
36.0
35.996
35.992
35.988
35.984
35.982
35.979
35.977
35.973
35.969
35.961
35.951
35.938
35.922
35.902
35.879
35.855
35.829
35.804
35.78
35.757
35.737
35.72
35.704
35.69
35.677
35.663
35.647
35.628
35.604
35.577
35.546
35.513
35.477
35.442
35.407
35.374
35.343
35.316
35.292
35.272
35.255
35.241
35.227
35.212
35.197
35.18
35.161
35.14
35.118
35.096
35.074
35.053
35.034
35.018
35.004
34.993
34.984
34.976
34.969
34.962
34.955
34.947
34.94
34.933
34.927
34.921
34.915
34.91
34.905
34.9
34.895
34.89
34.885
34.879
34.871
34.861
34.849
34.833
34.815
