Trial 1:0back
40.286
40.736
41.129
41.463
41.738
41.956
42.119
42.23
42.293
42.314
42.297
42.247
42.169
42.069
41.95
41.816
41.673
41.524
41.373
41.223
41.075
40.929
40.787
40.646
40.508
40.372
40.237
40.106
39.977
39.85
39.727
39.608
39.491
39.377
39.266
39.158
39.053
38.951
38.851
38.752
38.654
38.557
38.46
38.363
38.266
38.168
38.071
37.974
37.876
37.777
37.678
37.581
37.487
37.397
37.314
37.239
37.173
37.118
37.075
37.043
37.022
37.011
37.009
37.013
37.022
37.034
37.047
37.06
37.071
37.08
37.088
37.093
37.095
37.095
37.091
37.083
37.07
37.051
37.027
36.996
36.959
36.915
36.865
36.809
36.746
36.677
36.604
36.527
36.447
36.363
36.277
36.189
36.1
36.01
35.919
35.828
35.736
35.646
35.556
35.466
35.377
35.288
35.201
35.115
35.03
34.947
34.867
34.789
34.712
34.637
34.563
34.491
34.418
34.345
34.27
34.195
34.12
34.044
33.97
33.897
33.827
33.76
33.695
33.633
33.573
33.516
33.462
33.41
33.361
33.315
33.271
33.23
33.192
33.156
33.12
33.085
33.049
33.012
32.974
32.934
32.892
32.849
32.805
32.761
32.717
32.675
32.634
32.595
32.557
32.521
32.485
32.452
32.42
32.392
32.367
32.347
32.33
32.316
32.305
32.294
32.283
32.272
32.261
32.249
32.239
32.228
32.219
32.209
32.2
32.191
32.181
32.171
32.159
32.147
32.133
32.118
32.101
32.082
32.061
32.037
32.011
31.985
31.959
31.936
31.918
31.906
31.903
31.913
31.94
31.988
32.066
32.181
32.341
32.553
32.822
33.152
33.544
33.995
34.502
35.058
35.656
36.284
36.931
37.584
38.232
38.861
39.462
40.027
40.548
41.021
41.443
41.811
42.125
42.387
42.598
42.763
42.884
42.965
43.01
43.022
43.005
42.963
42.898
42.813
42.713
42.598
42.473
42.338
42.197
42.051
41.903
41.755
41.609
41.466
41.328
41.198
41.075
40.961
40.856
40.758
40.668
40.585
40.508
40.435
40.368
40.303
40.24
40.177
40.112
40.045
39.974
39.897
39.814
39.723
39.625
39.52
39.408
39.291
39.17
39.046
38.922
38.798
38.676
38.558
38.446
38.34
38.243
38.154
38.074
38.004
37.943
37.891
37.846
37.807
37.772
37.739
37.71
37.683
37.659
37.636
37.615
37.595
37.576
37.555
37.534
37.509
37.482
37.451
37.416
37.374
37.322
37.26
37.187
37.106
37.018
36.925
36.83
36.735
36.64
36.547
36.456
36.368
36.283
36.2
36.119
36.039
35.959
35.877
35.793
35.707
35.62
35.531
35.441
35.351
35.262
35.174
35.087
35.0
34.914
34.828
34.742
34.654
34.566
34.477
34.388
34.299
34.211
34.124
34.039
33.954
33.869
33.785
33.703
33.621
33.541
33.463
33.387
33.313
33.241
33.172
33.107
33.044
32.984
32.927
32.872
32.819
32.769
32.72
32.675
32.631
32.589
32.548
32.51
32.474
32.441
32.41
32.381
32.354
32.328
32.302
32.277
32.25
32.222
32.193
32.164
32.134
32.103
32.072
32.042
32.012
31.982
31.952
31.922
31.892
31.863
31.836
31.81
31.788
31.769
31.754
31.744
31.738
31.735
31.734
31.733
31.731
31.727
31.721
31.713
31.702
31.689
31.673
31.655
31.632
31.607
31.578
31.547
31.516
31.487
31.46
31.439
31.425
31.421
31.431
31.46
31.514
31.6
31.727
31.903
32.136
32.433
32.797
33.229
33.728
34.288
34.9
35.556
36.242
36.947
37.656
38.357
39.038
39.686
40.294
40.855
41.361
41.811
42.201
42.531
42.802
43.015
43.175
43.284
43.349
43.376
43.369
43.332
43.271
43.191
43.097
42.992
42.878
42.759
42.636
42.511
42.386
42.263
42.142
42.025
41.911
41.802
41.697
41.597
41.502
41.413
41.328
41.247
41.169
41.095
41.023
40.952
40.882
40.811
40.739
40.663
40.584
40.501
40.414
40.32
40.222
40.118
40.009
39.897
39.782
39.664
39.544
39.421
39.297
39.173
39.049
38.925
38.804
38.686
38.573
38.466
38.366
38.276
38.195
38.123
38.061
38.008
37.963
37.925
37.894
37.868
37.844
37.821
37.795
37.766
37.732
37.693
37.649
37.601
37.55
37.495
37.437
37.376
37.313
37.248
37.181
37.111
37.039
36.963
36.883
36.799
36.71
36.618
36.521
36.422
36.321
36.219
36.117
36.015
35.915
35.815
35.717
35.619
35.523
35.428
35.334
35.241
35.149
35.056
34.963
34.868
34.772
34.674
34.574
34.475
34.376
34.28
34.186
34.094
34.005
33.919
33.834
33.75
33.669
33.59
33.513
33.438
33.364
33.292
33.222
33.152
33.084
33.018
32.953
32.891
32.832
32.776
32.724
32.674
32.625
32.576
32.527
32.478
32.43
32.384
32.339
32.297
32.256
32.217
32.181
32.147
32.116
32.086
32.057
32.029
32.0
31.97
31.939
31.906
31.872
31.838
31.804
31.771
31.739
31.708
31.679
31.65
31.621
31.592
31.565
31.537
31.51
31.484
31.459
31.435
31.412
31.39
31.368
31.346
31.324
31.301
31.279
31.257
31.236
31.218
31.202
31.189
31.178
31.168
31.159
31.151
31.141
31.131
31.119
31.106
31.09
31.072
31.051
31.027
31.0
30.969
30.936
30.901
30.865
30.83
30.798
30.774
30.761
30.763
30.787
30.839
30.927
31.058
31.24
31.481
31.786
32.16
32.602
33.112
33.685
34.313
34.987
35.696
36.428
37.171
37.911
38.637
39.339
40.006
40.63
41.203
41.719
42.174
42.565
42.89
43.151
43.351
43.492
43.579
43.617
43.612
43.569
43.495
43.394
43.272
43.134
42.985
42.83
42.672
42.515
42.362
42.213
42.072
41.938
41.812
41.694
41.583
41.478
41.378
41.283
41.193
41.107
41.024
40.942
40.861
40.78
40.698
40.616
40.533
40.449
40.364
40.277
40.187
40.094
39.998
39.897
39.792
39.682
39.568
39.449
39.327
39.203
39.079
38.956
38.835
38.719
38.607
38.501
38.4
38.306
38.22
38.142
38.07
38.005
37.945
37.891
37.843
37.8
37.762
37.729
37.698
37.67
37.641
37.611
37.579
37.544
37.506
37.462
37.414
37.361
37.302
37.239
37.172
37.102
37.027
36.949
36.868
36.784
36.697
36.606
36.512
36.414
36.312
36.21
36.107
36.005
35.905
35.807
35.711
35.615
35.52
35.425
35.329
35.231
35.133
35.034
34.935
34.836
34.737
34.638
34.54
34.443
34.348
34.256
34.167
34.083
34.003
33.926
33.852
33.78
33.709
33.638
33.567
33.495
33.423
33.353
33.284
33.218
33.153
33.091
33.032
32.975
32.92
32.868
32.817
32.766
32.716
32.665
32.615
32.564
32.512
32.46
32.407
32.354
32.3
32.246
32.192
32.14
32.089
32.041
31.996
31.956
31.919
31.886
31.854
31.825
31.797
31.77
31.743
31.717
31.692
31.669
31.647
31.627
31.607
31.586
31.566
31.545
31.524
31.502
31.48
31.458
31.436
31.413
31.392
31.371
31.35
31.33
31.31
31.289
31.267
31.245
31.223
31.202
31.18
31.158
31.135
31.112
31.087
31.061
31.034
31.006
30.978
30.949
30.921
30.894
30.869
30.845
30.823
30.802
30.783
30.764
30.747
30.731
30.717
30.706
30.701
30.704
30.72
30.755
30.814
30.906
31.037
31.219
31.457
31.758
32.128
32.568
33.078
33.653
34.285
34.965
35.682
36.423
37.173
37.92
38.651
39.352
40.012
40.623
41.177
41.67
42.096
42.455
42.746
42.972
43.137
43.244
43.301
43.313
43.286
43.227
43.142
43.037
42.917
42.785
42.647
42.504
42.36
42.216
42.074
41.936
41.802
41.672
41.548
41.43
41.317
41.209
41.107
41.01
40.918
40.831
40.748
40.67
40.594
40.52
40.449
40.38
40.312
40.243
40.17
40.092
40.006
39.913
39.812
39.703
39.587
39.465
39.338
39.207
39.075
38.943
38.811
38.683
38.558
38.438
38.323
38.214
38.112
38.016
37.928
37.846
37.772
37.705
37.645
37.594
37.551
37.514
37.484
37.458
37.435
37.414
37.393
37.369
37.342
37.309
37.27
37.224
37.17
37.111
37.046
36.978
36.906
36.831
36.754
36.674
36.591
36.506
36.419
36.328
36.235
36.139
36.04
35.937
35.83
35.721
35.61
35.498
35.385
35.273
35.161
35.05
34.939
34.829
34.722
34.618
34.517
34.42
34.327
34.238
34.152
34.069
33.989
33.91
33.834
33.758
33.683
33.607
33.53
33.451
33.37
33.289
33.207
33.126
33.047
32.971
32.896
32.824
32.753
32.684
32.614
32.543
32.473
32.404
32.337
32.273
32.212
32.155
32.101
32.05
32.002
31.957
31.914
31.873
31.833
31.795
31.758
31.722
31.686
31.651
31.618
31.586
31.556
31.528
31.502
31.477
31.451
31.427
31.402
31.377
31.353
31.329
31.305
31.281
31.258
31.235
31.213
31.19
31.166
31.142
31.116
31.09
31.063
31.036
31.008
30.979
30.949
30.919
30.887
30.856
30.824
30.793
30.764
30.736
30.709
30.685
30.661
30.64
30.621
30.604
30.588
30.575
30.563
30.552
30.542
30.532
30.522
30.511
30.499
30.485
30.47
30.454
30.436
30.416
30.396
30.373
30.349
30.322
30.294
30.266
30.236
30.208
30.181
30.156
30.135
30.119
30.108
30.103
30.106
30.119
30.146
30.192
30.264
30.369
30.516
30.716
30.977
31.308
31.713
32.195
32.751
33.375
34.058
34.791
35.558
36.348
37.143
37.931
38.698
39.431
40.121
40.757
41.333
41.844
42.288
42.663
42.972
43.217
43.401
43.53
43.609
43.644
43.64
43.604
43.541
43.455
43.353
43.238
43.113
42.981
42.845
42.707
42.567
42.426
42.287
42.149
42.013
41.878
41.744
41.613
41.485
41.36
41.239
41.124
41.016
40.913
40.818
40.729
40.646
40.568
40.492
40.418
40.344
40.268
40.191
40.109
40.021
39.926
39.822
39.709
39.588
39.46
39.325
39.187
39.045
38.904
38.764
38.628
38.499
38.377
38.264
38.16
38.067
37.983
37.909
37.844
37.788
37.739
37.697
37.661
37.629
37.601
37.574
37.549
37.522
37.495
37.465
37.432
37.396
37.357
37.316
37.271
37.224
37.173
37.119
37.059
36.995
36.925
36.848
36.765
36.676
36.581
36.482
36.378
36.271
36.161
36.051
35.942
35.833
35.726
35.621
35.516
35.411
35.305
35.197
35.087
34.975
34.862
34.749
34.637
34.526
34.417
34.31
34.205
34.102
34.001
33.904
33.809
33.717
33.628
33.541
33.456
33.374
33.295
33.218
33.145
33.073
33.003
32.934
32.866
32.797
32.728
32.659
32.59
32.522
32.456
32.392
32.33
32.269
32.21
32.153
32.097
32.042
31.99
31.939
31.89
31.844
31.802
31.763
31.727
31.693
31.662
31.632
31.603
31.576
31.549
31.525
31.503
31.483
31.464
31.445
31.423
31.399
31.373
31.342
31.309
31.272
31.234
31.194
31.155
31.118
31.081
31.046
31.013
30.98
30.947
30.913
30.878
30.842
30.806
30.769
30.734
30.699
30.665
30.631
30.597
30.564
30.531
30.497
30.464
30.432
30.402
30.374
30.348
30.325
30.304
30.285
30.268
30.251
30.234
30.216
30.197
30.178
30.159
30.14
30.122
30.104
30.087
30.069
30.052
30.033
30.015
29.996
29.977
29.959
29.942
29.927
29.912
29.897
29.884
29.87
29.857
29.845
29.834
29.825
29.821
29.821
29.828
29.845
29.875
29.923
29.996
30.102
30.249
30.447
30.705
31.031
31.432
31.911
32.465
33.091
33.778
34.515
35.288
36.084
36.887
37.683
38.458
39.199
39.896
40.539
41.12
41.636
42.082
42.457
42.763
43.002
43.177
43.294
43.358
43.376
43.353
43.297
43.212
43.104
42.977
42.836
42.683
42.523
42.359
42.191
42.023
41.854
41.687
41.524
41.366
41.213
41.066
40.926
40.792
40.666
40.547
40.436
40.332
40.234
40.141
40.052
39.967
39.884
39.802
39.722
39.64
39.558
39.471
39.38
39.282
39.178
39.068
38.95
38.827
38.698
38.565
38.43
38.295
38.16
38.028
37.901
37.782
37.671
37.571
37.481
37.403
37.334
37.276
37.225
37.183
37.147
37.116
37.09
37.067
37.047
37.028
37.011
36.993
36.974
36.954
36.93
36.902
36.869
36.83
36.785
36.732
36.671
36.603
36.528
36.447
36.364
36.278
36.19
36.102
36.013
35.922
35.83
35.736
35.641
35.544
35.446
35.347
35.247
35.145
35.043
34.939
34.834
34.73
34.626
34.524
34.421
34.32
34.219
34.118
34.018
33.918
33.818
33.719
33.622
33.525
33.431
33.34
33.251
33.166
33.083
33.003
32.927
32.852
32.781
32.711
32.644
32.58
32.519
32.461
32.406
32.352
32.301
32.249
32.197
32.143
32.088
32.031
31.974
31.917
31.861
31.807
31.754
31.703
31.653
31.605
31.557
31.511
31.467
31.426
31.389
31.355
31.326
31.3
31.276
31.254
31.233
31.213
31.195
31.178
31.163
31.149
31.135
31.121
31.106
31.09
31.071
31.05
31.027
31.002
30.977
30.952
30.926
30.901
30.875
30.85
30.824
30.798
30.772
30.747
30.722
30.697
30.671
30.645
30.617
30.589
30.561
30.533
30.505
30.477
30.448
30.42
30.391
30.361
30.331
30.302
30.274
30.249
30.227
30.206
30.188
30.17
30.151
30.131
30.111
30.09
30.068
30.047
30.027
30.008
29.99
29.972
29.954
29.936
29.92
29.907
29.9
29.902
29.919
29.955
30.014
30.104
30.23
30.402
30.626
30.913
31.268
31.697
32.2
32.775
33.416
34.111
34.85
35.618
36.399
37.179
37.944
38.679
39.372
40.014
40.595
41.109
41.554
41.927
42.229
42.462
42.629
42.735
42.785
42.784
42.739
42.657
42.543
42.404
42.245
42.071
41.887
41.696
41.504
41.314
41.126
40.944
40.767
40.597
40.434
40.278
40.128
39.984
39.846
39.712
39.582
39.456
39.334
39.214
39.097
38.98
38.865
38.75
38.635
38.52
38.405
38.29
38.176
38.063
37.949
37.836
37.722
37.607
37.492
37.377
37.263
37.152
37.045
36.942
36.845
36.757
36.676
36.604
36.542
36.49
36.447
36.414
36.388
36.369
36.356
36.348
36.345
36.345
36.347
36.351
36.354
36.355
36.355
36.351
36.345
36.334
36.318
36.297
36.27
36.236
36.197
36.151
36.099
36.042
35.978
35.909
35.835
35.755
35.671
35.583
35.491
35.397
35.3
35.203
35.105
35.008
34.911
34.814
34.717
34.619
34.519
34.418
34.315
34.211
34.107
34.003
33.901
33.801
33.704
33.609
33.516
33.424
33.333
33.242
33.152
33.063
32.975
32.888
32.803
32.72
32.64
32.563
32.489
32.418
32.352
32.291
32.234
32.183
32.136
32.095
32.057
32.022
31.989
31.956
31.921
31.885
31.845
31.804
31.76
31.716
31.673
31.63
31.589
31.55
31.514
31.479
31.447
31.416
31.385
31.355
31.326
31.299
31.274
31.251
31.23
31.21
31.192
31.175
31.158
31.14
31.121
31.101
31.079
31.055
31.031
31.005
30.978
30.951
30.924
30.897
30.872
30.847
30.823
30.802
30.783
30.767
30.754
30.744
30.736
30.729
30.724
30.72
30.717
30.714
30.712
30.71
30.708
30.707
30.705
30.702
30.699
30.694
30.687
30.677
30.665
30.65
30.633
30.613
30.593
30.574
30.556
30.541
30.535
30.54
30.557
30.585
30.625
30.677
30.744
30.829
30.937
31.075
31.253
31.478
31.761
32.108
32.526
33.015
33.575
34.198
34.876
35.594
36.34
37.098
37.854
38.592
39.301
39.968
40.585
41.143
41.638
42.068
42.432
42.73
42.966
43.142
43.264
43.336
43.364
43.353
43.31
43.239
43.146
43.034
42.91
42.775
42.632
42.484
42.332
42.177
42.02
41.862
41.704
41.546
41.391
41.24
41.093
40.951
40.815
40.684
40.558
40.438
40.323
40.213
40.108
40.008
39.911
39.817
39.726
39.637
39.548
39.459
39.368
39.274
39.177
39.075
38.97
38.861
38.749
38.633
38.513
38.391
38.266
38.142
38.019
37.902
37.791
37.689
37.597
37.515
37.443
37.377
37.316
37.261
37.212
37.169
37.131
37.099
37.073
37.051
37.033
37.019
37.007
36.996
36.986
36.973
36.958
36.938
36.912
36.879
36.838
36.79
36.733
36.67
36.6
36.526
36.447
36.364
36.277
36.187
36.095
36.002
35.907
35.812
35.716
35.619
35.521
35.422
35.321
35.218
35.115
35.01
34.904
34.797
34.689
34.582
34.476
34.372
34.27
34.169
34.07
33.973
33.876
33.781
33.686
33.593
33.502
33.412
33.324
33.24
33.16
33.085
33.014
32.948
32.885
32.825
32.767
32.711
32.656
32.603
32.549
32.497
32.446
32.395
32.345
32.295
32.244
32.193
32.142
32.09
32.037
31.986
31.936
31.888
31.843
31.8
31.76
31.722
31.686
31.649
31.611
31.571
31.531
31.492
31.454
31.418
31.384
31.353
31.324
31.297
31.271
31.246
31.221
31.197
31.172
31.147
31.122
31.097
31.072
31.048
31.024
31.001
30.977
30.954
30.932
30.911
30.891
30.873
30.857
30.843
30.832
30.822
30.814
30.807
30.8
30.795
30.789
30.784
30.779
30.774
30.769
30.763
30.757
30.75
30.74
30.728
30.712
30.695
30.674
30.651
30.626
30.6
30.573
30.545
30.517
30.489
30.463
30.44
30.422
30.41
30.408
30.418
30.442
30.486
30.554
30.652
30.787
30.967
31.201
31.498
31.865
32.306
32.823
33.413
34.069
34.782
35.538
36.322
37.12
37.915
38.691
39.434
40.131
40.773
41.353
41.864
42.305
42.673
42.97
43.199
43.364
43.471
43.526
43.535
43.504
43.439
43.347
43.234
43.106
42.968
42.824
42.677
42.53
42.384
42.24
42.099
41.96
41.823
41.688
41.554
41.424
41.296
41.171
41.049
40.927
40.807
40.689
40.572
40.457
40.344
40.232
40.12
40.008
39.897
39.785
39.674
39.564
39.454
39.345
39.235
39.124
39.013
38.899
38.784
38.667
38.548
38.429
38.311
38.195
38.083
37.975
37.872
37.776
37.687
37.607
37.536
37.475
37.422
37.378
37.341
37.309
37.282
37.26
37.24
37.222
37.205
37.188
37.168
37.146
37.12
37.09
37.056
37.019
36.976
36.93
36.879
36.825
36.767
36.705
36.641
36.573
36.501
36.426
36.346
36.262
36.173
36.08
35.982
35.88
35.776
35.671
35.565
35.46
35.355
35.252
35.15
35.049
34.948
34.847
34.745
34.642
34.538
34.433
34.328
34.224
34.121
34.021
33.923
33.826
33.733
33.641
33.551
33.463
33.377
33.294
33.214
33.138
33.065
32.997
32.932
32.872
32.815
32.76
32.708
32.656
32.604
32.552
32.499
32.444
32.388
32.33
32.273
32.215
32.159
32.103
32.049
31.995
31.941
31.887
31.834
31.782
31.732
31.685
31.643
31.605
31.572
31.542
31.516
31.491
31.468
31.446
31.423
31.4
31.378
31.356
31.333
31.311
31.289
31.268
31.245
31.222
31.196
31.17
31.143
31.117
31.091
31.068
31.046
31.026
31.007
30.988
30.969
30.951
30.933
30.915
30.9
30.885
30.872
30.858
30.845
30.83
30.815
30.799
30.783
30.767
30.751
30.737
30.724
30.713
30.701
30.689
30.674
30.657
30.637
30.614
30.589
30.563
30.536
30.511
30.488
30.468
30.454
30.449
30.453
30.472
30.509
30.57
30.661
30.789
30.962
31.189
31.477
31.833
32.261
32.763
33.334
33.969
34.658
35.389
36.148
36.918
37.686
38.435
39.151
39.823
40.44
40.995
41.484
41.904
42.255
42.537
42.754
42.909
43.01
43.061
43.068
43.038
42.976
42.888
42.779
42.654
42.515
42.366
42.209
42.046
41.879
41.709
41.536
41.363
41.189
41.016
40.847
40.682
40.523
40.371
40.227
40.09
39.961
39.84
39.726
39.617
39.514
39.415
39.318
39.222
39.127
39.029
38.93
38.828
38.723
38.613
38.498
38.38
38.258
38.135
38.011
37.889
37.768
37.65
37.536
37.427
37.326
37.236
37.164
37.11
37.07
37.043
37.026
37.014
37.006
36.999
36.991
36.979
36.963
36.942
36.916
36.886
36.852
36.815
36.774
36.732
36.687
36.641
36.594
36.546
36.497
36.447
36.396
36.343
36.29
36.234
36.177
36.117
36.055
35.99
35.921
35.85
35.774
35.696
35.613
35.527
35.436
35.341
35.241
35.137
35.03
34.921
34.811
34.702
34.595
34.491
34.389
34.29
34.191
34.094
33.997
33.902
33.808
33.716
33.627
33.541
33.457
33.374
33.292
33.213
33.135
33.06
32.986
32.915
32.846
32.779
32.714
32.651
32.589
32.529
32.47
32.412
32.354
32.297
32.241
32.185
32.131
32.077
32.025
31.975
31.926
31.879
31.835
31.795
31.757
31.723
31.691
31.662
31.635
31.61
31.585
31.562
31.54
31.52
31.501
31.483
31.466
31.45
31.432
31.414
31.393
31.371
31.347
31.324
31.3
31.277
31.255
31.235
31.216
31.2
31.184
31.169
31.153
31.138
31.123
31.107
31.091
31.076
31.06
31.044
31.027
31.009
30.99
30.97
30.949
30.927
30.905
30.883
30.86
30.839
30.817
30.797
30.778
30.761
30.745
30.732
30.722
30.715
30.711
30.71
30.712
30.72
30.736
30.762
30.803
30.863
30.95
31.07
31.232
31.445
31.715
32.05
32.454
32.927
33.468
34.07
34.725
35.421
36.146
36.887
37.628
38.357
39.061
39.728
40.347
40.91
41.412
41.848
42.216
42.517
42.752
42.924
43.038
43.098
43.109
43.079
43.011
42.913
42.79
42.647
42.489
42.321
42.145
41.966
41.787
41.609
41.434
41.264
41.1
40.942
40.79
