Trial 1:0back
33.406
33.384
33.361
33.337
33.312
33.285
33.259
33.232
33.206
33.182
33.16
33.14
33.123
33.109
33.099
33.092
33.087
33.084
33.081
33.078
33.075
33.073
33.069
33.063
33.055
33.046
33.036
33.025
33.012
32.998
32.982
32.965
32.946
32.928
32.91
32.894
32.881
32.871
32.866
32.868
32.878
32.899
32.933
32.982
33.048
33.133
33.239
33.369
33.523
33.704
33.915
34.157
34.432
34.738
35.077
35.444
35.836
36.247
36.671
37.1
37.526
37.943
38.341
38.713
39.054
39.358
39.622
39.842
40.019
40.153
40.244
40.295
40.309
40.288
40.236
40.154
40.047
39.919
39.772
39.611
39.44
39.26
39.076
38.888
38.7
38.514
38.329
38.148
37.971
37.798
37.629
37.464
37.305
37.15
37.0
36.853
36.709
36.567
36.428
36.291
36.157
36.025
35.897
35.774
35.654
35.537
35.424
35.314
35.209
35.11
35.018
34.934
34.859
34.793
34.738
34.694
34.661
34.638
34.627
34.627
34.639
34.663
34.696
34.738
34.787
34.84
34.897
34.956
35.016
35.077
35.138
35.199
35.259
35.319
35.376
35.429
35.477
35.52
35.556
35.587
35.612
35.628
35.636
35.634
35.621
35.597
35.564
35.521
35.47
35.411
35.347
35.278
35.205
35.129
35.05
34.97
34.888
34.807
34.725
34.644
34.564
34.485
34.408
34.333
34.259
34.189
34.121
34.057
33.996
33.937
33.881
33.827
33.776
33.728
33.683
33.642
33.605
33.57
33.537
33.505
33.475
33.446
33.418
33.39
33.364
33.34
33.317
33.296
33.277
33.26
33.246
33.234
33.224
33.215
33.208
33.202
33.198
33.195
33.192
33.187
33.178
33.165
33.149
33.13
33.11
33.091
33.072
33.055
33.041
33.028
33.018
33.008
32.998
32.987
32.974
32.961
32.948
32.935
32.922
32.91
32.899
32.89
32.884
32.883
32.89
32.907
32.936
32.981
33.046
33.134
33.247
33.388
33.559
33.762
33.997
34.264
34.564
34.893
35.251
35.633
36.034
36.449
36.871
37.293
37.708
38.107
38.484
38.831
39.143
39.417
39.65
39.839
39.985
40.089
40.151
40.174
40.162
40.118
40.045
39.947
39.828
39.69
39.538
39.374
39.202
39.024
38.842
38.659
38.476
38.294
38.113
37.935
37.757
37.58
37.402
37.226
37.051
36.879
36.711
36.548
36.39
36.238
36.092
35.952
35.816
35.686
35.561
35.441
35.327
35.22
35.119
35.025
34.941
34.865
34.797
34.736
34.684
34.64
34.606
34.584
34.573
34.571
34.578
34.591
34.609
34.633
34.661
34.693
34.729
34.77
34.816
34.866
34.919
34.974
35.03
35.086
35.143
35.199
35.254
35.308
35.36
35.409
35.454
35.492
35.523
35.546
35.559
35.563
35.558
35.546
35.525
35.495
35.457
35.409
35.353
35.289
35.217
35.139
35.055
34.969
34.881
34.793
34.706
34.621
34.539
34.461
34.386
34.315
34.249
34.186
34.126
34.07
34.015
33.963
33.912
33.863
33.815
33.769
33.724
33.68
33.639
33.6
33.563
33.528
33.495
33.465
33.438
33.413
33.391
33.371
33.351
33.333
33.315
33.298
33.283
33.269
33.256
33.245
33.234
33.224
33.214
33.202
33.19
33.178
33.166
33.154
33.144
33.134
33.125
33.116
33.106
33.096
33.086
33.077
33.069
33.062
33.056
33.05
33.044
33.038
33.032
33.026
33.02
33.015
33.012
33.015
33.028
33.053
33.095
33.154
33.234
33.337
33.466
33.621
33.805
34.019
34.264
34.54
34.847
35.182
35.541
35.921
36.317
36.722
37.13
37.535
37.93
38.306
38.658
38.98
39.267
39.515
39.723
39.889
40.012
40.093
40.134
40.137
40.106
40.044
39.954
39.841
39.707
39.556
39.391
39.215
39.03
38.841
38.648
38.453
38.257
38.063
37.87
37.681
37.497
37.317
37.143
36.972
36.805
36.639
36.475
36.314
36.156
36.002
35.853
35.712
35.577
35.449
35.328
35.215
35.11
35.012
34.923
34.843
34.772
34.711
34.66
34.618
34.585
34.561
34.544
34.535
34.534
34.54
34.555
34.577
34.605
34.641
34.684
34.734
34.791
34.854
34.92
34.989
35.06
35.132
35.204
35.275
35.345
35.413
35.476
35.533
35.583
35.625
35.657
35.681
35.695
35.7
35.695
35.68
35.653
35.617
35.57
35.515
35.451
35.381
35.307
35.23
35.151
35.073
35.0
34.94
34.893
34.858
34.83
34.804
34.778
34.746
34.707
34.659
34.601
34.532
34.453
34.366
34.274
34.18
34.085
33.994
33.906
33.825
33.751
33.685
33.628
33.579
33.539
33.507
33.482
33.463
33.45
33.44
33.432
33.427
33.423
33.417
33.403
33.379
33.346
33.307
33.266
33.225
33.188
33.156
33.13
33.112
33.1
33.095
33.095
33.1
33.107
33.117
33.128
33.14
33.152
33.163
33.174
33.182
33.189
33.194
33.197
33.198
33.198
33.2
33.207
33.221
33.247
33.286
33.343
33.42
33.52
33.643
33.791
33.966
34.17
34.403
34.667
34.962
35.286
35.634
36.004
36.389
36.783
37.181
37.574
37.956
38.321
38.663
38.976
39.255
39.498
39.702
39.868
39.994
40.081
40.131
40.146
40.127
40.079
40.005
39.906
39.789
39.655
39.509
39.354
39.19
39.021
38.848
38.672
38.495
38.319
38.143
37.968
37.795
37.625
37.457
37.292
37.13
36.969
36.809
36.65
36.491
36.334
36.178
36.026
35.879
35.736
35.6
35.47
35.347
35.232
35.126
35.029
34.943
34.867
34.803
34.751
34.711
34.681
34.663
34.656
34.66
34.673
34.694
34.724
34.761
34.805
34.854
34.907
34.963
35.023
35.084
35.147
35.213
35.28
35.347
35.413
35.477
35.537
35.593
35.643
35.686
35.721
35.748
35.765
35.772
35.77
35.757
35.735
35.704
35.664
35.616
35.559
35.494
35.423
35.349
35.272
35.192
35.11
35.025
34.94
34.856
34.773
34.692
34.614
34.539
34.467
34.399
34.335
34.273
34.213
34.155
34.1
34.049
34.0
33.956
33.915
33.878
33.844
33.812
33.78
33.748
33.716
33.684
33.652
33.62
33.589
33.56
33.532
33.507
33.483
33.462
33.445
33.43
33.418
33.409
33.402
33.395
33.389
33.383
33.375
33.366
33.355
33.342
33.328
33.312
33.296
33.281
33.266
33.252
33.239
33.225
33.211
33.197
33.185
33.174
33.165
33.16
33.161
33.17
33.188
33.219
33.266
33.33
33.415
33.524
33.658
33.821
34.013
34.237
34.493
34.782
35.102
35.453
35.83
36.229
36.643
37.067
37.491
37.909
38.314
38.698
39.054
39.377
39.662
39.906
40.108
40.268
40.386
40.466
40.508
40.516
40.491
40.438
40.36
40.262
40.147
40.019
39.882
39.736
39.584
39.425
39.262
39.096
38.93
38.764
38.6
38.439
38.28
38.124
37.971
37.82
37.672
37.527
37.385
37.248
37.117
36.989
36.866
36.745
36.626
36.508
36.392
36.275
36.16
36.046
35.934
35.825
35.72
35.619
35.525
35.439
35.363
35.298
35.244
35.201
35.17
35.151
35.143
35.148
35.163
35.19
35.227
35.272
35.326
35.386
35.45
35.518
35.586
35.651
35.712
35.769
35.821
35.868
35.909
35.945
35.975
36.001
36.022
36.039
36.051
36.057
36.055
36.045
36.025
35.995
35.957
35.91
35.854
35.791
35.722
35.647
35.566
35.481
35.393
35.303
35.212
35.122
35.032
34.943
34.853
34.763
34.674
34.586
34.5
34.419
34.343
34.275
34.215
34.164
34.12
34.082
34.047
34.015
33.985
33.956
33.928
33.901
33.875
33.85
33.825
33.8
33.775
33.748
33.719
33.689
33.658
33.626
33.596
33.568
33.54
33.514
33.489
33.465
33.443
33.421
33.401
33.382
33.365
33.351
33.338
33.327
33.315
33.304
33.293
33.283
33.273
33.262
33.252
33.242
33.231
33.222
33.216
33.214
33.218
33.23
33.253
33.289
33.341
33.412
33.506
33.624
33.771
33.949
34.16
34.406
34.687
35.004
35.353
35.73
36.13
36.547
36.974
37.403
37.825
38.234
38.622
38.982
39.307
39.593
39.839
40.044
40.208
40.331
40.416
40.464
40.479
40.464
40.423
40.359
40.275
40.175
40.061
39.935
39.799
39.655
39.505
39.351
39.196
39.04
38.885
38.73
38.577
38.426
38.277
38.131
37.988
37.848
37.713
37.582
37.454
37.33
37.207
37.086
36.966
36.847
36.726
36.605
36.483
36.363
36.245
36.132
36.022
35.917
35.816
35.721
35.633
35.553
35.481
35.419
35.367
35.327
35.298
35.28
35.272
35.274
35.286
35.308
35.338
35.378
35.425
35.48
35.541
35.606
35.673
35.741
35.808
35.872
35.933
35.988
36.037
36.078
36.11
36.131
36.142
36.142
36.132
36.113
36.085
36.048
36.003
35.95
35.891
35.826
35.757
35.685
35.61
35.533
35.454
35.373
35.29
35.206
35.121
35.037
34.953
34.87
34.788
34.708
34.631
34.557
34.486
34.419
34.355
34.296
34.241
34.189
34.139
34.09
34.043
33.997
33.95
33.903
33.858
33.813
33.772
33.732
33.695
33.659
33.624
33.591
33.561
33.533
33.509
33.489
33.471
33.456
33.443
33.432
33.422
33.41
33.398
33.385
33.373
33.361
33.35
33.339
33.327
33.315
33.302
33.287
33.27
33.251
33.231
33.21
33.19
33.171
33.155
33.141
33.129
33.12
33.115
33.117
33.129
33.155
33.198
33.261
33.347
33.459
33.6
33.772
33.979
34.222
34.503
34.819
35.168
35.546
35.947
36.363
36.788
37.214
37.633
38.038
38.422
38.779
39.103
39.39
39.638
39.845
40.011
40.136
40.222
40.271
40.287
40.273
40.234
40.174
40.096
40.003
39.895
39.776
39.646
39.509
39.366
39.218
39.068
38.915
38.761
38.607
38.453
38.301
38.152
38.006
37.865
37.728
37.596
37.468
37.344
37.221
37.101
36.98
36.86
36.739
36.617
36.495
36.375
36.257
36.14
36.026
35.915
35.81
35.709
35.616
35.529
35.451
35.383
35.324
35.276
35.239
35.213
35.198
35.195
35.203
35.224
35.256
35.297
35.347
35.404
35.466
35.53
35.595
35.66
35.722
35.784
35.842
35.898
35.947
35.989
36.021
36.044
36.058
36.062
36.056
36.042
36.018
35.987
35.95
35.905
35.855
35.798
35.735
35.668
35.597
35.521
35.443
35.361
35.276
35.189
35.101
35.013
34.925
34.838
34.754
34.672
34.594
34.52
34.449
34.381
34.316
34.252
34.188
34.125
34.064
34.006
33.952
33.902
33.855
33.812
33.772
33.735
33.699
33.666
33.634
33.603
33.573
33.545
33.518
33.492
33.469
33.447
33.427
33.409
33.393
33.377
33.361
33.344
33.327
33.311
33.295
33.281
33.265
33.24
33.2
33.148
33.086
33.02
32.953
32.891
32.837
32.794
32.764
32.748
32.745
32.752
32.768
32.789
32.815
32.845
32.878
32.914
32.952
32.995
33.044
33.1
33.166
33.244
33.337
33.447
33.581
33.742
33.933
34.157
34.415
34.706
35.029
35.379
35.751
36.141
36.543
36.949
37.354
37.75
38.132
38.492
38.826
39.129
39.397
39.629
39.823
39.977
40.091
40.168
40.208
40.213
40.187
40.134
40.055
39.956
39.838
39.705
39.561
39.409
39.251
39.09
38.928
38.767
38.607
38.446
38.277
38.098
37.911
37.72
37.528
37.341
37.163
36.996
36.843
36.705
36.582
36.473
36.377
36.291
36.211
36.135
36.06
35.983
35.905
35.824
35.743
35.662
35.581
35.501
35.425
35.352
35.285
35.226
35.177
35.138
35.112
35.098
35.095
35.104
35.122
35.15
35.186
35.23
35.282
35.339
35.4
35.464
35.53
35.594
35.655
35.711
35.761
35.805
35.842
35.871
35.892
35.904
35.909
35.906
35.895
35.875
35.847
35.812
35.769
35.72
35.665
35.604
35.537
35.465
35.388
35.306
35.221
35.133
35.043
34.952
34.863
34.776
34.69
34.607
34.526
34.447
34.371
34.297
34.226
34.157
34.091
34.029
33.969
33.912
33.859
33.809
33.762
33.718
33.677
33.638
33.602
33.569
33.538
33.51
33.485
33.461
33.438
33.416
33.396
33.379
33.363
33.35
33.338
33.327
33.316
33.306
33.296
33.285
33.274
33.262
33.251
33.238
33.225
33.211
33.195
33.179
33.163
33.147
33.13
33.112
33.092
33.072
33.053
33.034
33.017
33.001
32.987
32.974
32.963
32.953
32.944
32.937
32.93
32.925
32.924
32.928
32.939
32.959
32.989
33.031
33.09
33.167
33.266
33.391
33.542
33.723
33.936
34.182
34.462
34.774
35.115
35.479
35.863
36.261
36.667
37.073
37.473
37.862
38.232
38.577
38.892
39.172
39.414
39.615
39.776
39.895
39.975
40.019
40.029
40.008
39.96
39.887
39.794
39.682
39.556
39.416
39.265
39.105
38.939
38.768
38.595
38.42
38.247
38.075
37.907
37.741
37.58
37.424
37.272
37.125
36.982
36.842
36.704
36.568
36.435
36.303
36.174
36.048
35.927
35.81
35.698
35.59
35.488
35.391
35.3
35.215
35.137
35.065
35.001
34.944
34.894
34.853
34.819
34.796
34.781
34.778
34.786
34.805
34.836
34.877
34.928
34.987
35.055
35.128
35.207
35.288
35.371
35.453
35.533
35.609
35.678
35.738
35.791
35.835
35.872
35.901
35.919
35.927
35.923
35.909
35.884
35.849
35.804
35.751
35.69
35.622
35.547
35.466
35.379
35.287
35.193
35.097
35.0
34.905
34.81
34.717
34.626
34.538
34.452
34.369
34.288
34.209
34.136
34.067
34.004
33.945
33.891
33.842
33.798
33.759
33.725
33.695
33.668
33.642
33.618
33.594
33.57
33.546
33.523
33.499
33.474
33.448
33.422
33.396
33.37
33.344
33.321
33.299
33.279
33.261
33.245
33.23
33.216
33.202
33.19
33.178
33.168
33.159
33.15
33.143
33.136
33.129
33.121
33.113
33.104
33.092
33.08
33.067
33.055
33.043
33.034
33.025
33.017
33.008
33.0
32.992
32.986
32.983
32.985
32.993
33.009
33.037
33.079
33.135
33.209
33.302
33.416
33.554
33.719
33.913
34.137
34.393
34.68
34.996
35.339
35.704
36.085
36.477
36.873
37.266
37.648
38.012
38.352
38.662
38.939
39.178
39.378
39.537
39.656
39.737
39.78
39.787
39.761
39.706
39.626
39.524
39.404
39.271
39.125
38.972
38.812
38.647
38.48
38.31
38.14
37.971
37.805
37.642
37.481
37.323
37.168
37.016
36.866
36.717
36.571
36.428
36.287
36.149
36.013
35.879
35.746
35.616
35.489
35.364
35.244
35.129
35.021
34.92
34.828
34.746
34.675
34.614
34.565
34.527
34.5
34.481
34.473
34.476
34.489
34.512
34.546
34.591
34.645
34.707
34.776
34.851
34.929
35.011
35.096
35.183
35.27
35.354
35.435
35.51
35.577
35.635
35.682
35.719
35.746
35.763
35.769
35.763
35.747
35.72
35.683
35.637
35.584
35.524
35.459
35.389
35.315
35.238
35.158
35.075
34.991
34.906
34.823
34.742
34.663
34.586
34.509
34.434
34.359
34.285
34.213
34.143
34.076
34.011
33.95
33.894
33.841
33.791
33.742
33.696
33.651
33.61
33.572
33.538
33.506
33.475
33.446
33.42
33.396
33.374
33.355
33.339
33.324
33.311
33.299
33.288
33.276
33.265
33.254
33.244
33.234
33.226
33.218
33.21
33.202
33.194
33.186
33.177
33.167
33.157
33.146
33.135
33.123
33.11
33.097
33.084
33.07
33.057
33.045
33.038
33.034
33.037
33.047
33.066
33.095
33.136
33.193
33.268
33.364
33.483
33.628
33.799
33.999
34.228
34.488
34.777
35.095
35.439
35.805
36.188
36.582
36.979
37.374
37.76
38.131
38.478
38.799
39.086
39.336
39.548
39.719
39.85
39.94
39.993
40.011
39.999
39.96
39.897
39.814
39.714
39.598
39.468
39.326
39.175
39.016
38.852
38.685
38.516
38.345
38.175
38.004
37.835
37.669
37.506
37.347
37.192
37.041
36.893
36.746
36.599
36.453
36.309
36.168
36.03
35.896
35.766
35.641
35.522
35.407
35.299
35.198
35.106
35.023
34.95
34.886
34.831
34.784
34.746
34.716
34.695
34.683
34.679
34.684
34.697
34.719
34.749
34.786
34.832
34.885
34.945
35.009
35.077
35.146
35.215
35.283
35.349
35.41
35.465
35.514
35.556
35.589
35.614
35.629
35.635
35.631
35.618
35.597
35.567
35.531
35.488
35.438
35.382
35.32
35.253
35.181
35.106
35.029
34.951
34.871
34.791
34.71
34.629
34.548
34.469
34.393
34.318
34.247
34.179
34.114
34.054
33.997
33.943
33.893
33.845
33.801
33.761
33.725
33.691
33.66
33.628
33.597
33.567
33.536
33.505
33.475
33.446
33.418
33.394
33.373
33.354
33.338
33.323
33.31
33.298
33.286
33.276
33.265
33.253
33.241
33.227
33.212
33.196
33.178
33.158
33.135
33.111
33.087
33.063
33.041
33.021
33.002
32.985
32.969
32.955
32.942
32.933
32.926
32.923
32.925
32.933
32.948
32.974
33.012
33.065
33.138
33.233
33.354
33.501
33.679
33.888
34.131
34.407
34.718
35.06
35.432
35.828
36.244
36.672
37.107
37.541
37.967
38.379
38.769
39.131
39.459
39.75
39.998
40.203
40.365
40.486
40.568
40.613
40.624
40.605
40.558
40.487
40.395
40.286
40.164
40.03
39.887
39.737
39.581
39.421
39.259
39.095
38.93
38.766
38.604
38.445
38.29
38.139
37.989
37.841
37.695
37.552
37.412
37.276
37.143
37.015
36.891
36.77
36.651
36.534
36.418
36.304
36.193
36.085
35.979
35.877
35.778
35.684
35.595
35.512
35.436
35.366
35.304
35.252
35.211
35.182
35.164
35.156
35.158
35.169
35.187
35.213
35.245
35.282
35.324
35.369
35.416
35.464
35.511
35.557
35.602
35.645
35.684
35.719
35.748
35.77
35.784
35.791
35.791
35.783
35.768
35.746
35.716
35.68
35.637
35.588
35.533
35.472
35.405
35.332
35.255
35.173
35.088
34.999
34.908
34.817
34.725
34.635
34.546
34.46
34.377
34.297
34.219
34.146
34.077
34.012
33.951
33.894
33.841
33.792
33.746
33.702
33.658
33.615
33.574
33.535
33.501
33.469
33.441
33.415
33.391
33.368
33.346
33.325
33.305
33.286
33.267
33.25
33.235
33.221
33.208
33.194
33.179
33.162
33.143
33.123
33.102
33.081
33.061
33.041
33.023
33.005
32.987
32.97
32.952
32.934
32.918
32.903
32.891
32.877
32.851
32.812
32.761
32.702
32.642
32.587
32.542
32.514
32.508
32.528
32.58
32.665
32.784
32.938
33.127
33.35
33.608
33.899
34.223
34.579
34.961
35.368
35.794
36.234
36.681
37.13
37.573
38.003
38.413
38.798
39.153
39.473
39.755
39.995
40.192
40.346
40.459
40.531
40.566
40.568
40.54
40.485
40.408
40.314
40.205
40.084
39.953
39.815
39.67
39.521
39.368
39.211
39.051
38.889
38.726
38.564
38.404
38.247
38.092
37.941
37.794
37.651
37.511
37.374
37.241
37.112
36.987
36.865
36.745
36.626
36.508
36.391
36.274
36.157
36.041
35.926
35.814
35.706
35.602
35.504
35.41
35.323
35.244
35.175
35.115
35.066
35.027
34.999
34.981
34.973
34.974
34.983
35.0
35.024
35.055
35.093
35.135
35.181
35.227
35.274
35.319
35.361
35.401
35.438
35.472
35.501
35.527
35.549
35.564
35.572
35.572
35.563
35.546
35.521
35.488
35.448
35.402
35.349
35.291
35.228
35.161
35.091
35.017
34.94
34.861
34.779
34.697
34.613
34.53
34.447
34.366
34.286
34.21
34.139
34.072
34.008
33.949
33.893
33.84
33.792
33.748
33.709
33.673
33.641
33.61
33.58
33.549
33.518
33.484
33.45
33.415
33.38
33.345
33.31
33.276
33.243
33.212
33.184
33.16
33.139
33.12
33.104
33.089
33.074
33.059
33.044
33.027
33.011
32.996
32.983
32.972
32.963
32.954
32.947
32.94
32.934
32.927
32.919
32.91
32.899
32.888
32.876
32.864
32.85
32.836
32.82
32.803
32.787
32.772
32.76
32.752
32.749
32.753
32.769
32.798
32.844
32.91
32.999
33.114
33.258
33.432
33.637
33.874
34.143
34.444
34.776
35.136
35.522
35.928
36.349
36.781
37.217
37.648
38.067
38.466
38.84
39.183
39.491
39.759
39.985
40.167
40.305
40.401
40.456
40.472
40.453
40.402
40.321
40.216
40.088
39.943
39.784
39.614
39.437
39.256
39.073
38.891
38.712
38.538
38.37
38.21
38.057
37.909
37.766
37.626
37.488
37.354
37.221
37.09
36.961
36.832
36.704
36.575
36.444
36.313
36.182
36.054
35.928
35.805
35.688
35.575
35.468
35.366
35.269
35.178
35.093
35.015
34.946
34.886
34.836
34.795
34.764
34.743
34.732
34.732
34.741
34.759
34.784
34.818
34.856
34.9
34.948
34.999
35.051
35.105
35.159
35.214
35.266
35.315
35.36
35.4
35.433
35.46
35.478
35.489
35.493
35.489
35.476
35.455
35.424
35.385
35.337
35.282
35.218
35.149
35.074
34.996
34.915
34.833
34.752
34.672
34.594
34.517
34.443
34.372
34.303
34.236
34.173
34.111
34.052
33.994
33.937
33.881
33.826
33.774
33.724
33.676
33.631
33.587
33.545
33.503
33.463
33.423
33.384
33.347
33.311
33.276
33.242
33.209
33.178
33.15
33.124
33.101
33.082
33.065
33.052
33.041
33.033
33.027
33.022
33.016
33.01
33.003
32.995
32.984
32.972
32.957
32.94
32.923
32.909
32.899
32.893
32.89
32.89
32.892
32.892
32.891
32.885
32.875
32.861
32.843
32.823
32.802
32.78
32.76
32.741
32.728
