Trial 1:0back
36.509
36.711
36.898
37.07
37.227
37.369
37.497
37.611
37.713
37.801
37.878
37.943
37.997
38.04
38.072
38.094
38.106
38.109
38.103
38.088
38.065
38.035
37.998
37.956
37.907
37.852
37.792
37.727
37.656
37.581
37.502
37.42
37.338
37.255
37.173
37.093
37.014
36.937
36.86
36.784
36.708
36.632
36.554
36.476
36.395
36.314
36.232
36.152
36.074
35.999
35.928
35.862
35.802
35.75
35.705
35.668
35.64
35.619
35.604
35.595
35.591
35.59
35.592
35.596
35.602
35.607
35.612
35.617
35.619
35.619
35.615
35.609
35.601
35.592
35.581
35.569
35.556
35.543
35.529
35.515
35.499
35.482
35.463
35.441
35.417
35.39
35.36
35.328
35.294
35.258
35.22
35.182
35.144
35.106
35.068
35.032
34.997
34.965
34.936
34.909
34.886
34.866
34.848
34.833
34.819
34.807
34.796
34.786
34.775
34.763
34.75
34.735
34.718
34.698
34.675
34.649
34.621
34.589
34.555
34.519
34.482
34.444
34.407
34.37
34.334
34.298
34.264
34.232
34.202
34.173
34.145
34.119
34.095
34.072
34.051
34.031
34.014
33.998
33.985
33.976
33.972
33.976
33.988
34.013
34.05
34.104
34.176
34.267
34.379
34.513
34.667
34.842
35.037
35.248
35.474
35.71
35.954
36.202
36.45
36.694
36.93
37.156
37.368
37.566
37.747
37.911
38.057
38.185
38.295
38.388
38.466
38.53
38.58
38.618
38.645
38.662
38.67
38.671
38.665
38.652
38.632
38.607
38.575
38.538
38.497
38.45
38.4
38.347
38.29
38.231
38.169
38.105
38.04
37.972
37.901
37.827
37.75
37.668
37.582
37.492
37.398
37.302
37.203
37.104
37.004
36.906
36.81
36.718
36.631
36.55
36.476
36.409
36.349
36.297
36.252
36.214
36.183
36.159
36.14
36.127
36.119
36.114
36.114
36.118
36.124
36.134
36.146
36.159
36.173
36.188
36.202
36.215
36.227
36.237
36.244
36.249
36.25
36.249
36.244
36.235
36.223
36.209
36.191
36.172
36.15
36.125
36.099
36.071
36.042
36.012
35.983
35.953
35.923
35.893
35.862
35.831
35.799
35.767
35.733
35.697
35.659
35.62
35.579
35.537
35.495
35.453
35.411
35.371
35.332
35.296
35.262
35.231
35.202
35.175
35.151
35.127
35.103
35.077
35.049
35.016
34.979
34.937
34.892
34.842
34.789
34.733
34.676
34.619
34.563
34.509
34.459
34.413
34.371
34.335
34.305
34.283
34.27
34.267
34.276
34.298
34.335
34.389
34.463
34.555
34.668
34.8
34.952
35.123
35.31
35.512
35.726
35.949
36.179
36.413
36.647
36.88
37.108
37.328
37.54
37.741
37.931
38.108
38.271
38.42
38.554
38.673
38.778
38.869
38.947
39.012
39.063
39.103
39.131
39.149
39.157
39.155
39.145
39.125
39.096
39.056
39.006
38.946
38.875
38.795
38.707
38.613
38.514
38.413
38.311
38.209
38.109
38.009
37.911
37.813
37.716
37.618
37.519
37.419
37.318
37.215
37.112
37.008
36.905
36.802
36.7
36.598
36.497
36.398
36.302
36.211
36.124
36.044
35.971
35.907
35.853
35.808
35.774
35.751
35.736
35.729
35.73
35.735
35.745
35.758
35.774
35.79
35.807
35.822
35.836
35.848
35.857
35.863
35.865
35.863
35.859
35.852
35.842
35.83
35.816
35.799
35.781
35.76
35.737
35.711
35.683
35.652
35.618
35.581
35.544
35.505
35.466
35.425
35.385
35.345
35.307
35.272
35.24
35.212
35.188
35.168
35.152
35.139
35.13
35.122
35.115
35.108
35.1
35.09
35.078
35.062
35.041
35.014
34.981
34.942
34.897
34.847
34.793
34.734
34.673
34.61
34.548
34.488
34.431
34.379
34.332
34.29
34.254
34.224
34.2
34.182
34.167
34.157
34.15
34.147
34.149
34.158
34.175
34.202
34.243
34.301
34.377
34.477
34.6
34.75
34.925
35.125
35.35
35.595
35.859
36.137
36.426
36.721
37.02
37.317
37.61
37.894
38.166
38.423
38.663
38.884
39.085
39.265
39.424
39.563
39.682
39.782
39.864
39.929
39.979
40.014
40.037
40.049
40.051
40.044
40.031
40.011
39.985
39.954
39.917
39.875
39.827
39.773
39.713
39.645
39.571
39.491
39.406
39.316
39.223
39.126
39.028
38.929
38.829
38.732
38.636
38.542
38.451
38.362
38.275
38.191
38.111
38.034
37.962
37.894
37.829
37.768
37.709
37.652
37.597
37.544
37.492
37.442
37.396
37.352
37.313
37.278
37.247
37.222
37.201
37.186
37.175
37.167
37.162
37.159
37.157
37.154
37.15
37.143
37.135
37.125
37.113
37.1
37.086
37.071
37.054
37.036
37.016
36.994
36.97
36.944
36.913
36.88
36.842
36.801
36.756
36.707
36.654
36.597
36.538
36.478
36.416
36.353
36.291
36.23
36.17
36.112
36.058
36.007
35.96
35.916
35.876
35.839
35.806
35.775
35.746
35.718
35.69
35.662
35.632
35.601
35.567
35.53
35.491
35.449
35.404
35.356
35.306
35.255
35.201
35.147
35.092
35.037
34.984
34.931
34.878
34.827
34.776
34.726
34.677
34.631
34.588
34.548
34.514
34.486
34.467
34.459
34.465
34.488
34.529
34.592
34.678
34.787
34.921
35.078
35.258
35.46
35.679
35.915
36.163
36.42
36.683
36.949
37.214
37.476
37.733
37.982
38.222
38.451
38.669
38.875
39.068
39.247
39.412
39.561
39.695
39.812
39.914
39.999
40.067
40.12
40.156
40.176
40.179
40.167
40.141
40.102
40.05
39.989
39.919
39.842
39.758
39.669
39.576
39.479
39.378
39.274
39.167
39.058
38.948
38.837
38.727
38.619
38.513
38.41
38.31
38.213
38.119
38.028
37.94
37.854
37.772
37.692
37.614
37.54
37.468
37.399
37.335
37.275
37.218
37.165
37.115
37.07
37.028
36.991
36.957
36.927
36.9
36.878
36.859
36.844
36.832
36.824
36.818
36.815
36.813
36.811
36.81
36.807
36.803
36.795
36.783
36.767
36.745
36.718
36.685
36.646
36.602
36.554
36.503
36.449
36.393
36.337
36.281
36.226
36.173
36.122
36.074
36.03
35.988
35.95
35.915
35.882
35.852
35.823
35.795
35.767
35.739
35.709
35.679
35.647
35.613
35.577
35.538
35.496
35.451
35.404
35.355
35.304
35.252
35.199
35.145
35.09
35.034
34.977
34.918
34.86
34.802
34.747
34.693
34.642
34.594
34.548
34.505
34.465
34.428
34.392
34.359
34.328
34.299
34.272
34.249
34.232
34.223
34.222
34.233
34.258
34.299
34.358
34.438
34.54
34.664
34.813
34.985
35.181
35.396
35.63
35.879
36.141
36.411
36.686
36.962
37.237
37.506
37.767
38.017
38.255
38.479
38.687
38.878
39.052
39.209
39.347
39.466
39.566
39.647
39.709
39.753
39.78
39.79
39.786
39.77
39.743
39.706
39.663
39.612
39.556
39.495
39.43
39.362
39.291
39.215
39.135
39.051
38.962
38.868
38.771
38.67
38.566
38.459
38.35
38.241
38.132
38.024
37.917
37.812
37.711
37.614
37.521
37.432
37.349
37.271
37.199
37.132
37.072
37.017
36.969
36.927
36.892
36.864
36.843
36.829
36.82
36.816
36.816
36.819
36.824
36.831
36.839
36.847
36.854
36.861
36.866
36.87
36.872
36.873
36.872
36.87
36.866
36.86
36.851
36.839
36.822
36.802
36.778
36.749
36.718
36.684
36.647
36.608
36.567
36.524
36.482
36.438
36.394
36.351
36.307
36.262
36.218
36.173
36.127
36.08
36.032
35.983
35.931
35.877
35.822
35.765
35.706
35.645
35.584
35.523
35.461
35.401
35.342
35.286
35.232
35.181
35.133
35.087
35.042
34.997
34.952
34.905
34.857
34.806
34.752
34.695
34.636
34.574
34.51
34.446
34.382
34.32
34.262
34.21
34.166
34.134
34.116
34.116
34.137
34.18
34.249
34.344
34.465
34.613
34.786
34.984
35.205
35.445
35.702
35.971
36.249
36.532
36.817
37.1
37.377
37.647
37.905
38.149
38.378
38.59
38.784
38.96
39.117
39.257
39.38
39.486
39.575
39.649
39.708
39.751
39.781
39.797
39.799
39.789
39.766
39.731
39.685
39.629
39.562
39.486
39.402
39.311
39.216
39.118
39.019
38.92
38.824
38.731
38.64
38.551
38.461
38.37
38.276
38.177
38.075
37.967
37.856
37.742
37.626
37.51
37.394
37.281
37.173
37.07
36.974
36.887
36.808
36.738
36.677
36.624
36.579
36.541
36.51
36.484
36.462
36.444
36.427
36.412
36.398
36.386
36.374
36.364
36.356
36.349
36.344
36.341
36.338
36.335
36.331
36.325
36.317
36.307
36.294
36.278
36.257
36.232
36.203
36.17
36.134
36.096
36.057
36.017
35.976
35.935
35.893
35.85
35.804
35.756
35.706
35.653
35.599
35.542
35.485
35.425
35.365
35.303
35.24
35.178
35.116
35.056
34.997
34.94
34.885
34.833
34.782
34.735
34.689
34.643
34.597
34.55
34.499
34.446
34.391
34.332
34.27
34.206
34.14
34.072
34.002
33.932
33.86
33.79
33.721
33.655
33.594
33.538
33.489
33.448
33.415
33.392
33.38
33.38
33.394
33.423
33.468
33.531
33.615
33.72
33.848
33.999
34.175
34.374
34.596
34.841
35.104
35.385
35.681
35.987
36.301
36.62
36.939
37.255
37.563
37.861
38.144
38.409
38.653
38.876
39.074
39.247
39.394
39.514
39.608
39.677
39.721
39.743
39.746
39.731
39.702
39.662
39.614
39.56
39.502
39.442
39.381
39.32
39.257
39.192
39.124
39.052
38.975
38.893
38.804
38.71
38.61
38.504
38.394
38.28
38.164
38.044
37.923
37.8
37.678
37.557
37.437
37.321
37.207
37.096
36.988
36.885
36.788
36.696
36.61
36.53
36.456
36.388
36.326
36.271
36.221
36.179
36.142
36.111
36.085
36.065
36.049
36.036
36.025
36.017
36.009
36.0
35.991
35.981
35.97
35.957
35.944
35.93
35.915
35.9
35.885
35.868
35.85
35.829
35.806
35.78
35.75
35.718
35.681
35.641
35.597
35.55
35.5
35.445
35.385
35.321
35.253
35.181
35.106
35.028
34.951
34.873
34.796
34.722
34.65
34.582
34.517
34.456
34.398
34.344
34.292
34.242
34.192
34.144
34.095
34.045
33.996
33.947
33.897
33.848
33.8
33.753
33.707
33.662
33.619
33.578
33.539
33.502
33.466
33.432
33.398
33.363
33.326
33.286
33.243
33.196
33.144
33.087
33.028
32.967
32.906
32.846
32.79
32.739
32.696
32.663
32.642
32.637
32.651
32.687
32.748
32.836
32.952
33.098
33.272
33.475
33.704
33.959
34.234
34.529
34.838
35.158
35.486
35.816
36.147
36.472
36.789
37.093
37.383
37.654
37.906
38.137
38.346
38.531
38.693
38.832
38.948
39.044
39.118
39.174
39.212
39.233
39.239
39.231
39.209
39.176
39.132
39.079
39.017
38.947
38.87
38.787
38.699
38.608
38.514
38.418
38.32
38.22
38.116
38.011
37.904
37.795
37.683
37.57
37.455
37.338
37.221
37.105
36.991
36.881
36.774
36.672
36.574
36.482
36.396
36.316
36.244
36.178
36.118
36.064
36.016
35.973
35.934
35.898
35.864
35.831
35.8
35.77
35.743
35.717
35.694
35.674
35.658
35.645
35.637
35.634
35.635
35.639
35.646
35.655
35.663
35.669
35.672
35.671
35.663
35.649
35.629
35.602
35.568
35.527
35.481
35.43
35.374
35.316
35.255
35.192
35.129
35.066
35.003
34.941
34.882
34.824
34.768
34.714
34.66
34.607
34.554
34.501
34.448
34.394
34.339
34.282
34.223
34.164
34.105
34.046
33.987
33.929
33.873
33.818
33.765
33.715
33.667
33.622
33.578
33.536
33.495
33.455
33.415
33.375
33.336
33.296
33.256
33.213
33.17
33.125
33.078
33.03
32.982
32.932
32.883
32.833
32.785
32.738
32.693
32.651
32.612
32.575
32.543
32.514
32.493
32.48
32.477
32.489
32.516
32.565
32.636
32.734
32.857
33.009
33.188
33.394
33.627
33.885
34.165
34.465
34.78
35.106
35.439
35.775
36.109
36.437
36.756
37.06
37.347
37.614
37.859
38.082
38.281
38.457
38.609
38.739
38.847
38.933
39.0
39.046
39.075
39.086
39.083
39.065
39.035
38.994
38.945
38.889
38.825
38.756
38.682
38.604
38.52
38.433
38.341
38.245
38.145
38.04
37.93
37.818
37.701
37.581
37.459
37.335
37.209
37.084
36.961
36.84
36.724
36.612
36.507
36.409
36.317
36.231
36.152
36.078
36.01
35.948
35.89
35.837
35.789
35.747
35.709
35.676
35.648
35.623
35.602
35.584
35.571
35.561
35.555
35.553
35.554
35.558
35.566
35.576
35.588
35.601
35.613
35.624
35.632
35.638
35.641
35.639
35.632
35.619
35.6
35.574
35.542
35.503
35.459
35.409
35.356
35.299
35.239
35.178
35.113
35.047
34.98
34.913
34.848
34.785
34.726
34.67
34.618
34.57
34.525
34.483
34.444
34.408
34.374
34.341
34.309
34.278
34.246
34.213
34.178
34.14
34.1
34.057
34.011
33.964
33.916
33.867
33.817
33.767
33.717
33.669
33.622
33.577
33.532
33.487
33.44
33.391
33.34
33.287
33.233
33.177
33.121
33.064
33.008
32.951
32.896
32.843
32.794
32.751
32.717
32.694
32.684
32.693
32.722
32.775
32.854
32.96
33.095
33.261
33.457
33.683
33.937
34.215
34.513
34.827
35.152
35.482
35.813
36.14
36.459
36.766
37.058
37.332
37.585
37.817
38.026
38.212
38.377
38.52
38.643
38.746
38.831
38.9
38.952
38.99
39.013
39.023
39.02
39.004
38.976
38.936
38.886
38.825
38.756
38.679
38.596
38.508
38.417
38.322
38.223
38.122
38.017
37.91
37.8
37.688
37.573
37.457
37.337
37.215
37.09
36.964
36.838
36.713
36.589
36.469
36.353
36.243
36.14
36.044
35.954
35.872
35.796
35.727
35.663
35.605
35.551
35.501
35.454
35.41
35.369
35.331
35.295
35.264
35.236
35.213
35.194
35.179
35.168
35.16
35.155
35.151
35.15
35.15
35.152
35.155
35.159
35.163
35.166
35.166
35.163
35.157
35.145
35.128
35.105
35.074
35.036
34.99
34.939
34.881
34.818
34.75
34.678
34.604
34.529
34.454
34.38
34.308
34.238
34.172
34.11
34.052
33.998
33.949
33.905
33.865
33.829
33.797
33.768
33.741
33.715
33.689
33.662
33.632
33.599
33.563
33.522
33.477
33.428
33.376
33.322
33.266
33.21
33.153
33.096
33.039
32.983
32.928
32.873
32.819
32.766
32.713
32.661
32.611
32.562
32.514
32.467
32.422
32.378
32.335
32.295
32.256
32.219
32.185
32.156
32.133
32.118
32.115
32.128
32.158
32.211
32.29
32.396
32.534
32.704
32.906
33.14
33.404
33.697
34.014
34.351
34.703
35.067
35.435
35.804
36.167
36.522
36.863
37.188
37.494
37.776
38.034
38.267
38.475
38.656
38.812
38.945
39.055
39.143
39.211
39.258
39.286
39.296
39.289
39.266
39.23
39.18
39.118
39.045
38.963
38.873
38.777
38.675
38.571
38.464
38.357
38.249
38.142
38.034
37.926
37.818
37.71
37.602
37.494
37.387
37.279
37.17
37.061
36.952
36.843
36.735
36.63
36.528
36.43
36.335
36.245
36.158
36.076
35.997
35.922
35.849
35.781
35.716
35.654
35.596
35.541
35.49
35.444
35.404
35.37
35.344
35.324
35.31
35.303
35.301
35.303
35.309
35.317
35.326
35.333
35.339
35.342
35.341
35.335
35.324
35.306
35.283
35.253
35.218
35.178
35.134
35.086
35.034
34.977
34.918
34.855
34.788
34.72
34.649
34.577
34.504
34.431
34.358
34.287
34.217
34.15
34.085
34.023
33.965
33.91
33.859
33.811
33.767
33.726
33.689
33.654
33.622
33.592
33.564
33.536
33.509
33.48
33.451
33.42
33.386
33.351
33.312
33.27
33.226
33.178
33.129
33.078
33.026
32.974
32.923
32.872
32.822
32.773
32.726
32.68
32.635
32.59
32.546
32.501
32.455
32.409
32.363
32.316
32.269
32.223
32.179
32.139
32.105
32.079
32.065
32.067
32.088
32.132
32.202
32.302
32.434
32.599
32.797
33.028
33.288
33.575
33.885
34.215
34.559
34.913
35.272
35.632
35.987
36.333
36.667
36.986
37.285
37.563
37.817
38.045
38.246
38.419
38.564
38.682
38.772
38.837
38.879
38.898
38.897
38.878
38.843
38.795
38.736
38.667
38.591
38.509
38.422
38.332
38.24
38.144
38.045
37.942
37.837
37.729
37.618
37.505
37.39
37.274
37.157
37.04
36.923
36.806
36.689
36.573
36.457
36.342
36.229
36.119
36.011
35.906
35.804
35.706
35.612
35.525
35.443
35.368
35.301
35.241
35.189
35.146
35.11
35.081
35.059
35.042
35.03
35.023
35.021
35.024
35.031
35.042
35.056
35.071
35.087
35.104
35.119
35.132
35.142
35.149
35.151
35.149
35.142
35.13
35.112
35.089
35.061
35.029
34.993
34.955
34.914
34.87
34.825
34.779
34.732
34.686
34.642
34.6
34.56
34.523
34.487
34.453
34.42
34.388
34.356
34.323
34.289
34.252
34.214
34.172
34.128
34.082
34.033
33.983
33.932
33.882
33.831
33.781
33.732
33.684
33.636
33.59
33.545
33.501
33.459
33.418
33.378
33.339
33.3
33.259
33.218
33.175
33.13
33.083
33.032
32.978
32.92
32.86
32.799
32.737
32.677
32.62
32.566
32.517
32.475
32.442
32.421
32.415
32.425
32.454
32.505
32.581
32.683
32.814
32.973
33.163
33.381
33.627
33.897
34.19
34.502
34.828
35.163
35.504
35.844
36.181
36.509
36.827
37.131
37.419
37.689
37.94
38.172
38.383
38.572
38.741
38.889
39.016
39.122
39.206
39.27
39.314
39.338
39.343
39.33
39.298
39.25
39.187
39.109
39.02
38.92
38.811
38.695
38.574
38.447
38.317
38.185
38.052
37.918
37.784
37.652
37.522
37.393
37.267
37.143
37.021
36.902
36.784
36.667
36.552
36.437
36.324
36.211
36.1
35.99
35.881
35.775
35.672
35.573
35.479
35.391
35.309
35.236
35.17
35.113
35.064
35.025
34.994
34.973
34.96
34.955
34.957
34.964
34.976
34.992
35.009
35.027
35.045
35.06
35.073
35.081
35.084
35.081
35.072
35.057
35.036
35.011
34.983
34.952
34.919
34.887
34.855
34.823
34.791
34.76
34.728
34.694
34.659
34.619
34.575
34.525
34.471
34.412
34.348
34.282
34.212
34.141
34.07
34.0
33.932
33.867
33.806
33.75
33.698
33.653
33.612
33.577
33.545
33.515
33.488
33.461
33.433
33.403
33.37
33.332
33.29
33.243
33.19
33.132
33.069
33.002
32.931
32.857
32.781
32.704
32.626
32.548
32.473
32.4
32.33
32.265
32.205
32.15
32.101
32.057
32.021
31.993
31.974
31.967
31.972
31.993
32.03
32.087
32.166
32.27
32.4
32.56
32.749
32.968
33.217
33.494
33.798
34.124
34.47
34.832
35.205
35.583
35.961
36.334
36.697
37.048
37.381
37.695
37.986
38.254
38.497
38.714
38.904
39.069
39.208
39.321
39.41
39.475
39.518
39.54
39.545
39.533
39.507
39.469
39.419
39.36
39.292
39.216
39.134
39.046
38.952
38.853
38.749
38.64
38.527
38.41
38.289
38.166
38.041
37.914
37.785
37.656
37.527
37.398
37.269
37.142
37.016
36.892
36.769
36.649
36.533
36.42
36.311
36.207
36.107
36.013
35.925
35.842
35.766
35.697
35.634
35.577
35.527
35.483
35.444
35.411
35.384
35.362
35.346
35.334
35.327
35.323
35.321
35.321
35.322
35.323
35.324
35.326
35.326
35.326
35.324
35.32
35.313
35.303
35.29
35.272
35.251
35.226
35.197
35.164
35.127
35.086
35.042
34.994
34.943
34.889
34.833
34.774
34.713
34.65
34.587
34.523
34.46
34.397
34.334
34.271
34.21
34.15
34.091
34.034
33.978
33.924
33.87
33.817
33.766
33.716
33.666
33.617
33.57
33.522
33.476
33.43
33.385
33.34
33.294
33.248
33.201
33.151
33.099
33.046
32.991
32.933
32.874
32.813
32.751
32.688
32.625
32.562
32.499
32.438
32.379
32.323
32.271
32.224
32.184
32.151
32.126
32.111
32.107
32.116
32.143
32.189
32.26
32.357
32.484
32.641
32.831
33.052
33.306
33.589
33.9
34.235
34.589
34.96
35.341
35.727
36.113
36.494
36.863
37.217
37.551
37.861
38.146
38.403
38.633
38.833
39.005
39.149
39.266
39.357
39.426
39.473
39.499
39.508
39.499
39.475
39.438
39.389
39.329
39.26
39.181
39.096
39.003
38.903
38.798
38.687
38.571
38.45
38.324
38.192
38.055
37.914
37.77
37.624
37.476
37.327
37.18
37.036
36.895
36.758
36.628
36.503
36.384
36.271
36.163
36.058
35.957
35.858
35.761
35.665
35.572
35.48
35.391
35.305
35.222
35.144
35.071
35.004
34.945
34.893
34.851
34.818
34.793
34.776
34.766
34.762
34.763
34.768
34.776
34.786
34.795
34.803
34.809
34.81
34.808
34.802
34.792
34.779
34.763
34.744
34.722
34.696
34.666
34.632
34.595
34.553
34.507
34.456
34.401
34.341
34.279
34.214
34.147
34.08
34.013
33.949
33.886
33.827
33.771
33.718
33.669
33.624
33.582
33.542
33.504
33.467
33.431
33.394
33.356
33.315
33.271
33.224
33.175
33.123
33.068
33.012
32.952
32.891
32.829
32.767
32.705
32.644
32.585
32.528
32.473
32.421
32.372
32.327
32.284
32.244
32.206
32.169
32.133
32.098
32.062
32.027
31.992
31.958
31.924
31.893
31.866
31.844
31.832
31.832
31.848
31.883
