Trial 1:0back
30.706
30.668
30.634
30.604
30.582
30.567
30.562
30.57
30.592
30.632
30.695
30.782
30.899
31.047
31.23
31.449
31.705
31.998
32.326
32.688
33.082
33.503
33.946
34.407
34.881
35.361
35.843
36.319
36.785
37.235
37.664
38.069
38.447
38.794
39.109
39.393
39.644
39.863
40.052
40.212
40.344
40.451
40.534
40.595
40.635
40.657
40.663
40.655
40.633
40.601
40.56
40.511
40.456
40.398
40.337
40.274
40.211
40.148
40.086
40.025
39.967
39.912
39.859
39.811
39.766
39.724
39.686
39.649
39.614
39.578
39.542
39.503
39.461
39.416
39.368
39.318
39.265
39.212
39.159
39.107
39.057
39.01
38.967
38.928
38.893
38.862
38.837
38.816
38.8
38.789
38.782
38.779
38.779
38.782
38.788
38.796
38.805
38.813
38.819
38.823
38.822
38.816
38.806
38.79
38.768
38.741
38.709
38.67
38.627
38.577
38.523
38.463
38.398
38.329
38.255
38.178
38.098
38.014
37.928
37.84
37.75
37.657
37.563
37.467
37.369
37.27
37.169
37.067
36.964
36.861
36.757
36.652
36.548
36.444
36.341
36.239
36.139
36.04
35.944
35.849
35.756
35.665
35.575
35.487
35.401
35.316
35.233
35.153
35.075
35.001
34.931
34.864
34.802
34.742
34.686
34.633
34.582
34.534
34.488
34.444
34.402
34.362
34.322
34.284
34.246
34.207
34.169
34.131
34.093
34.055
34.017
33.979
33.942
33.905
33.869
33.833
33.798
33.764
33.73
33.697
33.665
33.632
33.599
33.565
33.532
33.498
33.464
33.431
33.397
33.363
33.329
33.295
33.261
33.226
33.193
33.159
33.125
33.09
33.055
33.018
32.981
32.942
32.902
32.862
32.821
32.779
32.736
32.694
32.651
32.608
32.565
32.523
32.481
32.438
32.396
32.353
32.309
32.264
32.218
32.173
32.126
32.08
32.034
31.987
31.941
31.894
31.848
31.803
31.759
31.717
31.677
31.638
31.602
31.567
31.534
31.502
31.472
31.444
31.417
31.392
31.367
31.342
31.317
31.292
31.266
31.24
31.212
31.183
31.154
31.124
31.093
31.06
31.026
30.99
30.952
30.913
30.874
30.836
30.797
30.76
30.725
30.692
30.663
30.637
30.618
30.606
30.605
30.617
30.646
30.696
30.77
30.873
31.008
31.177
31.382
31.626
31.909
32.229
32.584
32.973
33.39
33.832
34.292
34.766
35.247
35.729
36.206
36.673
37.124
37.554
37.96
38.337
38.684
38.998
39.28
39.529
39.745
39.93
40.084
40.21
40.309
40.384
40.438
40.471
40.487
40.487
40.474
40.449
40.414
40.371
40.321
40.265
40.205
40.141
40.074
40.005
39.935
39.865
39.794
39.724
39.655
39.588
39.522
39.459
39.398
39.338
39.279
39.219
39.159
39.099
39.037
38.973
38.908
38.842
38.774
38.705
38.637
38.571
38.509
38.452
38.399
38.353
38.314
38.281
38.256
38.237
38.225
38.22
38.221
38.227
38.238
38.253
38.27
38.29
38.311
38.332
38.352
38.369
38.382
38.391
38.395
38.393
38.384
38.37
38.35
38.325
38.294
38.258
38.218
38.172
38.12
38.062
38.0
37.933
37.862
37.788
37.71
37.63
37.548
37.463
37.377
37.289
37.2
37.11
37.019
36.926
36.831
36.736
36.639
36.542
36.443
36.344
36.245
36.145
36.046
35.948
35.85
35.754
35.66
35.569
35.482
35.397
35.316
35.237
35.16
35.086
35.013
34.943
34.875
34.809
34.745
34.684
34.625
34.568
34.513
34.461
34.411
34.363
34.317
34.273
34.229
34.187
34.145
34.104
34.063
34.022
33.981
33.939
33.898
33.857
33.817
33.777
33.739
33.702
33.667
33.633
33.601
33.57
33.54
33.51
33.48
33.451
33.421
33.391
33.36
33.328
33.295
33.261
33.227
33.192
33.156
33.12
33.084
33.048
33.011
32.975
32.939
32.903
32.866
32.829
32.792
32.754
32.716
32.676
32.637
32.597
32.558
32.518
32.479
32.44
32.402
32.365
32.328
32.292
32.257
32.221
32.185
32.15
32.114
32.079
32.044
32.008
31.972
31.935
31.897
31.858
31.818
31.776
31.733
31.689
31.643
31.598
31.552
31.507
31.463
31.419
31.377
31.335
31.295
31.257
31.222
31.192
31.168
31.153
31.149
31.162
31.193
31.249
31.331
31.445
31.592
31.775
31.994
32.249
32.54
32.865
33.222
33.608
34.016
34.444
34.885
35.335
35.787
36.236
36.677
37.105
37.515
37.903
38.264
38.598
38.9
39.17
39.407
39.611
39.784
39.927
40.04
40.127
40.19
40.231
40.252
40.255
40.242
40.216
40.178
40.131
40.075
40.013
39.946
39.876
39.801
39.725
39.646
39.567
39.486
39.406
39.327
39.249
39.173
39.098
39.024
38.95
38.876
38.801
38.724
38.646
38.566
38.484
38.401
38.318
38.235
38.155
38.078
38.005
37.939
37.88
37.829
37.787
37.752
37.727
37.711
37.703
37.705
37.713
37.729
37.75
37.775
37.804
37.835
37.868
37.901
37.934
37.966
37.994
38.019
38.039
38.053
38.062
38.064
38.059
38.048
38.03
38.006
37.976
37.94
37.899
37.852
37.798
37.739
37.674
37.602
37.526
37.445
37.36
37.273
37.183
37.091
36.998
36.905
36.81
36.715
36.618
36.521
36.423
36.323
36.222
36.12
36.017
35.915
35.813
35.713
35.615
35.521
35.43
35.343
35.26
35.18
35.103
35.029
34.957
34.888
34.82
34.753
34.688
34.623
34.56
34.499
34.439
34.381
34.326
34.273
34.223
34.176
34.133
34.093
34.057
34.024
33.993
33.964
33.937
33.91
33.883
33.856
33.829
33.801
33.774
33.746
33.718
33.691
33.664
33.637
33.611
33.584
33.559
33.534
33.51
33.487
33.464
33.442
33.42
33.398
33.376
33.354
33.332
33.31
33.29
33.269
33.248
33.227
33.206
33.184
33.162
33.139
33.116
33.093
33.07
33.046
33.02
32.994
32.965
32.935
32.902
32.868
32.831
32.791
32.75
32.706
32.66
32.612
32.562
32.511
32.46
32.408
32.358
32.311
32.269
32.234
32.21
32.199
32.206
32.234
32.289
32.372
32.489
32.64
32.828
33.052
33.313
33.609
33.938
34.297
34.682
35.088
35.512
35.947
36.389
36.833
37.272
37.703
38.12
38.518
38.894
39.243
39.564
39.855
40.116
40.345
40.544
40.714
40.854
40.966
41.052
41.114
41.152
41.169
41.167
41.148
41.113
41.066
41.009
40.943
40.87
40.793
40.714
40.633
40.552
40.472
40.394
40.318
40.246
40.177
40.111
40.048
39.989
39.932
39.877
39.822
39.767
39.71
39.652
39.591
39.526
39.458
39.386
39.311
39.233
39.155
39.077
39.001
38.929
38.86
38.797
38.741
38.691
38.648
38.613
38.586
38.568
38.557
38.553
38.555
38.562
38.573
38.586
38.601
38.615
38.627
38.638
38.645
38.648
38.647
38.64
38.627
38.608
38.584
38.554
38.519
38.478
38.432
38.382
38.326
38.265
38.199
38.128
38.052
37.972
37.888
37.799
37.708
37.614
37.519
37.423
37.327
37.231
37.136
37.04
36.945
36.849
36.752
36.655
36.559
36.462
36.365
36.27
36.175
36.08
35.986
35.892
35.801
35.712
35.626
35.543
35.462
35.384
35.308
35.235
35.164
35.096
35.03
34.967
34.907
34.849
34.793
34.739
34.687
34.638
34.59
34.544
34.498
34.454
34.411
34.369
34.326
34.284
34.242
34.2
34.158
34.116
34.074
34.033
33.991
33.951
33.912
33.873
33.836
33.798
33.76
33.723
33.685
33.648
33.61
33.571
33.533
33.494
33.456
33.419
33.383
33.348
33.315
33.283
33.253
33.224
33.196
33.168
33.14
33.112
33.082
33.05
33.018
32.983
32.947
32.91
32.871
32.831
32.789
32.746
32.701
32.654
32.605
32.553
32.499
32.443
32.387
32.33
32.274
32.218
32.165
32.113
32.063
32.016
31.974
31.937
31.907
31.888
31.882
31.892
31.922
31.975
32.056
32.167
32.312
32.492
32.71
32.964
33.254
33.579
33.936
34.323
34.735
35.167
35.614
36.071
36.531
36.987
37.435
37.869
38.283
38.673
39.034
39.365
39.664
39.928
40.158
40.355
40.52
40.655
40.761
40.84
40.896
40.929
40.944
40.941
40.924
40.895
40.855
40.808
40.755
40.697
40.636
40.574
40.51
40.448
40.387
40.328
40.271
40.217
40.166
40.118
40.073
40.03
39.989
39.948
39.907
39.865
39.82
39.771
39.717
39.658
39.594
39.524
39.449
39.369
39.287
39.202
39.117
39.033
38.95
38.869
38.793
38.722
38.657
38.598
38.545
38.499
38.46
38.426
38.399
38.375
38.356
38.34
38.326
38.312
38.297
38.281
38.263
38.243
38.219
38.191
38.159
38.123
38.082
38.037
37.988
37.935
37.879
37.818
37.754
37.687
37.617
37.544
37.469
37.391
37.311
37.23
37.146
37.061
36.974
36.886
36.796
36.705
36.612
36.517
36.421
36.322
36.222
36.121
36.018
35.914
35.811
35.708
35.606
35.504
35.405
35.309
35.215
35.124
35.036
34.952
34.869
34.789
34.711
34.634
34.559
34.486
34.414
34.342
34.272
34.202
34.134
34.067
34.001
33.939
33.879
33.822
33.769
33.719
33.672
33.628
33.587
33.547
33.508
33.471
33.433
33.395
33.357
33.318
33.279
33.239
33.199
33.159
33.119
33.078
33.036
32.993
32.949
32.904
32.858
32.813
32.768
32.723
32.68
32.638
32.597
32.558
32.52
32.483
32.445
32.408
32.371
32.333
32.295
32.257
32.218
32.177
32.136
32.093
32.049
32.004
31.957
31.91
31.862
31.813
31.764
31.715
31.666
31.617
31.569
31.521
31.471
31.421
31.369
31.315
31.259
31.203
31.145
31.087
31.029
30.971
30.915
30.862
30.811
30.765
30.725
30.694
30.673
30.666
30.676
30.706
30.758
30.838
30.946
31.087
31.26
31.466
31.705
31.974
32.27
32.591
32.931
33.286
33.651
34.02
34.389
34.752
35.104
35.44
35.758
36.054
36.325
36.569
36.787
36.976
37.138
37.273
37.382
37.466
37.529
37.572
37.596
37.605
37.599
37.583
37.557
37.524
37.486
37.443
37.396
37.348
37.299
37.25
37.202
37.156
37.113
37.072
37.036
37.003
36.975
36.95
36.928
36.908
36.889
36.87
36.85
36.827
36.8
36.769
36.732
36.689
36.641
36.588
36.529
36.466
36.4
36.332
36.263
36.196
36.132
36.071
36.015
35.965
35.919
35.879
35.844
35.815
35.79
35.77
35.755
35.742
35.733
35.726
35.721
35.717
35.713
35.709
35.705
35.699
35.691
35.681
35.667
35.649
35.626
35.598
35.564
35.524
35.479
35.429
35.374
35.316
35.255
35.19
35.124
35.056
34.986
34.915
34.842
34.767
34.691
34.615
34.538
34.46
34.381
34.301
34.222
34.144
34.066
33.988
33.912
33.838
33.765
33.693
33.624
33.556
33.489
33.424
33.361
33.299
33.237
33.177
33.117
33.057
32.998
32.938
32.878
32.817
32.757
32.697
32.639
32.582
32.528
32.476
32.427
32.38
32.336
32.295
32.255
32.218
32.18
32.144
32.107
32.07
32.032
31.994
31.955
31.916
31.876
31.835
31.795
31.754
31.713
31.673
31.633
31.595
31.557
31.521
31.486
31.452
31.418
31.384
31.35
31.315
31.28
31.244
31.207
31.17
31.133
31.095
31.058
31.021
30.984
30.947
30.91
30.873
30.837
30.8
30.764
30.729
30.694
30.659
30.625
30.591
30.559
30.527
30.496
30.466
30.436
30.408
30.38
30.352
30.324
30.297
30.268
30.239
30.209
30.178
30.147
30.115
30.082
30.049
30.015
29.98
29.945
29.91
29.876
29.841
29.806
29.772
29.738
29.705
29.674
29.643
29.613
29.583
29.554
29.526
29.498
29.47
29.444
29.418
29.393
29.369
29.346
29.324
29.304
29.285
29.268
29.256
29.25
29.253
29.266
29.294
29.338
29.402
29.488
29.598
29.733
29.893
30.077
30.285
30.514
30.761
31.025
31.3
31.585
31.876
32.168
32.458
32.743
33.018
33.28
33.527
33.756
33.963
34.148
34.31
34.449
34.564
34.656
34.727
34.777
34.81
34.827
34.83
34.822
34.806
34.782
34.754
34.724
34.691
34.659
34.628
34.598
34.571
34.545
34.521
34.499
34.478
34.46
34.442
34.427
34.413
34.402
34.392
34.385
34.379
34.375
34.37
34.364
34.356
34.347
34.334
34.319
34.302
34.282
34.26
34.237
34.213
34.19
34.168
34.148
34.131
34.117
34.107
34.1
34.098
34.1
34.105
34.113
34.123
34.136
34.151
34.167
34.183
34.198
34.211
34.222
34.23
34.234
34.234
34.23
34.223
34.212
34.199
34.182
34.162
34.138
34.111
34.08
34.044
34.004
33.959
33.91
33.858
33.801
33.741
33.679
33.615
33.551
33.487
33.426
33.366
33.31
33.257
33.206
33.159
33.114
33.07
33.029
32.988
32.949
32.91
32.871
32.832
32.793
32.752
32.71
32.668
32.625
32.582
32.538
32.495
32.451
32.407
32.363
32.319
32.275
32.23
32.186
32.143
32.099
32.057
32.015
31.975
31.935
31.897
31.86
31.825
31.793
31.763
31.735
31.71
31.688
31.667
31.648
31.631
31.616
31.601
31.587
31.574
31.561
31.547
31.533
31.519
31.503
31.487
31.469
31.45
31.431
31.41
31.388
31.365
31.34
31.315
31.289
31.263
31.236
31.21
31.183
31.157
31.131
31.105
31.079
31.053
31.028
31.004
30.981
30.959
30.939
30.921
30.905
30.89
30.877
30.865
30.852
30.84
30.828
30.814
30.799
30.783
30.764
30.742
30.719
30.692
30.664
30.635
30.605
30.575
30.545
30.514
30.484
30.454
30.425
30.397
30.37
30.344
30.32
30.297
30.275
30.255
30.235
30.217
30.2
30.184
30.168
30.152
30.136
30.119
30.103
30.087
30.071
30.056
30.041
30.029
30.019
30.014
30.016
30.026
30.046
30.078
30.124
30.186
30.265
30.362
30.478
30.613
30.766
30.937
31.123
31.322
31.532
31.749
31.97
32.192
32.411
32.625
32.831
33.025
33.207
33.373
33.523
33.655
33.77
33.866
33.945
34.006
34.051
34.082
34.099
34.106
34.103
34.093
34.077
34.056
34.032
34.005
33.976
33.947
33.918
33.89
33.862
33.835
33.809
33.785
33.763
33.742
33.723
33.706
33.692
33.681
33.672
33.664
33.658
33.653
33.647
33.641
33.633
33.623
33.611
33.597
33.582
33.564
33.545
33.526
33.507
33.489
33.472
33.457
33.444
33.434
33.427
33.426
33.428
33.435
33.446
33.461
33.479
33.499
33.522
33.548
33.574
33.6
33.625
33.649
33.671
33.691
33.707
33.721
33.73
33.736
33.739
33.738
33.734
33.727
33.718
33.705
33.69
33.673
33.652
33.63
33.604
33.576
33.546
33.514
33.481
33.446
33.411
33.375
33.339
33.303
33.267
33.232
33.198
33.164
33.13
33.097
33.065
33.033
33.001
32.969
32.937
32.905
32.874
32.842
32.811
32.78
32.75
32.72
32.692
32.664
32.637
32.611
32.585
32.56
32.536
32.513
32.491
32.47
32.451
32.432
32.414
32.397
32.381
32.364
32.347
32.328
32.308
32.287
32.266
32.246
32.226
32.208
32.191
32.177
32.164
32.152
32.14
32.128
32.116
32.104
32.091
32.077
32.064
32.05
32.036
32.022
32.008
31.994
31.98
31.967
31.953
31.939
31.924
31.909
31.894
31.878
31.861
31.844
31.826
31.808
31.789
31.771
31.754
31.737
31.721
31.705
31.69
31.676
31.663
31.649
31.635
31.621
31.608
31.594
31.581
31.567
31.554
31.539
31.524
31.507
31.49
31.473
31.455
31.437
31.419
31.401
31.384
31.367
31.351
31.335
31.319
31.304
31.289
31.274
31.259
31.245
31.231
31.217
31.204
31.19
31.175
31.159
31.143
31.126
31.109
31.092
31.075
31.059
31.043
31.027
31.011
30.996
30.98
30.966
30.952
30.941
30.933
30.93
30.934
30.947
30.971
31.009
31.062
31.133
31.223
31.333
31.463
31.613
31.782
31.967
32.167
32.379
32.598
32.821
33.046
33.267
33.482
33.688
33.882
34.062
34.227
34.375
34.506
34.619
34.717
34.798
34.864
34.916
34.955
34.982
34.998
35.005
35.005
34.998
34.986
34.971
34.953
34.934
34.914
34.893
34.873
34.854
34.837
34.822
34.808
34.797
34.788
34.782
34.778
34.777
34.778
34.782
34.787
34.793
34.8
34.807
34.815
34.822
34.828
34.834
34.839
34.841
34.841
34.839
34.833
34.825
34.814
34.8
34.786
34.771
34.756
34.743
34.732
34.723
34.718
34.715
34.716
34.721
34.73
34.742
34.758
34.776
34.797
34.818
34.839
34.86
34.88
34.898
34.913
34.924
34.932
34.936
34.937
34.933
34.926
34.917
34.905
34.891
34.877
34.861
34.844
34.827
34.81
34.791
34.771
34.749
34.725
34.699
34.672
34.643
34.613
34.582
34.551
34.519
34.487
34.456
34.425
34.395
34.365
34.336
34.306
34.276
34.247
34.217
34.188
34.157
34.127
34.096
34.066
34.036
34.007
33.979
33.952
33.927
33.902
33.879
33.856
33.835
33.814
33.793
33.774
33.755
33.736
33.719
33.701
33.684
33.667
33.651
33.636
33.621
33.607
33.592
33.578
33.564
33.55
33.535
33.52
33.505
33.489
33.473
33.457
33.441
33.424
33.408
33.391
33.374
33.357
33.339
33.321
33.305
33.288
33.273
33.26
33.246
33.234
33.222
33.21
33.199
33.187
33.175
33.162
33.148
33.133
33.117
33.1
33.082
33.063
33.043
33.023
33.002
32.983
32.963
32.945
32.927
32.911
32.895
32.879
32.863
32.847
32.83
32.811
32.79
32.768
32.746
32.723
32.7
32.678
32.656
32.635
32.614
32.594
32.576
32.558
32.542
32.527
32.513
32.501
32.489
32.476
32.464
32.45
32.436
32.422
32.406
32.39
32.374
32.357
32.339
32.32
32.299
32.276
32.253
32.229
32.206
32.183
32.161
32.14
32.122
32.106
32.092
32.083
32.078
32.079
32.089
32.109
32.141
32.188
32.249
32.328
32.424
32.538
32.669
32.819
32.985
33.166
33.359
33.562
33.772
33.985
34.2
34.412
34.618
34.815
35.002
35.175
35.332
35.474
35.599
35.707
35.797
35.871
35.929
35.973
36.004
36.024
36.036
36.039
36.037
36.03
36.019
36.005
35.99
35.972
35.954
35.935
35.915
35.896
35.878
35.862
35.847
35.834
35.824
35.817
35.814
35.814
35.818
35.825
35.834
35.846
35.859
35.873
35.887
35.899
35.909
35.917
35.922
35.923
35.922
35.918
35.912
35.903
35.892
35.88
35.866
35.852
35.838
35.826
35.815
35.807
35.802
35.801
35.803
35.809
35.819
35.834
35.852
35.874
35.898
35.923
35.948
35.973
35.996
36.016
36.033
36.046
36.055
36.059
36.059
36.055
36.047
36.035
36.022
36.006
35.989
35.97
35.95
35.93
35.909
35.888
35.866
35.844
35.821
35.798
35.775
35.752
35.728
35.703
35.678
35.652
35.626
35.6
35.574
35.548
35.522
35.497
35.472
35.448
35.423
35.399
35.374
35.349
35.324
35.298
35.271
35.245
35.22
35.195
35.171
35.149
35.128
35.108
35.089
35.071
35.053
35.037
35.02
35.003
34.986
34.968
34.95
34.931
34.911
34.892
34.873
34.855
34.836
34.818
34.799
34.779
34.758
34.735
34.71
34.684
34.655
34.624
34.591
34.556
34.52
34.482
34.444
34.405
34.366
34.328
34.292
34.258
34.229
34.203
34.181
34.163
34.149
34.137
34.128
34.121
34.114
34.108
34.101
34.092
34.081
34.066
34.047
34.026
34.0
33.972
33.941
33.907
33.871
33.835
33.798
33.762
33.726
33.692
33.659
33.628
33.598
33.57
33.542
33.516
33.491
33.467
33.444
33.422
33.401
33.382
33.363
33.345
33.327
33.309
33.29
33.271
33.25
33.228
33.204
33.177
33.149
33.119
33.087
33.054
33.02
32.986
32.953
32.921
32.89
32.862
32.836
32.813
32.794
32.78
32.772
32.771
32.779
32.797
32.827
32.869
32.926
32.998
33.085
33.19
33.311
33.449
33.603
33.771
33.953
34.145
34.345
34.551
34.759
34.966
35.171
35.369
35.56
35.741
35.909
36.065
36.206
36.332
36.443
36.539
36.62
36.688
36.743
36.786
36.819
36.842
36.857
36.864
36.865
36.859
36.848
36.833
36.814
36.794
36.772
36.751
36.73
36.711
36.693
36.678
36.664
36.652
36.642
36.632
36.624
36.617
36.61
36.603
36.595
36.585
36.573
36.559
36.543
36.524
36.503
36.479
36.454
36.428
36.402
36.376
36.351
36.327
36.305
36.285
36.267
36.251
36.239
36.231
36.227
36.229
36.235
36.246
36.261
36.278
36.297
36.317
36.337
36.355
36.372
36.386
36.398
36.405
36.409
36.409
36.406
36.398
36.387
36.373
36.356
36.337
36.316
36.294
36.269
36.243
36.216
36.188
36.159
36.129
36.1
36.071
36.041
36.011
35.98
35.948
35.916
35.883
35.849
35.814
35.778
35.74
35.7
35.659
35.616
35.572
35.527
35.482
35.437
35.394
35.351
35.311
35.274
35.239
35.207
35.179
35.152
35.127
35.104
35.082
35.061
35.04
35.02
35.0
34.98
34.959
34.939
34.918
34.899
34.88
34.861
34.844
34.826
34.809
34.792
34.775
34.759
34.742
34.726
34.711
34.696
34.682
34.668
34.654
34.639
34.624
34.609
34.593
34.578
34.562
34.546
34.531
34.515
34.5
34.483
34.466
34.449
34.431
34.412
34.392
34.372
34.352
34.332
34.312
34.292
34.272
34.251
34.23
34.208
34.185
34.161
34.135
34.109
34.081
34.053
34.024
33.994
33.965
33.935
33.906
33.876
33.847
33.819
33.79
33.762
33.732
33.702
