Trial 1:0back
33.767
33.751
33.735
33.718
33.7
33.68
33.659
33.636
33.612
33.586
33.561
33.535
33.509
33.484
33.459
33.435
33.411
33.387
33.364
33.342
33.321
33.302
33.283
33.266
33.249
33.233
33.218
33.204
33.191
33.18
33.17
33.162
33.154
33.147
33.141
33.137
33.136
33.141
33.152
33.171
33.201
33.241
33.296
33.366
33.453
33.558
33.682
33.823
33.981
34.153
34.337
34.529
34.727
34.926
35.125
35.32
35.507
35.682
35.844
35.988
36.113
36.218
36.303
36.368
36.413
36.441
36.453
36.452
36.439
36.418
36.389
36.356
36.321
36.286
36.251
36.217
36.185
36.155
36.127
36.1
36.076
36.053
36.032
36.013
35.996
35.981
35.967
35.953
35.938
35.922
35.905
35.886
35.866
35.846
35.824
35.802
35.78
35.755
35.73
35.702
35.672
35.64
35.605
35.567
35.527
35.485
35.442
35.399
35.355
35.311
35.268
35.226
35.185
35.147
35.112
35.081
35.055
35.032
35.014
34.999
34.987
34.98
34.977
34.978
34.984
34.993
35.004
35.016
35.028
35.039
35.049
35.058
35.065
35.072
35.076
35.078
35.077
35.073
35.067
35.057
35.044
35.029
35.01
34.987
34.96
34.93
34.896
34.86
34.822
34.785
34.747
34.709
34.671
34.633
34.594
34.554
34.515
34.475
34.437
34.399
34.362
34.326
34.29
34.255
34.221
34.187
34.155
34.124
34.094
34.063
34.031
33.994
33.952
33.906
33.86
33.814
33.772
33.735
33.703
33.678
33.658
33.644
33.634
33.627
33.624
33.621
33.618
33.615
33.609
33.602
33.592
33.579
33.564
33.547
33.528
33.509
33.488
33.466
33.444
33.423
33.401
33.381
33.361
33.342
33.325
33.309
33.295
33.283
33.271
33.26
33.249
33.238
33.227
33.215
33.203
33.19
33.176
33.162
33.149
33.135
33.12
33.105
33.089
33.072
33.054
33.034
33.014
32.994
32.974
32.955
32.939
32.925
32.913
32.903
32.894
32.887
32.88
32.875
32.869
32.864
32.858
32.851
32.842
32.832
32.821
32.809
32.797
32.784
32.77
32.755
32.741
32.726
32.713
32.702
32.691
32.682
32.672
32.664
32.655
32.648
32.642
32.637
32.633
32.63
32.627
32.624
32.622
32.623
32.625
32.63
32.636
32.641
32.646
32.648
32.648
32.645
32.642
32.638
32.633
32.628
32.623
32.616
32.608
32.602
32.597
32.597
32.603
32.615
32.636
32.664
32.705
32.758
32.829
32.919
33.03
33.161
33.313
33.481
33.664
33.857
34.058
34.264
34.471
34.676
34.874
35.063
35.24
35.401
35.544
35.669
35.776
35.864
35.934
35.987
36.025
36.049
36.064
36.075
36.082
36.087
36.089
36.087
36.081
36.071
36.056
36.037
36.013
35.985
35.955
35.922
35.889
35.855
35.822
35.79
35.76
35.732
35.708
35.686
35.669
35.655
35.646
35.64
35.639
35.64
35.643
35.646
35.65
35.652
35.652
35.649
35.642
35.63
35.614
35.593
35.569
35.542
35.512
35.481
35.45
35.419
35.389
35.36
35.333
35.307
35.283
35.26
35.238
35.218
35.199
35.182
35.167
35.154
35.143
35.134
35.126
35.119
35.113
35.108
35.103
35.097
35.091
35.084
35.076
35.066
35.055
35.042
35.027
35.012
34.996
34.981
34.966
34.953
34.94
34.927
34.914
34.9
34.884
34.868
34.849
34.831
34.811
34.793
34.774
34.756
34.739
34.722
34.705
34.689
34.671
34.653
34.632
34.61
34.585
34.559
34.53
34.5
34.469
34.437
34.405
34.373
34.343
34.313
34.286
34.26
34.236
34.213
34.192
34.171
34.151
34.13
34.109
34.088
34.067
34.047
34.028
34.011
33.995
33.979
33.964
33.948
33.932
33.915
33.898
33.88
33.861
33.842
33.823
33.804
33.785
33.766
33.748
33.73
33.714
33.698
33.683
33.669
33.656
33.645
33.634
33.625
33.617
33.609
33.602
33.595
33.589
33.582
33.576
33.57
33.563
33.557
33.55
33.542
33.533
33.521
33.508
33.493
33.478
33.462
33.447
33.433
33.421
33.409
33.399
33.39
33.381
33.374
33.367
33.361
33.355
33.351
33.347
33.343
33.339
33.336
33.332
33.329
33.326
33.323
33.32
33.316
33.313
33.31
33.307
33.304
33.3
33.297
33.292
33.287
33.28
33.272
33.262
33.251
33.24
33.229
33.219
33.208
33.198
33.187
33.178
33.169
33.161
33.154
33.147
33.142
33.137
33.132
33.129
33.128
33.128
33.128
33.128
33.125
33.12
33.112
33.102
33.091
33.078
33.065
33.053
33.044
33.038
33.041
33.053
33.08
33.123
33.185
33.266
33.365
33.484
33.621
33.775
33.945
34.131
34.328
34.535
34.747
34.96
35.17
35.372
35.565
35.745
35.91
36.059
36.188
36.298
36.388
36.457
36.507
36.54
36.558
36.563
36.558
36.543
36.521
36.493
36.46
36.425
36.388
36.351
36.314
36.277
36.24
36.204
36.169
36.136
36.104
36.075
36.05
36.028
36.011
35.997
35.987
35.979
35.974
35.972
35.97
35.97
35.971
35.973
35.974
35.975
35.974
35.97
35.965
35.956
35.945
35.931
35.914
35.894
35.87
35.842
35.812
35.78
35.747
35.713
35.681
35.649
35.618
35.59
35.566
35.545
35.529
35.519
35.514
35.513
35.515
35.518
35.522
35.527
35.531
35.535
35.539
35.542
35.545
35.547
35.547
35.547
35.545
35.544
35.543
35.543
35.544
35.544
35.543
35.54
35.534
35.526
35.515
35.502
35.488
35.472
35.456
35.438
35.42
35.4
35.38
35.358
35.334
35.31
35.283
35.256
35.228
35.199
35.169
35.14
35.111
35.083
35.056
35.029
35.003
34.976
34.95
34.923
34.897
34.87
34.844
34.818
34.792
34.766
34.741
34.717
34.694
34.673
34.652
34.632
34.612
34.593
34.574
34.555
34.537
34.519
34.502
34.486
34.471
34.458
34.447
34.438
34.429
34.422
34.416
34.41
34.403
34.395
34.383
34.369
34.351
34.331
34.311
34.29
34.27
34.252
34.237
34.223
34.212
34.203
34.195
34.188
34.18
34.172
34.163
34.154
34.144
34.133
34.122
34.11
34.098
34.084
34.069
34.054
34.039
34.023
34.008
33.993
33.978
33.963
33.95
33.938
33.927
33.918
33.911
33.905
33.899
33.895
33.89
33.886
33.881
33.877
33.872
33.867
33.862
33.856
33.85
33.843
33.835
33.826
33.816
33.804
33.79
33.776
33.76
33.745
33.73
33.717
33.706
33.695
33.686
33.679
33.672
33.669
33.668
33.673
33.683
33.702
33.731
33.771
33.826
33.896
33.982
34.086
34.208
34.347
34.502
34.672
34.854
35.046
35.245
35.447
35.649
35.848
36.04
36.223
36.394
36.551
36.692
36.816
36.923
37.011
37.082
37.135
37.171
37.192
37.199
37.195
37.181
37.16
37.133
37.102
37.069
37.035
37.002
36.971
36.943
36.918
36.898
36.88
36.865
36.852
36.84
36.828
36.817
36.806
36.794
36.783
36.771
36.76
36.749
36.738
36.726
36.715
36.705
36.695
36.685
36.674
36.661
36.646
36.627
36.605
36.58
36.553
36.523
36.492
36.46
36.427
36.394
36.36
36.328
36.298
36.271
36.247
36.226
36.208
36.193
36.181
36.17
36.161
36.154
36.149
36.144
36.14
36.137
36.133
36.129
36.126
36.125
36.125
36.125
36.125
36.123
36.117
36.108
36.094
36.075
36.053
36.027
35.999
35.968
35.936
35.904
35.871
35.839
35.807
35.775
35.745
35.716
35.687
35.659
35.632
35.605
35.579
35.554
35.529
35.505
35.482
35.459
35.436
35.412
35.387
35.362
35.337
35.312
35.288
35.264
35.24
35.216
35.192
35.168
35.144
35.12
35.097
35.074
35.051
35.026
34.999
34.969
34.937
34.903
34.87
34.837
34.805
34.776
34.749
34.724
34.703
34.684
34.668
34.655
34.645
34.637
34.63
34.625
34.62
34.615
34.612
34.614
34.624
34.64
34.661
34.684
34.705
34.723
34.735
34.739
34.735
34.721
34.7
34.672
34.639
34.603
34.566
34.528
34.492
34.459
34.428
34.402
34.379
34.359
34.342
34.326
34.312
34.299
34.287
34.277
34.268
34.259
34.25
34.24
34.229
34.216
34.203
34.189
34.174
34.159
34.143
34.127
34.111
34.095
34.081
34.069
34.06
34.053
34.049
34.047
34.045
34.044
34.043
34.04
34.036
34.032
34.027
34.021
34.014
34.006
33.997
33.987
33.976
33.964
33.952
33.939
33.924
33.909
33.892
33.874
33.855
33.837
33.818
33.8
33.783
33.767
33.751
33.735
33.717
33.699
33.68
33.661
33.642
33.624
33.608
33.596
33.588
33.587
33.594
33.609
33.635
33.671
33.721
33.784
33.863
33.961
34.079
34.217
34.374
34.551
34.744
34.953
35.174
35.404
35.64
35.878
36.112
36.339
36.555
36.757
36.941
37.106
37.251
37.374
37.475
37.556
37.616
37.657
37.682
37.692
37.69
37.676
37.653
37.623
37.587
37.546
37.501
37.455
37.408
37.362
37.32
37.282
37.249
37.221
37.198
37.179
37.164
37.154
37.147
37.144
37.144
37.147
37.15
37.153
37.155
37.153
37.149
37.141
37.13
37.115
37.097
37.075
37.048
37.018
36.984
36.948
36.909
36.869
36.828
36.786
36.745
36.706
36.672
36.643
36.619
36.599
36.581
36.565
36.548
36.531
36.512
36.491
36.468
36.444
36.42
36.396
36.374
36.352
36.333
36.314
36.295
36.277
36.26
36.244
36.23
36.218
36.206
36.194
36.181
36.167
36.151
36.134
36.116
36.096
36.075
36.052
36.027
36.0
35.971
35.94
35.909
35.878
35.848
35.817
35.787
35.756
35.724
35.693
35.662
35.631
35.601
35.571
35.541
35.51
35.48
35.449
35.42
35.392
35.366
35.342
35.319
35.297
35.275
35.252
35.229
35.206
35.184
35.162
35.14
35.118
35.095
35.072
35.048
35.024
35.001
34.978
34.957
34.934
34.911
34.887
34.86
34.831
34.801
34.772
34.745
34.719
34.696
34.673
34.651
34.629
34.608
34.587
34.568
34.55
34.533
34.517
34.502
34.485
34.469
34.454
34.44
34.43
34.422
34.416
34.41
34.404
34.397
34.389
34.379
34.37
34.361
34.352
34.344
34.334
34.323
34.31
34.297
34.284
34.274
34.265
34.257
34.25
34.241
34.23
34.218
34.204
34.19
34.178
34.166
34.155
34.145
34.133
34.12
34.107
34.093
34.081
34.07
34.061
34.053
34.045
34.036
34.028
34.02
34.014
34.009
34.005
34.001
33.996
33.99
33.984
33.981
33.979
33.98
33.982
33.984
33.984
33.981
33.973
33.959
33.939
33.913
33.884
33.852
33.819
33.786
33.753
33.722
33.694
33.669
33.647
33.63
33.618
33.61
33.604
33.601
33.6
33.6
33.604
33.613
33.627
33.649
33.68
33.721
33.775
33.844
33.928
34.029
34.15
34.289
34.448
34.625
34.818
35.025
35.244
35.471
35.704
35.939
36.171
36.397
36.611
36.811
36.992
37.153
37.291
37.408
37.503
37.576
37.628
37.66
37.674
37.673
37.658
37.633
37.602
37.566
37.528
37.489
37.451
37.413
37.377
37.344
37.314
37.288
37.264
37.244
37.226
37.211
37.198
37.186
37.176
37.167
37.16
37.153
37.147
37.143
37.14
37.137
37.134
37.128
37.12
37.109
37.094
37.074
37.049
37.018
36.981
36.938
36.892
36.843
36.793
36.744
36.697
36.651
36.608
36.567
36.529
36.495
36.466
36.442
36.423
36.408
36.397
36.389
36.383
36.379
36.377
36.377
36.378
36.38
36.382
36.384
36.385
36.385
36.383
36.378
36.371
36.362
36.352
36.34
36.327
36.312
36.296
36.278
36.259
36.239
36.218
36.196
36.173
36.149
36.123
36.096
36.068
36.04
36.012
35.984
35.957
35.929
35.902
35.874
35.845
35.816
35.785
35.754
35.721
35.687
35.652
35.616
35.579
35.541
35.502
35.464
35.427
35.389
35.353
35.317
35.282
35.247
35.214
35.18
35.148
35.116
35.085
35.054
35.025
34.998
34.972
34.949
34.928
34.908
34.888
34.868
34.847
34.825
34.804
34.782
34.761
34.741
34.722
34.704
34.686
34.67
34.655
34.641
34.629
34.618
34.607
34.597
34.585
34.573
34.559
34.545
34.531
34.517
34.502
34.487
34.472
34.456
34.439
34.422
34.405
34.388
34.371
34.356
34.341
34.327
34.314
34.303
34.292
34.281
34.27
34.259
34.246
34.232
34.217
34.201
34.184
34.166
34.147
34.128
34.108
34.088
34.068
34.049
34.031
34.012
33.992
33.971
33.951
33.93
33.912
33.895
33.881
33.869
33.86
33.853
33.847
33.843
33.84
33.838
33.835
33.83
33.824
33.817
33.808
33.798
33.788
33.777
33.766
33.755
33.746
33.74
33.738
33.744
33.761
33.79
33.834
33.896
33.978
34.081
34.207
34.356
34.527
34.718
34.926
35.148
35.379
35.614
35.85
36.084
36.31
36.526
36.73
36.917
37.085
37.232
37.358
37.462
37.546
37.611
37.657
37.687
37.701
37.7
37.686
37.661
37.628
37.589
37.548
37.505
37.462
37.421
37.382
37.346
37.314
37.286
37.263
37.246
37.235
37.227
37.223
37.221
37.22
37.22
37.218
37.217
37.214
37.209
37.203
37.194
37.181
37.165
37.145
37.122
37.096
37.068
37.038
37.005
36.969
36.929
36.887
36.841
36.793
36.744
36.695
36.647
36.6
36.555
36.513
36.474
36.44
36.409
36.382
36.36
36.341
36.325
36.311
36.3
36.291
36.285
36.281
36.28
36.279
36.277
36.274
36.269
36.262
36.253
36.243
36.231
36.217
36.202
36.183
36.163
36.14
36.115
36.09
36.064
36.038
36.012
35.987
35.96
35.932
35.903
35.872
35.84
35.808
35.776
35.745
35.713
35.681
35.648
35.615
35.582
35.552
35.523
35.497
35.472
35.448
35.425
35.401
35.375
35.349
35.322
35.295
35.269
35.243
35.216
35.189
35.162
35.136
35.111
35.088
35.067
35.048
35.029
35.011
34.992
34.974
34.954
34.934
34.913
34.891
34.869
34.847
34.825
34.802
34.779
34.756
34.732
34.708
34.684
34.659
34.635
34.61
34.587
34.564
34.543
34.523
34.505
34.489
34.474
34.46
34.446
34.431
34.415
34.397
34.379
34.359
34.338
34.318
34.296
34.275
34.253
34.231
34.209
34.188
34.167
34.147
34.128
34.108
34.087
34.067
34.048
34.031
34.015
34.001
33.987
33.972
33.956
33.94
33.923
33.907
33.892
33.878
33.864
33.849
33.834
33.818
33.803
33.789
33.777
33.765
33.751
33.737
33.72
33.703
33.685
33.667
33.65
33.634
33.619
33.604
33.59
33.577
33.565
33.555
33.547
33.54
33.535
33.529
33.524
33.518
33.511
33.504
33.496
33.487
33.478
33.468
33.457
33.446
33.435
33.424
33.414
33.405
33.398
33.392
33.387
33.383
33.378
33.373
33.367
33.361
33.354
33.346
33.338
33.331
33.324
33.319
33.317
33.321
33.333
33.355
33.389
33.438
33.503
33.588
33.693
33.821
33.971
34.145
34.339
34.552
34.781
35.019
35.264
35.511
35.756
35.995
36.223
36.438
36.636
36.815
36.973
37.11
37.224
37.318
37.391
37.445
37.483
37.507
37.516
37.514
37.501
37.479
37.449
37.415
37.377
37.337
37.297
37.256
37.216
37.177
37.14
37.106
37.076
37.05
37.027
37.008
36.992
36.978
36.966
36.956
36.948
36.942
36.937
36.933
36.93
36.927
36.923
36.918
36.913
36.907
36.899
36.89
36.878
36.862
36.841
36.815
36.784
36.747
36.707
36.665
36.62
36.574
36.528
36.483
36.44
36.4
36.364
36.332
36.306
36.283
36.265
36.248
36.233
36.22
36.207
36.197
36.189
36.183
36.18
36.178
36.175
36.172
36.168
36.162
36.156
36.15
36.142
36.134
36.123
36.111
36.095
36.077
36.058
36.036
36.014
35.991
35.968
35.945
35.921
35.896
35.87
35.844
35.816
35.789
35.761
35.733
35.705
35.676
35.646
35.616
35.585
35.554
35.523
35.491
35.459
35.426
35.392
35.356
35.32
35.285
35.25
35.216
35.184
35.153
35.123
35.094
35.066
35.04
35.014
34.989
34.964
34.94
34.916
34.892
34.868
34.845
34.822
34.8
34.78
34.76
34.74
34.722
34.703
34.686
34.668
34.651
34.633
34.616
34.599
34.582
34.566
34.551
34.536
34.522
34.509
34.495
34.481
34.467
34.453
34.438
34.423
34.408
34.393
34.378
34.363
34.349
34.335
34.322
34.309
34.296
34.283
34.269
34.254
34.239
34.223
34.205
34.188
34.17
34.153
34.137
34.122
34.109
34.098
34.087
34.077
34.066
34.055
34.045
34.034
34.024
34.013
34.002
33.989
33.975
33.96
33.945
33.93
33.916
33.902
33.887
33.871
33.854
33.834
33.814
33.794
33.774
33.757
33.742
33.728
33.716
33.705
33.694
33.686
33.68
33.676
33.674
33.673
33.673
33.673
33.673
33.673
33.673
33.673
33.673
33.673
33.671
33.668
33.662
33.655
33.648
33.64
33.634
33.63
33.628
33.628
33.631
33.638
33.649
33.666
33.69
33.724
33.769
33.827
33.901
33.992
34.102
34.232
34.383
34.553
34.741
34.944
35.16
35.385
35.616
35.85
36.083
36.312
36.533
36.743
36.939
37.118
37.279
37.421
37.544
37.647
37.731
37.796
37.844
37.874
37.889
37.889
37.877
37.855
37.824
37.786
37.741
37.69
37.634
37.575
37.513
37.452
37.393
37.337
37.286
37.24
37.2
37.165
37.134
37.108
37.085
37.067
37.054
37.044
37.037
37.031
37.025
37.017
37.007
36.995
36.979
36.962
36.941
36.916
36.887
36.854
36.817
36.778
36.738
36.698
36.659
36.624
36.59
36.559
36.531
36.505
36.482
36.46
36.442
36.425
36.409
36.394
36.38
36.365
36.349
36.333
36.315
36.296
36.277
36.257
36.238
36.218
36.199
36.179
36.16
36.14
36.119
36.098
36.077
36.055
36.032
36.009
35.985
35.961
35.937
35.913
35.889
35.865
35.841
35.816
35.792
35.767
35.743
35.719
35.695
35.671
35.647
35.622
35.597
35.573
35.547
35.521
35.493
35.464
35.433
35.4
35.366
35.332
35.296
35.259
35.222
35.184
35.145
35.107
35.07
35.034
35.0
34.968
34.938
34.91
34.882
34.856
34.829
34.803
34.777
34.752
34.727
34.702
34.678
34.654
34.631
34.608
34.587
34.566
34.546
34.526
34.507
34.489
34.47
34.452
34.435
34.42
34.405
34.392
34.379
34.368
34.357
34.347
34.338
34.329
34.32
34.311
34.301
34.293
34.284
34.277
34.269
34.262
34.254
34.244
34.234
34.222
34.208
34.193
34.177
34.16
34.142
34.123
34.103
34.082
34.062
34.041
34.021
34.001
33.982
33.963
33.945
33.929
33.914
33.901
33.889
33.88
33.871
33.864
33.856
33.85
33.844
33.837
33.83
33.823
33.814
33.804
33.793
33.782
33.77
33.758
33.746
33.732
33.718
33.701
33.683
33.664
33.644
33.625
33.608
33.592
33.577
33.564
33.552
33.541
33.531
33.522
33.515
33.51
33.505
33.501
33.497
33.492
33.487
33.484
33.485
33.491
33.505
33.526
33.555
33.592
33.639
33.697
33.768
33.855
33.961
34.085
34.231
34.397
34.582
34.785
35.003
35.235
35.476
35.723
35.973
36.22
36.461
36.693
36.911
37.115
37.3
37.466
37.612
37.735
37.837
37.916
37.974
38.012
38.033
38.037
38.027
38.005
37.973
37.934
37.889
37.841
37.79
37.74
37.692
37.648
37.609
37.576
37.548
37.526
37.509
37.496
37.487
37.482
37.479
37.479
37.48
37.481
37.48
37.479
37.476
37.472
37.467
37.46
37.451
37.44
37.426
37.41
37.39
37.365
37.336
37.301
37.262
37.218
37.169
37.117
37.061
37.005
36.948
36.894
36.844
36.799
36.76
36.727
36.701
36.681
36.666
36.656
36.651
36.649
36.651
36.656
36.664
36.673
36.683
36.694
36.706
36.717
36.728
36.737
36.745
36.751
36.754
36.753
36.749
36.74
36.728
36.712
36.693
36.671
36.648
36.622
36.595
36.566
36.534
36.5
36.462
36.423
36.382
36.34
36.298
36.257
36.217
36.179
36.141
36.106
36.072
36.04
36.01
35.981
35.953
35.926
35.899
35.871
35.843
35.814
35.784
35.755
35.725
35.695
35.666
35.637
35.607
35.576
35.544
35.512
35.478
35.443
35.408
35.373
35.339
35.306
35.274
35.244
35.215
35.187
35.161
35.137
35.114
35.092
35.071
35.051
35.031
35.012
34.994
34.977
34.96
34.944
34.93
34.916
34.902
34.887
34.872
34.854
34.833
34.811
34.787
34.762
34.735
34.707
34.679
34.65
34.623
34.596
34.572
34.549
34.529
34.51
34.492
34.476
34.461
34.447
34.434
34.422
34.41
34.397
34.382
34.366
34.348
34.328
34.306
34.282
34.257
34.23
34.203
34.176
34.149
34.123
34.099
34.077
34.056
34.037
34.019
34.002
33.987
33.973
33.96
33.949
33.939
33.93
33.921
33.912
33.903
33.895
33.887
33.879
33.871
33.863
33.854
33.844
33.833
33.821
33.808
33.794
33.778
33.762
33.744
33.726
33.707
33.687
33.668
33.65
33.633
33.618
33.605
33.594
33.585
33.577
33.571
33.567
33.564
33.562
33.561
33.559
33.557
33.553
33.548
33.542
33.534
33.525
33.514
33.503
33.49
33.476
33.463
33.453
33.448
33.453
33.469
33.502
33.553
33.624
33.718
33.836
33.978
34.144
34.333
34.543
34.772
35.016
35.271
35.532
35.795
36.057
36.312
36.559
36.792
37.009
37.207
37.382
37.534
37.661
37.766
37.847
37.907
37.948
37.97
37.977
37.97
37.951
37.923
37.89
37.853
37.815
37.776
37.736
37.696
