Trial 1:0back
31.27
31.233
31.203
31.18
31.164
31.156
31.157
31.169
31.194
31.236
31.297
31.385
31.505
31.666
31.875
32.142
32.471
32.868
33.332
33.861
34.451
35.092
35.776
36.488
37.216
37.945
38.66
39.348
39.998
40.599
41.144
41.626
42.044
42.395
42.682
42.908
43.077
43.195
43.268
43.301
43.298
43.266
43.207
43.127
43.029
42.916
42.791
42.658
42.517
42.37
42.219
42.063
41.903
41.738
41.571
41.402
41.233
41.063
40.895
40.728
40.563
40.401
40.241
40.085
39.933
39.785
39.64
39.499
39.362
39.228
39.097
38.968
38.839
38.712
38.586
38.46
38.335
38.208
38.082
37.955
37.829
37.705
37.583
37.465
37.352
37.246
37.148
37.06
36.982
36.917
36.864
36.823
36.795
36.78
36.776
36.785
36.805
36.837
36.879
36.931
36.991
37.056
37.124
37.193
37.26
37.324
37.383
37.436
37.482
37.519
37.548
37.568
37.579
37.58
37.57
37.55
37.519
37.472
37.409
37.33
37.238
37.135
37.025
36.911
36.797
36.683
36.571
36.462
36.357
36.255
36.156
36.06
35.964
35.869
35.772
35.673
35.572
35.467
35.358
35.246
35.132
35.014
34.895
34.773
34.652
34.532
34.413
34.298
34.186
34.078
33.974
33.875
33.781
33.692
33.609
33.53
33.456
33.387
33.321
33.261
33.204
33.151
33.102
33.054
33.008
32.963
32.919
32.876
32.834
32.795
32.759
32.726
32.697
32.673
32.655
32.642
32.634
32.628
32.624
32.621
32.62
32.621
32.625
32.631
32.639
32.649
32.66
32.672
32.683
32.692
32.699
32.703
32.703
32.699
32.692
32.68
32.665
32.646
32.623
32.597
32.568
32.538
32.506
32.475
32.442
32.409
32.375
32.341
32.307
32.275
32.244
32.216
32.191
32.169
32.15
32.134
32.12
32.107
32.094
32.08
32.065
32.049
32.031
32.012
31.99
31.965
31.938
31.909
31.878
31.844
31.809
31.772
31.735
31.697
31.658
31.619
31.581
31.544
31.507
31.473
31.441
31.412
31.386
31.364
31.345
31.328
31.313
31.298
31.283
31.267
31.25
31.23
31.208
31.183
31.155
31.123
31.087
31.049
31.007
30.965
30.924
30.884
30.848
30.815
30.787
30.764
30.747
30.735
30.728
30.725
30.728
30.736
30.75
30.771
30.804
30.852
30.921
31.018
31.152
31.332
31.566
31.865
32.234
32.679
33.202
33.799
34.465
35.189
35.959
36.76
37.574
38.385
39.176
39.932
40.641
41.291
41.874
42.384
42.818
43.176
43.457
43.667
43.81
43.894
43.926
43.913
43.863
43.783
43.679
43.555
43.417
43.268
43.112
42.952
42.789
42.625
42.461
42.298
42.135
41.971
41.807
41.642
41.478
41.314
41.151
40.99
40.832
40.678
40.528
40.382
40.243
40.109
39.983
39.865
39.753
39.648
39.549
39.453
39.358
39.263
39.166
39.065
38.961
38.853
38.74
38.624
38.506
38.386
38.265
38.145
38.027
37.912
37.801
37.697
37.599
37.508
37.426
37.353
37.29
37.239
37.2
37.173
37.158
37.153
37.157
37.167
37.184
37.206
37.232
37.262
37.294
37.328
37.362
37.394
37.423
37.45
37.472
37.489
37.501
37.506
37.505
37.495
37.477
37.451
37.417
37.374
37.323
37.263
37.197
37.124
37.046
36.964
36.878
36.787
36.691
36.59
36.482
36.369
36.251
36.129
36.003
35.875
35.744
35.613
35.483
35.352
35.222
35.094
34.967
34.843
34.722
34.603
34.489
34.378
34.271
34.168
34.069
33.974
33.882
33.792
33.705
33.621
33.541
33.464
33.389
33.317
33.248
33.182
33.12
33.061
33.005
32.954
32.907
32.864
32.826
32.792
32.763
32.737
32.715
32.696
32.68
32.664
32.647
32.63
32.613
32.595
32.577
32.56
32.544
32.529
32.517
32.507
32.499
32.493
32.488
32.485
32.482
32.479
32.476
32.471
32.465
32.456
32.447
32.435
32.421
32.405
32.387
32.366
32.344
32.321
32.297
32.274
32.251
32.23
32.209
32.188
32.166
32.144
32.122
32.098
32.074
32.048
32.023
31.997
31.972
31.947
31.923
31.899
31.876
31.854
31.832
31.812
31.792
31.773
31.753
31.731
31.709
31.686
31.662
31.634
31.605
31.574
31.542
31.511
31.481
31.453
31.427
31.403
31.38
31.359
31.339
31.32
31.301
31.283
31.264
31.244
31.223
31.202
31.181
31.16
31.139
31.118
31.095
31.073
31.05
31.028
31.006
30.983
30.961
30.939
30.917
30.897
30.879
30.863
30.85
30.84
30.834
30.833
30.84
30.857
30.885
30.929
30.993
31.084
31.211
31.38
31.602
31.884
32.232
32.649
33.136
33.692
34.311
34.983
35.698
36.441
37.199
37.958
38.702
39.417
40.091
40.712
41.274
41.769
42.194
42.548
42.832
43.051
43.206
43.305
43.353
43.357
43.323
43.258
43.167
43.056
42.93
42.793
42.648
42.499
42.346
42.191
42.035
41.878
41.72
41.561
41.4
41.238
41.073
40.908
40.743
40.579
40.418
40.258
40.102
39.948
39.799
39.653
39.511
39.372
39.236
39.103
38.972
38.842
38.709
38.575
38.437
38.299
38.16
38.022
37.886
37.753
37.623
37.498
37.379
37.267
37.163
37.067
36.98
36.905
36.84
36.788
36.749
36.722
36.709
36.707
36.718
36.741
36.774
36.819
36.872
36.934
37.001
37.074
37.15
37.226
37.301
37.373
37.44
37.499
37.549
37.588
37.617
37.636
37.645
37.646
37.638
37.622
37.597
37.564
37.521
37.469
37.408
37.339
37.264
37.181
37.091
36.995
36.892
36.782
36.667
36.547
36.422
36.293
36.16
36.025
35.889
35.753
35.62
35.491
35.365
35.243
35.125
35.01
34.896
34.785
34.675
34.568
34.463
34.359
34.258
34.159
34.064
33.971
33.882
33.796
33.713
33.633
33.554
33.478
33.404
33.334
33.267
33.204
33.145
33.091
33.041
32.995
32.955
32.918
32.886
32.857
32.831
32.807
32.785
32.764
32.745
32.726
32.709
32.692
32.677
32.663
32.65
32.639
32.631
32.623
32.618
32.613
32.61
32.607
32.604
32.6
32.595
32.59
32.582
32.572
32.56
32.545
32.53
32.513
32.496
32.48
32.464
32.45
32.437
32.424
32.41
32.396
32.382
32.367
32.352
32.336
32.319
32.302
32.283
32.262
32.24
32.216
32.191
32.166
32.139
32.112
32.083
32.052
32.017
31.979
31.939
31.897
31.854
31.811
31.767
31.724
31.681
31.64
31.602
31.566
31.535
31.508
31.486
31.467
31.45
31.436
31.424
31.412
31.402
31.393
31.383
31.374
31.365
31.355
31.346
31.334
31.32
31.304
31.284
31.259
31.231
31.199
31.163
31.126
31.088
31.05
31.013
30.979
30.948
30.92
30.895
30.874
30.855
30.837
30.82
30.804
30.79
30.775
30.762
30.75
30.74
30.734
30.732
30.737
30.75
30.774
30.815
30.879
30.974
31.107
31.288
31.527
31.831
32.208
32.664
33.2
33.815
34.503
35.253
36.051
36.878
37.718
38.553
39.367
40.144
40.87
41.536
42.132
42.653
43.096
43.46
43.748
43.963
44.109
44.193
44.222
44.204
44.148
44.06
43.95
43.822
43.682
43.535
43.383
43.228
43.07
42.911
42.752
42.591
42.43
42.267
42.103
41.937
41.771
41.604
41.437
41.271
41.108
40.948
40.794
40.646
40.505
40.37
40.242
40.12
40.004
39.893
39.786
39.683
39.583
39.486
39.39
39.296
39.201
39.106
39.008
38.907
38.802
38.694
38.581
38.465
38.347
38.229
38.113
38.0
37.892
37.791
37.699
37.615
37.542
37.48
37.43
37.393
37.367
37.354
37.352
37.361
37.381
37.41
37.446
37.487
37.532
37.578
37.624
37.668
37.709
37.747
37.781
37.81
37.833
37.85
37.86
37.862
37.854
37.838
37.812
37.777
37.732
37.677
37.613
37.54
37.459
37.369
37.269
37.16
37.043
36.92
36.791
36.658
36.523
36.386
36.25
36.113
35.976
35.841
35.707
35.575
35.445
35.316
35.19
35.066
34.944
34.824
34.707
34.594
34.484
34.378
34.275
34.175
34.079
33.986
33.898
33.813
33.731
33.653
33.576
33.503
33.433
33.367
33.304
33.244
33.188
33.135
33.086
33.04
32.999
32.962
32.928
32.895
32.863
32.832
32.8
32.769
32.736
32.703
32.668
32.632
32.595
32.557
32.52
32.483
32.447
32.414
32.384
32.356
32.333
32.313
32.298
32.285
32.273
32.263
32.255
32.248
32.242
32.238
32.232
32.226
32.217
32.205
32.19
32.172
32.151
32.128
32.103
32.078
32.053
32.027
32.002
31.978
31.954
31.932
31.909
31.885
31.861
31.835
31.807
31.777
31.745
31.712
31.679
31.646
31.614
31.582
31.551
31.519
31.489
31.459
31.43
31.402
31.374
31.345
31.315
31.284
31.251
31.217
31.182
31.147
31.114
31.081
31.05
31.019
30.989
30.96
30.93
30.902
30.874
30.848
30.824
30.801
30.78
30.761
30.744
30.728
30.714
30.701
30.69
30.679
30.669
30.659
30.648
30.637
30.626
30.613
30.6
30.585
30.57
30.553
30.533
30.513
30.492
30.472
30.452
30.432
30.414
30.397
30.382
30.367
30.354
30.341
30.329
30.319
30.31
30.303
30.297
30.293
30.29
30.288
30.288
30.29
30.292
30.296
30.301
30.31
30.324
30.346
30.379
30.428
30.498
30.597
30.733
30.916
31.155
31.458
31.834
32.286
32.816
33.421
34.097
34.834
35.62
36.441
37.28
38.121
38.945
39.736
40.481
41.166
41.783
42.323
42.785
43.167
43.47
43.697
43.854
43.947
43.983
43.97
43.915
43.825
43.708
43.57
43.419
43.258
43.094
42.928
42.763
42.6
42.438
42.279
42.12
41.961
41.801
41.641
41.481
41.319
41.157
40.993
40.829
40.665
40.502
40.34
40.181
40.024
39.873
39.725
39.583
39.445
39.311
39.181
39.055
38.933
38.813
38.697
38.582
38.47
38.358
38.247
38.136
38.024
37.914
37.805
37.699
37.598
37.502
37.412
37.33
37.257
37.193
37.141
37.101
37.073
37.058
37.054
37.063
37.083
37.114
37.154
37.203
37.26
37.322
37.388
37.456
37.523
37.588
37.649
37.706
37.757
37.801
37.837
37.864
37.882
37.891
37.89
37.88
37.86
37.83
37.79
37.741
37.684
37.62
37.549
37.471
37.387
37.298
37.201
37.099
36.99
36.877
36.76
36.64
36.517
36.392
36.266
36.138
36.008
35.877
35.745
35.612
35.48
35.347
35.215
35.085
34.957
34.831
34.708
34.589
34.472
34.36
34.251
34.146
34.045
33.948
33.856
33.768
33.685
33.605
33.529
33.455
33.384
33.316
33.25
33.186
33.125
33.067
33.014
32.964
32.919
32.879
32.844
32.814
32.789
32.769
32.754
32.742
32.734
32.727
32.722
32.717
32.713
32.708
32.701
32.694
32.685
32.676
32.665
32.653
32.64
32.626
32.611
32.595
32.58
32.565
32.551
32.538
32.528
32.519
32.512
32.506
32.5
32.494
32.487
32.477
32.465
32.449
32.431
32.41
32.385
32.358
32.326
32.292
32.255
32.217
32.177
32.135
32.093
32.05
32.008
31.968
31.929
31.891
31.854
31.819
31.785
31.754
31.726
31.699
31.674
31.649
31.624
31.599
31.574
31.549
31.526
31.505
31.486
31.468
31.451
31.435
31.42
31.406
31.393
31.38
31.367
31.353
31.339
31.324
31.309
31.292
31.274
31.255
31.234
31.213
31.19
31.167
31.142
31.116
31.089
31.062
31.034
31.008
30.982
30.958
30.937
30.92
30.908
30.901
30.9
30.906
30.921
30.947
30.987
31.048
31.135
31.255
31.416
31.626
31.894
32.228
32.632
33.11
33.661
34.28
34.96
35.688
36.452
37.239
38.031
38.815
39.574
40.297
40.97
41.585
42.135
42.614
43.022
43.357
43.621
43.818
43.952
44.03
44.057
44.04
43.986
43.901
43.79
43.658
43.511
43.351
43.183
43.008
42.83
42.65
42.47
42.289
42.109
41.93
41.752
41.574
41.398
41.222
41.049
40.877
40.708
40.541
40.376
40.215
40.056
39.902
39.753
39.609
39.472
39.342
39.219
39.102
38.99
38.882
38.774
38.667
38.558
38.446
38.333
38.216
38.096
37.974
37.852
37.731
37.613
37.499
37.391
37.292
37.202
37.122
37.054
36.998
36.955
36.925
36.909
36.908
36.923
36.951
36.992
37.043
37.102
37.167
37.236
37.305
37.374
37.44
37.502
37.559
37.608
37.649
37.682
37.705
37.719
37.724
37.718
37.701
37.673
37.633
37.582
37.521
37.449
37.367
37.277
37.178
37.072
36.961
36.846
36.728
36.609
36.489
36.368
36.248
36.127
36.005
35.882
35.758
35.632
35.505
35.378
35.251
35.125
35.001
34.879
34.76
34.645
34.535
34.43
34.33
34.236
34.147
34.065
33.989
33.919
33.855
33.795
33.74
33.688
33.639
33.595
33.554
33.518
33.486
33.459
33.435
33.413
33.393
33.372
33.35
33.326
33.297
33.264
33.225
33.181
33.132
33.081
33.028
32.975
32.924
32.874
32.827
32.784
32.744
32.707
32.673
32.642
32.614
32.589
32.567
32.548
32.532
32.519
32.508
32.499
32.491
32.483
32.475
32.467
32.456
32.443
32.426
32.404
32.378
32.347
32.31
32.269
32.224
32.173
32.118
32.06
31.999
31.934
31.867
31.8
31.732
31.666
31.6
31.536
31.474
31.414
31.357
31.304
31.255
31.21
31.169
31.129
31.091
31.052
31.01
30.967
30.921
30.876
30.83
30.787
30.745
30.706
30.67
30.637
30.606
30.577
30.55
30.525
30.502
30.478
30.455
30.432
30.408
30.383
30.358
30.333
30.309
30.287
30.269
30.253
30.241
30.232
30.225
30.221
30.219
30.217
30.216
30.216
30.216
30.217
30.219
30.222
30.225
30.228
30.232
30.235
30.238
30.241
30.243
30.243
30.241
30.238
30.233
30.226
30.218
30.21
30.204
30.199
30.199
30.206
30.223
30.253
30.3
30.369
30.469
30.61
30.801
31.054
31.377
31.777
32.257
32.816
33.452
34.156
34.918
35.723
36.556
37.398
38.233
39.042
39.81
40.524
41.172
41.749
42.249
42.671
43.016
43.289
43.493
43.635
43.721
43.758
43.753
43.714
43.646
43.555
43.448
43.328
43.198
43.062
42.92
42.774
42.624
42.47
42.314
42.154
41.992
41.827
41.66
41.494
41.327
41.161
40.995
40.832
40.67
40.51
40.353
40.199
40.047
39.899
39.756
39.617
39.485
39.36
39.241
39.128
39.02
38.915
38.815
38.716
38.618
38.521
38.422
38.322
38.221
38.119
38.017
37.916
37.816
37.72
37.629
37.544
37.466
37.397
37.336
37.284
37.244
37.214
37.195
37.189
37.193
37.209
37.236
37.272
37.316
37.368
37.424
37.483
37.544
37.605
37.664
37.719
37.77
37.814
37.85
37.877
37.894
37.9
37.894
37.876
37.843
37.798
37.741
37.673
37.596
37.512
37.422
37.327
37.231
37.132
37.034
36.935
36.837
36.739
36.64
36.541
36.44
36.338
36.234
36.127
36.017
35.903
35.787
35.668
35.548
35.428
35.308
35.188
35.069
34.95
34.832
34.716
34.602
34.492
34.385
34.283
34.185
34.092
34.004
33.922
33.844
33.771
33.702
33.637
33.574
33.513
33.455
33.4
33.347
33.297
33.25
33.206
33.166
33.129
33.095
33.064
33.036
33.009
32.984
32.96
32.939
32.92
32.904
32.89
32.879
32.869
32.86
32.851
32.844
32.838
32.832
32.829
32.827
32.826
32.824
32.823
32.821
32.817
32.812
32.806
32.797
32.787
32.776
32.764
32.751
32.736
32.719
32.7
32.678
32.655
32.63
32.605
32.579
32.552
32.525
32.496
32.467
32.438
32.41
32.382
32.355
32.329
32.304
32.281
32.259
32.238
32.218
32.197
32.176
32.155
32.134
32.111
32.087
32.063
32.039
32.017
31.997
31.979
31.964
31.949
31.936
31.923
31.912
31.9
31.889
31.876
31.861
31.844
31.825
31.804
31.781
31.756
31.73
31.703
31.674
31.643
31.609
31.573
31.534
31.495
31.455
31.416
31.38
31.346
31.314
31.287
31.264
31.245
31.23
31.219
31.213
31.212
31.218
31.233
31.261
31.305
31.371
31.467
31.599
31.778
32.009
32.302
32.66
33.089
33.587
34.153
34.779
35.455
36.171
36.912
37.664
38.413
39.142
39.839
40.49
41.086
41.62
42.086
42.483
42.81
43.071
43.268
43.407
43.496
43.538
43.542
43.512
43.455
43.376
43.28
43.171
43.053
42.928
42.799
42.666
42.53
42.389
42.244
42.094
41.937
41.773
41.602
41.424
41.242
41.055
40.868
40.681
40.497
40.317
40.143
39.976
39.815
39.66
39.51
39.366
39.226
39.087
38.949
38.811
38.672
38.533
38.394
38.254
38.115
37.976
37.837
37.699
37.562
37.429
37.302
37.182
37.072
36.975
36.891
36.821
36.767
36.73
36.71
36.707
36.721
36.748
36.789
36.84
36.899
36.964
37.033
37.106
37.18
37.254
37.327
37.398
37.465
37.527
37.583
37.631
37.672
37.704
37.728
37.744
37.752
37.75
37.739
37.719
37.688
37.648
37.598
37.538
37.469
37.392
37.307
37.215
37.116
37.01
36.899
36.783
36.663
36.54
36.416
36.291
36.165
36.038
35.911
35.782
35.652
35.522
35.392
35.262
35.133
35.007
34.883
34.762
34.645
34.531
34.421
34.314
34.212
34.112
34.017
33.925
33.836
33.752
33.671
33.594
33.521
33.451
33.384
33.319
33.257
33.196
33.138
33.083
33.031
32.982
32.938
32.898
32.861
32.828
32.798
32.771
32.747
32.725
32.705
32.687
32.672
32.658
32.645
32.633
32.621
32.609
32.597
32.584
32.571
32.558
32.545
32.533
32.52
32.507
32.494
32.481
32.468
32.455
32.443
32.431
32.419
32.407
32.396
32.383
32.371
32.357
32.342
32.326
32.309
32.292
32.275
32.258
32.242
32.226
32.21
32.193
32.176
32.159
32.141
32.123
32.104
32.084
32.063
32.039
32.012
31.984
31.953
31.92
31.885
31.849
31.812
31.776
31.741
31.707
31.674
31.643
31.612
31.582
31.553
31.525
31.499
31.476
31.454
31.433
31.413
31.395
31.378
31.363
31.351
31.341
31.332
31.325
31.317
31.308
31.297
31.283
31.266
31.244
31.22
31.193
31.165
31.137
31.108
31.08
31.052
31.024
30.998
30.974
30.952
30.931
30.912
30.895
30.879
30.866
30.855
30.848
30.844
30.843
30.845
30.851
30.863
30.883
30.915
30.964
31.035
31.135
31.273
31.457
31.698
32.004
32.384
32.841
33.378
33.992
34.676
35.421
36.214
37.04
37.881
38.721
39.543
40.33
41.069
41.748
42.359
42.896
43.353
43.731
44.029
44.251
44.401
44.487
44.515
44.494
44.432
44.337
44.218
44.082
43.933
43.776
43.616
43.454
43.295
43.137
42.983
42.831
42.681
42.53
42.379
42.226
42.07
41.911
41.75
41.588
41.424
41.261
41.1
40.941
40.785
40.634
40.489
40.349
40.215
40.088
39.966
39.849
39.737
39.627
39.521
39.415
39.309
39.202
39.092
38.979
38.862
38.743
38.622
38.5
38.379
38.261
38.148
38.043
37.946
37.859
37.782
37.715
37.659
37.612
37.576
37.551
37.536
37.53
37.534
37.545
37.564
37.588
37.616
37.646
37.679
37.713
37.747
37.781
37.813
37.843
37.868
37.887
37.9
37.907
37.906
37.897
37.881
37.855
37.821
37.779
37.728
37.67
37.605
37.534
37.458
37.377
37.291
37.2
37.104
37.003
36.896
36.785
36.671
36.555
36.436
36.316
36.195
36.074
35.952
35.831
35.711
35.592
35.474
35.356
35.238
35.118
34.999
34.879
34.761
34.644
34.53
34.418
34.31
34.205
34.105
34.011
33.924
33.843
33.768
33.7
33.636
33.578
33.523
33.471
33.422
33.376
33.33
33.285
33.242
33.199
33.159
33.121
33.085
33.05
33.016
32.984
32.953
32.924
32.897
32.872
32.851
32.833
32.817
32.802
32.789
32.777
32.767
32.757
32.746
32.735
32.723
32.711
32.698
32.685
32.672
32.658
32.643
32.628
32.612
32.594
32.575
32.555
32.536
32.516
32.497
32.478
32.458
32.438
32.418
32.399
32.381
32.362
32.344
32.326
32.307
32.287
32.265
32.243
32.221
32.198
32.174
32.149
32.123
32.095
32.066
32.034
32.001
31.966
31.929
31.89
31.852
31.815
31.781
31.748
31.717
31.69
31.664
31.641
31.618
31.597
31.576
31.555
31.534
31.512
31.489
31.464
31.44
31.415
31.392
31.368
31.345
31.321
31.297
31.272
31.246
31.219
31.192
31.164
31.135
31.106
31.077
31.048
31.019
30.99
30.963
30.937
30.914
30.892
30.872
30.856
30.843
30.834
30.829
30.826
30.828
30.835
30.849
30.874
30.912
30.968
31.049
31.16
31.309
31.505
31.755
32.066
32.443
32.888
33.402
33.981
34.62
35.309
36.037
36.791
37.556
38.318
39.06
39.77
40.435
41.044
41.59
42.069
42.477
42.816
43.089
43.298
43.45
43.55
43.603
43.616
43.595
43.545
43.472
43.381
43.276
43.159
43.034
42.905
42.772
42.637
42.501
42.362
42.221
42.075
41.924
41.769
41.609
41.446
41.281
41.116
40.952
40.789
40.629
40.471
40.316
40.164
40.015
39.869
39.727
39.588
39.451
39.315
39.179
39.043
38.907
38.77
38.633
38.496
38.359
38.225
38.093
37.966
37.842
37.724
37.613
37.51
37.417
37.335
37.266
37.209
37.165
37.133
37.115
37.111
37.12
37.143
37.177
37.221
37.274
37.335
37.4
37.469
37.538
37.607
37.672
37.735
37.792
37.845
37.891
37.929
37.961
37.984
37.999
38.006
38.006
37.998
37.982
37.957
37.925
37.885
37.837
37.781
