Trial 1:0back
39.287
39.168
39.045
38.923
38.804
38.689
38.578
38.471
38.368
38.269
38.173
38.078
37.983
37.886
37.787
37.687
37.584
37.479
37.37
37.258
37.142
37.023
36.899
36.772
36.641
36.508
36.372
36.234
36.095
35.955
35.815
35.675
35.536
35.4
35.268
35.142
35.022
34.91
34.806
34.71
34.623
34.546
34.48
34.425
34.381
34.348
34.324
34.307
34.298
34.294
34.296
34.303
34.314
34.33
34.35
34.374
34.402
34.432
34.464
34.496
34.526
34.551
34.57
34.583
34.59
34.589
34.58
34.562
34.536
34.504
34.467
34.424
34.373
34.316
34.253
34.186
34.115
34.042
33.967
33.893
33.821
33.752
33.687
33.625
33.566
33.509
33.453
33.397
33.34
33.283
33.226
33.17
33.116
33.065
33.015
32.968
32.923
32.879
32.836
32.793
32.752
32.714
32.68
32.653
32.634
32.628
32.639
32.674
32.738
32.839
32.982
33.172
33.416
33.713
34.063
34.461
34.9
35.372
35.866
36.37
36.871
37.357
37.817
38.241
38.622
38.953
39.234
39.461
39.635
39.759
39.834
39.868
39.865
39.829
39.766
39.682
39.581
39.47
39.354
39.236
39.116
38.997
38.881
38.768
38.661
38.56
38.463
38.371
38.282
38.196
38.112
38.029
37.945
37.86
37.773
37.682
37.589
37.491
37.387
37.276
37.159
37.036
36.907
36.774
36.637
36.497
36.356
36.214
36.073
35.934
35.798
35.668
35.543
35.423
35.309
35.201
35.1
35.008
34.924
34.848
34.78
34.72
34.67
34.629
34.598
34.576
34.562
34.554
34.553
34.557
34.566
34.578
34.593
34.609
34.624
34.638
34.649
34.658
34.665
34.669
34.67
34.666
34.658
34.645
34.626
34.601
34.571
34.534
34.492
34.444
34.392
34.337
34.28
34.22
34.157
34.093
34.027
33.961
33.896
33.833
33.771
33.712
33.654
33.598
33.544
33.492
33.441
33.393
33.347
33.301
33.255
33.209
33.164
33.118
33.073
33.026
32.978
32.93
32.882
32.835
32.792
32.753
32.72
32.694
32.677
32.675
32.692
32.736
32.814
32.933
33.097
33.312
33.579
33.901
34.274
34.694
35.152
35.638
36.14
36.646
37.144
37.624
38.073
38.482
38.844
39.155
39.413
39.615
39.764
39.86
39.91
39.918
39.891
39.836
39.759
39.664
39.557
39.442
39.324
39.206
39.09
38.979
38.874
38.775
38.684
38.599
38.519
38.442
38.367
38.294
38.222
38.148
38.073
37.995
37.913
37.828
37.738
37.644
37.544
37.436
37.319
37.195
37.064
36.926
36.784
36.638
36.49
36.341
36.193
36.047
35.906
35.771
35.642
35.52
35.405
35.299
35.201
35.111
35.03
34.958
34.895
34.84
34.795
34.758
34.729
34.708
34.693
34.683
34.677
34.675
34.676
34.68
34.686
34.693
34.701
34.708
34.714
34.718
34.721
34.721
34.718
34.711
34.702
34.688
34.671
34.649
34.621
34.587
34.547
34.5
34.449
34.392
34.33
34.263
34.192
34.118
34.04
33.96
33.881
33.802
33.725
33.65
33.578
33.507
33.439
33.374
33.312
33.254
33.199
33.147
33.098
33.051
33.007
32.964
32.921
32.878
32.832
32.785
32.735
32.684
32.633
32.581
32.533
32.488
32.45
32.423
32.41
32.419
32.454
32.523
32.633
32.79
32.998
33.26
33.577
33.946
34.361
34.814
35.297
35.799
36.307
36.808
37.29
37.742
38.153
38.517
38.83
39.088
39.291
39.441
39.542
39.598
39.618
39.606
39.568
39.509
39.435
39.349
39.255
39.156
39.054
38.95
38.845
38.741
38.638
38.536
38.434
38.333
38.232
38.131
38.03
37.929
37.827
37.724
37.619
37.512
37.403
37.292
37.179
37.061
36.94
36.816
36.689
36.559
36.427
36.292
36.155
36.017
35.88
35.744
35.609
35.476
35.345
35.217
35.092
34.972
34.859
34.755
34.661
34.577
34.502
34.438
34.385
34.343
34.313
34.292
34.279
34.273
34.272
34.276
34.285
34.296
34.309
34.324
34.339
34.354
34.37
34.386
34.403
34.419
34.435
34.451
34.464
34.474
34.481
34.483
34.478
34.466
34.445
34.415
34.376
34.33
34.277
34.218
34.153
34.084
34.011
33.936
33.86
33.784
33.709
33.638
33.569
33.503
33.441
33.381
33.325
33.272
33.22
33.169
33.119
33.07
33.022
32.975
32.929
32.882
32.834
32.786
32.737
32.688
32.641
32.596
32.557
32.524
32.502
32.496
32.51
32.553
32.632
32.753
32.922
33.143
33.417
33.744
34.119
34.537
34.987
35.46
35.945
36.431
36.904
37.354
37.77
38.144
38.472
38.749
38.974
39.147
39.271
39.347
39.38
39.376
39.34
39.277
39.193
39.093
38.981
38.861
38.738
38.615
38.493
38.373
38.257
38.145
38.038
37.935
37.835
37.738
37.644
37.553
37.463
37.372
37.279
37.183
37.081
36.974
36.86
36.74
36.618
36.497
36.379
36.264
36.149
36.033
35.911
35.783
35.648
35.507
35.363
35.217
35.071
34.931
34.798
34.675
34.565
34.469
34.389
34.326
34.278
34.245
34.224
34.215
34.215
34.223
34.239
34.261
34.286
34.314
34.343
34.373
34.402
34.43
34.456
34.479
34.499
34.515
34.528
34.537
34.541
34.541
34.536
34.526
34.51
34.488
34.461
34.427
34.388
34.344
34.293
34.238
34.178
34.113
34.045
33.973
33.9
33.825
33.749
33.673
33.597
33.522
33.45
33.38
33.314
33.25
33.19
33.134
33.083
33.036
32.992
32.951
32.912
32.874
32.838
32.801
32.766
32.734
32.706
32.684
32.671
32.67
32.687
32.727
32.798
32.905
33.054
33.251
33.499
33.8
34.151
34.547
34.98
35.442
35.92
36.404
36.882
37.343
37.776
38.173
38.527
38.835
39.094
39.303
39.462
39.574
39.642
39.67
39.664
39.627
39.566
39.486
39.392
39.287
39.177
39.063
38.95
38.837
38.726
38.619
38.515
38.414
38.316
38.22
38.126
38.036
37.948
37.862
37.778
37.694
37.609
37.523
37.433
37.339
37.239
37.132
37.019
36.899
36.773
36.641
36.504
36.361
36.215
36.067
35.918
35.772
35.629
35.492
35.362
35.241
35.13
35.031
34.944
34.87
34.808
34.76
34.723
34.698
34.682
34.674
34.672
34.676
34.683
34.695
34.708
34.722
34.735
34.746
34.756
34.764
34.772
34.778
34.783
34.784
34.783
34.778
34.768
34.755
34.738
34.718
34.695
34.669
34.64
34.608
34.573
34.535
34.493
34.448
34.398
34.343
34.282
34.218
34.151
34.081
34.009
33.936
33.86
33.781
33.702
33.624
33.546
33.471
33.399
33.328
33.261
33.196
33.134
33.078
33.026
32.982
32.946
32.921
32.91
32.916
32.944
32.998
33.081
33.2
33.358
33.558
33.804
34.094
34.426
34.795
35.194
35.616
36.049
36.486
36.916
37.33
37.721
38.082
38.41
38.699
38.949
39.158
39.326
39.456
39.549
39.609
39.637
39.637
39.613
39.568
39.507
39.433
39.349
39.257
39.161
39.062
38.963
38.865
38.767
38.672
38.578
38.487
38.398
38.312
38.228
38.145
38.063
37.98
37.898
37.814
37.729
37.642
37.552
37.459
37.364
37.265
37.161
37.051
36.935
36.814
36.69
36.562
36.432
36.301
36.169
36.039
35.912
35.789
35.673
35.563
35.461
35.367
35.282
35.207
35.141
35.085
35.04
35.005
34.98
34.965
34.958
34.96
34.968
34.982
35.0
35.022
35.048
35.075
35.104
35.132
35.158
35.18
35.197
35.208
35.213
35.211
35.2
35.18
35.151
35.112
35.064
35.008
34.945
34.876
34.804
34.729
34.652
34.576
34.501
34.429
34.359
34.292
34.229
34.169
34.111
34.056
34.001
33.948
33.894
33.84
33.783
33.725
33.664
33.601
33.535
33.469
33.403
33.339
33.28
33.229
33.189
33.167
33.167
33.195
33.257
33.358
33.501
33.691
33.928
34.21
34.534
34.895
35.287
35.7
36.126
36.552
36.97
37.369
37.741
38.079
38.38
38.638
38.853
39.023
39.149
39.233
39.279
39.291
39.274
39.235
39.178
39.108
39.03
38.946
38.86
38.775
38.692
38.613
38.538
38.467
38.399
38.335
38.273
38.214
38.155
38.097
38.039
37.979
37.918
37.852
37.781
37.704
37.619
37.527
37.428
37.32
37.205
37.082
36.953
36.817
36.677
36.534
36.388
36.242
36.097
35.955
35.817
35.685
35.56
35.443
35.334
35.233
35.14
35.058
34.985
34.922
34.868
34.821
34.781
34.748
34.722
34.701
34.686
34.676
34.67
34.669
34.672
34.681
34.693
34.708
34.725
34.744
34.762
34.78
34.797
34.811
34.822
34.829
34.831
34.828
34.818
34.803
34.781
34.752
34.715
34.669
34.617
34.559
34.497
34.429
34.356
34.279
34.198
34.116
34.033
33.952
33.872
33.793
33.715
33.64
33.567
33.497
33.43
33.365
33.303
33.242
33.182
33.126
33.075
33.029
32.99
32.958
32.936
32.925
32.929
32.951
32.997
33.071
33.177
33.322
33.508
33.736
34.008
34.321
34.67
35.049
35.449
35.862
36.279
36.691
37.088
37.463
37.809
38.12
38.393
38.626
38.818
38.97
39.084
39.163
39.208
39.222
39.209
39.172
39.115
39.041
38.95
38.842
38.719
38.585
38.446
38.306
38.171
38.043
37.925
37.82
37.728
37.649
37.583
37.527
37.479
37.436
37.396
37.356
37.316
37.271
37.222
37.167
37.104
37.033
36.953
36.863
36.764
36.655
36.538
36.413
36.281
36.143
36.002
35.86
35.719
35.581
35.447
35.319
35.199
35.089
34.989
34.901
34.826
34.765
34.718
34.686
34.667
34.659
34.66
34.67
34.687
34.709
34.735
34.763
34.79
34.818
34.845
34.869
34.891
34.907
34.918
34.922
34.919
34.909
34.892
34.868
34.839
34.804
34.764
34.717
34.665
34.607
34.545
34.481
34.414
34.346
34.279
34.213
34.148
34.085
34.022
33.961
33.9
33.84
33.781
33.721
33.659
33.594
33.527
33.456
33.383
33.31
33.236
33.166
33.1
33.038
32.984
32.939
32.907
32.891
32.893
32.918
32.97
33.053
33.174
33.335
33.539
33.785
34.072
34.396
34.75
35.128
35.522
35.923
36.321
36.708
37.076
37.419
37.731
38.008
38.247
38.447
38.608
38.732
38.821
38.876
38.901
38.901
38.878
38.837
38.782
38.714
38.637
38.554
38.468
38.38
38.292
38.204
38.117
38.029
37.942
37.855
37.77
37.686
37.603
37.52
37.437
37.354
37.271
37.185
37.098
37.008
36.916
36.821
36.722
36.618
36.507
36.391
36.269
36.141
36.01
35.876
35.741
35.605
35.472
35.343
35.226
35.121
35.03
34.95
34.88
34.816
34.757
34.702
34.652
34.604
34.56
34.52
34.484
34.453
34.429
34.413
34.406
34.408
34.418
34.436
34.462
34.494
34.531
34.572
34.615
34.656
34.693
34.724
34.748
34.764
34.77
34.767
34.755
34.733
34.702
34.662
34.614
34.559
34.498
34.431
34.36
34.288
34.214
34.141
34.069
33.998
33.927
33.858
33.792
33.728
33.666
33.607
33.549
33.492
33.434
33.377
33.319
33.262
33.206
33.15
33.096
33.045
32.999
32.963
32.942
32.943
32.972
33.035
33.14
33.289
33.486
33.733
34.026
34.361
34.732
35.13
35.545
35.968
36.388
36.796
37.181
37.539
37.862
38.146
38.389
38.589
38.746
38.861
38.937
38.975
38.982
38.961
38.916
38.852
38.774
38.685
38.591
38.494
38.397
38.303
38.211
38.125
38.043
37.966
37.893
37.822
37.754
37.688
37.624
37.561
37.498
37.436
37.372
37.307
37.239
37.167
37.09
37.008
36.922
36.831
36.736
36.637
36.533
36.425
36.311
36.193
36.071
35.947
35.822
35.696
35.571
35.449
35.332
35.223
35.122
35.032
34.952
34.883
34.827
34.782
34.749
34.726
34.712
34.705
34.704
34.707
34.713
34.721
34.731
34.742
34.753
34.764
34.774
34.784
34.791
34.797
34.801
34.802
34.8
34.795
34.787
34.775
34.759
34.738
34.711
34.676
34.632
34.58
34.519
34.45
34.374
34.293
34.208
34.119
34.029
33.939
33.853
33.772
33.696
33.626
33.561
33.501
33.445
33.394
33.345
33.299
33.253
33.21
33.168
33.128
33.093
33.062
33.039
33.028
33.032
33.056
33.107
33.187
33.302
33.455
33.648
33.878
34.146
34.448
34.779
35.133
35.501
35.877
36.252
36.616
36.962
37.283
37.575
37.834
38.059
38.248
38.402
38.521
38.608
38.666
38.697
38.705
38.694
38.667
38.628
38.579
38.523
38.461
38.395
38.325
38.252
38.178
38.104
38.028
37.953
37.877
37.803
37.729
37.656
37.586
37.517
37.45
37.385
37.322
37.261
37.2
37.139
37.075
37.007
36.933
36.853
36.767
36.673
36.574
36.469
36.359
36.243
36.122
35.998
35.871
35.743
35.614
35.485
35.36
35.24
35.127
35.022
34.927
34.842
34.768
34.706
34.655
34.616
34.587
34.567
34.556
34.553
34.558
34.569
34.585
34.604
34.625
34.647
34.668
34.687
34.704
34.717
34.724
34.722
34.712
34.692
34.664
34.63
34.59
34.544
34.494
34.44
34.385
34.329
34.274
34.22
34.167
34.117
34.068
34.02
33.972
33.924
33.874
33.822
33.767
33.709
33.648
33.584
33.517
33.449
33.377
33.303
33.227
33.149
33.073
32.999
32.928
32.864
32.807
32.761
32.73
32.718
32.727
32.764
32.834
32.939
33.085
33.271
33.5
33.77
34.076
34.415
34.778
35.158
35.546
35.934
36.314
36.679
37.021
37.335
37.617
37.864
38.074
38.248
38.386
38.49
38.562
38.604
38.621
38.616
38.593
38.558
38.522
38.488
38.458
38.431
38.403
38.372
38.335
38.29
38.235
38.169
38.091
38.005
37.91
37.811
37.708
37.602
37.495
37.388
37.282
37.178
37.077
36.979
36.886
36.796
36.707
36.62
36.533
36.446
36.357
36.267
36.174
36.078
35.98
35.879
35.776
35.672
35.568
35.467
35.371
35.28
35.194
35.112
35.035
34.964
34.898
34.839
34.787
34.741
34.703
34.672
34.649
34.632
34.623
34.619
34.622
34.63
34.641
34.656
34.674
34.694
34.714
34.734
34.752
34.767
34.778
34.784
34.786
34.782
34.77
34.749
34.721
34.684
34.641
34.591
34.534
34.471
34.402
34.331
34.258
34.185
34.113
34.042
33.973
33.906
33.841
33.778
33.718
33.661
33.608
33.555
33.504
33.452
33.4
33.347
33.293
33.238
33.181
33.123
33.064
33.005
32.945
32.886
32.828
32.773
32.725
32.686
32.661
32.656
32.674
32.723
32.807
32.93
33.094
33.303
33.554
33.845
34.172
34.528
34.905
35.295
35.69
36.08
36.457
36.812
37.14
37.436
37.695
37.918
38.101
38.244
38.349
38.418
38.454
38.461
38.443
38.405
38.35
38.283
38.209
38.132
38.054
37.978
37.906
37.839
37.778
37.722
37.672
37.626
37.583
37.542
37.502
37.461
37.418
37.373
37.324
37.272
37.217
37.159
37.099
37.034
36.964
36.888
36.804
36.713
36.615
36.51
36.4
36.286
36.169
36.051
35.932
35.813
35.696
35.582
35.474
35.373
35.278
35.189
35.105
35.026
34.952
34.884
34.82
34.761
34.707
34.657
34.612
34.573
34.539
34.512
34.49
34.473
34.461
34.453
34.449
34.449
34.453
34.457
34.462
34.466
34.469
34.469
34.467
34.461
34.451
34.435
34.414
34.387
34.354
34.318
34.278
34.234
34.187
34.136
34.082
34.025
33.965
33.903
33.839
33.772
33.703
33.632
33.561
33.49
33.42
33.352
33.286
33.22
33.155
33.092
33.03
32.971
32.913
32.856
32.801
32.747
32.694
32.641
32.59
32.539
32.488
32.437
32.387
32.338
32.294
32.256
32.229
32.215
32.218
32.243
32.295
32.381
32.503
32.667
32.873
33.121
33.41
33.735
34.092
34.473
34.869
35.271
35.67
36.057
36.424
36.765
37.075
37.349
37.584
37.779
37.935
38.052
38.135
38.185
38.206
38.204
38.182
38.147
38.099
38.042
37.98
37.913
37.846
37.779
37.715
37.654
37.597
37.544
37.497
37.454
37.414
37.374
37.334
37.292
37.248
37.2
37.15
37.096
37.037
36.974
36.905
36.83
36.748
36.661
36.567
36.468
36.362
36.251
36.136
36.017
35.896
35.774
35.652
35.531
35.414
35.3
35.192
35.09
34.994
34.904
34.82
34.745
34.679
34.622
34.573
34.533
34.5
34.472
34.451
34.436
34.426
34.42
34.42
34.423
34.431
34.442
34.456
34.473
34.49
34.506
34.52
34.532
34.539
34.542
34.542
34.536
34.527
34.514
34.496
34.474
34.446
34.414
34.376
34.332
34.282
34.227
34.167
34.102
34.032
33.958
33.88
33.799
33.717
33.634
33.554
33.477
33.405
33.338
33.275
33.218
33.166
33.118
33.073
33.032
32.991
32.949
32.907
32.864
32.82
32.774
32.727
32.679
32.632
32.587
32.545
32.511
32.486
32.474
32.482
32.512
32.573
32.669
32.803
32.979
33.196
33.453
33.747
34.074
34.427
34.8
35.183
35.568
35.946
36.31
36.651
36.964
37.243
37.486
37.69
37.855
37.98
38.07
38.124
38.147
38.143
38.116
38.072
38.015
37.95
37.88
37.808
37.737
37.668
37.603
37.54
37.48
37.423
37.369
37.316
37.266
37.217
37.169
37.121
37.071
37.019
36.964
36.904
36.84
36.771
36.694
36.612
36.525
36.432
36.335
36.234
36.129
36.022
35.912
35.802
35.692
35.58
35.468
35.356
35.246
35.138
35.034
34.934
34.841
34.755
34.676
34.606
34.543
34.488
34.442
34.403
34.373
34.351
34.336
34.328
34.326
34.328
34.335
34.344
34.355
34.368
34.383
34.399
34.414
34.428
34.439
34.447
34.452
34.453
34.449
34.441
34.427
34.408
34.383
34.352
34.314
34.27
34.22
34.165
34.104
34.04
33.972
33.901
33.829
33.755
33.681
33.607
33.535
33.464
33.397
33.333
33.272
33.213
33.159
33.107
33.059
33.013
32.968
32.924
32.881
32.84
32.798
32.757
32.716
32.675
32.634
32.594
32.557
32.524
32.501
32.493
32.505
32.543
32.611
32.716
32.862
33.051
33.283
33.555
33.865
34.205
34.57
34.95
35.338
35.724
36.102
36.463
36.802
37.114
37.394
37.639
37.848
38.027
38.178
38.303
38.4
38.469
38.509
38.52
38.505
38.464
38.4
38.316
38.217
38.108
37.994
37.88
37.769
37.665
37.569
37.482
37.406
37.341
37.286
37.24
37.199
37.163
37.131
37.102
37.072
37.041
37.005
36.963
36.914
36.857
36.792
36.719
36.637
36.546
36.448
36.344
36.233
36.117
35.996
35.872
35.747
35.623
35.5
35.381
35.266
35.158
35.056
34.962
34.877
34.801
34.736
34.682
34.638
34.604
34.579
34.562
34.551
34.548
34.55
34.556
34.565
34.575
34.587
34.6
34.612
34.622
34.628
34.629
34.626
34.62
34.611
34.6
34.586
34.568
34.546
34.52
34.49
34.454
34.414
34.369
34.319
34.263
34.201
34.134
34.064
33.99
33.914
33.836
33.757
33.678
33.6
33.524
33.449
33.375
33.302
33.231
33.163
33.099
33.037
32.98
32.926
32.876
32.83
32.787
32.749
32.713
32.68
32.648
32.617
32.586
32.555
32.528
32.507
32.494
32.493
32.51
32.55
32.622
32.732
32.885
33.083
33.326
33.614
33.942
34.304
34.693
35.1
35.516
35.932
36.34
36.731
37.097
37.433
37.734
37.995
38.215
38.394
38.533
38.634
38.7
38.733
38.738
38.721
38.685
38.633
38.568
38.494
38.414
38.33
38.245
38.16
38.077
37.996
37.918
37.844
37.774
37.707
37.642
37.58
37.52
37.465
37.413
37.363
37.315
37.269
37.223
37.176
37.126
37.073
37.014
36.949
36.876
36.797
36.709
36.614
36.511
36.401
36.284
36.162
36.037
35.91
35.782
35.653
35.525
35.4
35.281
35.17
35.069
34.981
34.905
34.843
34.793
34.756
34.73
34.714
34.705
34.703
34.705
34.712
34.72
34.731
34.74
34.747
34.749
34.748
34.742
34.732
34.719
34.701
34.678
34.652
34.622
34.588
34.55
34.508
34.462
34.413
34.36
34.306
34.252
34.198
34.143
34.086
34.029
33.972
33.914
33.855
33.796
33.736
33.674
33.61
33.546
33.481
33.417
33.355
33.293
33.231
33.17
33.11
33.051
32.994
32.938
32.884
32.833
32.783
32.737
32.693
32.652
32.613
32.576
32.539
32.503
32.468
32.432
32.397
32.363
32.331
32.304
32.286
32.281
32.296
32.338
32.415
32.531
32.691
32.897
33.151
33.451
33.793
34.171
34.576
35.0
35.432
35.862
36.28
36.679
37.05
37.387
37.687
37.948
38.168
38.347
38.485
38.586
38.651
38.684
38.69
38.671
38.634
38.582
38.518
38.448
38.374
38.297
38.221
38.146
38.075
38.009
37.947
37.889
37.835
37.783
37.732
37.681
37.629
37.576
37.52
37.461
37.399
37.334
37.266
37.194
37.118
37.037
36.95
36.859
36.763
36.662
36.557
36.447
36.335
36.22
36.105
35.988
35.87
35.751
35.632
35.514
35.398
35.286
35.179
35.076
34.979
34.89
34.808
34.735
34.671
34.615
34.568
34.528
34.497
34.473
34.455
34.443
34.435
34.43
34.427
34.427
34.428
34.428
34.428
34.425
34.419
34.411
34.4
34.388
34.374
34.358
34.34
34.319
34.295
34.268
34.238
34.204
34.168
34.128
34.086
34.043
33.997
33.951
33.903
33.851
33.793
33.73
33.662
33.588
33.51
33.428
33.345
33.261
33.179
33.1
33.024
32.952
32.884
32.818
32.755
32.696
32.64
32.59
32.544
32.501
32.46
32.42
32.38
32.338
32.297
32.254
32.21
32.164
