Trial 1:0back
39.672
39.498
39.33
39.165
39.004
38.845
38.686
38.528
38.368
38.206
38.042
37.874
37.705
37.534
37.362
37.191
37.021
36.853
36.688
36.527
36.372
36.224
36.084
35.954
35.834
35.726
35.631
35.549
35.48
35.425
35.384
35.357
35.344
35.343
35.354
35.376
35.406
35.444
35.487
35.533
35.582
35.631
35.679
35.724
35.764
35.799
35.828
35.849
35.863
35.868
35.866
35.854
35.834
35.804
35.763
35.711
35.649
35.577
35.496
35.408
35.312
35.211
35.106
34.997
34.886
34.774
34.662
34.551
34.441
34.33
34.218
34.105
33.989
33.872
33.753
33.635
33.517
33.402
33.288
33.177
33.068
32.961
32.858
32.757
32.661
32.57
32.483
32.399
32.318
32.24
32.164
32.09
32.02
31.955
31.894
31.838
31.786
31.737
31.689
31.644
31.6
31.56
31.521
31.486
31.452
31.421
31.391
31.363
31.336
31.31
31.284
31.259
31.234
31.209
31.184
31.159
31.132
31.104
31.075
31.045
31.015
30.986
30.958
30.933
30.912
30.896
30.887
30.89
30.906
30.943
31.007
31.104
31.245
31.439
31.692
32.013
32.405
32.871
33.407
34.008
34.666
35.368
36.099
36.844
37.588
38.315
39.012
39.668
40.271
40.815
41.292
41.7
42.036
42.303
42.501
42.636
42.712
42.734
42.708
42.641
42.538
42.405
42.248
42.071
41.878
41.672
41.457
41.235
41.008
40.778
40.548
40.32
40.094
39.872
39.655
39.443
39.238
39.04
38.85
38.668
38.493
38.325
38.163
38.007
37.856
37.709
37.564
37.421
37.277
37.133
36.986
36.835
36.681
36.523
36.363
36.202
36.04
35.88
35.723
35.57
35.423
35.283
35.153
35.032
34.922
34.823
34.736
34.66
34.596
34.543
34.503
34.475
34.459
34.455
34.46
34.475
34.495
34.52
34.548
34.576
34.603
34.627
34.647
34.662
34.672
34.675
34.673
34.663
34.646
34.621
34.587
34.546
34.497
34.44
34.376
34.306
34.23
34.148
34.062
33.972
33.878
33.781
33.681
33.579
33.475
33.371
33.265
33.159
33.052
32.945
32.837
32.73
32.623
32.518
32.415
32.314
32.217
32.123
32.031
31.942
31.853
31.767
31.681
31.596
31.513
31.432
31.354
31.278
31.207
31.14
31.075
31.014
30.954
30.897
30.842
30.79
30.743
30.698
30.658
30.62
30.585
30.552
30.521
30.49
30.461
30.432
30.403
30.375
30.346
30.318
30.291
30.264
30.239
30.214
30.189
30.163
30.136
30.107
30.077
30.046
30.018
29.993
29.976
29.969
29.975
30.0
30.046
30.122
30.235
30.394
30.609
30.888
31.238
31.663
32.161
32.727
33.354
34.031
34.742
35.475
36.212
36.938
37.638
38.299
38.909
39.459
39.941
40.353
40.693
40.962
41.162
41.297
41.372
41.393
41.366
41.299
41.2
41.074
40.928
40.767
40.594
40.414
40.23
40.045
39.86
39.677
39.495
39.316
39.139
38.965
38.795
38.628
38.465
38.306
38.149
37.996
37.847
37.701
37.557
37.412
37.264
37.113
36.961
36.811
36.664
36.524
36.393
36.27
36.156
36.05
35.948
35.851
35.755
35.66
35.563
35.466
35.366
35.266
35.166
35.068
34.972
34.882
34.798
34.72
34.65
34.589
34.536
34.493
34.458
34.431
34.412
34.398
34.388
34.38
34.373
34.368
34.363
34.359
34.356
34.354
34.352
34.349
34.344
34.337
34.326
34.31
34.288
34.26
34.223
34.177
34.123
34.061
33.993
33.92
33.843
33.764
33.684
33.604
33.522
33.44
33.356
33.272
33.187
33.101
33.015
32.93
32.845
32.763
32.682
32.604
32.529
32.456
32.385
32.315
32.247
32.181
32.116
32.054
31.993
31.933
31.875
31.816
31.755
31.69
31.623
31.555
31.485
31.417
31.351
31.289
31.233
31.182
31.136
31.096
31.061
31.028
30.998
30.968
30.938
30.907
30.873
30.838
30.801
30.764
30.726
30.689
30.652
30.615
30.577
30.539
30.501
30.465
30.432
30.404
30.384
30.373
30.375
30.394
30.434
30.5
30.599
30.739
30.927
31.17
31.472
31.834
32.256
32.734
33.26
33.825
34.419
35.031
35.648
36.258
36.851
37.413
37.937
38.414
38.837
39.203
39.509
39.753
39.937
40.062
40.131
40.15
40.123
40.055
39.953
39.824
39.673
39.505
39.326
39.14
38.951
38.763
38.578
38.397
38.223
38.056
37.898
37.746
37.602
37.463
37.329
37.199
37.072
36.947
36.826
36.708
36.594
36.483
36.378
36.276
36.177
36.081
35.987
35.895
35.804
35.712
35.621
35.528
35.434
35.338
35.242
35.144
35.045
34.946
34.848
34.752
34.659
34.571
34.489
34.414
34.348
34.289
34.239
34.196
34.16
34.13
34.107
34.089
34.077
34.07
34.067
34.067
34.07
34.075
34.082
34.09
34.099
34.107
34.113
34.116
34.114
34.108
34.096
34.08
34.059
34.034
34.005
33.973
33.937
33.898
33.854
33.807
33.756
33.702
33.646
33.586
33.524
33.46
33.394
33.326
33.257
33.187
33.118
33.048
32.978
32.909
32.84
32.772
32.706
32.64
32.575
32.51
32.447
32.384
32.323
32.262
32.204
32.147
32.091
32.036
31.98
31.925
31.869
31.813
31.757
31.701
31.646
31.594
31.546
31.501
31.461
31.424
31.389
31.356
31.323
31.289
31.256
31.222
31.189
31.155
31.123
31.09
31.057
31.025
30.993
30.962
30.933
30.906
30.881
30.861
30.846
30.841
30.847
30.871
30.917
30.992
31.102
31.253
31.452
31.7
32.0
32.351
32.749
33.191
33.67
34.177
34.703
35.238
35.771
36.291
36.788
37.252
37.675
38.051
38.374
38.641
38.851
39.005
39.106
39.158
39.164
39.13
39.061
38.963
38.84
38.7
38.545
38.38
38.208
38.03
37.848
37.665
37.48
37.296
37.113
36.932
36.755
36.582
36.414
36.252
36.096
35.948
35.807
35.674
35.549
35.432
35.322
35.219
35.121
35.029
34.942
34.858
34.777
34.699
34.622
34.546
34.471
34.397
34.322
34.248
34.175
34.103
34.033
33.965
33.9
33.84
33.784
33.732
33.685
33.644
33.61
33.582
33.563
33.551
33.548
33.552
33.56
33.573
33.587
33.601
33.615
33.627
33.637
33.645
33.652
33.656
33.658
33.656
33.651
33.642
33.629
33.611
33.589
33.563
33.533
33.5
33.465
33.427
33.389
33.349
33.308
33.266
33.222
33.176
33.129
33.08
33.03
32.979
32.927
32.875
32.821
32.767
32.712
32.656
32.6
32.544
32.487
32.43
32.374
32.317
32.261
32.205
32.15
32.096
32.043
31.993
31.944
31.898
31.853
31.809
31.765
31.721
31.677
31.631
31.587
31.543
31.501
31.463
31.428
31.395
31.366
31.338
31.313
31.289
31.265
31.242
31.22
31.197
31.174
31.151
31.126
31.101
31.075
31.048
31.02
30.993
30.968
30.946
30.93
30.924
30.934
30.963
31.017
31.104
31.228
31.394
31.606
31.865
32.173
32.528
32.925
33.357
33.817
34.294
34.779
35.262
35.733
36.183
36.604
36.988
37.329
37.623
37.867
38.06
38.203
38.297
38.345
38.35
38.315
38.243
38.139
38.009
37.857
37.69
37.511
37.325
37.135
36.943
36.753
36.566
36.383
36.204
36.03
35.859
35.692
35.529
35.37
35.216
35.068
34.925
34.788
34.657
34.531
34.41
34.294
34.184
34.08
33.981
33.888
33.799
33.714
33.633
33.557
33.483
33.413
33.347
33.285
33.226
33.173
33.124
33.082
33.046
33.016
32.994
32.978
32.969
32.967
32.969
32.977
32.989
33.007
33.03
33.057
33.088
33.122
33.157
33.192
33.226
33.258
33.287
33.312
33.333
33.348
33.357
33.361
33.359
33.353
33.342
33.327
33.308
33.288
33.264
33.239
33.211
33.18
33.147
33.112
33.075
33.036
32.996
32.955
32.913
32.869
32.823
32.775
32.724
32.67
32.613
32.553
32.491
32.428
32.364
32.301
32.238
32.176
32.114
32.055
31.998
31.944
31.892
31.845
31.801
31.762
31.727
31.696
31.669
31.644
31.62
31.598
31.575
31.551
31.526
31.499
31.469
31.438
31.405
31.372
31.339
31.306
31.275
31.245
31.216
31.187
31.159
31.129
31.099
31.067
31.035
31.003
30.971
30.939
30.91
30.883
30.86
30.841
30.829
30.826
30.836
30.861
30.908
30.981
31.086
31.229
31.412
31.639
31.911
32.226
32.581
32.969
33.386
33.823
34.271
34.721
35.165
35.592
35.995
36.366
36.699
36.989
37.233
37.428
37.573
37.669
37.719
37.725
37.691
37.622
37.521
37.395
37.247
37.083
36.906
36.722
36.534
36.343
36.153
35.964
35.779
35.598
35.421
35.251
35.087
34.929
34.776
34.627
34.483
34.341
34.204
34.07
33.94
33.815
33.694
33.578
33.468
33.363
33.262
33.166
33.073
32.982
32.895
32.81
32.729
32.654
32.586
32.527
32.477
32.437
32.406
32.384
32.37
32.364
32.365
32.375
32.393
32.421
32.458
32.503
32.555
32.613
32.675
32.738
32.802
32.865
32.925
32.982
33.034
33.08
33.12
33.153
33.178
33.197
33.209
33.216
33.216
33.211
33.2
33.184
33.163
33.138
33.108
33.073
33.035
32.993
32.949
32.901
32.853
32.804
32.755
32.705
32.655
32.605
32.553
32.5
32.445
32.39
32.335
32.281
32.229
32.179
32.13
32.082
32.034
31.985
31.935
31.884
31.833
31.782
31.732
31.688
31.648
31.613
31.582
31.554
31.529
31.505
31.482
31.461
31.441
31.422
31.403
31.384
31.366
31.348
31.33
31.314
31.3
31.287
31.276
31.267
31.259
31.252
31.246
31.24
31.235
31.229
31.223
31.216
31.208
31.198
31.186
31.172
31.156
31.138
31.12
31.101
31.082
31.063
31.045
31.028
31.013
30.999
30.988
30.98
30.975
30.975
30.984
31.004
31.038
31.091
31.169
31.275
31.414
31.588
31.798
32.046
32.327
32.641
32.983
33.347
33.728
34.118
34.511
34.898
35.273
35.626
35.951
36.242
36.494
36.703
36.867
36.985
37.058
37.088
37.077
37.03
36.952
36.846
36.719
36.575
36.417
36.25
36.076
35.899
35.72
35.542
35.367
35.195
35.029
34.869
34.716
34.569
34.428
34.292
34.16
34.032
33.907
33.785
33.665
33.548
33.434
33.323
33.215
33.109
33.005
32.904
32.805
32.709
32.617
32.53
32.45
32.376
32.311
32.255
32.209
32.172
32.145
32.128
32.122
32.126
32.14
32.165
32.2
32.244
32.297
32.356
32.421
32.49
32.56
32.631
32.702
32.771
32.838
32.903
32.964
33.022
33.077
33.126
33.17
33.207
33.236
33.256
33.267
33.27
33.266
33.256
33.242
33.223
33.201
33.175
33.147
33.114
33.078
33.038
32.995
32.95
32.903
32.853
32.802
32.75
32.697
32.644
32.593
32.544
32.498
32.456
32.418
32.383
32.353
32.325
32.301
32.28
32.261
32.243
32.226
32.209
32.192
32.174
32.156
32.136
32.115
32.092
32.066
32.04
32.012
31.984
31.957
31.932
31.91
31.891
31.875
31.861
31.849
31.836
31.824
31.812
31.801
31.79
31.78
31.771
31.763
31.754
31.744
31.734
31.723
31.71
31.696
31.682
31.666
31.65
31.634
31.618
31.602
31.586
31.572
31.558
31.546
31.533
31.521
31.509
31.497
31.488
31.481
31.478
31.483
31.496
31.52
31.56
31.617
31.696
31.802
31.938
32.108
32.313
32.552
32.823
33.122
33.446
33.787
34.142
34.503
34.863
35.214
35.546
35.854
36.134
36.379
36.589
36.759
36.887
36.975
37.023
37.033
37.008
36.953
36.871
36.765
36.64
36.499
36.345
36.181
36.01
35.835
35.657
35.481
35.306
35.136
34.972
34.816
34.667
34.525
34.392
34.264
34.143
34.026
33.913
33.803
33.696
33.592
33.489
33.387
33.286
33.186
33.087
32.991
32.898
32.809
32.725
32.647
32.575
32.51
32.452
32.403
32.362
32.33
32.308
32.295
32.292
32.299
32.316
32.343
32.379
32.425
32.478
32.54
32.606
32.677
32.75
32.824
32.897
32.968
33.037
33.103
33.165
33.223
33.278
33.327
33.37
33.407
33.436
33.457
33.473
33.483
33.489
33.49
33.487
33.481
33.472
33.459
33.442
33.421
33.396
33.368
33.337
33.304
33.268
33.231
33.193
33.154
33.115
33.075
33.035
32.993
32.951
32.908
32.864
32.819
32.773
32.727
32.68
32.634
32.588
32.544
32.502
32.461
32.423
32.388
32.355
32.324
32.295
32.267
32.241
32.215
32.191
32.17
32.15
32.133
32.118
32.106
32.096
32.087
32.078
32.07
32.06
32.049
32.036
32.023
32.01
31.997
31.985
31.972
31.96
31.947
31.934
31.921
31.908
31.894
31.881
31.87
31.86
31.852
31.846
31.842
31.838
31.835
31.833
31.831
31.829
31.828
31.828
31.829
31.832
31.836
31.843
31.853
31.867
31.887
31.916
31.956
32.013
32.089
32.192
32.323
32.489
32.691
32.931
33.208
33.52
33.86
34.223
34.6
34.984
35.366
35.738
36.091
36.42
36.718
36.98
37.202
37.384
37.523
37.62
37.676
37.694
37.675
37.623
37.543
37.437
37.31
37.167
37.012
36.848
36.679
36.507
36.335
36.165
35.998
35.835
35.676
35.522
35.373
35.228
35.088
34.952
34.821
34.692
34.567
34.444
34.322
34.202
34.084
33.968
33.857
33.749
33.645
33.546
33.452
33.362
33.277
33.197
33.124
33.057
32.998
32.947
32.904
32.87
32.844
32.827
32.821
32.825
32.839
32.863
32.896
32.937
32.985
33.039
33.099
33.164
33.235
33.313
33.403
33.501
33.604
33.709
33.81
33.905
33.99
34.062
34.12
34.164
34.193
34.209
34.214
34.209
34.197
34.177
34.152
34.123
34.089
34.053
34.015
33.976
33.938
33.9
33.862
33.825
33.788
33.752
33.715
33.679
33.643
33.607
33.571
33.535
33.497
33.457
33.414
33.369
33.324
33.277
33.232
33.187
33.144
33.103
33.064
33.027
32.991
32.958
32.926
32.895
32.865
32.835
32.805
32.776
32.747
32.717
32.687
32.655
32.624
32.591
32.56
32.528
32.498
32.47
32.445
32.423
32.404
32.387
32.372
32.358
32.345
32.333
32.321
32.309
32.299
32.29
32.284
32.28
32.278
32.278
32.279
32.282
32.286
32.291
32.297
32.304
32.312
32.319
32.328
32.339
32.35
32.362
32.374
32.386
32.397
32.406
32.413
32.418
32.42
32.421
32.419
32.417
32.414
32.411
32.408
32.406
32.406
32.41
32.419
32.437
32.469
32.52
32.594
32.698
32.836
33.011
33.227
33.483
33.778
34.109
34.47
34.855
35.255
35.662
36.067
36.462
36.837
37.187
37.503
37.782
38.02
38.214
38.364
38.469
38.532
38.556
38.544
38.499
38.427
38.329
38.211
38.075
37.925
37.764
37.596
37.422
37.246
37.07
36.894
36.721
36.552
36.388
36.23
36.077
35.93
35.789
35.652
35.519
35.39
35.263
35.14
35.019
34.901
34.784
34.67
34.556
34.446
34.339
34.237
34.141
34.05
33.967
33.89
33.82
33.755
33.697
33.645
33.601
33.564
33.538
33.521
33.515
33.519
33.535
33.56
33.595
33.638
33.687
33.742
33.8
33.862
33.926
33.992
34.058
34.125
34.191
34.254
34.314
34.371
34.423
34.472
34.517
34.557
34.591
34.62
34.642
34.658
34.668
34.674
34.674
34.67
34.663
34.651
34.634
34.614
34.589
34.561
34.529
34.493
34.454
34.412
34.367
34.319
34.268
34.216
34.164
34.112
34.06
34.01
33.962
33.916
33.873
33.832
33.791
33.75
33.707
33.663
33.617
33.57
33.523
33.477
33.433
33.392
33.353
33.315
33.278
33.241
33.205
33.168
33.129
33.087
33.044
32.999
32.955
32.912
32.871
32.835
32.804
32.778
32.759
32.745
32.738
32.734
32.734
32.734
32.735
32.735
32.736
32.737
32.74
32.744
32.75
32.756
32.764
32.773
32.781
32.789
32.796
32.802
32.806
32.808
32.808
32.807
32.805
32.802
32.799
32.795
32.792
32.788
32.783
32.778
32.772
32.766
32.76
32.755
32.75
32.745
32.742
32.742
32.745
32.754
32.771
32.798
32.837
32.894
32.973
33.079
33.215
33.388
33.6
33.851
34.14
34.465
34.82
35.198
35.592
35.994
36.395
36.788
37.163
37.514
37.833
38.118
38.362
38.566
38.727
38.845
38.922
38.96
38.964
38.94
38.89
38.82
38.732
38.629
38.514
38.387
38.251
38.105
37.953
37.794
37.631
37.464
37.295
37.126
36.957
36.789
36.625
36.465
36.311
36.163
36.022
35.886
35.756
35.632
35.512
35.396
35.284
35.175
35.069
34.966
34.865
34.769
34.678
34.592
34.512
34.44
34.375
34.318
34.269
34.228
34.195
34.171
34.153
34.144
34.142
34.149
34.165
34.19
34.224
34.268
34.32
34.378
34.44
34.505
34.572
34.639
34.706
34.771
34.836
34.899
34.959
35.017
35.071
35.12
35.165
35.206
35.24
35.268
35.291
35.306
35.316
35.318
35.314
35.304
35.288
35.267
35.243
35.215
35.185
35.152
35.117
35.081
35.043
35.005
34.965
34.924
34.881
34.835
34.786
34.733
34.678
34.62
34.561
34.502
34.443
34.387
34.333
34.282
34.234
34.19
34.148
34.109
34.071
34.034
33.996
33.957
33.919
33.882
33.846
33.814
33.784
33.759
33.737
33.717
33.701
33.687
33.675
33.664
33.655
33.647
33.64
33.634
33.628
33.623
33.619
33.616
33.612
33.607
33.601
33.593
33.582
33.57
33.558
33.546
33.534
33.522
33.511
33.5
33.489
33.479
33.469
33.462
33.456
33.453
33.451
33.451
33.451
33.452
33.453
33.456
33.46
33.468
33.482
33.503
33.534
33.578
33.641
33.725
33.835
33.976
34.151
34.361
34.608
34.89
35.205
35.549
35.915
36.298
36.689
37.08
37.465
37.835
38.183
38.502
38.786
39.033
39.239
39.405
39.53
39.616
39.664
39.676
39.654
39.604
39.527
39.43
39.315
39.187
39.048
38.904
38.757
38.61
38.466
38.324
38.187
38.052
37.92
37.789
37.661
37.535
37.412
37.29
37.17
37.053
36.939
36.827
36.721
36.619
36.522
36.43
36.344
36.262
36.186
36.115
36.048
35.986
35.93
35.877
35.829
35.783
35.74
35.698
35.658
35.62
35.585
35.553
35.525
35.505
35.491
35.487
35.491
35.505
35.529
35.561
35.603
35.651
35.705
35.762
35.821
35.878
35.934
35.987
36.035
36.079
36.119
36.154
36.184
36.211
36.233
36.252
36.266
36.274
36.277
36.275
36.267
36.253
36.232
36.205
36.171
36.132
36.089
36.043
35.995
35.947
35.899
35.853
35.807
35.761
35.717
35.673
35.629
35.586
35.542
35.496
35.45
35.401
35.35
35.297
35.243
35.188
35.132
35.077
35.024
34.973
34.924
34.88
34.84
34.803
34.771
34.74
34.712
34.683
34.655
34.625
34.595
34.566
34.537
34.51
34.486
34.464
34.444
34.426
34.41
34.396
34.382
34.368
34.353
34.338
34.321
34.304
34.286
34.267
34.249
34.231
34.215
34.201
34.189
34.179
34.171
34.163
34.156
34.147
34.138
34.128
34.117
34.105
34.093
34.08
34.067
34.055
34.043
34.033
34.026
34.022
34.025
34.036
34.056
34.087
34.132
34.195
34.279
34.39
34.532
34.707
34.918
35.167
35.453
35.774
36.127
36.505
36.902
37.312
37.726
38.137
38.538
38.92
39.277
39.604
39.896
40.149
40.361
40.53
40.656
40.74
40.785
40.794
40.771
40.721
40.647
40.554
40.448
40.333
40.212
40.09
39.968
39.847
39.729
39.614
39.503
39.398
39.297
39.2
39.106
39.014
38.925
38.838
38.753
38.67
38.589
38.511
38.435
38.361
38.289
38.219
38.152
38.087
38.024
37.963
37.904
37.847
37.793
37.741
37.692
37.645
37.601
37.559
37.519
37.481
37.445
37.411
37.378
37.346
37.316
37.288
37.264
37.245
37.23
37.22
37.215
37.216
37.222
37.234
37.251
37.27
37.291
37.312
37.333
37.352
37.366
37.376
37.379
37.376
37.366
37.349
37.326
37.299
37.27
37.239
37.208
37.176
37.145
37.113
37.082
37.052
37.021
36.99
36.956
36.921
36.883
36.843
36.8
36.755
36.708
36.659
36.608
36.554
36.498
36.441
36.384
36.327
36.271
36.217
36.167
36.119
36.074
36.031
35.991
35.952
35.915
35.879
35.843
35.807
35.77
35.732
35.694
35.657
35.621
35.586
35.553
35.522
35.493
35.466
35.44
35.413
35.385
35.355
35.324
35.292
35.26
35.228
35.198
35.17
35.144
35.121
35.099
35.08
35.062
35.044
35.026
35.008
34.987
34.965
34.941
34.915
34.889
34.864
34.839
34.816
34.795
34.776
34.76
34.748
34.738
34.731
34.727
34.724
34.721
34.718
34.714
34.708
34.7
34.689
34.676
34.662
34.645
34.628
34.611
34.594
34.578
34.562
34.547
34.532
34.517
34.502
34.488
34.475
34.467
34.464
34.472
34.494
34.534
34.6
34.695
34.825
34.993
35.201
35.45
35.737
36.06
36.415
36.796
37.196
37.609
38.027
38.443
38.85
39.241
39.61
39.952
40.262
40.537
40.774
40.973
41.133
41.257
41.344
41.397
41.419
41.414
41.385
41.334
41.266
41.183
41.089
40.987
40.878
40.766
40.651
40.537
40.424
40.314
40.208
40.106
40.01
39.919
39.835
39.758
39.687
39.622
39.562
39.508
39.457
39.411
39.368
39.328
39.291
39.257
39.226
39.194
39.162
39.127
39.087
39.042
38.991
38.934
38.872
38.805
38.735
38.665
38.594
38.527
38.463
38.403
38.35
38.304
38.266
38.236
38.215
38.201
38.193
38.192
38.195
38.201
38.209
38.218
38.225
