Trial 1:0back
32.854
32.8
32.748
32.7
32.656
32.614
32.576
32.541
32.507
32.476
32.446
32.419
32.394
32.371
32.349
32.327
32.306
32.286
32.268
32.254
32.243
32.234
32.228
32.224
32.222
32.22
32.221
32.223
32.23
32.241
32.259
32.288
32.33
32.391
32.476
32.592
32.742
32.934
33.171
33.455
33.789
34.172
34.602
35.075
35.585
36.125
36.687
37.261
37.837
38.406
38.956
39.479
39.967
40.412
40.807
41.149
41.435
41.665
41.838
41.956
42.022
42.041
42.018
41.957
41.863
41.742
41.599
41.438
41.263
41.079
40.889
40.695
40.5
40.306
40.116
39.928
39.745
39.566
39.389
39.214
39.042
38.873
38.705
38.54
38.377
38.215
38.053
37.893
37.733
37.575
37.416
37.257
37.097
36.939
36.781
36.625
36.471
36.319
36.17
36.025
35.884
35.749
35.618
35.493
35.376
35.267
35.168
35.079
35.001
34.935
34.879
34.834
34.799
34.773
34.756
34.745
34.741
34.743
34.751
34.764
34.783
34.806
34.831
34.857
34.882
34.907
34.929
34.946
34.959
34.966
34.966
34.962
34.951
34.935
34.913
34.886
34.853
34.815
34.772
34.723
34.669
34.611
34.548
34.482
34.413
34.343
34.271
34.197
34.124
34.052
33.981
33.912
33.844
33.776
33.709
33.642
33.576
33.51
33.444
33.378
33.312
33.247
33.184
33.122
33.061
33.002
32.944
32.888
32.833
32.781
32.732
32.686
32.644
32.604
32.567
32.533
32.501
32.47
32.442
32.416
32.391
32.367
32.344
32.321
32.298
32.277
32.257
32.239
32.225
32.216
32.211
32.209
32.212
32.22
32.235
32.26
32.296
32.348
32.419
32.513
32.636
32.794
32.99
33.229
33.513
33.844
34.221
34.642
35.102
35.595
36.116
36.656
37.206
37.758
38.302
38.829
39.33
39.796
40.221
40.598
40.923
41.193
41.408
41.568
41.675
41.73
41.738
41.704
41.631
41.526
41.393
41.237
41.063
40.875
40.679
40.475
40.269
40.062
39.856
39.654
39.456
39.264
39.081
38.91
38.75
38.599
38.456
38.318
38.181
38.044
37.905
37.761
37.611
37.455
37.294
37.128
36.956
36.781
36.602
36.424
36.246
36.073
35.904
35.741
35.585
35.437
35.297
35.166
35.044
34.932
34.829
34.736
34.655
34.584
34.526
34.478
34.442
34.416
34.399
34.391
34.39
34.394
34.403
34.414
34.429
34.446
34.466
34.488
34.511
34.534
34.556
34.576
34.595
34.612
34.625
34.634
34.638
34.636
34.629
34.615
34.595
34.568
34.535
34.496
34.453
34.405
34.355
34.302
34.246
34.189
34.131
34.071
34.01
33.946
33.88
33.812
33.743
33.672
33.601
33.529
33.458
33.386
33.315
33.245
33.177
33.11
33.046
32.985
32.926
32.872
32.821
32.775
32.732
32.692
32.655
32.62
32.587
32.556
32.526
32.497
32.468
32.44
32.411
32.383
32.356
32.331
32.308
32.286
32.266
32.247
32.228
32.211
32.194
32.179
32.166
32.156
32.148
32.144
32.144
32.149
32.162
32.185
32.222
32.275
32.348
32.444
32.568
32.725
32.918
33.152
33.428
33.746
34.108
34.509
34.948
35.418
35.914
36.429
36.953
37.479
37.996
38.497
38.973
39.417
39.823
40.186
40.503
40.77
40.986
41.152
41.267
41.336
41.359
41.341
41.284
41.193
41.073
40.928
40.763
40.582
40.389
40.187
39.979
39.768
39.556
39.347
39.14
38.937
38.737
38.542
38.351
38.165
37.981
37.8
37.62
37.439
37.26
37.082
36.906
36.73
36.555
36.382
36.213
36.049
35.891
35.738
35.592
35.452
35.318
35.193
35.077
34.969
34.871
34.783
34.704
34.636
34.579
34.531
34.492
34.461
34.439
34.423
34.415
34.413
34.416
34.425
34.439
34.457
34.479
34.503
34.53
34.557
34.585
34.613
34.641
34.668
34.693
34.714
34.732
34.746
34.756
34.761
34.759
34.751
34.736
34.715
34.689
34.657
34.621
34.58
34.537
34.494
34.449
34.403
34.354
34.302
34.246
34.185
34.119
34.049
33.977
33.902
33.825
33.747
33.668
33.59
33.514
33.44
33.369
33.301
33.239
33.181
33.127
33.078
33.032
32.988
32.947
32.908
32.871
32.836
32.803
32.771
32.74
32.71
32.681
32.652
32.623
32.595
32.568
32.54
32.514
32.488
32.464
32.442
32.422
32.404
32.389
32.375
32.364
32.356
32.35
32.348
32.352
32.364
32.387
32.424
32.479
32.558
32.664
32.803
32.979
33.195
33.453
33.753
34.097
34.481
34.904
35.359
35.841
36.343
36.857
37.375
37.889
38.39
38.87
39.321
39.735
40.108
40.434
40.712
40.941
41.12
41.249
41.331
41.367
41.361
41.316
41.236
41.126
40.989
40.83
40.655
40.466
40.267
40.063
39.855
39.647
39.44
39.235
39.032
38.834
38.64
38.452
38.27
38.094
37.923
37.756
37.592
37.432
37.273
37.115
36.957
36.8
36.642
36.485
36.327
36.169
36.011
35.856
35.704
35.556
35.414
35.277
35.147
35.025
34.912
34.809
34.718
34.638
34.572
34.518
34.476
34.447
34.428
34.419
34.42
34.428
34.444
34.467
34.497
34.531
34.567
34.604
34.642
34.679
34.714
34.746
34.772
34.792
34.806
34.815
34.818
34.816
34.808
34.794
34.775
34.75
34.721
34.687
34.648
34.605
34.556
34.504
34.449
34.392
34.333
34.273
34.211
34.148
34.087
34.027
33.969
33.911
33.852
33.792
33.731
33.668
33.604
33.54
33.475
33.41
33.345
33.279
33.215
33.15
33.086
33.024
32.964
32.907
32.852
32.8
32.751
32.705
32.662
32.624
32.589
32.557
32.528
32.502
32.479
32.457
32.437
32.417
32.398
32.381
32.365
32.349
32.333
32.317
32.301
32.285
32.27
32.256
32.244
32.233
32.225
32.22
32.22
32.227
32.243
32.271
32.312
32.373
32.455
32.564
32.704
32.88
33.096
33.355
33.659
34.008
34.401
34.834
35.302
35.8
36.32
36.855
37.397
37.935
38.464
38.973
39.454
39.901
40.306
40.665
40.973
41.229
41.432
41.582
41.68
41.73
41.734
41.697
41.624
41.521
41.391
41.24
41.072
40.892
40.703
40.51
40.314
40.117
39.923
39.732
39.546
39.365
39.189
39.019
38.854
38.694
38.537
38.383
38.233
38.084
37.937
37.791
37.645
37.501
37.357
37.213
37.07
36.926
36.782
36.637
36.493
36.35
36.209
36.069
35.932
35.798
35.668
35.544
35.426
35.315
35.212
35.118
35.035
34.965
34.906
34.858
34.82
34.791
34.772
34.76
34.755
34.756
34.763
34.775
34.79
34.808
34.829
34.849
34.869
34.886
34.899
34.91
34.916
34.917
34.912
34.9
34.882
34.859
34.83
34.797
34.758
34.715
34.669
34.619
34.567
34.514
34.458
34.402
34.344
34.285
34.224
34.162
34.097
34.03
33.96
33.888
33.815
33.741
33.667
33.594
33.521
33.448
33.378
33.311
33.246
33.185
33.126
33.071
33.02
32.972
32.927
32.885
32.845
32.808
32.773
32.739
32.706
32.673
32.639
32.606
32.572
32.539
32.507
32.476
32.446
32.418
32.391
32.366
32.343
32.324
32.308
32.294
32.283
32.273
32.264
32.256
32.249
32.243
32.239
32.235
32.233
32.233
32.233
32.236
32.242
32.252
32.269
32.295
32.332
32.385
32.455
32.55
32.673
32.83
33.025
33.263
33.545
33.871
34.241
34.651
35.098
35.577
36.08
36.6
37.129
37.658
38.179
38.682
39.162
39.611
40.021
40.388
40.709
40.979
41.197
41.363
41.477
41.541
41.559
41.535
41.474
41.381
41.261
41.119
40.96
40.789
40.608
40.421
40.231
40.042
39.853
39.668
39.485
39.306
39.131
38.96
38.793
38.628
38.467
38.307
38.15
37.995
37.842
37.69
37.538
37.386
37.235
37.084
36.934
36.783
36.633
36.483
36.333
36.185
36.04
35.898
35.761
35.629
35.503
35.383
35.27
35.165
35.067
34.977
34.896
34.823
34.76
34.706
34.662
34.628
34.604
34.59
34.583
34.582
34.588
34.597
34.61
34.625
34.641
34.657
34.673
34.689
34.706
34.721
34.735
34.745
34.751
34.752
34.748
34.74
34.726
34.706
34.679
34.647
34.61
34.566
34.518
34.463
34.403
34.337
34.267
34.192
34.115
34.037
33.958
33.879
33.802
33.728
33.657
33.591
33.527
33.466
33.406
33.348
33.292
33.237
33.182
33.129
33.077
33.026
32.977
32.929
32.881
32.836
32.791
32.749
32.71
32.672
32.637
32.602
32.57
32.538
32.509
32.48
32.454
32.429
32.405
32.382
32.36
32.339
32.317
32.297
32.278
32.26
32.244
32.23
32.219
32.211
32.205
32.201
32.199
32.199
32.201
32.204
32.207
32.211
32.213
32.215
32.216
32.216
32.218
32.222
32.231
32.246
32.27
32.305
32.356
32.427
32.521
32.643
32.798
32.99
33.22
33.491
33.804
34.156
34.545
34.968
35.42
35.893
36.381
36.877
37.371
37.857
38.326
38.77
39.185
39.563
39.9
40.194
40.441
40.641
40.794
40.901
40.963
40.984
40.967
40.915
40.833
40.725
40.594
40.444
40.278
40.099
39.911
39.714
39.513
39.31
39.106
38.903
38.701
38.502
38.308
38.12
37.937
37.76
37.587
37.418
37.253
37.091
36.932
36.774
36.618
36.465
36.313
36.164
36.017
35.871
35.728
35.588
35.451
35.319
35.192
35.072
34.957
34.85
34.751
34.662
34.583
34.514
34.454
34.404
34.363
34.333
34.312
34.3
34.295
34.295
34.301
34.313
34.329
34.35
34.374
34.399
34.425
34.452
34.478
34.504
34.528
34.549
34.568
34.584
34.596
34.605
34.61
34.608
34.6
34.585
34.563
34.536
34.503
34.464
34.421
34.375
34.326
34.274
34.222
34.168
34.113
34.057
34.0
33.943
33.885
33.827
33.77
33.713
33.657
33.602
33.549
33.496
33.444
33.393
33.343
33.295
33.248
33.203
33.161
33.12
33.081
33.043
33.008
32.974
32.942
32.91
32.878
32.847
32.817
32.787
32.759
32.733
32.708
32.685
32.663
32.642
32.623
32.604
32.589
32.575
32.564
32.554
32.545
32.537
32.531
32.525
32.521
32.517
32.513
32.508
32.502
32.495
32.49
32.487
32.49
32.501
32.521
32.553
32.6
32.665
32.752
32.865
33.008
33.183
33.395
33.644
33.932
34.258
34.62
35.015
35.436
35.88
36.338
36.803
37.269
37.727
38.169
38.59
38.983
39.344
39.668
39.951
40.191
40.386
40.537
40.644
40.708
40.733
40.72
40.673
40.596
40.492
40.365
40.217
40.052
39.873
39.685
39.49
39.291
39.089
38.888
38.688
38.49
38.294
38.101
37.912
37.726
37.543
37.363
37.187
37.012
36.84
36.671
36.505
36.341
36.179
36.02
35.864
35.712
35.564
35.42
35.28
35.145
35.016
34.893
34.777
34.67
34.571
34.481
34.401
34.333
34.274
34.226
34.188
34.159
34.139
34.129
34.129
34.136
34.151
34.171
34.197
34.227
34.26
34.294
34.328
34.361
34.392
34.421
34.447
34.469
34.487
34.499
34.506
34.507
34.503
34.495
34.482
34.466
34.446
34.422
34.396
34.367
34.334
34.299
34.26
34.218
34.173
34.126
34.079
34.03
33.981
33.93
33.878
33.825
33.77
33.715
33.66
33.606
33.553
33.5
33.449
33.398
33.348
33.299
33.25
33.201
33.154
33.106
33.06
33.014
32.971
32.931
32.893
32.859
32.827
32.799
32.773
32.75
32.728
32.707
32.686
32.666
32.646
32.626
32.606
32.589
32.572
32.557
32.543
32.53
32.517
32.505
32.494
32.483
32.472
32.461
32.452
32.444
32.441
32.443
32.452
32.472
32.504
32.552
32.618
32.707
32.82
32.963
33.136
33.345
33.589
33.871
34.19
34.547
34.937
35.359
35.805
36.271
36.749
37.232
37.71
38.178
38.626
39.049
39.44
39.793
40.107
40.376
40.6
40.777
40.908
40.994
41.036
41.038
41.004
40.936
40.838
40.716
40.572
40.413
40.241
40.059
39.872
39.682
39.492
39.302
39.115
38.929
38.747
38.568
38.394
38.225
38.06
37.897
37.738
37.581
37.427
37.274
37.123
36.971
36.82
36.669
36.518
36.369
36.22
36.072
35.926
35.783
35.643
35.508
35.379
35.254
35.136
35.025
34.923
34.828
34.741
34.662
34.591
34.529
34.476
34.431
34.395
34.368
34.35
34.339
34.337
34.343
34.355
34.373
34.394
34.419
34.444
34.469
34.491
34.511
34.527
34.538
34.547
34.552
34.553
34.552
34.547
34.539
34.53
34.517
34.501
34.48
34.455
34.426
34.393
34.358
34.32
34.28
34.239
34.196
34.152
34.105
34.058
34.008
33.958
33.905
33.85
33.793
33.736
33.677
33.618
33.56
33.501
33.445
33.39
33.338
33.289
33.242
33.197
33.154
33.112
33.073
33.035
33.0
32.966
32.935
32.905
32.877
32.851
32.825
32.801
32.776
32.751
32.724
32.697
32.67
32.644
32.62
32.598
32.579
32.562
32.548
32.536
32.526
32.518
32.512
32.506
32.501
32.497
32.493
32.492
32.495
32.503
32.519
32.546
32.586
32.644
32.72
32.82
32.947
33.104
33.296
33.526
33.796
34.106
34.455
34.841
35.259
35.706
36.173
36.654
37.14
37.624
38.098
38.554
38.984
39.382
39.742
40.061
40.336
40.564
40.745
40.88
40.969
41.015
41.02
40.987
40.92
40.824
40.703
40.56
40.398
40.223
40.038
39.846
39.65
39.451
39.252
39.055
38.861
38.671
38.485
38.303
38.123
37.949
37.779
37.616
37.457
37.303
37.154
37.008
36.865
36.724
36.585
36.447
36.309
36.172
36.035
35.899
35.765
35.633
35.505
35.381
35.261
35.147
35.038
34.936
34.841
34.754
34.675
34.605
34.544
34.491
34.446
34.409
34.38
34.358
34.34
34.328
34.32
34.317
34.319
34.327
34.338
34.354
34.375
34.4
34.427
34.457
34.487
34.515
34.542
34.566
34.587
34.604
34.614
34.618
34.615
34.603
34.583
34.556
34.523
34.483
34.438
34.388
34.335
34.28
34.224
34.166
34.109
34.053
33.997
33.941
33.885
33.83
33.775
33.721
33.667
33.614
33.561
33.509
33.457
33.406
33.358
33.313
33.27
33.229
33.189
33.151
33.114
33.077
33.041
33.005
32.97
32.936
32.903
32.872
32.842
32.815
32.789
32.765
32.742
32.722
32.703
32.685
32.669
32.653
32.638
32.622
32.607
32.593
32.579
32.566
32.554
32.543
32.533
32.522
32.513
32.505
32.5
32.499
32.503
32.516
32.539
32.576
32.63
32.704
32.801
32.925
33.079
33.267
33.491
33.753
34.054
34.392
34.765
35.167
35.592
36.036
36.491
36.949
37.403
37.844
38.268
38.666
39.033
39.366
39.661
39.915
40.126
40.295
40.423
40.509
40.557
40.567
40.542
40.487
40.403
40.296
40.169
40.025
39.866
39.697
39.52
39.337
39.151
38.962
38.773
38.585
38.398
38.212
38.03
37.85
37.673
37.5
37.331
37.168
37.008
36.853
36.701
36.553
36.407
36.265
36.125
35.987
35.851
35.718
35.587
35.46
35.335
35.214
35.097
34.986
34.881
34.782
34.692
34.61
34.537
34.474
34.422
34.381
34.348
34.323
34.304
34.292
34.284
34.282
34.284
34.29
34.299
34.311
34.326
34.345
34.366
34.388
34.41
34.432
34.452
34.469
34.483
34.494
34.5
34.503
34.502
34.497
34.49
34.48
34.466
34.45
34.431
34.409
34.383
34.354
34.322
34.287
34.248
34.207
34.164
34.118
34.07
34.02
33.969
33.916
33.862
33.807
33.753
33.7
33.648
33.597
33.55
33.507
33.468
33.433
33.4
33.37
33.341
33.312
33.282
33.251
33.218
33.183
33.148
33.113
33.078
33.044
33.01
32.978
32.946
32.917
32.891
32.867
32.845
32.824
32.805
32.786
32.768
32.75
32.733
32.717
32.703
32.69
32.68
32.672
32.667
32.665
32.665
32.666
32.669
32.675
32.684
32.7
32.723
32.758
32.806
32.871
32.956
33.065
33.202
33.369
33.57
33.805
34.078
34.386
34.729
35.101
35.499
35.915
36.343
36.776
37.207
37.628
38.032
38.414
38.767
39.089
39.376
39.625
39.836
40.007
40.138
40.229
40.282
40.297
40.277
40.225
40.145
40.039
39.911
39.765
39.604
39.43
39.248
39.059
38.866
38.671
38.476
38.282
38.089
37.898
37.71
37.526
37.345
37.167
36.992
36.82
36.651
36.487
36.327
36.17
36.016
35.865
35.718
35.574
35.434
35.298
35.167
35.039
34.917
34.799
34.688
34.585
34.49
34.406
34.333
34.272
34.223
34.186
34.16
34.145
34.14
34.143
34.155
34.174
34.199
34.228
34.261
34.295
34.33
34.366
34.401
34.435
34.466
34.495
34.52
34.541
34.559
34.574
34.585
34.593
34.597
34.596
34.592
34.584
34.572
34.558
34.54
34.519
34.496
34.47
34.442
34.411
34.379
34.344
34.308
34.271
34.231
34.191
34.149
34.107
34.063
34.018
33.972
33.923
33.873
33.822
33.771
33.719
33.668
33.616
33.564
33.514
33.466
33.421
33.379
33.341
33.307
33.276
33.248
33.225
33.204
33.186
33.169
33.154
33.14
33.125
33.109
33.092
33.074
33.054
33.033
33.013
32.992
32.973
32.954
32.937
32.919
32.903
32.888
32.875
32.864
32.854
32.847
32.843
32.842
32.846
32.858
32.879
32.913
32.96
33.022
33.1
33.198
33.321
33.476
33.667
33.897
34.168
34.481
34.831
35.216
35.631
36.067
36.519
36.976
37.43
37.874
38.3
38.701
39.071
39.406
39.701
39.954
40.164
40.33
40.454
40.536
40.577
40.582
40.553
40.493
40.406
40.294
40.163
40.015
39.854
39.681
39.5
39.315
39.126
38.936
38.746
38.558
38.371
38.188
38.008
37.832
37.659
37.489
37.323
37.161
37.003
36.849
36.697
36.547
36.401
36.258
36.118
35.981
35.846
35.713
35.583
35.456
35.334
35.216
35.104
34.999
34.902
34.813
34.734
34.666
34.607
34.558
34.518
34.487
34.464
34.448
34.439
34.434
34.434
34.439
34.447
34.459
34.474
34.493
34.515
34.539
34.564
34.589
34.613
34.634
34.653
34.669
34.681
34.69
34.696
34.699
34.698
34.693
34.684
34.67
34.653
34.632
34.606
34.575
34.54
34.502
34.461
34.419
34.374
34.329
34.282
34.233
34.182
34.13
34.077
34.025
33.973
33.923
33.873
33.824
33.776
33.728
33.683
33.638
33.595
33.552
33.511
33.471
33.432
33.395
33.36
33.327
33.296
33.267
33.239
33.213
33.187
33.163
33.139
33.115
33.09
33.066
33.043
33.021
33.0
32.982
32.965
32.949
32.934
32.919
32.905
32.892
32.879
32.867
32.857
32.847
32.838
32.831
32.826
32.824
32.826
32.834
32.849
32.873
32.911
32.964
33.035
33.129
33.247
33.395
33.574
33.789
34.041
34.331
34.657
35.018
35.41
35.826
36.262
36.711
37.165
37.616
38.057
38.48
38.881
39.252
39.588
39.887
40.146
40.363
40.537
40.669
40.759
40.809
40.822
40.801
40.75
40.67
40.566
40.441
40.302
40.149
39.987
39.818
39.644
39.468
39.292
39.116
38.942
38.77
38.601
38.435
38.272
38.113
37.956
37.803
37.653
37.507
37.365
37.225
37.087
36.951
36.817
36.683
36.549
36.416
36.284
36.153
36.026
35.901
35.779
35.661
35.546
35.436
35.331
35.231
35.138
35.052
34.973
34.903
34.842
34.788
34.743
34.706
34.678
34.657
34.643
34.636
34.634
34.637
34.644
34.655
34.67
34.688
34.706
34.725
34.744
34.761
34.776
34.789
34.799
34.806
34.809
34.808
34.802
34.789
34.77
34.744
34.713
34.677
34.637
34.596
34.553
34.512
34.47
34.429
34.388
34.347
34.307
34.267
34.228
34.188
34.149
34.109
34.069
34.028
33.987
33.944
33.899
33.852
33.805
33.756
33.708
33.66
33.612
33.566
33.52
33.477
33.436
33.396
33.359
33.323
33.289
33.256
33.224
33.193
33.161
33.131
33.1
33.071
33.042
33.015
32.99
32.967
32.947
32.93
32.917
32.907
32.9
32.895
32.89
32.886
32.882
32.877
32.872
32.867
32.861
32.858
32.858
32.864
32.879
32.904
32.943
32.999
33.076
33.179
33.31
33.474
33.672
33.908
34.182
34.492
34.838
35.214
35.616
36.039
36.475
36.918
37.36
37.793
38.211
38.607
38.974
39.308
39.605
39.863
40.08
40.256
40.39
40.485
40.541
40.562
40.551
40.511
40.444
40.355
40.246
40.122
39.985
39.84
39.688
39.531
39.371
39.209
39.044
38.878
38.71
38.541
38.371
38.2
38.03
37.861
37.694
37.53
37.369
37.212
37.06
36.912
36.768
36.627
36.489
36.353
36.221
36.09
35.962
35.836
35.711
35.588
35.468
35.351
35.238
35.13
35.028
34.933
34.845
34.765
34.695
34.634
34.582
34.537
34.501
34.474
34.456
34.446
34.443
34.447
34.456
34.469
34.485
34.502
34.52
34.537
34.551
34.562
34.569
34.572
34.572
34.571
34.568
34.565
34.56
34.555
34.55
34.544
34.536
34.525
34.513
34.497
34.478
34.455
34.428
34.397
34.362
34.325
34.286
34.244
34.2
34.154
34.106
34.056
34.006
33.957
33.907
33.859
33.81
33.761
33.714
33.668
33.624
33.582
33.541
33.501
33.462
33.425
33.388
33.351
33.314
33.277
33.24
33.204
33.169
33.133
33.096
33.058
33.02
32.984
32.95
32.921
32.894
32.872
32.852
32.837
32.824
32.814
32.806
32.799
32.792
32.786
32.78
32.775
32.772
32.771
32.77
32.77
32.77
32.771
32.773
32.775
32.779
32.784
32.794
32.809
32.832
32.864
32.91
32.971
33.052
33.156
33.286
33.445
