Trial 1:0back
40.998
40.895
40.786
40.669
40.548
40.422
40.294
40.165
40.034
39.902
39.769
39.637
39.504
39.373
39.244
39.116
38.987
38.858
38.726
38.591
38.452
38.311
38.168
38.024
37.88
37.737
37.598
37.467
37.344
37.231
37.128
37.034
36.949
36.873
36.806
36.746
36.693
36.649
36.612
36.583
36.562
36.549
36.543
36.544
36.551
36.563
36.578
36.598
36.619
36.642
36.665
36.688
36.709
36.727
36.741
36.75
36.752
36.749
36.74
36.724
36.704
36.679
36.65
36.619
36.585
36.551
36.516
36.479
36.44
36.395
36.345
36.289
36.224
36.152
36.071
35.984
35.89
35.792
35.689
35.584
35.477
35.37
35.265
35.166
35.072
34.984
34.902
34.824
34.748
34.675
34.602
34.529
34.454
34.378
34.3
34.222
34.143
34.064
33.987
33.912
33.84
33.772
33.707
33.646
33.589
33.536
33.488
33.443
33.402
33.363
33.328
33.294
33.262
33.232
33.202
33.174
33.146
33.118
33.093
33.068
33.045
33.024
33.004
32.986
32.969
32.955
32.944
32.937
32.933
32.931
32.932
32.934
32.936
32.937
32.936
32.931
32.923
32.912
32.898
32.881
32.862
32.843
32.823
32.805
32.788
32.774
32.762
32.754
32.748
32.743
32.739
32.734
32.728
32.72
32.71
32.697
32.679
32.656
32.628
32.596
32.561
32.523
32.483
32.441
32.396
32.349
32.301
32.252
32.203
32.155
32.107
32.062
32.018
31.977
31.937
31.899
31.863
31.829
31.799
31.773
31.755
31.749
31.759
31.789
31.846
31.934
32.06
32.227
32.439
32.699
33.007
33.361
33.757
34.19
34.653
35.138
35.636
36.14
36.641
37.129
37.599
38.044
38.459
38.841
39.188
39.498
39.771
40.007
40.206
40.37
40.502
40.604
40.676
40.723
40.745
40.746
40.728
40.691
40.64
40.576
40.502
40.42
40.329
40.231
40.127
40.018
39.903
39.785
39.663
39.537
39.408
39.275
39.139
39.0
38.857
38.71
38.559
38.406
38.249
38.091
37.932
37.772
37.614
37.459
37.306
37.157
37.011
36.866
36.724
36.586
36.453
36.328
36.211
36.103
36.005
35.918
35.843
35.781
35.733
35.699
35.68
35.675
35.685
35.71
35.746
35.794
35.853
35.92
35.993
36.07
36.146
36.22
36.29
36.353
36.407
36.451
36.486
36.512
36.528
36.535
36.531
36.515
36.489
36.456
36.417
36.375
36.331
36.287
36.244
36.201
36.159
36.116
36.072
36.025
35.974
35.919
35.858
35.793
35.723
35.648
35.57
35.489
35.406
35.322
35.238
35.155
35.072
34.99
34.907
34.824
34.74
34.657
34.576
34.497
34.42
34.343
34.267
34.191
34.116
34.042
33.969
33.899
33.832
33.771
33.715
33.663
33.615
33.57
33.529
33.491
33.457
33.425
33.395
33.367
33.341
33.316
33.293
33.271
33.252
33.234
33.22
33.209
33.201
33.197
33.196
33.197
33.2
33.204
33.209
33.213
33.217
33.219
33.219
33.216
33.211
33.202
33.19
33.175
33.159
33.143
33.129
33.117
33.107
33.1
33.095
33.092
33.091
33.09
33.088
33.085
33.08
33.072
33.061
33.046
33.027
33.004
32.976
32.944
32.907
32.866
32.822
32.776
32.728
32.679
32.63
32.581
32.534
32.488
32.445
32.403
32.364
32.327
32.292
32.26
32.231
32.204
32.181
32.163
32.154
32.157
32.178
32.222
32.296
32.404
32.549
32.736
32.965
33.236
33.549
33.901
34.287
34.701
35.137
35.588
36.045
36.503
36.952
37.386
37.8
38.186
38.542
38.865
39.153
39.405
39.622
39.805
39.955
40.074
40.164
40.228
40.269
40.289
40.29
40.273
40.241
40.193
40.132
40.059
39.975
39.882
39.782
39.676
39.566
39.452
39.335
39.217
39.096
38.973
38.847
38.717
38.584
38.447
38.306
38.16
38.011
37.858
37.702
37.542
37.381
37.218
37.055
36.892
36.731
36.573
36.42
36.273
36.132
36.001
35.878
35.763
35.659
35.564
35.484
35.419
35.372
35.343
35.331
35.335
35.354
35.386
35.43
35.484
35.544
35.609
35.677
35.748
35.819
35.889
35.957
36.02
36.079
36.131
36.175
36.211
36.238
36.257
36.268
36.272
36.269
36.259
36.244
36.224
36.199
36.171
36.139
36.104
36.066
36.025
35.981
35.932
35.878
35.82
35.756
35.687
35.612
35.533
35.45
35.365
35.278
35.189
35.099
35.01
34.921
34.835
34.75
34.669
34.59
34.514
34.438
34.362
34.286
34.21
34.132
34.054
33.976
33.898
33.823
33.751
33.684
33.622
33.565
33.513
33.467
33.427
33.392
33.362
33.336
33.314
33.293
33.274
33.254
33.234
33.215
33.194
33.171
33.149
33.127
33.108
33.089
33.073
33.059
33.047
33.036
33.026
33.018
33.01
33.003
32.995
32.987
32.979
32.971
32.962
32.952
32.942
32.932
32.923
32.915
32.907
32.9
32.894
32.889
32.885
32.882
32.881
32.881
32.883
32.885
32.886
32.886
32.884
32.879
32.87
32.857
32.841
32.82
32.796
32.769
32.739
32.707
32.673
32.638
32.602
32.566
32.531
32.496
32.462
32.429
32.396
32.362
32.328
32.293
32.257
32.218
32.178
32.138
32.097
32.058
32.024
31.997
31.983
31.985
32.01
32.063
32.148
32.27
32.435
32.645
32.901
33.205
33.553
33.942
34.369
34.826
35.306
35.798
36.294
36.786
37.265
37.723
38.155
38.555
38.922
39.253
39.547
39.806
40.031
40.222
40.382
40.512
40.614
40.691
40.744
40.776
40.79
40.785
40.765
40.73
40.682
40.624
40.557
40.484
40.404
40.32
40.23
40.135
40.034
39.928
39.817
39.701
39.58
39.454
39.323
39.187
39.048
38.906
38.761
38.616
38.471
38.328
38.188
38.05
37.916
37.784
37.656
37.531
37.409
37.289
37.173
37.059
36.949
36.843
36.742
36.646
36.559
36.481
36.413
36.357
36.313
36.281
36.261
36.252
36.255
36.268
36.29
36.319
36.354
36.392
36.433
36.474
36.514
36.552
36.587
36.618
36.647
36.672
36.693
36.71
36.723
36.734
36.74
36.742
36.739
36.731
36.718
36.698
36.673
36.641
36.604
36.561
36.512
36.457
36.397
36.332
36.263
36.191
36.116
36.04
35.963
35.885
35.808
35.731
35.655
35.58
35.505
35.429
35.352
35.274
35.194
35.112
35.029
34.944
34.859
34.774
34.69
34.609
34.531
34.457
34.387
34.322
34.259
34.197
34.138
34.082
34.029
33.98
33.935
33.893
33.852
33.812
33.773
33.736
33.7
33.666
33.634
33.603
33.575
33.549
33.524
33.502
33.483
33.468
33.457
33.45
33.446
33.445
33.445
33.446
33.446
33.444
33.44
33.433
33.423
33.41
33.397
33.382
33.367
33.353
33.34
33.329
33.319
33.31
33.301
33.294
33.287
33.281
33.273
33.265
33.257
33.249
33.24
33.23
33.218
33.204
33.188
33.168
33.145
33.12
33.092
33.062
33.029
32.995
32.959
32.921
32.88
32.838
32.793
32.745
32.696
32.646
32.594
32.542
32.491
32.44
32.393
32.351
32.316
32.292
32.282
32.29
32.32
32.378
32.468
32.594
32.76
32.968
33.218
33.509
33.839
34.205
34.603
35.026
35.468
35.923
36.383
36.842
37.291
37.726
38.14
38.53
38.891
39.221
39.516
39.774
39.997
40.184
40.337
40.457
40.547
40.61
40.648
40.666
40.665
40.65
40.624
40.588
40.546
40.498
40.444
40.387
40.325
40.257
40.184
40.105
40.018
39.923
39.82
39.709
39.591
39.465
39.333
39.195
39.054
38.913
38.773
38.635
38.5
38.366
38.232
38.099
37.967
37.833
37.699
37.564
37.428
37.292
37.157
37.026
36.899
36.779
36.668
36.567
36.477
36.4
36.336
36.286
36.249
36.225
36.212
36.21
36.218
36.232
36.253
36.276
36.303
36.331
36.36
36.39
36.42
36.451
36.481
36.512
36.541
36.571
36.599
36.625
36.649
36.669
36.683
36.692
36.694
36.689
36.675
36.654
36.626
36.59
36.548
36.5
36.446
36.388
36.326
36.26
36.193
36.123
36.052
35.98
35.907
35.833
35.758
35.682
35.606
35.528
35.45
35.371
35.293
35.214
35.137
35.06
34.983
34.907
34.831
34.756
34.683
34.613
34.545
34.481
34.419
34.359
34.299
34.239
34.178
34.116
34.054
33.992
33.931
33.872
33.815
33.761
33.711
33.665
33.625
33.59
33.561
33.537
33.517
33.501
33.489
33.479
33.47
33.463
33.456
33.449
33.441
33.432
33.422
33.41
33.397
33.384
33.371
33.359
33.349
33.341
33.336
33.334
33.334
33.337
33.341
33.346
33.35
33.352
33.35
33.345
33.337
33.324
33.308
33.29
33.268
33.245
33.22
33.195
33.169
33.142
33.114
33.086
33.056
33.026
32.993
32.958
32.921
32.88
32.837
32.792
32.744
32.695
32.645
32.594
32.543
32.495
32.449
32.408
32.375
32.352
32.342
32.348
32.373
32.422
32.5
32.609
32.754
32.937
33.159
33.419
33.716
34.047
34.408
34.795
35.202
35.624
36.054
36.487
36.916
37.336
37.74
38.124
38.484
38.817
39.119
39.388
39.623
39.824
39.991
40.125
40.227
40.301
40.348
40.371
40.374
40.358
40.326
40.281
40.225
40.16
40.086
40.004
39.913
39.817
39.716
39.613
39.506
39.396
39.284
39.167
39.045
38.918
38.786
38.649
38.507
38.362
38.213
38.063
37.911
37.758
37.604
37.45
37.295
37.141
36.987
36.837
36.69
36.549
36.414
36.287
36.17
36.064
35.971
35.892
35.828
35.781
35.749
35.734
35.734
35.749
35.777
35.815
35.863
35.918
35.977
36.039
36.102
36.164
36.223
36.278
36.327
36.372
36.413
36.449
36.482
36.512
36.539
36.565
36.589
36.61
36.628
36.642
36.651
36.654
36.65
36.638
36.618
36.588
36.548
36.5
36.444
36.38
36.31
36.233
36.152
36.067
35.979
35.889
35.798
35.706
35.612
35.518
35.423
35.327
35.231
35.134
35.037
34.942
34.847
34.754
34.665
34.578
34.496
34.418
34.345
34.277
34.214
34.156
34.103
34.053
34.007
33.965
33.924
33.886
33.847
33.809
33.771
33.733
33.697
33.662
33.63
33.601
33.576
33.555
33.538
33.525
33.514
33.507
33.501
33.497
33.493
33.487
33.48
33.47
33.459
33.446
33.432
33.417
33.401
33.385
33.37
33.356
33.344
33.334
33.328
33.325
33.325
33.326
33.329
33.332
33.335
33.339
33.343
33.347
33.348
33.347
33.343
33.335
33.323
33.307
33.286
33.261
33.232
33.201
33.167
33.13
33.09
33.048
33.002
32.954
32.902
32.848
32.793
32.738
32.683
32.63
32.578
32.53
32.488
32.454
32.43
32.418
32.422
32.444
32.488
32.558
32.658
32.79
32.959
33.165
33.411
33.696
34.018
34.374
34.761
35.172
35.603
36.045
36.493
36.938
37.375
37.798
38.201
38.58
38.932
39.254
39.545
39.804
40.03
40.225
40.387
40.52
40.626
40.706
40.761
40.795
40.807
40.801
40.777
40.739
40.686
40.623
40.55
40.468
40.379
40.283
40.182
40.077
39.967
39.852
39.734
39.613
39.487
39.359
39.229
39.097
38.963
38.828
38.691
38.554
38.417
38.279
38.141
38.003
37.865
37.726
37.586
37.446
37.306
37.168
37.031
36.898
36.77
36.65
36.54
36.442
36.359
36.292
36.244
36.213
36.201
36.205
36.225
36.258
36.301
36.353
36.41
36.47
36.53
36.588
36.642
36.691
36.733
36.769
36.799
36.823
36.841
36.854
36.863
36.869
36.871
36.871
36.868
36.861
36.85
36.834
36.811
36.782
36.746
36.704
36.656
36.601
36.542
36.478
36.41
36.34
36.267
36.192
36.116
36.039
35.96
35.881
35.801
35.72
35.64
35.559
35.478
35.396
35.313
35.228
35.141
35.053
34.965
34.877
34.791
34.707
34.626
34.549
34.477
34.41
34.347
34.29
34.237
34.187
34.14
34.096
34.054
34.015
33.978
33.945
33.913
33.882
33.853
33.825
33.798
33.772
33.746
33.722
33.699
33.676
33.655
33.635
33.615
33.595
33.573
33.551
33.527
33.501
33.475
33.449
33.422
33.397
33.374
33.353
33.336
33.323
33.313
33.308
33.305
33.304
33.304
33.306
33.307
33.308
33.308
33.307
33.302
33.295
33.284
33.268
33.249
33.227
33.202
33.175
33.147
33.118
33.091
33.064
33.039
33.015
32.993
32.972
32.951
32.93
32.908
32.883
32.855
32.823
32.786
32.743
32.696
32.644
32.588
32.53
32.47
32.41
32.35
32.293
32.239
32.19
32.147
32.113
32.089
32.076
32.078
32.097
32.139
32.207
32.307
32.443
32.618
32.835
33.096
33.4
33.747
34.133
34.553
35.002
35.471
35.954
36.442
36.927
37.403
37.863
38.299
38.705
39.077
39.411
39.706
39.961
40.177
40.356
40.5
40.613
40.698
40.76
40.8
40.823
40.828
40.819
40.796
40.76
40.714
40.658
40.593
40.519
40.438
40.348
40.251
40.146
40.034
39.916
39.794
39.669
39.543
39.418
39.294
39.172
39.05
38.93
38.809
38.688
38.564
38.437
38.306
38.171
38.034
37.894
37.753
37.614
37.478
37.347
37.222
37.105
36.997
36.898
36.81
36.732
36.665
36.607
36.559
36.52
36.49
36.467
36.452
36.445
36.443
36.448
36.459
36.475
36.495
36.52
36.549
36.581
36.615
36.652
36.688
36.723
36.754
36.781
36.803
36.817
36.824
36.823
36.813
36.797
36.773
36.743
36.708
36.67
36.628
36.585
36.54
36.492
36.441
36.386
36.327
36.263
36.194
36.12
36.041
35.958
35.871
35.78
35.688
35.593
35.498
35.403
35.308
35.215
35.123
35.034
34.948
34.865
34.784
34.705
34.628
34.553
34.48
34.409
34.339
34.271
34.204
34.137
34.072
34.008
33.947
33.889
33.835
33.785
33.74
33.699
33.662
33.629
33.599
33.572
33.546
33.52
33.495
33.471
33.447
33.423
33.399
33.376
33.353
33.331
33.311
33.292
33.275
33.26
33.248
33.239
33.231
33.223
33.216
33.208
33.198
33.187
33.174
33.16
33.145
33.128
33.11
33.091
33.071
33.051
33.03
33.01
32.992
32.976
32.962
32.95
32.941
32.936
32.933
32.931
32.928
32.922
32.911
32.893
32.868
32.836
32.796
32.75
32.697
32.64
32.578
32.514
32.449
32.384
32.321
32.261
32.204
32.15
32.099
32.052
32.008
31.968
31.932
31.9
31.874
31.855
31.847
31.854
31.879
31.927
32.002
32.111
32.258
32.446
32.679
32.957
33.28
33.643
34.041
34.468
34.917
35.382
35.856
36.33
36.799
37.253
37.687
38.095
38.472
38.816
39.124
39.397
39.636
39.84
40.012
40.152
40.263
40.347
40.406
40.442
40.457
40.452
40.43
40.393
40.343
40.281
40.209
40.129
40.043
39.95
39.854
39.752
39.647
39.536
39.421
39.302
39.177
39.048
38.915
38.778
38.637
38.493
38.346
38.198
38.047
37.896
37.743
37.591
37.439
37.29
37.143
37.0
36.861
36.725
36.595
36.47
36.354
36.247
36.15
36.064
35.989
35.926
35.876
35.84
35.816
35.804
35.804
35.815
35.835
35.863
35.898
35.937
35.98
36.023
36.066
36.107
36.144
36.178
36.21
36.238
36.262
36.283
36.3
36.312
36.32
36.325
36.327
36.325
36.32
36.31
36.295
36.273
36.244
36.206
36.158
36.101
36.035
35.962
35.881
35.795
35.706
35.614
35.523
35.433
35.345
35.261
35.181
35.103
35.026
34.949
34.872
34.793
34.713
34.63
34.545
34.459
34.372
34.285
34.199
34.113
34.029
33.948
33.87
33.795
33.725
33.658
33.597
33.539
33.486
33.438
33.393
33.352
33.313
33.277
33.243
33.212
33.182
33.152
33.124
33.096
33.068
33.041
33.015
32.991
32.968
32.947
32.927
32.909
32.893
32.877
32.863
32.85
32.838
32.825
32.812
32.797
32.781
32.765
32.748
32.731
32.715
32.701
32.689
32.681
32.676
32.675
32.678
32.683
32.69
32.695
32.697
32.695
32.689
32.677
32.661
32.64
32.616
32.59
32.562
32.533
32.503
32.472
32.44
32.408
32.376
32.345
32.315
32.285
32.255
32.225
32.194
32.162
32.128
32.091
32.053
32.011
31.966
31.918
31.867
31.813
31.757
31.7
31.642
31.586
31.532
31.483
31.441
31.409
31.39
31.387
31.405
31.448
31.52
31.624
31.765
31.947
32.172
32.442
32.756
33.113
33.508
33.935
34.388
34.86
35.345
35.835
36.323
36.803
37.267
37.711
38.126
38.509
38.854
39.159
39.422
39.644
39.826
39.97
40.079
40.156
40.205
40.231
40.237
40.225
40.197
40.154
40.099
40.033
39.955
39.868
39.77
39.662
39.546
39.421
39.29
39.152
39.009
38.862
38.712
38.561
38.409
38.258
38.107
37.957
37.806
37.654
37.501
37.343
37.182
37.016
36.846
36.675
36.502
36.331
36.163
36.0
35.843
35.696
35.56
35.436
35.329
35.24
35.171
35.123
35.096
35.087
35.096
35.119
35.155
35.199
35.25
35.306
35.364
35.424
35.485
35.544
35.602
35.658
35.712
35.764
35.814
35.863
35.911
35.957
35.999
36.038
36.072
36.099
36.118
36.129
36.131
36.124
36.108
36.085
36.054
36.015
35.97
35.918
35.861
35.798
35.73
35.658
35.583
35.504
35.423
35.338
35.249
35.156
35.058
34.956
34.85
34.741
34.63
34.517
34.404
34.293
34.185
34.08
33.98
33.885
33.795
33.709
33.628
33.55
33.476
33.403
33.332
33.262
33.192
33.123
33.056
32.991
32.928
32.87
32.815
32.766
32.721
32.682
32.649
32.621
32.599
32.581
32.568
32.558
32.55
32.544
32.539
32.533
32.526
32.518
32.509
32.5
32.491
32.484
32.48
32.478
32.479
32.484
32.492
32.501
32.513
32.524
32.535
32.545
32.554
32.56
32.562
32.561
32.556
32.547
32.535
32.521
32.505
32.489
32.472
32.455
32.438
32.423
32.407
32.392
32.376
32.36
32.341
32.319
32.294
32.264
32.228
32.186
32.139
32.087
32.03
31.97
31.908
31.845
31.782
31.721
31.662
31.609
31.563
31.525
31.498
31.485
31.488
31.512
31.56
31.636
31.744
31.888
32.069
32.29
32.552
32.854
33.196
33.574
33.984
34.421
34.879
35.35
35.826
36.302
36.771
37.227
37.663
38.074
38.454
38.799
39.107
39.377
39.606
39.797
39.95
40.066
40.149
40.201
40.225
40.227
40.208
40.172
40.121
40.057
39.982
39.897
39.803
39.701
39.592
39.477
39.356
39.231
39.102
38.968
38.828
38.684
38.535
38.383
38.227
38.068
37.906
37.742
37.576
37.407
37.236
37.061
36.884
36.705
36.524
36.343
36.162
35.983
35.808
35.64
35.481
35.334
35.202
35.087
34.989
34.91
34.851
34.809
34.786
34.78
34.789
34.814
34.851
34.9
34.958
35.025
35.099
35.178
35.261
35.347
35.437
35.527
35.618
35.706
35.789
35.863
35.928
35.981
36.024
36.054
36.074
36.084
36.084
36.076
36.059
36.036
36.005
35.969
35.927
35.882
35.832
35.779
35.722
35.66
35.594
35.523
35.446
35.365
35.278
35.186
35.088
34.986
34.878
34.768
34.655
34.542
34.432
34.323
34.219
34.118
34.021
33.929
33.84
33.755
33.674
33.597
33.526
33.46
33.399
33.341
33.287
33.233
33.18
33.128
33.076
33.026
32.976
32.93
32.887
32.847
32.812
32.782
32.756
32.736
32.719
32.706
32.695
32.684
32.674
32.664
32.654
32.644
32.635
32.627
32.621
32.617
32.616
32.617
32.621
32.627
32.634
32.642
32.651
32.659
32.667
32.673
32.677
32.68
32.682
32.682
32.68
32.674
32.663
32.646
32.623
32.594
32.56
32.522
32.481
32.438
32.393
32.347
32.301
32.253
32.204
32.156
32.108
32.063
32.02
31.98
31.946
31.92
31.904
31.902
31.918
31.957
32.023
32.122
32.258
32.435
32.656
32.922
33.233
33.587
33.982
34.411
34.869
35.349
35.842
36.342
36.838
37.324
37.792
38.236
38.651
39.033
39.379
39.687
39.956
40.185
40.376
40.529
40.647
40.734
40.791
40.822
40.83
40.815
40.783
40.736
40.676
40.606
40.529
40.445
40.357
40.264
40.166
40.063
39.954
39.84
39.718
39.59
39.454
39.311
39.162
39.007
38.848
38.687
38.525
38.363
38.201
38.04
37.882
37.725
37.571
37.418
37.267
37.117
36.967
36.816
36.667
36.519
36.374
36.235
36.103
35.982
35.875
35.783
35.709
35.653
35.615
35.594
35.591
35.602
35.627
35.662
35.706
35.757
35.812
35.871
35.931
35.99
36.049
36.104
36.157
36.206
36.25
36.289
36.323
36.351
36.373
36.389
36.399
36.403
36.4
36.39
36.374
36.351
36.323
36.287
36.245
36.194
36.136
36.07
35.997
35.919
35.836
35.75
35.662
35.574
35.484
35.392
35.299
35.203
35.104
35.002
34.898
34.792
34.683
34.572
34.46
34.346
34.232
34.117
34.003
33.892
33.786
33.686
33.593
33.508
33.429
33.358
33.292
33.232
33.176
33.123
33.073
33.026
32.981
32.938
32.897
32.857
32.82
32.785
32.752
32.723
32.697
32.675
32.656
32.642
32.631
32.624
32.619
32.617
32.616
32.617
32.618
32.619
32.62
32.621
32.621
32.62
32.618
32.615
32.611
32.605
32.599
32.592
32.585
32.579
32.574
32.57
32.566
32.564
32.563
32.561
32.559
32.554
32.547
32.536
32.519
32.496
32.468
32.435
32.396
32.351
32.303
32.251
32.197
32.141
32.084
32.026
31.97
31.92
31.879
31.849
31.83
31.824
31.835
31.871
31.937
32.041
32.189
32.387
32.637
32.942
33.3
33.709
34.163
34.656
35.178
35.721
36.274
