Trial 1:0back
38.23
38.232
38.23
38.223
38.214
38.203
38.189
38.174
38.156
38.137
38.117
38.097
38.076
38.055
38.032
38.006
37.977
37.943
37.905
37.863
37.816
37.766
37.712
37.655
37.596
37.535
37.472
37.41
37.348
37.286
37.227
37.17
37.115
37.062
37.01
36.959
36.907
36.855
36.803
36.75
36.697
36.644
36.592
36.54
36.488
36.435
36.383
36.332
36.283
36.236
36.191
36.148
36.107
36.067
36.028
35.99
35.953
35.918
35.888
35.863
35.845
35.83
35.816
35.802
35.785
35.765
35.74
35.711
35.677
35.638
35.596
35.55
35.503
35.456
35.409
35.363
35.321
35.282
35.248
35.218
35.193
35.173
35.155
35.139
35.123
35.106
35.088
35.069
35.047
35.024
34.998
34.972
34.944
34.917
34.89
34.864
34.839
34.814
34.79
34.767
34.745
34.725
34.706
34.688
34.671
34.654
34.636
34.618
34.598
34.578
34.557
34.536
34.517
34.498
34.481
34.465
34.45
34.437
34.424
34.41
34.396
34.38
34.362
34.341
34.317
34.29
34.262
34.232
34.202
34.174
34.146
34.12
34.094
34.067
34.039
34.009
33.978
33.948
33.92
33.896
33.879
33.872
33.877
33.897
33.938
34.005
34.102
34.234
34.405
34.619
34.874
35.172
35.51
35.884
36.29
36.72
37.168
37.624
38.08
38.529
38.963
39.374
39.757
40.107
40.42
40.694
40.926
41.118
41.27
41.384
41.461
41.504
41.516
41.501
41.463
41.405
41.332
41.246
41.151
41.049
40.943
40.836
40.728
40.621
40.517
40.415
40.318
40.224
40.136
40.052
39.974
39.901
39.834
39.774
39.719
39.669
39.623
39.58
39.539
39.499
39.458
39.415
39.37
39.32
39.267
39.211
39.152
39.09
39.028
38.965
38.902
38.841
38.783
38.728
38.677
38.629
38.585
38.545
38.509
38.477
38.448
38.424
38.403
38.386
38.374
38.367
38.363
38.363
38.365
38.37
38.376
38.382
38.389
38.395
38.399
38.4
38.397
38.39
38.38
38.365
38.345
38.319
38.288
38.252
38.21
38.164
38.113
38.058
37.999
37.936
37.869
37.801
37.731
37.661
37.592
37.525
37.459
37.394
37.331
37.269
37.208
37.148
37.087
37.027
36.966
36.906
36.846
36.788
36.731
36.674
36.618
36.563
36.51
36.459
36.41
36.363
36.316
36.268
36.219
36.168
36.117
36.065
36.015
35.965
35.917
35.871
35.826
35.782
35.741
35.702
35.666
35.632
35.599
35.568
35.537
35.506
35.476
35.446
35.416
35.386
35.354
35.321
35.287
35.251
35.215
35.18
35.148
35.118
35.09
35.064
35.039
35.013
34.987
34.96
34.932
34.903
34.872
34.839
34.803
34.764
34.723
34.681
34.641
34.603
34.569
34.538
34.51
34.485
34.464
34.445
34.428
34.413
34.398
34.384
34.371
34.36
34.35
34.34
34.329
34.318
34.304
34.286
34.264
34.237
34.208
34.176
34.144
34.113
34.083
34.055
34.029
34.006
33.984
33.965
33.946
33.928
33.911
33.892
33.874
33.855
33.836
33.818
33.8
33.782
33.764
33.745
33.725
33.704
33.682
33.658
33.634
33.61
33.585
33.56
33.536
33.513
33.49
33.469
33.45
33.435
33.424
33.42
33.425
33.442
33.474
33.527
33.605
33.713
33.857
34.039
34.263
34.529
34.836
35.183
35.566
35.981
36.42
36.877
37.343
37.811
38.27
38.713
39.132
39.52
39.873
40.189
40.465
40.699
40.893
41.046
41.161
41.24
41.286
41.302
41.29
41.256
41.202
41.133
41.052
40.962
40.865
40.766
40.664
40.564
40.466
40.37
40.278
40.188
40.102
40.019
39.94
39.864
39.792
39.724
39.661
39.602
39.549
39.5
39.455
39.413
39.373
39.334
39.295
39.255
39.213
39.168
39.119
39.067
39.011
38.95
38.887
38.82
38.751
38.682
38.614
38.547
38.484
38.424
38.369
38.319
38.276
38.239
38.209
38.187
38.17
38.16
38.155
38.155
38.158
38.164
38.171
38.179
38.186
38.191
38.192
38.188
38.18
38.166
38.147
38.123
38.095
38.061
38.023
37.981
37.935
37.886
37.836
37.785
37.733
37.681
37.63
37.577
37.523
37.467
37.409
37.348
37.284
37.217
37.148
37.078
37.007
36.936
36.866
36.798
36.73
36.664
36.599
36.533
36.467
36.401
36.335
36.27
36.207
36.145
36.087
36.03
35.976
35.925
35.876
35.829
35.784
35.74
35.697
35.655
35.612
35.568
35.524
35.48
35.437
35.394
35.351
35.309
35.267
35.226
35.186
35.147
35.109
35.072
35.036
34.999
34.963
34.927
34.89
34.855
34.82
34.786
34.753
34.721
34.689
34.658
34.629
34.6
34.573
34.548
34.522
34.497
34.471
34.445
34.419
34.391
34.364
34.338
34.311
34.285
34.259
34.234
34.21
34.187
34.163
34.14
34.115
34.088
34.059
34.029
33.998
33.969
33.942
33.916
33.893
33.872
33.852
33.832
33.811
33.789
33.766
33.74
33.713
33.684
33.653
33.621
33.588
33.556
33.526
33.499
33.475
33.455
33.438
33.423
33.409
33.396
33.383
33.368
33.352
33.335
33.317
33.299
33.28
33.261
33.24
33.218
33.196
33.173
33.15
33.126
33.101
33.075
33.048
33.02
32.993
32.966
32.941
32.917
32.895
32.876
32.859
32.847
32.839
32.836
32.84
32.853
32.877
32.917
32.979
33.067
33.188
33.347
33.549
33.795
34.086
34.42
34.795
35.206
35.647
36.11
36.589
37.074
37.559
38.034
38.494
38.932
39.341
39.717
40.056
40.355
40.611
40.826
40.998
41.128
41.218
41.271
41.289
41.276
41.236
41.171
41.087
40.987
40.875
40.753
40.625
40.493
40.356
40.218
40.082
39.948
39.819
39.697
39.582
39.475
39.377
39.29
39.212
39.142
39.079
39.021
38.967
38.918
38.872
38.827
38.784
38.74
38.696
38.651
38.604
38.556
38.506
38.454
38.401
38.345
38.289
38.231
38.175
38.12
38.069
38.021
37.979
37.942
37.912
37.889
37.873
37.864
37.862
37.865
37.874
37.885
37.898
37.912
37.925
37.937
37.948
37.957
37.963
37.966
37.967
37.965
37.958
37.948
37.934
37.915
37.89
37.859
37.822
37.778
37.727
37.672
37.612
37.548
37.48
37.409
37.334
37.258
37.18
37.102
37.026
36.951
36.879
36.808
36.739
36.671
36.604
36.537
36.471
36.405
36.338
36.273
36.208
36.145
36.084
36.025
35.968
35.914
35.863
35.814
35.766
35.72
35.673
35.626
35.578
35.528
35.479
35.429
35.38
35.331
35.282
35.234
35.186
35.139
35.092
35.046
35.0
34.956
34.912
34.87
34.827
34.784
34.741
34.698
34.655
34.612
34.572
34.532
34.495
34.46
34.427
34.397
34.37
34.345
34.321
34.296
34.27
34.242
34.212
34.181
34.15
34.12
34.091
34.064
34.04
34.017
33.996
33.977
33.958
33.939
33.92
33.9
33.878
33.856
33.832
33.809
33.785
33.761
33.736
33.711
33.685
33.656
33.625
33.592
33.558
33.524
33.491
33.459
33.428
33.399
33.369
33.34
33.311
33.284
33.256
33.23
33.204
33.179
33.154
33.129
33.105
33.082
33.06
33.04
33.021
33.002
32.984
32.966
32.947
32.93
32.913
32.898
32.884
32.87
32.855
32.838
32.82
32.801
32.779
32.757
32.734
32.71
32.685
32.659
32.633
32.609
32.587
32.572
32.566
32.575
32.603
32.654
32.734
32.849
33.004
33.203
33.45
33.746
34.088
34.475
34.903
35.367
35.859
36.374
36.901
37.433
37.96
38.473
38.967
39.434
39.869
40.267
40.624
40.937
41.204
41.427
41.604
41.737
41.83
41.884
41.902
41.889
41.848
41.783
41.699
41.6
41.491
41.374
41.254
41.134
41.015
40.9
40.79
40.687
40.591
40.503
40.423
40.35
40.284
40.224
40.17
40.122
40.078
40.038
40.0
39.964
39.929
39.895
39.859
39.823
39.783
39.74
39.694
39.642
39.585
39.521
39.452
39.378
39.3
39.22
39.14
39.059
38.979
38.901
38.827
38.756
38.688
38.625
38.566
38.513
38.464
38.419
38.38
38.343
38.31
38.28
38.254
38.232
38.213
38.197
38.183
38.171
38.16
38.149
38.136
38.122
38.105
38.084
38.057
38.025
37.986
37.94
37.887
37.829
37.766
37.699
37.63
37.56
37.49
37.42
37.351
37.282
37.212
37.142
37.072
37.0
36.927
36.851
36.774
36.695
36.615
36.533
36.451
36.369
36.288
36.208
36.13
36.055
35.982
35.911
35.842
35.774
35.707
35.641
35.576
35.511
35.447
35.385
35.324
35.265
35.208
35.153
35.098
35.042
34.987
34.93
34.874
34.818
34.762
34.708
34.654
34.6
34.547
34.493
34.44
34.387
34.335
34.283
34.232
34.181
34.132
34.085
34.039
33.995
33.952
33.911
33.871
33.831
33.794
33.757
33.722
33.689
33.658
33.628
33.6
33.573
33.547
33.521
33.496
33.471
33.446
33.421
33.395
33.369
33.343
33.316
33.29
33.265
33.239
33.213
33.187
33.161
33.134
33.106
33.079
33.051
33.024
32.998
32.974
32.95
32.927
32.903
32.879
32.853
32.826
32.798
32.77
32.742
32.714
32.686
32.658
32.629
32.599
32.569
32.539
32.509
32.48
32.451
32.423
32.397
32.373
32.351
32.332
32.315
32.3
32.287
32.273
32.259
32.244
32.229
32.212
32.194
32.175
32.156
32.135
32.114
32.092
32.071
32.05
32.032
32.017
32.007
32.003
32.006
32.021
32.05
32.099
32.174
32.285
32.44
32.646
32.907
33.224
33.596
34.02
34.492
35.004
35.55
36.12
36.704
37.292
37.872
38.438
38.979
39.489
39.963
40.394
40.781
41.122
41.417
41.665
41.868
42.027
42.146
42.226
42.271
42.284
42.268
42.227
42.164
42.081
41.983
41.871
41.748
41.618
41.483
41.346
41.209
41.074
40.944
40.819
40.701
40.591
40.489
40.398
40.316
40.242
40.177
40.119
40.068
40.023
39.982
39.946
39.912
39.879
39.846
39.812
39.775
39.734
39.688
39.636
39.578
39.513
39.442
39.364
39.279
39.191
39.099
39.006
38.912
38.82
38.731
38.646
38.566
38.494
38.43
38.375
38.329
38.29
38.259
38.233
38.212
38.192
38.173
38.153
38.129
38.101
38.07
38.035
37.999
37.961
37.923
37.884
37.846
37.809
37.773
37.738
37.702
37.665
37.625
37.581
37.532
37.478
37.417
37.349
37.276
37.199
37.117
37.031
36.943
36.851
36.757
36.662
36.565
36.469
36.372
36.278
36.184
36.093
36.005
35.918
35.834
35.752
35.671
35.592
35.514
35.437
35.363
35.289
35.218
35.148
35.081
35.015
34.95
34.888
34.827
34.768
34.71
34.652
34.595
34.538
34.481
34.426
34.373
34.322
34.273
34.226
34.181
34.136
34.091
34.045
33.997
33.949
33.899
33.849
33.799
33.751
33.705
33.661
33.619
33.581
33.545
33.511
33.478
33.447
33.417
33.387
33.358
33.33
33.302
33.275
33.25
33.227
33.206
33.187
33.17
33.153
33.135
33.115
33.092
33.066
33.038
33.009
32.98
32.949
32.919
32.889
32.858
32.828
32.797
32.767
32.738
32.708
32.678
32.648
32.618
32.588
32.558
32.528
32.5
32.472
32.447
32.421
32.396
32.37
32.342
32.311
32.279
32.246
32.213
32.181
32.152
32.124
32.099
32.077
32.055
32.035
32.015
31.996
31.978
31.96
31.944
31.928
31.914
31.902
31.89
31.879
31.868
31.856
31.843
31.828
31.809
31.788
31.764
31.738
31.711
31.685
31.661
31.642
31.629
31.627
31.637
31.664
31.713
31.791
31.905
32.061
32.267
32.528
32.847
33.227
33.667
34.162
34.707
35.294
35.912
36.55
37.196
37.839
38.466
39.066
39.631
40.152
40.624
41.043
41.405
41.71
41.956
42.146
42.281
42.368
42.411
42.418
42.394
42.344
42.271
42.179
42.073
41.956
41.831
41.7
41.565
41.429
41.295
41.162
41.033
40.909
40.789
40.673
40.563
40.458
40.358
40.265
40.177
40.095
40.016
39.941
39.869
39.801
39.736
39.674
39.613
39.553
39.494
39.435
39.377
39.317
39.257
39.194
39.127
39.057
38.984
38.908
38.83
38.75
38.669
38.586
38.503
38.421
38.339
38.259
38.182
38.109
38.04
37.977
37.922
37.875
37.836
37.805
37.782
37.765
37.754
37.747
37.743
37.738
37.731
37.72
37.703
37.681
37.651
37.615
37.573
37.526
37.474
37.418
37.358
37.296
37.231
37.164
37.095
37.022
36.947
36.868
36.785
36.699
36.61
36.518
36.425
36.33
36.235
36.14
36.046
35.953
35.862
35.772
35.683
35.596
35.511
35.426
35.342
35.259
35.176
35.093
35.01
34.928
34.845
34.764
34.685
34.609
34.535
34.463
34.396
34.331
34.269
34.209
34.151
34.092
34.034
33.974
33.914
33.854
33.794
33.736
33.682
33.63
33.583
33.539
33.499
33.46
33.423
33.387
33.352
33.317
33.283
33.25
33.217
33.185
33.154
33.123
33.092
33.06
33.028
32.996
32.962
32.928
32.895
32.862
32.83
32.799
32.77
32.741
32.712
32.684
32.655
32.626
32.598
32.57
32.543
32.515
32.488
32.461
32.433
32.405
32.377
32.349
32.322
32.296
32.271
32.247
32.224
32.2
32.176
32.152
32.128
32.104
32.08
32.056
32.033
32.01
31.985
31.96
31.933
31.904
31.875
31.846
31.817
31.789
31.762
31.737
31.714
31.693
31.674
31.655
31.637
31.619
31.602
31.586
31.57
31.556
31.542
31.53
31.517
31.503
31.49
31.476
31.461
31.445
31.428
31.409
31.391
31.372
31.353
31.336
31.319
31.303
31.289
31.275
31.263
31.254
31.25
31.253
31.266
31.295
31.344
31.418
31.525
31.672
31.867
32.117
32.427
32.8
33.237
33.735
34.287
34.885
35.521
36.183
36.858
37.534
38.2
38.843
39.453
40.02
40.538
41.0
41.402
41.744
42.023
42.242
42.402
42.507
42.561
42.57
42.539
42.472
42.375
42.253
42.111
41.954
41.786
41.612
41.434
41.256
41.079
40.907
40.739
40.578
40.424
40.279
40.143
40.017
39.899
39.789
39.687
39.593
39.505
39.422
39.344
39.27
39.199
39.13
39.063
38.998
38.932
38.867
38.801
38.733
38.665
38.594
38.523
38.45
38.378
38.306
38.235
38.168
38.105
38.048
37.996
37.951
37.911
37.878
37.852
37.831
37.816
37.805
37.797
37.79
37.785
37.781
37.779
37.776
37.774
37.771
37.767
37.761
37.753
37.744
37.731
37.714
37.691
37.661
37.623
37.576
37.522
37.461
37.395
37.325
37.25
37.172
37.091
37.008
36.922
36.834
36.744
36.652
36.557
36.459
36.359
36.256
36.153
36.049
35.946
35.843
35.743
35.645
35.549
35.455
35.363
35.273
35.184
35.098
35.013
34.931
34.851
34.772
34.695
34.618
34.542
34.468
34.395
34.324
34.258
34.197
34.142
34.092
34.047
34.004
33.964
33.923
33.881
33.837
33.789
33.738
33.685
33.629
33.572
33.515
33.458
33.404
33.351
33.302
33.255
33.21
33.169
33.129
33.091
33.054
33.018
32.984
32.95
32.917
32.885
32.854
32.824
32.796
32.769
32.744
32.72
32.696
32.675
32.654
32.636
32.619
32.603
32.587
32.571
32.554
32.535
32.516
32.496
32.477
32.458
32.441
32.426
32.411
32.397
32.382
32.367
32.351
32.334
32.315
32.295
32.275
32.253
32.23
32.206
32.182
32.156
32.13
32.103
32.075
32.047
32.016
31.985
31.953
31.92
31.887
31.854
31.821
31.788
31.755
31.722
31.69
31.658
31.626
31.594
31.563
31.534
31.507
31.48
31.456
31.433
31.41
31.388
31.365
31.343
31.321
31.301
31.281
31.265
31.252
31.247
31.25
31.266
31.298
31.352
31.432
31.544
31.698
31.9
32.157
32.477
32.862
33.311
33.824
34.392
35.007
35.659
36.335
37.021
37.705
38.374
39.018
39.627
40.191
40.706
41.164
41.561
41.897
42.172
42.386
42.543
42.645
42.698
42.706
42.676
42.615
42.527
42.42
42.297
42.162
42.02
41.873
41.725
41.577
41.431
41.289
41.149
41.013
40.882
40.757
40.638
40.524
40.416
40.312
40.213
40.117
40.025
39.936
39.85
39.766
39.684
39.603
39.523
39.446
39.371
39.297
39.225
39.153
39.08
39.007
38.931
38.854
38.775
38.693
38.61
38.524
38.436
38.348
38.259
38.17
38.082
37.997
37.916
37.84
37.771
37.709
37.655
37.608
37.569
37.537
37.512
37.493
37.479
37.468
37.459
37.45
37.442
37.431
37.418
37.401
37.379
37.351
37.317
37.275
37.225
37.169
37.107
37.042
36.973
36.901
36.828
36.755
36.681
36.607
36.533
36.459
36.383
36.304
36.221
36.133
36.041
35.944
35.845
35.743
35.64
35.538
35.436
35.336
35.237
35.14
35.045
34.952
34.86
34.769
34.68
34.593
34.507
34.423
34.342
34.263
34.186
34.111
34.037
33.964
33.893
33.824
33.757
33.692
33.631
33.571
33.514
33.459
33.405
33.352
33.301
33.249
33.199
33.148
33.098
33.05
33.002
32.955
32.908
32.861
32.816
32.772
32.73
32.69
32.652
32.616
32.58
32.545
32.51
32.473
32.437
32.401
32.365
32.331
32.299
32.27
32.244
32.22
32.199
32.18
32.161
32.144
32.126
32.11
32.094
32.078
32.063
32.047
32.031
32.014
31.996
31.977
31.956
31.934
31.912
31.89
31.868
31.845
31.821
31.797
31.77
31.742
31.712
31.681
31.648
31.615
31.582
31.552
31.523
31.496
31.471
31.448
31.425
31.401
31.378
31.354
31.33
31.308
31.286
31.264
31.244
31.225
31.206
31.186
31.166
31.145
31.123
31.102
31.081
31.063
31.05
31.043
31.047
31.066
31.105
31.171
31.27
31.412
31.603
31.854
32.168
32.549
32.999
33.513
34.086
34.709
35.37
36.056
36.752
37.447
38.125
38.775
39.387
39.951
40.46
40.91
41.298
41.623
41.886
42.089
42.236
42.332
42.381
42.39
42.364
42.308
42.228
42.127
42.011
41.884
41.749
41.608
41.463
41.316
41.169
41.023
40.88
40.739
40.6
40.464
40.33
40.199
40.073
39.951
39.834
39.722
39.614
39.512
39.415
39.325
39.24
39.161
39.088
39.019
38.955
38.894
38.835
38.777
38.718
38.655
38.587
38.513
38.433
38.346
38.254
38.157
38.058
37.96
37.865
37.775
37.693
37.619
37.555
37.499
37.452
37.413
37.381
37.356
37.336
37.319
37.303
37.287
37.271
37.254
37.237
37.22
37.203
37.186
37.167
37.146
37.122
37.095
37.064
37.03
36.99
36.946
36.895
36.838
36.775
36.707
36.634
36.557
36.477
36.393
36.305
36.214
36.119
36.021
35.921
35.819
35.716
35.612
35.508
35.403
35.297
35.193
35.09
34.988
34.887
34.788
34.692
34.599
34.508
34.421
34.337
34.254
34.173
34.093
34.013
33.934
33.856
33.78
33.705
33.633
33.563
33.496
33.431
33.367
33.306
33.246
33.187
33.13
33.074
33.018
32.962
32.907
32.853
32.8
32.749
32.7
32.652
32.608
32.565
32.524
32.485
32.447
32.409
32.372
32.336
32.3
32.265
32.232
32.2
32.169
32.138
32.109
32.081
32.054
32.03
32.008
31.987
31.969
31.952
31.935
31.92
31.905
31.891
31.878
31.863
31.848
31.831
31.813
31.793
31.773
31.752
31.731
31.711
31.693
31.675
31.659
31.643
31.626
31.608
31.59
31.571
31.552
31.533
31.514
31.496
31.478
31.458
31.437
31.414
31.389
31.363
31.336
31.308
31.279
31.25
31.222
31.195
31.168
31.143
31.118
31.095
31.074
31.055
31.038
31.023
31.012
31.006
31.004
31.009
31.022
31.047
31.088
31.15
31.24
31.365
31.535
31.757
32.04
32.387
32.801
33.28
33.819
34.412
35.048
35.715
36.402
37.093
37.777
38.441
39.073
39.664
40.206
40.693
41.121
41.486
41.789
42.03
42.213
42.339
42.416
42.447
42.439
42.396
42.326
42.232
42.121
41.997
41.863
41.722
41.576
41.429
41.28
41.132
40.986
40.842
40.7
40.559
40.42
40.282
40.146
40.012
39.883
39.758
39.639
39.526
39.421
39.324
39.233
39.149
39.07
38.995
38.922
38.85
38.777
38.701
38.622
38.539
38.452
38.361
38.268
38.175
38.082
37.992
37.906
37.825
37.751
37.685
37.628
37.579
37.539
37.507
37.482
37.463
37.45
37.439
37.432
37.427
37.423
37.419
37.415
37.41
37.404
37.396
37.385
37.372
37.356
37.336
37.312
37.285
37.256
37.223
37.187
37.147
37.103
37.052
36.996
36.934
36.867
36.795
36.719
36.638
36.555
36.469
36.381
36.293
36.203
36.112
36.02
35.927
35.832
35.737
35.64
35.543
35.445
35.347
35.249
35.151
35.054
34.959
34.866
34.776
34.689
34.602
34.515
34.428
34.341
34.255
34.169
34.086
34.007
33.933
33.863
33.797
33.736
33.678
33.622
33.567
33.514
33.461
33.41
33.36
33.31
33.262
33.216
33.171
33.127
33.085
33.046
33.008
32.972
32.937
32.904
32.873
32.843
32.814
32.787
32.761
32.735
32.708
32.682
32.656
32.631
32.605
32.58
32.554
32.527
32.5
32.472
32.445
32.418
32.391
32.365
32.34
32.316
32.293
32.271
32.25
32.23
32.21
32.19
32.169
32.148
32.126
32.104
32.08
32.056
32.029
32.001
31.972
31.941
31.91
31.879
31.849
31.819
31.79
31.76
31.729
31.697
31.664
31.629
31.594
31.558
31.523
31.491
31.462
31.439
31.424
31.42
31.43
31.458
31.511
31.595
31.718
31.887
32.111
32.395
32.743
33.155
33.631
34.164
34.747
35.369
36.018
36.682
37.348
38.002
38.632
39.228
39.782
