Trial 1:0back
33.361
33.339
33.318
33.3
33.284
33.269
33.256
33.246
33.236
33.229
33.224
33.222
33.223
33.23
33.244
33.267
33.302
33.351
33.417
33.502
33.608
33.736
33.885
34.054
34.242
34.446
34.664
34.894
35.133
35.378
35.627
35.876
36.123
36.362
36.592
36.81
37.014
37.2
37.368
37.515
37.641
37.746
37.829
37.89
37.929
37.948
37.948
37.929
37.894
37.844
37.779
37.704
37.618
37.524
37.423
37.318
37.212
37.106
37.003
36.903
36.809
36.721
36.639
36.564
36.495
36.432
36.375
36.322
36.273
36.227
36.183
36.139
36.094
36.048
36.0
35.951
35.9
35.847
35.795
35.743
35.693
35.646
35.603
35.566
35.533
35.507
35.489
35.477
35.473
35.475
35.485
35.5
35.521
35.547
35.577
35.61
35.645
35.681
35.718
35.753
35.787
35.818
35.846
35.869
35.886
35.897
35.901
35.897
35.886
35.869
35.844
35.813
35.776
35.735
35.689
35.64
35.589
35.535
35.48
35.424
35.368
35.311
35.256
35.202
35.149
35.097
35.047
34.997
34.947
34.897
34.846
34.794
34.741
34.687
34.634
34.58
34.525
34.471
34.418
34.365
34.313
34.263
34.215
34.169
34.125
34.083
34.046
34.013
33.983
33.958
33.936
33.918
33.904
33.893
33.886
33.881
33.879
33.878
33.879
33.879
33.88
33.879
33.877
33.873
33.868
33.861
33.853
33.844
33.833
33.819
33.803
33.785
33.766
33.746
33.724
33.703
33.681
33.661
33.644
33.628
33.615
33.604
33.596
33.59
33.586
33.585
33.586
33.589
33.595
33.603
33.614
33.631
33.653
33.683
33.722
33.775
33.841
33.923
34.022
34.138
34.272
34.424
34.593
34.777
34.974
35.183
35.4
35.623
35.849
36.075
36.298
36.515
36.721
36.916
37.096
37.261
37.407
37.534
37.641
37.727
37.791
37.833
37.855
37.855
37.837
37.8
37.747
37.68
37.599
37.508
37.409
37.304
37.195
37.085
36.974
36.864
36.757
36.654
36.554
36.459
36.37
36.286
36.208
36.134
36.064
35.996
35.93
35.866
35.802
35.739
35.675
35.612
35.55
35.491
35.434
35.382
35.334
35.29
35.252
35.219
35.191
35.17
35.155
35.147
35.146
35.151
35.163
35.181
35.204
35.232
35.264
35.299
35.338
35.38
35.425
35.472
35.519
35.566
35.61
35.651
35.686
35.714
35.734
35.746
35.749
35.743
35.728
35.705
35.673
35.634
35.588
35.537
35.482
35.426
35.368
35.31
35.251
35.193
35.136
35.079
35.022
34.967
34.913
34.86
34.809
34.758
34.708
34.658
34.607
34.555
34.502
34.447
34.39
34.331
34.27
34.209
34.146
34.084
34.022
33.961
33.903
33.848
33.795
33.748
33.705
33.669
33.638
33.613
33.593
33.577
33.566
33.558
33.555
33.555
33.56
33.566
33.574
33.582
33.589
33.592
33.593
33.59
33.584
33.576
33.565
33.554
33.541
33.527
33.512
33.498
33.483
33.469
33.455
33.441
33.43
33.42
33.412
33.408
33.408
33.411
33.418
33.427
33.44
33.455
33.47
33.486
33.502
33.518
33.534
33.55
33.569
33.593
33.626
33.669
33.728
33.804
33.9
34.017
34.152
34.304
34.474
34.663
34.869
35.084
35.305
35.53
35.758
35.989
36.221
36.453
36.683
36.903
37.108
37.299
37.48
37.65
37.807
37.949
38.074
38.179
38.263
38.323
38.359
38.371
38.358
38.321
38.263
38.185
38.091
37.982
37.862
37.735
37.603
37.471
37.34
37.213
37.092
36.979
36.873
36.777
36.691
36.612
36.542
36.478
36.419
36.363
36.31
36.257
36.203
36.149
36.092
36.035
35.976
35.918
35.859
35.802
35.748
35.697
35.651
35.612
35.578
35.553
35.537
35.529
35.53
35.54
35.557
35.581
35.61
35.644
35.682
35.721
35.761
35.801
35.839
35.873
35.904
35.93
35.951
35.966
35.977
35.983
35.983
35.977
35.966
35.949
35.927
35.899
35.867
35.829
35.788
35.743
35.696
35.648
35.6
35.55
35.501
35.45
35.399
35.349
35.297
35.246
35.194
35.142
35.088
35.033
34.977
34.919
34.861
34.801
34.742
34.681
34.621
34.559
34.498
34.436
34.375
34.315
34.256
34.199
34.144
34.093
34.044
34.0
33.96
33.925
33.893
33.866
33.844
33.825
33.809
33.797
33.786
33.778
33.771
33.764
33.758
33.752
33.745
33.737
33.728
33.717
33.705
33.691
33.675
33.659
33.641
33.622
33.604
33.586
33.569
33.555
33.542
33.532
33.524
33.52
33.518
33.518
33.52
33.523
33.527
33.531
33.535
33.538
33.541
33.543
33.545
33.547
33.552
33.562
33.579
33.606
33.646
33.703
33.779
33.876
33.997
34.142
34.312
34.507
34.724
34.961
35.216
35.486
35.767
36.054
36.344
36.63
36.91
37.179
37.433
37.671
37.888
38.083
38.254
38.4
38.521
38.617
38.688
38.734
38.757
38.759
38.74
38.703
38.649
38.581
38.499
38.407
38.307
38.203
38.096
37.987
37.879
37.773
37.669
37.57
37.475
37.385
37.301
37.221
37.145
37.073
37.004
36.936
36.869
36.801
36.732
36.663
36.591
36.519
36.445
36.372
36.3
36.23
36.163
36.099
36.041
35.989
35.944
35.906
35.878
35.857
35.846
35.842
35.847
35.858
35.876
35.9
35.928
35.958
35.99
36.022
36.052
36.08
36.105
36.125
36.141
36.151
36.155
36.155
36.15
36.139
36.125
36.107
36.085
36.059
36.032
36.001
35.969
35.935
35.9
35.862
35.822
35.78
35.737
35.692
35.647
35.6
35.552
35.502
35.45
35.396
35.339
35.278
35.214
35.146
35.075
35.001
34.924
34.845
34.764
34.683
34.602
34.522
34.443
34.367
34.294
34.226
34.162
34.104
34.052
34.004
33.961
33.923
33.889
33.858
33.83
33.804
33.779
33.755
33.732
33.71
33.688
33.666
33.642
33.618
33.592
33.566
33.54
33.514
33.488
33.462
33.437
33.412
33.389
33.367
33.346
33.328
33.313
33.3
33.291
33.286
33.284
33.285
33.289
33.295
33.302
33.31
33.318
33.324
33.328
33.328
33.324
33.316
33.305
33.289
33.27
33.248
33.225
33.201
33.179
33.161
33.149
33.145
33.153
33.175
33.215
33.276
33.361
33.471
33.608
33.772
33.964
34.182
34.423
34.685
34.964
35.256
35.557
35.862
36.165
36.463
36.75
37.023
37.278
37.511
37.721
37.904
38.062
38.193
38.297
38.377
38.431
38.461
38.469
38.458
38.429
38.386
38.33
38.263
38.187
38.104
38.015
37.921
37.823
37.723
37.62
37.517
37.413
37.31
37.207
37.105
37.005
36.906
36.809
36.714
36.62
36.528
36.437
36.346
36.257
36.169
36.083
35.999
35.919
35.842
35.77
35.705
35.646
35.596
35.554
35.521
35.497
35.482
35.474
35.474
35.481
35.495
35.514
35.539
35.566
35.596
35.626
35.657
35.687
35.715
35.741
35.765
35.784
35.799
35.81
35.817
35.82
35.82
35.816
35.808
35.799
35.787
35.774
35.759
35.742
35.723
35.702
35.677
35.65
35.619
35.584
35.544
35.501
35.452
35.399
35.341
35.278
35.212
35.142
35.07
34.996
34.921
34.844
34.768
34.691
34.616
34.541
34.467
34.396
34.328
34.263
34.201
34.143
34.089
34.04
33.994
33.952
33.914
33.879
33.847
33.817
33.788
33.761
33.735
33.71
33.685
33.661
33.638
33.614
33.589
33.564
33.538
33.512
33.486
33.459
33.432
33.405
33.38
33.357
33.335
33.315
33.299
33.285
33.275
33.267
33.262
33.259
33.258
33.258
33.259
33.261
33.263
33.266
33.269
33.272
33.276
33.281
33.29
33.303
33.324
33.355
33.397
33.454
33.527
33.62
33.734
33.869
34.026
34.205
34.405
34.624
34.861
35.112
35.375
35.645
35.92
36.195
36.466
36.729
36.981
37.218
37.437
37.636
37.811
37.963
38.09
38.191
38.267
38.317
38.343
38.347
38.329
38.291
38.235
38.163
38.076
37.978
37.871
37.757
37.639
37.517
37.394
37.271
37.149
37.029
36.911
36.797
36.686
36.579
36.476
36.377
36.281
36.188
36.097
36.008
35.921
35.835
35.751
35.669
35.588
35.511
35.437
35.367
35.303
35.246
35.196
35.156
35.126
35.107
35.097
35.098
35.109
35.13
35.161
35.2
35.246
35.297
35.354
35.413
35.475
35.537
35.598
35.656
35.71
35.759
35.802
35.839
35.868
35.89
35.905
35.912
35.912
35.904
35.889
35.869
35.842
35.812
35.776
35.737
35.694
35.648
35.6
35.549
35.497
35.442
35.386
35.326
35.265
35.201
35.134
35.065
34.993
34.918
34.841
34.762
34.682
34.601
34.521
34.441
34.363
34.287
34.212
34.141
34.074
34.01
33.95
33.895
33.845
33.799
33.758
33.723
33.691
33.664
33.64
33.62
33.603
33.588
33.576
33.565
33.556
33.546
33.535
33.524
33.511
33.497
33.48
33.462
33.441
33.419
33.396
33.37
33.344
33.317
33.289
33.261
33.235
33.21
33.19
33.173
33.163
33.159
33.163
33.178
33.203
33.242
33.297
33.37
33.463
33.577
33.715
33.876
34.061
34.268
34.495
34.74
34.999
35.27
35.548
35.829
36.11
36.387
36.655
36.912
37.154
37.378
37.582
37.764
37.924
38.062
38.176
38.269
38.341
38.392
38.424
38.437
38.432
38.412
38.376
38.327
38.265
38.19
38.104
38.008
37.903
37.789
37.668
37.542
37.412
37.278
37.143
37.008
36.873
36.739
36.608
36.479
36.355
36.235
36.121
36.012
35.909
35.813
35.722
35.639
35.562
35.493
35.43
35.377
35.332
35.295
35.266
35.244
35.231
35.224
35.223
35.229
35.239
35.253
35.272
35.293
35.318
35.344
35.373
35.403
35.435
35.468
35.502
35.537
35.572
35.607
35.642
35.676
35.708
35.738
35.765
35.788
35.805
35.818
35.825
35.826
35.821
35.808
35.789
35.763
35.73
35.689
35.641
35.587
35.528
35.463
35.394
35.32
35.244
35.166
35.088
35.009
34.931
34.855
34.78
34.709
34.64
34.574
34.511
34.451
34.393
34.339
34.287
34.239
34.194
34.151
34.11
34.072
34.035
33.999
33.965
33.93
33.896
33.861
33.826
33.789
33.753
33.716
33.679
33.642
33.606
33.571
33.539
33.51
33.484
33.462
33.444
33.429
33.419
33.412
33.407
33.405
33.405
33.406
33.408
33.412
33.416
33.422
33.43
33.44
33.453
33.471
33.497
33.532
33.58
33.644
33.726
33.829
33.954
34.102
34.274
34.471
34.69
34.931
35.191
35.466
35.754
36.05
36.351
36.652
36.949
37.239
37.516
37.777
38.018
38.237
38.431
38.6
38.741
38.853
38.938
38.993
39.022
39.026
39.005
38.964
38.903
38.825
38.734
38.631
38.52
38.402
38.28
38.156
38.032
37.908
37.786
37.667
37.55
37.437
37.329
37.225
37.125
37.029
36.936
36.845
36.756
36.667
36.578
36.488
36.399
36.311
36.222
36.136
36.052
35.971
35.896
35.826
35.764
35.71
35.666
35.632
35.608
35.596
35.593
35.6
35.615
35.637
35.665
35.698
35.734
35.773
35.814
35.856
35.897
35.936
35.974
36.009
36.04
36.067
36.088
36.104
36.113
36.115
36.11
36.099
36.082
36.059
36.031
35.998
35.96
35.918
35.873
35.825
35.776
35.724
35.672
35.618
35.563
35.507
35.449
35.39
35.328
35.264
35.197
35.129
35.058
34.988
34.916
34.844
34.772
34.7
34.628
34.557
34.488
34.42
34.355
34.291
34.231
34.174
34.122
34.074
34.03
33.992
33.957
33.928
33.902
33.88
33.862
33.847
33.834
33.824
33.815
33.807
33.8
33.793
33.786
33.778
33.768
33.756
33.743
33.728
33.712
33.694
33.675
33.654
33.632
33.61
33.588
33.566
33.545
33.525
33.507
33.492
33.479
33.469
33.464
33.462
33.465
33.474
33.489
33.512
33.545
33.588
33.645
33.717
33.808
33.92
34.054
34.213
34.397
34.605
34.836
35.087
35.356
35.64
35.934
36.234
36.537
36.838
37.132
37.418
37.69
37.947
38.185
38.401
38.595
38.764
38.907
39.024
39.116
39.181
39.223
39.24
39.235
39.21
39.166
39.105
39.031
38.944
38.847
38.743
38.632
38.518
38.401
38.283
38.165
38.051
37.939
37.832
37.731
37.635
37.545
37.459
37.379
37.303
37.23
37.161
37.093
37.025
36.956
36.887
36.817
36.746
36.675
36.605
36.536
36.47
36.407
36.349
36.295
36.247
36.206
36.173
36.149
36.132
36.124
36.125
36.133
36.147
36.167
36.192
36.219
36.249
36.279
36.311
36.343
36.373
36.401
36.426
36.446
36.46
36.468
36.469
36.463
36.451
36.432
36.406
36.374
36.336
36.292
36.243
36.19
36.133
36.073
36.01
35.945
35.879
35.813
35.747
35.681
35.616
35.551
35.486
35.422
35.359
35.297
35.235
35.173
35.111
35.049
34.987
34.923
34.859
34.793
34.725
34.657
34.589
34.521
34.454
34.388
34.325
34.263
34.205
34.15
34.1
34.053
34.011
33.973
33.939
33.909
33.883
33.861
33.841
33.825
33.811
33.8
33.789
33.78
33.772
33.764
33.755
33.745
33.733
33.72
33.705
33.688
33.669
33.649
33.628
33.606
33.584
33.563
33.544
33.527
33.513
33.502
33.493
33.488
33.485
33.485
33.486
33.488
33.491
33.494
33.495
33.494
33.49
33.483
33.473
33.458
33.44
33.418
33.393
33.365
33.335
33.305
33.274
33.243
33.214
33.188
33.165
33.148
33.138
33.139
33.155
33.188
33.242
33.32
33.425
33.559
33.724
33.919
34.145
34.399
34.679
34.981
35.3
35.632
35.971
36.311
36.647
36.974
37.287
37.581
37.852
38.098
38.315
38.503
38.661
38.789
38.887
38.957
39.002
39.023
39.023
39.004
38.969
38.921
38.861
38.791
38.712
38.627
38.536
38.442
38.346
38.248
38.15
38.052
37.955
37.86
37.766
37.673
37.583
37.494
37.408
37.323
37.238
37.155
37.073
36.992
36.913
36.837
36.764
36.693
36.626
36.563
36.505
36.451
36.402
36.359
36.32
36.287
36.258
36.235
36.217
36.204
36.194
36.188
36.184
36.183
36.184
36.187
36.192
36.199
36.205
36.213
36.221
36.228
36.234
36.239
36.242
36.244
36.246
36.246
36.245
36.243
36.239
36.232
36.223
36.211
36.194
36.172
36.144
36.11
36.071
36.026
35.976
35.919
35.858
35.791
35.72
35.645
35.568
35.488
35.406
35.324
35.241
35.159
35.079
35.002
34.927
34.857
34.79
34.729
34.672
34.621
34.575
34.533
34.496
34.462
34.43
34.399
34.368
34.338
34.307
34.275
34.242
34.208
34.173
34.138
34.102
34.067
34.033
34.001
33.971
33.944
33.92
33.9
33.883
33.87
33.86
33.852
33.847
33.844
33.843
33.843
33.844
33.846
33.848
33.851
33.853
33.857
33.86
33.862
33.864
33.865
33.863
33.859
33.852
33.84
33.825
33.807
33.786
33.763
33.738
33.711
33.682
33.653
33.624
33.595
33.568
33.542
33.519
33.5
33.484
33.472
33.467
33.468
33.478
33.497
33.528
33.572
33.632
33.71
33.807
33.925
34.065
34.227
34.409
34.612
34.832
35.068
35.317
35.574
35.836
36.097
36.356
36.608
36.85
37.08
37.296
37.496
37.678
37.84
37.983
38.106
38.209
38.291
38.354
38.398
38.423
38.43
38.42
38.394
38.354
38.301
38.236
38.161
38.076
37.983
37.884
37.78
37.672
37.562
37.451
37.339
37.229
37.121
37.018
36.919
36.826
36.739
36.656
36.579
36.507
36.438
36.374
36.314
36.257
36.205
36.156
36.11
36.067
36.027
35.99
35.955
35.924
35.895
35.87
35.849
35.832
35.82
35.813
35.811
35.814
35.821
35.834
35.85
35.871
35.896
35.924
35.955
35.989
36.023
36.058
36.093
36.126
36.156
36.183
36.203
36.218
36.225
36.225
36.217
36.201
36.178
36.146
36.107
36.061
36.008
35.95
35.887
35.82
35.75
35.679
35.606
35.534
35.464
35.395
35.328
35.264
35.202
35.142
35.083
35.027
34.973
34.921
34.87
34.819
34.768
34.717
34.665
34.612
34.558
34.503
34.447
34.389
34.331
34.273
34.215
34.158
34.103
34.05
34.0
33.954
33.912
33.873
33.839
33.808
33.782
33.761
33.744
33.731
33.722
33.717
33.714
33.714
33.716
33.72
33.725
33.731
33.738
33.744
33.749
33.754
33.757
33.758
33.758
33.756
33.751
33.744
33.734
33.72
33.703
33.682
33.659
33.634
33.609
33.584
33.561
33.54
33.522
33.506
33.495
33.488
33.487
33.492
33.504
33.526
33.558
33.601
33.659
33.732
33.823
33.932
34.061
34.21
34.379
34.568
34.775
34.998
35.235
35.483
35.739
36.0
36.263
36.525
36.782
37.033
37.273
37.5
37.711
37.906
38.08
38.233
38.364
38.473
38.557
38.619
38.658
38.675
38.671
38.647
38.605
38.548
38.475
38.39
38.293
38.188
38.077
37.959
37.838
37.714
37.59
37.468
37.348
37.232
37.121
37.016
36.918
36.826
36.741
36.661
36.585
36.513
36.446
36.381
36.32
36.26
36.202
36.145
36.09
36.037
35.986
35.938
35.894
35.854
35.819
35.79
35.766
35.747
35.734
35.727
35.725
35.728
35.737
35.751
35.77
35.795
35.824
35.857
35.892
35.93
35.968
36.005
36.041
36.074
36.102
36.125
36.142
36.151
36.153
36.146
36.132
36.11
36.08
36.042
35.998
35.947
35.892
35.834
35.773
35.71
35.646
35.581
35.517
35.454
35.391
35.33
35.27
35.212
35.156
35.1
35.045
34.99
34.934
34.879
34.823
34.767
34.712
34.658
34.605
34.552
34.5
34.447
34.395
34.342
34.291
34.24
34.19
34.141
34.094
34.049
34.005
33.964
33.924
33.888
33.854
33.824
33.798
33.776
33.758
33.744
33.734
33.729
33.726
33.726
33.728
33.732
33.736
33.74
33.743
33.744
33.743
33.741
33.736
33.73
33.721
33.71
33.697
33.681
33.663
33.644
33.623
33.603
33.582
33.562
33.543
33.526
33.511
33.499
33.489
33.484
33.482
33.484
33.491
33.502
33.52
33.544
33.576
33.619
33.675
33.746
33.835
33.944
34.073
34.225
34.4
34.596
34.812
35.047
35.297
35.558
35.828
36.102
36.379
36.652
36.92
37.178
37.422
37.651
37.861
38.05
38.217
38.361
38.481
38.577
38.65
38.699
38.726
38.731
38.716
38.683
38.632
38.567
38.488
38.396
38.294
38.184
38.067
37.947
37.825
37.704
37.584
37.469
37.36
37.257
37.161
37.073
36.992
36.919
36.851
36.789
36.731
36.677
36.624
36.571
36.518
36.463
36.405
36.346
36.285
36.224
36.163
36.103
36.046
35.992
35.943
35.899
35.861
35.829
35.805
35.787
35.776
35.773
35.776
35.786
35.803
35.827
35.855
35.886
35.919
35.953
35.986
36.018
36.046
36.07
36.09
36.104
36.112
36.115
36.111
36.1
36.083
36.059
36.027
35.99
35.946
35.898
35.845
35.79
35.733
35.674
35.616
35.558
35.501
35.446
35.392
35.339
35.286
35.234
35.182
35.13
35.077
35.021
34.964
34.904
34.842
34.776
34.709
34.64
34.569
34.498
34.427
34.357
34.289
34.223
34.16
34.102
34.047
33.997
33.951
33.91
33.874
33.844
33.819
33.798
33.78
33.766
33.754
33.745
33.738
33.732
33.728
33.725
33.723
33.72
33.717
33.713
33.707
33.7
33.691
33.68
33.666
33.65
33.631
33.61
33.586
33.56
33.534
33.508
33.482
33.458
33.435
33.416
33.399
33.385
33.377
33.375
33.38
33.394
33.417
33.453
33.502
33.566
33.647
33.746
33.866
34.006
34.168
34.351
34.554
34.776
35.015
35.266
35.526
35.792
36.058
36.322
36.58
36.829
37.065
37.287
37.492
37.68
37.848
37.997
38.125
38.232
38.318
38.382
38.425
38.448
38.45
38.434
38.401
38.352
38.288
38.212
38.124
38.027
37.922
37.812
37.697
37.579
37.459
37.34
37.223
37.11
37.002
36.9
36.806
36.718
36.638
36.564
36.496
36.432
36.371
36.314
36.259
36.206
36.154
36.102
36.052
36.001
35.95
35.9
35.85
35.801
35.753
35.708
35.666
35.628
35.595
35.565
35.541
35.521
35.507
35.498
35.494
35.496
35.503
35.514
35.531
35.551
35.575
35.601
35.628
35.655
35.681
35.704
35.723
35.738
35.748
35.751
35.747
35.736
35.716
35.688
35.652
35.609
35.56
35.505
35.445
35.381
35.315
35.247
35.178
35.109
35.04
34.973
34.908
34.845
34.786
34.729
34.674
34.621
34.57
34.52
34.471
34.424
34.378
34.332
34.288
34.243
34.197
34.151
34.102
34.052
34.0
33.947
33.892
33.836
33.781
33.727
33.674
33.624
33.577
33.533
33.493
33.458
33.427
33.401
33.38
33.363
33.351
33.343
33.339
33.338
33.339
33.342
33.345
33.349
33.352
33.355
33.357
33.358
33.357
33.355
33.35
33.345
33.337
33.328
33.317
33.304
33.289
33.272
33.253
33.233
33.212
33.191
33.169
33.148
33.128
33.11
33.094
33.08
33.07
33.063
33.059
33.058
33.06
33.065
33.075
33.089
33.111
33.142
33.185
33.242
33.315
33.407
33.52
33.654
33.81
33.988
34.187
34.404
34.636
34.88
35.135
35.395
35.658
35.919
36.176
36.424
36.66
36.881
37.086
37.271
37.436
37.579
37.701
37.799
37.873
37.925
37.954
37.961
37.948
37.915
37.865
37.799
37.719
37.628
37.527
37.419
37.306
37.189
37.07
36.952
36.834
36.72
36.609
36.505
36.408
36.317
36.234
36.157
36.085
36.019
35.957
35.899
35.842
35.787
35.733
35.681
35.63
35.579
35.53
35.482
35.435
