Trial 1:0back
38.544
38.482
38.416
38.346
38.274
38.198
38.121
38.043
37.963
37.883
37.804
37.724
37.645
37.567
37.491
37.418
37.349
37.285
37.226
37.173
37.127
37.086
37.05
37.018
36.99
36.965
36.944
36.924
36.905
36.886
36.867
36.847
36.824
36.799
36.771
36.742
36.711
36.68
36.649
36.618
36.588
36.559
36.53
36.5
36.47
36.437
36.402
36.364
36.322
36.277
36.227
36.174
36.117
36.058
35.998
35.938
35.878
35.819
35.761
35.703
35.646
35.59
35.536
35.483
35.43
35.378
35.325
35.271
35.216
35.158
35.1
35.04
34.98
34.919
34.859
34.799
34.74
34.684
34.63
34.579
34.532
34.489
34.447
34.408
34.368
34.329
34.288
34.244
34.198
34.15
34.101
34.051
34.003
33.957
33.915
33.876
33.842
33.811
33.782
33.757
33.732
33.707
33.68
33.653
33.624
33.592
33.559
33.523
33.485
33.446
33.406
33.367
33.328
33.289
33.252
33.217
33.184
33.153
33.123
33.095
33.067
33.04
33.013
32.985
32.955
32.923
32.89
32.857
32.823
32.79
32.757
32.726
32.696
32.666
32.638
32.612
32.588
32.566
32.546
32.528
32.513
32.499
32.487
32.476
32.466
32.456
32.447
32.436
32.425
32.414
32.401
32.387
32.372
32.356
32.341
32.326
32.312
32.301
32.29
32.281
32.272
32.263
32.253
32.241
32.226
32.208
32.187
32.163
32.137
32.109
32.079
32.05
32.022
31.996
31.971
31.948
31.929
31.912
31.899
31.888
31.88
31.873
31.867
31.861
31.853
31.843
31.832
31.817
31.802
31.785
31.769
31.757
31.752
31.756
31.773
31.806
31.856
31.927
32.021
32.139
32.283
32.454
32.652
32.876
33.127
33.401
33.697
34.012
34.345
34.691
35.048
35.411
35.776
36.14
36.5
36.853
37.196
37.526
37.841
38.139
38.419
38.679
38.919
39.138
39.334
39.507
39.657
39.784
39.891
39.979
40.05
40.105
40.148
40.178
40.196
40.203
40.2
40.188
40.168
40.138
40.101
40.058
40.01
39.958
39.902
39.844
39.784
39.724
39.663
39.6
39.536
39.475
39.42
39.37
39.325
39.282
39.24
39.197
39.151
39.101
39.047
38.987
38.923
38.854
38.78
38.702
38.62
38.535
38.448
38.36
38.272
38.187
38.105
38.025
37.95
37.879
37.812
37.749
37.69
37.636
37.587
37.544
37.506
37.474
37.447
37.427
37.412
37.401
37.394
37.389
37.385
37.382
37.377
37.369
37.36
37.347
37.333
37.315
37.295
37.273
37.247
37.218
37.187
37.152
37.116
37.08
37.042
37.004
36.966
36.928
36.889
36.849
36.807
36.762
36.714
36.662
36.607
36.547
36.484
36.416
36.346
36.275
36.205
36.137
36.07
36.005
35.941
35.877
35.814
35.75
35.686
35.621
35.556
35.491
35.429
35.368
35.311
35.256
35.205
35.156
35.11
35.066
35.023
34.98
34.937
34.894
34.85
34.804
34.756
34.708
34.659
34.609
34.558
34.507
34.456
34.404
34.352
34.301
34.251
34.203
34.157
34.115
34.075
34.038
34.004
33.974
33.945
33.918
33.891
33.864
33.836
33.806
33.776
33.743
33.711
33.677
33.644
33.613
33.584
33.558
33.535
33.515
33.498
33.482
33.468
33.452
33.436
33.417
33.395
33.37
33.342
33.312
33.279
33.246
33.213
33.181
33.152
33.126
33.103
33.085
33.069
33.057
33.046
33.036
33.026
33.014
33.002
32.987
32.969
32.949
32.927
32.903
32.879
32.854
32.831
32.808
32.786
32.764
32.741
32.719
32.697
32.674
32.652
32.629
32.606
32.582
32.558
32.533
32.508
32.484
32.46
32.437
32.415
32.395
32.379
32.367
32.361
32.363
32.375
32.398
32.436
32.489
32.56
32.651
32.766
32.905
33.07
33.263
33.483
33.729
34.001
34.295
34.611
34.945
35.294
35.654
36.022
36.393
36.765
37.133
37.496
37.848
38.188
38.513
38.819
39.104
39.367
39.606
39.821
40.012
40.179
40.323
40.444
40.545
40.627
40.69
40.735
40.764
40.779
40.779
40.766
40.741
40.704
40.655
40.597
40.531
40.457
40.378
40.296
40.212
40.129
40.048
39.97
39.896
39.826
39.76
39.696
39.635
39.574
39.514
39.452
39.388
39.321
39.252
39.178
39.101
39.019
38.933
38.843
38.75
38.655
38.559
38.463
38.369
38.278
38.191
38.108
38.03
37.956
37.886
37.82
37.758
37.701
37.649
37.602
37.561
37.525
37.495
37.472
37.454
37.441
37.431
37.423
37.416
37.41
37.404
37.398
37.39
37.382
37.371
37.358
37.343
37.325
37.305
37.284
37.261
37.236
37.208
37.178
37.144
37.107
37.066
37.023
36.978
36.931
36.881
36.828
36.772
36.712
36.649
36.583
36.514
36.445
36.375
36.306
36.239
36.173
36.109
36.046
35.985
35.923
35.862
35.799
35.735
35.669
35.601
35.533
35.465
35.397
35.33
35.266
35.205
35.146
35.09
35.037
34.986
34.937
34.889
34.841
34.793
34.746
34.698
34.651
34.604
34.557
34.509
34.46
34.409
34.356
34.303
34.251
34.199
34.15
34.104
34.06
34.019
33.98
33.944
33.91
33.878
33.848
33.819
33.789
33.759
33.728
33.695
33.66
33.624
33.587
33.549
33.511
33.472
33.434
33.398
33.364
33.335
33.31
33.289
33.272
33.257
33.243
33.229
33.214
33.198
33.179
33.159
33.137
33.113
33.088
33.062
33.036
33.011
32.986
32.963
32.941
32.922
32.903
32.886
32.869
32.851
32.832
32.811
32.787
32.761
32.733
32.704
32.673
32.641
32.609
32.578
32.549
32.523
32.499
32.478
32.458
32.44
32.422
32.405
32.386
32.367
32.346
32.322
32.296
32.269
32.241
32.213
32.187
32.163
32.142
32.125
32.113
32.108
32.112
32.127
32.156
32.201
32.264
32.347
32.452
32.582
32.738
32.923
33.137
33.38
33.654
33.956
34.286
34.641
35.017
35.41
35.817
36.233
36.657
37.083
37.508
37.928
38.339
38.736
39.115
39.471
39.802
40.104
40.374
40.613
40.819
40.995
41.143
41.263
41.359
41.433
41.488
41.524
41.546
41.554
41.551
41.537
41.514
41.48
41.439
41.389
41.334
41.273
41.208
41.14
41.07
41.0
40.93
40.859
40.788
40.715
40.641
40.565
40.488
40.41
40.33
40.248
40.165
40.079
39.991
39.901
39.81
39.717
39.623
39.53
39.438
39.347
39.258
39.172
39.086
39.003
38.92
38.836
38.753
38.67
38.588
38.506
38.426
38.347
38.272
38.2
38.132
38.067
38.007
37.951
37.9
37.853
37.811
37.775
37.744
37.717
37.696
37.677
37.659
37.642
37.622
37.599
37.572
37.542
37.51
37.478
37.447
37.417
37.387
37.356
37.324
37.29
37.252
37.211
37.165
37.117
37.066
37.013
36.957
36.9
36.84
36.779
36.716
36.65
36.583
36.514
36.444
36.374
36.305
36.235
36.166
36.096
36.026
35.955
35.884
35.813
35.74
35.666
35.591
35.515
35.438
35.361
35.284
35.209
35.137
35.067
35.0
34.936
34.875
34.817
34.761
34.706
34.651
34.596
34.54
34.482
34.423
34.363
34.302
34.241
34.181
34.122
34.064
34.009
33.956
33.906
33.86
33.818
33.778
33.74
33.704
33.667
33.631
33.595
33.558
33.52
33.482
33.443
33.404
33.365
33.326
33.287
33.25
33.212
33.176
33.14
33.105
33.07
33.037
33.006
32.976
32.949
32.923
32.899
32.876
32.853
32.83
32.806
32.783
32.758
32.735
32.711
32.688
32.666
32.644
32.624
32.606
32.588
32.571
32.554
32.538
32.521
32.505
32.488
32.47
32.45
32.428
32.403
32.375
32.345
32.314
32.283
32.252
32.223
32.196
32.172
32.151
32.134
32.118
32.105
32.095
32.085
32.075
32.065
32.052
32.036
32.017
31.994
31.966
31.935
31.903
31.872
31.845
31.823
31.811
31.811
31.826
31.861
31.918
32.0
32.11
32.249
32.419
32.621
32.856
33.125
33.426
33.757
34.116
34.501
34.906
35.33
35.768
36.214
36.664
37.112
37.552
37.981
38.394
38.789
39.161
39.508
39.828
40.12
40.383
40.619
40.826
41.008
41.165
41.298
41.409
41.5
41.57
41.62
41.651
41.663
41.656
41.631
41.589
41.533
41.464
41.386
41.301
41.212
41.123
41.041
40.972
40.916
40.869
40.83
40.792
40.752
40.707
40.652
40.588
40.512
40.425
40.327
40.22
40.106
39.985
39.861
39.735
39.607
39.48
39.353
39.229
39.109
38.992
38.88
38.773
38.671
38.573
38.481
38.392
38.309
38.229
38.152
38.08
38.012
37.948
37.889
37.835
37.786
37.744
37.707
37.675
37.648
37.623
37.599
37.577
37.555
37.532
37.51
37.486
37.461
37.434
37.406
37.377
37.346
37.313
37.28
37.245
37.209
37.172
37.134
37.095
37.056
37.016
36.976
36.935
36.894
36.85
36.804
36.755
36.701
36.642
36.58
36.514
36.448
36.382
36.317
36.254
36.192
36.131
36.071
36.011
35.95
35.889
35.826
35.763
35.698
35.632
35.564
35.494
35.424
35.354
35.285
35.217
35.15
35.085
35.021
34.957
34.894
34.83
34.767
34.705
34.643
34.582
34.521
34.462
34.403
34.345
34.288
34.232
34.177
34.123
34.072
34.022
33.974
33.929
33.886
33.845
33.807
33.77
33.734
33.699
33.665
33.63
33.596
33.56
33.522
33.483
33.442
33.402
33.361
33.321
33.282
33.245
33.211
33.181
33.154
33.131
33.111
33.091
33.072
33.051
33.029
33.004
32.978
32.95
32.921
32.891
32.86
32.83
32.801
32.774
32.748
32.726
32.706
32.689
32.674
32.66
32.647
32.634
32.619
32.604
32.586
32.566
32.544
32.519
32.492
32.464
32.434
32.404
32.374
32.344
32.314
32.283
32.254
32.224
32.196
32.169
32.143
32.12
32.099
32.082
32.07
32.064
32.066
32.079
32.104
32.146
32.206
32.288
32.395
32.531
32.696
32.893
33.122
33.384
33.677
34.001
34.354
34.732
35.133
35.55
35.978
36.413
36.848
37.278
37.7
38.11
38.503
38.878
39.233
39.564
39.869
40.148
40.397
40.617
40.807
40.967
41.098
41.201
41.278
41.331
41.36
41.367
41.355
41.325
41.28
41.222
41.154
41.077
40.996
40.911
40.823
40.734
40.643
40.549
40.454
40.358
40.259
40.16
40.058
39.956
39.853
39.751
39.651
39.552
39.454
39.357
39.263
39.17
39.079
38.989
38.899
38.809
38.716
38.62
38.521
38.418
38.312
38.203
38.092
37.982
37.875
37.773
37.677
37.588
37.505
37.431
37.364
37.304
37.25
37.201
37.158
37.118
37.084
37.053
37.025
37.001
36.979
36.96
36.943
36.928
36.914
36.901
36.888
36.876
36.863
36.849
36.833
36.816
36.796
36.772
36.745
36.712
36.674
36.632
36.585
36.534
36.48
36.425
36.368
36.312
36.255
36.199
36.142
36.085
36.027
35.966
35.904
35.838
35.77
35.699
35.628
35.556
35.484
35.413
35.344
35.276
35.21
35.144
35.077
35.011
34.945
34.879
34.813
34.748
34.683
34.619
34.555
34.492
34.429
34.367
34.306
34.245
34.184
34.123
34.062
34.001
33.941
33.884
33.829
33.777
33.729
33.685
33.644
33.608
33.575
33.545
33.517
33.49
33.463
33.434
33.403
33.369
33.331
33.291
33.248
33.203
33.158
33.112
33.069
33.027
32.989
32.955
32.926
32.9
32.878
32.858
32.839
32.821
32.803
32.783
32.763
32.741
32.719
32.697
32.675
32.654
32.634
32.615
32.596
32.578
32.56
32.542
32.524
32.505
32.485
32.463
32.438
32.411
32.382
32.352
32.321
32.291
32.262
32.236
32.213
32.192
32.173
32.157
32.143
32.131
32.119
32.107
32.093
32.079
32.062
32.045
32.026
32.007
31.986
31.967
31.949
31.935
31.928
31.93
31.944
31.975
32.023
32.093
32.187
32.308
32.459
32.642
32.859
33.109
33.393
33.71
34.058
34.433
34.833
35.251
35.684
36.126
36.572
37.018
37.461
37.896
38.318
38.724
39.11
39.473
39.81
40.119
40.4
40.651
40.871
41.06
41.22
41.35
41.452
41.527
41.576
41.602
41.608
41.596
41.571
41.534
41.489
41.436
41.378
41.314
41.245
41.172
41.095
41.015
40.933
40.849
40.764
40.679
40.595
40.511
40.429
40.351
40.276
40.205
40.138
40.073
40.009
39.943
39.875
39.801
39.722
39.635
39.542
39.443
39.337
39.227
39.114
38.999
38.883
38.767
38.65
38.536
38.425
38.318
38.217
38.123
38.036
37.957
37.884
37.817
37.756
37.698
37.646
37.597
37.554
37.516
37.484
37.457
37.436
37.42
37.408
37.398
37.388
37.377
37.363
37.345
37.323
37.295
37.264
37.229
37.19
37.149
37.105
37.06
37.011
36.96
36.907
36.852
36.795
36.736
36.676
36.615
36.553
36.489
36.423
36.355
36.286
36.214
36.139
36.062
35.983
35.902
35.82
35.738
35.659
35.583
35.51
35.441
35.376
35.313
35.252
35.193
35.134
35.076
35.016
34.956
34.894
34.83
34.764
34.698
34.632
34.568
34.506
34.447
34.392
34.338
34.287
34.237
34.188
34.138
34.088
34.037
33.985
33.933
33.88
33.827
33.775
33.724
33.675
33.628
33.582
33.538
33.495
33.453
33.412
33.372
33.333
33.296
33.26
33.225
33.191
33.156
33.122
33.086
33.05
33.013
32.974
32.935
32.895
32.855
32.816
32.777
32.74
32.705
32.673
32.645
32.62
32.599
32.582
32.568
32.557
32.548
32.541
32.534
32.528
32.52
32.51
32.495
32.475
32.451
32.422
32.391
32.357
32.324
32.291
32.261
32.234
32.211
32.191
32.173
32.158
32.143
32.128
32.112
32.094
32.075
32.053
32.03
32.005
31.98
31.956
31.934
31.914
31.9
31.893
31.895
31.909
31.938
31.986
32.054
32.147
32.265
32.412
32.589
32.796
33.035
33.307
33.61
33.946
34.31
34.7
35.112
35.541
35.982
36.431
36.881
37.329
37.77
38.199
38.612
39.005
39.374
39.717
40.029
40.31
40.557
40.771
40.955
41.109
41.236
41.337
41.414
41.468
41.502
41.517
41.515
41.497
41.465
41.422
41.369
41.307
41.236
41.159
41.075
40.986
40.894
40.801
40.708
40.618
40.53
40.446
40.365
40.288
40.212
40.137
40.062
39.987
39.912
39.834
39.754
39.67
39.582
39.491
39.396
39.297
39.195
39.092
38.989
38.886
38.783
38.681
38.581
38.483
38.386
38.292
38.198
38.106
38.016
37.927
37.842
37.76
37.685
37.615
37.554
37.502
37.458
37.423
37.396
37.374
37.356
37.34
37.325
37.311
37.295
37.278
37.258
37.236
37.211
37.183
37.151
37.117
37.08
37.042
37.002
36.961
36.92
36.879
36.837
36.794
36.749
36.701
36.65
36.595
36.536
36.471
36.401
36.326
36.248
36.168
36.087
36.006
35.927
35.851
35.779
35.71
35.644
35.581
35.519
35.457
35.394
35.33
35.264
35.197
35.129
35.06
34.991
34.923
34.856
34.79
34.725
34.662
34.601
34.543
34.485
34.429
34.373
34.319
34.266
34.214
34.162
34.112
34.062
34.012
33.961
33.91
33.858
33.806
33.753
33.7
33.647
33.596
33.547
33.502
33.459
33.421
33.385
33.351
33.319
33.289
33.258
33.227
33.195
33.161
33.125
33.088
33.049
33.011
32.974
32.939
32.906
32.877
32.852
32.83
32.812
32.796
32.782
32.768
32.754
32.737
32.718
32.697
32.672
32.644
32.614
32.582
32.549
32.517
32.486
32.457
32.433
32.412
32.396
32.383
32.373
32.366
32.36
32.354
32.346
32.336
32.324
32.308
32.289
32.267
32.243
32.216
32.188
32.16
32.131
32.104
32.077
32.051
32.027
32.005
31.985
31.967
31.95
31.936
31.926
31.921
31.924
31.937
31.965
32.011
32.079
32.174
32.298
32.454
32.645
32.871
33.133
33.429
33.758
34.117
34.502
34.91
35.336
35.775
36.221
36.669
37.114
37.551
37.976
38.385
38.774
39.138
39.477
39.787
40.067
40.318
40.539
40.728
40.887
41.015
41.114
41.184
41.227
41.245
41.239
41.214
41.172
41.117
41.05
40.973
40.89
40.802
40.711
40.617
40.524
40.432
40.343
40.258
40.175
40.096
40.018
39.942
39.866
39.789
39.711
39.632
39.552
39.472
39.391
39.309
39.225
39.14
39.051
38.96
38.865
38.767
38.665
38.561
38.454
38.346
38.236
38.124
38.013
37.902
37.794
37.689
37.59
37.497
37.412
37.336
37.268
37.21
37.16
37.12
37.086
37.059
37.035
37.015
36.997
36.979
36.961
36.943
36.925
36.907
36.888
36.87
36.853
36.836
36.82
36.804
36.786
36.767
36.746
36.722
36.694
36.662
36.625
36.584
36.538
36.486
36.429
36.367
36.3
36.23
36.157
36.083
36.01
35.939
35.871
35.806
35.742
35.679
35.615
35.55
35.483
35.412
35.337
35.26
35.181
35.1
35.019
34.938
34.86
34.786
34.715
34.649
34.588
34.53
34.475
34.422
34.369
34.316
34.262
34.207
34.152
34.096
34.041
33.987
33.934
33.883
33.835
33.788
33.742
33.697
33.653
33.609
33.566
33.524
33.482
33.442
33.403
33.366
33.33
33.296
33.264
33.231
33.198
33.164
33.13
33.094
33.057
33.02
32.984
32.947
32.912
32.879
32.848
32.82
32.795
32.773
32.753
32.735
32.716
32.697
32.678
32.657
32.635
32.612
32.588
32.563
32.537
32.51
32.484
32.458
32.434
32.412
32.393
32.377
32.362
32.35
32.339
32.329
32.319
32.306
32.291
32.273
32.252
32.226
32.198
32.167
32.136
32.103
32.072
32.041
32.013
31.986
31.963
31.941
31.922
31.904
31.887
31.872
31.857
31.844
31.834
31.829
31.831
31.846
31.876
31.926
31.999
32.099
32.231
32.397
32.599
32.84
33.12
33.438
33.791
34.176
34.589
35.024
35.478
35.945
36.419
36.895
37.366
37.828
38.276
38.704
39.11
39.491
39.845
40.171
40.468
40.734
40.969
41.174
41.348
41.493
41.61
41.7
41.765
41.808
41.83
41.832
41.817
41.785
41.738
41.679
41.609
41.532
41.45
41.365
41.278
41.19
41.103
41.016
40.929
40.841
40.753
40.665
40.579
40.494
40.411
40.331
40.254
40.179
40.105
40.031
39.956
39.88
39.801
39.719
39.634
39.544
39.449
39.349
39.244
39.134
39.021
38.904
38.786
38.667
38.55
38.436
38.328
38.226
38.132
38.044
37.964
37.89
37.822
37.76
37.703
37.65
37.601
37.556
37.516
37.479
37.445
37.414
37.386
37.358
37.332
37.305
37.277
37.249
37.222
37.193
37.164
37.134
37.102
37.068
37.03
36.988
36.942
36.891
36.836
36.777
36.715
36.651
36.585
36.518
36.45
36.383
36.316
36.249
36.182
36.115
36.047
35.977
35.905
35.831
35.755
35.676
35.596
35.515
35.433
35.351
35.27
35.19
35.112
35.037
34.964
34.895
34.827
34.762
34.699
34.637
34.575
34.513
34.451
34.389
34.325
34.261
34.197
34.132
34.068
34.005
33.943
33.882
33.823
33.767
33.713
33.661
33.612
33.565
33.521
33.48
33.441
33.403
33.366
33.33
33.294
33.258
33.22
33.181
33.142
33.102
33.061
33.021
32.982
32.944
32.907
32.872
32.839
32.807
32.777
32.749
32.72
32.692
32.663
32.633
32.603
32.573
32.543
32.513
32.484
32.456
32.43
32.406
32.384
32.365
32.348
32.332
32.318
32.305
32.291
32.277
32.26
32.242
32.22
32.195
32.167
32.136
32.104
32.07
32.037
32.004
31.973
31.944
31.92
31.9
31.886
31.875
31.869
31.865
31.862
31.86
31.855
31.848
31.837
31.821
31.801
31.776
31.748
31.718
31.687
31.656
31.625
31.596
31.57
31.546
31.526
31.509
31.497
31.491
31.494
31.506
31.532
31.573
31.632
31.712
31.818
31.951
32.117
32.319
32.559
32.84
33.16
33.518
33.911
34.337
34.791
35.267
35.759
36.262
36.769
37.274
37.771
38.255
38.72
39.16
39.572
39.953
40.301
40.615
40.895
41.142
41.357
41.543
41.699
41.828
41.93
42.006
42.059
42.089
42.099
42.09
42.065
42.025
41.972
41.909
41.838
41.759
41.674
41.586
41.495
41.403
41.312
41.221
41.131
41.043
40.957
40.872
40.787
40.704
40.622
40.542
40.464
40.387
40.311
40.235
40.158
40.078
39.995
39.908
39.817
39.721
39.62
39.516
39.407
39.294
39.178
39.058
38.935
38.811
38.687
38.564
38.446
38.333
38.227
38.129
38.04
37.959
37.886
37.82
37.761
37.707
37.657
37.61
37.566
37.522
37.48
37.439
37.4
37.362
37.325
37.289
37.254
37.219
37.184
37.149
37.114
37.08
37.045
37.01
36.974
36.937
36.896
36.852
36.803
36.748
36.688
36.622
36.551
36.475
36.396
36.315
36.234
36.154
36.077
36.003
35.931
35.86
35.79
35.72
35.649
35.576
35.501
35.424
35.345
35.264
35.183
35.102
35.022
34.944
34.869
34.796
34.727
34.66
34.595
34.532
34.47
34.408
34.346
34.283
34.218
34.15
34.08
34.008
33.934
33.861
33.789
33.719
33.652
33.588
33.529
33.474
33.422
33.373
33.327
33.282
33.238
33.195
33.152
33.109
33.066
33.024
32.982
32.942
32.903
32.866
32.83
32.797
32.766
32.737
32.71
32.684
32.661
32.638
32.617
32.595
32.573
32.55
32.526
32.502
32.476
32.451
32.426
32.401
32.376
32.35
32.324
32.299
32.274
32.249
32.224
32.2
32.176
32.154
32.133
32.113
32.095
32.078
32.061
32.045
32.028
32.012
31.995
31.978
31.961
31.941
31.921
31.9
31.877
31.854
31.831
31.809
31.787
31.765
31.743
31.721
31.7
31.677
