Trial 1:0back
34.399
34.357
34.315
34.271
34.227
34.182
34.138
34.095
34.053
34.013
33.975
33.94
33.909
33.881
33.857
33.835
33.815
33.798
33.782
33.767
33.752
33.737
33.722
33.707
33.691
33.675
33.659
33.642
33.624
33.607
33.589
33.572
33.556
33.54
33.525
33.511
33.498
33.485
33.474
33.464
33.453
33.442
33.43
33.416
33.401
33.384
33.367
33.348
33.329
33.31
33.291
33.272
33.254
33.236
33.218
33.2
33.183
33.165
33.147
33.129
33.111
33.093
33.076
33.059
33.042
33.025
33.008
32.99
32.973
32.955
32.938
32.921
32.903
32.884
32.864
32.842
32.819
32.793
32.766
32.738
32.709
32.679
32.65
32.62
32.591
32.564
32.538
32.513
32.491
32.471
32.454
32.44
32.43
32.426
32.43
32.443
32.469
32.509
32.566
32.64
32.734
32.847
32.981
33.134
33.306
33.494
33.697
33.911
34.132
34.357
34.583
34.807
35.027
35.24
35.441
35.63
35.804
35.961
36.102
36.225
36.331
36.42
36.494
36.552
36.597
36.629
36.65
36.662
36.665
36.662
36.652
36.638
36.619
36.598
36.574
36.549
36.525
36.5
36.476
36.453
36.43
36.409
36.388
36.37
36.353
36.337
36.324
36.311
36.301
36.291
36.282
36.274
36.264
36.253
36.24
36.225
36.207
36.187
36.165
36.14
36.114
36.088
36.061
36.036
36.012
35.992
35.975
35.961
35.951
35.946
35.945
35.948
35.956
35.968
35.982
35.999
36.018
36.038
36.058
36.078
36.097
36.114
36.13
36.143
36.155
36.164
36.17
36.173
36.172
36.166
36.154
36.138
36.116
36.09
36.061
36.03
35.997
35.962
35.927
35.891
35.854
35.818
35.781
35.744
35.707
35.67
35.632
35.594
35.555
35.516
35.476
35.435
35.393
35.349
35.305
35.259
35.214
35.167
35.121
35.073
35.025
34.978
34.931
34.886
34.842
34.801
34.763
34.726
34.691
34.658
34.626
34.594
34.563
34.532
34.503
34.474
34.446
34.419
34.392
34.366
34.341
34.317
34.292
34.268
34.243
34.219
34.195
34.171
34.147
34.125
34.102
34.08
34.058
34.035
34.012
33.989
33.966
33.944
33.923
33.903
33.883
33.864
33.846
33.828
33.809
33.79
33.771
33.751
33.731
33.71
33.689
33.667
33.645
33.622
33.601
33.579
33.558
33.537
33.516
33.496
33.476
33.457
33.438
33.42
33.401
33.381
33.361
33.341
33.32
33.298
33.276
33.254
33.231
33.209
33.186
33.164
33.143
33.122
33.101
33.081
33.061
33.04
33.018
32.995
32.97
32.945
32.918
32.89
32.861
32.831
32.801
32.769
32.737
32.704
32.67
32.636
32.602
32.569
32.537
32.507
32.479
32.454
32.433
32.416
32.404
32.399
32.4
32.409
32.429
32.461
32.507
32.569
32.649
32.749
32.869
33.009
33.17
33.35
33.546
33.758
33.982
34.215
34.454
34.696
34.938
35.175
35.406
35.627
35.837
36.033
36.213
36.377
36.523
36.65
36.76
36.851
36.926
36.984
37.027
37.057
37.074
37.082
37.08
37.07
37.055
37.033
37.008
36.979
36.947
36.914
36.881
36.847
36.815
36.783
36.753
36.724
36.697
36.671
36.646
36.624
36.602
36.581
36.56
36.54
36.519
36.498
36.476
36.453
36.429
36.404
36.378
36.352
36.325
36.299
36.273
36.249
36.227
36.208
36.193
36.181
36.173
36.17
36.17
36.174
36.181
36.19
36.201
36.214
36.228
36.242
36.256
36.271
36.285
36.3
36.314
36.328
36.341
36.352
36.361
36.367
36.37
36.37
36.366
36.359
36.349
36.336
36.319
36.299
36.276
36.251
36.223
36.192
36.157
36.119
36.078
36.035
35.991
35.944
35.898
35.851
35.804
35.758
35.713
35.669
35.626
35.585
35.544
35.505
35.465
35.425
35.385
35.344
35.303
35.262
35.22
35.178
35.134
35.091
35.048
35.004
34.962
34.92
34.879
34.84
34.802
34.765
34.73
34.696
34.663
34.631
34.6
34.57
34.54
34.512
34.484
34.458
34.433
34.409
34.385
34.361
34.336
34.312
34.287
34.262
34.236
34.211
34.185
34.158
34.132
34.106
34.082
34.059
34.038
34.019
34.002
33.986
33.971
33.957
33.943
33.927
33.91
33.891
33.871
33.848
33.823
33.798
33.771
33.745
33.72
33.696
33.672
33.649
33.627
33.605
33.583
33.561
33.539
33.517
33.495
33.473
33.451
33.428
33.405
33.382
33.359
33.336
33.312
33.288
33.263
33.237
33.211
33.183
33.155
33.126
33.097
33.066
33.035
33.004
32.972
32.939
32.906
32.873
32.84
32.809
32.778
32.748
32.72
32.692
32.666
32.641
32.619
32.599
32.584
32.572
32.565
32.564
32.57
32.585
32.61
32.646
32.697
32.765
32.85
32.955
33.079
33.223
33.387
33.569
33.767
33.98
34.203
34.434
34.67
34.907
35.141
35.37
35.592
35.803
36.001
36.186
36.355
36.508
36.645
36.764
36.866
36.95
37.018
37.07
37.107
37.131
37.143
37.144
37.135
37.117
37.092
37.062
37.028
36.99
36.951
36.911
36.871
36.831
36.793
36.756
36.721
36.689
36.659
36.631
36.606
36.582
36.561
36.542
36.524
36.506
36.487
36.467
36.446
36.423
36.398
36.372
36.345
36.318
36.291
36.266
36.243
36.224
36.208
36.197
36.191
36.19
36.193
36.202
36.214
36.231
36.25
36.271
36.293
36.316
36.339
36.361
36.381
36.4
36.415
36.426
36.433
36.434
36.43
36.42
36.404
36.382
36.355
36.322
36.285
36.245
36.202
36.158
36.113
36.068
36.023
35.978
35.934
35.892
35.852
35.814
35.778
35.745
35.714
35.686
35.66
35.635
35.611
35.588
35.563
35.538
35.51
35.48
35.448
35.412
35.373
35.331
35.285
35.236
35.184
35.129
35.073
35.016
34.959
34.903
34.849
34.796
34.745
34.695
34.647
34.6
34.555
34.512
34.472
34.434
34.398
34.365
34.336
34.309
34.286
34.264
34.245
34.226
34.209
34.193
34.176
34.16
34.144
34.127
34.11
34.091
34.071
34.05
34.027
34.003
33.978
33.953
33.927
33.901
33.876
33.851
33.828
33.806
33.786
33.768
33.751
33.735
33.72
33.705
33.692
33.68
33.668
33.657
33.646
33.635
33.623
33.61
33.595
33.579
33.563
33.545
33.527
33.508
33.488
33.467
33.445
33.423
33.401
33.378
33.354
33.331
33.307
33.283
33.259
33.235
33.211
33.187
33.164
33.14
33.117
33.093
33.068
33.043
33.017
32.992
32.967
32.942
32.918
32.894
32.871
32.849
32.826
32.805
32.784
32.766
32.751
32.742
32.74
32.748
32.769
32.804
32.855
32.925
33.015
33.126
33.259
33.413
33.586
33.778
33.987
34.21
34.445
34.689
34.938
35.189
35.439
35.684
35.921
36.148
36.361
36.56
36.741
36.904
37.047
37.171
37.276
37.362
37.43
37.481
37.516
37.538
37.547
37.545
37.534
37.516
37.491
37.462
37.429
37.393
37.355
37.317
37.278
37.239
37.2
37.161
37.122
37.084
37.046
37.009
36.974
36.94
36.907
36.875
36.844
36.815
36.787
36.759
36.732
36.704
36.677
36.649
36.62
36.591
36.563
36.534
36.507
36.481
36.456
36.434
36.414
36.399
36.387
36.381
36.38
36.385
36.395
36.411
36.432
36.457
36.485
36.516
36.547
36.578
36.607
36.634
36.658
36.679
36.697
36.712
36.722
36.729
36.731
36.728
36.723
36.714
36.702
36.686
36.667
36.645
36.619
36.591
36.561
36.528
36.493
36.455
36.415
36.373
36.329
36.285
36.24
36.195
36.15
36.104
36.058
36.011
35.963
35.916
35.868
35.82
35.771
35.722
35.673
35.624
35.576
35.528
35.481
35.436
35.39
35.346
35.303
35.26
35.217
35.175
35.133
35.091
35.049
35.009
34.968
34.929
34.891
34.853
34.817
34.782
34.749
34.716
34.685
34.654
34.623
34.593
34.562
34.531
34.5
34.468
34.437
34.405
34.374
34.343
34.314
34.285
34.258
34.232
34.207
34.184
34.163
34.144
34.126
34.11
34.095
34.08
34.065
34.05
34.034
34.017
33.999
33.981
33.962
33.942
33.92
33.898
33.875
33.852
33.828
33.804
33.779
33.755
33.729
33.703
33.677
33.65
33.624
33.6
33.578
33.558
33.539
33.521
33.504
33.488
33.472
33.456
33.439
33.421
33.401
33.38
33.357
33.332
33.306
33.28
33.253
33.226
33.198
33.17
33.142
33.113
33.085
33.057
33.03
33.003
32.977
32.952
32.926
32.901
32.876
32.851
32.828
32.809
32.794
32.787
32.788
32.8
32.825
32.866
32.924
33.003
33.103
33.225
33.371
33.538
33.727
33.937
34.166
34.411
34.67
34.94
35.217
35.498
35.778
36.054
36.323
36.582
36.826
37.055
37.267
37.459
37.631
37.784
37.916
38.027
38.119
38.191
38.244
38.281
38.302
38.31
38.307
38.293
38.271
38.241
38.206
38.167
38.126
38.083
38.04
37.997
37.955
37.916
37.879
37.844
37.812
37.782
37.754
37.727
37.701
37.677
37.653
37.629
37.605
37.58
37.553
37.526
37.496
37.466
37.434
37.402
37.37
37.337
37.305
37.273
37.243
37.217
37.194
37.175
37.162
37.153
37.15
37.153
37.161
37.175
37.192
37.212
37.235
37.26
37.286
37.312
37.338
37.363
37.387
37.408
37.426
37.441
37.453
37.462
37.467
37.47
37.468
37.464
37.457
37.447
37.434
37.419
37.401
37.38
37.356
37.329
37.3
37.269
37.235
37.198
37.159
37.118
37.074
37.027
36.979
36.928
36.876
36.823
36.77
36.716
36.663
36.61
36.558
36.508
36.458
36.41
36.362
36.316
36.269
36.223
36.175
36.127
36.078
36.028
35.977
35.926
35.876
35.827
35.779
35.732
35.687
35.642
35.599
35.558
35.518
35.48
35.444
35.409
35.376
35.344
35.312
35.282
35.252
35.224
35.197
35.171
35.145
35.119
35.094
35.067
35.04
35.013
34.985
34.958
34.931
34.904
34.877
34.852
34.827
34.803
34.781
34.759
34.737
34.716
34.694
34.672
34.65
34.627
34.603
34.58
34.555
34.53
34.505
34.479
34.452
34.425
34.398
34.371
34.343
34.314
34.285
34.255
34.226
34.197
34.168
34.139
34.11
34.081
34.053
34.024
33.996
33.968
33.94
33.912
33.884
33.856
33.828
33.799
33.77
33.74
33.708
33.676
33.643
33.609
33.573
33.537
33.5
33.463
33.426
33.389
33.353
33.317
33.282
33.247
33.213
33.18
33.149
33.119
33.092
33.069
33.049
33.036
33.032
33.038
33.059
33.096
33.153
33.231
33.333
33.458
33.607
33.78
33.976
34.196
34.436
34.694
34.969
35.256
35.552
35.854
36.156
36.456
36.75
37.032
37.301
37.553
37.787
38.0
38.192
38.361
38.508
38.633
38.736
38.819
38.883
38.929
38.96
38.977
38.981
38.974
38.958
38.935
38.906
38.872
38.834
38.794
38.752
38.708
38.663
38.618
38.574
38.532
38.491
38.452
38.415
38.381
38.35
38.32
38.293
38.266
38.241
38.215
38.188
38.161
38.131
38.099
38.065
38.029
37.991
37.952
37.914
37.876
37.84
37.807
37.778
37.754
37.735
37.722
37.714
37.712
37.715
37.722
37.734
37.75
37.769
37.79
37.813
37.836
37.859
37.881
37.902
37.922
37.94
37.956
37.968
37.977
37.982
37.984
37.983
37.978
37.968
37.955
37.939
37.919
37.897
37.871
37.841
37.808
37.772
37.732
37.689
37.643
37.595
37.545
37.493
37.438
37.381
37.323
37.263
37.202
37.141
37.08
37.02
36.96
36.901
36.844
36.789
36.736
36.685
36.636
36.588
36.542
36.496
36.451
36.406
36.363
36.319
36.277
36.234
36.192
36.15
36.109
36.069
36.029
35.989
35.95
35.911
35.873
35.837
35.802
35.768
35.735
35.702
35.669
35.636
35.602
35.569
35.536
35.503
35.471
35.439
35.408
35.377
35.348
35.319
35.29
35.262
35.234
35.205
35.174
35.142
35.108
35.072
35.034
34.994
34.952
34.908
34.861
34.814
34.765
34.717
34.67
34.625
34.583
34.545
34.511
34.482
34.456
34.435
34.418
34.404
34.393
34.383
34.375
34.368
34.36
34.352
34.343
34.332
34.318
34.301
34.28
34.254
34.223
34.188
34.149
34.107
34.061
34.012
33.959
33.905
33.848
33.79
33.731
33.671
33.611
33.551
33.491
33.431
33.375
33.321
33.272
33.23
33.196
33.173
33.163
33.168
33.19
33.233
33.297
33.385
33.496
33.632
33.792
33.976
34.182
34.409
34.656
34.919
35.196
35.484
35.778
36.075
36.371
36.661
36.943
37.213
37.467
37.704
37.921
38.118
38.293
38.447
38.578
38.689
38.779
38.85
38.904
38.943
38.967
38.979
38.979
38.97
38.952
38.927
38.897
38.862
38.823
38.782
38.739
38.694
38.648
38.602
38.557
38.511
38.465
38.419
38.373
38.328
38.283
38.237
38.191
38.144
38.097
38.049
38.001
37.952
37.903
37.854
37.805
37.758
37.712
37.669
37.631
37.598
37.569
37.547
37.53
37.52
37.517
37.522
37.533
37.55
37.574
37.603
37.636
37.672
37.709
37.748
37.786
37.822
37.855
37.885
37.911
37.932
37.947
37.956
37.959
37.955
37.946
37.932
37.913
37.889
37.86
37.827
37.79
37.751
37.709
37.665
37.619
37.57
37.52
37.468
37.414
37.359
37.303
37.245
37.186
37.126
37.063
37.0
36.935
36.869
36.801
36.732
36.662
36.591
36.518
36.446
36.373
36.301
36.23
36.16
36.091
36.024
35.959
35.897
35.837
35.779
35.723
35.669
35.616
35.565
35.515
35.468
35.423
35.38
35.338
35.299
35.262
35.227
35.195
35.164
35.135
35.107
35.08
35.054
35.029
35.004
34.98
34.956
34.932
34.908
34.884
34.86
34.837
34.813
34.791
34.77
34.751
34.735
34.72
34.706
34.693
34.681
34.669
34.656
34.644
34.63
34.614
34.598
34.579
34.559
34.536
34.513
34.487
34.46
34.431
34.401
34.371
34.339
34.307
34.274
34.241
34.207
34.173
34.137
34.101
34.065
34.029
33.993
33.958
33.924
33.892
33.862
33.836
33.816
33.803
33.799
33.808
33.83
33.868
33.925
34.002
34.099
34.218
34.36
34.525
34.711
34.919
35.146
35.39
35.648
35.917
36.194
36.474
36.754
37.031
37.301
37.561
37.806
38.035
38.245
38.435
38.603
38.75
38.875
38.978
39.06
39.122
39.166
39.194
39.206
39.205
39.194
39.172
39.142
39.105
39.062
39.015
38.963
38.909
38.852
38.793
38.735
38.676
38.619
38.563
38.508
38.454
38.401
38.348
38.295
38.242
38.189
38.134
38.077
38.018
37.959
37.899
37.839
37.781
37.724
37.67
37.619
37.573
37.532
37.497
37.467
37.444
37.427
37.417
37.413
37.416
37.425
37.439
37.459
37.484
37.511
37.542
37.575
37.608
37.641
37.673
37.703
37.728
37.75
37.768
37.78
37.788
37.791
37.788
37.78
37.768
37.751
37.732
37.708
37.682
37.652
37.62
37.585
37.547
37.506
37.463
37.416
37.366
37.313
37.257
37.199
37.138
37.074
37.009
36.942
36.873
36.804
36.734
36.664
36.594
36.524
36.454
36.385
36.317
36.25
36.184
36.119
36.055
35.993
35.931
35.87
35.81
35.752
35.696
35.641
35.587
35.535
35.482
35.431
35.38
35.33
35.281
35.234
35.188
35.143
35.098
35.055
35.013
34.972
34.932
34.893
34.856
34.819
34.782
34.746
34.71
34.674
34.639
34.605
34.572
34.541
34.513
34.487
34.464
34.443
34.424
34.406
34.389
34.373
34.358
34.343
34.328
34.313
34.298
34.281
34.263
34.243
34.222
34.199
34.174
34.147
34.119
34.09
34.059
34.028
33.995
33.961
33.928
33.894
33.86
33.825
33.79
33.754
33.716
33.678
33.64
33.602
33.565
33.529
33.495
33.463
33.436
33.415
33.403
33.403
33.418
33.451
33.505
33.581
33.682
33.81
33.966
34.15
34.362
34.6
34.863
35.147
35.45
35.766
36.093
36.425
36.758
37.087
37.407
37.716
38.01
38.286
38.542
38.774
38.983
39.165
39.323
39.455
39.563
39.649
39.714
39.76
39.788
39.801
39.801
39.789
39.767
39.738
39.703
39.664
39.621
39.575
39.529
39.482
39.434
39.387
39.341
39.295
39.252
39.209
39.168
39.129
39.09
39.051
39.013
38.974
38.934
38.892
38.849
38.804
38.758
38.71
38.662
38.613
38.565
38.517
38.471
38.426
38.385
38.347
38.312
38.283
38.257
38.237
38.221
38.21
38.203
38.2
38.201
38.205
38.212
38.221
38.233
38.245
38.258
38.27
38.28
38.288
38.293
38.294
38.291
38.283
38.271
38.255
38.234
38.209
38.179
38.145
38.106
38.064
38.018
37.968
37.917
37.863
37.808
37.752
37.695
37.636
37.577
37.516
37.454
37.391
37.326
37.26
37.193
37.123
37.052
36.979
36.904
36.827
36.75
36.671
36.591
36.512
36.433
36.355
36.279
36.205
36.134
36.064
35.997
35.932
35.869
35.809
35.75
35.693
35.636
35.581
35.526
35.472
35.419
35.367
35.317
35.267
35.22
35.174
35.129
35.086
35.044
35.003
34.962
34.923
34.885
34.847
34.811
34.774
34.739
34.703
34.667
34.631
34.594
34.557
34.52
34.483
34.446
34.41
34.374
34.338
34.303
34.268
34.234
34.201
34.169
34.138
34.109
34.08
34.052
34.025
33.998
33.971
33.943
33.915
33.886
33.856
33.825
33.792
33.758
33.723
33.687
33.651
33.615
33.578
33.54
33.501
33.462
33.422
33.382
33.342
33.3
33.258
33.213
33.168
33.121
33.073
33.026
32.98
32.935
32.894
32.857
32.827
32.806
32.796
32.8
32.821
32.862
32.925
33.013
33.128
33.271
33.443
33.645
33.874
34.13
34.411
34.714
35.035
35.368
35.711
36.058
36.404
36.745
37.075
37.392
37.691
37.97
38.226
38.458
38.663
38.842
38.994
39.121
39.223
39.302
39.359
39.396
39.415
39.418
39.407
39.384
39.35
39.309
39.26
39.207
39.151
39.093
39.034
38.977
38.921
38.868
38.818
38.771
38.728
38.688
38.65
38.614
38.58
38.546
38.514
38.481
38.447
38.41
38.371
38.328
38.281
38.232
38.18
38.126
38.072
38.018
37.965
37.915
37.869
37.828
37.793
37.764
37.741
37.724
37.713
37.707
37.707
37.711
37.72
37.732
37.746
37.762
37.779
37.795
37.811
37.826
37.839
37.848
37.854
37.856
37.853
37.845
37.831
37.813
37.788
37.759
37.725
37.688
37.646
37.6
37.552
37.5
37.447
37.391
37.333
37.273
37.212
37.15
37.087
37.021
36.953
36.882
36.81
36.734
36.656
36.574
36.49
36.403
36.314
36.223
36.132
36.039
35.946
35.853
35.762
35.673
35.587
35.505
35.428
35.356
35.29
35.229
35.174
35.124
35.077
35.034
34.994
34.955
34.916
34.879
34.841
34.803
34.764
34.724
34.683
34.64
34.595
34.549
34.5
34.45
34.399
34.346
34.292
34.238
34.182
34.127
34.073
34.02
33.968
33.918
33.87
33.825
33.783
33.743
33.707
33.674
33.644
33.615
33.588
33.561
33.535
33.509
33.483
33.457
33.431
33.405
33.378
33.351
33.322
33.292
33.261
33.229
33.196
33.163
33.129
33.095
33.061
33.027
32.995
32.963
32.934
32.905
32.877
32.85
32.822
32.794
32.764
32.734
32.702
32.669
32.635
32.6
32.563
32.525
32.486
32.446
32.406
32.367
32.328
32.289
32.251
32.215
32.179
32.146
32.114
32.083
32.055
32.031
32.011
31.997
31.99
31.993
32.008
32.038
32.086
32.154
32.246
32.363
32.508
32.681
32.882
33.111
33.367
33.646
33.947
34.266
34.598
34.939
35.285
35.629
35.968
36.295
36.607
36.9
37.171
37.417
37.637
37.83
37.995
38.132
38.244
38.331
38.396
38.439
38.463
38.469
38.46
38.439
38.407
38.366
38.319
38.267
38.211
38.153
38.093
38.033
37.973
37.916
37.86
37.807
37.756
37.708
37.663
37.621
37.58
37.539
37.499
37.457
37.414
37.368
37.319
37.268
37.213
37.156
37.097
37.036
36.974
36.912
36.852
36.793
36.739
36.689
36.644
36.605
36.574
36.549
36.531
36.521
36.516
36.517
36.523
36.533
36.546
36.561
36.577
36.593
36.608
36.622
36.634
36.645
36.654
36.661
36.665
36.667
36.666
36.662
36.653
36.641
36.624
36.603
36.576
36.544
36.508
36.466
36.42
36.371
36.317
36.261
36.202
36.14
36.076
36.011
35.944
35.876
35.806
35.737
35.667
35.598
35.529
35.461
35.394
35.328
35.264
35.202
35.141
35.083
35.027
34.972
34.918
34.867
34.816
34.766
34.717
34.67
34.624
34.58
34.537
34.495
34.453
34.411
34.369
34.329
34.288
34.249
34.21
34.172
34.134
34.097
34.061
34.026
33.992
33.959
33.928
33.898
33.87
33.843
33.818
33.794
33.771
33.75
33.729
33.71
33.691
33.673
33.655
33.637
33.619
33.601
33.582
33.563
33.542
33.521
33.499
33.476
33.451
33.426
33.4
33.373
33.345
33.316
33.286
33.256
33.225
33.193
33.161
33.127
33.092
33.057
33.02
32.982
32.943
32.903
32.862
32.821
32.779
32.737
32.694
32.652
32.61
32.57
32.531
32.493
32.459
32.429
32.405
32.389
32.382
32.388
32.409
32.447
32.505
32.585
32.688
32.814
32.965
33.14
33.34
33.562
33.806
34.067
34.344
34.633
34.929
35.228
35.527
35.821
36.106
36.377
36.632
36.868
37.082
37.274
37.441
37.585
37.705
37.802
37.877
37.932
37.969
37.989
37.995
37.988
37.97
37.942
37.906
37.864
37.818
37.769
37.718
37.665
37.611
37.558
37.505
37.454
