Trial 1:0back
36.36
36.397
36.427
36.449
36.467
36.481
36.49
36.495
36.496
36.494
36.49
36.483
36.474
36.463
36.449
36.434
36.417
36.4
36.384
36.368
36.352
36.335
36.316
36.294
36.268
36.239
36.206
36.17
36.13
36.085
36.037
35.985
35.93
35.872
35.811
35.747
35.682
35.616
35.552
35.489
35.428
35.37
35.314
35.263
35.215
35.172
35.134
35.1
35.071
35.048
35.031
35.018
35.009
35.001
34.992
34.983
34.973
34.962
34.95
34.937
34.925
34.914
34.904
34.896
34.89
34.886
34.884
34.883
34.883
34.883
34.883
34.883
34.882
34.881
34.879
34.877
34.874
34.869
34.861
34.85
34.835
34.819
34.803
34.787
34.771
34.754
34.736
34.716
34.693
34.668
34.64
34.609
34.576
34.542
34.507
34.474
34.441
34.41
34.38
34.35
34.321
34.292
34.265
34.239
34.216
34.196
34.18
34.168
34.157
34.147
34.135
34.122
34.106
34.088
34.07
34.051
34.032
34.014
33.997
33.979
33.962
33.943
33.923
33.902
33.88
33.858
33.837
33.816
33.797
33.779
33.762
33.744
33.726
33.706
33.685
33.663
33.643
33.625
33.61
33.598
33.588
33.58
33.572
33.564
33.557
33.549
33.543
33.539
33.537
33.537
33.54
33.545
33.552
33.558
33.566
33.574
33.584
33.597
33.616
33.641
33.676
33.721
33.777
33.844
33.923
34.012
34.115
34.228
34.351
34.483
34.621
34.764
34.91
35.057
35.204
35.348
35.489
35.626
35.759
35.885
36.004
36.114
36.213
36.302
36.38
36.448
36.508
36.561
36.608
36.649
36.684
36.713
36.735
36.751
36.762
36.769
36.773
36.775
36.774
36.771
36.766
36.757
36.744
36.729
36.711
36.691
36.67
36.65
36.63
36.611
36.592
36.572
36.549
36.523
36.494
36.463
36.43
36.395
36.359
36.322
36.284
36.243
36.201
36.158
36.114
36.071
36.029
35.989
35.95
35.912
35.874
35.836
35.798
35.762
35.729
35.7
35.675
35.653
35.632
35.613
35.595
35.577
35.559
35.541
35.524
35.508
35.495
35.484
35.476
35.468
35.46
35.452
35.443
35.434
35.423
35.41
35.395
35.381
35.368
35.356
35.347
35.338
35.329
35.318
35.307
35.295
35.283
35.271
35.258
35.243
35.226
35.205
35.181
35.153
35.123
35.091
35.058
35.025
34.993
34.961
34.931
34.902
34.874
34.847
34.821
34.795
34.77
34.745
34.72
34.694
34.669
34.643
34.618
34.592
34.566
34.539
34.512
34.483
34.452
34.42
34.387
34.351
34.314
34.277
34.24
34.205
34.172
34.143
34.118
34.096
34.076
34.06
34.046
34.034
34.023
34.013
34.004
33.996
33.988
33.979
33.966
33.952
33.937
33.921
33.906
33.892
33.878
33.866
33.855
33.845
33.835
33.825
33.813
33.8
33.785
33.771
33.758
33.748
33.74
33.735
33.733
33.732
33.731
33.73
33.729
33.728
33.729
33.734
33.744
33.757
33.774
33.795
33.821
33.852
33.889
33.935
33.991
34.057
34.135
34.225
34.326
34.437
34.558
34.686
34.819
34.957
35.098
35.241
35.386
35.531
35.675
35.816
35.952
36.08
36.199
36.308
36.407
36.497
36.579
36.652
36.717
36.774
36.823
36.865
36.9
36.928
36.95
36.966
36.978
36.983
36.982
36.974
36.96
36.941
36.919
36.897
36.875
36.854
36.834
36.813
36.791
36.768
36.741
36.713
36.683
36.652
36.621
36.589
36.556
36.522
36.485
36.446
36.405
36.362
36.317
36.271
36.223
36.176
36.127
36.079
36.032
35.987
35.945
35.905
35.868
35.833
35.8
35.773
35.757
35.752
35.755
35.763
35.771
35.778
35.78
35.777
35.767
35.75
35.725
35.694
35.656
35.615
35.573
35.533
35.496
35.464
35.437
35.414
35.395
35.378
35.364
35.352
35.343
35.336
35.331
35.327
35.325
35.322
35.318
35.312
35.304
35.293
35.28
35.265
35.247
35.228
35.207
35.182
35.155
35.126
35.095
35.062
35.028
34.993
34.958
34.923
34.889
34.856
34.822
34.789
34.756
34.724
34.693
34.665
34.639
34.615
34.591
34.565
34.538
34.509
34.477
34.445
34.414
34.383
34.354
34.327
34.301
34.276
34.251
34.225
34.199
34.174
34.149
34.125
34.103
34.082
34.062
34.043
34.025
34.008
33.991
33.975
33.957
33.939
33.919
33.9
33.88
33.86
33.841
33.823
33.807
33.792
33.78
33.769
33.762
33.756
33.753
33.752
33.752
33.752
33.752
33.75
33.747
33.742
33.734
33.724
33.712
33.698
33.684
33.672
33.662
33.656
33.655
33.659
33.672
33.693
33.724
33.767
33.821
33.885
33.959
34.043
34.136
34.237
34.346
34.462
34.585
34.714
34.847
34.983
35.121
35.259
35.395
35.529
35.66
35.786
35.906
36.018
36.121
36.212
36.294
36.366
36.43
36.488
36.538
36.582
36.618
36.646
36.666
36.677
36.681
36.677
36.668
36.654
36.637
36.618
36.596
36.572
36.546
36.519
36.489
36.459
36.427
36.396
36.366
36.336
36.308
36.279
36.247
36.214
36.177
36.137
36.094
36.048
36.002
35.955
35.909
35.863
35.817
35.772
35.727
35.685
35.646
35.61
35.576
35.544
35.513
35.484
35.457
35.431
35.407
35.386
35.366
35.348
35.332
35.317
35.305
35.295
35.288
35.283
35.28
35.279
35.28
35.281
35.283
35.284
35.285
35.285
35.285
35.282
35.278
35.273
35.266
35.259
35.251
35.243
35.235
35.227
35.217
35.207
35.194
35.179
35.163
35.144
35.123
35.102
35.079
35.057
35.034
35.009
34.983
34.954
34.923
34.889
34.852
34.814
34.775
34.737
34.702
34.67
34.641
34.614
34.587
34.56
34.532
34.504
34.476
34.448
34.421
34.395
34.37
34.344
34.317
34.29
34.262
34.235
34.211
34.19
34.171
34.155
34.14
34.126
34.112
34.097
34.079
34.059
34.037
34.013
33.988
33.964
33.941
33.921
33.902
33.884
33.866
33.849
33.83
33.812
33.796
33.781
33.769
33.759
33.749
33.74
33.731
33.72
33.709
33.698
33.688
33.681
33.677
33.677
33.681
33.689
33.703
33.721
33.745
33.774
33.811
33.855
33.907
33.969
34.04
34.12
34.209
34.306
34.41
34.521
34.638
34.759
34.886
35.015
35.147
35.279
35.411
35.541
35.667
35.79
35.908
36.021
36.128
36.228
36.319
36.399
36.468
36.526
36.572
36.61
36.64
36.663
36.68
36.688
36.69
36.684
36.674
36.661
36.649
36.638
36.631
36.626
36.621
36.616
36.608
36.598
36.586
36.571
36.553
36.534
36.512
36.488
36.463
36.434
36.401
36.367
36.33
36.292
36.254
36.216
36.176
36.133
36.088
36.041
35.993
35.943
35.895
35.848
35.804
35.765
35.731
35.701
35.675
35.649
35.624
35.599
35.574
35.551
35.529
35.509
35.49
35.47
35.45
35.429
35.408
35.386
35.365
35.345
35.325
35.307
35.291
35.276
35.261
35.246
35.232
35.216
35.199
35.18
35.158
35.134
35.105
35.073
35.039
35.002
34.963
34.922
34.88
34.836
34.791
34.746
34.703
34.66
34.62
34.582
34.546
34.515
34.487
34.462
34.441
34.423
34.407
34.391
34.377
34.363
34.349
34.338
34.328
34.319
34.312
34.307
34.303
34.299
34.295
34.292
34.289
34.285
34.281
34.276
34.268
34.257
34.243
34.224
34.201
34.176
34.148
34.117
34.085
34.052
34.02
33.991
33.963
33.939
33.916
33.895
33.877
33.861
33.849
33.84
33.835
33.835
33.837
33.842
33.847
33.851
33.855
33.856
33.856
33.854
33.852
33.847
33.842
33.835
33.827
33.818
33.81
33.801
33.793
33.786
33.78
33.776
33.774
33.773
33.775
33.779
33.786
33.796
33.811
33.831
33.858
33.895
33.942
34.0
34.07
34.15
34.24
34.339
34.447
34.563
34.687
34.817
34.953
35.094
35.238
35.386
35.534
35.682
35.829
35.972
36.111
36.243
36.365
36.478
36.582
36.675
36.76
36.835
36.9
36.954
36.998
37.033
37.061
37.084
37.102
37.117
37.128
37.135
37.138
37.137
37.132
37.123
37.111
37.098
37.081
37.062
37.04
37.015
36.986
36.952
36.916
36.877
36.837
36.797
36.758
36.718
36.679
36.639
36.597
36.555
36.51
36.464
36.417
36.369
36.32
36.273
36.226
36.181
36.137
36.097
36.058
36.022
35.988
35.957
35.929
35.904
35.88
35.858
35.835
35.813
35.792
35.771
35.751
35.731
35.713
35.695
35.679
35.664
35.651
35.641
35.634
35.631
35.631
35.633
35.636
35.638
35.639
35.638
35.635
35.63
35.622
35.612
35.601
35.586
35.567
35.544
35.517
35.488
35.456
35.425
35.393
35.359
35.318
35.269
35.213
35.153
35.093
35.034
34.98
34.93
34.888
34.853
34.825
34.806
34.792
34.784
34.779
34.778
34.778
34.78
34.783
34.786
34.786
34.784
34.778
34.768
34.753
34.734
34.71
34.684
34.657
34.631
34.604
34.577
34.547
34.517
34.485
34.454
34.423
34.394
34.367
34.342
34.321
34.302
34.285
34.269
34.251
34.231
34.21
34.188
34.168
34.148
34.131
34.116
34.104
34.094
34.085
34.076
34.066
34.055
34.044
34.034
34.026
34.02
34.015
34.008
33.999
33.987
33.973
33.956
33.939
33.922
33.908
33.898
33.893
33.895
33.903
33.916
33.935
33.961
33.994
34.036
34.088
34.151
34.226
34.314
34.414
34.524
34.642
34.766
34.893
35.022
35.155
35.291
35.432
35.576
35.724
35.871
36.017
36.159
36.298
36.433
36.565
36.691
36.81
36.92
37.02
37.108
37.185
37.252
37.309
37.356
37.394
37.421
37.437
37.442
37.436
37.423
37.403
37.38
37.354
37.326
37.299
37.271
37.243
37.215
37.186
37.156
37.125
37.092
37.056
37.017
36.975
36.93
36.885
36.839
36.793
36.748
36.703
36.657
36.61
36.561
36.511
36.458
36.406
36.353
36.302
36.253
36.207
36.163
36.121
36.082
36.043
36.005
35.969
35.933
35.9
35.869
35.842
35.819
35.798
35.779
35.763
35.75
35.737
35.726
35.716
35.706
35.696
35.687
35.677
35.667
35.656
35.645
35.634
35.624
35.615
35.606
35.596
35.585
35.571
35.556
35.541
35.526
35.512
35.499
35.487
35.473
35.458
35.44
35.418
35.393
35.367
35.339
35.311
35.283
35.255
35.228
35.201
35.173
35.144
35.114
35.083
35.05
35.016
34.983
34.952
34.922
34.895
34.869
34.844
34.818
34.792
34.765
34.737
34.709
34.682
34.656
34.631
34.607
34.584
34.56
34.536
34.513
34.491
34.471
34.452
34.434
34.416
34.398
34.381
34.364
34.348
34.331
34.314
34.296
34.277
34.258
34.239
34.221
34.204
34.188
34.172
34.157
34.142
34.126
34.11
34.094
34.079
34.066
34.054
34.045
34.037
34.03
34.024
34.018
34.013
34.008
34.002
33.997
33.991
33.983
33.972
33.958
33.941
33.923
33.909
33.901
33.901
33.912
33.938
33.979
34.037
34.11
34.2
34.304
34.422
34.554
34.696
34.847
35.006
35.168
35.334
35.501
35.669
35.836
36.0
36.161
36.318
36.469
36.612
36.746
36.87
36.983
37.084
37.174
37.255
37.326
37.388
37.44
37.481
37.51
37.528
37.534
37.531
37.521
37.504
37.482
37.456
37.426
37.394
37.362
37.33
37.299
37.269
37.24
37.21
37.18
37.149
37.115
37.08
37.043
37.005
36.966
36.925
36.885
36.844
36.802
36.759
36.714
36.669
36.623
36.576
36.53
36.483
36.435
36.387
36.339
36.292
36.247
36.204
36.163
36.124
36.087
36.053
36.021
35.992
35.966
35.945
35.928
35.915
35.904
35.896
35.89
35.885
35.881
35.878
35.876
35.876
35.877
35.88
35.885
35.891
35.898
35.904
35.909
35.913
35.914
35.913
35.908
35.901
35.889
35.874
35.855
35.832
35.806
35.78
35.754
35.73
35.708
35.687
35.666
35.645
35.622
35.597
35.571
35.545
35.519
35.493
35.467
35.44
35.411
35.382
35.351
35.319
35.287
35.256
35.226
35.196
35.167
35.138
35.11
35.081
35.051
35.02
34.988
34.957
34.927
34.899
34.873
34.849
34.826
34.804
34.782
34.759
34.734
34.709
34.684
34.66
34.638
34.618
34.598
34.579
34.559
34.539
34.519
34.501
34.485
34.471
34.457
34.443
34.429
34.413
34.397
34.382
34.367
34.353
34.342
34.334
34.33
34.331
34.337
34.348
34.365
34.388
34.416
34.45
34.49
34.536
34.589
34.649
34.717
34.793
34.879
34.976
35.086
35.208
35.343
35.489
35.644
35.805
35.969
36.135
36.301
36.466
36.629
36.79
36.948
37.1
37.243
37.376
37.498
37.607
37.704
37.788
37.859
37.916
37.959
37.989
38.005
38.01
38.006
37.996
37.98
37.959
37.935
37.907
37.874
37.837
37.797
37.755
37.714
37.674
37.636
37.599
37.562
37.524
37.486
37.446
37.406
37.365
37.322
37.277
37.229
37.178
37.124
37.067
37.007
36.947
36.887
36.828
36.772
36.718
36.667
36.618
36.571
36.529
36.491
36.457
36.428
36.404
36.383
36.365
36.35
36.338
36.329
36.316
36.297
36.273
36.246
36.219
36.193
36.173
36.159
36.153
36.154
36.162
36.178
36.2
36.225
36.25
36.274
36.297
36.316
36.332
36.344
36.353
36.358
36.36
36.356
36.348
36.334
36.316
36.293
36.267
36.238
36.209
36.18
36.152
36.125
36.097
36.067
36.035
36.002
35.97
35.938
35.908
35.878
35.848
35.816
35.784
35.749
35.712
35.674
35.633
35.591
35.547
35.501
35.454
35.405
35.356
35.305
35.254
35.203
35.153
35.103
35.055
35.008
34.961
34.915
34.868
34.822
34.777
34.733
34.69
34.649
34.612
34.579
34.55
34.523
34.498
34.472
34.444
34.417
34.389
34.363
34.338
34.315
34.293
34.274
34.257
34.242
34.228
34.207
34.18
34.148
34.116
34.09
34.073
34.069
34.082
34.113
34.166
34.241
34.338
34.455
34.593
34.75
34.924
35.112
35.311
35.519
35.731
35.946
36.159
36.371
36.578
36.78
36.976
37.163
37.34
37.505
37.659
37.801
37.932
38.053
38.164
38.262
38.349
38.421
38.48
38.525
38.558
38.579
38.589
38.59
38.582
38.567
38.546
38.52
38.492
38.462
38.43
38.398
38.364
38.33
38.294
38.257
38.22
38.183
38.146
38.109
38.071
38.03
37.987
37.94
37.891
37.84
37.786
37.731
37.675
37.617
37.558
37.496
37.433
37.37
37.308
37.247
37.187
37.129
37.073
37.017
36.963
36.911
36.863
36.819
36.781
36.748
36.721
36.698
36.677
36.659
36.643
36.629
36.616
36.604
36.591
36.577
36.563
36.547
36.532
36.519
36.507
36.497
36.49
36.483
36.477
36.47
36.464
36.456
36.446
36.434
36.417
36.398
36.375
36.348
36.318
36.285
36.249
36.21
36.168
36.124
36.077
36.029
35.979
35.93
35.882
35.835
35.789
35.745
35.703
35.662
35.622
35.582
35.542
35.503
35.464
35.425
35.385
35.343
35.302
35.26
35.218
35.177
35.137
35.096
35.056
35.015
34.976
34.937
34.899
34.864
34.831
34.8
34.772
34.747
34.723
34.701
34.679
34.658
34.636
34.615
34.594
34.573
34.553
34.534
34.516
34.497
34.478
34.457
34.434
34.409
34.383
34.357
34.332
34.31
34.291
34.274
34.258
34.242
34.225
34.209
34.194
34.183
34.177
34.179
34.19
34.213
34.25
34.302
34.368
34.448
34.543
34.653
34.778
34.919
35.075
35.244
35.425
35.617
35.818
36.026
36.238
36.451
36.665
36.878
37.087
37.291
37.487
37.675
37.85
38.01
38.156
38.287
38.405
38.511
38.603
38.683
38.748
38.799
38.835
38.859
38.87
38.87
38.861
38.844
38.822
38.794
38.763
38.73
38.697
38.664
38.63
38.595
38.558
38.521
38.484
38.447
38.41
38.373
38.335
38.297
38.257
38.216
38.173
38.129
38.082
38.033
37.979
37.921
37.858
37.791
37.721
37.648
37.573
37.497
37.42
37.345
37.272
37.201
37.133
37.066
37.002
36.94
36.883
36.829
36.78
36.734
36.691
36.654
36.621
36.595
36.574
36.56
36.55
36.542
36.536
36.529
36.522
36.515
36.507
36.498
36.489
36.48
36.47
36.459
36.447
36.431
36.412
36.39
36.365
36.335
36.302
36.265
36.226
36.184
36.141
36.095
36.047
35.998
35.948
35.897
35.846
35.797
35.748
35.701
35.655
35.61
35.567
35.523
35.479
35.435
35.391
35.347
35.302
35.256
35.209
35.16
35.111
35.062
35.014
34.968
34.925
34.884
34.845
34.807
34.769
34.731
34.694
34.657
34.62
34.585
34.551
34.52
34.492
34.465
34.441
34.417
34.395
34.373
34.352
34.331
34.312
34.295
34.279
34.265
34.251
34.237
34.222
34.205
34.186
34.165
34.142
34.118
34.093
34.068
34.044
34.02
33.996
33.974
33.953
33.935
33.92
33.909
33.902
33.897
33.894
33.893
33.893
33.895
33.898
33.902
33.909
33.92
33.936
33.959
33.992
34.034
34.088
34.155
34.235
34.331
34.443
34.571
34.716
34.879
35.057
35.249
35.452
35.664
35.881
36.102
36.325
36.547
36.766
36.979
37.183
37.375
37.553
37.718
37.869
38.007
38.132
38.246
38.347
38.435
38.511
38.575
38.626
38.667
38.697
38.717
38.729
38.732
38.727
38.714
38.695
38.671
38.644
38.615
38.583
38.551
38.517
38.482
38.447
38.411
38.375
38.338
38.302
38.264
38.225
38.184
38.141
38.096
38.048
37.998
37.942
37.875
37.798
37.712
37.62
37.522
37.424
37.327
37.233
37.145
37.062
36.985
36.914
36.849
36.791
36.742
36.701
36.669
36.643
36.621
36.603
36.586
36.571
36.556
36.542
36.529
36.517
36.505
36.494
36.484
36.473
36.461
36.446
36.429
36.408
36.387
36.365
36.344
36.324
36.303
36.281
36.257
36.231
36.203
36.174
36.144
36.114
36.084
36.053
36.022
35.989
35.953
35.914
35.871
35.827
35.782
35.739
35.697
35.655
35.612
35.568
35.523
35.477
35.431
35.385
35.34
35.296
35.251
35.207
35.163
35.117
35.071
35.024
34.978
34.933
34.89
34.849
34.81
34.771
34.732
34.692
34.65
34.606
34.561
34.515
34.47
34.426
34.385
34.348
34.314
34.282
34.251
34.22
34.189
34.159
34.13
34.104
34.08
34.059
34.04
34.023
34.007
33.993
33.979
33.966
33.955
33.946
33.94
33.936
33.934
33.932
33.931
33.929
33.925
33.917
33.906
33.891
33.873
33.853
33.832
33.809
33.784
33.756
33.726
33.692
33.657
33.623
33.59
33.561
33.537
33.52
33.509
33.504
33.504
33.508
33.518
33.533
33.556
33.587
33.63
33.685
33.754
33.84
33.943
34.064
34.203
34.359
34.532
34.721
34.924
35.138
35.363
35.594
35.832
36.071
36.31
36.546
36.776
36.998
37.21
37.41
37.596
37.766
37.919
38.055
38.174
38.277
38.365
38.441
38.506
38.56
38.603
38.635
38.657
38.669
38.673
38.668
38.657
38.64
38.617
38.589
38.558
38.524
38.488
38.451
38.413
38.373
38.332
38.29
38.246
38.2
38.151
38.101
38.05
37.997
37.944
37.889
37.832
37.773
37.711
37.646
37.578
37.508
37.435
37.361
37.288
37.214
37.143
37.072
37.003
36.936
36.874
36.815
36.76
36.711
36.666
36.625
36.587
36.553
36.522
36.493
36.467
36.444
36.422
36.403
36.385
36.369
36.353
36.337
36.321
36.304
36.286
36.269
36.252
36.236
36.221
36.206
36.191
36.175
36.157
36.138
36.117
36.097
36.075
36.054
36.032
36.01
35.988
35.967
35.947
35.927
35.908
35.887
35.864
35.837
35.806
35.77
35.729
35.684
35.636
35.586
35.537
35.487
35.438
35.387
35.337
35.287
35.237
35.188
35.14
35.093
35.045
34.998
34.953
34.909
34.868
34.829
34.792
34.756
34.722
34.691
34.661
34.632
34.604
34.576
34.549
34.521
34.493
34.464
34.434
34.405
34.375
34.346
34.317
34.288
34.258
34.228
34.197
34.167
34.138
34.111
34.084
34.058
34.032
34.006
33.98
33.954
33.926
33.898
33.87
33.842
33.815
33.788
33.762
33.737
33.713
33.689
33.666
33.644
33.623
33.604
33.587
33.573
33.562
33.554
33.549
33.546
33.546
33.551
33.562
33.581
33.611
33.654
33.71
33.782
33.871
33.976
34.099
34.238
34.392
34.562
34.746
34.944
35.153
35.371
35.596
35.823
36.051
36.277
36.498
36.713
36.919
37.116
37.301
37.474
37.633
37.777
37.907
38.02
38.117
38.198
38.262
38.312
38.348
38.372
38.383
38.384
38.375
38.359
38.334
38.304
38.267
38.226
38.179
38.128
38.074
38.017
37.959
37.901
37.843
37.785
37.728
37.672
37.614
37.556
37.496
37.434
37.371
37.306
37.239
37.168
37.094
37.017
36.937
36.857
36.776
36.697
36.62
36.544
36.47
36.398
36.327
36.26
36.196
36.137
36.083
36.034
35.99
35.949
35.912
35.878
35.846
35.817
35.793
35.774
35.758
35.745
35.733
35.723
35.713
35.705
35.698
35.693
35.689
35.685
35.682
35.676
35.669
35.658
35.643
35.626
35.606
35.583
35.559
35.534
35.51
35.485
35.46
35.436
35.41
35.382
35.35
35.315
35.277
35.236
35.192
35.146
35.096
35.043
34.986
34.928
34.867
34.807
34.748
34.69
34.633
34.578
34.524
34.472
34.422
34.375
34.331
34.289
34.249
34.211
34.175
34.14
34.105
34.07
34.034
33.998
33.961
33.924
33.886
33.849
33.814
33.779
33.747
33.715
33.684
33.654
33.624
33.595
33.569
33.545
33.524
33.505
33.488
