Trial 1:0back
35.221
35.213
35.205
35.194
35.182
35.168
35.151
35.133
35.115
35.096
35.078
35.059
35.041
35.024
35.007
34.991
34.978
34.967
34.958
34.95
34.943
34.939
34.936
34.934
34.932
34.93
34.928
34.927
34.927
34.929
34.932
34.936
34.942
34.949
34.958
34.965
34.972
34.977
34.978
34.976
34.971
34.963
34.953
34.942
34.93
34.918
34.908
34.901
34.895
34.893
34.892
34.895
34.899
34.904
34.908
34.911
34.914
34.914
34.912
34.907
34.899
34.887
34.873
34.857
34.839
34.821
34.804
34.789
34.776
34.766
34.759
34.754
34.752
34.752
34.754
34.756
34.757
34.756
34.752
34.745
34.735
34.724
34.712
34.7
34.689
34.68
34.675
34.673
34.675
34.682
34.692
34.706
34.721
34.737
34.754
34.772
34.791
34.812
34.834
34.86
34.891
34.927
34.968
35.016
35.069
35.126
35.187
35.25
35.315
35.38
35.442
35.5
35.552
35.598
35.637
35.669
35.694
35.71
35.719
35.72
35.717
35.71
35.701
35.692
35.683
35.674
35.664
35.655
35.646
35.639
35.632
35.626
35.621
35.617
35.614
35.612
35.612
35.612
35.613
35.615
35.617
35.619
35.621
35.624
35.626
35.626
35.624
35.62
35.614
35.606
35.596
35.585
35.573
35.56
35.548
35.537
35.526
35.514
35.503
35.491
35.479
35.467
35.454
35.439
35.423
35.405
35.387
35.369
35.351
35.335
35.32
35.309
35.302
35.3
35.3
35.303
35.307
35.312
35.318
35.325
35.334
35.344
35.356
35.367
35.379
35.388
35.395
35.398
35.399
35.396
35.391
35.385
35.377
35.367
35.357
35.347
35.338
35.329
35.32
35.312
35.304
35.295
35.284
35.271
35.257
35.242
35.227
35.212
35.198
35.186
35.175
35.167
35.16
35.154
35.148
35.144
35.139
35.135
35.13
35.125
35.12
35.114
35.108
35.102
35.094
35.087
35.079
35.072
35.067
35.062
35.059
35.058
35.057
35.055
35.052
35.048
35.042
35.036
35.027
35.017
35.006
34.993
34.98
34.968
34.959
34.952
34.949
34.95
34.955
34.962
34.97
34.979
34.988
34.995
35.0
35.004
35.004
35.002
34.996
34.989
34.98
34.971
34.963
34.957
34.953
34.951
34.95
34.951
34.953
34.956
34.957
34.957
34.953
34.947
34.939
34.928
34.916
34.9
34.883
34.864
34.844
34.825
34.808
34.794
34.781
34.771
34.764
34.758
34.755
34.755
34.757
34.762
34.769
34.775
34.781
34.786
34.789
34.789
34.788
34.786
34.785
34.787
34.792
34.801
34.817
34.841
34.872
34.912
34.959
35.015
35.076
35.144
35.215
35.288
35.361
35.431
35.497
35.556
35.609
35.656
35.696
35.731
35.76
35.783
35.801
35.815
35.825
35.834
35.84
35.846
35.852
35.858
35.864
35.87
35.873
35.875
35.875
35.872
35.867
35.86
35.853
35.844
35.835
35.825
35.813
35.8
35.787
35.774
35.761
35.749
35.737
35.725
35.712
35.7
35.687
35.674
35.662
35.651
35.64
35.63
35.621
35.612
35.604
35.596
35.587
35.577
35.567
35.557
35.547
35.536
35.526
35.515
35.503
35.49
35.477
35.464
35.453
35.443
35.437
35.433
35.432
35.433
35.435
35.439
35.443
35.447
35.452
35.457
35.461
35.466
35.469
35.472
35.474
35.476
35.476
35.476
35.474
35.472
35.467
35.459
35.447
35.432
35.413
35.392
35.369
35.344
35.319
35.294
35.27
35.248
35.225
35.197
35.164
35.126
35.086
35.049
35.017
34.992
34.975
34.968
34.971
34.983
35.002
35.026
35.054
35.083
35.114
35.144
35.171
35.195
35.212
35.223
35.227
35.225
35.218
35.207
35.193
35.175
35.155
35.133
35.111
35.088
35.066
35.047
35.032
35.021
35.016
35.015
35.02
35.029
35.043
35.06
35.081
35.102
35.124
35.143
35.16
35.173
35.182
35.187
35.19
35.191
35.192
35.193
35.195
35.198
35.202
35.208
35.216
35.225
35.234
35.245
35.256
35.266
35.276
35.283
35.287
35.288
35.284
35.277
35.266
35.252
35.236
35.218
35.198
35.176
35.153
35.13
35.107
35.084
35.062
35.042
35.023
35.007
34.992
34.979
34.968
34.961
34.957
34.957
34.961
34.969
34.978
34.986
34.993
34.997
34.999
34.999
34.997
34.995
34.995
34.999
35.008
35.024
35.047
35.079
35.119
35.168
35.224
35.287
35.355
35.424
35.494
35.562
35.625
35.683
35.732
35.773
35.806
35.83
35.846
35.853
35.853
35.846
35.832
35.814
35.792
35.768
35.742
35.716
35.692
35.672
35.655
35.642
35.635
35.632
35.632
35.637
35.644
35.652
35.662
35.671
35.681
35.691
35.699
35.706
35.711
35.713
35.713
35.711
35.707
35.699
35.688
35.674
35.657
35.639
35.62
35.599
35.578
35.556
35.533
35.511
35.49
35.471
35.455
35.44
35.432
35.433
35.443
35.46
35.481
35.505
35.527
35.547
35.564
35.576
35.584
35.588
35.587
35.582
35.573
35.561
35.547
35.533
35.518
35.505
35.493
35.484
35.477
35.472
35.47
35.468
35.466
35.463
35.46
35.455
35.45
35.442
35.433
35.422
35.411
35.398
35.384
35.369
35.355
35.339
35.324
35.307
35.29
35.271
35.251
35.232
35.215
35.199
35.186
35.175
35.167
35.161
35.156
35.152
35.148
35.146
35.142
35.137
35.13
35.122
35.113
35.103
35.094
35.087
35.081
35.076
35.072
35.07
35.07
35.07
35.071
35.072
35.072
35.071
35.069
35.065
35.06
35.051
35.041
35.029
35.016
35.003
34.992
34.983
34.977
34.973
34.972
34.974
34.98
34.986
34.994
35.002
35.01
35.016
35.02
35.021
35.02
35.017
35.012
35.008
35.005
35.005
35.007
35.013
35.023
35.034
35.046
35.058
35.067
35.072
35.074
35.073
35.068
35.06
35.049
35.034
35.017
34.999
34.979
34.96
34.942
34.924
34.908
34.892
34.878
34.865
34.855
34.846
34.838
34.829
34.82
34.81
34.8
34.791
34.783
34.777
34.772
34.768
34.767
34.771
34.778
34.792
34.813
34.842
34.879
34.924
34.979
35.041
35.11
35.184
35.261
35.339
35.416
35.49
35.56
35.623
35.681
35.731
35.775
35.812
35.843
35.868
35.887
35.9
35.909
35.913
35.913
35.911
35.906
35.9
35.891
35.882
35.872
35.862
35.851
35.841
35.832
35.824
35.816
35.81
35.804
35.797
35.791
35.784
35.777
35.771
35.764
35.757
35.751
35.746
35.741
35.738
35.735
35.733
35.73
35.728
35.724
35.718
35.707
35.691
35.671
35.646
35.618
35.586
35.554
35.522
35.492
35.464
35.44
35.419
35.402
35.389
35.38
35.376
35.376
35.378
35.382
35.386
35.391
35.397
35.402
35.408
35.413
35.418
35.424
35.43
35.436
35.441
35.445
35.448
35.45
35.453
35.456
35.459
35.462
35.464
35.465
35.463
35.46
35.456
35.451
35.444
35.435
35.425
35.413
35.399
35.383
35.365
35.348
35.33
35.312
35.295
35.279
35.265
35.254
35.246
35.24
35.237
35.237
35.238
35.239
35.24
35.238
35.234
35.227
35.218
35.207
35.195
35.183
35.171
35.16
35.151
35.142
35.134
35.126
35.118
35.11
35.101
35.093
35.084
35.075
35.066
35.058
35.051
35.046
35.044
35.043
35.046
35.05
35.055
35.06
35.066
35.072
35.075
35.076
35.074
35.07
35.064
35.058
35.05
35.04
35.028
35.016
35.003
34.991
34.981
34.972
34.964
34.958
34.953
34.948
34.944
34.94
34.936
34.933
34.929
34.925
34.92
34.915
34.908
34.9
34.891
34.881
34.871
34.859
34.848
34.836
34.825
34.816
34.807
34.799
34.791
34.785
34.779
34.775
34.773
34.773
34.775
34.778
34.784
34.792
34.804
34.819
34.839
34.864
34.895
34.933
34.977
35.028
35.084
35.145
35.208
35.273
35.338
35.402
35.463
35.52
35.573
35.621
35.662
35.698
35.729
35.756
35.778
35.798
35.814
35.827
35.836
35.843
35.847
35.85
35.85
35.849
35.845
35.838
35.83
35.819
35.806
35.793
35.779
35.767
35.756
35.746
35.74
35.735
35.731
35.726
35.719
35.71
35.699
35.685
35.67
35.652
35.633
35.612
35.591
35.569
35.547
35.527
35.508
35.492
35.479
35.469
35.462
35.457
35.452
35.447
35.441
35.434
35.426
35.418
35.41
35.405
35.401
35.4
35.401
35.402
35.406
35.41
35.415
35.419
35.424
35.427
35.43
35.434
35.439
35.445
35.452
35.46
35.466
35.471
35.473
35.472
35.469
35.462
35.454
35.443
35.43
35.416
35.401
35.385
35.369
35.354
35.338
35.323
35.307
35.291
35.277
35.265
35.256
35.248
35.243
35.239
35.235
35.231
35.226
35.221
35.213
35.205
35.197
35.188
35.179
35.168
35.156
35.142
35.127
35.112
35.097
35.084
35.072
35.062
35.053
35.044
35.036
35.027
35.018
35.01
35.004
34.999
34.996
34.994
34.993
34.993
34.995
34.999
35.004
35.01
35.016
35.021
35.025
35.027
35.028
35.027
35.024
35.02
35.015
35.011
35.008
35.006
35.006
35.007
35.007
35.009
35.011
35.013
35.014
35.013
35.011
35.005
34.997
34.986
34.973
34.958
34.944
34.93
34.918
34.908
34.901
34.896
34.893
34.893
34.894
34.897
34.901
34.906
34.911
34.914
34.915
34.913
34.909
34.903
34.895
34.885
34.877
34.871
34.867
34.867
34.87
34.878
34.891
34.91
34.935
34.965
35.001
35.042
35.086
35.134
35.184
35.236
35.291
35.347
35.403
35.462
35.523
35.587
35.652
35.716
35.776
35.83
35.875
35.912
35.939
35.957
35.966
35.966
35.956
35.939
35.917
35.891
35.862
35.834
35.807
35.783
35.763
35.749
35.739
35.735
35.736
35.74
35.748
35.759
35.771
35.783
35.794
35.803
35.809
35.813
35.813
35.81
35.805
35.799
35.79
35.78
35.768
35.754
35.739
35.726
35.718
35.717
35.719
35.725
35.73
35.735
35.737
35.734
35.727
35.714
35.696
35.674
35.651
35.627
35.606
35.587
35.571
35.56
35.553
35.551
35.552
35.556
35.561
35.568
35.575
35.581
35.587
35.591
35.593
35.594
35.593
35.59
35.586
35.581
35.574
35.566
35.558
35.549
35.539
35.528
35.516
35.506
35.496
35.488
35.482
35.477
35.472
35.466
35.459
35.451
35.441
35.429
35.415
35.399
35.38
35.359
35.337
35.313
35.288
35.264
35.239
35.215
35.193
35.172
35.154
35.14
35.131
35.127
35.127
35.132
35.14
35.151
35.165
35.178
35.191
35.201
35.208
35.211
35.211
35.208
35.203
35.195
35.184
35.171
35.157
35.142
35.128
35.116
35.105
35.097
35.091
35.088
35.087
35.086
35.086
35.087
35.087
35.088
35.089
35.088
35.087
35.084
35.08
35.075
35.07
35.064
35.057
35.051
35.044
35.038
35.033
35.026
35.017
35.006
34.993
34.979
34.966
34.951
34.936
34.921
34.906
34.892
34.881
34.871
34.865
34.86
34.857
34.854
34.852
34.848
34.843
34.836
34.827
34.818
34.811
34.806
34.806
34.811
34.823
34.842
34.87
34.905
34.949
35.001
35.059
35.122
35.189
35.258
35.327
35.395
35.461
35.524
35.584
35.64
35.692
35.74
35.786
35.828
35.867
35.901
35.93
35.955
35.975
35.99
36.002
36.008
36.011
36.009
36.004
35.995
35.984
35.971
35.956
35.94
35.923
35.905
35.887
35.87
35.853
35.838
35.825
35.815
35.808
35.804
35.802
35.804
35.808
35.812
35.817
35.822
35.825
35.827
35.826
35.821
35.813
35.801
35.785
35.766
35.745
35.722
35.699
35.677
35.658
35.642
35.63
35.62
35.614
35.61
35.607
35.606
35.605
35.604
35.603
35.601
35.599
35.597
35.595
35.594
35.592
35.591
35.589
35.588
35.588
35.587
35.588
35.588
35.588
35.587
35.586
35.584
35.58
35.574
35.566
35.557
35.547
35.536
35.526
35.515
35.505
35.495
35.486
35.478
35.47
35.461
35.451
35.44
35.426
35.41
35.391
35.371
35.348
35.325
35.302
35.279
35.258
35.239
35.224
35.213
35.207
35.204
35.203
35.204
35.204
35.204
35.202
35.2
35.196
35.192
35.186
35.18
35.175
35.17
35.168
35.167
35.169
35.174
35.181
35.191
35.202
35.213
35.223
35.231
35.236
35.238
35.236
35.23
35.22
35.206
35.191
35.172
35.152
35.131
35.109
35.089
35.07
35.054
35.041
35.032
35.025
35.02
35.018
35.018
35.02
35.022
35.024
35.025
35.027
35.027
35.026
35.025
35.022
35.019
35.015
35.011
35.008
35.006
35.004
35.004
35.004
35.004
35.004
35.004
35.004
35.006
35.008
35.013
35.022
35.035
35.055
35.08
35.112
35.151
35.197
35.248
35.304
35.363
35.425
35.487
35.549
35.608
35.665
35.718
35.766
35.81
35.847
35.878
35.903
35.92
35.931
35.936
35.937
35.934
35.929
35.922
35.914
35.906
35.898
35.89
35.882
35.875
35.867
35.858
35.848
35.837
35.824
35.812
35.8
35.788
35.778
35.769
35.761
35.755
35.75
35.747
35.743
35.738
35.732
35.723
35.712
35.699
35.683
35.664
35.642
35.619
35.596
35.573
35.552
35.533
35.517
35.505
35.497
35.493
35.491
35.492
35.495
35.499
35.503
35.507
35.51
35.512
35.514
35.516
35.519
35.523
35.526
35.528
35.53
35.531
35.531
35.53
35.529
35.526
35.524
35.521
35.519
35.517
35.515
35.513
35.511
35.508
35.505
35.503
35.499
35.494
35.487
35.478
35.463
35.444
35.421
35.397
35.374
35.352
35.332
35.316
35.303
35.292
35.285
35.281
35.28
35.279
35.277
35.273
35.265
35.254
35.24
35.224
35.207
35.191
35.175
35.161
35.151
35.144
35.141
35.142
35.145
35.15
35.156
35.162
35.167
35.172
35.176
35.176
35.173
35.168
35.16
35.151
35.141
35.131
35.12
35.111
35.102
35.095
35.089
35.084
35.079
35.073
35.065
35.055
35.043
35.032
35.02
35.008
34.997
34.987
34.978
34.971
34.966
34.964
34.963
34.963
34.964
34.966
34.966
34.967
34.969
34.97
34.97
34.969
34.966
34.963
34.959
34.955
34.95
34.945
34.942
34.939
34.936
34.934
34.931
34.927
34.924
34.921
34.919
34.916
34.915
34.916
34.921
34.931
34.947
34.97
35.0
35.037
35.082
35.132
35.189
35.249
35.311
35.374
35.436
35.497
35.558
35.616
35.67
35.719
35.763
35.801
35.832
35.858
35.877
35.89
35.898
35.902
35.901
35.898
35.892
35.885
35.876
35.866
35.854
35.841
35.827
35.812
35.798
35.785
35.771
35.757
35.744
35.731
35.719
35.708
35.699
35.691
35.685
35.681
35.678
35.676
35.675
35.674
35.672
35.67
35.668
35.663
35.658
35.65
35.64
35.628
35.614
35.598
35.582
35.566
35.55
35.536
35.523
35.513
35.504
35.499
35.495
35.493
35.493
35.493
35.493
35.492
35.49
35.486
35.481
35.474
35.467
35.459
35.454
35.451
35.451
35.454
35.459
35.465
35.471
35.475
35.478
35.478
35.476
35.471
35.464
35.455
35.444
35.432
35.421
35.41
35.4
35.391
35.384
35.379
35.374
35.369
35.363
35.356
35.347
35.337
35.327
35.316
35.305
35.293
35.281
35.27
35.258
35.245
35.233
35.222
35.212
35.203
35.197
35.191
35.186
35.181
35.175
35.167
35.156
35.142
35.125
35.106
35.086
35.067
35.049
35.034
35.024
35.019
35.021
35.027
35.038
35.051
35.066
35.082
35.097
35.111
35.124
35.135
35.142
35.145
35.145
35.141
35.134
35.124
35.112
35.099
35.086
35.073
35.062
35.052
35.043
35.035
35.027
35.019
35.01
35.001
34.991
34.98
34.966
34.95
34.932
34.914
34.896
34.881
34.869
34.86
34.856
34.856
34.86
34.866
34.874
34.882
34.891
34.898
34.904
34.908
34.909
34.909
34.909
34.908
34.907
34.907
34.906
34.906
34.905
34.904
34.902
34.9
34.896
34.891
34.885
34.878
34.872
34.867
34.864
34.866
34.872
34.884
34.904
34.931
34.968
35.013
35.066
35.127
35.193
35.262
35.333
35.402
35.469
35.532
35.59
35.642
35.687
35.726
35.758
35.783
35.801
35.812
35.817
35.817
35.811
35.802
35.788
35.77
35.748
35.724
35.698
35.672
35.648
35.626
35.608
35.594
35.584
35.577
35.574
35.574
35.575
35.579
35.583
35.588
35.593
35.597
35.6
35.601
35.601
35.598
35.592
35.584
35.574
35.561
35.547
35.532
35.515
35.495
35.474
35.451
35.429
35.408
35.388
35.372
35.359
35.349
35.343
35.34
35.34
35.341
35.344
35.347
35.351
35.353
35.354
35.354
35.351
35.348
35.345
35.341
35.338
35.337
35.337
35.338
35.341
35.345
35.35
35.354
35.358
35.362
35.37
35.383
35.401
35.421
35.442
35.461
35.478
35.491
35.499
35.499
35.494
35.481
35.463
35.44
35.414
35.384
35.353
35.322
35.291
35.261
35.232
35.206
35.183
35.163
35.146
35.133
35.123
35.116
35.112
35.109
35.108
35.105
35.102
35.096
35.088
35.078
35.067
35.056
35.046
35.038
35.03
35.025
35.021
35.018
35.017
35.016
35.014
35.01
35.005
34.997
34.987
34.975
34.961
34.946
34.931
34.918
34.907
34.898
34.893
34.891
34.892
34.895
34.899
34.903
34.908
34.911
34.912
34.912
34.91
34.904
34.897
34.889
34.879
34.87
34.862
34.855
34.849
34.845
34.843
34.844
34.847
34.851
34.855
34.86
34.864
34.866
34.867
34.864
34.858
34.848
34.835
34.821
34.807
34.793
34.782
34.772
34.764
34.759
34.756
34.755
34.755
34.757
34.76
34.765
34.77
34.774
34.776
34.778
34.779
34.78
34.783
34.786
34.79
34.797
34.808
34.823
34.845
34.873
34.907
34.949
34.999
35.056
35.12
35.188
35.259
35.331
35.402
35.47
35.534
35.594
35.648
35.696
35.738
35.774
35.805
35.83
35.85
35.865
35.874
35.879
35.88
35.877
35.871
35.862
35.852
35.841
35.829
35.818
35.806
35.795
35.783
35.772
35.76
35.75
35.739
35.73
35.72
35.711
35.702
35.693
35.683
35.672
35.66
35.649
35.637
35.625
35.613
35.602
35.591
35.581
35.571
35.562
35.552
35.542
35.531
35.519
35.507
35.496
35.484
35.474
35.466
35.458
35.452
35.447
35.443
35.44
35.437
35.435
35.433
35.431
35.43
35.429
35.43
35.433
35.438
35.444
35.451
35.459
35.467
35.473
35.478
35.481
35.48
35.476
35.469
35.461
35.451
35.44
35.428
35.415
35.401
35.386
35.372
35.359
35.347
35.336
35.327
35.318
35.309
35.301
35.294
35.286
35.279
35.271
35.264
35.258
35.252
35.247
35.242
35.237
35.234
35.23
35.227
35.225
35.224
35.224
35.224
35.226
35.226
35.224
35.22
35.214
35.206
35.196
35.186
35.175
35.163
35.152
35.142
35.132
35.125
35.119
35.114
35.111
35.108
35.106
35.104
35.101
35.1
35.098
35.097
35.095
35.093
35.09
35.087
35.083
35.08
35.075
35.071
35.067
35.063
35.058
35.054
35.05
35.046
35.042
35.039
35.035
35.031
35.028
35.024
35.02
35.018
35.016
35.015
35.016
35.017
35.019
35.022
35.024
35.026
35.027
35.025
35.021
35.015
35.008
35.0
34.991
34.982
34.972
34.961
34.948
34.933
34.918
34.902
34.887
34.872
34.859
34.847
34.836
34.827
34.818
34.81
34.803
34.796
34.791
34.786
34.782
34.78
34.78
34.782
34.787
34.796
34.808
34.824
34.842
34.864
34.89
34.921
34.957
34.999
35.047
35.102
35.165
35.235
35.31
35.389
35.47
35.55
35.627
35.701
35.767
35.826
35.875
35.913
35.94
35.955
35.96
35.958
35.951
35.941
35.929
35.918
35.906
35.895
35.885
35.875
35.865
35.857
35.848
35.842
35.836
35.832
35.83
35.83
35.831
35.832
35.834
35.836
35.837
35.835
35.83
35.822
35.812
35.799
35.785
35.769
35.753
35.735
35.718
35.7
35.684
35.668
35.652
35.637
35.622
35.608
35.594
35.579
35.563
35.546
35.529
35.512
35.496
35.482
35.47
35.46
35.453
35.45
35.45
35.453
35.459
35.468
35.478
35.488
35.496
35.503
35.509
35.512
35.512
35.509
35.505
35.498
35.49
35.481
35.471
35.462
35.456
35.451
35.448
35.447
35.448
35.448
35.448
35.448
35.447
35.445
35.441
35.436
35.43
35.422
35.414
35.406
35.397
35.387
35.376
35.365
35.354
35.341
35.327
35.313
35.297
35.281
35.264
35.249
35.236
35.225
35.217
35.21
35.204
35.198
35.191
35.184
35.177
35.17
35.162
35.154
35.146
35.139
35.134
35.129
35.127
35.127
35.129
35.132
35.137
35.142
35.146
35.148
35.148
35.146
35.141
35.135
35.127
35.116
35.105
35.094
35.082
35.07
35.059
35.049
35.041
35.035
35.032
35.031
35.031
35.032
35.031
35.029
35.027
35.023
35.019
35.014
35.009
35.003
34.996
34.99
34.984
34.978
34.972
34.966
34.959
34.953
34.947
34.942
34.937
34.931
34.923
34.913
34.902
34.89
34.879
34.87
34.862
34.856
34.852
34.851
34.853
34.856
34.862
34.869
34.875
34.881
34.886
34.887
34.885
34.881
34.874
34.866
34.858
34.85
34.843
34.839
34.838
34.843
34.855
34.875
34.904
34.941
34.986
35.039
35.098
35.163
35.231
35.303
35.376
35.45
35.523
35.594
35.664
35.73
35.791
35.847
35.897
35.94
35.976
36.011
36.045
36.079
36.113
36.144
36.172
36.195
36.212
36.22
36.219
36.209
36.191
36.164
36.132
36.094
36.053
36.01
35.966
35.925
