Trial 1:0back
36.227
36.233
36.237
36.24
36.239
36.234
36.225
36.211
36.193
36.172
36.149
36.125
36.101
36.076
36.051
36.026
36.001
35.975
35.949
35.92
35.889
35.856
35.822
35.785
35.748
35.709
35.671
35.634
35.599
35.567
35.538
35.511
35.485
35.457
35.429
35.397
35.364
35.329
35.293
35.256
35.219
35.183
35.149
35.116
35.085
35.056
35.028
35.0
34.973
34.945
34.917
34.889
34.86
34.83
34.798
34.767
34.736
34.707
34.679
34.653
34.628
34.604
34.581
34.557
34.533
34.508
34.484
34.461
34.438
34.415
34.394
34.374
34.355
34.336
34.319
34.303
34.287
34.273
34.259
34.247
34.234
34.222
34.212
34.203
34.197
34.193
34.192
34.192
34.192
34.191
34.188
34.183
34.175
34.163
34.149
34.132
34.113
34.093
34.071
34.05
34.027
34.005
33.982
33.959
33.935
33.911
33.886
33.86
33.833
33.805
33.778
33.751
33.727
33.705
33.687
33.672
33.659
33.648
33.64
33.633
33.624
33.614
33.6
33.585
33.567
33.548
33.53
33.511
33.494
33.478
33.464
33.452
33.443
33.435
33.429
33.422
33.415
33.406
33.395
33.383
33.37
33.356
33.341
33.325
33.31
33.294
33.279
33.266
33.258
33.258
33.268
33.292
33.332
33.393
33.478
33.587
33.723
33.884
34.071
34.282
34.512
34.76
35.021
35.289
35.561
35.831
36.095
36.35
36.592
36.818
37.026
37.212
37.374
37.511
37.622
37.707
37.768
37.806
37.823
37.824
37.81
37.784
37.75
37.71
37.667
37.623
37.579
37.537
37.499
37.464
37.433
37.405
37.379
37.355
37.332
37.311
37.29
37.27
37.252
37.234
37.217
37.2
37.183
37.165
37.147
37.129
37.111
37.094
37.078
37.062
37.047
37.031
37.013
36.993
36.97
36.944
36.914
36.88
36.843
36.801
36.757
36.71
36.662
36.613
36.565
36.518
36.475
36.436
36.402
36.372
36.348
36.329
36.315
36.304
36.298
36.295
36.294
36.296
36.299
36.303
36.308
36.312
36.317
36.322
36.326
36.33
36.334
36.337
36.34
36.341
36.341
36.34
36.336
36.329
36.321
36.31
36.297
36.282
36.264
36.244
36.22
36.195
36.168
36.14
36.111
36.082
36.053
36.022
35.991
35.958
35.924
35.889
35.853
35.817
35.78
35.744
35.708
35.672
35.635
35.597
35.559
35.52
35.481
35.442
35.404
35.365
35.326
35.289
35.252
35.215
35.179
35.145
35.111
35.078
35.046
35.014
34.982
34.951
34.921
34.891
34.862
34.836
34.811
34.79
34.771
34.754
34.739
34.725
34.712
34.7
34.688
34.678
34.668
34.659
34.65
34.639
34.628
34.616
34.604
34.592
34.581
34.57
34.56
34.551
34.543
34.535
34.528
34.521
34.514
34.506
34.498
34.488
34.477
34.462
34.445
34.423
34.398
34.371
34.344
34.32
34.297
34.278
34.262
34.249
34.238
34.229
34.222
34.215
34.208
34.201
34.193
34.183
34.171
34.159
34.145
34.132
34.118
34.106
34.094
34.083
34.071
34.057
34.04
34.022
34.001
33.981
33.962
33.945
33.934
33.928
33.93
33.942
33.965
34.001
34.052
34.12
34.207
34.312
34.438
34.584
34.75
34.935
35.137
35.352
35.578
35.811
36.048
36.283
36.512
36.73
36.933
37.117
37.28
37.42
37.536
37.63
37.703
37.755
37.79
37.809
37.815
37.81
37.796
37.775
37.748
37.716
37.68
37.64
37.597
37.55
37.5
37.449
37.399
37.35
37.304
37.263
37.227
37.196
37.169
37.147
37.129
37.114
37.1
37.085
37.07
37.053
37.032
37.007
36.977
36.943
36.906
36.866
36.824
36.782
36.739
36.696
36.653
36.61
36.566
36.52
36.474
36.427
36.38
36.336
36.294
36.256
36.222
36.193
36.167
36.146
36.129
36.116
36.109
36.106
36.108
36.114
36.124
36.135
36.148
36.161
36.174
36.186
36.197
36.205
36.211
36.214
36.214
36.209
36.201
36.19
36.176
36.16
36.143
36.124
36.104
36.082
36.057
36.03
35.999
35.967
35.932
35.895
35.856
35.815
35.774
35.731
35.687
35.644
35.603
35.563
35.526
35.491
35.458
35.426
35.393
35.36
35.326
35.29
35.253
35.215
35.176
35.138
35.1
35.062
35.025
34.989
34.954
34.92
34.886
34.854
34.824
34.794
34.766
34.738
34.71
34.683
34.656
34.628
34.601
34.575
34.548
34.521
34.493
34.466
34.438
34.41
34.385
34.361
34.34
34.321
34.304
34.287
34.271
34.255
34.24
34.224
34.208
34.193
34.177
34.163
34.148
34.134
34.12
34.106
34.091
34.077
34.063
34.049
34.036
34.024
34.011
33.998
33.985
33.973
33.962
33.952
33.944
33.935
33.926
33.915
33.902
33.888
33.871
33.853
33.835
33.816
33.799
33.781
33.764
33.746
33.728
33.709
33.69
33.671
33.653
33.636
33.621
33.608
33.598
33.589
33.582
33.576
33.571
33.567
33.563
33.559
33.555
33.549
33.542
33.535
33.528
33.521
33.516
33.513
33.513
33.517
33.525
33.54
33.563
33.597
33.646
33.712
33.798
33.906
34.038
34.194
34.373
34.574
34.795
35.031
35.281
35.538
35.8
36.062
36.318
36.565
36.798
37.014
37.21
37.384
37.534
37.661
37.764
37.844
37.903
37.942
37.963
37.968
37.96
37.943
37.917
37.887
37.853
37.816
37.778
37.739
37.699
37.659
37.619
37.58
37.543
37.507
37.474
37.445
37.418
37.394
37.373
37.354
37.338
37.325
37.32
37.323
37.334
37.35
37.365
37.377
37.384
37.384
37.375
37.357
37.33
37.295
37.252
37.202
37.145
37.083
37.017
36.948
36.877
36.807
36.737
36.669
36.603
36.541
36.481
36.426
36.376
36.332
36.297
36.269
36.249
36.236
36.229
36.228
36.231
36.237
36.246
36.257
36.269
36.282
36.295
36.307
36.317
36.324
36.328
36.329
36.327
36.323
36.316
36.306
36.293
36.275
36.254
36.229
36.2
36.17
36.138
36.105
36.073
36.04
36.009
35.978
35.948
35.919
35.89
35.86
35.829
35.797
35.763
35.726
35.686
35.643
35.598
35.551
35.503
35.456
35.409
35.364
35.321
35.279
35.239
35.2
35.163
35.127
35.093
35.061
35.03
35.001
34.972
34.944
34.917
34.89
34.862
34.834
34.806
34.778
34.75
34.721
34.691
34.66
34.629
34.598
34.569
34.541
34.514
34.486
34.46
34.434
34.409
34.386
34.364
34.343
34.324
34.307
34.291
34.275
34.261
34.246
34.232
34.218
34.203
34.189
34.174
34.159
34.144
34.129
34.113
34.096
34.077
34.057
34.038
34.019
34.002
33.987
33.975
33.965
33.958
33.952
33.946
33.941
33.934
33.926
33.915
33.902
33.886
33.867
33.846
33.824
33.8
33.777
33.753
33.729
33.706
33.683
33.66
33.638
33.616
33.594
33.575
33.558
33.543
33.531
33.519
33.508
33.498
33.487
33.475
33.462
33.449
33.436
33.422
33.409
33.397
33.387
33.378
33.37
33.364
33.359
33.355
33.352
33.347
33.341
33.333
33.323
33.313
33.303
33.295
33.293
33.298
33.316
33.348
33.398
33.471
33.568
33.693
33.847
34.03
34.241
34.477
34.736
35.011
35.297
35.589
35.88
36.166
36.441
36.701
36.943
37.164
37.363
37.537
37.686
37.812
37.913
37.986
38.032
38.051
38.047
38.027
37.995
37.956
37.915
37.875
37.839
37.809
37.785
37.768
37.756
37.749
37.745
37.743
37.741
37.739
37.737
37.733
37.728
37.722
37.714
37.704
37.691
37.676
37.658
37.638
37.616
37.592
37.568
37.544
37.519
37.492
37.465
37.436
37.405
37.372
37.337
37.3
37.261
37.218
37.172
37.123
37.07
37.016
36.961
36.908
36.858
36.812
36.773
36.739
36.711
36.689
36.672
36.659
36.65
36.643
36.638
36.636
36.635
36.635
36.637
36.639
36.641
36.644
36.647
36.651
36.655
36.658
36.658
36.655
36.649
36.638
36.625
36.609
36.59
36.569
36.547
36.524
36.5
36.474
36.446
36.416
36.385
36.351
36.316
36.279
36.24
36.197
36.151
36.102
36.05
35.998
35.944
35.891
35.841
35.793
35.748
35.707
35.671
35.639
35.611
35.586
35.562
35.539
35.516
35.491
35.465
35.437
35.406
35.374
35.341
35.308
35.276
35.245
35.215
35.185
35.154
35.123
35.09
35.056
35.021
34.985
34.948
34.91
34.872
34.835
34.8
34.766
34.733
34.702
34.673
34.644
34.617
34.59
34.562
34.534
34.506
34.479
34.454
34.432
34.415
34.403
34.397
34.394
34.394
34.395
34.397
34.397
34.394
34.39
34.382
34.373
34.36
34.346
34.331
34.316
34.301
34.286
34.273
34.262
34.251
34.242
34.232
34.22
34.206
34.19
34.173
34.156
34.14
34.124
34.109
34.093
34.076
34.059
34.039
34.018
33.997
33.975
33.954
33.933
33.915
33.898
33.884
33.872
33.862
33.854
33.849
33.848
33.852
33.861
33.879
33.908
33.95
34.01
34.09
34.192
34.317
34.462
34.627
34.812
35.014
35.23
35.457
35.692
35.931
36.169
36.405
36.633
36.851
37.055
37.244
37.415
37.568
37.7
37.813
37.906
37.979
38.032
38.067
38.085
38.088
38.077
38.054
38.022
37.982
37.938
37.891
37.842
37.793
37.746
37.699
37.655
37.613
37.573
37.536
37.501
37.47
37.44
37.412
37.385
37.358
37.331
37.304
37.277
37.249
37.219
37.186
37.151
37.112
37.069
37.023
36.975
36.924
36.873
36.82
36.766
36.711
36.655
36.597
36.539
36.482
36.425
36.371
36.32
36.273
36.232
36.195
36.164
36.139
36.12
36.106
36.097
36.093
36.093
36.097
36.102
36.108
36.115
36.122
36.129
36.137
36.144
36.152
36.159
36.165
36.169
36.169
36.166
36.158
36.145
36.129
36.107
36.082
36.053
36.022
35.988
35.952
35.916
35.879
35.843
35.807
35.771
35.734
35.697
35.657
35.615
35.57
35.524
35.477
35.432
35.389
35.349
35.31
35.273
35.237
35.2
35.162
35.123
35.083
35.043
35.001
34.959
34.917
34.874
34.831
34.79
34.749
34.71
34.672
34.636
34.602
34.57
34.538
34.507
34.476
34.445
34.414
34.383
34.352
34.321
34.288
34.255
34.222
34.189
34.156
34.126
34.098
34.074
34.054
34.037
34.024
34.014
34.004
33.996
33.987
33.979
33.969
33.959
33.948
33.936
33.922
33.907
33.891
33.873
33.854
33.834
33.813
33.791
33.769
33.746
33.722
33.7
33.679
33.659
33.641
33.625
33.61
33.594
33.578
33.56
33.54
33.518
33.497
33.477
33.458
33.443
33.43
33.421
33.414
33.409
33.407
33.407
33.407
33.408
33.408
33.406
33.402
33.395
33.385
33.372
33.356
33.337
33.317
33.296
33.274
33.251
33.23
33.209
33.19
33.172
33.158
33.148
33.142
33.141
33.147
33.161
33.186
33.225
33.28
33.355
33.452
33.575
33.723
33.899
34.101
34.326
34.574
34.84
35.12
35.41
35.706
36.001
36.289
36.565
36.823
37.06
37.274
37.462
37.623
37.76
37.871
37.96
38.028
38.077
38.11
38.13
38.138
38.138
38.131
38.119
38.104
38.087
38.069
38.049
38.027
38.004
37.98
37.956
37.933
37.909
37.887
37.864
37.843
37.822
37.802
37.783
37.765
37.747
37.729
37.712
37.694
37.674
37.652
37.626
37.597
37.564
37.528
37.491
37.452
37.41
37.368
37.323
37.278
37.23
37.181
37.13
37.076
37.02
36.963
36.904
36.846
36.788
36.732
36.68
36.632
36.591
36.556
36.527
36.505
36.489
36.476
36.467
36.459
36.451
36.443
36.433
36.422
36.409
36.396
36.382
36.369
36.357
36.345
36.336
36.328
36.321
36.315
36.308
36.298
36.284
36.266
36.243
36.215
36.183
36.148
36.112
36.075
36.039
36.003
35.967
35.933
35.898
35.864
35.829
35.792
35.754
35.713
35.67
35.624
35.575
35.524
35.471
35.418
35.366
35.314
35.265
35.217
35.173
35.13
35.089
35.05
35.014
34.98
34.948
34.918
34.889
34.861
34.833
34.805
34.775
34.745
34.714
34.683
34.652
34.622
34.591
34.56
34.529
34.498
34.467
34.435
34.404
34.373
34.342
34.311
34.28
34.249
34.22
34.191
34.165
34.141
34.12
34.102
34.086
34.073
34.062
34.051
34.042
34.032
34.023
34.013
34.002
33.99
33.977
33.96
33.942
33.922
33.9
33.878
33.856
33.835
33.815
33.796
33.777
33.759
33.742
33.725
33.71
33.695
33.681
33.666
33.651
33.634
33.619
33.613
33.615
33.626
33.642
33.66
33.677
33.69
33.696
33.694
33.682
33.66
33.63
33.593
33.55
33.504
33.456
33.407
33.359
33.313
33.271
33.233
33.201
33.176
33.159
33.152
33.156
33.173
33.202
33.247
33.31
33.392
33.496
33.621
33.769
33.94
34.132
34.345
34.577
34.825
35.087
35.358
35.634
35.911
36.183
36.447
36.698
36.932
37.148
37.341
37.511
37.658
37.779
37.877
37.952
38.006
38.04
38.056
38.059
38.05
38.032
38.008
37.979
37.949
37.917
37.887
37.859
37.834
37.812
37.792
37.776
37.763
37.751
37.741
37.731
37.72
37.707
37.691
37.675
37.657
37.639
37.621
37.603
37.585
37.568
37.55
37.533
37.514
37.493
37.469
37.441
37.407
37.368
37.323
37.271
37.214
37.153
37.089
37.023
36.954
36.885
36.817
36.753
36.695
36.643
36.599
36.563
36.534
36.513
36.497
36.488
36.484
36.485
36.489
36.495
36.504
36.514
36.527
36.54
36.553
36.564
36.571
36.574
36.572
36.564
36.551
36.533
36.51
36.484
36.455
36.424
36.393
36.361
36.329
36.298
36.266
36.234
36.202
36.168
36.133
36.095
36.053
36.009
35.963
35.916
35.87
35.826
35.784
35.744
35.707
35.672
35.638
35.604
35.57
35.536
35.502
35.467
35.432
35.396
35.36
35.324
35.287
35.25
35.212
35.174
35.137
35.098
35.059
35.018
34.974
34.929
34.881
34.832
34.783
34.734
34.687
34.643
34.603
34.567
34.535
34.508
34.486
34.468
34.455
34.445
34.438
34.432
34.427
34.422
34.416
34.409
34.401
34.392
34.381
34.369
34.356
34.34
34.322
34.302
34.279
34.255
34.23
34.205
34.18
34.157
34.136
34.116
34.099
34.083
34.07
34.058
34.047
34.037
34.027
34.017
34.006
33.995
33.983
33.971
33.96
33.949
33.939
33.928
33.917
33.903
33.887
33.869
33.847
33.824
33.8
33.777
33.757
33.74
33.73
33.727
33.733
33.752
33.786
33.837
33.906
33.995
34.104
34.234
34.382
34.549
34.732
34.928
35.137
35.354
35.575
35.797
36.016
36.229
36.431
36.619
36.792
36.948
37.086
37.205
37.305
37.386
37.448
37.493
37.522
37.536
37.536
37.526
37.506
37.48
37.448
37.411
37.372
37.33
37.287
37.244
37.202
37.163
37.125
37.091
37.058
37.026
36.995
36.964
36.933
36.902
36.87
36.839
36.807
36.775
36.741
36.707
36.67
36.632
36.592
36.55
36.507
36.462
36.416
36.369
36.32
36.27
36.219
36.168
36.117
36.067
36.02
35.974
35.93
35.887
35.846
35.806
35.769
35.736
35.707
35.685
35.669
35.659
35.653
35.652
35.652
35.654
35.658
35.661
35.664
35.666
35.666
35.664
35.659
35.653
35.644
35.634
35.623
35.611
35.598
35.584
35.57
35.554
35.535
35.513
35.49
35.465
35.439
35.411
35.383
35.354
35.324
35.294
35.263
35.231
35.197
35.162
35.126
35.087
35.047
35.006
34.963
34.919
34.874
34.829
34.783
34.738
34.693
34.65
34.607
34.565
34.523
34.48
34.438
34.396
34.354
34.314
34.275
34.238
34.202
34.167
34.133
34.101
34.071
34.044
34.018
33.995
33.974
33.954
33.934
33.915
33.894
33.873
33.851
33.827
33.803
33.778
33.752
33.725
33.695
33.665
33.635
33.606
33.579
33.555
33.534
33.516
33.5
33.487
33.476
33.465
33.454
33.443
33.432
33.422
33.411
33.4
33.39
33.379
33.369
33.36
33.353
33.348
33.345
33.343
33.342
33.34
33.336
33.33
33.323
33.315
33.306
33.297
33.287
33.276
33.264
33.251
33.236
33.218
33.199
33.177
33.155
33.133
33.113
33.094
33.079
33.066
33.056
33.049
33.043
33.038
33.033
33.027
33.02
33.013
33.006
33.003
33.005
33.015
33.038
33.075
33.127
33.197
33.286
33.395
33.525
33.676
33.847
34.038
34.246
34.469
34.703
34.946
35.192
35.438
35.678
35.91
36.128
36.33
36.512
36.672
36.808
36.92
37.007
37.072
37.116
37.144
37.158
37.162
37.158
37.147
37.133
37.115
37.095
37.074
37.051
37.028
37.005
36.981
36.958
36.935
36.911
36.888
36.866
36.846
36.827
36.809
36.793
36.777
36.763
36.748
36.733
36.717
36.698
36.678
36.656
36.632
36.606
36.579
36.551
36.52
36.486
36.449
36.409
36.366
36.32
36.272
36.221
36.169
36.116
36.062
36.009
35.958
35.91
35.867
35.829
35.795
35.766
35.741
35.721
35.704
35.689
35.678
35.67
35.664
35.661
35.66
35.66
35.66
35.66
35.658
35.655
35.652
35.647
35.641
35.633
35.624
35.613
35.6
35.586
35.569
35.552
35.534
35.515
35.496
35.476
35.454
35.43
35.404
35.376
35.346
35.314
35.282
35.25
35.217
35.183
35.149
35.114
35.078
35.041
35.003
34.965
34.927
34.889
34.852
34.814
34.777
34.741
34.704
34.668
34.632
34.597
34.562
34.527
34.493
34.46
34.428
34.397
34.368
34.341
34.315
34.291
34.268
34.245
34.221
34.195
34.167
34.137
34.106
34.074
34.042
34.01
33.979
33.949
33.921
33.894
33.87
33.847
33.827
33.81
33.795
33.783
33.774
33.766
33.76
33.754
33.749
33.745
33.741
33.736
33.73
33.722
33.712
33.701
33.689
33.676
33.662
33.649
33.636
33.623
33.61
33.596
33.582
33.567
33.551
33.534
33.516
33.498
33.479
33.46
33.44
33.42
33.4
33.381
33.364
33.348
33.333
33.321
33.309
33.297
33.285
33.272
33.258
33.242
33.224
33.205
33.183
33.159
33.134
33.107
33.079
33.051
33.023
32.997
32.972
32.948
32.927
32.907
32.888
32.871
32.858
32.85
32.848
32.854
32.871
32.902
32.947
33.01
33.092
33.195
33.32
33.468
33.638
33.829
34.038
34.263
34.498
34.74
34.985
35.226
35.461
35.685
35.894
36.084
36.254
36.4
36.524
36.625
36.705
36.766
36.81
36.84
36.858
36.864
36.861
36.848
36.829
36.804
36.775
36.744
36.711
36.677
36.644
36.611
36.58
36.551
36.524
36.5
36.478
36.459
36.442
36.425
36.409
36.391
36.37
36.348
36.323
36.297
36.271
36.245
36.221
36.199
36.179
36.161
36.144
36.127
36.108
36.088
36.065
36.039
36.011
35.978
35.943
35.904
35.862
35.82
35.779
35.74
35.705
35.673
35.644
35.617
35.592
35.569
35.547
35.527
35.509
35.492
35.479
35.47
35.463
35.461
35.461
35.463
35.466
35.469
35.473
35.475
35.474
35.471
35.464
35.453
35.437
35.418
35.397
35.377
35.356
35.337
35.318
35.301
35.284
35.268
35.253
35.237
35.219
35.201
35.181
35.16
35.137
35.113
35.087
35.059
35.03
35.0
34.969
34.938
34.907
34.874
34.839
34.803
34.765
34.725
34.684
34.643
34.603
34.564
34.526
34.491
34.458
34.428
34.4
34.376
34.354
34.335
34.318
34.303
34.291
34.279
34.268
34.258
34.247
34.236
34.224
34.212
34.198
34.181
34.163
34.143
34.121
34.098
34.075
34.053
34.032
34.014
33.996
33.98
33.964
33.948
33.931
33.914
33.896
33.877
33.858
33.838
33.817
33.797
33.776
33.756
33.737
33.72
33.705
33.692
33.682
33.672
33.664
33.656
33.649
33.642
33.636
33.631
33.626
33.621
33.616
33.609
33.6
33.59
33.578
33.566
33.552
33.538
33.525
33.511
33.498
33.484
33.471
33.456
33.441
33.424
33.406
33.388
33.369
33.35
33.332
33.314
33.298
33.284
33.273
33.265
33.261
33.26
33.263
33.272
33.288
33.312
33.346
33.394
33.457
33.536
33.633
33.747
33.879
34.027
34.191
34.37
34.561
34.762
34.97
35.183
35.397
35.608
35.814
36.01
36.194
36.363
36.514
36.646
36.758
36.85
36.922
36.975
37.01
37.03
37.037
37.032
37.019
36.999
36.973
36.943
36.909
36.873
36.834
36.794
36.755
36.716
36.679
36.645
36.614
36.586
36.563
36.542
36.525
36.509
36.495
36.482
36.469
36.456
36.441
36.425
36.406
36.384
36.36
36.334
36.307
36.279
36.249
36.217
36.183
36.146
36.106
36.064
36.018
35.971
35.922
35.874
35.826
35.781
35.739
35.7
35.665
35.634
35.609
35.589
35.574
35.562
35.554
35.548
35.544
35.542
35.542
35.545
35.55
35.559
35.57
35.583
35.596
35.609
35.62
35.628
35.634
35.636
35.635
35.63
35.622
35.612
35.599
35.583
35.566
35.547
35.529
35.509
35.489
35.466
35.439
35.408
35.373
35.335
35.296
35.256
35.217
35.179
35.143
35.11
35.078
35.049
35.021
34.994
34.968
34.942
34.916
34.889
34.86
34.828
34.794
34.758
34.72
34.681
34.641
34.601
34.561
34.522
34.482
34.442
34.403
34.364
34.328
34.294
34.263
34.237
34.214
34.194
34.177
34.162
34.149
34.138
34.129
34.122
34.117
34.113
34.11
34.107
34.103
34.098
34.091
34.082
34.072
34.06
34.047
34.031
34.012
33.991
33.967
33.941
33.915
33.889
33.864
33.842
33.822
33.806
33.793
33.784
33.778
33.775
33.773
33.772
33.771
33.769
