Trial 1:0back
43.541
43.383
43.191
42.972
42.729
42.466
42.189
41.9
41.604
41.302
40.998
40.694
40.392
40.092
39.797
39.506
39.219
38.936
38.656
38.379
38.106
37.835
37.568
37.302
37.04
36.782
36.527
36.277
36.031
35.79
35.555
35.325
35.103
34.89
34.687
34.496
34.319
34.157
34.011
33.882
33.771
33.678
33.606
33.555
33.526
33.52
33.537
33.578
33.644
33.741
33.873
34.038
34.23
34.444
34.671
34.905
35.137
35.362
35.574
35.768
35.943
36.095
36.224
36.33
36.414
36.476
36.518
36.542
36.549
36.541
36.521
36.49
36.449
36.399
36.341
36.274
36.199
36.117
36.027
35.929
35.825
35.714
35.597
35.474
35.346
35.215
35.08
34.943
34.804
34.664
34.524
34.384
34.246
34.109
33.974
33.84
33.709
33.579
33.452
33.327
33.205
33.087
32.979
32.882
32.796
32.719
32.649
32.583
32.52
32.457
32.392
32.324
32.252
32.174
32.093
32.008
31.922
31.836
31.752
31.672
31.597
31.529
31.468
31.416
31.373
31.339
31.314
31.298
31.29
31.288
31.291
31.298
31.308
31.319
31.331
31.345
31.362
31.383
31.411
31.447
31.495
31.561
31.651
31.771
31.929
32.134
32.394
32.715
33.102
33.558
34.082
34.672
35.321
36.02
36.756
37.515
38.279
39.027
39.741
40.407
41.015
41.56
42.035
42.441
42.774
43.038
43.233
43.363
43.433
43.447
43.411
43.33
43.212
43.06
42.882
42.681
42.461
42.226
41.977
41.718
41.45
41.175
40.895
40.612
40.325
40.037
39.749
39.462
39.177
38.894
38.613
38.336
38.063
37.794
37.529
37.268
37.01
36.754
36.501
36.251
36.003
35.759
35.52
35.287
35.06
34.84
34.63
34.431
34.245
34.075
33.922
33.787
33.672
33.576
33.502
33.448
33.416
33.404
33.413
33.444
33.497
33.571
33.666
33.779
33.909
34.053
34.207
34.369
34.535
34.703
34.869
35.032
35.19
35.34
35.482
35.613
35.732
35.839
35.931
36.008
36.068
36.112
36.138
36.145
36.134
36.106
36.06
35.999
35.924
35.837
35.741
35.638
35.529
35.415
35.297
35.177
35.054
34.928
34.802
34.674
34.545
34.415
34.285
34.156
34.027
33.899
33.773
33.649
33.527
33.405
33.284
33.165
33.048
32.933
32.822
32.715
32.613
32.515
32.422
32.333
32.248
32.169
32.096
32.03
31.97
31.916
31.866
31.821
31.778
31.738
31.698
31.658
31.617
31.574
31.53
31.485
31.439
31.393
31.348
31.304
31.263
31.225
31.189
31.158
31.13
31.107
31.089
31.076
31.07
31.069
31.074
31.083
31.098
31.12
31.152
31.197
31.263
31.355
31.48
31.648
31.867
32.146
32.492
32.91
33.402
33.969
34.605
35.302
36.05
36.834
37.639
38.447
39.243
40.01
40.732
41.398
41.997
42.521
42.965
43.326
43.606
43.806
43.93
43.985
43.978
43.914
43.804
43.653
43.471
43.262
43.031
42.785
42.526
42.257
41.979
41.696
41.41
41.121
40.832
40.544
40.257
39.974
39.693
39.414
39.138
38.865
38.594
38.326
38.062
37.802
37.546
37.295
37.05
36.81
36.576
36.347
36.124
35.908
35.697
35.49
35.282
35.067
34.849
34.632
34.421
34.222
34.041
33.884
33.752
33.65
33.578
33.535
33.522
33.536
33.574
33.636
33.717
33.816
33.93
34.057
34.194
34.339
34.49
34.644
34.8
34.955
35.106
35.252
35.391
35.523
35.645
35.757
35.858
35.948
36.026
36.093
36.149
36.192
36.221
36.236
36.237
36.224
36.197
36.155
36.1
36.033
35.955
35.867
35.769
35.661
35.547
35.425
35.297
35.164
35.027
34.886
34.742
34.596
34.449
34.302
34.156
34.013
33.873
33.736
33.603
33.474
33.348
33.225
33.106
32.989
32.876
32.765
32.657
32.553
32.453
32.357
32.265
32.177
32.094
32.015
31.939
31.866
31.796
31.73
31.668
31.612
31.56
31.514
31.473
31.435
31.402
31.372
31.346
31.326
31.31
31.299
31.292
31.289
31.291
31.296
31.304
31.315
31.326
31.337
31.348
31.357
31.364
31.373
31.388
31.41
31.44
31.475
31.514
31.557
31.604
31.654
31.713
31.782
31.869
31.98
32.124
32.312
32.552
32.854
33.225
33.668
34.186
34.774
35.428
36.137
36.888
37.665
38.454
39.236
39.996
40.717
41.388
41.995
42.53
42.986
43.359
43.648
43.855
43.985
44.043
44.035
43.97
43.856
43.698
43.506
43.285
43.043
42.785
42.517
42.243
41.965
41.686
41.406
41.126
40.847
40.569
40.294
40.02
39.749
39.48
39.214
38.95
38.689
38.432
38.18
37.932
37.688
37.447
37.208
36.972
36.739
36.509
36.283
36.06
35.841
35.627
35.417
35.212
35.012
34.82
34.637
34.465
34.306
34.164
34.038
33.934
33.851
33.79
33.754
33.741
33.752
33.786
33.843
33.919
34.013
34.123
34.246
34.379
34.52
34.666
34.815
34.965
35.114
35.261
35.401
35.533
35.655
35.767
35.865
35.948
36.017
36.07
36.107
36.129
36.135
36.124
36.097
36.056
36.0
35.932
35.853
35.764
35.666
35.561
35.449
35.333
35.212
35.089
34.965
34.841
34.715
34.59
34.466
34.342
34.217
34.093
33.968
33.843
33.719
33.596
33.474
33.355
33.238
33.123
33.01
32.901
32.796
32.694
32.595
32.5
32.407
32.316
32.228
32.143
32.061
31.982
31.906
31.834
31.767
31.704
31.648
31.597
31.551
31.513
31.48
31.452
31.429
31.408
31.39
31.373
31.356
31.339
31.32
31.299
31.276
31.25
31.224
31.199
31.175
31.153
31.133
31.117
31.106
31.101
31.101
31.106
31.115
31.128
31.143
31.162
31.182
31.205
31.229
31.255
31.282
31.311
31.342
31.378
31.421
31.476
31.546
31.639
31.762
31.923
32.13
32.391
32.712
33.099
33.555
34.081
34.675
35.329
36.037
36.786
37.564
38.353
39.139
39.904
40.632
41.311
41.929
42.475
42.945
43.333
43.638
43.861
44.003
44.069
44.066
44.0
43.879
43.711
43.506
43.271
43.014
42.742
42.462
42.176
41.89
41.604
41.321
41.04
40.763
40.488
40.215
39.943
39.672
39.402
39.133
38.864
38.597
38.333
38.071
37.814
37.56
37.31
37.064
36.822
36.583
36.347
36.115
35.888
35.667
35.452
35.246
35.049
34.862
34.687
34.526
34.38
34.249
34.137
34.042
33.967
33.912
33.879
33.867
33.877
33.909
33.962
34.035
34.127
34.236
34.361
34.498
34.645
34.8
34.96
35.123
35.286
35.445
35.598
35.743
35.876
35.997
36.101
36.19
36.262
36.317
36.355
36.376
36.383
36.374
36.351
36.316
36.267
36.206
36.133
36.05
35.956
35.854
35.745
35.63
35.509
35.384
35.256
35.124
34.99
34.854
34.716
34.577
34.438
34.301
34.166
34.033
33.903
33.774
33.647
33.522
33.4
33.281
33.165
33.053
32.947
32.844
32.746
32.648
32.551
32.454
32.356
32.258
32.16
32.063
31.968
31.876
31.788
31.704
31.626
31.553
31.486
31.426
31.373
31.328
31.29
31.259
31.232
31.211
31.193
31.18
31.168
31.16
31.155
31.152
31.153
31.156
31.161
31.169
31.18
31.193
31.209
31.227
31.25
31.274
31.301
31.33
31.358
31.386
31.414
31.444
31.476
31.511
31.555
31.61
31.684
31.782
31.914
32.088
32.31
32.59
32.933
33.342
33.818
34.361
34.963
35.616
36.312
37.037
37.778
38.522
39.253
39.958
40.624
41.24
41.797
42.287
42.704
43.047
43.315
43.51
43.633
43.689
43.683
43.621
43.509
43.354
43.161
42.939
42.692
42.425
42.144
41.851
41.549
41.242
40.931
40.62
40.31
40.004
39.702
39.405
39.113
38.827
38.546
38.269
37.996
37.725
37.458
37.193
36.931
36.672
36.416
36.165
35.917
35.674
35.434
35.199
34.967
34.741
34.522
34.312
34.114
33.93
33.765
33.62
33.497
33.398
33.323
33.272
33.245
33.241
33.262
33.305
33.371
33.456
33.561
33.683
33.819
33.968
34.128
34.297
34.473
34.654
34.837
35.02
35.199
35.371
35.531
35.679
35.809
35.921
36.014
36.086
36.139
36.172
36.187
36.184
36.165
36.131
36.082
36.02
35.946
35.86
35.764
35.66
35.55
35.433
35.312
35.188
35.061
34.932
34.8
34.662
34.515
34.361
34.2
34.036
33.871
33.71
33.554
33.405
33.265
33.135
33.015
32.906
32.806
32.715
32.632
32.555
32.485
32.418
32.355
32.292
32.228
32.164
32.099
32.032
31.965
31.9
31.836
31.774
31.714
31.657
31.603
31.552
31.503
31.457
31.414
31.375
31.338
31.303
31.27
31.24
31.212
31.188
31.168
31.152
31.142
31.136
31.136
31.14
31.149
31.161
31.176
31.193
31.212
31.23
31.249
31.267
31.287
31.312
31.342
31.38
31.429
31.493
31.577
31.691
31.842
32.039
32.293
32.609
32.996
33.456
33.989
34.594
35.262
35.985
36.75
37.54
38.341
39.133
39.901
40.628
41.303
41.913
42.45
42.909
43.286
43.58
43.792
43.927
43.988
43.985
43.923
43.813
43.66
43.473
43.257
43.018
42.76
42.489
42.206
41.913
41.614
41.311
41.005
40.697
40.39
40.082
39.774
39.467
39.16
38.855
38.552
38.252
37.955
37.662
37.374
37.092
36.816
36.547
36.284
36.027
35.776
35.53
35.291
35.057
34.831
34.614
34.409
34.216
34.038
33.877
33.732
33.606
33.499
33.413
33.347
33.303
33.279
33.277
33.294
33.331
33.387
33.462
33.556
33.668
33.796
33.939
34.094
34.26
34.433
34.611
34.789
34.965
35.136
35.301
35.455
35.597
35.725
35.837
35.931
36.006
36.06
36.093
36.107
36.102
36.08
36.042
35.992
35.93
35.858
35.778
35.688
35.591
35.485
35.372
35.253
35.129
34.999
34.865
34.728
34.586
34.442
34.296
34.15
34.006
33.864
33.726
33.591
33.459
33.33
33.204
33.081
32.959
32.839
32.722
32.607
32.495
32.385
32.279
32.176
32.077
31.984
31.895
31.812
31.735
31.661
31.591
31.523
31.459
31.396
31.336
31.279
31.224
31.17
31.118
31.069
31.022
30.978
30.938
30.903
30.874
30.852
30.837
30.83
30.832
30.843
30.862
30.889
30.922
30.959
30.997
31.035
31.07
31.103
31.133
31.159
31.182
31.201
31.217
31.23
31.24
31.246
31.25
31.251
31.251
31.251
31.25
31.253
31.26
31.276
31.306
31.353
31.426
31.532
31.678
31.873
32.126
32.444
32.833
33.297
33.836
34.449
35.13
35.87
36.659
37.483
38.326
39.17
39.998
40.795
41.543
42.23
42.844
43.377
43.823
44.181
44.449
44.63
44.728
44.75
44.701
44.591
44.428
44.22
43.977
43.706
43.414
43.107
42.792
42.472
42.152
41.835
41.524
41.218
40.918
40.624
40.335
40.051
39.771
39.495
39.223
38.954
38.69
38.429
38.172
37.916
37.662
37.409
37.156
36.904
36.654
36.405
36.16
35.92
35.687
35.461
35.244
35.037
34.843
34.661
34.494
34.343
34.209
34.094
33.998
33.922
33.866
33.832
33.819
33.827
33.855
33.902
33.968
34.052
34.153
34.269
34.4
34.542
34.693
34.851
35.011
35.172
35.329
35.481
35.625
35.758
35.877
35.982
36.071
36.144
36.2
36.239
36.262
36.27
36.262
36.239
36.202
36.151
36.088
36.013
35.927
35.831
35.728
35.619
35.505
35.388
35.268
35.145
35.019
34.891
34.761
34.628
34.494
34.359
34.224
34.09
33.956
33.824
33.693
33.563
33.437
33.314
33.194
33.077
32.962
32.849
32.737
32.626
32.516
32.406
32.299
32.197
32.097
32.001
31.907
31.816
31.728
31.642
31.559
31.48
31.406
31.337
31.272
31.212
31.156
31.106
31.059
31.017
30.98
30.947
30.919
30.897
30.88
30.869
30.862
30.861
30.863
30.87
30.881
30.895
30.912
30.93
30.948
30.968
30.989
31.01
31.032
31.055
31.08
31.105
31.131
31.156
31.18
31.202
31.223
31.242
31.257
31.27
31.28
31.287
31.29
31.291
31.292
31.294
31.3
31.314
31.339
31.38
31.442
31.53
31.651
31.814
32.026
32.294
32.626
33.028
33.502
34.05
34.67
35.356
36.098
36.885
37.701
38.533
39.362
40.173
40.949
41.676
42.341
42.932
43.443
43.868
44.204
44.453
44.616
44.698
44.706
44.646
44.528
44.358
44.146
43.9
43.629
43.338
43.035
42.725
42.411
42.096
41.783
41.472
41.164
40.86
40.558
40.26
39.967
39.677
39.391
39.109
38.831
38.558
38.287
38.021
37.76
37.503
37.251
37.003
36.76
36.52
36.282
36.048
35.816
35.587
35.361
35.14
34.926
34.722
34.53
34.352
34.188
34.042
33.915
33.808
33.723
33.659
33.617
33.597
33.598
33.62
33.662
33.723
33.803
33.9
34.013
34.141
34.282
34.432
34.589
34.751
34.915
35.077
35.235
35.386
35.528
35.659
35.777
35.879
35.966
36.035
36.086
36.119
36.135
36.133
36.115
36.081
36.034
35.975
35.906
35.829
35.743
35.649
35.549
35.442
35.328
35.209
35.085
34.956
34.823
34.685
34.544
34.399
34.251
34.101
33.951
33.803
33.657
33.515
33.378
33.245
33.117
32.993
32.873
32.756
32.643
32.532
32.423
32.318
32.214
32.114
32.017
31.922
31.829
31.739
31.652
31.565
31.479
31.395
31.312
31.232
31.155
31.084
31.019
30.962
30.913
30.873
30.841
30.817
30.8
30.791
30.788
30.791
30.799
30.813
30.83
30.85
30.872
30.893
30.912
30.93
30.946
30.959
30.97
30.978
30.985
30.99
30.996
31.002
31.009
31.017
31.026
31.036
31.048
31.062
31.077
31.093
31.11
31.128
31.147
31.166
31.186
31.205
31.226
31.252
31.285
31.331
31.395
31.485
31.608
31.773
31.99
32.267
32.61
33.026
33.517
34.084
34.721
35.424
36.18
36.978
37.803
38.637
39.465
40.269
41.035
41.747
42.391
42.958
43.44
43.835
44.141
44.36
44.496
44.555
44.544
44.471
44.344
44.171
43.961
43.719
43.454
43.17
42.872
42.565
42.251
41.931
41.608
41.281
40.952
40.622
40.292
39.963
39.636
39.31
38.988
38.67
38.357
38.05
37.749
37.454
37.166
36.884
36.608
36.336
36.069
35.807
35.551
35.302
35.062
34.831
34.609
34.398
34.2
34.015
33.844
33.689
33.553
33.435
33.337
33.26
33.206
33.175
33.168
33.185
33.226
33.289
33.373
33.477
33.598
33.735
33.886
34.049
34.223
34.405
34.595
34.788
34.982
35.175
35.363
35.543
35.713
35.87
36.012
36.138
36.245
36.333
36.4
36.446
36.471
36.476
36.461
36.427
36.377
36.311
36.233
36.142
36.04
35.93
35.811
35.686
35.556
35.421
35.283
35.141
34.995
34.847
34.698
34.547
34.395
34.244
34.095
33.949
33.808
33.672
33.541
33.417
33.298
33.183
33.075
32.97
32.87
32.772
32.677
32.583
32.49
32.397
32.306
32.215
32.126
32.04
31.955
31.873
31.794
31.718
31.647
31.58
31.516
31.457
31.403
31.353
31.307
31.266
31.231
31.2
31.175
31.156
31.141
31.132
31.127
31.124
31.123
31.124
31.124
31.125
31.124
31.122
31.118
31.113
31.105
31.097
31.088
31.079
31.071
31.064
31.06
31.057
31.057
31.06
31.067
31.08
31.101
31.134
31.183
31.254
31.353
31.488
31.666
31.898
32.189
32.549
32.981
33.49
34.074
34.73
35.451
36.227
37.044
37.886
38.738
39.581
40.397
41.171
41.886
42.532
43.098
43.579
43.97
44.27
44.481
44.607
44.651
44.621
44.522
44.365
44.158
43.909
43.628
43.323
43.001
42.666
42.325
41.982
41.638
41.297
40.96
40.628
40.303
39.983
39.67
39.363
39.062
38.765
38.473
38.184
37.897
37.612
37.33
37.049
36.772
36.496
36.22
35.945
35.672
35.403
35.14
34.885
34.641
34.409
34.191
33.988
33.801
33.631
33.479
33.345
33.23
33.133
33.055
32.997
32.958
32.939
32.941
32.964
33.007
33.071
33.155
33.258
33.38
33.519
33.672
33.838
34.015
34.199
34.388
34.58
34.77
34.956
35.135
35.303
35.458
35.598
35.72
35.824
35.907
35.971
36.015
36.04
36.048
36.039
36.014
35.975
35.923
35.858
35.781
35.69
35.587
35.471
35.344
35.207
35.064
34.916
34.766
34.615
34.466
34.319
34.174
34.034
33.897
33.764
33.634
33.508
33.384
33.262
33.14
33.021
32.904
32.788
32.675
32.563
32.453
32.346
32.241
32.137
32.036
31.937
31.84
31.746
31.657
31.572
31.492
31.417
31.347
31.283
31.224
31.172
31.127
31.088
31.056
31.029
31.006
30.987
30.968
30.95
30.931
30.911
30.89
30.869
30.847
30.828
30.811
30.799
30.792
30.789
30.789
30.793
30.798
30.804
30.81
30.816
30.821
30.825
30.828
30.829
30.829
30.828
30.828
30.83
30.837
30.852
30.877
30.919
30.983
31.077
31.209
31.388
31.623
31.922
32.292
32.738
33.262
33.863
34.539
35.282
36.082
36.925
37.795
38.675
39.546
40.39
41.192
41.937
42.611
43.207
43.717
44.137
44.466
44.707
44.861
44.934
44.934
44.867
44.741
44.566
44.349
44.096
43.805
43.481
43.132
42.766
42.389
42.011
41.638
41.272
40.919
40.579
40.253
39.941
39.642
39.356
39.079
38.808
38.543
38.28
38.019
37.759
37.501
37.243
36.985
36.726
36.467
36.208
35.949
35.692
35.438
35.187
34.94
34.7
34.468
34.247
34.039
33.846
33.671
33.517
33.384
33.275
33.189
33.126
33.088
33.073
33.081
33.112
33.164
33.238
33.331
33.442
33.571
33.714
33.869
34.036
34.211
34.392
34.575
34.758
34.938
35.112
35.278
35.435
35.581
35.714
35.832
35.932
36.015
36.077
36.12
36.141
36.142
36.124
36.089
36.038
35.974
35.897
35.811
35.716
35.615
35.507
35.393
35.273
35.149
35.021
34.89
34.757
34.623
34.489
34.355
34.221
34.089
33.957
33.825
33.695
33.567
33.44
33.315
33.191
33.069
32.948
32.828
32.709
32.591
32.476
32.364
32.256
32.152
32.054
31.961
31.873
31.789
31.71
31.634
31.563
31.496
31.431
31.371
31.315
31.265
31.218
31.177
31.139
31.105
31.075
31.048
31.024
31.002
30.982
30.963
30.945
30.927
30.908
30.889
30.871
30.853
30.837
30.823
30.812
30.805
30.8
30.799
30.801
30.806
30.814
30.823
30.833
30.845
30.858
30.872
30.886
30.904
30.927
30.958
31.001
31.062
31.145
31.261
31.418
31.625
31.892
32.228
32.64
33.132
33.708
34.376
35.136
35.976
36.881
37.828
38.795
39.757
40.691
41.572
42.384
43.109
43.737
44.261
44.676
44.984
45.189
45.298
45.32
45.265
45.145
44.969
44.749
44.492
44.208
43.904
43.585
43.257
42.925
42.591
42.257
41.925
41.595
41.268
40.944
40.623
40.304
39.986
39.671
39.358
39.048
38.741
38.437
38.137
37.841
37.549
37.261
36.979
36.701
36.43
36.165
35.907
35.657
35.413
35.177
34.948
34.727
34.515
34.312
34.119
33.939
33.772
33.622
33.489
33.375
33.282
33.211
33.161
33.134
33.128
33.144
33.181
33.237
33.311
33.402
33.51
33.632
33.768
33.915
34.071
34.236
34.407
34.582
34.757
34.931
35.101
35.264
35.417
35.559
35.686
35.798
35.893
35.972
36.033
36.077
36.103
36.113
36.105
36.083
36.046
35.995
35.931
35.855
35.769
35.673
35.567
35.454
35.335
35.21
35.081
34.949
34.812
34.672
34.53
34.387
34.244
34.101
33.961
33.823
33.689
33.558
33.43
33.304
33.182
33.06
32.941
32.823
32.706
32.593
32.482
32.376
32.274
32.176
32.081
31.989
31.9
31.811
31.724
31.637
31.552
31.469
31.388
31.311
31.238
31.17
31.107
31.048
30.995
30.948
30.908
30.873
30.843
30.819
30.799
30.782
30.767
30.753
30.741
30.73
30.721
30.714
30.709
30.706
30.706
30.708
30.713
30.72
30.729
30.74
30.751
30.762
30.772
30.781
30.789
30.797
30.804
30.814
30.829
30.852
30.885
30.936
31.009
31.112
31.255
31.445
31.693
32.005
32.389
32.849
33.388
34.005
34.695
35.451
36.262
37.114
37.992
38.876
39.749
40.593
41.39
42.126
42.789
43.37
43.863
44.264
44.572
44.788
44.915
44.96
44.93
44.833
44.679
44.476
44.234
43.961
43.665
43.352
43.028
42.698
42.366
42.033
41.702
41.371
41.042
40.716
40.392
40.072
39.756
39.444
39.136
38.83
38.526
38.223
37.922
37.622
37.324
37.03
36.739
36.453
36.172
35.899
35.633
35.376
35.128
34.889
34.662
34.445
34.24
34.047
33.868
33.705
33.559
33.43
33.322
33.234
33.169
33.126
33.106
33.109
33.134
33.182
33.251
33.34
33.447
33.571
33.71
33.862
34.026
34.199
34.379
34.563
34.749
34.933
35.112
35.282
35.441
35.585
35.713
35.826
35.923
36.003
36.066
36.114
36.145
36.16
36.159
36.142
36.11
36.063
36.005
35.934
35.852
35.76
35.66
35.552
35.438
35.318
35.194
35.067
34.938
34.807
34.675
34.541
34.407
34.272
34.137
34.001
33.867
33.735
33.604
33.476
33.351
33.228
33.107
32.989
32.872
32.758
32.647
32.539
32.435
32.335
32.241
32.15
32.063
31.98
31.899
31.822
31.748
31.677
31.609
31.545
31.481
31.409
31.325
31.23
31.128
31.025
30.924
30.832
30.752
30.688
30.641
30.611
30.6
30.604
30.624
30.654
30.692
30.735
30.779
30.823
30.862
30.895
30.919
30.936
30.946
30.949
30.95
30.949
30.949
