Trial 1:0back
34.673
34.643
34.612
34.581
34.549
34.517
34.485
34.454
34.422
34.39
34.357
34.324
34.291
34.258
34.226
34.195
34.164
34.135
34.106
34.078
34.051
34.025
33.999
33.973
33.947
33.922
33.896
33.871
33.845
33.818
33.791
33.763
33.736
33.708
33.681
33.654
33.627
33.601
33.573
33.545
33.514
33.482
33.448
33.411
33.373
33.335
33.296
33.257
33.22
33.183
33.149
33.116
33.087
33.061
33.038
33.019
33.004
32.995
32.991
32.995
33.006
33.026
33.058
33.102
33.16
33.234
33.324
33.431
33.557
33.701
33.864
34.043
34.238
34.448
34.669
34.901
35.141
35.384
35.628
35.87
36.107
36.335
36.554
36.759
36.95
37.124
37.281
37.42
37.54
37.641
37.725
37.792
37.844
37.882
37.907
37.921
37.925
37.922
37.911
37.896
37.878
37.857
37.837
37.817
37.798
37.78
37.763
37.748
37.734
37.721
37.708
37.696
37.684
37.672
37.661
37.65
37.64
37.631
37.621
37.611
37.599
37.586
37.571
37.554
37.533
37.51
37.483
37.454
37.423
37.391
37.359
37.327
37.298
37.271
37.247
37.226
37.209
37.196
37.189
37.186
37.189
37.197
37.21
37.227
37.247
37.27
37.294
37.319
37.342
37.362
37.379
37.392
37.4
37.403
37.4
37.391
37.377
37.358
37.334
37.307
37.277
37.244
37.208
37.17
37.131
37.089
37.047
37.005
36.962
36.92
36.878
36.837
36.796
36.756
36.717
36.677
36.637
36.595
36.552
36.507
36.46
36.412
36.362
36.311
36.26
36.21
36.16
36.112
36.065
36.021
35.979
35.938
35.899
35.861
35.825
35.788
35.752
35.716
35.68
35.644
35.608
35.572
35.536
35.502
35.468
35.434
35.402
35.369
35.337
35.305
35.273
35.242
35.21
35.179
35.148
35.119
35.09
35.063
35.036
35.01
34.985
34.961
34.937
34.914
34.89
34.866
34.841
34.816
34.79
34.763
34.735
34.707
34.678
34.649
34.62
34.591
34.562
34.534
34.505
34.478
34.45
34.423
34.397
34.371
34.346
34.322
34.297
34.273
34.248
34.221
34.194
34.166
34.138
34.109
34.08
34.051
34.023
33.995
33.969
33.943
33.917
33.891
33.866
33.84
33.813
33.786
33.759
33.732
33.705
33.679
33.652
33.627
33.602
33.578
33.554
33.53
33.506
33.482
33.457
33.432
33.407
33.381
33.353
33.325
33.294
33.263
33.23
33.196
33.163
33.13
33.098
33.068
33.041
33.017
32.998
32.982
32.973
32.97
32.975
32.99
33.016
33.055
33.108
33.178
33.264
33.369
33.495
33.641
33.808
33.996
34.205
34.433
34.679
34.939
35.21
35.488
35.77
36.051
36.327
36.594
36.849
37.089
37.312
37.516
37.702
37.867
38.012
38.137
38.244
38.333
38.405
38.464
38.509
38.543
38.567
38.583
38.592
38.595
38.595
38.591
38.586
38.579
38.571
38.562
38.554
38.545
38.538
38.532
38.529
38.529
38.532
38.538
38.548
38.56
38.574
38.589
38.604
38.619
38.633
38.645
38.654
38.66
38.663
38.661
38.656
38.646
38.632
38.614
38.591
38.565
38.536
38.506
38.476
38.448
38.422
38.398
38.378
38.36
38.345
38.333
38.323
38.315
38.31
38.307
38.305
38.306
38.307
38.309
38.311
38.312
38.312
38.309
38.304
38.296
38.284
38.269
38.251
38.231
38.209
38.185
38.159
38.132
38.104
38.073
38.04
38.003
37.962
37.918
37.87
37.819
37.764
37.707
37.649
37.59
37.53
37.471
37.412
37.355
37.298
37.241
37.184
37.127
37.071
37.014
36.958
36.902
36.848
36.795
36.745
36.696
36.65
36.606
36.564
36.523
36.484
36.444
36.405
36.365
36.325
36.284
36.243
36.201
36.16
36.118
36.078
36.038
35.999
35.961
35.924
35.887
35.85
35.813
35.775
35.736
35.697
35.658
35.618
35.579
35.54
35.503
35.466
35.43
35.395
35.361
35.328
35.296
35.264
35.232
35.201
35.17
35.139
35.109
35.079
35.05
35.021
34.993
34.964
34.935
34.905
34.875
34.843
34.811
34.778
34.743
34.707
34.67
34.632
34.594
34.555
34.517
34.479
34.442
34.406
34.373
34.341
34.311
34.283
34.257
34.232
34.208
34.184
34.16
34.136
34.111
34.086
34.061
34.035
34.009
33.982
33.955
33.928
33.901
33.875
33.848
33.822
33.797
33.771
33.746
33.722
33.697
33.672
33.647
33.621
33.596
33.57
33.544
33.518
33.492
33.467
33.441
33.415
33.388
33.359
33.328
33.296
33.261
33.223
33.184
33.142
33.099
33.055
33.009
32.962
32.916
32.871
32.827
32.786
32.748
32.713
32.681
32.654
32.632
32.614
32.6
32.589
32.583
32.579
32.577
32.577
32.578
32.578
32.579
32.579
32.579
32.577
32.573
32.567
32.559
32.548
32.534
32.517
32.497
32.474
32.448
32.418
32.387
32.352
32.316
32.279
32.24
32.201
32.162
32.125
32.09
32.059
32.034
32.017
32.011
32.017
32.038
32.075
32.131
32.208
32.306
32.429
32.576
32.749
32.948
33.17
33.415
33.68
33.962
34.257
34.563
34.875
35.192
35.507
35.819
36.124
36.417
36.696
36.958
37.201
37.423
37.623
37.801
37.957
38.091
38.204
38.297
38.374
38.436
38.484
38.521
38.549
38.569
38.582
38.59
38.595
38.596
38.597
38.596
38.596
38.595
38.594
38.595
38.596
38.598
38.601
38.606
38.612
38.621
38.633
38.646
38.661
38.679
38.698
38.72
38.743
38.766
38.788
38.809
38.826
38.84
38.849
38.853
38.852
38.846
38.834
38.817
38.797
38.773
38.747
38.719
38.69
38.661
38.633
38.605
38.58
38.558
38.539
38.523
38.512
38.504
38.499
38.498
38.499
38.502
38.506
38.51
38.514
38.516
38.517
38.517
38.514
38.508
38.5
38.488
38.473
38.454
38.43
38.402
38.369
38.332
38.29
38.244
38.195
38.143
38.09
38.036
37.983
37.93
37.879
37.83
37.781
37.733
37.686
37.639
37.593
37.546
37.5
37.454
37.408
37.361
37.314
37.266
37.217
37.166
37.113
37.059
37.002
36.943
36.882
36.821
36.758
36.696
36.635
36.576
36.517
36.461
36.406
36.354
36.303
36.255
36.208
36.163
36.12
36.078
36.037
35.997
35.957
35.918
35.881
35.844
35.809
35.775
35.741
35.708
35.676
35.644
35.611
35.578
35.543
35.509
35.474
35.439
35.404
35.37
35.336
35.302
35.269
35.237
35.206
35.174
35.143
35.111
35.079
35.046
35.012
34.978
34.944
34.91
34.875
34.841
34.808
34.775
34.743
34.713
34.683
34.653
34.622
34.591
34.56
34.527
34.492
34.456
34.419
34.38
34.341
34.3
34.259
34.217
34.176
34.135
34.095
34.057
34.021
33.988
33.956
33.925
33.895
33.865
33.836
33.805
33.775
33.743
33.711
33.679
33.647
33.614
33.583
33.552
33.522
33.492
33.463
33.435
33.407
33.379
33.352
33.324
33.297
33.269
33.24
33.211
33.182
33.151
33.12
33.089
33.058
33.027
32.997
32.968
32.94
32.914
32.889
32.867
32.846
32.827
32.809
32.792
32.777
32.762
32.748
32.734
32.721
32.707
32.692
32.677
32.662
32.645
32.628
32.61
32.592
32.572
32.553
32.533
32.512
32.491
32.469
32.447
32.424
32.4
32.377
32.354
32.332
32.311
32.293
32.278
32.269
32.266
32.272
32.289
32.32
32.368
32.434
32.523
32.634
32.77
32.932
33.12
33.333
33.571
33.83
34.107
34.399
34.702
35.012
35.325
35.637
35.945
36.243
36.53
36.803
37.058
37.295
37.511
37.707
37.881
38.033
38.164
38.275
38.367
38.441
38.5
38.544
38.576
38.597
38.61
38.618
38.62
38.618
38.613
38.607
38.598
38.588
38.577
38.567
38.557
38.548
38.542
38.537
38.534
38.534
38.537
38.542
38.55
38.558
38.567
38.577
38.585
38.592
38.596
38.599
38.598
38.595
38.588
38.578
38.565
38.548
38.528
38.504
38.478
38.448
38.417
38.385
38.353
38.322
38.293
38.268
38.245
38.226
38.211
38.2
38.193
38.189
38.187
38.187
38.188
38.189
38.191
38.192
38.193
38.193
38.192
38.19
38.186
38.179
38.17
38.157
38.14
38.12
38.098
38.072
38.044
38.012
37.978
37.94
37.899
37.855
37.808
37.758
37.705
37.65
37.594
37.536
37.478
37.42
37.362
37.305
37.249
37.194
37.14
37.086
37.032
36.98
36.927
36.875
36.824
36.772
36.72
36.669
36.618
36.567
36.516
36.465
36.414
36.362
36.31
36.258
36.206
36.156
36.106
36.059
36.012
35.967
35.924
35.884
35.845
35.809
35.774
35.741
35.709
35.676
35.643
35.61
35.575
35.539
35.502
35.465
35.427
35.389
35.351
35.313
35.277
35.242
35.209
35.176
35.144
35.112
35.08
35.049
35.016
34.984
34.95
34.916
34.881
34.846
34.811
34.776
34.743
34.71
34.678
34.647
34.616
34.585
34.554
34.522
34.489
34.455
34.419
34.382
34.344
34.305
34.265
34.226
34.186
34.148
34.11
34.073
34.038
34.003
33.97
33.937
33.905
33.873
33.841
33.808
33.775
33.742
33.707
33.672
33.637
33.601
33.564
33.527
33.49
33.454
33.42
33.387
33.355
33.325
33.296
33.268
33.242
33.217
33.192
33.168
33.145
33.121
33.096
33.07
33.044
33.016
32.987
32.957
32.927
32.896
32.864
32.833
32.8
32.767
32.735
32.703
32.671
32.641
32.612
32.584
32.558
32.532
32.508
32.485
32.464
32.446
32.431
32.422
32.42
32.428
32.446
32.478
32.526
32.593
32.68
32.788
32.92
33.076
33.255
33.458
33.683
33.929
34.192
34.47
34.76
35.058
35.36
35.661
35.957
36.245
36.519
36.778
37.019
37.239
37.437
37.611
37.763
37.891
37.997
38.081
38.145
38.191
38.221
38.238
38.244
38.242
38.232
38.219
38.201
38.182
38.161
38.139
38.117
38.096
38.075
38.055
38.035
38.017
37.999
37.982
37.967
37.952
37.938
37.926
37.914
37.902
37.89
37.877
37.863
37.847
37.83
37.811
37.79
37.768
37.744
37.718
37.69
37.662
37.634
37.606
37.58
37.554
37.53
37.508
37.489
37.473
37.461
37.452
37.447
37.447
37.45
37.456
37.466
37.477
37.49
37.504
37.518
37.531
37.544
37.555
37.564
37.57
37.574
37.574
37.569
37.559
37.544
37.525
37.501
37.472
37.44
37.404
37.364
37.321
37.276
37.229
37.181
37.132
37.082
37.033
36.983
36.932
36.88
36.827
36.773
36.718
36.662
36.605
36.548
36.49
36.432
36.373
36.315
36.256
36.199
36.143
36.087
36.032
35.977
35.923
35.871
35.819
35.769
35.719
35.672
35.625
35.581
35.538
35.497
35.458
35.419
35.383
35.347
35.313
35.28
35.249
35.219
35.189
35.16
35.132
35.104
35.075
35.047
35.019
34.992
34.965
34.94
34.917
34.896
34.876
34.857
34.84
34.823
34.806
34.789
34.77
34.75
34.729
34.706
34.68
34.653
34.624
34.593
34.563
34.531
34.501
34.471
34.443
34.416
34.39
34.365
34.341
34.316
34.29
34.263
34.235
34.204
34.171
34.136
34.098
34.059
34.019
33.978
33.935
33.893
33.849
33.806
33.763
33.72
33.677
33.634
33.591
33.549
33.508
33.467
33.428
33.391
33.356
33.324
33.295
33.267
33.242
33.218
33.196
33.174
33.154
33.133
33.113
33.092
33.071
33.048
33.023
32.996
32.968
32.937
32.905
32.87
32.835
32.799
32.762
32.725
32.69
32.658
32.631
32.611
32.6
32.601
32.616
32.648
32.7
32.774
32.872
32.996
33.147
33.323
33.526
33.754
34.005
34.276
34.565
34.868
35.182
35.501
35.822
36.14
36.452
36.751
37.037
37.304
37.55
37.773
37.972
38.147
38.298
38.427
38.534
38.621
38.69
38.744
38.783
38.81
38.826
38.833
38.833
38.826
38.814
38.799
38.782
38.764
38.747
38.73
38.714
38.7
38.688
38.678
38.671
38.665
38.662
38.66
38.66
38.662
38.664
38.666
38.669
38.672
38.673
38.672
38.669
38.661
38.65
38.633
38.613
38.588
38.56
38.528
38.495
38.459
38.423
38.386
38.35
38.315
38.282
38.25
38.222
38.197
38.177
38.162
38.151
38.145
38.143
38.145
38.149
38.156
38.164
38.172
38.18
38.186
38.189
38.189
38.185
38.177
38.165
38.149
38.129
38.105
38.078
38.046
38.012
37.974
37.934
37.89
37.844
37.794
37.741
37.685
37.626
37.566
37.504
37.442
37.378
37.314
37.25
37.185
37.119
37.052
36.984
36.916
36.847
36.778
36.711
36.644
36.579
36.515
36.453
36.393
36.335
36.278
36.222
36.167
36.111
36.057
36.002
35.948
35.894
35.841
35.79
35.739
35.689
35.641
35.592
35.544
35.496
35.448
35.401
35.355
35.31
35.266
35.222
35.18
35.139
35.099
35.06
35.021
34.984
34.947
34.912
34.878
34.844
34.813
34.782
34.751
34.722
34.693
34.665
34.636
34.606
34.575
34.543
34.509
34.474
34.438
34.402
34.366
34.33
34.296
34.263
34.231
34.202
34.174
34.148
34.123
34.098
34.074
34.05
34.025
33.998
33.969
33.938
33.905
33.871
33.835
33.799
33.762
33.725
33.689
33.654
33.62
33.587
33.555
33.524
33.494
33.464
33.435
33.405
33.374
33.343
33.312
33.28
33.247
33.214
33.179
33.145
33.11
33.075
33.04
33.006
32.973
32.941
32.91
32.88
32.851
32.822
32.795
32.768
32.741
32.713
32.686
32.658
32.631
32.603
32.576
32.548
32.521
32.495
32.469
32.444
32.42
32.396
32.372
32.349
32.326
32.304
32.282
32.261
32.24
32.219
32.199
32.178
32.158
32.137
32.115
32.094
32.072
32.05
32.027
32.004
31.981
31.959
31.939
31.92
31.906
31.897
31.894
31.9
31.918
31.951
32.001
32.072
32.166
32.285
32.431
32.604
32.804
33.031
33.283
33.557
33.85
34.159
34.481
34.81
35.141
35.471
35.794
36.107
36.407
36.689
36.953
37.196
37.417
37.614
37.788
37.937
38.062
38.164
38.244
38.305
38.349
38.378
38.396
38.404
38.404
38.399
38.389
38.377
38.362
38.346
38.33
38.313
38.298
38.285
38.274
38.266
38.261
38.259
38.261
38.266
38.275
38.286
38.3
38.315
38.332
38.348
38.363
38.376
38.388
38.396
38.4
38.4
38.396
38.386
38.371
38.351
38.325
38.296
38.263
38.228
38.191
38.153
38.115
38.078
38.043
38.011
37.982
37.956
37.933
37.914
37.898
37.885
37.873
37.864
37.855
37.848
37.841
37.835
37.829
37.822
37.814
37.804
37.793
37.779
37.761
37.741
37.716
37.686
37.653
37.615
37.573
37.529
37.481
37.431
37.38
37.327
37.273
37.217
37.161
37.104
37.046
36.989
36.931
36.874
36.817
36.76
36.703
36.647
36.591
36.534
36.477
36.419
36.36
36.3
36.238
36.174
36.109
36.044
35.979
35.916
35.853
35.793
35.735
35.68
35.628
35.578
35.53
35.485
35.441
35.4
35.36
35.32
35.282
35.244
35.206
35.169
35.132
35.096
35.06
35.025
34.991
34.957
34.924
34.891
34.859
34.826
34.792
34.759
34.725
34.69
34.654
34.617
34.58
34.543
34.506
34.469
34.434
34.401
34.369
34.339
34.31
34.282
34.254
34.225
34.197
34.167
34.137
34.105
34.073
34.039
34.004
33.967
33.928
33.889
33.848
33.807
33.766
33.724
33.683
33.643
33.604
33.567
33.531
33.496
33.463
33.43
33.398
33.366
33.334
33.301
33.269
33.236
33.203
33.169
33.135
33.1
33.065
33.029
32.993
32.957
32.921
32.885
32.85
32.816
32.784
32.753
32.724
32.695
32.668
32.641
32.614
32.587
32.559
32.53
32.501
32.47
32.44
32.409
32.379
32.35
32.322
32.296
32.272
32.25
32.23
32.212
32.196
32.181
32.167
32.154
32.141
32.127
32.112
32.095
32.076
32.054
32.029
32.002
31.974
31.943
31.912
31.88
31.849
31.817
31.787
31.758
31.731
31.705
31.682
31.662
31.645
31.634
31.629
31.632
31.645
31.669
31.707
31.76
31.83
31.918
32.027
32.156
32.307
32.478
32.669
32.88
33.107
33.35
33.606
33.873
34.147
34.425
34.704
34.98
35.249
35.509
35.755
35.985
36.195
36.385
36.551
36.695
36.816
36.914
36.992
37.051
37.093
37.119
37.134
37.138
37.135
37.126
37.113
37.097
37.079
37.059
37.039
37.019
36.999
36.98
36.963
36.948
36.935
36.925
36.917
36.911
36.908
36.906
36.905
36.905
36.905
36.905
36.904
36.903
36.901
36.897
36.892
36.886
36.877
36.865
36.852
36.835
36.816
36.794
36.77
36.744
36.717
36.69
36.663
36.637
36.612
36.589
36.57
36.553
36.541
36.532
36.527
36.525
36.525
36.527
36.53
36.532
36.534
36.534
36.531
36.527
36.521
36.512
36.502
36.49
36.476
36.461
36.443
36.424
36.402
36.378
36.351
36.322
36.291
36.256
36.219
36.179
36.136
36.092
36.046
36.0
35.954
35.907
35.861
35.814
35.767
35.72
35.672
35.624
35.575
35.526
35.475
35.425
35.373
35.322
35.271
35.22
35.169
35.119
35.07
35.022
34.975
34.929
34.883
34.837
34.793
34.75
34.707
34.666
34.626
34.586
34.546
34.506
34.467
34.428
34.39
34.353
34.317
34.283
34.249
34.215
34.182
34.148
34.114
34.08
34.045
34.011
33.976
33.943
33.909
33.877
33.846
33.816
33.787
33.761
33.736
33.712
33.69
33.67
33.649
33.629
33.608
33.585
33.561
33.536
33.509
33.48
33.451
33.421
33.39
33.359
33.329
33.299
33.27
33.242
33.216
33.19
33.166
33.143
33.121
33.099
33.079
33.059
33.04
33.021
33.002
32.983
32.963
32.942
32.92
32.897
32.873
32.847
32.82
32.792
32.763
32.734
32.704
32.675
32.647
32.619
32.592
32.565
32.537
32.509
32.48
32.451
32.419
32.386
32.352
32.315
32.277
32.236
32.194
32.149
32.103
32.056
32.009
31.962
31.917
31.873
31.832
31.794
31.76
31.73
31.705
31.684
31.667
31.655
31.646
31.641
31.64
31.641
31.646
31.655
31.669
31.689
31.716
31.752
31.797
31.854
31.924
32.008
32.108
32.224
32.356
32.504
32.668
32.847
33.039
33.242
33.455
33.673
33.894
34.116
34.335
34.549
34.755
34.951
35.134
35.302
35.454
35.589
35.707
35.807
35.89
35.957
36.009
36.048
36.074
36.09
36.096
36.094
36.087
36.074
36.059
36.042
36.023
36.003
35.983
35.963
35.944
35.925
35.907
35.891
35.877
35.865
35.856
35.849
35.844
35.839
35.835
35.831
35.827
35.821
35.814
35.805
35.793
35.778
35.761
35.742
35.72
35.698
35.675
35.653
35.631
35.611
35.593
35.576
35.561
35.548
35.536
35.526
35.519
35.515
35.513
35.515
35.52
35.528
35.539
35.552
35.567
35.584
35.601
35.617
35.633
35.646
35.657
35.663
35.665
35.661
35.653
35.639
35.622
35.601
35.578
35.553
35.527
35.5
35.474
35.448
35.422
35.396
35.37
35.343
35.314
35.284
35.251
35.216
35.179
35.139
35.099
35.057
35.015
34.973
34.931
34.89
34.849
34.809
34.771
34.733
34.696
34.66
34.623
34.587
34.55
34.514
34.478
34.442
34.406
34.37
34.335
34.299
34.264
34.228
34.192
34.157
34.123
34.091
34.06
34.032
34.006
33.981
33.958
33.935
33.913
33.891
33.868
33.844
33.82
33.795
33.769
33.744
33.718
33.692
33.668
33.643
33.62
33.598
33.576
33.555
33.534
33.514
33.493
33.472
33.451
33.428
33.406
33.382
33.358
33.335
33.311
33.288
33.266
33.244
33.224
33.205
33.186
33.168
33.151
33.133
33.116
33.098
33.079
33.061
33.042
33.023
33.003
32.983
32.963
32.942
32.921
32.9
32.878
32.856
32.834
32.813
32.792
32.772
32.753
32.736
32.72
32.704
32.69
32.676
32.663
32.65
32.637
32.623
32.609
32.595
32.579
32.563
32.545
32.525
32.504
32.482
32.459
32.436
32.411
32.387
32.362
32.337
32.311
32.286
32.261
32.237
32.213
32.19
32.168
32.147
32.127
32.108
32.089
32.072
32.057
32.043
32.033
32.026
32.026
32.033
32.05
32.078
32.12
32.177
32.25
32.342
32.452
32.581
32.729
32.895
33.079
33.277
33.488
33.709
33.938
34.17
34.403
34.633
34.857
35.073
35.277
35.469
35.646
35.808
35.954
36.083
36.197
36.295
36.378
36.447
36.502
36.545
36.576
36.597
36.61
36.615
36.615
36.611
36.605
36.598
36.591
36.585
36.58
36.577
36.576
36.576
36.578
36.581
36.586
36.592
36.6
36.609
36.62
36.632
36.646
36.661
36.677
36.693
36.708
36.721
36.732
36.739
36.743
36.743
36.741
36.735
36.727
36.716
36.704
36.69
36.676
36.661
36.646
36.63
36.615
36.6
36.586
36.574
36.564
36.555
36.549
36.545
36.542
36.542
36.544
36.549
36.554
36.561
36.569
36.577
36.584
36.59
36.594
36.596
36.595
36.591
36.584
36.573
36.559
36.542
36.521
36.498
36.472
36.444
36.414
36.382
36.349
36.315
36.279
36.243
36.206
36.167
36.129
36.09
36.051
36.012
35.974
35.936
35.899
35.862
35.827
35.792
35.757
35.723
35.689
35.654
35.618
35.581
35.544
35.506
35.467
35.428
35.389
35.35
35.312
35.273
35.235
35.199
35.163
35.13
35.098
35.066
35.036
35.006
34.975
34.945
34.915
34.885
34.855
34.826
34.797
34.77
34.745
34.721
34.7
34.68
34.661
34.643
34.624
34.605
34.585
34.564
34.543
34.521
34.498
34.475
34.451
34.426
34.401
34.376
34.349
