Trial 1:0back
34.238
34.226
34.216
34.204
34.191
34.175
34.158
34.14
34.122
34.104
34.088
34.073
34.061
34.05
34.038
34.026
34.013
34.0
33.987
33.976
33.966
33.957
33.95
33.943
33.936
33.927
33.917
33.907
33.896
33.886
33.876
33.867
33.859
33.851
33.844
33.836
33.828
33.821
33.814
33.808
33.801
33.794
33.786
33.779
33.773
33.768
33.766
33.766
33.768
33.775
33.785
33.803
33.828
33.862
33.908
33.968
34.04
34.125
34.222
34.331
34.45
34.578
34.712
34.852
34.995
35.138
35.28
35.417
35.548
35.672
35.786
35.889
35.982
36.065
36.137
36.199
36.252
36.295
36.329
36.357
36.378
36.394
36.406
36.413
36.418
36.42
36.422
36.423
36.424
36.426
36.429
36.433
36.439
36.446
36.454
36.463
36.473
36.484
36.496
36.509
36.521
36.533
36.545
36.556
36.567
36.577
36.586
36.594
36.598
36.598
36.593
36.583
36.568
36.548
36.523
36.496
36.467
36.435
36.401
36.366
36.33
36.295
36.26
36.229
36.201
36.176
36.155
36.138
36.127
36.12
36.116
36.115
36.115
36.115
36.114
36.112
36.108
36.102
36.093
36.083
36.07
36.054
36.037
36.018
35.998
35.979
35.961
35.944
35.927
35.91
35.892
35.872
35.85
35.827
35.801
35.775
35.748
35.722
35.696
35.671
35.646
35.622
35.598
35.574
35.549
35.525
35.5
35.473
35.445
35.415
35.384
35.354
35.323
35.294
35.264
35.237
35.211
35.187
35.166
35.148
35.132
35.117
35.103
35.089
35.074
35.059
35.044
35.029
35.014
34.998
34.982
34.965
34.947
34.928
34.908
34.887
34.865
34.843
34.821
34.8
34.779
34.759
34.741
34.723
34.709
34.697
34.689
34.683
34.678
34.675
34.672
34.669
34.664
34.656
34.644
34.629
34.611
34.591
34.569
34.548
34.527
34.507
34.489
34.472
34.457
34.444
34.432
34.419
34.405
34.389
34.37
34.35
34.328
34.305
34.283
34.261
34.24
34.22
34.202
34.185
34.17
34.157
34.148
34.141
34.136
34.133
34.138
34.153
34.177
34.207
34.24
34.27
34.294
34.307
34.308
34.295
34.27
34.235
34.191
34.142
34.092
34.042
33.994
33.95
33.909
33.872
33.84
33.813
33.791
33.773
33.759
33.746
33.735
33.725
33.715
33.707
33.699
33.693
33.689
33.688
33.69
33.696
33.707
33.724
33.748
33.779
33.819
33.869
33.928
33.997
34.078
34.169
34.271
34.382
34.503
34.629
34.76
34.892
35.023
35.151
35.276
35.395
35.509
35.616
35.713
35.802
35.881
35.95
36.01
36.062
36.106
36.142
36.172
36.197
36.218
36.234
36.248
36.26
36.271
36.281
36.292
36.304
36.317
36.33
36.342
36.355
36.37
36.388
36.409
36.431
36.453
36.474
36.491
36.504
36.512
36.513
36.509
36.498
36.483
36.462
36.438
36.41
36.38
36.347
36.312
36.276
36.241
36.205
36.17
36.135
36.101
36.067
36.035
36.004
35.977
35.952
35.931
35.914
35.9
35.89
35.883
35.878
35.876
35.873
35.871
35.868
35.864
35.86
35.857
35.855
35.854
35.854
35.855
35.856
35.856
35.856
35.854
35.852
35.848
35.843
35.836
35.827
35.817
35.805
35.792
35.776
35.758
35.738
35.715
35.689
35.662
35.634
35.607
35.579
35.552
35.526
35.499
35.472
35.446
35.419
35.393
35.369
35.345
35.323
35.301
35.278
35.256
35.233
35.208
35.181
35.153
35.125
35.098
35.072
35.048
35.025
35.003
34.983
34.965
34.949
34.934
34.923
34.913
34.905
34.898
34.89
34.882
34.872
34.861
34.847
34.83
34.811
34.789
34.766
34.742
34.719
34.697
34.675
34.655
34.636
34.618
34.602
34.587
34.574
34.563
34.554
34.547
34.542
34.539
34.537
34.537
34.536
34.535
34.533
34.529
34.522
34.512
34.5
34.485
34.468
34.45
34.43
34.409
34.386
34.361
34.334
34.308
34.282
34.259
34.237
34.218
34.2
34.183
34.167
34.152
34.139
34.128
34.119
34.111
34.105
34.1
34.096
34.091
34.085
34.077
34.067
34.054
34.04
34.023
34.006
33.989
33.972
33.958
33.945
33.934
33.924
33.914
33.905
33.897
33.89
33.887
33.888
33.893
33.903
33.918
33.939
33.967
34.004
34.049
34.104
34.17
34.248
34.338
34.439
34.55
34.67
34.797
34.929
35.062
35.196
35.329
35.46
35.587
35.709
35.826
35.935
36.037
36.129
36.211
36.283
36.344
36.395
36.437
36.471
36.5
36.523
36.541
36.554
36.563
36.567
36.565
36.56
36.552
36.542
36.531
36.52
36.51
36.501
36.494
36.489
36.485
36.484
36.485
36.487
36.492
36.498
36.505
36.513
36.522
36.53
36.537
36.541
36.542
36.54
36.535
36.525
36.512
36.495
36.475
36.453
36.427
36.4
36.371
36.341
36.312
36.284
36.257
36.232
36.206
36.182
36.157
36.133
36.109
36.088
36.069
36.054
36.041
36.032
36.023
36.016
36.011
36.007
36.005
36.004
36.004
36.004
36.004
36.002
35.998
35.992
35.984
35.973
35.961
35.947
35.932
35.916
35.899
35.881
35.861
35.84
35.816
35.79
35.763
35.743
35.733
35.732
35.739
35.748
35.755
35.755
35.745
35.723
35.691
35.649
35.6
35.545
35.486
35.424
35.36
35.295
35.231
35.172
35.118
35.071
35.032
35.001
34.978
34.962
34.953
34.949
34.948
34.948
34.949
34.949
34.947
34.944
34.94
34.933
34.925
34.914
34.901
34.886
34.87
34.849
34.826
34.799
34.77
34.741
34.711
34.684
34.66
34.639
34.622
34.607
34.595
34.586
34.577
34.569
34.561
34.553
34.545
34.537
34.528
34.518
34.507
34.494
34.479
34.462
34.445
34.427
34.409
34.392
34.376
34.36
34.346
34.331
34.317
34.303
34.289
34.277
34.265
34.254
34.245
34.235
34.226
34.218
34.21
34.203
34.196
34.188
34.18
34.172
34.165
34.158
34.151
34.145
34.137
34.129
34.12
34.108
34.096
34.081
34.065
34.048
34.03
34.01
33.99
33.969
33.947
33.925
33.904
33.884
33.866
33.852
33.841
33.834
33.83
33.829
33.833
33.843
33.859
33.882
33.914
33.954
34.003
34.062
34.134
34.218
34.316
34.426
34.546
34.674
34.81
34.951
35.095
35.242
35.387
35.529
35.666
35.795
35.915
36.026
36.128
36.221
36.304
36.378
36.442
36.496
36.541
36.578
36.608
36.63
36.647
36.659
36.669
36.676
36.682
36.687
36.692
36.697
36.701
36.705
36.707
36.71
36.712
36.715
36.719
36.724
36.731
36.738
36.746
36.754
36.762
36.771
36.781
36.79
36.799
36.808
36.814
36.816
36.816
36.812
36.806
36.797
36.785
36.77
36.751
36.727
36.699
36.668
36.635
36.601
36.567
36.534
36.503
36.474
36.447
36.422
36.4
36.379
36.358
36.338
36.32
36.302
36.286
36.271
36.257
36.241
36.225
36.207
36.189
36.172
36.156
36.142
36.13
36.12
36.113
36.109
36.105
36.101
36.096
36.089
36.081
36.07
36.058
36.043
36.025
36.003
35.978
35.95
35.92
35.888
35.857
35.827
35.798
35.769
35.742
35.714
35.687
35.661
35.634
35.608
35.582
35.558
35.534
35.511
35.488
35.466
35.445
35.425
35.406
35.388
35.369
35.35
35.33
35.311
35.293
35.276
35.26
35.243
35.225
35.206
35.185
35.164
35.143
35.124
35.107
35.09
35.075
35.06
35.045
35.03
35.014
34.999
34.984
34.97
34.956
34.943
34.931
34.918
34.904
34.89
34.875
34.859
34.842
34.823
34.803
34.782
34.76
34.737
34.713
34.69
34.668
34.646
34.625
34.605
34.585
34.566
34.548
34.53
34.513
34.497
34.481
34.466
34.452
34.437
34.423
34.409
34.396
34.385
34.375
34.367
34.36
34.354
34.349
34.343
34.336
34.327
34.316
34.303
34.289
34.273
34.256
34.239
34.221
34.203
34.185
34.167
34.149
34.13
34.112
34.095
34.08
34.066
34.053
34.041
34.03
34.02
34.009
33.999
33.989
33.98
33.971
33.964
33.958
33.954
33.951
33.95
33.95
33.952
33.958
33.969
33.988
34.016
34.056
34.109
34.177
34.259
34.355
34.462
34.58
34.707
34.842
34.982
35.126
35.271
35.417
35.559
35.696
35.826
35.948
36.062
36.168
36.263
36.349
36.424
36.491
36.548
36.597
36.638
36.671
36.697
36.716
36.73
36.737
36.738
36.734
36.723
36.707
36.688
36.666
36.645
36.626
36.609
36.597
36.589
36.586
36.588
36.593
36.601
36.611
36.622
36.633
36.644
36.655
36.665
36.672
36.675
36.674
36.667
36.655
36.637
36.614
36.587
36.555
36.52
36.484
36.447
36.41
36.374
36.339
36.305
36.273
36.242
36.212
36.185
36.16
36.137
36.118
36.101
36.086
36.074
36.064
36.057
36.054
36.053
36.056
36.06
36.067
36.074
36.081
36.088
36.093
36.096
36.095
36.092
36.084
36.073
36.056
36.035
36.01
35.98
35.942
35.896
35.843
35.787
35.731
35.677
35.626
35.579
35.538
35.502
35.472
35.447
35.428
35.415
35.406
35.4
35.396
35.394
35.392
35.39
35.387
35.383
35.377
35.369
35.358
35.345
35.329
35.312
35.292
35.27
35.245
35.216
35.185
35.153
35.12
35.089
35.059
35.033
35.01
34.99
34.971
34.955
34.946
34.944
34.949
34.959
34.972
34.985
34.994
34.999
34.996
34.987
34.971
34.948
34.919
34.884
34.846
34.806
34.768
34.73
34.696
34.662
34.63
34.6
34.571
34.544
34.52
34.499
34.481
34.467
34.457
34.449
34.443
34.438
34.433
34.427
34.419
34.41
34.398
34.386
34.373
34.36
34.346
34.33
34.312
34.291
34.269
34.246
34.223
34.2
34.179
34.16
34.144
34.13
34.119
34.109
34.099
34.09
34.082
34.074
34.067
34.061
34.056
34.05
34.045
34.04
34.034
34.028
34.022
34.016
34.012
34.011
34.014
34.024
34.042
34.07
34.109
34.159
34.224
34.302
34.395
34.506
34.637
34.788
34.953
35.128
35.307
35.486
35.66
35.825
35.98
36.122
36.25
36.363
36.461
36.544
36.612
36.668
36.711
36.744
36.769
36.787
36.8
36.809
36.815
36.817
36.818
36.818
36.817
36.817
36.817
36.817
36.816
36.814
36.812
36.809
36.808
36.807
36.807
36.807
36.807
36.806
36.804
36.799
36.787
36.768
36.742
36.711
36.677
36.644
36.613
36.587
36.566
36.549
36.536
36.525
36.518
36.513
36.51
36.507
36.505
36.503
36.499
36.494
36.487
36.477
36.466
36.453
36.44
36.427
36.413
36.4
36.385
36.37
36.354
36.337
36.322
36.309
36.297
36.288
36.28
36.273
36.267
36.261
36.257
36.254
36.253
36.254
36.255
36.256
36.254
36.25
36.241
36.227
36.208
36.183
36.154
36.121
36.084
36.043
35.999
35.952
35.904
35.857
35.811
35.767
35.727
35.69
35.656
35.625
35.596
35.571
35.548
35.528
35.509
35.491
35.472
35.453
35.433
35.411
35.388
35.364
35.339
35.312
35.282
35.247
35.211
35.174
35.137
35.101
35.068
35.04
35.015
34.994
34.977
34.963
34.951
34.941
34.933
34.926
34.919
34.912
34.904
34.895
34.885
34.876
34.865
34.855
34.843
34.83
34.815
34.798
34.78
34.761
34.741
34.72
34.699
34.678
34.656
34.633
34.609
34.587
34.566
34.547
34.532
34.522
34.519
34.522
34.53
34.539
34.547
34.553
34.554
34.551
34.542
34.528
34.51
34.488
34.463
34.436
34.406
34.374
34.341
34.306
34.271
34.237
34.205
34.176
34.152
34.132
34.115
34.102
34.09
34.08
34.07
34.061
34.054
34.049
34.047
34.045
34.045
34.044
34.041
34.037
34.029
34.019
34.007
33.993
33.977
33.961
33.945
33.928
33.913
33.899
33.886
33.875
33.866
33.863
33.866
33.877
33.899
33.933
33.979
34.038
34.111
34.197
34.297
34.41
34.536
34.673
34.82
34.976
35.138
35.304
35.47
35.634
35.794
35.948
36.092
36.228
36.353
36.467
36.569
36.659
36.735
36.798
36.849
36.888
36.918
36.94
36.955
36.966
36.974
36.981
36.988
36.995
37.004
37.014
37.025
37.038
37.052
37.068
37.085
37.103
37.122
37.139
37.155
37.169
37.179
37.186
37.188
37.187
37.181
37.173
37.164
37.155
37.146
37.137
37.128
37.118
37.109
37.098
37.086
37.071
37.053
37.031
37.005
36.977
36.947
36.915
36.883
36.85
36.816
36.783
36.749
36.718
36.689
36.663
36.639
36.616
36.595
36.574
36.554
36.536
36.519
36.506
36.494
36.484
36.474
36.465
36.456
36.447
36.439
36.431
36.424
36.417
36.409
36.398
36.385
36.368
36.349
36.327
36.303
36.278
36.251
36.223
36.194
36.165
36.135
36.105
36.077
36.049
36.022
35.994
35.966
35.938
35.91
35.883
35.856
35.831
35.805
35.78
35.755
35.728
35.7
35.669
35.636
35.602
35.567
35.532
35.497
35.464
35.432
35.4
35.367
35.335
35.303
35.273
35.246
35.223
35.202
35.186
35.172
35.159
35.148
35.138
35.128
35.117
35.105
35.093
35.079
35.064
35.048
35.03
35.011
34.991
34.971
34.949
34.927
34.904
34.88
34.857
34.835
34.814
34.794
34.776
34.76
34.744
34.729
34.715
34.701
34.688
34.676
34.666
34.657
34.648
34.638
34.628
34.615
34.6
34.582
34.563
34.542
34.521
34.5
34.479
34.458
34.437
34.416
34.395
34.375
34.356
34.339
34.322
34.307
34.293
34.28
34.269
34.259
34.251
34.244
34.237
34.229
34.22
34.211
34.2
34.189
34.176
34.162
34.146
34.13
34.112
34.092
34.07
34.047
34.024
34.0
33.977
33.955
33.934
33.916
33.899
33.886
33.874
33.866
33.861
33.858
33.857
33.857
33.859
33.863
33.868
33.876
33.886
33.901
33.92
33.945
33.979
34.021
34.073
34.136
34.212
34.3
34.4
34.511
34.633
34.763
34.901
35.045
35.192
35.342
35.491
35.64
35.785
35.927
36.062
36.19
36.308
36.416
36.514
36.604
36.684
36.756
36.821
36.879
36.931
36.977
37.017
37.052
37.08
37.101
37.117
37.127
37.132
37.133
37.132
37.128
37.122
37.116
37.108
37.099
37.088
37.076
37.063
37.049
37.036
37.023
37.01
36.997
36.985
36.972
36.96
36.948
36.937
36.926
36.917
36.907
36.898
36.889
36.878
36.866
36.852
36.837
36.819
36.8
36.78
36.759
36.738
36.716
36.693
36.67
36.647
36.622
36.598
36.574
36.552
36.533
36.517
36.504
36.494
36.484
36.476
36.468
36.462
36.456
36.451
36.445
36.44
36.432
36.422
36.41
36.395
36.377
36.356
36.332
36.306
36.278
36.249
36.218
36.185
36.152
36.118
36.083
36.046
36.01
35.971
35.927
35.878
35.827
35.775
35.725
35.679
35.639
35.605
35.577
35.556
35.54
35.529
35.521
35.516
35.512
35.507
35.499
35.489
35.475
35.458
35.438
35.415
35.391
35.366
35.341
35.317
35.292
35.269
35.246
35.224
35.204
35.186
35.17
35.156
35.144
35.134
35.126
35.117
35.109
35.102
35.093
35.083
35.07
35.054
35.035
35.012
34.987
34.961
34.932
34.903
34.874
34.846
34.819
34.795
34.773
34.753
34.735
34.72
34.708
34.699
34.692
34.687
34.682
34.678
34.673
34.665
34.656
34.644
34.629
34.61
34.588
34.562
34.533
34.503
34.471
34.441
34.413
34.388
34.366
34.346
34.33
34.314
34.3
34.287
34.274
34.262
34.25
34.238
34.227
34.216
34.207
34.199
34.194
34.19
34.187
34.183
34.179
34.172
34.162
34.148
34.129
34.108
34.085
34.062
34.039
34.018
34.0
33.984
33.97
33.959
33.951
33.944
33.941
33.94
33.943
33.95
33.964
33.984
34.013
34.051
34.1
34.16
34.234
34.321
34.421
34.535
34.662
34.8
34.947
35.102
35.261
35.423
35.584
35.741
35.892
36.035
36.169
36.293
36.406
36.508
36.598
36.675
36.74
36.793
36.835
36.867
36.89
36.907
36.917
36.924
36.927
36.928
36.927
36.925
36.921
36.916
36.911
36.906
36.902
36.899
36.897
36.895
36.893
36.892
36.892
36.892
36.893
36.895
36.897
36.899
36.899
36.897
36.892
36.883
36.869
36.851
36.83
36.806
36.78
36.752
36.723
36.691
36.657
36.621
36.583
36.544
36.505
36.468
36.434
36.404
36.377
36.354
36.334
36.317
36.303
36.293
36.286
36.281
36.279
36.279
36.279
36.281
36.283
36.284
36.285
36.284
36.281
36.275
36.267
36.256
36.243
36.229
36.213
36.194
36.174
36.151
36.127
36.102
36.077
36.05
36.023
35.993
35.962
35.93
35.896
35.863
35.829
35.796
35.763
35.73
35.697
35.662
35.627
35.591
35.554
35.518
35.483
35.449
35.417
35.387
35.359
35.333
35.308
35.283
35.258
35.234
35.209
35.185
35.16
35.136
35.112
35.089
35.067
35.044
35.022
35.0
34.978
34.956
34.937
34.919
34.904
34.891
34.881
34.873
34.867
34.861
34.855
34.848
34.84
34.831
34.822
34.81
34.798
34.783
34.766
34.748
34.728
34.708
34.686
34.665
34.643
34.62
34.598
34.577
34.556
34.538
34.521
34.505
34.491
34.477
34.463
34.449
34.436
34.424
34.412
34.401
34.39
34.377
34.364
34.349
34.333
34.316
34.298
34.279
34.26
34.239
34.217
34.196
34.176
34.159
34.143
34.13
34.12
34.111
34.103
34.095
34.086
34.076
34.065
34.055
34.052
34.059
34.074
34.094
34.116
34.136
34.151
34.16
34.161
34.153
34.136
34.112
34.081
34.045
34.004
33.962
33.92
33.879
33.84
33.805
33.774
33.749
33.732
33.726
33.733
33.755
33.795
33.85
33.923
34.012
34.117
34.238
34.373
34.52
34.679
34.847
35.022
35.201
35.38
35.554
35.722
35.881
36.029
36.166
36.292
36.406
36.506
36.593
36.665
36.724
36.77
36.806
36.834
36.855
36.871
36.884
36.895
36.905
36.914
36.922
36.93
36.938
36.947
36.957
36.967
36.979
36.992
37.006
37.02
37.033
37.047
37.059
37.07
37.08
37.089
37.095
37.1
37.102
37.102
37.098
37.09
37.078
37.062
37.041
37.016
36.987
36.956
36.922
36.887
36.852
36.817
36.782
36.75
36.72
36.693
36.668
36.646
36.625
36.606
36.587
36.569
36.551
36.534
36.517
36.5
36.483
36.467
36.453
36.44
36.428
36.417
36.407
36.396
36.385
36.374
36.361
36.349
36.335
36.321
36.307
36.292
36.277
36.261
36.245
36.229
36.213
36.196
36.179
36.16
36.14
36.117
36.091
36.061
36.029
35.995
35.959
35.92
35.88
35.839
35.796
35.753
35.711
35.671
35.633
35.598
35.566
35.536
35.509
35.484
35.462
35.441
35.422
35.402
35.382
35.361
35.34
35.317
35.294
35.271
35.247
35.224
35.201
35.178
35.155
35.13
35.106
35.081
35.057
35.034
35.012
34.993
34.974
34.958
34.943
34.93
34.918
34.907
34.897
34.886
34.874
34.862
34.848
34.835
34.821
34.807
34.793
34.778
34.762
34.745
34.726
34.705
34.681
34.656
34.63
34.604
34.578
34.553
34.529
34.506
34.483
34.462
34.441
34.42
34.401
34.382
34.365
34.349
34.336
34.326
34.318
34.312
34.307
34.302
34.295
34.286
34.276
34.263
34.249
34.233
34.217
34.199
34.179
34.158
34.134
34.111
34.089
34.068
34.05
34.034
34.02
34.007
33.997
33.988
33.98
33.973
33.967
33.963
33.96
33.957
33.956
33.956
33.96
33.967
33.979
33.999
34.029
34.07
34.122
34.187
34.267
34.362
34.473
34.599
34.737
34.885
35.038
35.195
35.354
35.512
35.668
35.818
35.96
36.092
36.211
36.318
36.412
36.492
36.561
36.619
36.667
36.708
36.743
36.773
36.799
36.822
36.842
36.859
36.874
36.887
36.896
36.902
36.905
36.907
36.907
36.908
36.909
36.91
36.911
36.912
36.911
36.91
36.909
36.907
36.905
36.903
36.902
36.9
36.896
36.891
36.883
36.871
36.857
36.837
36.814
36.786
36.756
36.723
36.688
36.651
36.613
36.573
36.531
36.489
36.449
36.41
36.376
36.346
36.319
36.297
36.278
36.261
36.247
36.237
36.23
36.225
36.224
36.225
36.228
36.233
36.241
36.251
36.26
36.269
36.274
36.276
36.275
36.27
36.262
36.25
36.234
36.216
36.195
36.171
36.145
36.119
36.092
36.065
36.038
36.01
35.979
35.947
35.915
35.883
35.853
35.825
35.8
35.776
35.752
35.729
35.705
35.68
35.656
35.632
35.607
35.582
35.557
35.531
35.506
35.48
35.453
35.423
35.391
35.357
35.32
35.283
35.247
35.213
35.181
35.151
35.124
35.1
35.077
35.056
35.037
35.019
35.002
34.987
34.973
34.959
34.946
34.934
34.92
34.906
34.89
34.872
34.852
34.833
34.814
34.796
34.778
34.76
34.74
34.719
34.698
34.676
34.654
34.635
34.617
34.601
34.587
34.574
34.563
34.555
34.548
34.542
34.536
34.531
34.525
34.518
34.511
34.502
34.493
34.483
34.473
34.461
34.449
34.437
34.423
34.408
34.393
34.378
34.361
34.344
34.325
34.305
34.285
34.263
34.242
34.22
34.199
34.176
34.154
34.13
34.106
34.083
34.062
34.043
34.028
34.019
34.017
34.022
34.036
34.06
34.093
34.137
34.192
34.259
34.337
34.427
34.53
34.646
34.773
34.912
35.059
35.213
35.371
35.531
35.69
35.846
35.997
36.14
36.275
36.401
36.515
36.619
36.711
36.792
36.861
36.919
36.965
37.001
37.027
37.044
37.053
37.057
37.056
37.052
37.045
37.036
37.026
37.016
37.005
