Trial 1:0back
35.783
35.794
35.806
35.818
35.83
35.842
35.855
35.867
35.878
35.889
35.898
35.906
35.912
35.915
35.916
35.914
35.906
35.892
35.873
35.848
35.82
35.789
35.757
35.724
35.692
35.661
35.63
35.599
35.569
35.54
35.512
35.484
35.457
35.431
35.405
35.38
35.355
35.33
35.306
35.282
35.258
35.233
35.207
35.18
35.151
35.121
35.09
35.059
35.027
34.994
34.96
34.926
34.893
34.86
34.828
34.797
34.767
34.739
34.711
34.684
34.659
34.635
34.612
34.59
34.569
34.547
34.527
34.507
34.488
34.47
34.453
34.436
34.419
34.402
34.384
34.366
34.347
34.327
34.308
34.288
34.267
34.247
34.227
34.208
34.189
34.171
34.153
34.136
34.119
34.103
34.087
34.071
34.057
34.044
34.032
34.021
34.009
33.998
33.987
33.976
33.965
33.955
33.943
33.93
33.916
33.9
33.882
33.863
33.842
33.821
33.799
33.778
33.758
33.739
33.721
33.706
33.692
33.68
33.669
33.659
33.649
33.638
33.626
33.614
33.601
33.588
33.573
33.558
33.543
33.528
33.513
33.501
33.492
33.486
33.486
33.494
33.511
33.54
33.584
33.645
33.724
33.823
33.942
34.082
34.241
34.418
34.611
34.82
35.04
35.268
35.501
35.734
35.963
36.185
36.396
36.594
36.775
36.938
37.08
37.201
37.299
37.376
37.433
37.472
37.495
37.502
37.496
37.477
37.448
37.411
37.37
37.329
37.291
37.259
37.232
37.21
37.191
37.174
37.159
37.144
37.13
37.116
37.102
37.088
37.075
37.063
37.052
37.042
37.033
37.026
37.019
37.011
37.003
36.993
36.983
36.972
36.96
36.944
36.925
36.901
36.872
36.839
36.803
36.763
36.721
36.678
36.635
36.593
36.552
36.514
36.48
36.45
36.426
36.406
36.392
36.382
36.376
36.374
36.374
36.376
36.379
36.383
36.386
36.387
36.387
36.386
36.385
36.384
36.383
36.383
36.382
36.382
36.382
36.381
36.38
36.378
36.374
36.369
36.362
36.352
36.339
36.322
36.303
36.281
36.255
36.227
36.194
36.157
36.116
36.073
36.028
35.983
35.938
35.893
35.85
35.808
35.767
35.726
35.685
35.646
35.606
35.568
35.531
35.495
35.459
35.425
35.392
35.36
35.328
35.296
35.264
35.231
35.197
35.165
35.134
35.105
35.076
35.049
35.022
34.994
34.966
34.937
34.908
34.877
34.847
34.816
34.785
34.754
34.724
34.695
34.667
34.64
34.612
34.585
34.558
34.531
34.505
34.479
34.455
34.431
34.407
34.384
34.36
34.337
34.314
34.291
34.269
34.247
34.226
34.206
34.186
34.165
34.146
34.126
34.107
34.088
34.07
34.052
34.034
34.017
34.003
33.989
33.977
33.965
33.954
33.942
33.928
33.914
33.898
33.881
33.862
33.842
33.822
33.8
33.778
33.756
33.735
33.716
33.698
33.681
33.665
33.65
33.637
33.624
33.611
33.599
33.587
33.574
33.561
33.547
33.532
33.518
33.504
33.492
33.48
33.47
33.461
33.452
33.443
33.434
33.424
33.414
33.403
33.391
33.378
33.364
33.348
33.332
33.315
33.299
33.282
33.265
33.25
33.236
33.226
33.221
33.223
33.235
33.258
33.295
33.348
33.419
33.51
33.623
33.757
33.913
34.089
34.282
34.491
34.715
34.949
35.193
35.441
35.691
35.937
36.177
36.406
36.622
36.821
37.002
37.164
37.305
37.425
37.523
37.6
37.657
37.694
37.712
37.715
37.704
37.681
37.651
37.614
37.573
37.532
37.491
37.452
37.414
37.379
37.346
37.317
37.29
37.268
37.249
37.235
37.224
37.217
37.213
37.211
37.211
37.211
37.211
37.211
37.21
37.208
37.204
37.198
37.19
37.179
37.164
37.145
37.122
37.094
37.06
37.022
36.98
36.936
36.892
36.847
36.802
36.758
36.716
36.675
36.637
36.601
36.568
36.537
36.509
36.485
36.464
36.446
36.431
36.418
36.407
36.397
36.389
36.381
36.373
36.366
36.36
36.354
36.35
36.346
36.341
36.336
36.331
36.325
36.318
36.311
36.303
36.293
36.281
36.263
36.237
36.204
36.167
36.127
36.087
36.047
36.01
35.976
35.945
35.917
35.893
35.871
35.851
35.832
35.813
35.793
35.771
35.749
35.726
35.703
35.679
35.654
35.628
35.6
35.57
35.538
35.504
35.47
35.434
35.398
35.362
35.326
35.291
35.256
35.223
35.192
35.162
35.134
35.106
35.08
35.055
35.031
35.008
34.986
34.963
34.94
34.915
34.888
34.861
34.833
34.805
34.778
34.751
34.725
34.7
34.676
34.655
34.635
34.618
34.603
34.59
34.578
34.566
34.555
34.543
34.531
34.519
34.505
34.492
34.477
34.46
34.443
34.425
34.406
34.387
34.369
34.351
34.333
34.316
34.298
34.281
34.264
34.248
34.232
34.216
34.198
34.18
34.162
34.142
34.124
34.106
34.09
34.075
34.062
34.05
34.04
34.031
34.025
34.02
34.015
34.011
34.007
34.001
33.993
33.983
33.971
33.958
33.943
33.928
33.912
33.896
33.881
33.866
33.852
33.838
33.825
33.812
33.798
33.783
33.768
33.753
33.737
33.721
33.705
33.689
33.673
33.657
33.641
33.627
33.616
33.607
33.604
33.606
33.616
33.636
33.67
33.719
33.786
33.873
33.979
34.107
34.254
34.423
34.61
34.814
35.034
35.265
35.503
35.746
35.989
36.228
36.46
36.679
36.884
37.071
37.238
37.383
37.504
37.601
37.674
37.725
37.756
37.77
37.767
37.751
37.724
37.689
37.649
37.606
37.561
37.517
37.473
37.431
37.391
37.353
37.318
37.285
37.254
37.227
37.202
37.178
37.157
37.136
37.116
37.097
37.079
37.062
37.043
37.024
37.003
36.982
36.961
36.939
36.916
36.891
36.863
36.832
36.797
36.759
36.717
36.674
36.628
36.582
36.535
36.489
36.442
36.397
36.353
36.312
36.274
36.239
36.207
36.179
36.155
36.137
36.124
36.117
36.115
36.118
36.123
36.129
36.135
36.141
36.146
36.151
36.155
36.158
36.161
36.162
36.162
36.16
36.156
36.149
36.138
36.118
36.091
36.057
36.02
35.981
35.941
35.904
35.868
35.834
35.801
35.769
35.739
35.71
35.683
35.656
35.631
35.606
35.582
35.558
35.533
35.508
35.481
35.454
35.426
35.396
35.364
35.33
35.296
35.261
35.227
35.193
35.158
35.124
35.09
35.056
35.023
34.991
34.961
34.934
34.908
34.883
34.86
34.837
34.814
34.791
34.768
34.743
34.716
34.688
34.658
34.627
34.596
34.565
34.536
34.507
34.48
34.455
34.429
34.406
34.384
34.364
34.348
34.333
34.321
34.309
34.298
34.286
34.274
34.261
34.246
34.23
34.213
34.195
34.175
34.155
34.136
34.117
34.099
34.081
34.064
34.047
34.031
34.017
34.003
33.99
33.977
33.963
33.948
33.933
33.917
33.901
33.886
33.873
33.863
33.854
33.848
33.843
33.84
33.839
33.838
33.837
33.834
33.829
33.821
33.809
33.795
33.778
33.759
33.739
33.718
33.696
33.674
33.654
33.635
33.62
33.606
33.595
33.586
33.578
33.571
33.565
33.56
33.556
33.555
33.555
33.56
33.571
33.59
33.619
33.663
33.722
33.8
33.899
34.019
34.162
34.327
34.512
34.716
34.936
35.169
35.411
35.658
35.905
36.148
36.383
36.608
36.819
37.013
37.189
37.344
37.478
37.591
37.682
37.755
37.809
37.846
37.867
37.875
37.869
37.851
37.822
37.786
37.746
37.703
37.659
37.616
37.576
37.54
37.507
37.479
37.454
37.432
37.412
37.395
37.379
37.365
37.352
37.342
37.333
37.327
37.32
37.313
37.305
37.296
37.286
37.274
37.261
37.246
37.228
37.207
37.183
37.156
37.126
37.093
37.057
37.019
36.979
36.937
36.893
36.849
36.805
36.762
36.719
36.679
36.641
36.604
36.569
36.537
36.509
36.486
36.467
36.454
36.444
36.438
36.434
36.433
36.432
36.433
36.434
36.435
36.436
36.435
36.431
36.425
36.416
36.405
36.391
36.375
36.356
36.335
36.312
36.286
36.259
36.232
36.205
36.177
36.15
36.122
36.095
36.066
36.037
36.008
35.977
35.945
35.911
35.874
35.836
35.795
35.752
35.709
35.665
35.62
35.575
35.53
35.486
35.442
35.401
35.362
35.325
35.29
35.255
35.223
35.191
35.162
35.134
35.108
35.082
35.058
35.033
35.007
34.981
34.955
34.929
34.904
34.88
34.856
34.833
34.81
34.787
34.764
34.739
34.714
34.688
34.661
34.633
34.604
34.574
34.545
34.517
34.49
34.465
34.442
34.421
34.403
34.387
34.375
34.365
34.357
34.35
34.343
34.335
34.326
34.316
34.306
34.294
34.28
34.265
34.248
34.228
34.207
34.185
34.161
34.137
34.114
34.09
34.068
34.046
34.026
34.007
33.991
33.977
33.965
33.955
33.945
33.934
33.924
33.912
33.9
33.888
33.875
33.861
33.846
33.831
33.815
33.799
33.784
33.769
33.755
33.741
33.726
33.711
33.696
33.68
33.663
33.645
33.627
33.608
33.589
33.57
33.551
33.532
33.514
33.498
33.481
33.465
33.45
33.435
33.421
33.409
33.397
33.386
33.375
33.366
33.358
33.354
33.353
33.36
33.374
33.398
33.434
33.484
33.551
33.636
33.742
33.869
34.018
34.189
34.381
34.591
34.818
35.058
35.308
35.564
35.822
36.078
36.326
36.564
36.788
36.995
37.183
37.351
37.496
37.618
37.716
37.792
37.846
37.882
37.902
37.908
37.902
37.887
37.863
37.832
37.797
37.759
37.719
37.679
37.641
37.603
37.568
37.535
37.504
37.476
37.45
37.428
37.408
37.392
37.378
37.366
37.355
37.347
37.339
37.332
37.325
37.316
37.305
37.291
37.274
37.253
37.23
37.204
37.176
37.145
37.111
37.074
37.035
36.992
36.948
36.901
36.853
36.805
36.758
36.714
36.671
36.631
36.594
36.561
36.531
36.504
36.479
36.457
36.437
36.421
36.408
36.399
36.392
36.387
36.383
36.38
36.377
36.374
36.37
36.366
36.361
36.355
36.348
36.34
36.33
36.318
36.305
36.291
36.275
36.258
36.238
36.216
36.192
36.168
36.142
36.116
36.087
36.058
36.026
35.993
35.958
35.921
35.883
35.843
35.803
35.763
35.723
35.684
35.647
35.611
35.576
35.543
35.509
35.475
35.441
35.406
35.371
35.335
35.3
35.266
35.232
35.198
35.165
35.133
35.102
35.073
35.045
35.018
34.992
34.968
34.944
34.922
34.901
34.88
34.86
34.84
34.819
34.797
34.774
34.75
34.725
34.7
34.676
34.653
34.631
34.61
34.591
34.573
34.556
34.541
34.526
34.512
34.498
34.484
34.469
34.455
34.441
34.428
34.414
34.401
34.387
34.373
34.36
34.348
34.338
34.329
34.321
34.314
34.306
34.297
34.287
34.275
34.262
34.245
34.225
34.201
34.174
34.145
34.115
34.086
34.058
34.033
34.01
33.99
33.973
33.96
33.95
33.944
33.941
33.941
33.943
33.944
33.945
33.944
33.942
33.937
33.931
33.922
33.91
33.897
33.882
33.866
33.849
33.832
33.815
33.798
33.781
33.765
33.749
33.735
33.722
33.709
33.697
33.686
33.674
33.662
33.649
33.638
33.626
33.616
33.606
33.597
33.589
33.582
33.575
33.57
33.568
33.57
33.578
33.595
33.623
33.665
33.723
33.802
33.902
34.025
34.172
34.341
34.532
34.743
34.97
35.21
35.459
35.712
35.966
36.214
36.452
36.674
36.877
37.058
37.216
37.351
37.464
37.556
37.627
37.68
37.717
37.74
37.751
37.751
37.741
37.723
37.698
37.668
37.634
37.598
37.561
37.525
37.491
37.458
37.426
37.396
37.368
37.34
37.312
37.284
37.256
37.227
37.198
37.17
37.142
37.114
37.086
37.058
37.03
37.0
36.969
36.937
36.906
36.876
36.847
36.819
36.79
36.759
36.727
36.693
36.657
36.62
36.581
36.541
36.501
36.461
36.422
36.383
36.347
36.314
36.284
36.259
36.238
36.223
36.212
36.206
36.205
36.21
36.218
36.228
36.239
36.249
36.257
36.265
36.271
36.275
36.278
36.278
36.274
36.264
36.248
36.227
36.203
36.177
36.15
36.124
36.098
36.074
36.051
36.03
36.011
35.993
35.976
35.959
35.94
35.919
35.897
35.873
35.847
35.818
35.788
35.755
35.72
35.683
35.645
35.605
35.563
35.521
35.478
35.435
35.392
35.351
35.312
35.275
35.241
35.209
35.18
35.153
35.125
35.098
35.071
35.044
35.017
34.99
34.964
34.938
34.912
34.886
34.86
34.834
34.808
34.782
34.756
34.73
34.704
34.678
34.653
34.628
34.603
34.579
34.555
34.531
34.508
34.485
34.463
34.444
34.426
34.411
34.397
34.386
34.376
34.368
34.362
34.356
34.351
34.346
34.341
34.333
34.324
34.313
34.299
34.284
34.269
34.258
34.252
34.251
34.255
34.26
34.264
34.267
34.266
34.261
34.253
34.24
34.222
34.201
34.178
34.151
34.123
34.092
34.06
34.027
33.994
33.962
33.931
33.902
33.875
33.851
33.828
33.807
33.788
33.77
33.754
33.738
33.724
33.71
33.696
33.682
33.667
33.653
33.639
33.628
33.621
33.619
33.625
33.64
33.668
33.712
33.773
33.855
33.957
34.081
34.226
34.393
34.58
34.787
35.009
35.245
35.49
35.74
35.992
36.24
36.48
36.711
36.928
37.129
37.313
37.477
37.622
37.747
37.851
37.936
38.002
38.051
38.083
38.1
38.102
38.095
38.08
38.059
38.034
38.005
37.973
37.938
37.901
37.861
37.822
37.782
37.743
37.706
37.672
37.64
37.611
37.585
37.562
37.543
37.526
37.513
37.502
37.492
37.484
37.474
37.463
37.449
37.432
37.411
37.385
37.355
37.319
37.278
37.234
37.187
37.139
37.09
37.041
36.993
36.945
36.898
36.851
36.806
36.762
36.72
36.681
36.645
36.613
36.585
36.561
36.54
36.522
36.506
36.492
36.478
36.466
36.455
36.446
36.44
36.436
36.435
36.434
36.434
36.433
36.431
36.427
36.422
36.414
36.406
36.396
36.384
36.371
36.357
36.339
36.32
36.297
36.271
36.243
36.21
36.175
36.137
36.097
36.056
36.014
35.972
35.93
35.888
35.846
35.806
35.766
35.729
35.692
35.655
35.62
35.586
35.552
35.519
35.484
35.449
35.413
35.375
35.335
35.294
35.252
35.21
35.169
35.129
35.09
35.053
35.017
34.982
34.949
34.917
34.888
34.86
34.834
34.811
34.789
34.768
34.748
34.729
34.71
34.691
34.67
34.649
34.627
34.603
34.579
34.554
34.53
34.506
34.484
34.463
34.442
34.423
34.403
34.384
34.366
34.349
34.332
34.316
34.3
34.286
34.272
34.259
34.248
34.237
34.226
34.215
34.204
34.192
34.18
34.168
34.156
34.143
34.128
34.112
34.095
34.077
34.058
34.04
34.023
34.006
33.988
33.968
33.948
33.929
33.911
33.896
33.884
33.875
33.867
33.861
33.856
33.853
33.85
33.848
33.846
33.842
33.837
33.829
33.82
33.808
33.796
33.782
33.768
33.752
33.735
33.716
33.696
33.675
33.653
33.631
33.608
33.585
33.561
33.538
33.516
33.495
33.477
33.462
33.451
33.447
33.453
33.469
33.501
33.549
33.617
33.708
33.823
33.964
34.13
34.322
34.539
34.778
35.035
35.308
35.591
35.878
36.166
36.449
36.724
36.988
37.236
37.467
37.675
37.861
38.022
38.159
38.272
38.362
38.43
38.478
38.509
38.524
38.525
38.516
38.499
38.476
38.449
38.42
38.39
38.36
38.33
38.301
38.273
38.246
38.221
38.198
38.177
38.156
38.135
38.117
38.1
38.086
38.075
38.067
38.06
38.055
38.05
38.044
38.037
38.027
38.015
38.0
37.98
37.957
37.93
37.898
37.861
37.821
37.777
37.73
37.682
37.633
37.583
37.534
37.486
37.44
37.396
37.356
37.317
37.281
37.247
37.215
37.187
37.162
37.14
37.121
37.104
37.09
37.078
37.067
37.057
37.046
37.035
37.024
37.013
37.003
36.992
36.981
36.97
36.959
36.947
36.934
36.92
36.904
36.885
36.865
36.843
36.82
36.794
36.766
36.734
36.699
36.66
36.619
36.576
36.531
36.485
36.437
36.389
36.341
36.293
36.246
36.201
36.158
36.115
36.074
36.034
35.994
35.954
35.914
35.873
35.833
35.792
35.751
35.709
35.666
35.622
35.579
35.536
35.493
35.452
35.413
35.375
35.34
35.307
35.277
35.248
35.22
35.193
35.166
35.139
35.111
35.082
35.053
35.024
34.996
34.968
34.941
34.914
34.888
34.862
34.838
34.814
34.792
34.772
34.755
34.739
34.726
34.715
34.705
34.696
34.687
34.679
34.669
34.658
34.646
34.633
34.619
34.604
34.588
34.571
34.553
34.534
34.514
34.493
34.471
34.45
34.429
34.409
34.39
34.372
34.354
34.336
34.319
34.302
34.286
34.27
34.253
34.235
34.218
34.2
34.183
34.168
34.153
34.14
34.127
34.114
34.101
34.089
34.076
34.063
34.049
34.034
34.017
33.999
33.979
33.96
33.94
33.921
33.902
33.884
33.866
33.849
33.833
33.819
33.804
33.79
33.775
33.759
33.742
33.725
33.708
33.693
33.68
33.668
33.659
33.654
33.652
33.656
33.668
33.69
33.725
33.773
33.837
33.919
34.022
34.146
34.294
34.466
34.661
34.877
35.111
35.36
35.621
35.89
36.162
36.433
36.699
36.954
37.194
37.417
37.62
37.8
37.958
38.091
38.201
38.289
38.356
38.403
38.431
38.444
38.443
38.432
38.411
38.381
38.345
38.303
38.259
38.213
38.167
38.123
38.081
38.041
38.003
37.968
37.935
37.905
37.877
37.851
37.828
37.807
37.789
37.771
37.755
37.739
37.723
37.707
37.689
37.669
37.647
37.622
37.595
37.565
37.532
37.498
37.46
37.419
37.376
37.329
37.281
37.232
37.183
37.135
37.089
37.046
37.007
36.973
36.944
36.92
36.902
36.888
36.879
36.874
36.873
36.874
36.876
36.881
36.886
36.891
36.894
36.896
36.896
36.894
36.89
36.886
36.882
36.878
36.873
36.867
36.86
36.851
36.839
36.825
36.806
36.784
36.759
36.732
36.701
36.667
36.63
36.59
36.547
36.503
36.455
36.407
36.357
36.307
36.259
36.214
36.17
36.129
36.09
36.052
36.015
35.979
35.943
35.908
35.872
35.836
35.8
35.762
35.724
35.685
35.645
35.605
35.564
35.523
35.482
35.442
35.401
35.361
35.322
35.285
35.248
35.212
35.176
35.14
35.103
35.067
35.031
34.997
34.963
34.93
34.897
34.866
34.836
34.807
34.779
34.752
34.728
34.706
34.686
34.669
34.654
34.641
34.629
34.618
34.607
34.595
34.581
34.566
34.549
34.53
34.51
34.489
34.468
34.446
34.423
34.4
34.378
34.357
34.337
34.318
34.301
34.285
34.269
34.253
34.237
34.219
34.2
34.18
34.158
34.134
34.109
34.083
34.057
34.032
34.007
33.983
33.959
33.937
33.916
33.895
33.875
33.856
33.835
33.814
33.791
33.766
33.739
33.711
33.684
33.659
33.637
33.62
33.608
33.603
33.607
33.622
33.649
33.691
33.749
33.826
33.924
34.043
34.184
34.349
34.536
34.744
34.97
35.209
35.459
35.714
35.971
36.225
36.472
36.709
36.932
37.137
37.322
37.486
37.627
37.745
37.842
37.917
37.972
38.01
38.03
38.036
38.03
38.013
37.988
37.958
37.922
37.883
37.84
37.797
37.753
37.712
37.674
37.639
37.609
37.581
37.556
37.534
37.513
37.493
37.475
37.457
37.441
37.426
37.411
37.397
37.383
37.369
37.355
37.341
37.325
37.308
37.288
37.265
37.238
37.208
37.175
37.139
37.099
37.054
37.006
36.954
36.9
36.845
36.792
36.74
36.691
36.646
36.606
36.57
36.539
36.513
36.491
36.473
36.46
36.45
36.443
36.438
36.437
36.437
36.44
36.444
36.447
36.45
36.45
36.449
36.447
36.443
36.437
36.431
36.423
36.414
36.403
36.388
36.37
36.348
36.322
36.293
36.262
36.228
36.191
36.152
36.112
36.071
36.03
35.988
35.944
35.898
35.851
35.803
35.754
35.705
35.657
35.609
35.564
35.52
35.477
35.437
35.398
35.361
35.324
35.288
35.252
35.217
35.181
35.145
35.11
35.076
35.042
35.008
34.972
34.935
34.898
34.86
34.823
34.788
34.753
34.72
34.688
34.657
34.627
34.599
34.573
34.547
34.524
34.501
34.479
34.457
34.437
34.417
34.399
34.381
34.364
34.346
34.328
34.311
34.293
34.277
34.261
34.246
34.233
34.22
34.208
34.196
34.186
34.176
34.167
34.159
34.15
34.141
34.13
34.119
34.108
34.097
34.086
34.075
34.064
34.053
34.041
34.029
34.017
34.003
33.989
33.973
33.955
33.936
33.917
33.898
33.878
33.859
33.841
33.824
33.808
33.793
33.779
33.765
33.754
33.747
33.742
33.74
33.74
33.741
33.743
33.744
33.744
33.743
33.738
33.73
33.719
33.705
33.688
33.669
33.647
33.625
33.602
33.578
33.555
33.531
33.508
33.486
33.465
33.444
33.425
33.408
33.391
33.377
33.366
33.359
33.358
33.365
33.383
33.413
33.459
33.523
33.608
33.716
33.85
34.01
34.195
34.404
34.636
34.888
35.156
35.437
35.727
36.02
36.311
36.594
36.865
37.12
37.357
37.575
37.77
37.944
38.094
38.223
38.329
38.414
38.479
38.527
38.558
38.574
38.577
38.569
38.552
38.527
38.498
38.467
38.437
38.414
38.396
38.384
38.376
38.37
38.364
38.356
38.344
38.33
38.312
38.291
38.268
38.245
38.22
38.196
38.173
38.152
38.131
38.111
38.091
38.072
38.053
38.034
38.014
37.99
37.963
37.931
37.895
37.856
37.813
37.767
37.718
37.668
37.617
37.567
37.517
37.468
37.421
