Trial 1:0back
33.632
33.619
33.607
33.597
33.585
33.573
33.559
33.546
33.532
33.518
33.504
33.489
33.475
33.462
33.45
33.439
33.429
33.419
33.407
33.395
33.382
33.369
33.357
33.348
33.343
33.345
33.353
33.371
33.4
33.442
33.499
33.572
33.663
33.775
33.912
34.075
34.267
34.488
34.741
35.023
35.333
35.668
36.024
36.396
36.778
37.163
37.544
37.915
38.27
38.604
38.909
39.184
39.425
39.631
39.8
39.935
40.035
40.102
40.138
40.146
40.129
40.089
40.03
39.953
39.86
39.755
39.641
39.52
39.396
39.269
39.142
39.015
38.891
38.768
38.649
38.532
38.418
38.306
38.198
38.092
37.988
37.887
37.788
37.691
37.596
37.503
37.411
37.321
37.232
37.142
37.051
36.958
36.865
36.769
36.671
36.572
36.474
36.38
36.291
36.208
36.133
36.065
36.005
35.953
35.91
35.874
35.845
35.824
35.81
35.805
35.808
35.819
35.835
35.856
35.879
35.904
35.931
35.959
35.988
36.017
36.045
36.074
36.101
36.127
36.149
36.166
36.178
36.182
36.18
36.171
36.154
36.131
36.099
36.061
36.014
35.96
35.898
35.831
35.759
35.683
35.603
35.521
35.437
35.351
35.264
35.177
35.089
35.002
34.915
34.829
34.743
34.659
34.578
34.5
34.426
34.356
34.288
34.222
34.157
34.093
34.031
33.968
33.907
33.849
33.793
33.741
33.693
33.65
33.612
33.578
33.549
33.524
33.504
33.487
33.473
33.461
33.45
33.438
33.427
33.415
33.404
33.395
33.386
33.376
33.366
33.355
33.342
33.329
33.315
33.299
33.282
33.264
33.244
33.223
33.202
33.181
33.162
33.143
33.126
33.111
33.097
33.086
33.078
33.073
33.072
33.077
33.09
33.115
33.154
33.211
33.287
33.386
33.511
33.665
33.849
34.066
34.317
34.602
34.918
35.262
35.63
36.015
36.412
36.812
37.209
37.596
37.967
38.315
38.637
38.928
39.186
39.408
39.591
39.737
39.846
39.919
39.961
39.973
39.958
39.92
39.863
39.788
39.7
39.6
39.493
39.379
39.26
39.137
39.013
38.886
38.759
38.631
38.504
38.379
38.255
38.134
38.016
37.901
37.79
37.683
37.58
37.481
37.386
37.292
37.2
37.109
37.018
36.925
36.831
36.736
36.639
36.541
36.444
36.348
36.254
36.16
36.07
35.985
35.906
35.834
35.769
35.714
35.668
35.632
35.607
35.591
35.584
35.586
35.595
35.611
35.634
35.663
35.697
35.736
35.778
35.822
35.865
35.908
35.947
35.981
36.01
36.032
36.047
36.055
36.058
36.054
36.043
36.025
35.999
35.965
35.925
35.877
35.824
35.765
35.702
35.634
35.562
35.486
35.407
35.326
35.243
35.159
35.073
34.987
34.901
34.814
34.728
34.643
34.559
34.477
34.398
34.322
34.25
34.181
34.116
34.055
33.999
33.947
33.899
33.854
33.813
33.775
33.738
33.703
33.668
33.634
33.601
33.57
33.541
33.513
33.487
33.462
33.437
33.412
33.388
33.365
33.342
33.319
33.297
33.275
33.255
33.237
33.222
33.21
33.2
33.192
33.185
33.18
33.175
33.172
33.168
33.162
33.154
33.143
33.131
33.117
33.102
33.086
33.07
33.052
33.035
33.016
32.999
32.982
32.966
32.953
32.943
32.936
32.935
32.942
32.959
32.989
33.033
33.096
33.179
33.286
33.419
33.578
33.766
33.983
34.231
34.509
34.816
35.15
35.509
35.885
36.273
36.666
37.057
37.44
37.806
38.152
38.472
38.762
39.018
39.238
39.42
39.564
39.67
39.74
39.775
39.78
39.757
39.711
39.645
39.561
39.461
39.348
39.224
39.091
38.952
38.809
38.664
38.518
38.373
38.229
38.086
37.946
37.807
37.67
37.535
37.401
37.268
37.137
37.007
36.88
36.755
36.635
36.518
36.406
36.298
36.193
36.093
35.997
35.907
35.822
35.742
35.666
35.594
35.526
35.462
35.402
35.346
35.296
35.252
35.214
35.183
35.16
35.145
35.137
35.136
35.142
35.155
35.173
35.198
35.228
35.262
35.3
35.341
35.384
35.426
35.469
35.51
35.55
35.586
35.62
35.648
35.67
35.686
35.692
35.69
35.679
35.659
35.63
35.592
35.547
35.494
35.435
35.369
35.298
35.222
35.142
35.058
34.973
34.886
34.799
34.713
34.628
34.545
34.464
34.385
34.308
34.232
34.158
34.085
34.015
33.949
33.888
33.831
33.78
33.733
33.689
33.648
33.608
33.57
33.535
33.501
33.471
33.442
33.416
33.393
33.371
33.351
33.33
33.307
33.284
33.261
33.24
33.22
33.203
33.188
33.175
33.162
33.15
33.137
33.125
33.112
33.099
33.084
33.069
33.055
33.041
33.028
33.017
33.008
32.998
32.989
32.979
32.968
32.956
32.942
32.927
32.911
32.894
32.876
32.86
32.845
32.831
32.818
32.807
32.796
32.787
32.779
32.774
32.774
32.779
32.791
32.814
32.849
32.899
32.967
33.054
33.163
33.295
33.454
33.64
33.854
34.099
34.372
34.674
35.002
35.355
35.727
36.114
36.508
36.903
37.29
37.664
38.017
38.344
38.64
38.903
39.127
39.312
39.457
39.562
39.629
39.661
39.662
39.633
39.577
39.498
39.4
39.287
39.16
39.023
38.879
38.73
38.577
38.423
38.268
38.114
37.96
37.807
37.656
37.508
37.363
37.222
37.083
36.947
36.815
36.686
36.562
36.441
36.323
36.207
36.093
35.982
35.872
35.766
35.662
35.562
35.467
35.375
35.288
35.207
35.133
35.065
35.003
34.941
34.875
34.807
34.741
34.68
34.63
34.592
34.572
34.571
34.59
34.629
34.686
34.758
34.843
34.937
35.038
35.142
35.245
35.346
35.441
35.527
35.603
35.667
35.717
35.753
35.776
35.785
35.782
35.766
35.74
35.704
35.66
35.608
35.55
35.487
35.419
35.347
35.271
35.192
35.112
35.032
34.951
34.871
34.792
34.713
34.635
34.558
34.481
34.404
34.328
34.254
34.183
34.115
34.051
33.992
33.936
33.884
33.834
33.786
33.74
33.696
33.656
33.619
33.584
33.552
33.523
33.496
33.471
33.446
33.423
33.399
33.375
33.35
33.325
33.3
33.277
33.255
33.236
33.22
33.205
33.194
33.184
33.176
33.168
33.161
33.153
33.145
33.138
33.132
33.128
33.125
33.122
33.117
33.111
33.103
33.093
33.081
33.068
33.054
33.04
33.025
33.009
32.992
32.974
32.955
32.935
32.915
32.894
32.874
32.856
32.84
32.827
32.818
32.815
32.818
32.83
32.852
32.887
32.938
33.005
33.094
33.204
33.339
33.499
33.686
33.902
34.145
34.417
34.716
35.041
35.388
35.753
36.133
36.521
36.91
37.294
37.665
38.017
38.345
38.643
38.907
39.136
39.327
39.48
39.594
39.67
39.709
39.715
39.69
39.637
39.56
39.462
39.346
39.216
39.074
38.925
38.77
38.611
38.451
38.289
38.128
37.968
37.808
37.649
37.49
37.333
37.18
37.031
36.887
36.749
36.615
36.485
36.358
36.234
36.113
35.994
35.876
35.759
35.644
35.531
35.422
35.318
35.22
35.129
35.046
34.971
34.904
34.846
34.797
34.758
34.728
34.709
34.7
34.702
34.713
34.734
34.762
34.797
34.837
34.882
34.93
34.981
35.033
35.087
35.141
35.196
35.25
35.303
35.354
35.402
35.447
35.487
35.521
35.547
35.564
35.572
35.569
35.556
35.534
35.501
35.459
35.406
35.346
35.279
35.207
35.132
35.055
34.978
34.9
34.823
34.746
34.67
34.594
34.518
34.442
34.367
34.292
34.22
34.152
34.089
34.032
33.979
33.93
33.884
33.84
33.797
33.755
33.712
33.67
33.628
33.588
33.551
33.517
33.484
33.453
33.423
33.393
33.362
33.332
33.302
33.273
33.246
33.222
33.2
33.182
33.167
33.156
33.147
33.14
33.134
33.128
33.122
33.118
33.114
33.111
33.109
33.107
33.105
33.103
33.101
33.099
33.097
33.094
33.089
33.083
33.075
33.065
33.055
33.044
33.034
33.023
33.012
32.999
32.986
32.971
32.956
32.94
32.924
32.909
32.895
32.884
32.879
32.882
32.896
32.923
32.966
33.027
33.11
33.216
33.346
33.504
33.69
33.905
34.15
34.425
34.729
35.06
35.415
35.788
36.175
36.568
36.96
37.345
37.716
38.068
38.394
38.69
38.95
39.174
39.358
39.503
39.609
39.678
39.712
39.713
39.685
39.631
39.553
39.456
39.341
39.212
39.071
38.92
38.76
38.594
38.426
38.256
38.086
37.916
37.747
37.579
37.413
37.25
37.091
36.936
36.785
36.64
36.5
36.365
36.234
36.106
35.98
35.856
35.735
35.617
35.503
35.394
35.289
35.191
35.098
35.012
34.933
34.862
34.8
34.746
34.701
34.665
34.638
34.621
34.614
34.616
34.627
34.648
34.677
34.712
34.753
34.799
34.849
34.904
34.963
35.024
35.087
35.149
35.211
35.269
35.324
35.375
35.418
35.455
35.484
35.504
35.516
35.52
35.516
35.506
35.487
35.462
35.428
35.388
35.34
35.286
35.226
35.161
35.093
35.024
34.957
34.892
34.828
34.764
34.7
34.633
34.563
34.492
34.418
34.344
34.269
34.195
34.122
34.052
33.986
33.923
33.864
33.807
33.754
33.704
33.657
33.615
33.577
33.542
33.511
33.481
33.454
33.427
33.402
33.377
33.354
33.333
33.312
33.293
33.275
33.26
33.246
33.234
33.224
33.213
33.203
33.191
33.179
33.166
33.154
33.142
33.131
33.121
33.112
33.103
33.095
33.087
33.079
33.07
33.062
33.053
33.044
33.036
33.03
33.024
33.018
33.012
33.005
32.997
32.988
32.977
32.964
32.952
32.938
32.925
32.912
32.9
32.89
32.884
32.885
32.896
32.92
32.959
33.017
33.097
33.201
33.333
33.492
33.68
33.896
34.14
34.412
34.709
35.032
35.377
35.741
36.12
36.509
36.899
37.285
37.659
38.014
38.346
38.649
38.921
39.157
39.354
39.511
39.627
39.703
39.741
39.744
39.716
39.659
39.578
39.475
39.354
39.217
39.067
38.905
38.735
38.56
38.381
38.201
38.021
37.841
37.663
37.488
37.315
37.145
36.977
36.813
36.653
36.496
36.342
36.191
36.041
35.893
35.747
35.604
35.465
35.333
35.208
35.091
34.984
34.886
34.797
34.718
34.648
34.589
34.539
34.499
34.47
34.451
34.441
34.439
34.446
34.462
34.487
34.519
34.558
34.605
34.657
34.715
34.777
34.842
34.908
34.974
35.041
35.105
35.168
35.229
35.285
35.337
35.382
35.421
35.454
35.478
35.493
35.499
35.496
35.483
35.463
35.435
35.399
35.355
35.304
35.247
35.184
35.116
35.045
34.971
34.895
34.819
34.743
34.668
34.595
34.524
34.455
34.385
34.316
34.248
34.182
34.119
34.06
34.004
33.951
33.901
33.854
33.81
33.767
33.726
33.683
33.632
33.573
33.508
33.44
33.373
33.31
33.255
33.21
33.176
33.153
33.142
33.142
33.151
33.166
33.186
33.21
33.235
33.259
33.282
33.303
33.321
33.334
33.343
33.348
33.348
33.344
33.338
33.329
33.32
33.311
33.303
33.297
33.292
33.29
33.288
33.287
33.285
33.282
33.275
33.265
33.252
33.236
33.217
33.198
33.179
33.161
33.143
33.126
33.113
33.103
33.099
33.102
33.115
33.14
33.18
33.238
33.318
33.422
33.551
33.705
33.886
34.094
34.331
34.594
34.883
35.195
35.527
35.874
36.231
36.595
36.959
37.315
37.659
37.985
38.289
38.567
38.814
39.028
39.205
39.345
39.446
39.511
39.54
39.536
39.501
39.438
39.35
39.239
39.11
38.965
38.808
38.642
38.47
38.292
38.112
37.928
37.743
37.558
37.374
37.192
37.013
36.839
36.669
36.506
36.349
36.197
36.049
35.906
35.766
35.629
35.495
35.364
35.238
35.116
35.0
34.89
34.789
34.696
34.613
34.541
34.48
34.43
34.391
34.365
34.348
34.342
34.346
34.359
34.38
34.41
34.447
34.491
34.541
34.596
34.656
34.72
34.788
34.857
34.927
34.996
35.062
35.124
35.181
35.233
35.28
35.321
35.355
35.382
35.401
35.411
35.412
35.406
35.391
35.37
35.343
35.311
35.275
35.234
35.187
35.134
35.076
35.012
34.944
34.874
34.802
34.729
34.657
34.587
34.518
34.452
34.387
34.322
34.257
34.192
34.127
34.065
34.004
33.947
33.894
33.847
33.806
33.77
33.74
33.713
33.688
33.663
33.638
33.612
33.586
33.559
33.532
33.506
33.48
33.455
33.431
33.408
33.386
33.365
33.346
33.328
33.311
33.297
33.284
33.273
33.263
33.253
33.243
33.234
33.225
33.216
33.207
33.197
33.187
33.178
33.169
33.161
33.153
33.145
33.137
33.128
33.12
33.112
33.103
33.096
33.088
33.081
33.074
33.068
33.064
33.06
33.059
33.061
33.067
33.082
33.107
33.146
33.201
33.276
33.374
33.496
33.646
33.825
34.034
34.273
34.541
34.836
35.157
35.501
35.864
36.242
36.629
37.02
37.409
37.791
38.159
38.506
38.827
39.117
39.372
39.591
39.772
39.914
40.018
40.086
40.12
40.121
40.093
40.037
39.957
39.857
39.741
39.611
39.47
39.319
39.159
38.991
38.818
38.642
38.463
38.284
38.105
37.929
37.756
37.586
37.418
37.253
37.091
36.933
36.778
36.628
36.481
36.34
36.203
36.071
35.944
35.822
35.705
35.592
35.485
35.383
35.289
35.201
35.122
35.051
34.989
34.936
34.893
34.86
34.838
34.826
34.824
34.832
34.849
34.874
34.905
34.942
34.982
35.027
35.074
35.125
35.179
35.235
35.292
35.35
35.408
35.464
35.518
35.568
35.613
35.655
35.691
35.721
35.744
35.759
35.763
35.756
35.739
35.712
35.677
35.634
35.584
35.529
35.469
35.404
35.336
35.265
35.191
35.115
35.038
34.961
34.885
34.811
34.74
34.672
34.606
34.543
34.482
34.424
34.366
34.31
34.254
34.198
34.144
34.092
34.042
33.995
33.95
33.907
33.867
33.83
33.795
33.763
33.734
33.708
33.684
33.662
33.642
33.623
33.607
33.591
33.576
33.562
33.547
33.533
33.518
33.502
33.486
33.469
33.45
33.431
33.411
33.391
33.371
33.351
33.332
33.314
33.298
33.283
33.27
33.259
33.25
33.244
33.241
33.239
33.238
33.236
33.232
33.226
33.218
33.21
33.202
33.196
33.193
33.195
33.203
33.221
33.253
33.303
33.375
33.47
33.59
33.737
33.912
34.115
34.346
34.605
34.891
35.205
35.544
35.905
36.283
36.673
37.069
37.464
37.852
38.226
38.58
38.907
39.202
39.461
39.683
39.864
40.004
40.104
40.166
40.192
40.186
40.15
40.089
40.003
39.895
39.77
39.631
39.48
39.321
39.155
38.986
38.815
38.642
38.468
38.294
38.121
37.949
37.78
37.615
37.454
37.295
37.14
36.988
36.839
36.693
36.55
36.41
36.276
36.146
36.021
35.9
35.782
35.668
35.558
35.451
35.35
35.254
35.165
35.085
35.014
34.954
34.907
34.871
34.848
34.836
34.834
34.843
34.861
34.889
34.925
34.967
35.015
35.068
35.124
35.182
35.242
35.302
35.362
35.422
35.483
35.544
35.603
35.659
35.71
35.754
35.79
35.818
35.837
35.847
35.847
35.836
35.816
35.785
35.745
35.697
35.641
35.579
35.512
35.441
35.368
35.292
35.215
35.136
35.056
34.974
34.893
34.813
34.736
34.661
34.59
34.523
34.459
34.399
34.342
34.288
34.236
34.185
34.136
34.089
34.043
33.998
33.955
33.914
33.875
33.838
33.803
33.77
33.739
33.709
33.68
33.653
33.626
33.601
33.578
33.558
33.541
33.527
33.515
33.504
33.493
33.481
33.469
33.455
33.44
33.425
33.409
33.394
33.38
33.366
33.353
33.341
33.33
33.32
33.31
33.301
33.292
33.282
33.273
33.263
33.254
33.245
33.236
33.227
33.22
33.213
33.209
33.207
33.209
33.217
33.234
33.264
33.312
33.379
33.47
33.584
33.723
33.889
34.081
34.302
34.551
34.83
35.136
35.468
35.824
36.199
36.586
36.979
37.371
37.754
38.123
38.47
38.79
39.078
39.331
39.546
39.721
39.857
39.954
40.013
40.038
40.031
39.995
39.934
39.849
39.745
39.624
39.489
39.344
39.19
39.03
38.864
38.696
38.525
38.354
38.183
38.014
37.846
37.681
37.518
37.359
37.203
37.05
36.902
36.757
36.617
36.48
36.347
36.218
36.093
35.974
35.865
35.764
35.671
35.585
35.504
35.428
35.355
35.287
35.223
35.164
35.111
35.063
35.022
34.988
34.961
34.942
34.931
34.929
34.936
34.954
34.982
35.02
35.065
35.116
35.171
35.23
35.291
35.353
35.416
35.479
35.541
35.601
35.656
35.706
35.748
35.781
35.805
35.82
35.826
35.822
35.809
35.785
35.751
35.709
35.659
35.602
35.537
35.466
35.39
35.311
35.231
35.151
35.071
34.993
34.917
34.843
34.77
34.7
34.631
34.564
34.499
34.436
34.377
34.32
34.266
34.215
34.166
34.118
34.073
34.03
33.99
33.952
33.917
33.883
33.851
33.821
33.79
33.759
33.729
33.699
33.669
33.641
33.614
33.59
33.569
33.55
33.533
33.517
33.502
33.487
33.471
33.453
33.436
33.418
33.401
33.385
33.371
33.359
33.348
33.338
33.329
33.322
33.314
33.307
33.3
33.292
33.283
33.273
33.262
33.251
33.239
33.226
33.213
33.199
33.187
33.179
33.176
33.181
33.196
33.225
33.268
33.33
33.414
33.521
33.655
33.816
34.006
34.225
34.475
34.754
35.061
35.393
35.745
36.113
36.493
36.878
37.264
37.643
38.007
38.35
38.668
38.954
39.205
39.419
39.594
39.73
39.828
39.889
39.917
39.913
39.88
39.82
39.736
39.632
39.511
39.377
39.233
39.08
38.92
38.755
38.585
38.412
38.238
38.064
37.892
37.724
37.559
37.399
37.243
37.091
36.944
36.801
36.661
36.526
36.393
36.264
36.137
36.013
35.891
35.77
35.652
35.536
35.425
35.319
35.221
35.131
35.051
34.981
34.922
34.874
34.838
34.814
34.802
34.802
34.815
34.837
34.869
34.908
34.954
35.005
35.062
35.122
35.184
35.248
35.314
35.38
35.447
35.514
35.581
35.645
35.706
35.763
35.814
35.857
35.893
35.92
35.935
35.939
35.93
35.909
35.878
35.835
35.783
35.723
35.656
35.584
35.509
35.432
35.353
35.272
35.189
35.105
35.023
34.941
34.861
34.782
34.706
34.631
34.558
34.488
34.421
34.357
34.297
34.239
34.185
34.135
34.089
34.047
34.008
33.972
33.938
33.907
33.878
33.849
33.821
33.794
33.767
33.741
33.716
33.694
33.675
33.658
33.643
33.629
33.615
33.6
33.584
33.571
33.571
33.591
33.631
33.685
33.745
33.805
33.858
33.898
33.923
33.93
33.918
33.887
33.839
33.777
33.703
33.623
33.539
33.456
33.376
33.304
33.239
33.185
33.141
33.108
33.086
33.073
33.069
33.076
33.094
33.123
33.167
33.225
33.3
33.39
33.496
33.621
33.766
33.932
34.122
34.337
34.579
34.848
35.144
35.464
35.806
36.164
36.534
36.909
37.283
37.65
38.002
38.334
38.642
38.919
39.163
39.372
39.543
39.676
39.772
39.832
39.858
39.851
39.815
39.752
39.665
39.559
39.436
39.3
39.155
39.001
38.841
38.676
38.509
38.339
38.17
38.001
37.834
37.67
37.51
37.353
37.199
37.048
36.902
36.759
36.618
36.48
36.345
36.213
36.084
35.958
35.834
35.713
35.595
35.482
35.375
35.275
35.183
35.101
35.029
34.968
34.917
34.875
34.844
34.822
34.811
34.809
34.818
34.838
34.868
34.907
34.955
35.009
35.067
35.13
35.195
35.261
35.328
35.393
35.458
35.522
35.584
35.642
35.694
35.739
35.775
35.803
35.823
35.834
35.835
35.827
35.81
35.783
35.746
35.701
35.647
35.586
35.518
35.446
35.372
35.297
35.223
35.149
35.076
35.003
34.932
34.86
34.789
34.716
34.644
34.573
34.503
34.435
34.37
34.309
34.25
34.195
34.14
34.088
34.038
33.991
33.947
33.907
33.87
33.836
33.804
33.774
33.744
33.714
33.684
33.655
33.627
33.601
33.578
33.559
33.542
33.527
33.514
33.501
33.491
33.486
33.492
33.506
33.528
33.553
33.579
33.6
33.616
33.623
33.622
33.612
33.593
33.566
33.533
33.495
33.453
33.41
33.367
33.326
33.287
33.252
33.22
33.192
33.169
33.152
33.139
33.132
33.129
33.132
33.143
33.164
33.198
33.247
33.311
33.392
33.492
33.613
33.757
33.926
34.118
34.334
34.573
34.835
35.119
35.425
35.75
36.089
36.44
36.796
37.153
37.503
37.84
38.159
38.454
38.721
38.956
39.158
39.324
39.458
39.564
39.643
39.694
39.718
39.714
39.681
39.622
39.536
39.428
39.298
39.149
38.985
38.808
38.622
38.429
38.233
38.036
37.841
37.648
37.459
37.275
37.098
36.927
36.764
36.609
36.462
36.321
36.188
36.059
35.935
35.814
35.697
35.584
35.475
35.37
35.27
35.175
35.087
35.007
34.936
34.874
34.82
34.776
34.741
34.717
34.702
34.696
34.701
34.715
34.74
34.774
34.816
34.866
34.923
34.984
35.05
35.119
35.191
35.263
35.336
35.41
35.483
35.556
35.625
35.69
35.747
35.796
35.833
35.86
35.874
35.876
35.866
35.845
35.813
35.773
35.724
35.668
35.606
35.538
35.465
35.388
35.308
35.229
35.15
35.072
34.995
34.92
34.846
34.774
34.706
34.642
34.581
34.523
34.466
34.411
34.358
34.305
34.252
34.2
34.15
34.101
34.054
34.009
33.965
33.924
33.885
33.848
33.813
33.78
33.749
33.72
33.693
33.667
33.643
33.622
33.601
33.583
33.565
33.549
33.534
33.52
33.507
33.495
33.483
33.474
33.466
