Trial 1:0back
33.992
33.966
33.94
33.913
33.887
33.86
33.834
33.808
33.783
33.758
33.736
33.715
33.696
33.68
33.668
33.66
33.658
33.665
33.684
33.717
33.768
33.84
33.935
34.055
34.201
34.374
34.573
34.796
35.041
35.306
35.588
35.881
36.181
36.485
36.785
37.079
37.362
37.629
37.877
38.104
38.307
38.486
38.64
38.768
38.872
38.953
39.012
39.051
39.072
39.077
39.069
39.049
39.021
38.984
38.942
38.895
38.844
38.79
38.735
38.678
38.621
38.564
38.508
38.452
38.397
38.343
38.292
38.242
38.196
38.151
38.109
38.069
38.03
37.991
37.952
37.911
37.868
37.822
37.772
37.719
37.661
37.601
37.538
37.473
37.409
37.346
37.287
37.233
37.185
37.145
37.114
37.093
37.08
37.077
37.083
37.097
37.117
37.143
37.174
37.209
37.246
37.286
37.327
37.367
37.406
37.442
37.476
37.506
37.531
37.551
37.565
37.574
37.576
37.572
37.561
37.544
37.52
37.49
37.453
37.412
37.366
37.315
37.261
37.203
37.143
37.081
37.017
36.953
36.888
36.822
36.757
36.692
36.627
36.564
36.502
36.44
36.378
36.318
36.258
36.198
36.138
36.079
36.019
35.96
35.901
35.843
35.787
35.732
35.679
35.628
35.579
35.533
35.488
35.446
35.406
35.369
35.334
35.301
35.27
35.24
35.21
35.181
35.152
35.123
35.095
35.068
35.041
35.015
34.989
34.964
34.938
34.913
34.888
34.864
34.84
34.817
34.795
34.773
34.753
34.734
34.716
34.7
34.685
34.671
34.658
34.646
34.633
34.621
34.607
34.593
34.578
34.562
34.544
34.526
34.506
34.485
34.462
34.438
34.413
34.387
34.36
34.334
34.308
34.282
34.256
34.232
34.207
34.183
34.161
34.139
34.119
34.099
34.081
34.064
34.047
34.03
34.013
33.994
33.975
33.953
33.93
33.905
33.877
33.847
33.816
33.784
33.75
33.716
33.681
33.646
33.61
33.574
33.539
33.505
33.473
33.444
33.42
33.401
33.389
33.387
33.398
33.424
33.467
33.532
33.62
33.733
33.872
34.038
34.231
34.448
34.689
34.951
35.228
35.518
35.816
36.117
36.416
36.709
36.993
37.264
37.519
37.755
37.971
38.165
38.335
38.482
38.605
38.706
38.784
38.842
38.88
38.899
38.901
38.887
38.858
38.818
38.767
38.709
38.646
38.58
38.512
38.445
38.379
38.315
38.254
38.194
38.137
38.081
38.026
37.972
37.918
37.864
37.809
37.754
37.698
37.64
37.581
37.519
37.457
37.393
37.327
37.26
37.192
37.124
37.057
36.992
36.931
36.875
36.825
36.784
36.75
36.724
36.707
36.698
36.697
36.704
36.719
36.741
36.771
36.808
36.852
36.901
36.953
37.008
37.065
37.12
37.175
37.226
37.273
37.314
37.349
37.377
37.397
37.409
37.414
37.41
37.399
37.38
37.354
37.321
37.282
37.239
37.191
37.14
37.087
37.032
36.976
36.918
36.859
36.799
36.736
36.672
36.606
36.539
36.471
36.403
36.335
36.267
36.201
36.136
36.072
36.011
35.951
35.892
35.836
35.783
35.731
35.682
35.635
35.589
35.544
35.5
35.456
35.412
35.367
35.322
35.276
35.23
35.185
35.141
35.099
35.059
35.021
34.986
34.952
34.921
34.892
34.865
34.84
34.816
34.793
34.773
34.753
34.735
34.718
34.702
34.686
34.671
34.655
34.64
34.624
34.609
34.593
34.577
34.56
34.543
34.525
34.506
34.486
34.465
34.442
34.418
34.393
34.368
34.343
34.318
34.293
34.267
34.242
34.217
34.191
34.167
34.142
34.118
34.095
34.072
34.049
34.027
34.005
33.984
33.964
33.944
33.925
33.905
33.885
33.865
33.843
33.821
33.798
33.773
33.748
33.721
33.693
33.665
33.636
33.606
33.575
33.544
33.513
33.483
33.454
33.425
33.399
33.375
33.354
33.336
33.324
33.317
33.317
33.328
33.351
33.391
33.449
33.53
33.635
33.766
33.924
34.109
34.319
34.552
34.807
35.08
35.367
35.664
35.967
36.272
36.574
36.87
37.156
37.427
37.682
37.917
38.131
38.321
38.486
38.627
38.744
38.836
38.905
38.952
38.979
38.986
38.978
38.954
38.919
38.873
38.819
38.758
38.694
38.626
38.558
38.49
38.423
38.358
38.295
38.234
38.176
38.118
38.062
38.008
37.954
37.902
37.849
37.796
37.742
37.686
37.627
37.566
37.502
37.435
37.365
37.292
37.218
37.144
37.07
36.998
36.928
36.863
36.804
36.752
36.709
36.675
36.652
36.639
36.637
36.646
36.663
36.69
36.723
36.763
36.808
36.857
36.906
36.956
37.004
37.048
37.088
37.122
37.151
37.174
37.191
37.201
37.206
37.205
37.198
37.186
37.168
37.145
37.117
37.085
37.048
37.007
36.962
36.912
36.858
36.801
36.739
36.674
36.607
36.537
36.465
36.392
36.318
36.244
36.17
36.097
36.025
35.955
35.887
35.822
35.759
35.698
35.639
35.582
35.526
35.472
35.418
35.365
35.312
35.261
35.21
35.16
35.111
35.063
35.015
34.969
34.924
34.879
34.837
34.795
34.756
34.718
34.683
34.65
34.62
34.591
34.565
34.541
34.518
34.497
34.477
34.458
34.438
34.419
34.399
34.377
34.355
34.332
34.307
34.282
34.256
34.229
34.204
34.179
34.156
34.133
34.112
34.091
34.07
34.05
34.03
34.009
33.988
33.967
33.946
33.926
33.905
33.885
33.864
33.843
33.822
33.799
33.776
33.752
33.727
33.703
33.679
33.654
33.63
33.606
33.581
33.556
33.531
33.506
33.48
33.454
33.427
33.4
33.372
33.345
33.317
33.289
33.263
33.236
33.211
33.186
33.162
33.139
33.117
33.096
33.074
33.053
33.031
33.01
32.988
32.967
32.946
32.927
32.909
32.894
32.884
32.881
32.888
32.908
32.944
33.0
33.08
33.186
33.319
33.482
33.673
33.893
34.14
34.41
34.702
35.01
35.331
35.661
35.994
36.326
36.651
36.965
37.264
37.544
37.802
38.035
38.242
38.422
38.574
38.699
38.798
38.872
38.923
38.954
38.967
38.965
38.949
38.921
38.884
38.838
38.786
38.728
38.667
38.603
38.537
38.472
38.406
38.342
38.279
38.218
38.158
38.101
38.046
37.994
37.944
37.897
37.852
37.808
37.765
37.721
37.675
37.628
37.577
37.522
37.464
37.401
37.335
37.267
37.198
37.129
37.062
36.998
36.939
36.886
36.841
36.804
36.777
36.758
36.748
36.746
36.752
36.763
36.781
36.804
36.831
36.861
36.893
36.927
36.961
36.996
37.031
37.065
37.099
37.13
37.159
37.185
37.206
37.221
37.23
37.231
37.225
37.211
37.19
37.16
37.123
37.08
37.029
36.973
36.912
36.846
36.776
36.704
36.629
36.554
36.477
36.401
36.324
36.248
36.174
36.103
36.034
35.967
35.903
35.84
35.778
35.716
35.654
35.592
35.529
35.466
35.402
35.339
35.277
35.216
35.157
35.1
35.045
34.991
34.939
34.889
34.841
34.794
34.748
34.703
34.66
34.619
34.579
34.542
34.507
34.474
34.443
34.413
34.385
34.358
34.331
34.304
34.278
34.251
34.224
34.197
34.169
34.141
34.113
34.086
34.06
34.035
34.01
33.987
33.966
33.946
33.927
33.909
33.893
33.877
33.862
33.847
33.832
33.816
33.8
33.783
33.765
33.746
33.727
33.708
33.687
33.666
33.645
33.623
33.6
33.576
33.552
33.528
33.503
33.478
33.452
33.425
33.398
33.371
33.345
33.318
33.291
33.263
33.236
33.208
33.181
33.155
33.129
33.104
33.08
33.056
33.033
33.011
32.989
32.967
32.944
32.921
32.898
32.874
32.85
32.825
32.799
32.773
32.747
32.721
32.695
32.669
32.645
32.621
32.6
32.581
32.568
32.561
32.565
32.581
32.613
32.664
32.738
32.837
32.963
33.117
33.3
33.511
33.748
34.01
34.293
34.594
34.909
35.232
35.56
35.886
36.205
36.514
36.808
37.084
37.339
37.572
37.781
37.966
38.126
38.26
38.37
38.455
38.517
38.558
38.579
38.583
38.571
38.544
38.505
38.455
38.397
38.333
38.264
38.191
38.118
38.045
37.973
37.902
37.835
37.771
37.709
37.649
37.591
37.534
37.479
37.425
37.372
37.319
37.265
37.21
37.153
37.095
37.035
36.972
36.909
36.843
36.776
36.708
36.64
36.573
36.507
36.444
36.385
36.33
36.282
36.24
36.206
36.181
36.164
36.156
36.156
36.165
36.182
36.206
36.236
36.272
36.311
36.353
36.397
36.44
36.483
36.523
36.56
36.594
36.623
36.646
36.664
36.676
36.68
36.678
36.669
36.652
36.629
36.6
36.565
36.524
36.479
36.43
36.377
36.321
36.263
36.203
36.141
36.076
36.011
35.945
35.877
35.81
35.742
35.674
35.606
35.538
35.47
35.403
35.337
35.271
35.207
35.143
35.08
35.019
34.96
34.902
34.847
34.795
34.744
34.696
34.649
34.604
34.561
34.52
34.481
34.443
34.406
34.371
34.337
34.304
34.273
34.242
34.213
34.184
34.156
34.129
34.102
34.075
34.049
34.023
33.997
33.972
33.947
33.922
33.9
33.878
33.859
33.841
33.825
33.811
33.797
33.783
33.77
33.756
33.742
33.728
33.712
33.696
33.678
33.659
33.638
33.617
33.595
33.572
33.549
33.525
33.502
33.478
33.455
33.431
33.407
33.384
33.36
33.336
33.312
33.29
33.268
33.248
33.228
33.21
33.193
33.176
33.16
33.143
33.127
33.109
33.092
33.074
33.055
33.036
33.017
32.996
32.975
32.954
32.932
32.909
32.885
32.86
32.835
32.81
32.783
32.756
32.728
32.698
32.669
32.639
32.61
32.583
32.557
32.534
32.513
32.498
32.488
32.486
32.494
32.514
32.55
32.604
32.68
32.779
32.904
33.056
33.236
33.443
33.675
33.93
34.205
34.497
34.799
35.109
35.422
35.731
36.034
36.324
36.6
36.858
37.096
37.311
37.502
37.669
37.812
37.929
38.022
38.092
38.14
38.167
38.174
38.165
38.139
38.099
38.047
37.986
37.918
37.844
37.767
37.688
37.609
37.531
37.454
37.38
37.309
37.239
37.171
37.105
37.038
36.973
36.907
36.84
36.772
36.703
36.631
36.558
36.483
36.407
36.329
36.25
36.171
36.093
36.017
35.943
35.873
35.809
35.751
35.701
35.66
35.629
35.607
35.595
35.592
35.599
35.614
35.638
35.669
35.708
35.751
35.799
35.85
35.903
35.957
36.01
36.062
36.113
36.161
36.206
36.248
36.285
36.318
36.345
36.365
36.38
36.386
36.386
36.377
36.362
36.339
36.31
36.275
36.234
36.188
36.138
36.083
36.024
35.962
35.899
35.834
35.768
35.702
35.635
35.567
35.5
35.432
35.364
35.296
35.228
35.161
35.095
35.03
34.965
34.903
34.841
34.782
34.725
34.669
34.616
34.565
34.517
34.471
34.427
34.386
34.348
34.312
34.277
34.244
34.211
34.178
34.146
34.115
34.083
34.052
34.021
33.99
33.96
33.931
33.903
33.877
33.852
33.828
33.807
33.786
33.768
33.751
33.735
33.721
33.707
33.694
33.682
33.67
33.659
33.647
33.634
33.621
33.608
33.594
33.58
33.565
33.55
33.534
33.517
33.5
33.483
33.465
33.447
33.429
33.411
33.393
33.375
33.358
33.341
33.323
33.305
33.287
33.268
33.248
33.227
33.204
33.181
33.157
33.133
33.108
33.084
33.06
33.037
33.015
32.994
32.973
32.954
32.936
32.919
32.903
32.887
32.871
32.855
32.838
32.821
32.802
32.783
32.762
32.741
32.719
32.698
32.678
32.662
32.651
32.648
32.656
32.678
32.717
32.776
32.86
32.969
33.108
33.276
33.474
33.702
33.957
34.237
34.537
34.853
35.18
35.513
35.847
36.175
36.494
36.8
37.088
37.355
37.6
37.819
38.012
38.178
38.317
38.431
38.521
38.588
38.633
38.66
38.669
38.662
38.64
38.606
38.562
38.508
38.447
38.38
38.309
38.234
38.157
38.078
38.0
37.922
37.845
37.771
37.699
37.629
37.562
37.497
37.434
37.372
37.31
37.247
37.183
37.117
37.048
36.976
36.902
36.826
36.748
36.669
36.59
36.513
36.439
36.368
36.302
36.242
36.19
36.147
36.115
36.092
36.08
36.079
36.088
36.107
36.134
36.168
36.209
36.254
36.303
36.353
36.405
36.457
36.508
36.556
36.602
36.644
36.683
36.718
36.748
36.773
36.793
36.806
36.812
36.811
36.803
36.787
36.764
36.733
36.694
36.649
36.597
36.538
36.475
36.407
36.336
36.264
36.19
36.117
36.045
35.974
35.904
35.837
35.77
35.704
35.64
35.575
35.511
35.446
35.382
35.317
35.252
35.187
35.122
35.058
34.995
34.934
34.874
34.816
34.76
34.708
34.657
34.61
34.566
34.524
34.486
34.449
34.414
34.38
34.345
34.312
34.278
34.245
34.212
34.179
34.147
34.115
34.084
34.052
34.021
33.99
33.96
33.932
33.905
33.879
33.856
33.834
33.815
33.796
33.78
33.765
33.751
33.738
33.725
33.714
33.702
33.691
33.681
33.67
33.658
33.646
33.633
33.619
33.604
33.587
33.568
33.548
33.526
33.503
33.48
33.456
33.433
33.409
33.387
33.366
33.346
33.328
33.311
33.294
33.278
33.262
33.246
33.23
33.213
33.196
33.178
33.159
33.138
33.117
33.094
33.07
33.045
33.019
32.993
32.965
32.937
32.909
32.88
32.853
32.825
32.798
32.771
32.745
32.72
32.697
32.676
32.658
32.645
32.639
32.64
32.653
32.678
32.72
32.782
32.868
32.979
33.12
33.29
33.492
33.724
33.984
34.271
34.581
34.909
35.251
35.602
35.956
36.308
36.654
36.99
37.311
37.615
37.899
38.16
38.396
38.606
38.789
38.944
39.072
39.174
39.25
39.303
39.335
39.347
39.342
39.322
39.29
39.247
39.197
39.139
39.076
39.009
38.939
38.865
38.79
38.714
38.638
38.563
38.488
38.415
38.345
38.276
38.209
38.144
38.081
38.019
37.96
37.901
37.842
37.783
37.722
37.659
37.592
37.523
37.45
37.375
37.299
37.221
37.145
37.07
36.999
36.934
36.875
36.825
36.784
36.753
36.733
36.723
36.724
36.736
36.756
36.784
36.819
36.859
36.902
36.948
36.995
37.041
37.086
37.129
37.169
37.204
37.235
37.26
37.281
37.297
37.307
37.312
37.311
37.305
37.292
37.273
37.248
37.216
37.178
37.133
37.081
37.024
36.962
36.896
36.826
36.753
36.678
36.601
36.524
36.447
36.371
36.296
36.223
36.151
36.08
36.01
35.942
35.874
35.806
35.74
35.673
35.608
35.544
35.48
35.417
35.354
35.292
35.23
35.17
35.11
35.052
34.996
34.942
34.891
34.843
34.797
34.755
34.715
34.676
34.64
34.604
34.569
34.534
34.499
34.464
34.43
34.395
34.362
34.329
34.297
34.266
34.236
34.208
34.181
34.157
34.134
34.113
34.094
34.075
34.058
34.041
34.024
34.007
33.989
33.971
33.953
33.935
33.917
33.9
33.882
33.864
33.846
33.828
33.808
33.789
33.769
33.748
33.728
33.709
33.69
33.671
33.654
33.636
33.619
33.602
33.584
33.567
33.548
33.529
33.509
33.489
33.467
33.444
33.42
33.395
33.369
33.342
33.314
33.285
33.255
33.224
33.193
33.16
33.128
33.096
33.065
33.034
33.004
32.975
32.947
32.92
32.893
32.867
32.841
32.817
32.794
32.773
32.753
32.734
32.718
32.703
32.692
32.685
32.685
32.693
32.712
32.747
32.801
32.876
32.978
33.107
33.267
33.458
33.68
33.933
34.214
34.521
34.85
35.197
35.557
35.927
36.3
36.671
37.035
37.386
37.72
38.033
38.32
38.581
38.812
39.013
39.184
39.325
39.436
39.521
39.58
39.615
39.629
39.624
39.602
39.566
39.518
39.459
39.392
39.319
39.241
39.16
39.075
38.99
38.905
38.821
38.738
38.656
38.578
38.501
38.427
38.356
38.288
38.221
38.156
38.091
38.025
37.958
37.89
37.821
37.749
37.675
37.599
37.522
37.443
37.364
37.285
37.207
37.132
37.062
36.999
36.942
36.894
36.855
36.826
36.806
36.797
36.796
36.805
36.821
36.846
36.878
36.916
36.961
37.009
37.061
37.114
37.167
37.22
37.27
37.317
37.359
37.395
37.424
37.446
37.458
37.462
37.457
37.442
37.419
37.387
37.348
37.303
37.252
37.196
37.135
37.07
37.001
36.93
36.858
36.784
36.71
36.635
36.559
36.482
36.405
36.327
36.248
36.17
36.091
36.013
35.936
35.86
35.784
35.71
35.637
35.565
35.494
35.425
35.357
35.29
35.225
35.162
35.101
35.041
34.983
34.927
34.874
34.822
34.771
34.721
34.673
34.626
34.581
34.539
34.498
34.459
34.421
34.386
34.351
34.319
34.287
34.258
34.23
34.203
34.177
34.153
34.129
34.105
34.082
34.058
34.034
34.01
33.986
33.962
33.938
33.915
33.893
33.872
33.852
33.832
33.813
33.794
33.775
33.756
33.736
33.716
33.695
33.675
33.655
33.635
33.616
33.597
33.578
33.559
33.538
33.517
33.495
33.472
33.448
33.424
33.4
33.375
33.35
33.326
33.301
33.277
33.253
33.229
33.205
33.182
33.159
33.136
33.115
33.094
33.074
33.056
33.039
33.023
33.007
32.992
32.977
32.961
32.944
32.925
32.905
32.883
32.859
32.833
32.806
32.777
32.746
32.714
32.68
32.645
32.609
32.573
32.537
32.501
32.468
32.437
32.409
32.384
32.365
32.353
32.349
32.355
32.375
32.412
32.468
32.547
32.653
32.786
32.95
33.146
33.372
33.629
33.915
34.226
34.558
34.907
35.267
35.633
36.0
36.363
36.717
37.058
37.382
37.686
37.966
38.222
38.451
38.654
38.829
38.977
39.098
39.194
39.265
39.313
39.339
39.344
39.331
39.301
39.256
39.199
39.131
39.055
38.972
38.885
38.794
38.701
38.606
38.511
38.416
38.323
38.23
38.139
38.049
37.961
37.874
37.789
37.704
37.621
37.539
37.458
37.378
37.297
37.215
37.133
37.049
36.965
36.88
36.796
36.713
36.633
36.557
36.486
36.421
36.365
36.318
36.281
36.256
36.242
36.24
36.251
36.272
36.305
36.347
36.398
36.455
36.517
36.583
36.65
36.717
36.783
36.847
36.907
36.962
37.012
37.055
37.091
37.121
37.143
37.158
37.166
37.167
37.16
37.146
37.125
37.096
37.06
37.017
36.966
36.91
36.847
36.779
36.706
36.63
36.55
36.47
36.388
36.306
36.226
36.148
36.071
35.998
35.927
35.858
35.792
35.728
35.665
35.603
35.541
35.478
35.415
35.351
35.286
35.221
35.156
35.092
35.029
34.968
34.909
34.851
34.796
34.744
34.694
34.646
34.602
34.559
34.519
34.48
34.442
34.405
34.369
34.335
34.303
34.272
34.243
34.215
34.187
34.159
34.132
34.105
34.078
34.053
34.028
34.005
33.982
33.962
33.942
33.924
33.907
33.89
33.875
33.86
33.845
33.831
33.817
33.805
33.793
33.783
33.772
33.762
33.751
33.74
33.727
33.713
33.696
33.678
33.657
33.636
33.613
33.59
33.567
33.543
33.518
33.493
33.467
33.442
33.416
33.391
33.367
33.343
33.319
33.296
33.273
33.251
33.23
33.21
33.19
33.171
33.153
33.134
33.114
33.094
33.072
33.05
33.026
33.0
32.973
32.943
32.912
32.878
32.843
32.807
32.77
32.735
32.702
32.674
32.652
32.64
32.641
32.658
32.696
32.757
32.845
32.962
33.111
33.293
33.508
33.755
34.032
34.337
34.665
35.012
35.372
35.74
36.111
36.478
36.836
37.18
37.507
37.813
38.094
38.35
38.578
38.779
38.952
39.098
39.217
39.309
39.376
39.419
39.439
39.439
39.419
39.382
39.332
39.269
39.197
39.118
39.032
38.943
38.851
38.759
38.667
38.576
38.486
38.398
38.312
38.226
38.139
38.052
37.963
37.872
37.781
37.688
37.593
37.498
37.403
37.307
37.21
37.113
37.016
36.92
36.824
36.73
36.639
36.552
36.47
36.396
36.329
36.272
36.226
36.192
36.17
36.161
36.165
36.182
36.21
36.249
36.297
36.353
36.414
36.479
36.547
36.616
36.684
36.751
36.814
36.873
36.926
36.972
37.011
37.041
37.064
37.079
37.087
37.088
37.081
37.068
37.049
37.022
36.99
36.951
36.906
36.856
36.801
36.742
36.678
36.611
36.542
36.471
36.398
36.324
36.249
36.174
36.1
36.025
35.951
35.878
35.806
35.734
35.664
35.594
35.524
35.456
35.387
35.319
35.251
35.184
35.118
35.053
34.989
34.926
34.865
34.807
34.75
34.695
34.642
34.592
34.543
34.495
34.451
34.408
34.368
34.331
34.296
34.263
34.231
34.201
34.171
34.142
34.114
34.086
34.059
34.032
34.006
33.981
33.956
33.932
33.909
33.888
33.868
33.85
33.833
33.818
33.805
33.794
33.785
33.775
33.766
33.756
33.745
33.733
33.72
33.706
33.692
33.677
33.662
33.647
33.631
33.614
33.597
33.579
33.561
33.543
33.525
33.508
33.491
33.474
33.456
33.438
33.421
33.403
33.385
33.366
33.347
33.328
33.309
33.29
33.271
33.251
33.231
33.211
33.191
33.17
33.149
33.128
33.107
33.086
33.064
33.041
33.018
32.996
32.975
32.957
32.946
32.943
32.953
32.979
33.024
33.094
33.191
33.319
33.479
33.674
33.903
34.165
34.458
34.78
35.126
35.491
35.871
36.258
36.649
37.036
37.415
37.782
38.131
38.459
38.763
39.04
39.289
39.509
39.699
39.859
39.991
40.094
40.171
40.223
40.252
40.259
40.249
40.222
40.182
40.13
40.07
40.002
39.929
39.852
39.772
39.69
39.606
39.521
39.435
39.35
39.265
39.18
39.097
39.015
38.936
38.858
38.781
38.706
38.632
38.558
38.483
38.408
38.33
38.251
38.169
38.085
37.999
37.913
