Trial 1:0back
34.547
34.518
34.488
34.456
34.424
34.391
34.357
34.323
34.289
34.254
34.219
34.185
34.151
34.116
34.082
34.047
34.011
33.974
33.936
33.897
33.858
33.819
33.78
33.742
33.703
33.665
33.626
33.588
33.549
33.509
33.469
33.43
33.39
33.35
33.31
33.27
33.232
33.194
33.158
33.124
33.091
33.06
33.031
33.003
32.978
32.954
32.931
32.909
32.887
32.866
32.845
32.824
32.803
32.783
32.762
32.742
32.722
32.703
32.683
32.662
32.641
32.62
32.597
32.575
32.552
32.53
32.509
32.49
32.475
32.465
32.462
32.468
32.486
32.519
32.569
32.638
32.729
32.843
32.98
33.14
33.323
33.526
33.747
33.984
34.233
34.491
34.753
35.016
35.275
35.527
35.769
35.998
36.212
36.408
36.586
36.744
36.882
36.999
37.096
37.172
37.229
37.268
37.29
37.296
37.288
37.266
37.233
37.188
37.134
37.072
37.003
36.928
36.849
36.768
36.686
36.604
36.523
36.442
36.362
36.284
36.207
36.133
36.06
35.99
35.922
35.855
35.791
35.728
35.668
35.609
35.551
35.495
35.44
35.386
35.332
35.279
35.226
35.174
35.122
35.07
35.02
34.971
34.924
34.879
34.836
34.796
34.76
34.726
34.696
34.67
34.647
34.628
34.612
34.601
34.594
34.591
34.593
34.598
34.607
34.62
34.635
34.652
34.671
34.691
34.711
34.729
34.747
34.762
34.776
34.787
34.796
34.803
34.808
34.812
34.813
34.812
34.808
34.801
34.791
34.778
34.76
34.74
34.716
34.689
34.659
34.628
34.595
34.561
34.526
34.491
34.454
34.418
34.381
34.344
34.307
34.269
34.232
34.195
34.157
34.12
34.083
34.047
34.011
33.975
33.939
33.903
33.867
33.832
33.796
33.76
33.723
33.687
33.651
33.615
33.579
33.544
33.51
33.477
33.445
33.413
33.383
33.352
33.323
33.294
33.265
33.237
33.209
33.182
33.155
33.13
33.106
33.083
33.061
33.041
33.021
33.001
32.981
32.961
32.941
32.919
32.896
32.873
32.849
32.825
32.801
32.778
32.756
32.735
32.717
32.701
32.69
32.685
32.688
32.7
32.726
32.767
32.826
32.904
33.004
33.126
33.271
33.436
33.621
33.824
34.042
34.272
34.512
34.757
35.004
35.25
35.492
35.724
35.946
36.153
36.343
36.515
36.668
36.8
36.911
37.003
37.075
37.128
37.164
37.183
37.186
37.176
37.153
37.119
37.077
37.028
36.973
36.913
36.849
36.782
36.712
36.64
36.565
36.489
36.411
36.332
36.252
36.173
36.093
36.014
35.937
35.861
35.787
35.715
35.645
35.578
35.513
35.45
35.389
35.329
35.27
35.213
35.157
35.102
35.049
34.996
34.945
34.894
34.845
34.797
34.752
34.708
34.668
34.632
34.599
34.571
34.548
34.53
34.517
34.508
34.505
34.506
34.512
34.521
34.534
34.549
34.566
34.585
34.605
34.626
34.646
34.667
34.686
34.704
34.72
34.735
34.747
34.756
34.763
34.768
34.77
34.771
34.77
34.767
34.762
34.754
34.745
34.732
34.718
34.7
34.68
34.657
34.631
34.603
34.571
34.537
34.501
34.463
34.424
34.383
34.342
34.301
34.26
34.219
34.18
34.142
34.105
34.07
34.035
34.003
33.971
33.94
33.909
33.879
33.848
33.818
33.787
33.757
33.727
33.696
33.666
33.636
33.606
33.576
33.547
33.518
33.49
33.462
33.436
33.41
33.385
33.36
33.335
33.311
33.286
33.261
33.237
33.212
33.188
33.164
33.141
33.118
33.096
33.074
33.052
33.03
33.008
32.985
32.962
32.939
32.917
32.895
32.875
32.859
32.848
32.843
32.847
32.862
32.891
32.936
32.999
33.082
33.187
33.314
33.462
33.632
33.821
34.026
34.246
34.477
34.714
34.955
35.196
35.433
35.662
35.88
36.084
36.273
36.444
36.597
36.73
36.843
36.936
37.011
37.067
37.105
37.127
37.133
37.125
37.105
37.073
37.031
36.982
36.925
36.863
36.796
36.725
36.65
36.574
36.496
36.417
36.337
36.258
36.179
36.101
36.022
35.944
35.866
35.788
35.71
35.633
35.557
35.482
35.408
35.336
35.266
35.197
35.131
35.066
35.004
34.944
34.886
34.831
34.779
34.73
34.684
34.642
34.604
34.57
34.541
34.516
34.497
34.483
34.474
34.47
34.47
34.476
34.486
34.499
34.516
34.536
34.559
34.584
34.611
34.639
34.669
34.698
34.726
34.754
34.78
34.804
34.825
34.843
34.858
34.869
34.876
34.878
34.876
34.871
34.861
34.848
34.833
34.817
34.799
34.78
34.759
34.738
34.715
34.69
34.664
34.636
34.606
34.574
34.541
34.507
34.473
34.439
34.405
34.371
34.338
34.304
34.271
34.238
34.205
34.172
34.141
34.11
34.08
34.05
34.021
33.992
33.963
33.935
33.907
33.879
33.851
33.823
33.795
33.767
33.738
33.71
33.681
33.652
33.623
33.594
33.567
33.539
33.513
33.487
33.463
33.44
33.418
33.397
33.376
33.355
33.334
33.312
33.29
33.269
33.247
33.228
33.211
33.197
33.188
33.184
33.187
33.199
33.223
33.261
33.315
33.387
33.479
33.591
33.723
33.875
34.046
34.233
34.436
34.651
34.874
35.104
35.336
35.567
35.795
36.017
36.228
36.428
36.613
36.783
36.937
37.072
37.191
37.29
37.372
37.437
37.485
37.517
37.534
37.536
37.526
37.504
37.47
37.427
37.376
37.317
37.252
37.182
37.109
37.033
36.957
36.879
36.802
36.724
36.647
36.572
36.497
36.423
36.351
36.28
36.211
36.143
36.076
36.01
35.945
35.881
35.817
35.755
35.694
35.633
35.573
35.514
35.456
35.399
35.344
35.291
35.241
35.193
35.148
35.107
35.071
35.04
35.015
34.996
34.983
34.976
34.975
34.98
34.99
35.005
35.024
35.047
35.073
35.1
35.129
35.157
35.185
35.21
35.234
35.254
35.272
35.288
35.301
35.312
35.321
35.327
35.331
35.331
35.329
35.323
35.314
35.302
35.286
35.268
35.248
35.226
35.203
35.178
35.152
35.124
35.096
35.067
35.037
35.006
34.974
34.94
34.906
34.871
34.835
34.8
34.764
34.729
34.694
34.66
34.625
34.592
34.558
34.526
34.493
34.461
34.429
34.396
34.363
34.33
34.297
34.265
34.233
34.201
34.17
34.138
34.107
34.076
34.046
34.016
33.987
33.96
33.934
33.909
33.884
33.861
33.838
33.815
33.794
33.774
33.754
33.734
33.716
33.697
33.677
33.657
33.637
33.616
33.595
33.574
33.553
33.531
33.509
33.488
33.469
33.451
33.436
33.427
33.426
33.435
33.457
33.495
33.551
33.628
33.727
33.849
33.993
34.16
34.348
34.556
34.782
35.022
35.272
35.531
35.792
36.054
36.313
36.565
36.808
37.037
37.252
37.449
37.627
37.786
37.925
38.045
38.145
38.226
38.29
38.336
38.366
38.382
38.384
38.374
38.353
38.322
38.282
38.235
38.181
38.121
38.057
37.988
37.916
37.842
37.765
37.687
37.609
37.53
37.452
37.374
37.299
37.226
37.156
37.089
37.026
36.967
36.911
36.858
36.808
36.758
36.71
36.663
36.615
36.567
36.52
36.471
36.422
36.373
36.324
36.274
36.226
36.179
36.135
36.094
36.056
36.022
35.992
35.966
35.944
35.927
35.913
35.904
35.899
35.898
35.9
35.906
35.916
35.928
35.942
35.958
35.976
35.994
36.013
36.032
36.05
36.067
36.082
36.096
36.107
36.115
36.12
36.121
36.119
36.112
36.101
36.088
36.072
36.053
36.033
36.011
35.987
35.962
35.934
35.904
35.872
35.838
35.801
35.764
35.725
35.685
35.645
35.605
35.564
35.524
35.483
35.441
35.399
35.357
35.315
35.273
35.232
35.19
35.149
35.109
35.069
35.031
34.993
34.957
34.922
34.887
34.852
34.818
34.784
34.75
34.717
34.684
34.651
34.618
34.585
34.552
34.519
34.486
34.454
34.422
34.391
34.361
34.331
34.302
34.273
34.244
34.216
34.188
34.16
34.133
34.106
34.079
34.053
34.028
34.002
33.977
33.952
33.928
33.906
33.885
33.868
33.856
33.851
33.855
33.87
33.901
33.948
34.015
34.103
34.214
34.348
34.506
34.685
34.886
35.104
35.338
35.584
35.839
36.099
36.361
36.621
36.876
37.122
37.357
37.579
37.784
37.972
38.141
38.289
38.417
38.525
38.613
38.681
38.732
38.765
38.782
38.784
38.774
38.752
38.721
38.68
38.633
38.578
38.519
38.454
38.387
38.316
38.244
38.171
38.097
38.024
37.952
37.88
37.809
37.738
37.669
37.601
37.534
37.469
37.406
37.344
37.284
37.226
37.168
37.112
37.055
36.999
36.943
36.887
36.831
36.774
36.718
36.662
36.607
36.554
36.504
36.456
36.412
36.371
36.336
36.305
36.279
36.259
36.243
36.232
36.225
36.223
36.225
36.23
36.237
36.247
36.258
36.27
36.282
36.295
36.307
36.319
36.33
36.34
36.349
36.357
36.363
36.368
36.37
36.37
36.368
36.362
36.354
36.344
36.331
36.315
36.297
36.277
36.254
36.229
36.201
36.172
36.14
36.107
36.072
36.035
35.998
35.959
35.92
35.88
35.839
35.798
35.757
35.715
35.673
35.63
35.587
35.542
35.497
35.452
35.406
35.359
35.313
35.267
35.221
35.176
35.132
35.089
35.046
35.005
34.964
34.926
34.888
34.853
34.819
34.786
34.753
34.72
34.687
34.653
34.619
34.584
34.55
34.517
34.484
34.451
34.419
34.387
34.356
34.326
34.296
34.266
34.236
34.206
34.176
34.144
34.113
34.081
34.049
34.018
33.986
33.956
33.926
33.899
33.874
33.852
33.835
33.825
33.824
33.834
33.857
33.896
33.954
34.031
34.13
34.251
34.395
34.562
34.749
34.956
35.18
35.418
35.666
35.922
36.181
36.441
36.696
36.945
37.184
37.41
37.622
37.818
37.995
38.152
38.289
38.406
38.503
38.58
38.638
38.679
38.705
38.716
38.715
38.703
38.68
38.648
38.607
38.56
38.506
38.446
38.382
38.312
38.239
38.161
38.081
37.999
37.915
37.831
37.747
37.663
37.581
37.501
37.423
37.347
37.275
37.205
37.137
37.071
37.007
36.944
36.882
36.821
36.761
36.699
36.638
36.577
36.516
36.456
36.397
36.34
36.287
36.238
36.195
36.156
36.124
36.098
36.077
36.063
36.055
36.053
36.055
36.063
36.076
36.092
36.112
36.133
36.157
36.181
36.205
36.228
36.251
36.272
36.293
36.311
36.328
36.343
36.354
36.362
36.366
36.366
36.363
36.355
36.345
36.331
36.314
36.293
36.27
36.245
36.217
36.188
36.158
36.126
36.092
36.057
36.02
35.981
35.939
35.896
35.85
35.802
35.753
35.702
35.65
35.597
35.545
35.494
35.443
35.393
35.343
35.294
35.246
35.198
35.152
35.108
35.065
35.024
34.985
34.947
34.911
34.876
34.842
34.809
34.776
34.743
34.711
34.678
34.646
34.612
34.579
34.544
34.509
34.474
34.439
34.403
34.366
34.33
34.294
34.258
34.223
34.188
34.154
34.121
34.088
34.056
34.026
33.996
33.969
33.943
33.921
33.904
33.892
33.888
33.895
33.915
33.951
34.006
34.082
34.181
34.303
34.448
34.617
34.807
35.017
35.244
35.486
35.738
35.997
36.26
36.523
36.782
37.034
37.276
37.507
37.723
37.922
38.104
38.267
38.411
38.536
38.642
38.73
38.799
38.85
38.885
38.904
38.908
38.9
38.881
38.851
38.813
38.768
38.716
38.659
38.597
38.532
38.463
38.392
38.32
38.246
38.172
38.097
38.022
37.948
37.873
37.798
37.723
37.649
37.575
37.503
37.431
37.362
37.294
37.227
37.16
37.095
37.031
36.968
36.906
36.844
36.784
36.725
36.668
36.612
36.559
36.509
36.461
36.418
36.379
36.344
36.315
36.29
36.27
36.256
36.247
36.243
36.243
36.249
36.258
36.269
36.283
36.299
36.315
36.33
36.346
36.361
36.376
36.39
36.403
36.414
36.423
36.43
36.434
36.435
36.431
36.424
36.413
36.397
36.378
36.356
36.331
36.304
36.274
36.241
36.206
36.169
36.13
36.088
36.046
36.001
35.956
35.91
35.862
35.814
35.767
35.719
35.671
35.624
35.576
35.526
35.476
35.425
35.374
35.322
35.272
35.222
35.173
35.127
35.083
35.04
35.0
34.96
34.922
34.884
34.847
34.81
34.773
34.737
34.701
34.665
34.629
34.593
34.557
34.521
34.485
34.449
34.413
34.377
34.34
34.303
34.266
34.227
34.189
34.15
34.111
34.074
34.036
34.0
33.964
33.929
33.895
33.861
33.829
33.798
33.769
33.741
33.714
33.69
33.667
33.647
33.632
33.622
33.621
33.631
33.654
33.693
33.75
33.829
33.93
34.057
34.209
34.386
34.588
34.813
35.058
35.321
35.597
35.882
36.173
36.466
36.755
37.038
37.311
37.571
37.816
38.044
38.252
38.441
38.608
38.754
38.879
38.983
39.067
39.131
39.177
39.205
39.217
39.215
39.2
39.172
39.134
39.087
39.033
38.973
38.908
38.84
38.769
38.695
38.621
38.547
38.472
38.399
38.327
38.255
38.185
38.114
38.045
37.976
37.907
37.84
37.774
37.71
37.646
37.582
37.519
37.456
37.392
37.328
37.264
37.199
37.135
37.07
37.007
36.944
36.884
36.826
36.771
36.719
36.672
36.629
36.59
36.556
36.526
36.501
36.481
36.465
36.454
36.446
36.443
36.442
36.444
36.448
36.454
36.462
36.47
36.479
36.488
36.496
36.504
36.51
36.515
36.519
36.521
36.521
36.519
36.515
36.508
36.498
36.485
36.468
36.447
36.423
36.395
36.364
36.33
36.294
36.254
36.213
36.17
36.124
36.078
36.03
35.981
35.931
35.879
35.826
35.771
35.715
35.657
35.598
35.539
35.48
35.421
35.363
35.306
35.25
35.196
35.143
35.091
35.041
34.993
34.945
34.899
34.853
34.807
34.761
34.715
34.669
34.624
34.578
34.533
34.489
34.446
34.403
34.36
34.319
34.278
34.238
34.2
34.162
34.126
34.092
34.058
34.025
33.993
33.961
33.929
33.898
33.867
33.834
33.801
33.766
33.73
33.694
33.657
33.621
33.585
33.55
33.518
33.488
33.463
33.444
33.433
33.433
33.446
33.476
33.526
33.597
33.693
33.814
33.961
34.134
34.333
34.554
34.795
35.054
35.325
35.606
35.892
36.18
36.465
36.744
37.014
37.27
37.512
37.736
37.942
38.127
38.291
38.434
38.556
38.657
38.739
38.802
38.846
38.872
38.882
38.876
38.856
38.823
38.779
38.726
38.665
38.598
38.525
38.448
38.368
38.286
38.203
38.12
38.037
37.956
37.877
37.8
37.724
37.65
37.578
37.506
37.434
37.363
37.292
37.22
37.147
37.074
36.999
36.925
36.85
36.776
36.703
36.632
36.564
36.498
36.436
36.376
36.32
36.266
36.217
36.172
36.132
36.096
36.065
36.038
36.016
35.998
35.985
35.976
35.971
35.969
35.97
35.973
35.979
35.987
35.996
36.007
36.019
36.032
36.045
36.057
36.068
36.078
36.085
36.09
36.091
36.088
36.082
36.073
36.061
36.046
36.028
36.007
35.983
35.957
35.929
35.898
35.866
35.831
35.794
35.755
35.714
35.671
35.627
35.582
35.536
35.489
35.442
35.395
35.347
35.298
35.247
35.195
35.141
35.086
35.029
34.973
34.916
34.86
34.804
34.75
34.697
34.646
34.596
34.547
34.5
34.454
34.409
34.366
34.323
34.281
34.24
34.2
34.159
34.12
34.081
34.043
34.005
33.968
33.93
33.892
33.854
33.817
33.78
33.744
33.708
33.672
33.637
33.602
33.568
33.534
33.5
33.468
33.436
33.406
33.377
33.349
33.324
33.302
33.285
33.276
33.277
33.291
33.32
33.368
33.436
33.525
33.638
33.773
33.932
34.113
34.316
34.536
34.772
35.021
35.278
35.539
35.802
36.061
36.314
36.558
36.788
37.004
37.202
37.381
37.54
37.678
37.795
37.891
37.967
38.023
38.062
38.083
38.088
38.078
38.056
38.022
37.978
37.925
37.865
37.798
37.727
37.652
37.573
37.493
37.41
37.326
37.241
37.156
37.069
36.983
36.896
36.81
36.723
36.637
36.55
36.464
36.378
36.294
36.21
36.128
36.047
35.968
35.891
35.815
35.742
35.67
35.6
35.533
35.468
35.405
35.346
35.29
35.239
35.191
35.149
35.111
35.079
35.054
35.034
35.02
35.012
35.009
35.012
35.02
35.031
35.045
35.061
35.079
35.098
35.117
35.137
35.157
35.175
35.191
35.205
35.216
35.224
35.229
35.23
35.228
35.222
35.213
35.202
35.187
35.17
35.15
35.127
35.102
35.075
35.046
35.016
34.984
34.95
34.915
34.879
34.842
34.804
34.764
34.722
34.678
34.633
34.586
34.538
34.49
34.442
34.394
34.347
34.301
34.255
34.211
34.167
34.125
34.083
34.042
34.002
33.962
33.922
33.882
33.842
33.803
33.763
33.724
33.685
33.647
33.61
33.573
33.536
33.499
33.464
33.429
33.395
33.361
33.328
33.295
33.263
33.231
33.2
33.17
33.14
33.111
33.083
33.055
33.027
32.999
32.971
32.944
32.917
32.891
32.866
32.845
32.828
32.816
32.812
32.818
32.837
32.872
32.926
33.0
33.098
33.219
33.365
33.534
33.727
33.941
34.172
34.419
34.677
34.941
35.21
35.478
35.742
35.999
36.246
36.479
36.697
36.898
37.08
37.241
37.383
37.503
37.603
37.683
37.744
37.786
37.811
37.82
37.814
37.795
37.763
37.721
37.67
37.611
37.545
37.474
37.398
37.318
37.236
37.152
37.068
36.982
36.897
36.812
36.729
36.646
36.565
36.484
36.406
36.329
36.254
36.182
36.113
36.046
35.981
35.919
35.858
35.798
35.738
35.678
35.618
35.557
35.497
35.436
35.377
35.32
35.264
35.211
35.161
35.115
35.072
35.034
35.001
34.975
34.954
34.939
34.93
34.926
34.928
34.934
34.945
34.958
34.974
34.991
35.01
35.03
35.049
35.069
35.087
35.104
35.12
35.134
35.145
35.153
35.159
35.162
35.161
35.157
35.151
35.141
35.127
35.111
35.092
35.07
35.046
35.018
34.988
34.955
34.92
34.882
34.842
34.8
34.757
34.712
34.666
34.62
34.573
34.526
34.479
34.434
34.389
34.345
34.302
34.259
34.218
34.176
34.135
34.095
34.055
34.014
33.974
33.934
33.894
33.854
33.816
33.778
33.742
33.708
33.676
33.645
33.615
33.587
33.559
33.53
33.501
33.471
33.439
33.407
33.374
33.34
33.305
33.27
33.234
33.199
33.163
33.129
33.095
33.064
33.036
33.012
32.993
32.982
32.98
32.989
33.012
33.051
33.109
33.187
33.288
33.412
33.56
33.73
33.922
34.133
34.361
34.602
34.854
35.111
35.371
35.628
35.881
36.124
36.354
36.57
36.769
36.949
37.109
37.248
37.366
37.464
37.541
37.599
37.638
37.66
37.666
37.658
37.638
37.606
37.564
37.513
37.455
37.389
37.318
37.242
37.163
37.081
36.999
36.916
36.833
36.75
36.669
36.589
36.511
36.436
36.364
36.294
36.228
36.165
36.104
36.044
35.985
35.927
35.869
35.811
35.753
35.696
35.639
35.581
35.525
35.468
35.412
35.357
35.303
35.251
35.201
35.153
35.109
35.069
35.032
34.999
34.97
34.944
34.923
34.905
34.891
34.882
34.877
34.875
34.878
34.883
34.892
34.903
34.917
34.931
34.945
34.96
34.973
34.986
34.997
35.007
35.014
35.02
35.022
35.022
35.019
35.013
35.004
34.992
34.977
34.959
34.938
34.914
34.887
34.858
34.828
34.795
34.762
34.729
34.696
34.662
34.628
34.594
34.558
34.522
34.484
34.446
34.408
34.369
34.332
34.295
34.259
34.224
34.19
34.155
34.12
34.085
34.049
34.013
33.976
33.94
33.903
33.866
33.829
33.793
33.758
33.724
33.69
33.657
33.625
33.593
33.562
33.531
33.501
33.472
33.442
33.413
33.384
33.356
33.327
33.3
33.273
33.247
33.223
33.203
33.186
33.174
33.17
33.176
33.194
33.226
33.275
33.343
33.429
33.537
33.666
33.815
33.985
34.172
34.376
34.592
34.819
35.051
35.287
35.522
35.753
35.977
36.192
36.394
36.581
36.751
36.904
37.037
37.151
37.245
37.32
37.375
37.413
37.434
37.438
37.429
37.406
37.372
37.328
37.275
37.214
37.147
37.075
36.997
36.917
36.833
36.748
36.663
36.577
36.492
36.407
36.323
36.241
36.161
36.084
36.008
35.936
35.866
35.798
35.733
35.669
35.607
35.546
35.486
35.427
35.369
35.313
35.257
35.202
35.149
35.096
35.044
34.994
34.946
34.899
34.855
34.815
34.777
34.743
34.712
34.686
34.664
34.645
34.631
34.62
34.614
34.61
34.611
34.615
34.622
34.633
34.647
34.663
34.68
34.699
34.719
34.737
34.755
34.771
34.784
34.793
34.799
34.8
34.798
34.792
34.784
34.773
34.759
34.743
34.726
34.706
34.685
34.663
34.639
34.614
34.587
34.559
34.53
34.5
34.469
34.438
34.405
34.373
34.339
34.306
34.272
34.238
34.204
34.17
34.135
34.099
34.062
34.024
33.985
33.947
33.908
33.87
33.834
33.799
33.765
33.733
33.702
33.672
33.644
33.617
33.59
33.563
33.536
33.508
33.481
33.453
33.425
33.397
33.368
33.339
33.311
33.282
33.254
33.225
33.197
33.168
33.139
33.11
33.081
33.053
33.026
33.0
32.976
32.954
32.936
32.921
32.913
32.912
32.921
32.942
32.979
33.033
33.107
33.203
33.32
33.461
33.622
33.803
34.002
34.216
34.442
34.676
34.915
35.154
35.39
35.618
35.836
36.041
36.229
36.399
36.551
36.682
36.793
36.883
36.952
37.003
37.035
37.052
37.054
37.043
37.02
36.986
36.943
36.892
36.833
36.768
36.698
36.624
36.547
36.467
