Trial 1:0back
35.062
35.036
35.011
34.989
34.971
34.955
34.944
34.936
34.931
34.929
34.929
34.932
34.936
34.941
34.948
34.955
34.963
34.973
34.984
34.997
35.011
35.024
35.037
35.049
35.059
35.068
35.075
35.082
35.086
35.089
35.09
35.089
35.086
35.081
35.077
35.073
35.069
35.065
35.062
35.057
35.051
35.044
35.035
35.023
35.009
34.992
34.973
34.952
34.93
34.909
34.888
34.868
34.848
34.83
34.813
34.796
34.78
34.763
34.746
34.73
34.712
34.693
34.673
34.651
34.63
34.608
34.587
34.567
34.548
34.53
34.513
34.498
34.484
34.472
34.462
34.452
34.443
34.434
34.423
34.412
34.399
34.386
34.371
34.356
34.341
34.324
34.306
34.288
34.27
34.254
34.24
34.229
34.221
34.215
34.21
34.206
34.201
34.196
34.19
34.184
34.177
34.17
34.162
34.153
34.144
34.136
34.129
34.124
34.122
34.122
34.124
34.127
34.13
34.132
34.133
34.134
34.134
34.133
34.132
34.128
34.123
34.116
34.107
34.098
34.089
34.08
34.072
34.064
34.056
34.046
34.036
34.025
34.015
34.005
33.996
33.987
33.977
33.968
33.959
33.951
33.944
33.938
33.933
33.929
33.926
33.924
33.922
33.922
33.922
33.923
33.925
33.928
33.931
33.935
33.94
33.947
33.958
33.972
33.99
34.015
34.047
34.087
34.137
34.195
34.263
34.339
34.423
34.514
34.609
34.709
34.811
34.913
35.015
35.114
35.209
35.297
35.378
35.451
35.515
35.571
35.618
35.658
35.69
35.715
35.732
35.742
35.745
35.743
35.735
35.723
35.707
35.688
35.665
35.64
35.613
35.583
35.553
35.522
35.491
35.461
35.433
35.405
35.378
35.351
35.324
35.297
35.271
35.247
35.224
35.203
35.183
35.162
35.141
35.118
35.094
35.069
35.044
35.017
34.991
34.964
34.937
34.911
34.886
34.862
34.84
34.821
34.805
34.791
34.78
34.771
34.765
34.763
34.762
34.764
34.769
34.775
34.783
34.792
34.803
34.814
34.827
34.842
34.859
34.877
34.895
34.913
34.928
34.941
34.952
34.962
34.972
34.981
34.989
34.997
35.003
35.008
35.01
35.011
35.01
35.008
35.005
35.0
34.992
34.982
34.969
34.955
34.939
34.923
34.907
34.89
34.874
34.859
34.844
34.828
34.813
34.798
34.784
34.768
34.752
34.735
34.717
34.698
34.678
34.659
34.64
34.622
34.604
34.587
34.571
34.556
34.54
34.525
34.511
34.497
34.484
34.472
34.46
34.449
34.439
34.43
34.423
34.417
34.413
34.409
34.406
34.404
34.402
34.4
34.399
34.396
34.392
34.385
34.377
34.367
34.355
34.342
34.329
34.316
34.304
34.292
34.281
34.273
34.266
34.26
34.256
34.253
34.25
34.247
34.244
34.242
34.239
34.236
34.234
34.232
34.23
34.228
34.227
34.225
34.225
34.225
34.227
34.229
34.232
34.235
34.238
34.239
34.24
34.241
34.242
34.243
34.243
34.243
34.242
34.238
34.233
34.227
34.22
34.214
34.208
34.203
34.198
34.192
34.185
34.177
34.167
34.157
34.146
34.136
34.125
34.114
34.101
34.088
34.076
34.065
34.055
34.048
34.044
34.041
34.04
34.04
34.04
34.042
34.045
34.049
34.055
34.063
34.073
34.085
34.101
34.119
34.142
34.171
34.206
34.248
34.296
34.351
34.412
34.478
34.549
34.625
34.704
34.786
34.869
34.952
35.035
35.115
35.192
35.265
35.333
35.396
35.452
35.501
35.543
35.576
35.601
35.618
35.626
35.627
35.621
35.609
35.591
35.569
35.543
35.515
35.486
35.458
35.429
35.402
35.375
35.349
35.323
35.297
35.27
35.243
35.216
35.19
35.163
35.137
35.111
35.085
35.06
35.035
35.011
34.987
34.964
34.94
34.917
34.894
34.872
34.85
34.831
34.813
34.797
34.781
34.766
34.752
34.739
34.728
34.719
34.712
34.708
34.705
34.703
34.702
34.703
34.707
34.713
34.723
34.736
34.751
34.767
34.784
34.801
34.818
34.836
34.855
34.875
34.896
34.919
34.941
34.963
34.982
34.999
35.014
35.025
35.033
35.04
35.044
35.046
35.046
35.044
35.04
35.035
35.029
35.023
35.017
35.01
35.001
34.991
34.979
34.966
34.952
34.937
34.921
34.905
34.887
34.869
34.849
34.83
34.811
34.794
34.778
34.764
34.752
34.74
34.729
34.716
34.703
34.69
34.676
34.663
34.65
34.636
34.622
34.608
34.593
34.579
34.566
34.554
34.544
34.535
34.528
34.52
34.513
34.505
34.498
34.491
34.484
34.477
34.469
34.462
34.454
34.447
34.441
34.435
34.431
34.427
34.423
34.421
34.42
34.419
34.419
34.42
34.421
34.422
34.423
34.423
34.422
34.42
34.416
34.411
34.405
34.399
34.392
34.385
34.38
34.375
34.372
34.369
34.368
34.367
34.367
34.367
34.367
34.367
34.367
34.366
34.365
34.365
34.364
34.364
34.363
34.363
34.362
34.361
34.36
34.359
34.357
34.354
34.351
34.347
34.342
34.337
34.331
34.326
34.32
34.313
34.306
34.299
34.294
34.29
34.29
34.294
34.302
34.316
34.337
34.365
34.401
34.444
34.496
34.554
34.619
34.688
34.762
34.839
34.92
35.002
35.085
35.168
35.249
35.328
35.403
35.472
35.534
35.588
35.636
35.677
35.711
35.739
35.76
35.775
35.783
35.784
35.779
35.77
35.758
35.743
35.725
35.705
35.682
35.658
35.632
35.605
35.579
35.553
35.528
35.503
35.478
35.453
35.426
35.399
35.371
35.344
35.316
35.289
35.262
35.235
35.208
35.182
35.156
35.131
35.106
35.082
35.059
35.035
35.01
34.985
34.961
34.936
34.914
34.894
34.877
34.863
34.851
34.842
34.837
34.834
34.834
34.838
34.846
34.855
34.866
34.877
34.889
34.9
34.911
34.922
34.934
34.946
34.96
34.975
34.991
35.009
35.027
35.045
35.062
35.079
35.094
35.106
35.116
35.124
35.129
35.133
35.134
35.133
35.13
35.125
35.118
35.109
35.098
35.086
35.072
35.058
35.041
35.023
35.004
34.985
34.966
34.948
34.932
34.918
34.906
34.896
34.885
34.876
34.866
34.858
34.851
34.843
34.835
34.827
34.817
34.806
34.794
34.78
34.765
34.749
34.732
34.715
34.697
34.68
34.662
34.646
34.631
34.619
34.607
34.597
34.587
34.577
34.567
34.557
34.548
34.539
34.532
34.525
34.518
34.512
34.506
34.5
34.494
34.49
34.486
34.482
34.479
34.476
34.473
34.469
34.464
34.46
34.457
34.454
34.453
34.453
34.454
34.455
34.457
34.46
34.463
34.466
34.47
34.474
34.476
34.478
34.478
34.476
34.473
34.47
34.467
34.463
34.458
34.452
34.447
34.441
34.436
34.432
34.428
34.426
34.425
34.424
34.424
34.425
34.426
34.427
34.427
34.427
34.426
34.424
34.42
34.416
34.411
34.407
34.403
34.399
34.397
34.395
34.393
34.393
34.394
34.395
34.396
34.398
34.401
34.405
34.411
34.42
34.434
34.452
34.477
34.508
34.546
34.591
34.644
34.705
34.774
34.85
34.934
35.023
35.116
35.211
35.307
35.4
35.49
35.575
35.654
35.726
35.79
35.845
35.891
35.927
35.955
35.974
35.985
35.989
35.985
35.975
35.959
35.936
35.908
35.876
35.84
35.802
35.763
35.725
35.689
35.656
35.626
35.599
35.574
35.551
35.53
35.51
35.491
35.473
35.453
35.433
35.411
35.388
35.364
35.34
35.317
35.294
35.271
35.25
35.228
35.206
35.183
35.16
35.136
35.114
35.092
35.071
35.052
35.033
35.015
35.0
34.987
34.978
34.972
34.971
34.973
34.977
34.983
34.991
35.0
35.01
35.021
35.033
35.046
35.059
35.073
35.087
35.102
35.117
35.131
35.145
35.157
35.168
35.179
35.188
35.197
35.204
35.209
35.212
35.212
35.209
35.203
35.194
35.183
35.17
35.158
35.146
35.135
35.124
35.114
35.105
35.096
35.087
35.078
35.07
35.061
35.052
35.041
35.029
35.015
35.0
34.985
34.97
34.956
34.942
34.93
34.917
34.906
34.896
34.886
34.878
34.871
34.864
34.857
34.849
34.84
34.83
34.818
34.806
34.792
34.778
34.763
34.746
34.73
34.713
34.696
34.681
34.667
34.656
34.646
34.638
34.63
34.623
34.615
34.607
34.599
34.592
34.587
34.583
34.58
34.579
34.578
34.579
34.58
34.582
34.584
34.588
34.591
34.595
34.598
34.6
34.602
34.604
34.606
34.608
34.609
34.609
34.608
34.605
34.602
34.597
34.591
34.585
34.579
34.572
34.565
34.558
34.551
34.543
34.536
34.529
34.522
34.516
34.51
34.504
34.499
34.494
34.49
34.485
34.482
34.479
34.477
34.475
34.474
34.474
34.475
34.475
34.475
34.475
34.473
34.472
34.47
34.47
34.471
34.473
34.476
34.482
34.489
34.501
34.517
34.539
34.567
34.602
34.644
34.693
34.748
34.81
34.877
34.949
35.025
35.103
35.184
35.265
35.346
35.425
35.501
35.572
35.638
35.697
35.749
35.793
35.829
35.856
35.874
35.884
35.885
35.88
35.869
35.854
35.835
35.815
35.792
35.767
35.74
35.712
35.682
35.653
35.623
35.594
35.564
35.534
35.504
35.473
35.441
35.41
35.38
35.351
35.325
35.3
35.275
35.251
35.226
35.202
35.177
35.151
35.126
35.1
35.073
35.046
35.018
34.99
34.964
34.94
34.919
34.902
34.887
34.876
34.869
34.864
34.863
34.866
34.872
34.88
34.891
34.903
34.916
34.93
34.945
34.961
34.978
34.996
35.015
35.035
35.056
35.077
35.099
35.12
35.14
35.159
35.175
35.19
35.202
35.212
35.219
35.225
35.229
35.231
35.232
35.233
35.234
35.234
35.234
35.233
35.232
35.229
35.225
35.219
35.212
35.204
35.194
35.183
35.171
35.158
35.145
35.133
35.119
35.106
35.093
35.079
35.064
35.049
35.035
35.019
35.003
34.987
34.969
34.952
34.936
34.921
34.907
34.895
34.883
34.872
34.862
34.852
34.843
34.834
34.826
34.819
34.812
34.804
34.795
34.785
34.773
34.761
34.75
34.741
34.733
34.728
34.724
34.722
34.721
34.72
34.72
34.719
34.719
34.718
34.716
34.712
34.707
34.701
34.695
34.689
34.684
34.68
34.677
34.675
34.673
34.67
34.668
34.666
34.664
34.663
34.661
34.66
34.658
34.655
34.652
34.648
34.644
34.642
34.64
34.64
34.642
34.644
34.648
34.653
34.66
34.67
34.683
34.699
34.719
34.742
34.77
34.802
34.838
34.879
34.926
34.977
35.035
35.098
35.167
35.241
35.318
35.398
35.478
35.557
35.633
35.706
35.773
35.834
35.887
35.933
35.971
36.001
36.023
36.038
36.047
36.049
36.045
36.036
36.022
36.004
35.984
35.96
35.934
35.905
35.875
35.842
35.808
35.774
35.74
35.707
35.674
35.642
35.611
35.581
35.551
35.522
35.494
35.466
35.438
35.409
35.381
35.353
35.325
35.297
35.27
35.243
35.216
35.19
35.165
35.14
35.117
35.095
35.075
35.057
35.04
35.025
35.011
34.997
34.984
34.972
34.963
34.958
34.957
34.961
34.97
34.983
34.999
35.017
35.037
35.057
35.078
35.099
35.122
35.144
35.164
35.183
35.201
35.217
35.232
35.247
35.261
35.275
35.287
35.297
35.306
35.312
35.316
35.318
35.32
35.321
35.321
35.32
35.318
35.315
35.31
35.304
35.297
35.29
35.282
35.273
35.264
35.254
35.243
35.231
35.217
35.203
35.188
35.173
35.159
35.143
35.127
35.11
35.093
35.077
35.061
35.047
35.034
35.021
35.007
34.992
34.977
34.962
34.946
34.931
34.916
34.9
34.885
34.87
34.855
34.841
34.827
34.815
34.803
34.792
34.782
34.773
34.766
34.759
34.754
34.749
34.745
34.741
34.737
34.733
34.728
34.723
34.719
34.716
34.713
34.712
34.712
34.711
34.711
34.709
34.707
34.703
34.699
34.693
34.686
34.679
34.674
34.669
34.667
34.667
34.67
34.675
34.681
34.69
34.7
34.711
34.725
34.74
34.756
34.774
34.795
34.817
34.843
34.873
34.909
34.952
35.003
35.061
35.127
35.199
35.276
35.358
35.444
35.531
35.62
35.71
35.798
35.882
35.961
36.033
36.096
36.15
36.195
36.231
36.259
36.279
36.293
36.299
36.298
36.29
36.274
36.253
36.227
36.199
36.169
36.138
36.107
36.076
36.044
36.014
35.984
35.956
35.93
35.907
35.885
35.865
35.846
35.827
35.808
35.788
35.768
35.748
35.728
35.708
35.688
35.668
35.648
35.628
35.608
35.588
35.569
35.549
35.529
35.508
35.486
35.464
35.441
35.418
35.395
35.374
35.355
35.339
35.326
35.315
35.308
35.304
35.304
35.309
35.317
35.329
35.343
35.359
35.375
35.39
35.405
35.419
35.433
35.447
35.462
35.477
35.491
35.505
35.518
35.53
35.54
35.549
35.557
35.564
35.568
35.57
35.57
35.568
35.564
35.559
35.552
35.545
35.537
35.529
35.52
35.511
35.501
35.491
35.48
35.468
35.455
35.439
35.422
35.404
35.385
35.367
35.35
35.333
35.316
35.3
35.283
35.268
35.253
35.24
35.228
35.218
35.208
35.2
35.19
35.18
35.169
35.157
35.145
35.133
35.122
35.11
35.099
35.087
35.075
35.063
35.051
35.038
35.026
35.015
35.003
34.993
34.983
34.974
34.966
34.96
34.956
34.952
34.948
34.943
34.937
34.93
34.924
34.917
34.911
34.906
34.902
34.897
34.893
34.888
34.882
34.877
34.872
34.868
34.864
34.861
34.858
34.854
34.851
34.847
34.844
34.841
34.838
34.836
34.834
34.83
34.826
34.82
34.815
34.809
34.806
34.805
34.807
34.812
34.822
34.836
34.856
34.882
34.916
34.958
35.007
35.065
35.129
35.201
35.277
35.359
35.444
35.532
35.623
35.715
35.806
35.894
35.978
36.056
36.128
36.193
36.248
36.295
36.331
36.357
36.374
36.382
36.383
36.376
36.364
36.347
36.325
36.3
36.272
36.242
36.21
36.179
36.147
36.115
36.084
36.052
36.02
35.988
35.957
35.927
35.898
35.871
35.846
35.821
35.798
35.775
35.751
35.727
35.701
35.674
35.647
35.619
35.59
35.56
35.53
35.5
35.471
35.443
35.417
35.393
35.37
35.349
35.33
35.314
35.299
35.288
35.281
35.278
35.279
35.284
35.292
35.303
35.316
35.332
35.349
35.368
35.388
35.409
35.431
35.452
35.474
35.494
35.514
35.532
35.55
35.568
35.585
35.601
35.615
35.629
35.64
35.651
35.66
35.668
35.675
35.68
35.683
35.682
35.678
35.67
35.659
35.645
35.63
35.615
35.599
35.583
35.568
35.552
35.536
35.521
35.506
35.492
35.479
35.467
35.455
35.442
35.428
35.413
35.396
35.38
35.363
35.347
35.331
35.317
35.303
35.29
35.278
35.266
35.256
35.245
35.235
35.223
35.211
35.199
35.187
35.175
35.162
35.149
35.136
35.121
35.107
35.093
35.08
35.068
35.059
35.051
35.044
35.039
35.035
35.031
35.027
35.023
35.018
35.013
35.009
35.004
34.999
34.994
34.989
34.984
34.979
34.974
34.969
34.965
34.961
34.957
34.952
34.948
34.944
34.941
34.939
34.939
34.939
34.941
34.942
34.944
34.947
34.95
34.954
34.959
34.964
34.97
34.975
34.979
34.985
34.993
35.004
35.02
35.043
35.072
35.108
35.152
35.203
35.261
35.328
35.402
35.484
35.572
35.663
35.756
35.848
35.937
36.021
36.1
36.172
36.238
36.298
36.352
36.398
36.436
36.465
36.485
36.497
36.501
36.499
36.491
36.477
36.458
36.435
36.408
36.379
36.347
36.316
36.285
36.255
36.227
36.2
36.173
36.148
36.123
36.098
36.073
36.047
36.021
35.995
35.969
35.944
35.919
35.895
35.871
35.847
35.822
35.795
35.768
35.74
35.711
35.682
35.653
35.624
35.595
35.567
35.54
35.514
35.491
35.472
35.456
35.444
35.437
35.434
35.434
35.437
35.442
35.448
35.456
35.465
35.475
35.488
35.501
35.516
35.532
35.549
35.566
35.584
35.601
35.619
35.636
35.651
35.665
35.676
35.684
35.69
35.692
35.694
35.695
35.696
35.697
35.699
35.7
35.699
35.698
35.695
35.691
35.686
35.68
35.674
35.665
35.653
35.638
35.621
35.602
35.583
35.563
35.544
35.526
35.508
35.491
35.474
35.456
35.438
35.42
35.401
35.382
35.364
35.346
35.329
35.313
35.298
35.285
35.273
35.262
35.252
35.241
35.23
35.218
35.205
35.19
35.175
35.16
35.144
35.128
35.112
35.097
35.082
35.069
35.057
35.047
35.039
35.033
35.028
35.024
35.02
35.016
35.01
35.004
34.998
34.992
34.986
34.98
34.976
34.973
34.97
34.967
34.964
34.961
34.958
34.955
34.951
34.948
34.943
34.938
34.932
34.927
34.921
34.914
34.907
34.899
34.892
34.885
34.88
34.875
34.873
34.871
34.87
34.869
34.87
34.872
34.874
34.878
34.882
34.886
34.89
34.892
34.894
34.895
34.897
34.899
34.904
34.913
34.925
34.944
34.969
35.003
35.045
35.095
35.154
35.221
35.295
35.375
35.46
35.551
35.645
35.742
35.841
35.939
36.036
36.13
36.218
36.3
36.374
36.44
36.497
36.545
36.583
36.613
36.633
36.645
36.647
36.642
36.631
36.614
36.593
36.57
36.545
36.518
36.491
36.462
36.432
36.403
36.374
36.346
36.319
36.293
36.269
36.244
36.22
36.196
36.171
36.147
36.122
36.098
36.074
36.05
36.025
35.998
35.969
35.939
35.908
35.877
35.848
35.82
35.793
35.77
35.748
35.728
35.711
35.697
35.685
35.677
35.67
35.665
35.661
35.658
35.657
35.657
35.658
35.662
35.667
35.675
35.685
35.697
35.71
35.724
35.739
35.755
35.77
35.784
35.798
35.812
35.825
35.838
35.851
35.863
35.875
35.887
35.897
35.905
35.912
35.917
35.92
35.921
35.92
35.916
35.909
35.899
35.886
35.871
35.852
35.833
35.812
35.792
35.771
35.751
35.732
35.712
35.694
35.675
35.658
35.641
35.625
35.609
35.593
35.576
35.558
35.539
35.519
35.5
35.483
35.466
35.449
35.433
35.416
35.4
35.383
35.366
35.351
35.337
35.324
35.311
35.298
35.285
35.271
35.258
35.244
35.231
35.217
35.203
35.189
35.174
35.159
35.144
35.13
35.118
35.108
35.101
35.095
35.091
35.087
35.083
35.079
35.074
35.067
35.06
35.053
35.045
35.038
35.031
35.024
35.02
35.016
35.014
35.014
35.016
35.018
35.02
35.021
35.022
35.023
35.023
35.024
35.024
35.024
35.024
35.023
35.02
35.016
35.011
35.005
34.999
34.992
34.986
34.979
34.971
34.963
34.955
34.948
34.94
34.934
34.928
34.922
34.917
34.913
34.908
34.905
34.901
34.896
34.892
34.887
34.881
34.876
34.871
34.868
34.867
34.868
34.873
34.882
34.894
34.911
34.934
34.962
34.998
35.041
35.092
35.151
35.218
35.292
35.374
35.462
35.555
35.653
35.754
35.856
35.958
36.056
36.15
36.237
36.317
36.389
36.453
36.508
36.553
36.588
36.613
36.63
36.639
36.641
36.637
36.628
36.613
36.594
36.57
36.543
36.512
36.48
36.447
36.414
36.38
36.347
36.315
36.283
36.252
36.221
36.191
36.162
36.135
36.109
36.086
36.064
36.044
36.024
36.004
35.984
35.964
35.944
35.923
35.903
35.883
35.862
35.84
35.817
35.792
35.767
35.742
35.719
35.697
35.677
35.659
35.643
35.629
35.618
35.61
35.607
35.608
35.611
35.618
35.626
35.636
35.646
35.657
35.668
35.681
35.695
35.711
35.728
35.747
35.767
35.786
35.805
35.823
35.84
35.857
35.872
35.886
35.898
35.907
35.912
35.914
35.912
35.908
35.901
35.893
35.882
35.87
35.856
35.842
35.826
35.811
35.795
35.781
35.767
35.754
35.74
35.727
35.713
35.699
35.684
35.667
35.649
35.629
35.608
35.586
35.564
35.542
35.52
35.499
35.478
35.457
35.436
35.415
35.394
35.374
35.355
35.337
35.32
35.305
35.292
35.279
35.268
35.258
35.249
35.242
35.235
35.228
35.22
35.211
35.202
35.192
35.182
35.172
35.164
35.157
35.15
35.144
35.139
35.133
35.128
35.124
35.12
35.117
35.112
35.107
35.099
35.09
35.079
35.069
35.059
35.05
35.042
35.037
35.032
35.027
35.023
35.019
35.016
35.014
35.012
35.011
35.01
35.01
35.009
35.007
35.006
35.004
35.002
35.0
34.998
34.995
34.991
34.986
34.98
34.973
34.965
34.955
34.945
34.934
34.923
34.912
34.901
34.891
34.881
34.873
34.865
34.859
34.854
34.849
34.845
34.842
34.838
34.834
34.83
34.826
34.824
34.823
34.825
34.832
34.844
34.862
34.889
34.924
34.967
35.02
35.082
35.152
35.229
35.314
35.404
35.499
35.597
35.698
35.8
35.899
35.994
36.082
36.164
36.238
36.303
36.359
36.406
36.444
36.472
36.491
36.501
36.503
36.496
36.483
36.464
36.441
36.413
36.383
36.35
36.316
36.283
36.249
36.217
36.186
36.156
36.127
36.099
36.071
36.044
36.018
35.992
35.967
35.943
35.919
35.895
35.87
35.846
35.82
35.794
35.766
35.737
35.706
35.674
35.64
35.606
35.573
35.541
35.511
35.484
35.46
35.44
35.424
35.412
35.404
35.4
35.401
35.407
35.417
35.43
35.444
35.458
35.473
35.487
35.503
35.519
35.535
35.553
35.572
35.59
35.609
35.627
35.644
35.66
35.675
35.69
35.704
35.717
35.729
35.739
35.747
35.752
35.755
35.757
35.757
35.758
35.758
35.757
35.756
35.753
35.748
35.74
35.73
35.717
35.702
35.685
35.667
35.648
35.629
35.61
35.591
35.573
