Trial 1:0back
40.002
40.836
41.616
42.33
42.969
43.528
44.002
44.391
44.698
44.927
45.082
45.172
45.202
45.18
45.114
45.01
44.876
44.719
44.543
44.353
44.151
43.942
43.727
43.509
43.291
43.073
42.858
42.644
42.435
42.23
42.032
41.841
41.657
41.48
41.309
41.146
40.989
40.84
40.696
40.557
40.422
40.289
40.157
40.027
39.896
39.764
39.629
39.491
39.349
39.203
39.054
38.903
38.75
38.596
38.442
38.288
38.135
37.984
37.832
37.679
37.529
37.383
37.246
37.121
37.009
36.913
36.834
36.771
36.724
36.691
36.672
36.662
36.661
36.667
36.676
36.688
36.7
36.709
36.714
36.714
36.707
36.692
36.668
36.635
36.592
36.541
36.482
36.416
36.344
36.267
36.187
36.102
36.014
35.921
35.826
35.728
35.626
35.522
35.415
35.306
35.194
35.081
34.967
34.855
34.744
34.636
34.529
34.424
34.319
34.215
34.11
34.005
33.9
33.797
33.694
33.591
33.489
33.387
33.286
33.186
33.087
32.99
32.896
32.806
32.72
32.638
32.561
32.489
32.421
32.356
32.293
32.232
32.173
32.115
32.058
32.003
31.949
31.897
31.846
31.795
31.745
31.695
31.644
31.594
31.544
31.495
31.448
31.403
31.361
31.321
31.283
31.247
31.212
31.178
31.146
31.115
31.085
31.055
31.027
30.999
30.972
30.947
30.923
30.901
30.881
30.863
30.847
30.831
30.816
30.801
30.787
30.773
30.76
30.748
30.738
30.728
30.719
30.709
30.699
30.687
30.674
30.659
30.642
30.624
30.605
30.585
30.565
30.544
30.522
30.501
30.479
30.458
30.438
30.418
30.401
30.384
30.369
30.355
30.342
30.329
30.316
30.304
30.292
30.28
30.27
30.26
30.251
30.244
30.238
30.232
30.227
30.222
30.216
30.209
30.201
30.191
30.18
30.167
30.154
30.14
30.127
30.114
30.102
30.09
30.078
30.066
30.056
30.047
30.041
30.04
30.044
30.055
30.074
30.103
30.147
30.21
30.296
30.409
30.556
30.741
30.971
31.253
31.593
31.999
32.479
33.037
33.674
34.388
35.17
36.01
36.893
37.805
38.725
39.637
40.52
41.359
42.139
42.848
43.478
44.021
44.476
44.84
45.117
45.31
45.424
45.467
45.447
45.373
45.254
45.098
44.912
44.704
44.481
44.249
44.013
43.776
43.54
43.308
43.082
42.862
42.647
42.44
42.237
42.04
41.848
41.66
41.477
41.299
41.125
40.953
40.784
40.618
40.454
40.293
40.135
39.98
39.827
39.675
39.526
39.377
39.23
39.084
38.937
38.788
38.639
38.487
38.336
38.185
38.035
37.888
37.745
37.606
37.472
37.345
37.227
37.118
37.02
36.933
36.856
36.791
36.734
36.686
36.645
36.612
36.585
36.565
36.552
36.545
36.543
36.543
36.545
36.546
36.545
36.54
36.53
36.515
36.494
36.467
36.432
36.39
36.34
36.284
36.221
36.152
36.078
36.0
35.92
35.836
35.752
35.665
35.578
35.49
35.4
35.309
35.216
35.12
35.02
34.917
34.81
34.7
34.588
34.474
34.36
34.246
34.133
34.021
33.91
33.802
33.697
33.595
33.496
33.401
33.309
33.219
33.131
33.044
32.959
32.875
32.792
32.711
32.632
32.556
32.481
32.408
32.336
32.265
32.196
32.129
32.064
32.002
31.943
31.887
31.833
31.781
31.731
31.681
31.632
31.583
31.535
31.488
31.442
31.397
31.353
31.312
31.274
31.238
31.207
31.184
31.171
31.168
31.171
31.18
31.191
31.202
31.21
31.214
31.212
31.203
31.188
31.168
31.143
31.115
31.084
31.052
31.018
30.986
30.953
30.922
30.893
30.865
30.838
30.814
30.791
30.771
30.752
30.735
30.719
30.704
30.691
30.678
30.666
30.653
30.641
30.628
30.616
30.603
30.591
30.579
30.567
30.556
30.545
30.533
30.52
30.506
30.492
30.478
30.465
30.454
30.445
30.438
30.434
30.431
30.429
30.427
30.426
30.423
30.42
30.417
30.413
30.409
30.405
30.399
30.392
30.384
30.374
30.362
30.349
30.336
30.323
30.311
30.3
30.293
30.29
30.294
30.306
30.329
30.364
30.415
30.487
30.582
30.707
30.865
31.063
31.303
31.594
31.939
32.347
32.822
33.369
33.988
34.679
35.433
36.239
37.085
37.952
38.825
39.686
40.518
41.305
42.033
42.691
43.271
43.767
44.175
44.495
44.729
44.882
44.959
44.968
44.915
44.81
44.663
44.481
44.273
44.046
43.805
43.557
43.306
43.056
42.808
42.563
42.323
42.087
41.855
41.628
41.405
41.185
40.968
40.754
40.543
40.336
40.133
39.936
39.744
39.56
39.381
39.21
39.045
38.886
38.731
38.579
38.429
38.279
38.128
37.976
37.822
37.668
37.514
37.363
37.215
37.072
36.935
36.806
36.688
36.58
36.484
36.4
36.328
36.265
36.213
36.171
36.139
36.117
36.104
36.1
36.104
36.115
36.131
36.152
36.176
36.2
36.223
36.241
36.255
36.264
36.267
36.265
36.26
36.25
36.234
36.211
36.18
36.141
36.094
36.039
35.977
35.909
35.836
35.759
35.679
35.598
35.516
35.432
35.347
35.259
35.167
35.071
34.971
34.868
34.763
34.656
34.55
34.444
34.337
34.231
34.124
34.017
33.911
33.807
33.705
33.605
33.509
33.416
33.326
33.238
33.153
33.069
32.987
32.907
32.831
32.756
32.684
32.614
32.545
32.478
32.412
32.348
32.286
32.226
32.167
32.11
32.056
32.004
31.955
31.909
31.866
31.826
31.789
31.754
31.72
31.686
31.653
31.62
31.587
31.556
31.526
31.499
31.474
31.451
31.429
31.408
31.387
31.367
31.346
31.327
31.308
31.291
31.276
31.262
31.249
31.235
31.221
31.207
31.191
31.175
31.157
31.138
31.118
31.096
31.073
31.051
31.03
31.009
30.99
30.973
30.958
30.947
30.939
30.935
30.933
30.932
30.933
30.934
30.935
30.937
30.939
30.941
30.942
30.942
30.941
30.937
30.93
30.921
30.91
30.898
30.885
30.872
30.858
30.844
30.828
30.811
30.793
30.774
30.756
30.739
30.723
30.71
30.698
30.686
30.674
30.662
30.65
30.64
30.632
30.63
30.636
30.654
30.686
30.737
30.809
30.907
31.034
31.196
31.396
31.638
31.929
32.273
32.677
33.148
33.689
34.303
34.987
35.736
36.538
37.38
38.247
39.122
39.987
40.826
41.623
42.365
43.038
43.636
44.152
44.583
44.928
45.19
45.374
45.484
45.528
45.512
45.444
45.334
45.189
45.015
44.819
44.604
44.377
44.143
43.907
43.672
43.442
43.218
43.002
42.794
42.592
42.396
42.204
42.016
41.831
41.647
41.465
41.285
41.108
40.933
40.762
40.596
40.433
40.274
40.119
39.968
39.819
39.671
39.524
39.377
39.229
39.079
38.929
38.778
38.626
38.476
38.329
38.185
38.047
37.915
37.79
37.674
37.568
37.47
37.381
37.3
37.226
37.159
37.1
37.048
37.004
36.968
36.94
36.918
36.903
36.892
36.886
36.882
36.88
36.879
36.876
36.869
36.857
36.839
36.815
36.785
36.75
36.71
36.667
36.619
36.568
36.513
36.454
36.392
36.326
36.255
36.178
36.096
36.008
35.916
35.821
35.722
35.622
35.52
35.417
35.312
35.206
35.099
34.991
34.883
34.776
34.669
34.565
34.463
34.364
34.268
34.174
34.082
33.991
33.899
33.806
33.712
33.618
33.526
33.436
33.349
33.265
33.183
33.104
33.026
32.95
32.875
32.802
32.732
32.666
32.604
32.545
32.49
32.438
32.387
32.338
32.288
32.238
32.186
32.134
32.083
32.032
31.983
31.936
31.891
31.847
31.804
31.763
31.724
31.687
31.654
31.624
31.596
31.572
31.552
31.533
31.517
31.503
31.49
31.478
31.467
31.455
31.444
31.432
31.42
31.408
31.396
31.384
31.372
31.359
31.346
31.332
31.319
31.305
31.292
31.279
31.265
31.249
31.233
31.216
31.198
31.179
31.16
31.141
31.122
31.103
31.082
31.06
31.037
31.013
30.988
30.964
30.94
30.918
30.899
30.883
30.87
30.861
30.854
30.849
30.845
30.843
30.842
30.841
30.842
30.842
30.842
30.842
30.84
30.837
30.831
30.824
30.814
30.803
30.79
30.777
30.763
30.751
30.74
30.733
30.731
30.735
30.748
30.773
30.813
30.872
30.955
31.067
31.211
31.393
31.617
31.889
32.214
32.598
33.049
33.57
34.163
34.827
35.557
36.342
37.171
38.028
38.897
39.761
40.603
41.406
42.157
42.842
43.453
43.984
44.431
44.793
45.071
45.268
45.391
45.446
45.441
45.383
45.281
45.145
44.98
44.794
44.593
44.38
44.16
43.937
43.713
43.49
43.268
43.051
42.836
42.626
42.421
42.22
42.023
41.83
41.642
41.458
41.28
41.106
40.937
40.772
40.612
40.456
40.304
40.157
40.012
39.871
39.732
39.596
39.461
39.327
39.192
39.055
38.915
38.771
38.624
38.475
38.325
38.178
38.034
37.896
37.766
37.644
37.531
37.427
37.334
37.253
37.182
37.123
37.074
37.035
37.005
36.983
36.967
36.956
36.95
36.947
36.946
36.946
36.946
36.944
36.94
36.932
36.921
36.903
36.88
36.85
36.813
36.769
36.719
36.663
36.601
36.533
36.458
36.378
36.292
36.201
36.106
36.008
35.907
35.804
35.702
35.599
35.497
35.395
35.294
35.194
35.093
34.993
34.892
34.79
34.689
34.587
34.486
34.386
34.287
34.189
34.093
33.998
33.905
33.815
33.727
33.641
33.557
33.474
33.391
33.31
33.23
33.152
33.075
33.0
32.926
32.854
32.783
32.713
32.645
32.579
32.517
32.458
32.403
32.353
32.306
32.261
32.218
32.175
32.134
32.094
32.054
32.017
31.98
31.945
31.911
31.878
31.846
31.814
31.785
31.756
31.73
31.706
31.683
31.662
31.641
31.621
31.602
31.582
31.563
31.545
31.527
31.51
31.493
31.476
31.459
31.442
31.425
31.408
31.391
31.373
31.355
31.337
31.319
31.302
31.286
31.271
31.255
31.239
31.223
31.206
31.189
31.172
31.156
31.141
31.127
31.116
31.106
31.097
31.089
31.081
31.073
31.063
31.054
31.046
31.038
31.031
31.026
31.022
31.019
31.017
31.015
31.014
31.014
31.013
31.012
31.011
31.008
31.003
30.995
30.984
30.97
30.952
30.932
30.909
30.885
30.863
30.842
30.825
30.814
30.811
30.818
30.838
30.875
30.932
31.012
31.121
31.263
31.441
31.66
31.923
32.235
32.602
33.029
33.521
34.08
34.707
35.396
36.139
36.925
37.74
38.568
39.392
40.195
40.964
41.683
42.34
42.928
43.438
43.866
44.211
44.474
44.657
44.767
44.809
44.791
44.72
44.605
44.454
44.274
44.073
43.857
43.631
43.4
43.167
42.934
42.704
42.478
42.256
42.039
41.825
41.616
41.41
41.208
41.01
40.815
40.625
40.438
40.255
40.077
39.903
39.734
39.57
39.411
39.258
39.109
38.964
38.822
38.682
38.544
38.407
38.27
38.134
37.998
37.862
37.727
37.594
37.464
37.339
37.221
37.112
37.012
36.922
36.842
36.772
36.712
36.661
36.62
36.589
36.565
36.551
36.544
36.544
36.55
36.562
36.578
36.597
36.617
36.637
36.654
36.666
36.672
36.672
36.664
36.65
36.629
36.603
36.57
36.532
36.486
36.434
36.375
36.31
36.24
36.165
36.087
36.005
35.919
35.83
35.739
35.645
35.551
35.455
35.36
35.263
35.164
35.064
34.962
34.858
34.753
34.647
34.541
34.435
34.331
34.228
34.128
34.029
33.933
33.84
33.748
33.659
33.572
33.488
33.408
33.33
33.256
33.185
33.117
33.051
32.986
32.922
32.857
32.792
32.728
32.665
32.603
32.544
32.488
32.436
32.387
32.341
32.297
32.255
32.215
32.176
32.139
32.103
32.069
32.036
32.005
31.976
31.949
31.923
31.899
31.875
31.851
31.828
31.805
31.782
31.76
31.739
31.718
31.697
31.675
31.652
31.627
31.601
31.575
31.55
31.525
31.503
31.482
31.462
31.444
31.425
31.407
31.388
31.371
31.356
31.343
31.332
31.324
31.317
31.312
31.308
31.304
31.299
31.294
31.288
31.283
31.277
31.271
31.263
31.254
31.243
31.23
31.215
31.2
31.183
31.168
31.153
31.138
31.125
31.112
31.099
31.087
31.076
31.065
31.054
31.043
31.031
31.018
31.004
30.991
30.98
30.975
30.979
30.993
31.024
31.072
31.143
31.24
31.368
31.53
31.731
31.976
32.269
32.617
33.024
33.496
34.036
34.645
35.32
36.054
36.835
37.651
38.484
39.319
40.139
40.928
41.671
42.356
42.973
43.514
43.974
44.352
44.647
44.863
45.003
45.075
45.086
45.044
44.957
44.833
44.679
44.503
44.31
44.107
43.899
43.691
43.485
43.283
43.086
42.895
42.71
42.532
42.359
42.193
42.031
41.874
41.721
41.572
41.425
41.28
41.137
40.994
40.851
40.709
40.568
40.426
40.284
40.141
39.997
39.852
39.707
39.561
39.414
39.267
39.119
38.971
38.823
38.677
38.532
38.391
38.252
38.118
37.989
37.866
37.751
37.645
37.547
37.459
37.381
37.312
37.252
37.2
37.155
37.116
37.083
37.054
37.028
37.006
36.986
36.968
36.952
36.936
36.92
36.903
36.885
36.865
36.842
36.814
36.78
36.741
36.695
36.642
36.585
36.521
36.454
36.382
36.307
36.229
36.149
36.065
35.977
35.887
35.792
35.694
35.593
35.49
35.386
35.282
35.177
35.072
34.969
34.866
34.765
34.664
34.563
34.463
34.363
34.266
34.171
34.078
33.988
33.901
33.815
33.731
33.648
33.565
33.482
33.4
33.318
33.238
33.161
33.087
33.015
32.946
32.879
32.814
32.751
32.689
32.629
32.573
32.519
32.47
32.426
32.384
32.345
32.306
32.268
32.229
32.19
32.149
32.108
32.068
32.03
31.994
31.961
31.929
31.899
31.87
31.841
31.813
31.784
31.755
31.726
31.698
31.671
31.645
31.62
31.596
31.573
31.552
31.532
31.513
31.496
31.48
31.465
31.449
31.433
31.416
31.396
31.374
31.35
31.326
31.301
31.277
31.255
31.236
31.219
31.203
31.186
31.169
31.151
31.133
31.116
31.101
31.088
31.078
31.07
31.064
31.057
31.049
31.04
31.029
31.018
31.006
30.997
30.989
30.983
30.978
30.974
30.97
30.964
30.957
30.95
30.942
30.934
30.925
30.916
30.906
30.894
30.882
30.869
30.855
30.841
30.828
30.815
30.803
30.791
30.782
30.776
30.774
30.78
30.797
30.828
30.879
30.954
31.056
31.19
31.359
31.567
31.821
32.127
32.492
32.922
33.421
33.991
34.632
35.337
36.098
36.903
37.738
38.586
39.432
40.26
41.054
41.801
42.487
43.105
43.646
44.107
44.487
44.786
45.007
45.154
45.234
45.253
45.218
45.137
45.019
44.871
44.699
44.512
44.314
44.109
43.902
43.695
43.49
43.289
43.091
42.898
42.71
42.526
42.348
42.175
42.007
41.844
41.686
41.532
41.384
41.239
41.099
40.963
40.83
40.699
40.569
40.439
40.308
40.175
40.04
39.902
39.762
39.619
39.474
39.328
39.182
39.035
38.89
38.746
38.605
38.468
38.337
38.211
38.093
37.983
37.881
37.786
37.7
37.622
37.551
37.488
37.431
37.381
37.339
37.302
37.271
37.245
37.223
37.203
37.184
37.166
37.147
37.127
37.105
37.083
37.06
37.037
37.01
36.979
36.942
36.897
36.846
36.787
36.72
36.647
36.567
36.481
36.39
36.294
36.193
36.088
35.98
35.87
35.76
35.65
35.542
35.435
35.331
35.231
35.134
35.039
34.945
34.851
34.757
34.663
34.568
34.474
34.38
34.286
34.191
34.095
33.999
33.902
33.807
33.713
33.622
33.535
33.451
33.371
33.294
33.22
33.149
33.08
33.014
32.95
32.887
32.827
32.769
32.712
32.657
32.602
32.548
32.494
32.439
32.385
32.331
32.279
32.229
32.18
32.135
32.092
32.051
32.012
31.974
31.937
31.902
31.868
31.837
31.809
31.782
31.758
31.735
31.713
31.691
31.668
31.645
31.623
31.602
31.581
31.56
31.54
31.519
31.498
31.477
31.457
31.436
31.418
31.401
31.385
31.371
31.359
31.348
31.337
31.326
31.316
31.305
31.294
31.283
31.272
31.26
31.248
31.237
31.225
31.214
31.203
31.192
31.18
31.168
31.156
31.144
31.135
31.127
31.121
31.117
31.114
31.11
31.107
31.104
31.1
31.097
31.094
31.09
31.086
31.081
31.074
31.065
31.053
31.038
31.02
31.0
30.978
30.955
30.932
30.908
30.883
30.858
30.834
30.811
30.793
30.78
30.777
30.785
30.807
30.845
30.902
30.982
31.089
31.225
31.396
31.606
31.86
32.16
32.512
32.92
33.389
33.919
34.513
35.165
35.871
36.62
37.399
38.195
38.991
39.772
40.524
41.234
41.89
42.485
43.012
43.464
43.841
44.143
44.37
44.528
44.621
44.655
44.636
44.57
44.465
44.327
44.162
43.975
43.771
43.552
43.324
43.09
42.852
42.614
42.378
42.145
41.919
41.7
41.491
41.292
41.102
40.923
40.754
40.594
40.444
40.302
40.166
40.036
39.908
39.781
39.653
39.524
39.393
39.259
39.122
38.981
38.838
38.693
38.548
38.405
38.265
38.129
37.996
37.868
37.743
37.622
37.505
37.395
37.291
37.196
37.111
37.035
36.97
36.916
36.874
36.841
36.817
36.799
36.788
36.78
36.776
36.774
36.774
36.775
36.777
36.779
36.778
36.774
36.766
36.754
36.735
36.709
36.676
36.636
36.588
36.533
36.472
36.405
36.333
36.258
36.181
36.102
36.022
35.942
35.861
35.779
35.693
35.604
35.511
35.413
35.313
35.21
35.106
35.001
34.897
34.794
34.692
34.59
34.49
34.39
34.29
34.19
34.09
33.991
33.891
33.793
33.698
33.605
33.516
33.43
33.352
33.281
33.218
33.162
33.11
33.061
33.013
32.965
32.916
32.864
32.809
32.752
32.693
32.632
32.569
32.507
32.446
32.386
32.328
32.274
32.222
32.174
32.13
32.089
32.052
32.018
31.987
31.959
31.934
31.911
31.889
31.866
31.843
31.819
31.793
31.766
31.74
31.714
31.689
31.666
31.644
31.624
31.605
31.587
31.568
31.55
31.533
31.515
31.498
31.481
31.464
31.447
31.431
31.417
31.403
31.389
31.377
31.365
31.354
31.343
31.332
31.322
31.312
31.302
31.291
31.28
31.27
31.259
31.249
31.239
31.229
31.219
31.21
31.201
31.191
31.182
31.171
31.159
31.145
31.13
31.113
31.095
31.076
31.056
31.035
31.014
30.993
30.974
30.956
30.943
30.934
30.933
30.94
30.96
30.996
31.054
31.14
31.257
31.408
31.596
31.822
32.089
32.399
32.757
33.166
33.631
34.155
34.737
35.375
36.065
36.797
37.56
38.341
39.126
39.899
40.648
41.358
42.017
42.617
43.149
43.609
43.995
44.306
44.545
44.715
44.821
44.868
44.863
44.812
44.723
44.602
44.456
44.288
44.105
43.911
43.71
43.506
43.301
43.097
42.897
42.7
42.509
42.322
42.141
41.966
41.797
41.632
41.473
41.318
41.168
41.022
40.879
40.74
40.604
40.469
40.337
40.205
40.074
39.941
39.806
39.669
39.53
39.388
39.243
39.094
38.944
38.792
38.639
38.488
38.338
38.191
38.047
37.908
37.774
37.647
37.529
37.418
37.316
37.223
37.139
37.063
36.997
36.941
36.895
36.859
36.83
36.808
36.789
36.774
36.76
36.747
36.733
36.718
36.7
36.679
36.655
36.627
36.595
36.558
36.515
36.467
36.412
36.352
36.288
36.219
36.148
36.074
35.998
35.92
35.839
35.756
35.67
35.583
35.495
35.405
35.313
35.22
35.125
35.027
34.928
34.827
34.726
34.625
34.525
34.425
34.326
34.227
34.129
34.031
33.934
33.838
33.744
33.652
33.564
33.478
33.396
33.317
33.239
33.163
33.089
33.014
32.94
32.866
32.794
32.724
32.658
32.596
32.537
32.481
32.426
32.373
32.32
32.267
32.215
32.163
32.114
32.068
32.025
31.984
31.946
31.91
31.875
31.842
31.811
31.781
31.752
31.723
31.695
31.666
31.637
31.607
31.576
31.546
31.516
31.489
31.465
31.444
31.426
31.41
31.397
31.384
31.372
31.359
31.347
31.335
31.324
31.311
31.299
31.285
31.269
31.252
31.233
31.214
31.195
31.177
31.16
31.144
31.131
31.119
31.107
31.096
31.084
31.07
31.055
31.038
31.021
31.003
30.986
30.969
30.953
30.937
30.921
30.906
30.891
30.876
30.863
30.85
30.839
30.829
30.821
30.814
30.808
30.802
30.795
30.788
30.781
30.773
30.766
30.759
30.752
30.745
30.737
30.728
30.718
30.707
30.695
30.683
30.672
30.662
30.654
30.651
30.653
30.664
30.685
30.722
30.777
30.856
30.962
31.101
31.277
31.493
31.755
32.067
32.434
32.861
33.352
33.911
34.537
35.228
35.976
36.771
37.6
38.448
39.298
40.134
40.941
41.702
42.406
43.043
43.606
44.089
44.491
44.812
45.053
45.22
45.318
45.355
45.337
45.272
45.167
45.031
44.869
44.688
44.493
44.289
44.081
43.87
43.66
43.452
43.248
43.047
42.85
42.658
42.472
42.291
42.117
41.95
41.789
41.634
41.483
41.337
41.195
41.055
40.917
40.779
40.643
40.505
40.367
40.229
40.09
39.951
39.812
39.673
39.534
39.393
39.25
39.105
38.959
38.811
38.663
38.515
38.37
38.228
38.091
37.962
37.842
37.733
37.635
37.548
37.472
37.407
37.352
37.307
37.271
37.241
37.217
37.196
37.178
37.16
37.144
37.127
37.109
37.091
37.071
37.049
37.024
36.995
36.961
36.921
36.874
36.82
36.762
36.698
36.631
36.561
36.489
36.413
36.335
36.255
36.171
36.085
35.995
35.902
35.805
35.704
35.601
35.496
