Trial 1:0back
39.231
39.386
39.504
39.586
39.637
39.659
39.655
39.629
39.584
39.523
39.45
39.368
39.274
39.169
39.056
38.938
38.818
38.701
38.589
38.485
38.389
38.301
38.219
38.145
38.076
38.013
37.956
37.904
37.856
37.811
37.769
37.728
37.688
37.648
37.606
37.562
37.515
37.464
37.409
37.352
37.291
37.227
37.161
37.095
37.028
36.963
36.9
36.839
36.782
36.729
36.681
36.638
36.601
36.572
36.549
36.532
36.522
36.516
36.515
36.519
36.526
36.538
36.554
36.574
36.597
36.622
36.647
36.67
36.689
36.703
36.71
36.71
36.702
36.688
36.669
36.645
36.619
36.592
36.562
36.53
36.495
36.457
36.414
36.367
36.316
36.262
36.205
36.146
36.086
36.025
35.966
35.907
35.849
35.793
35.739
35.689
35.643
35.602
35.564
35.527
35.488
35.447
35.401
35.351
35.296
35.237
35.173
35.106
35.037
34.966
34.895
34.823
34.752
34.682
34.614
34.551
34.492
34.438
34.389
34.345
34.307
34.272
34.241
34.212
34.184
34.157
34.13
34.102
34.075
34.049
34.024
34.001
33.979
33.959
33.941
33.923
33.905
33.888
33.87
33.853
33.836
33.82
33.804
33.79
33.775
33.761
33.747
33.735
33.723
33.713
33.702
33.692
33.681
33.67
33.66
33.65
33.64
33.63
33.62
33.61
33.599
33.586
33.573
33.559
33.545
33.53
33.514
33.499
33.484
33.47
33.456
33.442
33.427
33.411
33.394
33.374
33.353
33.33
33.306
33.281
33.255
33.229
33.201
33.173
33.143
33.112
33.081
33.049
33.018
32.988
32.959
32.931
32.904
32.88
32.86
32.844
32.837
32.841
32.861
32.901
32.968
33.069
33.209
33.393
33.626
33.907
34.237
34.611
35.024
35.467
35.932
36.41
36.89
37.362
37.816
38.244
38.64
38.998
39.316
39.591
39.823
40.011
40.158
40.265
40.333
40.365
40.365
40.338
40.287
40.218
40.133
40.038
39.936
39.829
39.72
39.61
39.501
39.394
39.29
39.189
39.091
38.996
38.903
38.812
38.724
38.638
38.553
38.471
38.39
38.31
38.231
38.155
38.081
38.009
37.939
37.869
37.799
37.727
37.654
37.579
37.501
37.422
37.343
37.263
37.183
37.103
37.025
36.949
36.876
36.806
36.741
36.682
36.629
36.585
36.549
36.524
36.509
36.505
36.51
36.522
36.541
36.564
36.59
36.616
36.642
36.666
36.689
36.709
36.727
36.742
36.754
36.763
36.768
36.769
36.765
36.755
36.74
36.719
36.692
36.66
36.621
36.578
36.529
36.477
36.421
36.363
36.304
36.244
36.185
36.126
36.069
36.012
35.955
35.897
35.836
35.773
35.707
35.639
35.571
35.503
35.435
35.368
35.303
35.239
35.174
35.11
35.044
34.978
34.911
34.844
34.776
34.709
34.641
34.573
34.505
34.438
34.375
34.317
34.263
34.213
34.168
34.127
34.089
34.055
34.023
33.994
33.967
33.942
33.919
33.896
33.874
33.852
33.83
33.806
33.78
33.754
33.728
33.702
33.678
33.657
33.639
33.624
33.61
33.598
33.586
33.575
33.563
33.55
33.537
33.523
33.51
33.499
33.489
33.483
33.48
33.479
33.478
33.478
33.477
33.475
33.472
33.467
33.462
33.455
33.446
33.435
33.422
33.408
33.393
33.377
33.36
33.343
33.326
33.307
33.287
33.266
33.244
33.221
33.198
33.175
33.153
33.13
33.108
33.086
33.063
33.041
33.02
32.999
32.98
32.961
32.941
32.92
32.898
32.876
32.856
32.842
32.837
32.847
32.877
32.936
33.031
33.17
33.36
33.606
33.907
34.264
34.672
35.124
35.612
36.124
36.65
37.178
37.696
38.195
38.664
39.095
39.484
39.824
40.114
40.353
40.54
40.679
40.771
40.821
40.834
40.815
40.769
40.701
40.615
40.515
40.404
40.286
40.163
40.038
39.913
39.789
39.667
39.549
39.434
39.321
39.211
39.103
38.998
38.895
38.794
38.696
38.6
38.508
38.419
38.334
38.252
38.175
38.1
38.026
37.954
37.88
37.805
37.729
37.65
37.57
37.488
37.404
37.319
37.234
37.15
37.067
36.987
36.911
36.84
36.776
36.718
36.668
36.629
36.599
36.58
36.571
36.571
36.58
36.597
36.62
36.648
36.679
36.711
36.743
36.773
36.8
36.824
36.844
36.86
36.872
36.878
36.88
36.876
36.867
36.853
36.832
36.806
36.774
36.736
36.694
36.646
36.595
36.54
36.482
36.423
36.361
36.299
36.236
36.172
36.107
36.042
35.975
35.908
35.838
35.766
35.692
35.617
35.54
35.463
35.387
35.311
35.237
35.164
35.09
35.017
34.943
34.869
34.796
34.724
34.654
34.587
34.525
34.466
34.411
34.36
34.31
34.261
34.213
34.167
34.122
34.079
34.038
34.001
33.965
33.932
33.902
33.874
33.847
33.822
33.799
33.777
33.757
33.736
33.715
33.694
33.672
33.65
33.629
33.61
33.592
33.577
33.564
33.553
33.544
33.535
33.527
33.518
33.51
33.502
33.496
33.492
33.489
33.487
33.486
33.485
33.483
33.48
33.475
33.469
33.463
33.456
33.449
33.442
33.433
33.422
33.41
33.395
33.377
33.356
33.331
33.302
33.271
33.238
33.203
33.169
33.136
33.104
33.074
33.046
33.02
32.994
32.97
32.946
32.921
32.896
32.871
32.845
32.82
32.796
32.774
32.757
32.747
32.747
32.762
32.796
32.858
32.954
33.091
33.276
33.514
33.808
34.159
34.561
35.011
35.501
36.022
36.561
37.106
37.646
38.168
38.663
39.122
39.539
39.908
40.226
40.493
40.708
40.874
40.992
41.066
41.101
41.1
41.067
41.008
40.927
40.83
40.721
40.603
40.481
40.356
40.231
40.108
39.987
39.869
39.755
39.643
39.535
39.43
39.327
39.225
39.125
39.027
38.932
38.838
38.747
38.658
38.572
38.486
38.402
38.318
38.233
38.148
38.06
37.97
37.878
37.783
37.688
37.592
37.497
37.404
37.314
37.226
37.141
37.061
36.986
36.917
36.856
36.803
36.76
36.726
36.701
36.684
36.677
36.677
36.684
36.697
36.715
36.737
36.761
36.787
36.813
36.839
36.864
36.885
36.902
36.912
36.917
36.918
36.914
36.906
36.895
36.88
36.86
36.835
36.804
36.767
36.724
36.676
36.621
36.561
36.497
36.429
36.359
36.287
36.215
36.142
36.07
35.997
35.923
35.847
35.769
35.69
35.61
35.53
35.45
35.37
35.292
35.214
35.138
35.062
34.987
34.912
34.837
34.762
34.687
34.614
34.542
34.472
34.404
34.34
34.279
34.221
34.167
34.117
34.07
34.025
33.983
33.942
33.903
33.864
33.827
33.792
33.761
33.733
33.708
33.687
33.668
33.65
33.633
33.618
33.603
33.59
33.579
33.569
33.561
33.554
33.549
33.544
33.54
33.536
33.532
33.527
33.521
33.515
33.508
33.503
33.5
33.5
33.502
33.506
33.511
33.517
33.522
33.526
33.528
33.529
33.528
33.525
33.522
33.517
33.51
33.503
33.494
33.484
33.474
33.462
33.448
33.431
33.411
33.388
33.363
33.337
33.311
33.285
33.26
33.237
33.214
33.192
33.17
33.15
33.134
33.124
33.122
33.134
33.163
33.216
33.299
33.416
33.575
33.78
34.034
34.338
34.69
35.087
35.522
35.987
36.474
36.97
37.466
37.949
38.412
38.846
39.244
39.601
39.914
40.182
40.405
40.582
40.716
40.81
40.867
40.892
40.886
40.855
40.801
40.727
40.638
40.537
40.427
40.313
40.197
40.083
39.97
39.861
39.754
39.65
39.549
39.451
39.356
39.262
39.17
39.08
38.992
38.906
38.824
38.744
38.667
38.591
38.515
38.438
38.358
38.275
38.189
38.099
38.006
37.912
37.817
37.723
37.632
37.545
37.464
37.389
37.322
37.262
37.208
37.162
37.123
37.093
37.071
37.058
37.054
37.059
37.07
37.088
37.111
37.137
37.164
37.192
37.219
37.243
37.266
37.287
37.306
37.322
37.336
37.346
37.352
37.352
37.347
37.335
37.317
37.291
37.26
37.221
37.177
37.128
37.075
37.017
36.956
36.892
36.824
36.753
36.679
36.602
36.522
36.441
36.36
36.278
36.199
36.122
36.047
35.975
35.904
35.834
35.765
35.697
35.63
35.563
35.497
35.431
35.367
35.303
35.239
35.175
35.113
35.051
34.992
34.936
34.881
34.829
34.778
34.729
34.681
34.635
34.59
34.547
34.507
34.472
34.44
34.414
34.391
34.372
34.356
34.342
34.329
34.317
34.307
34.298
34.29
34.284
34.28
34.278
34.277
34.275
34.272
34.269
34.263
34.256
34.247
34.236
34.223
34.209
34.193
34.176
34.158
34.14
34.122
34.103
34.082
34.059
34.034
34.005
33.975
33.942
33.909
33.875
33.842
33.81
33.779
33.75
33.723
33.699
33.678
33.662
33.654
33.658
33.686
33.746
33.841
33.974
34.146
34.356
34.602
34.883
35.197
35.54
35.907
36.291
36.688
37.09
37.493
37.89
38.276
38.644
38.991
39.313
39.607
39.871
40.103
40.302
40.469
40.604
40.709
40.784
40.832
40.855
40.855
40.834
40.795
40.739
40.67
40.589
40.499
40.403
40.3
40.195
40.09
39.987
39.889
39.796
39.709
39.63
39.557
39.491
39.429
39.372
39.318
39.266
39.215
39.161
39.105
39.045
38.981
38.913
38.841
38.765
38.685
38.602
38.515
38.424
38.329
38.232
38.134
38.035
37.938
37.843
37.754
37.67
37.594
37.527
37.469
37.42
37.38
37.349
37.326
37.308
37.297
37.29
37.289
37.291
37.297
37.306
37.318
37.331
37.344
37.357
37.369
37.38
37.389
37.394
37.395
37.39
37.38
37.362
37.338
37.306
37.266
37.219
37.165
37.106
37.042
36.976
36.909
36.839
36.769
36.697
36.625
36.552
36.48
36.407
36.335
36.265
36.197
36.13
36.065
36.002
35.939
35.877
35.814
35.752
35.688
35.625
35.561
35.498
35.434
35.371
35.308
35.245
35.184
35.123
35.063
35.005
34.948
34.894
34.841
34.791
34.744
34.699
34.657
34.617
34.579
34.545
34.514
34.486
34.462
34.44
34.42
34.403
34.387
34.374
34.362
34.351
34.343
34.335
34.33
34.326
34.324
34.326
34.331
34.337
34.345
34.351
34.356
34.358
34.355
34.348
34.337
34.322
34.304
34.281
34.256
34.228
34.199
34.167
34.135
34.101
34.066
34.03
33.991
33.95
33.909
33.868
33.827
33.79
33.755
33.722
33.692
33.664
33.637
33.611
33.586
33.562
33.541
33.525
33.514
33.512
33.523
33.552
33.604
33.683
33.795
33.945
34.137
34.372
34.651
34.972
35.332
35.725
36.144
36.581
37.027
37.475
37.915
38.34
38.743
39.119
39.462
39.768
40.037
40.266
40.454
40.604
40.717
40.796
40.844
40.864
40.859
40.833
40.791
40.736
40.672
40.602
40.53
40.458
40.385
40.314
40.245
40.178
40.114
40.054
40.0
39.949
39.902
39.859
39.818
39.779
39.743
39.709
39.674
39.64
39.604
39.565
39.523
39.477
39.425
39.367
39.303
39.233
39.156
39.073
38.984
38.891
38.795
38.697
38.598
38.498
38.4
38.305
38.213
38.128
38.049
37.978
37.915
37.861
37.814
37.774
37.739
37.71
37.687
37.667
37.651
37.638
37.628
37.619
37.612
37.607
37.603
37.598
37.593
37.585
37.574
37.56
37.542
37.519
37.49
37.455
37.415
37.37
37.32
37.266
37.208
37.147
37.082
37.014
36.943
36.872
36.8
36.728
36.657
36.588
36.521
36.456
36.391
36.326
36.261
36.194
36.126
36.058
35.989
35.92
35.853
35.786
35.72
35.655
35.591
35.527
35.463
35.401
35.341
35.283
35.227
35.174
35.122
35.071
35.02
34.97
34.921
34.873
34.827
34.782
34.739
34.697
34.657
34.62
34.585
34.553
34.522
34.494
34.467
34.443
34.42
34.399
34.381
34.365
34.35
34.337
34.323
34.309
34.295
34.281
34.266
34.251
34.237
34.222
34.206
34.19
34.174
34.156
34.137
34.117
34.096
34.075
34.054
34.033
34.012
33.989
33.966
33.941
33.915
33.888
33.861
33.834
33.807
33.777
33.746
33.714
33.679
33.642
33.604
33.564
33.523
33.481
33.439
33.397
33.356
33.316
33.279
33.245
33.216
33.189
33.166
33.145
33.125
33.106
33.087
33.071
33.057
33.05
33.05
33.063
33.093
33.145
33.225
33.338
33.489
33.682
33.919
34.199
34.522
34.884
35.278
35.7
36.14
36.591
37.043
37.487
37.917
38.326
38.705
39.052
39.362
39.633
39.866
40.059
40.213
40.331
40.415
40.468
40.493
40.494
40.475
40.44
40.392
40.337
40.275
40.211
40.146
40.083
40.022
39.964
39.909
39.858
39.81
39.764
39.718
39.673
39.628
39.584
39.541
39.5
39.459
39.421
39.383
39.346
39.309
39.27
39.229
39.184
39.133
39.075
39.009
38.936
38.855
38.768
38.674
38.574
38.469
38.362
38.255
38.15
38.049
37.955
37.867
37.787
37.715
37.652
37.597
37.549
37.509
37.474
37.444
37.419
37.398
37.38
37.365
37.353
37.342
37.333
37.325
37.318
37.311
37.302
37.289
37.272
37.249
37.22
37.185
37.146
37.102
37.055
37.004
36.952
36.898
36.844
36.79
36.736
36.681
36.625
36.566
36.503
36.439
36.372
36.305
36.237
36.17
36.101
36.032
35.962
35.893
35.823
35.753
35.682
35.612
35.542
35.471
35.4
35.33
35.261
35.193
35.127
35.062
34.999
34.938
34.88
34.825
34.771
34.72
34.671
34.624
34.578
34.533
34.491
34.449
34.408
34.367
34.326
34.286
34.246
34.206
34.166
34.128
34.09
34.055
34.022
33.992
33.965
33.941
33.917
33.895
33.874
33.856
33.839
33.826
33.813
33.801
33.789
33.777
33.765
33.752
33.738
33.723
33.708
33.692
33.675
33.659
33.642
33.626
33.609
33.591
33.573
33.554
33.535
33.517
33.5
33.485
33.469
33.454
33.438
33.421
33.403
33.383
33.361
33.339
33.314
33.286
33.257
33.225
33.19
33.154
33.116
33.078
33.041
33.007
32.974
32.943
32.913
32.886
32.859
32.833
32.809
32.786
32.767
32.75
32.738
32.732
32.734
32.748
32.778
32.827
32.902
33.007
33.146
33.325
33.543
33.804
34.104
34.442
34.813
35.209
35.624
36.05
36.482
36.913
37.334
37.741
38.126
38.486
38.815
39.111
39.369
39.589
39.77
39.913
40.019
40.091
40.131
40.144
40.133
40.104
40.058
40.001
39.935
39.865
39.793
39.721
39.651
39.583
39.52
39.461
39.406
39.355
39.307
39.261
39.217
39.174
39.132
39.089
39.046
39.002
38.957
38.91
38.861
38.812
38.76
38.706
38.65
38.591
38.529
38.462
38.39
38.311
38.227
38.137
38.042
37.944
37.846
37.749
37.656
37.568
37.486
37.413
37.35
37.296
37.252
37.216
37.188
37.168
37.153
37.143
37.138
37.136
37.138
37.143
37.149
37.156
37.164
37.172
37.178
37.179
37.173
37.16
37.138
37.107
37.069
37.023
36.972
36.917
36.859
36.8
36.742
36.684
36.63
36.577
36.527
36.479
36.433
36.386
36.34
36.292
36.243
36.191
36.137
36.081
36.023
35.964
35.903
35.842
35.782
35.722
35.66
35.598
35.533
35.467
35.4
35.333
35.269
35.207
35.147
35.09
35.036
34.985
34.936
34.89
34.845
34.801
34.759
34.716
34.674
34.633
34.593
34.555
34.518
34.484
34.452
34.422
34.394
34.369
34.347
34.328
34.311
34.295
34.28
34.265
34.25
34.236
34.223
34.21
34.197
34.185
34.172
34.157
34.14
34.121
34.099
34.075
34.049
34.021
33.992
33.963
33.932
33.902
33.871
33.84
33.809
33.777
33.744
33.711
33.676
33.641
33.603
33.565
33.526
33.486
33.446
33.406
33.368
33.333
33.302
33.274
33.251
33.234
33.223
33.219
33.225
33.245
33.282
33.342
33.429
33.545
33.693
33.876
34.093
34.343
34.625
34.935
35.267
35.616
35.977
36.343
36.707
37.065
37.409
37.736
38.041
38.321
38.572
38.794
38.985
39.145
39.276
39.378
39.454
39.506
39.535
39.543
39.533
39.509
39.472
39.426
39.372
39.313
39.249
39.184
39.118
39.054
38.994
38.937
38.886
38.838
38.794
38.754
38.715
38.678
38.642
38.605
38.566
38.524
38.479
38.43
38.376
38.318
38.254
38.185
38.11
38.027
37.936
37.84
37.74
37.637
37.533
37.43
37.329
37.231
37.137
37.048
36.965
36.888
36.818
36.755
36.7
36.652
36.611
36.578
36.553
36.535
36.524
36.519
36.52
36.525
36.531
36.538
36.544
36.547
36.546
36.54
36.53
36.515
36.498
36.476
36.452
36.424
36.393
36.359
36.321
36.28
36.235
36.187
36.135
36.079
36.019
35.956
35.89
35.822
35.752
35.683
35.612
35.542
35.473
35.403
35.334
35.266
35.196
35.126
35.056
34.986
34.917
34.851
34.787
34.727
34.67
34.617
34.566
34.517
34.468
34.42
34.371
34.322
34.272
34.222
34.173
34.125
34.079
34.036
33.995
33.955
33.918
33.882
33.848
33.813
33.779
33.745
33.712
33.679
33.649
33.62
33.593
33.566
33.541
33.516
33.49
33.463
33.436
33.41
33.383
33.358
33.334
33.311
33.289
33.267
33.246
33.224
33.201
33.178
33.155
33.133
33.111
33.092
33.074
33.058
33.042
33.027
33.01
32.992
32.972
32.951
32.928
32.904
32.88
32.857
32.833
32.809
32.784
32.758
32.732
32.705
32.679
32.653
32.628
32.601
32.574
32.545
32.514
32.482
32.448
32.413
32.378
32.342
32.305
32.268
32.231
32.194
32.157
32.12
32.086
32.055
32.028
32.004
31.984
31.968
31.958
31.954
31.96
31.981
32.021
32.086
32.182
32.315
32.489
32.708
32.974
33.289
33.65
34.051
34.488
34.952
35.435
35.927
36.42
36.902
37.366
37.804
38.21
38.579
38.907
39.195
39.442
39.649
39.817
39.95
40.048
40.116
40.156
40.173
40.17
40.15
40.118
40.075
40.025
39.969
39.909
39.848
39.788
39.729
39.675
39.625
39.581
39.542
39.508
39.478
39.452
39.429
39.409
39.39
39.371
39.351
39.332
39.311
39.29
39.266
39.239
39.207
39.17
39.127
39.077
39.018
38.952
38.877
38.794
38.704
38.606
38.502
38.394
38.284
38.172
38.06
37.952
37.847
37.748
37.656
37.57
37.49
37.419
37.354
37.298
37.25
37.208
37.172
37.142
37.116
37.093
37.073
37.055
37.037
37.02
37.001
36.982
36.961
36.938
36.914
36.886
36.855
36.82
36.78
36.735
36.688
36.637
36.585
36.53
36.474
36.415
36.354
36.29
36.224
36.153
36.08
36.005
35.929
35.853
35.777
35.703
35.631
35.561
35.492
35.424
35.355
35.286
35.215
35.144
35.072
34.999
34.926
34.854
34.782
34.711
34.641
34.573
34.507
34.441
34.377
34.314
34.252
34.191
34.132
34.075
34.022
33.972
33.926
33.884
33.846
33.811
33.779
33.748
33.718
33.689
33.659
33.631
33.602
33.575
33.549
33.524
33.502
33.481
33.462
33.442
33.423
33.403
33.383
33.362
33.341
33.321
33.3
33.279
33.257
33.235
33.211
33.185
33.159
33.133
33.106
33.08
33.054
33.028
33.004
32.98
32.957
32.934
32.912
32.889
32.865
32.838
32.81
32.78
32.749
32.716
32.681
32.646
32.61
32.573
32.535
32.496
32.455
32.413
32.368
32.323
32.278
32.234
32.191
32.15
32.109
32.068
32.028
31.988
31.949
31.911
31.875
31.841
31.808
31.777
31.747
31.721
31.699
31.684
31.68
31.69
31.72
31.777
31.866
31.995
32.169
32.393
32.668
32.994
33.368
33.786
34.242
34.725
35.226
35.733
36.237
36.728
37.195
37.632
38.033
38.393
38.71
38.981
39.206
39.387
39.527
39.631
39.702
39.745
39.762
39.758
39.737
39.701
39.655
39.6
39.541
39.479
39.415
39.351
39.287
39.225
39.165
39.106
39.05
38.996
38.945
38.896
38.849
38.805
38.762
38.72
38.679
38.639
38.6
38.56
38.52
38.479
38.435
38.389
38.337
38.279
38.215
38.142
38.062
37.975
37.882
37.783
37.679
37.572
37.462
37.351
37.239
37.128
37.02
36.917
36.82
36.731
36.651
36.579
36.518
36.467
36.425
36.394
36.372
36.358
36.349
36.345
36.344
36.347
36.35
36.354
36.356
36.354
36.347
36.333
36.313
36.286
36.254
36.217
36.175
36.13
36.081
36.031
35.979
35.925
35.87
35.812
35.751
35.688
35.622
35.555
35.486
35.418
35.349
35.28
35.213
35.146
35.081
35.016
34.952
34.889
34.826
34.763
34.7
34.636
34.571
34.505
34.439
34.373
34.307
34.242
34.178
34.115
34.052
33.989
33.927
33.865
33.804
33.744
33.686
33.63
33.577
33.527
33.481
33.437
33.396
33.356
33.318
33.281
33.246
33.214
33.184
33.157
33.134
33.115
33.097
33.081
33.066
33.05
33.034
33.018
33.002
32.988
32.976
32.966
32.958
32.951
32.946
32.943
32.94
32.936
32.932
32.927
32.921
32.912
32.901
32.888
32.875
32.861
32.847
32.832
32.816
32.797
32.776
32.753
32.728
32.702
32.677
32.652
32.628
32.603
32.576
32.548
32.517
32.482
32.444
32.404
32.363
32.321
32.278
32.235
32.192
32.15
32.109
32.07
32.031
31.993
31.956
31.921
31.886
31.855
31.827
31.806
31.793
31.791
31.805
31.837
31.893
31.978
32.098
32.259
32.464
32.716
33.018
33.365
33.754
34.179
34.632
35.104
35.586
36.067
36.539
36.992
37.42
37.817
38.177
38.498
38.777
39.012
39.204
39.355
39.465
39.54
39.58
39.59
39.572
39.53
39.47
39.395
39.311
39.219
39.123
39.026
38.929
38.833
38.741
38.652
