Trial 1:0back
37.261
37.233
37.215
37.206
37.207
37.217
37.236
37.262
37.294
37.332
37.373
37.415
37.458
37.5
37.54
37.577
37.61
37.64
37.665
37.686
37.701
37.711
37.714
37.71
37.699
37.681
37.655
37.622
37.582
37.536
37.483
37.424
37.359
37.289
37.214
37.136
37.054
36.969
36.883
36.796
36.709
36.621
36.533
36.445
36.358
36.272
36.187
36.103
36.02
35.937
35.854
35.771
35.689
35.607
35.527
35.448
35.371
35.296
35.223
35.153
35.085
35.02
34.957
34.897
34.839
34.784
34.73
34.679
34.63
34.582
34.536
34.491
34.449
34.408
34.368
34.331
34.294
34.259
34.226
34.193
34.161
34.13
34.101
34.073
34.046
34.02
33.995
33.971
33.946
33.92
33.895
33.869
33.844
33.819
33.794
33.769
33.745
33.722
33.698
33.676
33.654
33.633
33.613
33.593
33.574
33.556
33.538
33.52
33.502
33.483
33.464
33.445
33.423
33.401
33.377
33.351
33.325
33.297
33.267
33.237
33.206
33.173
33.14
33.106
33.073
33.04
33.008
32.977
32.946
32.916
32.887
32.859
32.83
32.802
32.775
32.748
32.721
32.693
32.666
32.638
32.61
32.583
32.556
32.529
32.502
32.476
32.45
32.424
32.398
32.371
32.346
32.321
32.297
32.274
32.252
32.231
32.211
32.192
32.173
32.157
32.141
32.127
32.113
32.099
32.086
32.072
32.057
32.041
32.025
32.007
31.989
31.969
31.949
31.929
31.907
31.885
31.863
31.841
31.819
31.799
31.779
31.761
31.744
31.728
31.714
31.702
31.691
31.683
31.679
31.681
31.691
31.712
31.747
31.8
31.875
31.977
32.109
32.275
32.477
32.715
32.99
33.299
33.64
34.011
34.405
34.818
35.245
35.678
36.113
36.542
36.962
37.366
37.75
38.11
38.444
38.748
39.022
39.263
39.47
39.645
39.788
39.901
39.984
40.042
40.074
40.084
40.073
40.045
40.001
39.945
39.878
39.802
39.721
39.634
39.545
39.453
39.36
39.268
39.176
39.086
38.998
38.913
38.83
38.75
38.673
38.6
38.529
38.461
38.394
38.327
38.26
38.191
38.121
38.049
37.974
37.895
37.814
37.731
37.645
37.558
37.472
37.388
37.308
37.233
37.166
37.106
37.057
37.016
36.986
36.966
36.957
36.958
36.971
36.993
37.025
37.066
37.115
37.169
37.228
37.29
37.354
37.416
37.476
37.533
37.585
37.63
37.667
37.697
37.717
37.728
37.731
37.724
37.708
37.685
37.654
37.615
37.57
37.518
37.46
37.397
37.328
37.256
37.18
37.101
37.02
36.938
36.855
36.771
36.687
36.602
36.516
36.43
36.342
36.253
36.163
36.073
35.982
35.893
35.804
35.716
35.63
35.546
35.464
35.386
35.31
35.239
35.17
35.104
35.041
34.979
34.919
34.861
34.804
34.748
34.694
34.642
34.59
34.539
34.491
34.444
34.399
34.357
34.318
34.281
34.247
34.215
34.186
34.158
34.133
34.111
34.09
34.072
34.055
34.04
34.026
34.012
33.997
33.982
33.966
33.949
33.931
33.911
33.89
33.867
33.844
33.821
33.797
33.774
33.75
33.727
33.705
33.683
33.661
33.639
33.618
33.597
33.577
33.556
33.535
33.514
33.493
33.472
33.45
33.428
33.406
33.383
33.361
33.338
33.316
33.293
33.27
33.246
33.222
33.197
33.171
33.143
33.115
33.086
33.057
33.027
32.997
32.968
32.939
32.911
32.883
32.855
32.827
32.8
32.773
32.746
32.719
32.693
32.667
32.641
32.616
32.592
32.567
32.543
32.52
32.497
32.475
32.453
32.432
32.411
32.392
32.373
32.355
32.338
32.321
32.305
32.29
32.275
32.261
32.247
32.234
32.22
32.205
32.19
32.174
32.158
32.141
32.124
32.107
32.091
32.074
32.057
32.04
32.023
32.007
31.992
31.977
31.962
31.949
31.938
31.931
31.93
31.938
31.957
31.991
32.045
32.122
32.225
32.36
32.527
32.731
32.97
33.246
33.557
33.901
34.274
34.67
35.085
35.513
35.947
36.381
36.809
37.227
37.628
38.009
38.365
38.692
38.989
39.254
39.484
39.681
39.844
39.974
40.073
40.144
40.188
40.208
40.206
40.186
40.149
40.099
40.036
39.964
39.884
39.797
39.706
39.612
39.515
39.417
39.319
39.221
39.123
39.027
38.932
38.839
38.748
38.657
38.568
38.48
38.392
38.303
38.212
38.121
38.028
37.935
37.841
37.747
37.653
37.56
37.468
37.379
37.292
37.209
37.131
37.059
36.994
36.938
36.891
36.855
36.831
36.818
36.817
36.827
36.847
36.876
36.913
36.956
37.005
37.059
37.115
37.172
37.231
37.288
37.344
37.397
37.446
37.49
37.528
37.559
37.583
37.6
37.608
37.608
37.601
37.586
37.564
37.536
37.502
37.463
37.418
37.368
37.313
37.253
37.189
37.121
37.049
36.973
36.895
36.815
36.732
36.648
36.562
36.474
36.385
36.295
36.204
36.113
36.021
35.928
35.835
35.743
35.65
35.559
35.47
35.383
35.3
35.219
35.143
35.069
34.999
34.931
34.865
34.801
34.739
34.68
34.624
34.57
34.519
34.471
34.426
34.383
34.343
34.304
34.266
34.229
34.192
34.157
34.122
34.089
34.056
34.026
33.997
33.97
33.945
33.921
33.899
33.878
33.858
33.839
33.821
33.804
33.788
33.772
33.758
33.744
33.73
33.716
33.703
33.689
33.675
33.66
33.645
33.629
33.612
33.594
33.575
33.555
33.535
33.513
33.491
33.469
33.446
33.422
33.398
33.374
33.349
33.325
33.301
33.278
33.255
33.233
33.21
33.188
33.165
33.142
33.119
33.096
33.073
33.049
33.024
32.999
32.974
32.949
32.923
32.898
32.873
32.847
32.822
32.798
32.774
32.752
32.73
32.709
32.689
32.67
32.65
32.631
32.611
32.592
32.573
32.554
32.534
32.512
32.49
32.466
32.442
32.418
32.393
32.368
32.344
32.32
32.297
32.275
32.253
32.233
32.214
32.195
32.177
32.16
32.142
32.124
32.106
32.088
32.068
32.049
32.03
32.012
31.997
31.987
31.983
31.987
32.004
32.035
32.086
32.16
32.26
32.39
32.552
32.749
32.982
33.251
33.556
33.894
34.261
34.653
35.066
35.493
35.929
36.368
36.805
37.234
37.65
38.047
38.422
38.772
39.092
39.382
39.64
39.867
40.061
40.224
40.356
40.458
40.533
40.583
40.609
40.615
40.602
40.574
40.531
40.475
40.409
40.334
40.252
40.165
40.073
39.978
39.88
39.781
39.681
39.582
39.483
39.385
39.289
39.196
39.105
39.017
38.931
38.847
38.765
38.684
38.603
38.522
38.441
38.358
38.274
38.189
38.102
38.015
37.926
37.838
37.751
37.666
37.585
37.509
37.439
37.377
37.325
37.282
37.25
37.23
37.221
37.222
37.234
37.255
37.284
37.321
37.363
37.41
37.46
37.513
37.568
37.622
37.676
37.726
37.773
37.815
37.852
37.883
37.906
37.922
37.931
37.931
37.923
37.907
37.883
37.852
37.813
37.767
37.714
37.654
37.587
37.515
37.438
37.355
37.269
37.179
37.086
36.992
36.895
36.799
36.703
36.607
36.511
36.417
36.324
36.233
36.143
36.055
35.969
35.884
35.801
35.719
35.638
35.559
35.481
35.405
35.331
35.258
35.188
35.119
35.052
34.986
34.922
34.861
34.801
34.743
34.688
34.636
34.587
34.541
34.498
34.458
34.421
34.385
34.352
34.32
34.29
34.261
34.233
34.205
34.178
34.152
34.127
34.103
34.08
34.058
34.037
34.016
33.997
33.979
33.961
33.943
33.926
33.909
33.892
33.874
33.856
33.837
33.817
33.795
33.773
33.751
33.728
33.704
33.681
33.656
33.631
33.606
33.58
33.555
33.529
33.504
33.48
33.456
33.432
33.407
33.383
33.357
33.331
33.305
33.278
33.251
33.223
33.194
33.166
33.137
33.109
33.082
33.055
33.03
33.005
32.98
32.956
32.932
32.908
32.883
32.858
32.831
32.804
32.776
32.747
32.716
32.685
32.654
32.623
32.592
32.561
32.532
32.504
32.478
32.454
32.432
32.412
32.394
32.377
32.361
32.345
32.33
32.314
32.297
32.28
32.261
32.241
32.22
32.198
32.176
32.153
32.13
32.107
32.085
32.063
32.041
32.019
32.0
31.985
31.976
31.978
31.994
32.028
32.084
32.167
32.279
32.425
32.607
32.828
33.087
33.384
33.717
34.081
34.472
34.885
35.315
35.755
36.2
36.643
37.08
37.505
37.913
38.299
38.66
38.993
39.295
39.565
39.801
40.005
40.176
40.316
40.425
40.506
40.561
40.591
40.599
40.587
40.557
40.511
40.452
40.38
40.299
40.209
40.112
40.009
39.902
39.793
39.682
39.57
39.459
39.348
39.239
39.133
39.029
38.927
38.829
38.733
38.639
38.549
38.46
38.373
38.287
38.201
38.115
38.028
37.94
37.852
37.762
37.673
37.584
37.498
37.415
37.336
37.262
37.196
37.138
37.088
37.049
37.019
37.0
36.991
36.992
37.003
37.024
37.053
37.09
37.134
37.183
37.235
37.291
37.348
37.405
37.462
37.516
37.568
37.616
37.66
37.698
37.731
37.756
37.774
37.784
37.785
37.778
37.763
37.741
37.71
37.672
37.626
37.572
37.51
37.441
37.364
37.28
37.19
37.095
36.995
36.892
36.786
36.68
36.574
36.468
36.364
36.262
36.162
36.064
35.969
35.876
35.786
35.698
35.613
35.53
35.451
35.374
35.299
35.227
35.157
35.089
35.023
34.959
34.897
34.837
34.779
34.722
34.668
34.615
34.564
34.514
34.467
34.421
34.378
34.338
34.301
34.265
34.231
34.2
34.17
34.141
34.114
34.088
34.064
34.041
34.02
34.0
33.981
33.963
33.945
33.928
33.911
33.895
33.879
33.864
33.848
33.832
33.816
33.799
33.782
33.764
33.746
33.728
33.71
33.691
33.671
33.651
33.63
33.608
33.586
33.562
33.538
33.513
33.488
33.462
33.437
33.411
33.386
33.361
33.337
33.314
33.291
33.268
33.245
33.223
33.2
33.178
33.155
33.132
33.108
33.084
33.058
33.032
33.005
32.977
32.949
32.921
32.893
32.864
32.836
32.808
32.78
32.753
32.726
32.701
32.676
32.651
32.627
32.603
32.58
32.557
32.534
32.512
32.49
32.467
32.443
32.418
32.393
32.367
32.339
32.312
32.283
32.254
32.226
32.197
32.17
32.145
32.123
32.105
32.093
32.09
32.096
32.115
32.15
32.205
32.283
32.388
32.525
32.694
32.898
33.139
33.414
33.723
34.062
34.428
34.817
35.224
35.642
36.066
36.49
36.909
37.317
37.709
38.082
38.433
38.758
39.055
39.323
39.56
39.766
39.939
40.082
40.195
40.279
40.336
40.367
40.374
40.36
40.327
40.276
40.21
40.132
40.043
39.944
39.839
39.729
39.615
39.499
39.383
39.267
39.152
39.038
38.925
38.814
38.705
38.597
38.491
38.387
38.284
38.182
38.081
37.98
37.879
37.777
37.675
37.572
37.469
37.367
37.266
37.168
37.075
36.987
36.907
36.836
36.774
36.723
36.684
36.657
36.643
36.64
36.649
36.67
36.702
36.743
36.793
36.851
36.915
36.984
37.057
37.132
37.209
37.286
37.361
37.433
37.502
37.565
37.622
37.672
37.714
37.747
37.771
37.785
37.789
37.783
37.766
37.739
37.702
37.656
37.602
37.54
37.47
37.395
37.315
37.229
37.14
37.048
36.954
36.857
36.759
36.66
36.559
36.459
36.359
36.259
36.16
36.064
35.969
35.877
35.788
35.701
35.617
35.536
35.457
35.381
35.308
35.237
35.17
35.105
35.044
34.985
34.93
34.876
34.824
34.775
34.727
34.68
34.635
34.592
34.551
34.51
34.471
34.434
34.397
34.363
34.33
34.3
34.272
34.245
34.22
34.196
34.173
34.152
34.131
34.111
34.093
34.075
34.058
34.042
34.027
34.014
34.001
33.989
33.976
33.964
33.951
33.938
33.924
33.908
33.892
33.876
33.858
33.84
33.821
33.801
33.782
33.763
33.744
33.725
33.707
33.689
33.671
33.652
33.633
33.613
33.593
33.572
33.551
33.53
33.509
33.488
33.466
33.444
33.421
33.397
33.372
33.346
33.32
33.292
33.264
33.234
33.203
33.172
33.141
33.11
33.08
33.05
33.02
32.99
32.96
32.93
32.9
32.869
32.839
32.807
32.775
32.743
32.71
32.678
32.648
32.618
32.591
32.566
32.544
32.527
32.516
32.514
32.524
32.549
32.593
32.661
32.755
32.88
33.038
33.232
33.463
33.732
34.036
34.374
34.742
35.136
35.551
35.98
36.418
36.859
37.296
37.726
38.141
38.539
38.915
39.265
39.586
39.877
40.135
40.36
40.552
40.71
40.837
40.933
40.999
41.038
41.052
41.043
41.014
40.968
40.908
40.835
40.752
40.661
40.562
40.459
40.353
40.246
40.139
40.034
39.931
39.833
39.738
39.647
39.558
39.471
39.386
39.302
39.218
39.134
39.049
38.961
38.872
38.78
38.686
38.589
38.49
38.389
38.287
38.187
38.088
37.992
37.902
37.819
37.743
37.678
37.622
37.579
37.548
37.529
37.523
37.53
37.548
37.577
37.615
37.662
37.717
37.777
37.842
37.91
37.978
38.044
38.107
38.165
38.219
38.266
38.306
38.338
38.362
38.378
38.386
38.384
38.374
38.355
38.328
38.292
38.249
38.199
38.143
38.08
38.012
37.939
37.861
37.778
37.691
37.601
37.508
37.413
37.315
37.215
37.114
37.013
36.911
36.81
36.709
36.609
36.51
36.413
36.317
36.223
36.131
36.043
35.958
35.877
35.799
35.724
35.653
35.585
35.519
35.456
35.396
35.337
35.28
35.224
35.169
35.115
35.062
35.011
34.96
34.912
34.865
34.82
34.778
34.739
34.702
34.667
34.635
34.604
34.576
34.55
34.526
34.505
34.486
34.469
34.455
34.442
34.431
34.42
34.409
34.397
34.385
34.371
34.355
34.338
34.32
34.301
34.282
34.262
34.241
34.22
34.199
34.177
34.155
34.133
34.111
34.089
34.067
34.045
34.023
34.001
33.978
33.955
33.932
33.908
33.884
33.86
33.835
33.81
33.784
33.758
33.732
33.704
33.676
33.648
33.62
33.591
33.561
33.531
33.502
33.472
33.442
33.413
33.383
33.353
33.322
33.291
33.257
33.223
33.188
33.151
33.115
33.078
33.041
33.005
32.971
32.937
32.905
32.873
32.843
32.813
32.784
32.755
32.728
32.703
32.681
32.664
32.655
32.655
32.669
32.699
32.751
32.827
32.933
33.071
33.244
33.453
33.699
33.981
34.297
34.644
35.02
35.421
35.84
36.273
36.714
37.156
37.594
38.023
38.436
38.829
39.199
39.543
39.857
40.141
40.393
40.612
40.799
40.954
41.078
41.172
41.238
41.278
41.294
41.288
41.264
41.224
41.169
41.102
41.026
40.941
40.85
40.755
40.657
40.557
40.458
40.359
40.261
40.166
40.073
39.985
39.901
39.821
39.745
39.672
39.601
39.531
39.461
39.39
39.317
39.242
39.163
39.081
38.995
38.905
38.813
38.718
38.623
38.529
38.437
38.35
38.269
38.195
38.13
38.076
38.034
38.004
37.985
37.979
37.984
38.0
38.026
38.06
38.1
38.145
38.193
38.242
38.292
38.339
38.384
38.425
38.461
38.492
38.516
38.532
38.54
38.539
38.529
38.511
38.484
38.448
38.404
38.352
38.293
38.228
38.156
38.079
37.997
37.911
37.821
37.728
37.633
37.537
37.441
37.345
37.249
37.153
37.058
36.964
36.871
36.779
36.688
36.598
36.509
36.42
36.333
36.247
36.163
36.079
35.997
35.915
35.836
35.757
35.681
35.606
35.534
35.464
35.397
35.333
35.27
35.21
35.152
35.096
35.041
34.988
34.937
34.887
34.838
34.792
34.748
34.706
34.667
34.63
34.596
34.564
34.534
34.505
34.476
34.449
34.422
34.395
34.368
34.342
34.316
34.29
34.265
34.242
34.218
34.196
34.174
34.152
34.13
34.108
34.085
34.061
34.036
34.011
33.984
33.957
33.929
33.899
33.869
33.838
33.807
33.775
33.744
33.713
33.682
33.652
33.622
33.592
33.562
33.532
33.503
33.473
33.444
33.416
33.387
33.359
33.332
33.304
33.276
33.247
33.217
33.185
33.152
33.118
33.083
33.047
33.011
32.975
32.94
32.905
32.872
32.839
32.809
32.779
32.751
32.724
32.697
32.67
32.643
32.616
32.589
32.562
32.534
32.506
32.477
32.448
32.417
32.387
32.357
32.327
32.297
32.268
32.239
32.212
32.186
32.162
32.14
32.123
32.111
32.107
32.115
32.138
32.179
32.243
32.335
32.458
32.615
32.808
33.037
33.302
33.603
33.935
34.296
34.681
35.084
35.501
35.925
36.35
36.77
37.181
37.576
37.953
38.306
38.634
38.931
39.198
39.431
39.632
39.8
39.935
40.04
40.114
40.161
40.183
40.182
40.16
40.122
40.069
40.004
39.929
39.848
39.761
39.671
39.579
39.488
39.396
39.307
39.219
39.133
39.05
38.97
38.892
38.817
38.745
38.675
38.606
38.538
38.469
38.399
38.328
38.254
38.178
38.098
38.016
37.931
37.844
37.756
37.667
37.578
37.489
37.403
37.32
37.242
37.17
37.106
37.052
37.008
36.974
36.951
36.939
36.936
36.943
36.958
36.98
37.01
37.045
37.084
37.126
37.169
37.213
37.254
37.292
37.326
37.354
37.376
37.39
37.398
37.398
37.391
37.377
37.355
37.325
37.287
37.241
37.187
37.125
37.055
36.979
36.897
36.809
36.718
36.623
36.526
36.426
36.326
36.225
36.123
36.022
35.923
35.824
35.727
35.633
35.541
35.452
35.366
35.283
35.203
35.126
35.052
34.981
34.911
34.842
34.774
34.707
34.641
34.575
34.51
34.446
34.383
34.322
34.262
34.204
34.149
34.095
34.045
33.997
33.951
33.908
33.867
33.828
33.789
33.751
33.714
33.677
33.641
33.606
33.572
33.538
33.507
33.476
33.447
33.42
33.394
33.37
33.348
33.327
33.306
33.286
33.265
33.244
33.222
33.2
33.176
33.152
33.127
33.102
33.077
33.051
33.025
32.999
32.972
32.945
32.918
32.89
32.863
32.836
32.81
32.785
32.76
32.737
32.714
32.691
32.668
32.644
32.62
32.595
32.569
32.542
32.513
32.482
32.45
32.415
32.379
32.341
32.302
32.263
32.224
32.186
32.148
32.113
32.08
32.049
32.021
31.996
31.973
31.952
31.932
31.913
31.895
31.876
31.857
31.837
31.815
31.793
31.768
31.743
31.718
31.693
31.668
31.644
31.62
31.596
31.572
31.547
31.522
31.497
31.472
31.446
31.42
31.393
31.365
31.338
31.312
31.287
31.262
31.24
31.22
31.202
31.19
31.184
31.187
31.202
31.232
31.282
31.354
31.452
31.579
31.736
31.926
32.148
32.401
32.683
32.991
33.323
33.673
34.038
34.41
34.787
35.161
35.528
35.883
36.222
36.54
36.836
37.105
37.346
37.558
37.74
37.893
38.017
38.113
38.182
38.226
38.246
38.246
38.228
38.193
38.145
38.086
38.018
37.943
37.863
37.78
37.695
37.609
37.524
37.44
37.358
37.278
37.201
37.126
37.055
36.986
36.921
36.858
36.797
36.738
36.681
36.623
36.565
36.505
36.442
36.377
36.308
36.236
36.162
36.087
36.011
35.936
35.864
35.796
35.732
35.675
35.625
35.583
35.55
35.526
35.512
35.507
35.511
35.523
35.542
35.567
35.599
35.635
35.675
35.718
35.763
35.809
35.854
35.898
35.939
35.978
36.012
36.041
36.065
36.082
36.092
36.096
36.092
36.081
36.063
36.038
36.005
35.965
35.92
35.868
35.811
35.75
35.684
35.615
35.543
35.468
35.392
35.315
35.237
35.157
35.078
34.998
34.919
34.841
34.765
34.689
34.616
34.544
34.475
34.408
34.344
34.283
34.224
34.167
34.112
34.059
34.008
33.957
33.907
33.859
33.813
33.768
33.725
33.683
33.643
33.604
33.566
33.53
33.494
33.459
33.425
33.392
33.36
33.33
33.302
33.275
33.251
33.229
33.208
33.188
33.17
33.153
33.137
33.121
33.105
33.089
33.074
33.058
33.041
33.023
33.005
32.986
32.968
32.949
32.932
32.914
32.897
32.879
32.861
32.842
32.824
32.805
32.786
32.768
32.748
32.729
32.709
32.688
32.668
32.648
32.627
32.606
32.585
32.563
32.54
32.516
32.492
32.467
32.441
32.416
32.39
32.364
32.339
32.314
32.29
32.266
32.243
32.222
32.201
32.182
32.164
32.147
32.13
32.113
32.096
32.079
32.061
32.042
32.022
32.0
31.977
31.953
31.928
31.902
31.876
31.85
31.824
31.799
31.775
31.751
31.727
31.704
31.682
31.661
31.641
31.622
31.603
31.585
31.566
31.547
31.527
31.509
31.492
31.478
31.469
31.467
31.474
31.494
31.53
31.584
31.661
31.763
31.892
32.049
32.234
32.448
32.688
32.954
33.24
33.544
33.861
34.187
34.518
34.848
35.173
35.488
35.789
36.074
36.338
36.581
36.799
36.991
37.158
37.298
37.412
37.502
37.569
37.614
37.64
37.648
37.639
37.616
37.58
37.533
37.476
37.412
37.343
37.27
37.194
37.118
37.04
36.964
36.888
36.813
36.74
36.669
36.6
36.532
36.466
36.402
36.34
36.278
36.216
36.155
36.093
36.03
35.966
35.9
35.833
35.764
35.694
35.624
35.553
35.485
35.419
35.358
35.302
35.252
35.21
35.176
35.151
35.133
35.124
35.124
35.132
35.149
35.175
35.209
35.25
35.297
35.35
35.406
35.463
35.521
35.578
35.632
35.683
35.728
35.769
35.803
35.831
35.852
35.866
35.873
35.873
35.866
35.853
35.832
35.805
35.771
35.732
35.687
35.638
35.583
35.525
35.464
35.399
35.333
35.265
35.196
35.126
35.056
34.987
34.918
34.85
34.783
34.717
34.652
34.588
34.526
34.466
34.407
34.349
34.293
34.239
34.186
34.135
34.085
34.036
