Trial 1:0back
34.937
34.933
34.931
34.928
34.926
34.923
34.92
34.918
34.915
34.914
34.915
34.921
34.934
34.954
34.983
35.023
35.073
35.135
35.208
35.291
35.384
35.486
35.595
35.709
35.828
35.948
36.069
36.189
36.305
36.417
36.523
36.623
36.715
36.799
36.874
36.938
36.993
37.037
37.071
37.097
37.114
37.125
37.129
37.126
37.116
37.101
37.08
37.055
37.027
36.998
36.968
36.937
36.905
36.873
36.839
36.807
36.775
36.744
36.716
36.689
36.663
36.638
36.613
36.588
36.563
36.537
36.511
36.483
36.454
36.422
36.388
36.353
36.317
36.281
36.246
36.212
36.179
36.147
36.118
36.091
36.067
36.046
36.03
36.017
36.007
36.001
35.997
35.996
35.999
36.004
36.011
36.02
36.031
36.043
36.055
36.068
36.083
36.099
36.117
36.137
36.157
36.177
36.196
36.214
36.231
36.246
36.259
36.271
36.282
36.289
36.294
36.296
36.295
36.291
36.284
36.275
36.264
36.25
36.232
36.212
36.19
36.166
36.141
36.115
36.089
36.063
36.036
36.01
35.983
35.957
35.932
35.907
35.883
35.86
35.837
35.814
35.791
35.767
35.744
35.721
35.698
35.676
35.652
35.629
35.604
35.578
35.552
35.525
35.499
35.473
35.448
35.425
35.403
35.382
35.363
35.346
35.331
35.317
35.304
35.293
35.281
35.269
35.258
35.246
35.235
35.224
35.214
35.203
35.191
35.179
35.167
35.155
35.143
35.131
35.12
35.11
35.102
35.096
35.092
35.09
35.089
35.09
35.091
35.091
35.091
35.088
35.084
35.079
35.072
35.065
35.058
35.05
35.042
35.033
35.024
35.015
35.006
34.997
34.987
34.975
34.963
34.949
34.935
34.921
34.908
34.897
34.888
34.88
34.872
34.865
34.857
34.849
34.842
34.834
34.828
34.821
34.814
34.807
34.799
34.792
34.784
34.776
34.77
34.764
34.762
34.762
34.768
34.78
34.799
34.828
34.865
34.913
34.97
35.039
35.118
35.208
35.309
35.419
35.537
35.66
35.786
35.913
36.04
36.164
36.285
36.401
36.51
36.61
36.699
36.777
36.843
36.897
36.94
36.973
36.997
37.013
37.022
37.024
37.022
37.016
37.007
36.995
36.983
36.969
36.953
36.934
36.912
36.887
36.859
36.829
36.797
36.765
36.731
36.696
36.661
36.624
36.586
36.548
36.511
36.475
36.44
36.407
36.374
36.341
36.308
36.275
36.241
36.207
36.173
36.137
36.101
36.063
36.026
35.99
35.956
35.925
35.897
35.873
35.853
35.836
35.823
35.814
35.81
35.811
35.818
35.829
35.844
35.862
35.883
35.905
35.928
35.951
35.973
35.994
36.013
36.029
36.043
36.054
36.064
36.073
36.081
36.089
36.096
36.101
36.105
36.107
36.108
36.107
36.105
36.102
36.097
36.091
36.082
36.07
36.056
36.04
36.022
36.003
35.983
35.963
35.941
35.919
35.896
35.874
35.852
35.831
35.81
35.788
35.764
35.74
35.714
35.689
35.664
35.639
35.615
35.593
35.571
35.549
35.528
35.507
35.486
35.465
35.443
35.42
35.396
35.371
35.346
35.32
35.295
35.271
35.248
35.224
35.2
35.176
35.153
35.131
35.11
35.092
35.076
35.061
35.049
35.039
35.031
35.026
35.022
35.02
35.019
35.016
35.013
35.01
35.006
35.002
34.997
34.991
34.983
34.975
34.965
34.956
34.947
34.939
34.932
34.926
34.92
34.914
34.908
34.903
34.899
34.896
34.894
34.892
34.889
34.885
34.88
34.874
34.868
34.861
34.853
34.845
34.836
34.827
34.818
34.81
34.802
34.795
34.788
34.782
34.775
34.767
34.76
34.754
34.748
34.743
34.739
34.736
34.733
34.731
34.731
34.731
34.734
34.738
34.744
34.751
34.761
34.774
34.793
34.818
34.851
34.892
34.941
34.998
35.063
35.135
35.214
35.299
35.39
35.486
35.586
35.687
35.789
35.892
35.993
36.092
36.188
36.278
36.361
36.436
36.501
36.556
36.6
36.635
36.66
36.675
36.682
36.681
36.672
36.657
36.637
36.612
36.584
36.554
36.522
36.488
36.454
36.419
36.385
36.353
36.322
36.294
36.267
36.241
36.215
36.188
36.16
36.13
36.098
36.065
36.03
35.992
35.952
35.909
35.863
35.815
35.766
35.717
35.668
35.62
35.575
35.532
35.494
35.46
35.431
35.408
35.39
35.377
35.368
35.364
35.365
35.37
35.379
35.392
35.408
35.427
35.448
35.472
35.497
35.522
35.548
35.572
35.596
35.617
35.636
35.651
35.664
35.674
35.681
35.686
35.69
35.693
35.696
35.698
35.701
35.704
35.708
35.711
35.713
35.714
35.713
35.71
35.706
35.699
35.69
35.68
35.666
35.651
35.634
35.613
35.59
35.565
35.537
35.508
35.478
35.449
35.419
35.389
35.361
35.333
35.307
35.281
35.257
35.234
35.212
35.191
35.17
35.149
35.128
35.108
35.088
35.068
35.048
35.028
35.009
34.99
34.973
34.955
34.939
34.923
34.907
34.892
34.878
34.864
34.852
34.84
34.829
34.819
34.809
34.799
34.788
34.777
34.766
34.755
34.743
34.732
34.721
34.71
34.7
34.69
34.681
34.673
34.665
34.657
34.649
34.641
34.633
34.624
34.616
34.608
34.601
34.595
34.59
34.586
34.583
34.582
34.583
34.585
34.587
34.591
34.595
34.598
34.601
34.603
34.605
34.605
34.606
34.605
34.604
34.603
34.603
34.604
34.607
34.612
34.619
34.628
34.641
34.659
34.681
34.709
34.746
34.792
34.848
34.914
34.989
35.074
35.166
35.264
35.368
35.475
35.585
35.695
35.804
35.909
36.009
36.103
36.19
36.269
36.339
36.399
36.45
36.489
36.518
36.536
36.545
36.546
36.54
36.528
36.51
36.487
36.46
36.43
36.398
36.363
36.329
36.294
36.259
36.223
36.187
36.15
36.113
36.076
36.039
36.003
35.968
35.934
35.9
35.867
35.834
35.8
35.767
35.735
35.702
35.669
35.635
35.599
35.563
35.526
35.489
35.453
35.419
35.386
35.354
35.325
35.298
35.274
35.255
35.24
35.23
35.224
35.222
35.224
35.23
35.242
35.258
35.28
35.307
35.337
35.371
35.408
35.446
35.486
35.527
35.566
35.602
35.635
35.662
35.685
35.703
35.717
35.728
35.734
35.737
35.736
35.731
35.721
35.708
35.693
35.676
35.658
35.64
35.622
35.604
35.585
35.566
35.547
35.528
35.508
35.487
35.464
35.44
35.413
35.385
35.356
35.327
35.297
35.267
35.236
35.204
35.172
35.14
35.109
35.078
35.047
35.017
34.987
34.957
34.929
34.903
34.879
34.858
34.839
34.821
34.804
34.788
34.773
34.761
34.751
34.743
34.736
34.731
34.727
34.723
34.719
34.716
34.712
34.707
34.701
34.694
34.684
34.673
34.662
34.649
34.637
34.626
34.614
34.603
34.593
34.584
34.576
34.568
34.562
34.556
34.551
34.546
34.541
34.537
34.533
34.53
34.527
34.524
34.521
34.518
34.515
34.512
34.508
34.504
34.499
34.493
34.487
34.479
34.472
34.465
34.459
34.454
34.451
34.449
34.449
34.452
34.457
34.466
34.48
34.5
34.525
34.558
34.599
34.648
34.705
34.771
34.846
34.929
35.022
35.121
35.228
35.339
35.453
35.569
35.684
35.797
35.905
36.007
36.102
36.188
36.265
36.331
36.388
36.435
36.474
36.504
36.526
36.54
36.547
36.547
36.541
36.531
36.517
36.501
36.483
36.462
36.439
36.412
36.382
36.35
36.316
36.281
36.245
36.21
36.175
36.139
36.103
36.068
36.035
36.002
35.969
35.938
35.906
35.874
35.843
35.811
35.779
35.748
35.717
35.685
35.652
35.618
35.582
35.546
35.509
35.474
35.441
35.411
35.384
35.36
35.34
35.325
35.315
35.31
35.311
35.317
35.326
35.337
35.351
35.366
35.384
35.403
35.423
35.444
35.465
35.485
35.505
35.523
35.54
35.555
35.569
35.582
35.592
35.601
35.607
35.612
35.615
35.617
35.618
35.617
35.614
35.61
35.604
35.596
35.586
35.575
35.563
35.549
35.534
35.517
35.498
35.478
35.455
35.43
35.403
35.375
35.346
35.316
35.286
35.256
35.227
35.199
35.172
35.145
35.118
35.092
35.065
35.039
35.014
34.989
34.967
34.946
34.927
34.91
34.895
34.883
34.872
34.861
34.849
34.836
34.82
34.803
34.784
34.765
34.746
34.728
34.711
34.694
34.678
34.663
34.65
34.639
34.629
34.622
34.615
34.61
34.605
34.601
34.597
34.594
34.592
34.59
34.59
34.591
34.593
34.595
34.598
34.6
34.6
34.599
34.596
34.59
34.584
34.576
34.568
34.559
34.551
34.543
34.534
34.525
34.517
34.509
34.503
34.498
34.495
34.493
34.494
34.496
34.5
34.508
34.521
34.537
34.558
34.585
34.617
34.654
34.699
34.751
34.811
34.879
34.954
35.037
35.127
35.222
35.321
35.424
35.528
35.633
35.736
35.837
35.933
36.023
36.106
36.182
36.251
36.312
36.365
36.409
36.445
36.473
36.492
36.504
36.51
36.509
36.504
36.495
36.48
36.461
36.437
36.408
36.376
36.343
36.307
36.271
36.234
36.197
36.159
36.121
36.084
36.048
36.014
35.982
35.952
35.922
35.893
35.864
35.834
35.802
35.77
35.736
35.702
35.667
35.63
35.593
35.555
35.518
35.482
35.448
35.415
35.386
35.36
35.338
35.32
35.307
35.3
35.298
35.302
35.31
35.322
35.337
35.354
35.374
35.395
35.417
35.439
35.461
35.481
35.5
35.516
35.53
35.543
35.554
35.562
35.569
35.575
35.58
35.583
35.585
35.587
35.589
35.591
35.593
35.595
35.596
35.595
35.592
35.587
35.581
35.572
35.561
35.547
35.53
35.511
35.49
35.467
35.442
35.417
35.391
35.365
35.338
35.313
35.288
35.265
35.244
35.225
35.209
35.195
35.181
35.169
35.156
35.144
35.132
35.12
35.107
35.093
35.078
35.062
35.044
35.025
35.006
34.985
34.963
34.941
34.918
34.896
34.874
34.855
34.839
34.826
34.815
34.805
34.796
34.789
34.781
34.775
34.769
34.765
34.76
34.755
34.748
34.741
34.734
34.725
34.716
34.707
34.695
34.683
34.669
34.654
34.64
34.626
34.613
34.602
34.591
34.582
34.574
34.568
34.564
34.563
34.562
34.563
34.565
34.568
34.573
34.579
34.588
34.6
34.616
34.636
34.662
34.692
34.73
34.775
34.827
34.888
34.956
35.032
35.115
35.204
35.298
35.396
35.498
35.604
35.71
35.817
35.922
36.023
36.118
36.207
36.288
36.361
36.425
36.479
36.524
36.559
36.584
36.6
36.606
36.604
36.594
36.577
36.555
36.527
36.496
36.463
36.428
36.392
36.357
36.323
36.29
36.258
36.226
36.195
36.163
36.131
36.099
36.067
36.034
36.0
35.964
35.926
35.887
35.847
35.806
35.766
35.725
35.685
35.644
35.605
35.566
35.53
35.496
35.466
35.439
35.417
35.397
35.379
35.364
35.351
35.34
35.333
35.33
35.33
35.333
35.337
35.342
35.349
35.358
35.368
35.378
35.39
35.403
35.416
35.429
35.443
35.458
35.473
35.489
35.504
35.518
35.53
35.541
35.55
35.558
35.565
35.571
35.574
35.574
35.571
35.565
35.555
35.542
35.527
35.508
35.486
35.462
35.437
35.41
35.382
35.355
35.33
35.306
35.283
35.263
35.243
35.225
35.207
35.19
35.174
35.159
35.143
35.127
35.111
35.093
35.075
35.056
35.037
35.016
34.994
34.971
34.947
34.922
34.897
34.873
34.848
34.824
34.8
34.776
34.752
34.73
34.709
34.691
34.674
34.658
34.645
34.633
34.624
34.616
34.611
34.608
34.606
34.603
34.601
34.597
34.594
34.59
34.586
34.58
34.573
34.564
34.553
34.542
34.532
34.522
34.513
34.505
34.497
34.49
34.483
34.477
34.473
34.469
34.465
34.462
34.46
34.457
34.455
34.455
34.455
34.456
34.457
34.457
34.456
34.455
34.454
34.452
34.45
34.447
34.444
34.44
34.436
34.433
34.432
34.434
34.439
34.448
34.463
34.485
34.514
34.553
34.603
34.664
34.735
34.817
34.907
35.007
35.113
35.226
35.342
35.462
35.581
35.699
35.814
35.923
36.027
36.124
36.212
36.291
36.36
36.417
36.463
36.496
36.517
36.528
36.53
36.523
36.511
36.493
36.471
36.445
36.418
36.388
36.359
36.328
36.298
36.267
36.236
36.206
36.177
36.15
36.124
36.1
36.077
36.055
36.032
36.007
35.982
35.955
35.926
35.896
35.864
35.831
35.798
35.765
35.733
35.701
35.671
35.643
35.617
35.593
35.571
35.55
35.53
35.512
35.496
35.482
35.47
35.459
35.45
35.441
35.433
35.427
35.424
35.423
35.425
35.431
35.438
35.448
35.46
35.475
35.49
35.507
35.523
35.538
35.553
35.565
35.576
35.585
35.593
35.598
35.602
35.604
35.603
35.6
35.595
35.588
35.579
35.569
35.557
35.543
35.528
35.51
35.49
35.468
35.445
35.421
35.397
35.374
35.351
35.327
35.303
35.28
35.256
35.233
35.21
35.188
35.165
35.143
35.12
35.097
35.074
35.052
35.029
35.006
34.982
34.959
34.936
34.915
34.895
34.876
34.858
34.841
34.825
34.81
34.794
34.78
34.767
34.754
34.742
34.731
34.721
34.712
34.704
34.697
34.69
34.685
34.68
34.674
34.668
34.66
34.651
34.641
34.629
34.616
34.602
34.588
34.573
34.559
34.545
34.532
34.52
34.509
34.499
34.489
34.48
34.472
34.465
34.459
34.454
34.448
34.443
34.438
34.432
34.426
34.421
34.414
34.406
34.398
34.388
34.378
34.368
34.358
34.349
34.341
34.333
34.327
34.321
34.317
34.313
34.311
34.31
34.309
34.309
34.311
34.313
34.317
34.324
34.333
34.346
34.363
34.384
34.411
34.444
34.485
34.533
34.589
34.652
34.721
34.797
34.878
34.965
35.056
35.151
35.247
35.344
35.439
35.531
35.619
35.702
35.779
35.85
35.913
35.969
36.017
36.056
36.088
36.111
36.127
36.135
36.136
36.13
36.119
36.103
36.082
36.057
36.03
36.0
35.969
35.937
35.904
35.872
35.839
35.807
35.776
35.747
35.72
35.694
35.669
35.646
35.624
35.604
35.586
35.567
35.549
35.529
35.508
35.484
35.458
35.431
35.403
35.374
35.345
35.315
35.285
35.256
35.228
35.202
35.179
35.159
35.143
35.129
35.119
35.113
35.11
35.111
35.115
35.122
35.131
35.142
35.154
35.167
35.181
35.196
35.211
35.226
35.24
35.254
35.267
35.279
35.289
35.299
35.307
35.313
35.317
35.319
35.317
35.311
35.304
35.295
35.286
35.275
35.264
35.252
35.239
35.225
35.21
35.194
35.176
35.158
35.137
35.114
35.089
35.063
35.036
35.01
34.984
34.959
34.935
34.911
34.888
34.867
34.847
34.83
34.814
34.799
34.786
34.773
34.761
34.749
34.738
34.727
34.716
34.704
34.691
34.677
34.661
34.645
34.629
34.612
34.594
34.576
34.557
34.538
34.52
34.503
34.489
34.476
34.466
34.457
34.45
34.444
34.439
34.436
34.433
34.43
34.428
34.424
34.419
34.413
34.406
34.4
34.394
34.387
34.381
34.375
34.369
34.364
34.361
34.358
34.357
34.356
34.355
34.353
34.351
34.349
34.346
34.344
34.341
34.337
34.333
34.328
34.324
34.321
34.318
34.315
34.311
34.306
34.301
34.295
34.289
34.282
34.275
34.268
34.261
34.253
34.245
34.237
34.23
34.222
34.214
34.204
34.193
34.181
34.169
34.157
34.147
34.138
34.131
34.127
34.126
34.128
34.134
34.145
34.161
34.182
34.21
34.243
34.283
34.331
34.386
34.45
34.523
34.602
34.687
34.777
34.869
34.963
35.058
35.152
35.244
35.332
35.414
35.49
35.559
35.62
35.673
35.718
35.755
35.782
35.801
35.812
35.814
35.81
35.798
35.782
35.76
35.735
35.707
35.676
35.643
35.608
35.573
35.539
35.506
35.474
35.444
35.415
35.388
35.362
35.337
35.314
35.292
35.272
35.252
35.232
35.21
35.188
35.164
35.139
35.113
35.087
35.058
35.029
34.998
34.967
34.937
34.909
34.882
34.858
34.835
34.814
34.796
34.782
34.771
34.765
34.763
34.765
34.77
34.777
34.788
34.802
34.82
34.84
34.863
34.888
34.913
34.938
34.962
34.985
35.006
35.027
35.046
35.063
35.079
35.094
35.106
35.117
35.125
35.13
35.132
35.13
35.125
35.118
35.108
35.097
35.085
35.073
35.06
35.047
35.034
35.022
35.01
34.998
34.985
34.972
34.959
34.946
34.932
34.918
34.904
34.89
34.876
34.86
34.842
34.822
34.8
34.777
34.753
34.729
34.706
34.683
34.661
34.64
34.619
34.601
34.584
34.568
34.554
34.54
34.527
34.514
34.503
34.493
34.485
34.479
34.474
34.47
34.468
34.467
34.468
34.47
34.472
34.474
34.475
34.475
34.474
34.472
34.469
34.465
34.462
34.457
34.453
34.448
34.444
34.44
34.436
34.433
34.43
34.427
34.424
34.422
34.419
34.416
34.414
34.411
34.408
34.403
34.397
34.389
34.381
34.374
34.367
34.36
34.353
34.346
34.339
34.332
34.325
34.32
34.315
34.312
34.308
34.305
34.302
34.298
34.295
34.294
34.295
34.298
34.303
34.311
34.323
34.341
34.366
34.398
34.436
34.482
34.533
34.591
34.654
34.722
34.795
34.873
34.953
35.035
35.117
35.198
35.277
35.353
35.423
35.487
35.545
35.596
35.639
35.676
35.705
35.727
35.743
35.753
35.757
35.756
35.749
35.736
35.72
35.7
35.678
35.654
35.63
35.604
35.579
35.553
35.528
35.504
35.48
35.457
35.433
35.41
35.387
35.364
35.342
35.32
35.298
35.277
35.256
35.234
35.211
35.187
35.161
35.135
35.107
35.079
35.05
35.021
34.993
34.966
34.94
34.917
34.896
34.879
34.864
34.852
34.842
34.833
34.827
34.824
34.823
34.825
34.832
34.841
34.854
34.87
34.89
34.912
34.937
34.963
34.99
35.017
35.043
35.068
35.092
35.114
35.134
35.152
35.167
35.178
35.185
35.188
35.189
35.186
35.181
35.173
35.164
35.152
35.139
35.126
35.112
35.1
35.088
35.077
35.067
35.056
35.044
35.033
35.021
35.009
34.997
34.985
34.971
34.955
34.938
34.919
34.899
34.878
34.856
34.833
34.808
34.783
34.757
34.731
34.705
34.681
34.658
34.637
34.617
34.6
34.586
34.575
34.566
34.558
34.553
34.548
34.545
34.541
34.539
34.537
34.537
34.537
34.537
34.538
34.54
34.541
34.541
34.542
34.541
34.54
34.537
34.533
34.528
34.522
34.517
34.512
34.508
34.506
34.505
34.506
34.507
34.508
34.51
34.511
34.511
34.511
34.511
34.51
34.509
34.508
34.507
34.505
34.503
34.5
34.497
34.492
34.485
34.479
34.471
34.462
34.453
34.444
34.435
34.426
34.418
34.411
34.405
34.401
34.398
34.396
34.394
34.391
34.388
34.382
34.376
34.368
34.36
34.351
34.342
34.334
34.328
34.324
34.323
34.325
34.331
34.34
34.353
34.371
34.393
34.422
34.457
34.498
34.547
34.604
34.667
34.739
34.818
34.903
34.994
35.088
35.184
35.281
35.377
35.47
35.56
35.646
35.726
35.801
35.867
35.926
35.974
36.013
36.042
36.06
36.068
36.067
36.058
36.041
36.019
35.992
35.962
35.93
35.898
35.866
35.836
35.806
35.778
35.75
35.724
35.699
35.675
35.652
35.63
35.608
35.586
35.565
35.543
35.521
35.499
35.476
35.453
35.428
35.402
35.375
35.348
35.321
35.295
35.27
35.248
35.227
35.208
35.191
35.175
35.16
35.147
35.134
35.123
35.112
35.103
35.094
35.088
35.084
35.082
35.083
35.085
35.09
35.095
35.102
35.111
35.122
35.135
35.149
35.164
35.179
35.194
35.21
35.226
35.243
35.259
35.275
35.289
35.301
35.312
35.32
35.326
35.33
35.333
35.334
35.331
35.326
35.319
35.308
35.295
35.28
35.263
35.245
35.225
35.204
35.183
35.162
35.142
35.123
35.105
35.088
35.072
35.057
35.043
35.03
35.018
35.007
34.995
34.983
34.971
34.959
34.946
34.932
34.919
34.904
34.889
34.872
34.854
34.834
34.814
34.793
34.772
34.752
34.734
34.718
34.704
34.693
34.683
34.675
34.669
34.664
34.659
34.655
34.652
34.647
34.643
34.639
34.636
34.633
34.631
34.63
34.63
34.629
34.628
34.625
34.622
34.618
34.612
34.606
34.6
34.594
34.588
34.583
34.58
34.579
34.58
34.583
34.588
34.594
34.601
34.608
34.615
34.621
34.626
34.629
34.631
34.63
34.628
34.624
34.619
34.613
34.606
34.597
34.588
34.578
34.569
34.559
34.55
34.541
34.532
34.522
34.511
34.502
34.492
34.484
34.477
34.47
34.463
34.455
34.446
34.438
34.429
34.421
34.414
34.407
34.4
34.393
34.386
34.38
34.374
34.368
34.361
34.354
34.346
34.339
34.332
34.329
34.329
34.334
34.344
34.36
34.383
34.415
34.457
34.509
34.571
34.642
34.721
34.807
34.898
34.994
35.094
35.196
35.298
35.4
35.498
35.591
35.678
35.758
35.83
35.893
35.945
35.988
36.02
36.042
36.056
36.062
36.062
36.056
36.043
36.026
36.003
35.976
35.946
35.913
35.881
35.849
35.818
35.789
35.76
35.732
35.705
35.679
35.654
35.63
35.607
35.584
35.561
35.538
35.515
35.493
35.471
35.449
35.428
35.407
35.385
35.363
35.339
35.315
35.291
35.268
35.245
35.222
35.199
35.177
35.156
35.136
35.12
35.105
35.093
35.084
35.076
35.07
35.067
35.066
35.069
35.074
35.083
35.093
35.106
35.12
35.136
35.153
35.173
35.193
35.215
35.236
35.255
35.274
35.291
35.307
35.323
35.337
