Trial 1:0back
34.486
34.429
34.373
34.32
34.268
34.217
34.166
34.114
34.062
34.011
33.96
33.91
33.859
33.809
33.759
33.709
33.658
33.607
33.555
33.504
33.453
33.403
33.353
33.306
33.261
33.218
33.176
33.136
33.095
33.055
33.015
32.974
32.933
32.891
32.849
32.807
32.765
32.724
32.685
32.65
32.62
32.597
32.583
32.58
32.59
32.616
32.66
32.723
32.808
32.915
33.045
33.197
33.376
33.584
33.828
34.116
34.453
34.844
35.288
35.783
36.32
36.888
37.474
38.063
38.639
39.187
39.693
40.148
40.542
40.87
41.129
41.319
41.441
41.499
41.5
41.449
41.355
41.227
41.072
40.899
40.713
40.519
40.323
40.13
39.942
39.763
39.593
39.432
39.28
39.138
39.005
38.879
38.76
38.647
38.538
38.432
38.325
38.215
38.103
37.987
37.868
37.747
37.623
37.498
37.373
37.248
37.126
37.008
36.895
36.787
36.685
36.587
36.493
36.404
36.32
36.24
36.164
36.093
36.027
35.967
35.912
35.864
35.823
35.788
35.758
35.734
35.712
35.694
35.678
35.664
35.651
35.638
35.624
35.61
35.594
35.576
35.555
35.53
35.501
35.467
35.428
35.383
35.335
35.283
35.23
35.176
35.121
35.065
35.011
34.958
34.906
34.856
34.805
34.753
34.7
34.645
34.588
34.529
34.468
34.405
34.341
34.276
34.211
34.146
34.082
34.019
33.957
33.895
33.835
33.776
33.717
33.661
33.606
33.555
33.505
33.457
33.408
33.36
33.311
33.261
33.209
33.155
33.101
33.046
32.992
32.94
32.891
32.844
32.8
32.759
32.718
32.678
32.638
32.599
32.559
32.521
32.484
32.448
32.415
32.383
32.354
32.328
32.307
32.294
32.292
32.303
32.331
32.377
32.445
32.535
32.649
32.791
32.961
33.166
33.412
33.708
34.058
34.468
34.935
35.455
36.018
36.614
37.228
37.845
38.449
39.023
39.555
40.032
40.447
40.791
41.063
41.262
41.391
41.455
41.46
41.412
41.32
41.193
41.039
40.866
40.682
40.493
40.303
40.115
39.933
39.756
39.588
39.427
39.274
39.129
38.989
38.856
38.727
38.604
38.484
38.367
38.252
38.136
38.02
37.902
37.78
37.656
37.529
37.4
37.268
37.134
36.999
36.867
36.739
36.618
36.506
36.402
36.308
36.223
36.145
36.074
36.011
35.955
35.905
35.861
35.82
35.782
35.746
35.711
35.679
35.649
35.621
35.596
35.573
35.553
35.534
35.516
35.499
35.482
35.464
35.444
35.422
35.397
35.37
35.34
35.305
35.267
35.225
35.18
35.135
35.088
35.041
34.994
34.947
34.9
34.852
34.804
34.758
34.713
34.667
34.62
34.571
34.519
34.466
34.41
34.351
34.29
34.227
34.16
34.091
34.021
33.95
33.879
33.809
33.738
33.668
33.598
33.528
33.46
33.392
33.325
33.26
33.198
33.138
33.082
33.028
32.979
32.932
32.889
32.848
32.809
32.773
32.738
32.703
32.668
32.632
32.597
32.561
32.523
32.485
32.445
32.404
32.362
32.319
32.277
32.237
32.201
32.17
32.146
32.131
32.127
32.136
32.162
32.206
32.268
32.353
32.462
32.597
32.762
32.962
33.205
33.498
33.849
34.259
34.728
35.25
35.816
36.413
37.025
37.638
38.237
38.806
39.335
39.811
40.227
40.578
40.861
41.076
41.223
41.306
41.329
41.298
41.217
41.094
40.936
40.751
40.547
40.33
40.107
39.883
39.663
39.453
39.253
39.066
38.894
38.736
38.592
38.46
38.339
38.225
38.116
38.008
37.9
37.788
37.674
37.556
37.437
37.317
37.198
37.081
36.965
36.852
36.74
36.629
36.519
36.411
36.305
36.199
36.096
35.995
35.899
35.809
35.726
35.652
35.587
35.531
35.484
35.445
35.411
35.382
35.358
35.336
35.318
35.301
35.286
35.273
35.26
35.247
35.233
35.219
35.203
35.186
35.166
35.144
35.119
35.091
35.061
35.029
34.994
34.959
34.923
34.886
34.848
34.807
34.764
34.719
34.672
34.624
34.574
34.523
34.472
34.418
34.363
34.306
34.249
34.194
34.139
34.085
34.031
33.976
33.92
33.864
33.808
33.752
33.696
33.64
33.583
33.527
33.47
33.415
33.36
33.306
33.252
33.197
33.142
33.087
33.032
32.976
32.92
32.865
32.811
32.759
32.708
32.659
32.612
32.566
32.52
32.475
32.431
32.389
32.347
32.306
32.265
32.225
32.187
32.151
32.116
32.082
32.049
32.019
31.991
31.966
31.945
31.931
31.925
31.929
31.946
31.978
32.026
32.094
32.182
32.291
32.422
32.575
32.75
32.95
33.176
33.429
33.715
34.037
34.396
34.794
35.225
35.686
36.166
36.654
37.139
37.608
38.049
38.451
38.808
39.11
39.356
39.544
39.674
39.749
39.773
39.751
39.688
39.592
39.469
39.326
39.168
39.003
38.834
38.668
38.507
38.354
38.212
38.082
37.964
37.856
37.758
37.667
37.58
37.497
37.414
37.329
37.242
37.152
37.058
36.96
36.86
36.759
36.658
36.558
36.459
36.361
36.263
36.166
36.07
35.975
35.882
35.793
35.71
35.634
35.564
35.503
35.45
35.405
35.37
35.343
35.323
35.307
35.294
35.282
35.271
35.26
35.25
35.241
35.233
35.225
35.217
35.208
35.197
35.185
35.169
35.15
35.128
35.102
35.073
35.041
35.007
34.972
34.935
34.896
34.855
34.812
34.766
34.719
34.668
34.613
34.556
34.498
34.441
34.384
34.329
34.274
34.221
34.167
34.114
34.06
34.006
33.953
33.901
33.849
33.797
33.745
33.694
33.642
33.591
33.539
33.486
33.432
33.378
33.324
33.271
33.218
33.166
33.116
33.065
33.017
32.973
32.931
32.892
32.853
32.815
32.775
32.735
32.693
32.65
32.605
32.56
32.514
32.469
32.423
32.378
32.336
32.295
32.255
32.215
32.177
32.139
32.102
32.066
32.033
32.003
31.978
31.961
31.953
31.956
31.973
32.005
32.054
32.122
32.209
32.318
32.45
32.604
32.779
32.976
33.193
33.431
33.69
33.969
34.272
34.597
34.946
35.314
35.699
36.096
36.496
36.893
37.278
37.64
37.971
38.264
38.515
38.719
38.876
38.985
39.048
39.07
39.052
39.001
38.92
38.815
38.692
38.556
38.413
38.268
38.125
37.986
37.854
37.73
37.614
37.505
37.403
37.307
37.216
37.128
37.043
36.96
36.878
36.794
36.709
36.622
36.533
36.444
36.354
36.264
36.175
36.086
35.997
35.909
35.822
35.737
35.656
35.579
35.507
35.44
35.38
35.325
35.278
35.239
35.206
35.179
35.157
35.14
35.125
35.112
35.1
35.09
35.082
35.077
35.073
35.073
35.075
35.078
35.08
35.08
35.076
35.069
35.058
35.043
35.023
34.999
34.972
34.942
34.912
34.888
34.87
34.856
34.844
34.829
34.809
34.783
34.749
34.708
34.66
34.605
34.545
34.48
34.41
34.337
34.261
34.183
34.103
34.023
33.944
33.867
33.794
33.725
33.662
33.603
33.55
33.502
33.456
33.41
33.364
33.317
33.269
33.221
33.172
33.123
33.075
33.027
32.979
32.929
32.879
32.828
32.777
32.727
32.678
32.631
32.586
32.543
32.503
32.465
32.428
32.391
32.355
32.319
32.285
32.251
32.219
32.189
32.16
32.132
32.106
32.084
32.067
32.056
32.053
32.059
32.078
32.11
32.159
32.225
32.311
32.418
32.545
32.693
32.861
33.048
33.256
33.482
33.726
33.99
34.277
34.588
34.924
35.286
35.67
36.071
36.479
36.887
37.284
37.66
38.007
38.316
38.581
38.797
38.961
39.073
39.135
39.153
39.131
39.074
38.989
38.881
38.756
38.618
38.471
38.321
38.17
38.022
37.878
37.739
37.607
37.483
37.367
37.259
37.159
37.065
36.976
36.891
36.809
36.728
36.646
36.565
36.483
36.398
36.313
36.226
36.139
36.052
35.965
35.877
35.789
35.702
35.616
35.534
35.456
35.386
35.324
35.271
35.227
35.19
35.16
35.137
35.12
35.108
35.099
35.091
35.086
35.082
35.077
35.073
35.069
35.066
35.062
35.058
35.052
35.044
35.033
35.017
34.998
34.975
34.949
34.921
34.893
34.865
34.836
34.806
34.775
34.742
34.707
34.669
34.628
34.585
34.539
34.491
34.443
34.394
34.345
34.297
34.249
34.201
34.152
34.102
34.05
33.998
33.945
33.893
33.841
33.79
33.738
33.687
33.637
33.587
33.537
33.487
33.435
33.383
33.333
33.285
33.242
33.204
33.17
33.139
33.108
33.077
33.044
33.008
32.969
32.927
32.884
32.838
32.791
32.743
32.694
32.645
32.596
32.547
32.501
32.455
32.412
32.371
32.333
32.299
32.269
32.244
32.223
32.205
32.192
32.184
32.183
32.19
32.208
32.238
32.282
32.341
32.416
32.51
32.622
32.753
32.903
33.07
33.255
33.456
33.674
33.909
34.161
34.431
34.721
35.034
35.368
35.723
36.093
36.473
36.855
37.233
37.607
37.969
38.31
38.618
38.886
39.106
39.273
39.383
39.434
39.429
39.374
39.275
39.138
38.972
38.784
38.582
38.373
38.166
37.965
37.774
37.599
37.439
37.296
37.17
37.058
36.961
36.875
36.798
36.726
36.657
36.588
36.518
36.444
36.366
36.284
36.198
36.108
36.014
35.918
35.821
35.727
35.636
35.55
35.471
35.398
35.334
35.277
35.229
35.188
35.153
35.124
35.099
35.077
35.059
35.043
35.031
35.02
35.011
35.002
34.993
34.985
34.978
34.972
34.967
34.962
34.957
34.95
34.942
34.932
34.92
34.905
34.887
34.866
34.843
34.817
34.79
34.761
34.729
34.695
34.659
34.62
34.58
34.538
34.495
34.451
34.409
34.366
34.322
34.277
34.231
34.184
34.135
34.084
34.033
33.981
33.931
33.883
33.836
33.79
33.746
33.702
33.657
33.611
33.564
33.518
33.471
33.423
33.375
33.327
33.28
33.232
33.185
33.139
33.094
33.05
33.006
32.962
32.92
32.879
32.84
32.804
32.769
32.736
32.704
32.672
32.639
32.605
32.569
32.532
32.494
32.456
32.418
32.381
32.347
32.315
32.285
32.259
32.237
32.221
32.214
32.219
32.238
32.274
32.33
32.407
32.504
32.622
32.761
32.92
33.097
33.29
33.495
33.711
33.934
34.163
34.395
34.627
34.857
35.083
35.302
35.512
35.711
35.898
36.073
36.236
36.386
36.525
36.653
36.771
36.88
36.979
37.07
37.151
37.223
37.284
37.331
37.366
37.388
37.397
37.395
37.38
37.352
37.314
37.264
37.206
37.141
37.071
36.995
36.917
36.835
36.75
36.663
36.575
36.486
36.4
36.314
36.23
36.146
36.064
35.983
35.903
35.825
35.748
35.674
35.603
35.536
35.474
35.415
35.362
35.313
35.267
35.226
35.188
35.157
35.132
35.112
35.097
35.086
35.079
35.075
35.074
35.075
35.08
35.087
35.097
35.107
35.118
35.128
35.137
35.145
35.151
35.154
35.152
35.146
35.135
35.12
35.099
35.075
35.046
35.015
34.98
34.943
34.905
34.866
34.826
34.785
34.743
34.699
34.655
34.612
34.569
34.525
34.48
34.435
34.388
34.339
34.291
34.251
34.223
34.205
34.193
34.185
34.176
34.162
34.142
34.111
34.071
34.019
33.958
33.888
33.813
33.735
33.656
33.578
33.503
33.43
33.362
33.299
33.24
33.187
33.138
33.092
33.05
33.011
32.974
32.939
32.905
32.871
32.839
32.805
32.771
32.737
32.703
32.67
32.639
32.61
32.585
32.566
32.554
32.549
32.553
32.569
32.599
32.645
32.71
32.796
32.904
33.034
33.187
33.361
33.554
33.763
33.985
34.218
34.46
34.709
34.965
35.227
35.498
35.776
36.061
36.353
36.65
36.947
37.242
37.53
37.807
38.065
38.296
38.495
38.657
38.778
38.856
38.893
38.891
38.853
38.784
38.692
38.581
38.458
38.326
38.19
38.053
37.917
37.784
37.653
37.527
37.405
37.287
37.173
37.063
36.958
36.858
36.764
36.675
36.591
36.511
36.434
36.359
36.283
36.205
36.127
36.047
35.967
35.889
35.812
35.739
35.67
35.607
35.549
35.497
35.452
35.412
35.379
35.352
35.331
35.317
35.308
35.303
35.302
35.303
35.305
35.307
35.31
35.31
35.308
35.304
35.297
35.288
35.277
35.265
35.252
35.239
35.225
35.209
35.191
35.17
35.147
35.122
35.094
35.064
35.032
34.998
34.962
34.924
34.884
34.842
34.799
34.753
34.705
34.657
34.608
34.561
34.514
34.467
34.422
34.377
34.333
34.289
34.245
34.201
34.154
34.106
34.055
34.003
33.95
33.895
33.84
33.784
33.727
33.67
33.615
33.561
33.509
33.458
33.409
33.362
33.316
33.271
33.229
33.189
33.151
33.116
33.081
33.046
33.012
32.978
32.945
32.911
32.879
32.847
32.817
32.789
32.763
32.74
32.721
32.707
32.7
32.703
32.717
32.748
32.797
32.867
32.961
33.08
33.225
33.396
33.591
33.81
34.052
34.319
34.612
34.936
35.292
35.679
36.096
36.537
36.993
37.454
37.908
38.345
38.755
39.126
39.451
39.723
39.94
40.099
40.2
40.246
40.24
40.188
40.098
39.975
39.828
39.663
39.488
39.31
39.133
38.962
38.798
38.644
38.5
38.366
38.241
38.124
38.015
37.911
37.811
37.714
37.619
37.525
37.432
37.34
37.248
37.157
37.065
36.973
36.88
36.787
36.695
36.604
36.514
36.426
36.342
36.263
36.19
36.123
36.063
36.008
35.959
35.914
35.873
35.834
35.796
35.759
35.722
35.685
35.65
35.618
35.589
35.566
35.548
35.535
35.525
35.519
35.514
35.509
35.502
35.493
35.479
35.461
35.439
35.414
35.386
35.357
35.328
35.298
35.268
35.238
35.206
35.171
35.134
35.095
35.054
35.011
34.968
34.923
34.878
34.831
34.785
34.739
34.692
34.645
34.596
34.547
34.497
34.447
34.395
34.342
34.287
34.229
34.17
34.11
34.051
33.994
33.94
33.891
33.846
33.804
33.767
33.732
33.698
33.664
33.63
33.595
33.558
33.52
33.48
33.439
33.396
33.352
33.307
33.262
33.216
33.171
33.126
33.082
33.037
32.993
32.952
32.913
32.878
32.847
32.822
32.804
32.796
32.8
32.818
32.852
32.906
32.98
33.075
33.194
33.337
33.507
33.705
33.934
34.199
34.507
34.861
35.263
35.709
36.194
36.708
37.241
37.779
38.308
38.817
39.292
39.725
40.105
40.425
40.681
40.87
40.994
41.055
41.057
41.007
40.911
40.779
40.619
40.438
40.244
40.043
39.842
39.646
39.458
39.281
39.116
38.966
38.828
38.704
38.591
38.486
38.389
38.297
38.206
38.116
38.025
37.931
37.834
37.732
37.625
37.515
37.401
37.287
37.174
37.062
36.952
36.846
36.744
36.645
36.55
36.458
36.37
36.288
36.21
36.138
36.072
36.014
35.962
35.918
35.88
35.849
35.825
35.804
35.787
35.772
35.757
35.742
35.727
35.713
35.699
35.685
35.673
35.661
35.649
35.634
35.618
35.599
35.577
35.552
35.523
35.491
35.457
35.419
35.379
35.338
35.295
35.252
35.208
35.163
35.117
35.069
35.019
34.967
34.913
34.858
34.802
34.747
34.692
34.639
34.585
34.532
34.48
34.428
34.377
34.326
34.276
34.226
34.176
34.127
34.078
34.03
33.982
33.935
33.887
33.838
33.787
33.735
33.682
33.629
33.575
33.522
33.471
33.419
33.368
33.316
33.265
33.214
33.163
33.112
33.062
33.012
32.964
32.919
32.876
32.836
32.801
32.768
32.739
32.714
32.694
32.68
32.675
32.678
32.693
32.721
32.765
32.826
32.907
33.008
33.131
33.279
33.456
33.667
33.918
34.217
34.57
34.979
35.441
35.952
36.503
37.081
37.674
38.264
38.837
39.378
39.875
40.316
40.693
41.003
41.243
41.415
41.521
41.566
41.554
41.493
41.391
41.254
41.092
40.911
40.718
40.518
40.317
40.118
39.923
39.736
39.558
39.391
39.235
39.088
38.949
38.819
38.695
38.577
38.463
38.353
38.243
38.133
38.022
37.908
37.792
37.676
37.558
37.441
37.323
37.206
37.089
36.966
36.833
36.693
36.55
36.408
36.273
36.147
36.034
35.935
35.853
35.787
35.738
35.705
35.685
35.676
35.678
35.687
35.7
35.714
35.728
35.74
35.748
35.75
35.747
35.738
35.725
35.707
35.684
35.658
35.63
35.601
35.568
35.534
35.496
35.456
35.413
35.367
35.319
35.269
35.219
35.169
35.118
35.067
35.015
34.962
34.909
34.854
34.799
34.741
34.683
34.623
34.562
34.501
34.44
34.38
34.322
34.264
34.206
34.148
34.09
34.032
33.975
33.919
33.866
33.816
33.769
33.725
33.689
33.667
33.66
33.665
33.678
33.694
33.707
33.713
33.71
33.696
33.67
33.632
33.583
33.523
33.453
33.376
33.293
33.207
33.119
33.031
32.946
32.865
32.792
32.725
32.667
32.617
32.575
32.542
32.515
32.495
32.483
32.48
32.488
32.508
32.542
32.593
32.663
32.754
32.866
33.002
33.165
33.36
33.596
33.879
34.216
34.609
35.056
35.551
36.084
36.643
37.213
37.78
38.331
38.852
39.329
39.753
40.116
40.412
40.641
40.801
40.896
40.932
40.914
40.848
40.741
40.601
40.435
40.252
40.057
39.857
39.658
39.462
39.275
39.098
38.933
38.781
38.641
38.514
38.395
38.284
38.179
38.077
37.976
37.877
37.777
37.676
37.574
37.469
37.362
37.252
37.14
37.026
36.913
36.798
36.684
36.572
36.463
36.358
36.26
36.169
36.086
36.012
35.946
35.888
35.837
35.792
35.752
35.717
35.686
35.656
35.628
35.601
35.575
35.549
35.526
35.503
35.482
35.463
35.447
35.432
35.42
35.41
35.4
35.39
35.379
35.366
35.35
35.331
35.31
35.284
35.254
35.22
35.179
35.133
35.082
35.028
34.973
34.918
34.863
34.808
34.753
34.7
34.647
34.595
34.543
34.491
34.44
34.39
34.339
34.29
34.241
34.192
34.144
34.096
34.047
33.996
33.945
33.892
33.838
33.782
33.726
33.671
33.617
33.564
33.511
33.459
33.406
33.354
33.302
33.25
33.199
33.148
33.099
33.051
33.004
32.959
32.915
32.873
32.83
32.788
32.747
32.705
32.665
32.627
32.59
32.556
32.523
32.491
32.459
32.428
32.399
32.373
32.351
32.334
32.324
32.326
32.341
32.371
32.418
32.485
32.573
32.683
32.819
32.981
33.173
33.402
33.675
33.999
34.378
34.812
35.297
35.826
36.386
36.965
37.547
38.118
38.664
39.169
39.623
40.018
40.346
40.605
40.792
40.912
40.967
40.965
40.913
40.82
40.695
40.544
40.377
40.199
40.015
39.829
39.644
39.462
39.285
39.115
38.952
38.796
38.648
38.508
38.374
38.245
38.119
37.997
37.876
37.757
37.638
37.519
37.4
37.28
37.16
37.037
36.914
36.791
36.668
36.547
36.428
36.313
36.201
36.096
35.997
35.909
35.831
35.765
35.71
35.664
35.627
35.596
35.569
35.545
35.519
35.491
35.461
35.427
35.391
35.354
35.315
35.276
35.238
35.201
35.166
35.132
35.1
35.07
35.043
35.016
34.989
34.963
34.937
34.911
34.885
34.859
34.833
34.805
34.776
34.745
34.712
34.676
34.637
34.594
34.548
34.499
34.45
34.4
34.351
34.303
34.255
34.207
34.161
34.116
34.071
34.025
33.979
33.931
33.881
33.831
33.779
33.727
33.674
33.62
33.564
33.508
33.451
33.394
33.338
33.283
33.232
33.183
33.137
33.094
33.053
33.016
32.982
32.95
32.919
32.888
32.857
32.824
32.79
32.754
32.716
32.675
32.634
32.592
32.55
32.509
32.469
32.432
32.397
32.364
32.333
32.305
32.28
32.26
32.245
32.238
32.242
32.258
32.287
32.333
32.395
32.475
32.575
32.694
32.832
32.988
33.164
33.359
33.573
33.806
34.06
34.337
34.639
34.965
35.315
35.683
36.065
36.454
36.842
37.219
37.578
37.909
38.207
38.464
38.676
38.839
38.953
39.018
39.037
39.014
38.954
38.863
38.748
38.615
38.47
38.317
38.159
38.001
37.846
37.696
37.555
37.423
37.301
37.188
37.082
36.982
36.887
36.795
36.706
36.618
36.531
36.445
36.358
36.27
36.18
36.089
35.997
35.905
35.813
35.721
35.631
35.543
35.46
35.382
35.311
35.246
35.19
35.143
35.103
35.071
35.043
35.02
35.001
34.984
34.972
34.963
34.959
34.959
34.961
34.963
34.966
34.968
34.97
34.972
34.972
34.972
34.969
34.965
34.959
34.951
34.94
34.928
34.913
34.895
34.873
34.848
34.821
34.791
34.76
34.73
34.7
34.67
34.64
34.609
34.575
34.54
34.501
34.459
34.415
34.368
34.32
34.271
34.22
34.169
34.116
34.063
34.01
33.958
33.906
33.853
33.799
33.743
33.687
33.63
33.574
33.519
33.467
33.418
33.37
33.324
33.281
33.242
33.204
33.169
33.136
33.103
33.072
33.042
33.013
32.986
32.957
32.928
32.898
32.865
32.831
32.796
32.76
32.722
32.683
32.641
32.599
32.557
32.516
32.478
32.444
32.416
32.398
32.391
32.399
32.424
32.468
32.533
32.62
32.729
32.859
33.011
33.184
33.378
33.592
33.825
34.079
34.354
34.656
34.986
35.348
35.74
36.159
36.598
37.048
37.5
37.943
38.365
38.757
39.108
39.411
39.66
39.851
39.985
40.062
40.086
40.062
39.997
39.897
39.77
39.62
39.455
39.281
39.1
38.918
38.737
38.561
38.393
38.234
38.085
37.946
37.818
37.699
37.588
37.483
37.383
37.287
37.193
37.1
37.006
36.909
36.808
36.703
36.594
36.483
36.372
36.263
36.157
36.055
35.957
35.865
35.779
35.699
35.624
35.555
35.492
35.436
35.386
35.342
35.305
35.276
35.254
35.239
35.23
35.224
35.221
35.219
35.217
35.214
35.209
