Trial 1:0back
37.436
38.126
38.767
39.351
39.872
40.324
40.706
41.016
41.254
41.424
41.53
41.577
41.569
41.512
41.413
41.277
41.111
40.921
40.712
40.49
40.262
40.031
39.801
39.574
39.352
39.136
38.926
38.721
38.521
38.325
38.132
37.942
37.753
37.565
37.377
37.19
37.002
36.812
36.62
36.428
36.236
36.047
35.859
35.673
35.492
35.314
35.14
34.973
34.811
34.657
34.511
34.373
34.241
34.116
33.997
33.886
33.782
33.684
33.591
33.503
33.42
33.341
33.266
33.196
33.128
33.064
33.001
32.939
32.878
32.82
32.763
32.709
32.656
32.605
32.555
32.505
32.457
32.408
32.358
32.308
32.257
32.205
32.152
32.099
32.045
31.991
31.936
31.881
31.825
31.769
31.712
31.654
31.595
31.535
31.475
31.415
31.355
31.295
31.235
31.174
31.112
31.05
30.987
30.925
30.863
30.8
30.735
30.67
30.604
30.538
30.471
30.403
30.335
30.268
30.203
30.14
30.081
30.024
29.97
29.918
29.868
29.818
29.77
29.724
29.678
29.633
29.589
29.545
29.503
29.46
29.417
29.372
29.328
29.284
29.242
29.202
29.165
29.132
29.102
29.075
29.051
29.028
29.008
28.99
28.973
28.956
28.94
28.924
28.908
28.895
28.885
28.88
28.885
28.901
28.934
28.985
29.061
29.17
29.32
29.522
29.787
30.124
30.535
31.021
31.577
32.198
32.872
33.587
34.328
35.079
35.826
36.555
37.252
37.906
38.507
39.047
39.52
39.924
40.258
40.523
40.723
40.861
40.943
40.975
40.961
40.909
40.824
40.711
40.576
40.421
40.251
40.069
39.878
39.679
39.476
39.269
39.061
38.854
38.649
38.446
38.247
38.052
37.861
37.674
37.491
37.311
37.132
36.953
36.774
36.594
36.414
36.234
36.056
35.879
35.704
35.531
35.362
35.196
35.035
34.88
34.729
34.586
34.448
34.317
34.19
34.068
33.951
33.84
33.736
33.638
33.549
33.467
33.395
33.331
33.274
33.223
33.178
33.139
33.104
33.073
33.043
33.014
32.985
32.956
32.926
32.895
32.863
32.828
32.791
32.749
32.703
32.655
32.604
32.55
32.493
32.434
32.374
32.314
32.255
32.196
32.14
32.084
32.029
31.974
31.918
31.861
31.805
31.749
31.692
31.637
31.582
31.528
31.477
31.427
31.378
31.331
31.285
31.239
31.193
31.147
31.099
31.052
31.003
30.953
30.903
30.852
30.802
30.754
30.707
30.663
30.62
30.58
30.541
30.504
30.468
30.432
30.396
30.36
30.325
30.29
30.255
30.221
30.187
30.152
30.116
30.08
30.043
30.005
29.966
29.928
29.892
29.856
29.822
29.789
29.757
29.726
29.695
29.665
29.636
29.61
29.586
29.565
29.546
29.531
29.521
29.516
29.518
29.526
29.546
29.58
29.631
29.703
29.8
29.925
30.085
30.288
30.544
30.859
31.239
31.685
32.194
32.76
33.373
34.021
34.691
35.367
36.036
36.683
37.299
37.874
38.397
38.859
39.255
39.58
39.833
40.016
40.131
40.183
40.18
40.129
40.038
39.914
39.767
39.602
39.425
39.243
39.059
38.875
38.694
38.517
38.343
38.174
38.01
37.852
37.697
37.545
37.397
37.249
37.104
36.959
36.814
36.668
36.52
36.37
36.218
36.065
35.91
35.756
35.604
35.453
35.305
35.159
35.016
34.877
34.744
34.616
34.493
34.375
34.261
34.152
34.048
33.95
33.857
33.772
33.692
33.62
33.553
33.493
33.44
33.395
33.357
33.326
33.298
33.274
33.251
33.229
33.206
33.183
33.158
33.131
33.103
33.073
33.043
33.013
32.983
32.953
32.922
32.89
32.856
32.82
32.783
32.744
32.703
32.661
32.619
32.577
32.534
32.491
32.448
32.406
32.364
32.322
32.281
32.242
32.204
32.167
32.129
32.09
32.051
32.011
31.97
31.928
31.884
31.839
31.792
31.746
31.699
31.653
31.609
31.565
31.52
31.476
31.433
31.391
31.351
31.312
31.274
31.237
31.201
31.165
31.13
31.097
31.063
31.029
30.993
30.955
30.915
30.874
30.833
30.793
30.754
30.717
30.682
30.651
30.621
30.595
30.57
30.547
30.526
30.505
30.486
30.468
30.449
30.43
30.41
30.387
30.365
30.343
30.324
30.311
30.305
30.309
30.326
30.355
30.401
30.463
30.545
30.647
30.772
30.922
31.098
31.305
31.545
31.825
32.147
32.511
32.916
33.354
33.819
34.302
34.791
35.277
35.75
36.199
36.615
36.991
37.323
37.603
37.831
38.003
38.121
38.186
38.203
38.177
38.112
38.018
37.901
37.767
37.621
37.468
37.315
37.165
37.022
36.886
36.758
36.637
36.523
36.415
36.309
36.206
36.105
36.006
35.907
35.808
35.708
35.606
35.502
35.395
35.285
35.17
35.053
34.934
34.813
34.692
34.572
34.454
34.342
34.234
34.132
34.036
33.945
33.859
33.778
33.701
33.63
33.565
33.507
33.457
33.413
33.376
33.346
33.322
33.303
33.286
33.272
33.26
33.249
33.239
33.227
33.216
33.205
33.194
33.184
33.174
33.167
33.167
33.173
33.184
33.198
33.211
33.221
33.226
33.222
33.209
33.188
33.161
33.127
33.09
33.048
33.004
32.958
32.911
32.863
32.816
32.77
32.725
32.683
32.642
32.602
32.564
32.527
32.489
32.452
32.415
32.378
32.341
32.303
32.264
32.225
32.187
32.149
32.113
32.078
32.044
32.012
31.979
31.947
31.914
31.882
31.851
31.82
31.789
31.759
31.73
31.702
31.675
31.649
31.622
31.595
31.567
31.538
31.508
31.479
31.451
31.424
31.397
31.369
31.342
31.316
31.291
31.268
31.248
31.23
31.216
31.206
31.202
31.204
31.215
31.235
31.267
31.312
31.372
31.45
31.548
31.67
31.816
31.991
32.199
32.445
32.734
33.067
33.445
33.864
34.32
34.803
35.302
35.804
36.299
36.774
37.221
37.628
37.991
38.304
38.563
38.769
38.921
39.021
39.071
39.077
39.042
38.972
38.872
38.749
38.608
38.455
38.295
38.132
37.97
37.812
37.663
37.521
37.39
37.268
37.154
37.045
36.94
36.835
36.729
36.62
36.508
36.393
36.274
36.152
36.029
35.906
35.782
35.658
35.534
35.411
35.289
35.171
35.055
34.944
34.837
34.737
34.645
34.56
34.484
34.416
34.355
34.301
34.252
34.207
34.166
34.127
34.089
34.053
34.019
33.989
33.962
33.94
33.922
33.909
33.899
33.892
33.885
33.879
33.872
33.864
33.855
33.845
33.835
33.826
33.816
33.807
33.797
33.785
33.772
33.755
33.736
33.712
33.685
33.655
33.623
33.59
33.555
33.518
33.481
33.445
33.408
33.37
33.332
33.292
33.248
33.201
33.153
33.105
33.057
33.01
32.964
32.919
32.876
32.833
32.792
32.751
32.71
32.668
32.625
32.581
32.537
32.491
32.446
32.401
32.358
32.316
32.275
32.237
32.2
32.164
32.129
32.095
32.062
32.032
32.003
31.974
31.946
31.918
31.889
31.859
31.829
31.797
31.765
31.732
31.698
31.666
31.637
31.614
31.598
31.59
31.594
31.611
31.645
31.699
31.777
31.88
32.015
32.187
32.403
32.673
33.002
33.394
33.849
34.363
34.927
35.529
36.156
36.793
37.424
38.036
38.614
39.147
39.626
40.043
40.393
40.672
40.883
41.028
41.112
41.14
41.118
41.053
40.953
40.826
40.679
40.518
40.349
40.176
40.001
39.828
39.657
39.489
39.324
39.162
39.003
38.845
38.687
38.53
38.374
38.218
38.062
37.907
37.754
37.604
37.457
37.313
37.17
37.029
36.889
36.75
36.611
36.472
36.333
36.196
36.063
35.933
35.809
35.693
35.584
35.483
35.39
35.304
35.224
35.152
35.085
35.024
34.966
34.913
34.865
34.821
34.781
34.745
34.715
34.689
34.667
34.646
34.625
34.604
34.581
34.557
34.532
34.505
34.479
34.453
34.428
34.403
34.377
34.352
34.326
34.297
34.265
34.229
34.189
34.145
34.099
34.05
34.001
33.951
33.902
33.853
33.804
33.755
33.706
33.658
33.61
33.563
33.517
33.474
33.432
33.394
33.356
33.32
33.284
33.248
33.21
33.17
33.128
33.083
33.038
32.99
32.943
32.895
32.848
32.802
32.756
32.711
32.666
32.621
32.578
32.537
32.495
32.453
32.41
32.366
32.323
32.28
32.239
32.2
32.164
32.128
32.092
32.058
32.024
31.99
31.958
31.928
31.901
31.877
31.858
31.844
31.839
31.844
31.861
31.893
31.941
32.009
32.1
32.218
32.371
32.565
32.81
33.115
33.485
33.919
34.416
34.968
35.565
36.192
36.835
37.479
38.107
38.707
39.264
39.77
40.215
40.593
40.903
41.144
41.318
41.429
41.482
41.485
41.444
41.364
41.252
41.115
40.958
40.788
40.609
40.426
40.24
40.055
39.872
39.692
39.517
39.345
39.179
39.017
38.859
38.703
38.55
38.398
38.249
38.101
37.954
37.808
37.662
37.516
37.368
37.219
37.07
36.92
36.771
36.622
36.474
36.327
36.183
36.044
35.911
35.787
35.671
35.563
35.464
35.373
35.288
35.211
35.141
35.078
35.021
34.97
34.925
34.885
34.85
34.82
34.793
34.768
34.745
34.722
34.697
34.671
34.642
34.611
34.579
34.547
34.516
34.486
34.458
34.43
34.403
34.375
34.345
34.314
34.282
34.247
34.212
34.174
34.136
34.097
34.056
34.015
33.973
33.93
33.885
33.838
33.787
33.734
33.681
33.628
33.577
33.529
33.485
33.444
33.407
33.371
33.335
33.299
33.262
33.224
33.185
33.144
33.103
33.061
33.018
32.974
32.93
32.885
32.839
32.793
32.746
32.698
32.651
32.606
32.563
32.523
32.485
32.449
32.416
32.384
32.353
32.323
32.294
32.266
32.237
32.207
32.176
32.144
32.112
32.078
32.043
32.006
31.97
31.934
31.902
31.874
31.854
31.844
31.845
31.859
31.888
31.933
31.996
32.079
32.183
32.309
32.46
32.639
32.85
33.099
33.389
33.723
34.1
34.516
34.965
35.438
35.926
36.417
36.9
37.363
37.795
38.188
38.533
38.826
39.064
39.246
39.375
39.451
39.48
39.465
39.411
39.325
39.213
39.08
38.932
38.774
38.609
38.443
38.279
38.119
37.967
37.822
37.685
37.556
37.434
37.317
37.206
37.099
36.995
36.893
36.79
36.685
36.578
36.468
36.356
36.241
36.126
36.011
35.897
35.784
35.673
35.566
35.464
35.368
35.277
35.193
35.113
35.04
34.974
34.916
34.865
34.822
34.786
34.756
34.731
34.71
34.692
34.677
34.664
34.652
34.641
34.63
34.619
34.607
34.593
34.577
34.558
34.536
34.512
34.486
34.459
34.43
34.4
34.371
34.341
34.311
34.282
34.254
34.227
34.2
34.171
34.142
34.11
34.077
34.041
34.005
33.968
33.932
33.895
33.859
33.821
33.781
33.739
33.695
33.647
33.597
33.546
33.495
33.445
33.396
33.35
33.307
33.264
33.223
33.182
33.14
33.097
33.054
33.01
32.968
32.928
32.892
32.86
32.831
32.803
32.776
32.749
32.72
32.69
32.657
32.622
32.586
32.548
32.51
32.472
32.434
32.396
32.359
32.321
32.283
32.246
32.209
32.173
32.14
32.111
32.086
32.067
32.053
32.046
32.045
32.052
32.067
32.092
32.128
32.177
32.242
32.323
32.421
32.537
32.671
32.825
33.0
33.198
33.422
33.675
33.961
34.282
34.636
35.02
35.428
35.851
36.278
36.701
37.106
37.483
37.826
38.126
38.378
38.58
38.729
38.828
38.878
38.884
38.851
38.785
38.693
38.578
38.448
38.305
38.155
38.002
37.85
37.702
37.561
37.426
37.3
37.181
37.07
36.965
36.867
36.774
36.686
36.601
36.516
36.43
36.343
36.253
36.16
36.065
35.968
35.869
35.769
35.669
35.571
35.475
35.382
35.294
35.211
35.134
35.064
35.0
34.944
34.895
34.851
34.812
34.778
34.747
34.72
34.697
34.676
34.657
34.64
34.624
34.607
34.591
34.576
34.561
34.547
34.533
34.519
34.504
34.49
34.475
34.46
34.443
34.424
34.402
34.376
34.347
34.315
34.282
34.249
34.215
34.18
34.145
34.11
34.075
34.04
34.003
33.965
33.927
33.887
33.846
33.803
33.76
33.715
33.669
33.623
33.577
33.534
33.492
33.453
33.415
33.377
33.339
33.3
33.26
33.219
33.178
33.138
33.099
33.061
33.023
32.987
32.951
32.917
32.882
32.848
32.813
32.778
32.744
32.711
32.679
32.648
32.619
32.59
32.562
32.534
32.505
32.475
32.447
32.419
32.393
32.37
32.351
32.338
32.332
32.334
32.346
32.368
32.403
32.452
32.516
32.599
32.704
32.836
33.001
33.208
33.463
33.773
34.14
34.561
35.03
35.537
36.072
36.62
37.169
37.704
38.213
38.685
39.11
39.482
39.794
40.043
40.231
40.357
40.425
40.439
40.405
40.331
40.224
40.089
39.931
39.758
39.574
39.385
39.195
39.008
38.827
38.655
38.493
38.342
38.201
38.068
37.945
37.828
37.716
37.608
37.502
37.394
37.286
37.176
37.062
36.947
36.831
36.714
36.599
36.484
36.372
36.264
36.16
36.061
35.967
35.878
35.793
35.713
35.637
35.564
35.496
35.432
35.372
35.316
35.263
35.214
35.17
35.131
35.097
35.068
35.043
35.021
35.002
34.984
34.967
34.952
34.937
34.922
34.906
34.889
34.871
34.852
34.833
34.814
34.795
34.773
34.75
34.725
34.697
34.666
34.631
34.594
34.555
34.512
34.467
34.42
34.372
34.322
34.272
34.221
34.169
34.118
34.069
34.022
33.976
33.932
33.888
33.845
33.802
33.76
33.717
33.675
33.632
33.587
33.54
33.492
33.444
33.398
33.354
33.313
33.273
33.235
33.198
33.161
33.123
33.085
33.047
33.007
32.967
32.925
32.882
32.837
32.792
32.747
32.701
32.655
32.61
32.566
32.525
32.486
32.452
32.423
32.4
32.384
32.377
32.381
32.4
32.437
32.496
32.583
32.704
32.867
33.084
33.362
33.709
34.129
34.62
35.177
35.791
36.448
37.135
37.836
38.534
39.212
39.856
40.453
40.993
41.468
41.873
42.205
42.466
42.655
42.778
42.837
42.839
42.79
42.696
42.563
42.398
42.207
41.997
41.774
41.544
41.311
41.079
40.851
40.63
40.417
40.214
40.021
39.838
39.664
39.499
39.34
39.186
39.035
38.885
38.734
38.58
38.422
38.259
38.092
37.922
37.749
37.577
37.407
37.241
37.08
36.924
36.775
36.633
36.497
36.369
36.248
36.134
36.025
35.923
35.827
35.737
35.654
35.578
35.51
35.451
35.398
35.351
35.31
35.274
35.241
35.211
35.183
35.156
35.132
35.109
35.087
35.067
35.047
35.029
35.01
34.992
34.972
34.951
34.929
34.904
34.875
34.843
34.807
34.77
34.73
34.691
34.65
34.61
34.57
34.529
34.487
34.444
34.401
34.356
34.311
34.263
34.212
34.158
34.102
34.045
33.986
33.926
33.867
33.808
33.75
33.692
33.636
33.58
33.525
33.471
33.417
33.364
33.312
33.261
33.212
33.164
33.118
33.072
33.028
32.984
32.94
32.897
32.853
32.808
32.762
32.714
32.667
32.619
32.572
32.526
32.481
32.438
32.398
32.361
32.329
32.303
32.282
32.269
32.265
32.272
32.293
32.333
32.397
32.491
32.622
32.802
33.04
33.346
33.726
34.181
34.704
35.289
35.924
36.595
37.285
37.98
38.663
39.321
39.942
40.513
41.026
41.474
41.852
42.161
42.399
42.569
42.674
42.72
42.711
42.655
42.556
42.423
42.261
42.077
41.877
41.665
41.446
41.222
40.997
40.773
40.553
40.337
40.128
39.926
39.732
39.546
39.368
39.197
39.034
38.876
38.723
38.571
38.42
38.268
38.115
37.96
37.803
37.644
37.484
37.325
37.166
37.01
36.859
36.714
36.577
36.446
36.323
36.207
36.096
35.991
35.89
35.793
35.702
35.618
35.542
35.474
35.413
35.359
35.312
35.272
35.237
35.205
35.175
35.146
35.117
35.087
35.057
35.025
34.994
34.965
34.936
34.91
34.884
34.859
34.833
34.806
34.777
34.745
34.711
34.676
34.638
34.599
34.558
34.516
34.473
34.428
34.382
34.335
34.286
34.234
34.18
34.125
34.068
34.011
33.954
33.897
33.84
33.783
33.727
33.672
33.617
33.563
33.509
33.456
33.403
33.352
33.3
33.249
33.198
33.148
33.099
33.052
33.005
32.96
32.916
32.873
32.83
32.787
32.746
32.705
32.665
32.625
32.586
32.546
32.506
32.467
32.428
32.39
32.354
32.318
32.283
32.25
32.22
32.195
32.177
32.168
32.17
32.188
32.225
32.287
32.382
32.522
32.718
32.982
33.321
33.739
34.234
34.801
35.429
36.106
36.816
37.541
38.266
38.973
39.647
40.276
40.849
41.357
41.796
42.162
42.454
42.673
42.825
42.913
42.945
42.926
42.863
42.762
42.631
42.475
42.301
42.114
41.918
41.714
41.506
41.294
41.078
40.861
40.644
40.428
40.212
39.999
39.788
39.58
39.376
39.174
38.975
38.781
38.591
38.406
38.224
38.045
37.867
37.69
37.515
37.343
37.173
37.008
36.848
36.694
36.547
36.406
36.274
36.149
36.034
35.928
35.829
35.737
35.651
35.571
35.497
35.427
35.364
35.306
35.255
35.209
35.168
35.132
35.1
35.07
35.043
35.017
34.992
34.968
34.945
34.922
34.901
34.881
34.863
34.847
34.83
34.815
34.799
34.781
34.762
34.738
34.711
34.681
34.651
34.621
34.589
34.556
34.52
34.48
34.436
34.384
34.325
34.26
34.188
34.112
34.031
33.949
33.865
33.781
33.699
33.619
33.542
33.468
33.397
33.328
33.26
33.192
33.126
33.062
33.0
32.94
32.884
32.829
32.776
32.723
32.669
32.616
32.562
32.509
32.457
32.405
32.354
32.306
32.259
32.214
32.171
32.129
32.087
32.046
32.005
31.965
31.927
31.893
31.862
31.835
31.814
31.798
31.79
31.794
31.81
31.843
31.898
31.982
32.104
32.278
32.517
32.831
33.225
33.7
34.253
34.875
35.555
36.277
37.026
37.783
38.53
39.252
39.934
40.563
41.13
41.627
42.051
42.398
42.67
42.866
42.99
43.049
43.048
42.995
42.896
42.759
42.589
42.393
42.177
41.945
41.703
41.456
41.21
40.967
40.729
40.497
40.271
40.052
39.84
39.634
39.436
39.245
39.061
38.883
38.711
38.543
38.379
38.217
38.059
37.902
37.747
37.593
37.442
37.292
37.146
37.003
36.864
36.731
36.604
36.484
36.369
36.262
36.162
36.07
35.982
35.9
35.821
35.745
35.674
35.606
35.542
35.483
35.43
35.383
35.34
35.302
35.267
35.236
35.208
35.181
35.155
35.128
35.1
35.071
35.04
35.007
34.974
34.94
34.907
34.873
34.837
34.799
34.759
34.716
34.668
34.617
34.563
34.507
34.45
34.393
34.336
34.28
34.225
34.17
34.115
34.06
34.004
33.947
33.889
33.829
33.77
33.71
33.651
33.593
33.536
33.479
33.421
33.362
33.303
33.243
33.182
33.122
33.063
33.006
32.95
32.897
32.847
32.798
32.75
32.702
32.655
32.609
32.564
32.521
32.479
32.439
32.401
32.366
32.332
32.298
32.262
32.224
32.183
32.139
32.094
32.049
32.004
31.959
31.915
31.873
31.834
31.802
31.779
31.768
31.772
31.794
31.836
31.904
32.001
32.133
32.309
32.539
32.83
33.189
33.618
34.113
34.668
35.274
35.917
36.582
37.254
37.918
38.56
39.165
39.721
40.218
40.65
41.01
41.297
41.508
41.647
41.719
41.728
41.682
41.588
41.452
41.286
41.095
40.886
40.665
40.436
40.204
39.973
39.746
39.524
39.309
39.103
38.906
38.719
38.541
38.372
38.211
38.059
37.913
37.773
37.638
37.507
37.38
37.254
37.128
37.002
36.875
36.747
36.621
36.495
36.371
36.25
36.132
36.018
35.908
35.803
35.704
35.612
35.527
35.446
35.37
35.299
35.234
35.173
35.118
35.067
35.022
34.981
34.943
34.909
34.878
34.85
34.824
34.8
34.777
34.755
34.733
34.71
34.686
34.66
34.631
34.599
34.564
34.527
34.487
34.445
34.402
34.357
34.312
34.266
34.22
34.175
34.13
34.085
34.039
33.992
33.944
33.896
33.847
33.797
33.747
33.696
33.645
33.593
33.54
33.484
33.428
33.37
33.312
33.254
33.196
33.14
33.084
33.03
32.975
32.921
32.868
32.815
32.762
32.711
32.66
32.611
32.564
32.519
32.475
32.433
32.392
32.352
32.311
32.269
32.227
32.184
32.142
32.101
32.061
32.022
31.985
31.949
31.914
31.879
31.846
31.813
31.781
31.751
31.726
31.706
31.695
31.69
31.687
31.687
31.696
31.718
31.762
31.836
31.951
32.121
32.361
32.679
33.08
33.562
34.121
34.745
35.42
36.13
36.857
37.582
38.288
38.958
39.578
40.137
40.625
41.036
41.366
41.616
41.789
41.891
41.929
41.91
41.844
41.737
41.599
41.437
41.257
41.065
40.867
40.664
40.461
40.259
40.06
39.863
39.671
39.482
39.298
39.117
38.94
38.765
38.594
38.427
38.263
38.104
37.949
37.799
37.652
37.508
37.366
37.226
37.088
36.952
36.818
36.686
36.556
36.428
36.303
36.182
36.066
35.957
35.854
35.758
35.668
35.585
35.507
35.435
35.369
35.307
35.25
35.197
35.15
35.106
35.066
35.03
34.995
34.962
34.929
34.896
34.864
34.831
34.799
34.766
34.731
34.694
34.654
34.612
34.57
34.527
34.484
34.442
34.401
34.36
34.319
34.279
34.24
34.202
34.164
34.126
34.086
34.043
33.999
33.951
33.902
33.85
33.796
33.742
33.688
33.634
33.58
33.527
33.474
33.421
33.368
33.315
33.264
33.212
33.161
33.109
33.055
33.001
32.946
32.89
32.834
32.778
32.722
32.667
32.611
32.556
32.502
32.45
32.401
