Trial 1:0back
35.829
35.747
35.661
35.573
35.484
35.396
35.311
35.229
35.152
35.081
35.017
34.959
34.909
34.864
34.826
34.792
34.762
34.736
34.712
34.691
34.672
34.656
34.642
34.631
34.621
34.612
34.604
34.595
34.584
34.571
34.552
34.527
34.496
34.458
34.412
34.36
34.303
34.242
34.178
34.113
34.049
33.986
33.926
33.869
33.817
33.77
33.727
33.69
33.657
33.627
33.598
33.571
33.544
33.515
33.486
33.454
33.419
33.381
33.338
33.291
33.24
33.185
33.128
33.067
33.005
32.942
32.878
32.815
32.754
32.696
32.643
32.595
32.552
32.516
32.485
32.459
32.436
32.418
32.401
32.384
32.367
32.348
32.325
32.297
32.265
32.226
32.181
32.13
32.074
32.013
31.949
31.885
31.821
31.759
31.703
31.653
31.61
31.578
31.555
31.544
31.545
31.558
31.584
31.623
31.677
31.747
31.832
31.933
32.05
32.183
32.331
32.494
32.671
32.861
33.061
33.272
33.49
33.715
33.944
34.176
34.407
34.636
34.861
35.079
35.289
35.488
35.674
35.847
36.003
36.143
36.266
36.369
36.454
36.519
36.566
36.595
36.609
36.609
36.598
36.579
36.552
36.521
36.487
36.453
36.42
36.388
36.359
36.333
36.307
36.282
36.256
36.228
36.196
36.158
36.115
36.065
36.007
35.943
35.873
35.799
35.721
35.641
35.561
35.481
35.403
35.329
35.258
35.193
35.133
35.079
35.032
34.989
34.951
34.917
34.885
34.854
34.824
34.793
34.762
34.729
34.695
34.66
34.624
34.587
34.548
34.51
34.472
34.436
34.401
34.368
34.337
34.308
34.282
34.258
34.237
34.218
34.199
34.181
34.161
34.139
34.115
34.087
34.055
34.021
33.983
33.944
33.903
33.862
33.821
33.779
33.737
33.695
33.653
33.611
33.571
33.531
33.492
33.453
33.414
33.375
33.334
33.292
33.248
33.202
33.154
33.104
33.054
33.004
32.954
32.906
32.859
32.815
32.774
32.736
32.702
32.671
32.641
32.613
32.586
32.559
32.534
32.509
32.485
32.462
32.438
32.414
32.389
32.365
32.341
32.317
32.295
32.273
32.252
32.232
32.211
32.19
32.168
32.145
32.119
32.091
32.061
32.03
31.998
31.964
31.929
31.894
31.858
31.821
31.783
31.745
31.705
31.665
31.624
31.581
31.537
31.492
31.445
31.396
31.347
31.297
31.247
31.199
31.153
31.11
31.071
31.036
31.005
30.978
30.954
30.932
30.912
30.895
30.88
30.87
30.867
30.873
30.891
30.923
30.97
31.035
31.118
31.222
31.345
31.486
31.645
31.818
32.003
32.195
32.393
32.591
32.786
32.975
33.156
33.326
33.485
33.63
33.762
33.879
33.982
34.071
34.147
34.211
34.265
34.309
34.344
34.37
34.387
34.396
34.397
34.393
34.383
34.37
34.354
34.336
34.317
34.298
34.279
34.261
34.244
34.227
34.21
34.194
34.177
34.159
34.14
34.119
34.095
34.07
34.043
34.013
33.981
33.948
33.914
33.88
33.846
33.815
33.786
33.76
33.736
33.714
33.692
33.671
33.65
33.628
33.606
33.582
33.556
33.527
33.497
33.466
33.434
33.403
33.373
33.345
33.319
33.297
33.278
33.264
33.254
33.249
33.248
33.252
33.26
33.271
33.284
33.299
33.313
33.327
33.338
33.346
33.35
33.349
33.343
33.33
33.309
33.282
33.248
33.209
33.168
33.124
33.08
33.037
32.996
32.958
32.924
32.895
32.871
32.851
32.835
32.822
32.809
32.796
32.781
32.763
32.741
32.713
32.682
32.646
32.606
32.564
32.52
32.476
32.434
32.394
32.359
32.328
32.302
32.279
32.261
32.245
32.232
32.221
32.213
32.205
32.197
32.188
32.178
32.165
32.149
32.132
32.112
32.09
32.067
32.044
32.021
31.999
31.979
31.961
31.945
31.932
31.923
31.916
31.913
31.912
31.913
31.916
31.919
31.923
31.927
31.93
31.934
31.936
31.937
31.936
31.932
31.925
31.915
31.902
31.884
31.865
31.842
31.818
31.793
31.767
31.742
31.717
31.696
31.677
31.663
31.655
31.654
31.663
31.681
31.711
31.755
31.813
31.887
31.978
32.086
32.209
32.347
32.497
32.656
32.823
32.992
33.161
33.325
33.483
33.631
33.769
33.893
34.005
34.104
34.19
34.264
34.327
34.378
34.419
34.452
34.476
34.493
34.504
34.509
34.51
34.507
34.5
34.489
34.475
34.456
34.434
34.407
34.378
34.347
34.315
34.281
34.247
34.211
34.176
34.141
34.107
34.073
34.041
34.01
33.98
33.952
33.924
33.896
33.868
33.84
33.813
33.786
33.759
33.733
33.707
33.682
33.658
33.635
33.615
33.598
33.584
33.574
33.568
33.566
33.568
33.573
33.581
33.591
33.602
33.612
33.62
33.626
33.629
33.628
33.625
33.618
33.608
33.595
33.58
33.562
33.543
33.523
33.503
33.483
33.464
33.447
33.433
33.422
33.414
33.41
33.409
33.411
33.415
33.42
33.425
33.428
33.428
33.423
33.411
33.392
33.366
33.335
33.299
33.26
33.22
33.181
33.145
33.114
33.088
33.068
33.054
33.045
33.042
33.041
33.043
33.046
33.047
33.045
33.039
33.026
33.006
32.978
32.944
32.902
32.853
32.798
32.739
32.676
32.611
32.546
32.484
32.425
32.372
32.326
32.288
32.26
32.241
32.231
32.232
32.24
32.256
32.278
32.302
32.327
32.351
32.374
32.393
32.408
32.418
32.422
32.421
32.412
32.396
32.373
32.343
32.306
32.264
32.218
32.169
32.117
32.064
32.011
31.96
31.912
31.868
31.83
31.798
31.771
31.751
31.736
31.726
31.721
31.72
31.723
31.727
31.732
31.739
31.745
31.753
31.762
31.774
31.792
31.817
31.853
31.9
31.961
32.038
32.129
32.236
32.357
32.489
32.631
32.781
32.935
33.09
33.244
33.394
33.537
33.671
33.794
33.905
34.002
34.086
34.156
34.213
34.259
34.294
34.321
34.338
34.349
34.352
34.349
34.34
34.325
34.304
34.277
34.246
34.209
34.169
34.125
34.079
34.03
33.981
33.93
33.879
33.829
33.78
33.731
33.685
33.639
33.597
33.556
33.519
33.485
33.453
33.425
33.399
33.375
33.353
33.333
33.313
33.292
33.27
33.247
33.223
33.198
33.174
33.15
33.125
33.102
33.078
33.055
33.032
33.01
32.988
32.965
32.943
32.92
32.897
32.874
32.85
32.827
32.804
32.782
32.76
32.739
32.719
32.7
32.682
32.665
32.649
32.635
32.623
32.612
32.603
32.595
32.589
32.585
32.584
32.585
32.59
32.597
32.607
32.618
32.632
32.647
32.662
32.677
32.69
32.7
32.707
32.709
32.705
32.695
32.679
32.659
32.634
32.606
32.574
32.541
32.508
32.475
32.443
32.413
32.386
32.363
32.342
32.326
32.313
32.305
32.301
32.299
32.3
32.303
32.307
32.311
32.314
32.317
32.318
32.32
32.321
32.323
32.326
32.329
32.33
32.33
32.327
32.321
32.312
32.299
32.282
32.26
32.235
32.206
32.174
32.142
32.11
32.079
32.051
32.028
32.01
32.0
31.997
32.001
32.011
32.026
32.045
32.066
32.087
32.108
32.125
32.139
32.146
32.148
32.143
32.132
32.116
32.095
32.071
32.047
32.023
32.002
31.986
31.976
31.974
31.982
32.001
32.032
32.077
32.135
32.209
32.296
32.396
32.509
32.632
32.762
32.896
33.033
33.17
33.304
33.434
33.556
33.669
33.772
33.864
33.945
34.014
34.073
34.121
34.159
34.188
34.209
34.223
34.231
34.234
34.232
34.226
34.217
34.204
34.19
34.173
34.154
34.134
34.112
34.088
34.063
34.038
34.012
33.986
33.96
33.935
33.909
33.883
33.857
33.828
33.798
33.766
33.732
33.696
33.659
33.619
33.579
33.539
33.501
33.464
33.431
33.401
33.374
33.35
33.33
33.312
33.295
33.28
33.267
33.256
33.247
33.24
33.235
33.233
33.234
33.236
33.242
33.25
33.259
33.27
33.282
33.293
33.304
33.314
33.324
33.333
33.341
33.348
33.354
33.359
33.364
33.369
33.372
33.375
33.378
33.379
33.38
33.38
33.379
33.378
33.376
33.372
33.367
33.359
33.348
33.334
33.317
33.297
33.273
33.246
33.214
33.179
33.141
33.101
33.059
33.017
32.975
32.935
32.898
32.864
32.834
32.808
32.786
32.77
32.757
32.748
32.742
32.738
32.735
32.733
32.732
32.732
32.733
32.735
32.739
32.744
32.751
32.76
32.771
32.785
32.802
32.823
32.847
32.874
32.903
32.934
32.967
33.001
33.035
33.067
33.098
33.124
33.146
33.162
33.171
33.172
33.166
33.153
33.133
33.108
33.08
33.048
33.016
32.984
32.953
32.924
32.896
32.872
32.85
32.831
32.815
32.802
32.793
32.79
32.792
32.802
32.82
32.847
32.884
32.932
32.992
33.065
33.15
33.247
33.354
33.47
33.593
33.721
33.851
33.982
34.111
34.235
34.352
34.461
34.559
34.645
34.718
34.778
34.825
34.86
34.883
34.896
34.899
34.893
34.879
34.858
34.831
34.8
34.764
34.725
34.683
34.637
34.589
34.539
34.488
34.436
34.386
34.338
34.293
34.252
34.216
34.184
34.157
34.133
34.114
34.097
34.083
34.07
34.056
34.04
34.021
34.0
33.976
33.949
33.92
33.888
33.856
33.823
33.791
33.761
33.735
33.712
33.693
33.68
33.671
33.667
33.667
33.67
33.676
33.682
33.689
33.695
33.701
33.705
33.706
33.703
33.697
33.688
33.675
33.659
33.642
33.624
33.607
33.591
33.579
33.571
33.568
33.57
33.576
33.587
33.6
33.616
33.634
33.651
33.667
33.68
33.69
33.696
33.698
33.695
33.689
33.679
33.666
33.651
33.636
33.621
33.607
33.596
33.588
33.582
33.579
33.58
33.583
33.588
33.595
33.602
33.61
33.616
33.62
33.622
33.622
33.618
33.611
33.6
33.586
33.568
33.546
33.522
33.496
33.47
33.444
33.419
33.397
33.377
33.359
33.343
33.329
33.318
33.31
33.304
33.299
33.294
33.289
33.283
33.275
33.264
33.251
33.234
33.214
33.191
33.166
33.139
33.112
33.086
33.061
33.04
33.023
33.01
33.003
33.0
33.002
33.01
33.024
33.046
33.077
33.116
33.164
33.223
33.291
33.368
33.455
33.55
33.654
33.767
33.887
34.014
34.144
34.277
34.409
34.538
34.66
34.773
34.876
34.967
35.045
35.109
35.16
35.199
35.226
35.243
35.252
35.254
35.251
35.245
35.237
35.228
35.219
35.208
35.195
35.179
35.16
35.136
35.106
35.072
35.032
34.989
34.942
34.893
34.842
34.792
34.743
34.696
34.651
34.609
34.57
34.535
34.503
34.473
34.447
34.422
34.399
34.377
34.354
34.332
34.309
34.285
34.261
34.237
34.213
34.19
34.169
34.151
34.136
34.124
34.117
34.113
34.114
34.117
34.123
34.13
34.139
34.149
34.159
34.168
34.174
34.177
34.176
34.171
34.162
34.15
34.135
34.119
34.102
34.085
34.07
34.057
34.048
34.041
34.036
34.034
34.034
34.034
34.035
34.035
34.035
34.033
34.031
34.026
34.02
34.011
33.999
33.985
33.967
33.947
33.925
33.903
33.881
33.86
33.84
33.822
33.807
33.794
33.785
33.779
33.776
33.776
33.778
33.781
33.784
33.786
33.786
33.781
33.773
33.76
33.742
33.722
33.698
33.672
33.646
33.619
33.594
33.57
33.549
33.531
33.515
33.502
33.491
33.483
33.476
33.471
33.467
33.462
33.457
33.449
33.44
33.429
33.416
33.4
33.383
33.365
33.346
33.327
33.308
33.29
33.272
33.256
33.241
33.229
33.22
33.215
33.213
33.214
33.22
33.232
33.249
33.275
33.31
33.355
33.41
33.478
33.558
33.65
33.753
33.867
33.99
34.119
34.252
34.387
34.523
34.656
34.784
34.905
35.015
35.112
35.196
35.263
35.313
35.345
35.36
35.359
35.342
35.313
35.273
35.225
35.171
35.114
35.055
34.996
34.938
34.884
34.832
34.785
34.741
34.701
34.665
34.631
34.6
34.572
34.546
34.522
34.499
34.479
34.459
34.441
34.423
34.406
34.389
34.371
34.352
34.332
34.31
34.286
34.259
34.231
34.201
34.169
34.137
34.103
34.069
34.036
34.003
33.971
33.941
33.914
33.891
33.871
33.855
33.843
33.834
33.828
33.824
33.823
33.825
33.83
33.836
33.845
33.854
33.862
33.871
33.878
33.882
33.883
33.881
33.876
33.869
33.86
33.851
33.841
33.831
33.821
33.813
33.805
33.8
33.798
33.797
33.798
33.799
33.799
33.798
33.794
33.788
33.777
33.762
33.744
33.721
33.694
33.664
33.63
33.595
33.558
33.52
33.484
33.45
33.419
33.391
33.368
33.351
33.34
33.336
33.338
33.347
33.363
33.383
33.407
33.433
33.46
33.487
33.511
33.531
33.546
33.555
33.557
33.553
33.541
33.523
33.5
33.474
33.445
33.416
33.387
33.361
33.338
33.318
33.303
33.292
33.284
33.279
33.275
33.273
33.272
33.269
33.266
33.261
33.255
33.249
33.242
33.236
33.232
33.231
33.234
33.245
33.264
33.293
33.333
33.384
33.448
33.524
33.612
33.711
33.818
33.933
34.055
34.18
34.307
34.433
34.558
34.678
34.791
34.897
34.993
35.078
35.152
35.216
35.268
35.31
35.341
35.363
35.377
35.385
35.387
35.383
35.376
35.364
35.348
35.328
35.305
35.279
35.249
35.218
35.184
35.147
35.109
35.069
35.028
34.986
34.943
34.899
34.855
34.81
34.766
34.721
34.678
34.635
34.593
34.553
34.515
34.48
34.449
34.42
34.395
34.373
34.353
34.335
34.32
34.306
34.294
34.284
34.277
34.271
34.267
34.265
34.264
34.264
34.264
34.265
34.266
34.268
34.27
34.273
34.277
34.281
34.286
34.291
34.298
34.305
34.314
34.324
34.336
34.35
34.365
34.383
34.401
34.419
34.437
34.454
34.468
34.48
34.487
34.491
34.49
34.486
34.479
34.468
34.455
34.439
34.422
34.403
34.385
34.368
34.352
34.337
34.324
34.313
34.303
34.295
34.289
34.284
34.281
34.279
34.279
34.281
34.283
34.286
34.288
34.289
34.288
34.285
34.281
34.276
34.271
34.265
34.259
34.254
34.248
34.243
34.238
34.232
34.227
34.221
34.215
34.208
34.201
34.192
34.182
34.17
34.156
34.14
34.122
34.103
34.083
34.063
34.042
34.023
34.005
33.99
33.979
33.974
33.975
33.983
34.0
34.026
34.063
34.113
34.174
34.249
34.336
34.434
34.541
34.658
34.781
34.908
35.039
35.171
35.302
35.429
35.551
35.669
35.781
35.886
35.983
36.072
36.152
36.22
36.277
36.322
36.356
36.378
36.389
36.391
36.383
36.368
36.345
36.317
36.285
36.251
36.216
36.181
36.146
36.112
36.079
36.047
36.017
35.987
35.957
35.927
35.896
35.862
35.827
35.789
35.75
35.709
35.669
35.631
35.595
35.562
35.532
35.507
35.484
35.465
35.447
35.432
35.418
35.405
35.391
35.377
35.362
35.346
35.33
35.315
35.299
35.285
35.272
35.262
35.257
35.255
35.257
35.262
35.271
35.282
35.295
35.309
35.323
35.335
35.347
35.355
35.361
35.364
35.363
35.359
35.353
35.344
35.335
35.326
35.317
35.31
35.302
35.296
35.291
35.287
35.282
35.276
35.268
35.257
35.244
35.226
35.204
35.177
35.146
35.109
35.068
35.023
34.975
34.925
34.874
34.822
34.771
34.721
34.673
34.628
34.586
34.546
34.51
34.476
34.444
34.414
34.386
34.36
34.336
34.314
34.295
34.278
34.264
34.253
34.245
34.238
34.234
34.231
34.23
34.23
34.231
34.232
34.235
34.238
34.242
34.247
34.25
34.253
34.255
34.254
34.251
34.246
34.238
34.229
34.217
34.203
34.188
34.173
34.158
34.144
34.13
34.118
34.108
34.102
34.102
34.108
34.124
34.15
34.189
34.24
34.305
34.386
34.482
34.593
34.719
34.856
35.003
35.158
35.316
35.475
35.632
35.782
35.924
36.056
36.173
36.276
36.362
36.432
36.487
36.527
36.554
36.571
36.579
36.58
36.576
36.569
36.559
36.549
36.537
36.526
36.514
36.501
36.487
36.471
36.454
36.434
36.412
36.388
36.363
36.337
36.31
36.283
36.256
36.229
36.203
36.178
36.154
36.13
36.105
36.08
36.054
36.027
36.0
35.97
35.94
35.907
35.873
35.838
35.801
35.765
35.731
35.698
35.668
35.641
35.617
35.596
35.577
35.561
35.546
35.532
35.518
35.505
35.492
35.478
35.463
35.449
35.435
35.421
35.409
35.399
35.39
35.383
35.378
35.375
35.373
35.373
35.374
35.376
35.378
35.381
35.382
35.381
35.378
35.372
35.363
35.351
35.336
35.319
35.299
35.278
35.256
35.233
35.209
35.184
35.158
35.131
35.104
35.076
35.047
35.017
34.987
34.957
34.928
34.9
34.875
34.852
34.832
34.816
34.804
34.795
34.789
34.784
34.78
34.775
34.769
34.761
34.751
34.739
34.724
34.708
34.691
34.674
34.658
34.642
34.627
34.611
34.596
34.579
34.561
34.541
34.518
34.49
34.458
34.422
34.381
34.338
34.292
34.245
34.197
34.149
34.103
34.058
34.016
33.978
33.943
33.913
33.888
33.87
33.859
33.855
33.858
33.87
33.892
33.926
33.972
34.032
34.108
34.198
34.302
34.419
34.548
34.685
34.83
34.981
35.134
35.287
35.438
35.583
35.72
35.847
35.963
36.068
36.162
36.245
36.317
36.377
36.428
36.468
36.499
36.522
36.537
36.545
36.546
36.541
36.532
36.518
36.5
36.48
36.457
36.432
36.405
36.377
36.349
36.32
36.291
36.263
36.234
36.206
36.178
36.149
36.12
36.089
36.056
36.022
35.984
35.945
35.902
35.857
35.811
35.764
35.718
35.672
35.627
35.583
35.542
35.503
35.468
35.436
35.407
35.382
35.361
35.344
35.328
35.315
35.302
35.289
35.277
35.263
35.25
35.237
35.225
35.213
35.202
35.192
35.185
35.182
35.181
35.184
35.189
35.198
35.21
35.224
35.239
35.256
35.273
35.289
35.304
35.316
35.327
35.334
35.336
35.334
35.327
35.315
35.297
35.275
35.249
35.219
35.186
35.152
35.118
35.085
35.053
35.023
34.996
34.973
34.955
34.941
34.931
34.926
34.925
34.927
34.933
34.942
34.952
34.963
34.972
34.981
34.987
34.991
34.993
34.992
34.988
34.981
34.97
34.956
34.939
34.921
34.902
34.883
34.865
34.846
34.828
34.812
34.797
34.784
34.773
34.764
34.756
34.75
34.743
34.737
34.728
34.719
34.707
34.694
34.679
34.663
34.647
34.631
34.616
34.604
34.595
34.591
34.595
34.607
34.63
34.665
34.713
34.776
34.855
34.949
35.059
35.184
35.322
35.472
35.63
35.795
35.964
36.134
36.302
36.466
36.622
36.77
36.905
37.028
37.137
37.231
37.31
37.373
37.422
37.457
37.48
37.491
37.493
37.488
37.476
37.46
37.441
37.421
37.4
37.378
37.357
37.336
37.315
37.294
37.272
37.249
37.225
37.197
37.167
37.134
37.098
37.059
37.018
36.975
36.929
36.883
36.836
36.788
36.741
36.695
36.651
36.608
36.566
36.526
36.488
36.452
36.417
36.383
36.348
36.314
36.28
36.245
36.211
36.177
36.144
36.113
36.083
36.054
36.028
36.005
35.986
35.971
35.961
35.955
35.954
35.956
35.962
35.971
35.982
35.994
36.008
36.021
36.034
36.047
36.059
36.069
36.078
36.086
36.091
36.096
36.097
36.097
36.096
36.092
36.087
36.081
36.072
36.061
36.047
36.03
36.009
35.983
35.954
35.92
35.884
35.846
35.807
35.769
35.731
35.696
35.665
35.638
35.615
35.599
35.588
35.583
35.583
35.586
35.592
35.601
35.611
35.622
35.633
35.642
35.649
35.654
35.657
35.657
35.654
35.649
35.64
35.63
35.618
35.605
35.589
35.572
35.553
35.534
35.513
35.491
35.468
35.441
35.413
35.382
35.35
35.318
35.287
35.258
35.234
35.215
35.203
35.201
35.21
35.232
35.269
35.321
35.391
35.477
35.58
35.699
35.831
35.975
36.128
36.285
36.446
36.606
36.763
36.915
37.059
37.194
37.319
37.432
37.534
37.626
37.707
37.78
37.844
37.901
37.952
37.997
38.038
38.075
38.108
38.137
38.161
38.178
38.189
38.192
38.187
38.174
38.153
38.124
38.087
38.043
37.992
37.934
37.871
37.803
37.73
37.655
37.577
37.498
37.419
37.341
37.264
37.191
37.12
37.054
36.991
36.933
36.879
36.83
36.785
36.744
36.708
36.676
36.647
36.619
36.592
36.566
36.54
36.514
36.489
36.465
36.442
36.421
36.402
36.385
36.372
36.361
36.351
36.343
36.334
36.327
36.319
36.312
36.305
36.297
36.29
36.281
36.271
36.259
36.245
36.229
36.211
36.192
36.17
36.148
36.124
36.099
36.073
36.047
36.021
35.996
35.972
35.949
35.927
35.906
35.887
35.868
35.849
35.83
35.81
35.791
35.77
35.749
35.727
35.704
35.679
35.654
35.627
35.599
35.57
35.54
35.508
35.474
35.438
35.401
35.362
35.323
35.284
35.247
35.212
35.18
35.152
35.127
35.107
35.09
35.077
35.067
35.059
35.054
35.05
35.046
35.043
35.04
35.035
35.029
35.02
35.008
34.992
34.974
34.952
34.927
34.9
34.871
34.84
34.809
34.778
34.748
34.721
34.697
34.678
34.665
34.66
34.665
34.681
34.71
34.754
34.813
34.887
34.977
35.08
35.195
35.32
35.455
35.595
35.739
35.884
36.027
36.167
36.304
36.435
36.562
36.682
36.796
36.903
37.003
37.096
37.183
37.262
37.334
37.4
37.461
37.515
37.564
37.608
37.646
37.678
37.705
37.725
37.739
37.746
37.745
37.738
37.723
37.702
37.674
37.64
37.601
37.556
37.508
37.458
37.405
37.351
