Trial 1:0back
32.633
32.589
32.546
32.502
32.458
32.414
32.373
32.333
32.296
32.262
32.23
32.202
32.176
32.153
32.133
32.115
32.097
32.081
32.065
32.049
32.032
32.014
31.995
31.974
31.951
31.926
31.9
31.872
31.842
31.812
31.783
31.755
31.73
31.706
31.686
31.668
31.652
31.636
31.621
31.606
31.59
31.574
31.559
31.545
31.535
31.532
31.54
31.564
31.608
31.679
31.779
31.915
32.089
32.306
32.566
32.871
33.22
33.611
34.041
34.504
34.997
35.512
36.044
36.586
37.133
37.678
38.214
38.734
39.234
39.707
40.151
40.562
40.938
41.279
41.582
41.848
42.075
42.265
42.418
42.536
42.619
42.671
42.693
42.688
42.661
42.614
42.551
42.475
42.388
42.292
42.191
42.086
41.977
41.865
41.75
41.632
41.514
41.394
41.272
41.151
41.032
40.916
40.804
40.695
40.588
40.487
40.394
40.302
40.206
40.102
39.988
39.865
39.732
39.595
39.458
39.321
39.187
39.052
38.918
38.784
38.648
38.511
38.374
38.236
38.099
37.964
37.832
37.704
37.583
37.468
37.361
37.263
37.174
37.094
37.023
36.96
36.905
36.857
36.815
36.779
36.747
36.719
36.694
36.671
36.65
36.629
36.609
36.588
36.568
36.548
36.526
36.502
36.476
36.446
36.412
36.374
36.331
36.284
36.233
36.177
36.117
36.055
35.991
35.925
35.859
35.792
35.724
35.655
35.585
35.514
35.442
35.368
35.292
35.213
35.13
35.046
34.959
34.87
34.78
34.688
34.597
34.505
34.414
34.324
34.238
34.155
34.076
34.0
33.928
33.858
33.792
33.727
33.664
33.602
33.541
33.479
33.418
33.357
33.296
33.236
33.176
33.117
33.058
33.002
32.946
32.893
32.841
32.79
32.741
32.694
32.65
32.607
32.566
32.527
32.488
32.449
32.411
32.372
32.333
32.295
32.256
32.216
32.177
32.138
32.1
32.063
32.027
31.992
31.959
31.928
31.899
31.873
31.85
31.831
31.817
31.808
31.803
31.802
31.803
31.805
31.808
31.81
31.81
31.808
31.8
31.788
31.77
31.746
31.717
31.683
31.646
31.607
31.566
31.526
31.487
31.449
31.413
31.38
31.349
31.321
31.296
31.272
31.25
31.231
31.213
31.198
31.187
31.182
31.186
31.203
31.235
31.288
31.367
31.476
31.62
31.803
32.028
32.298
32.614
32.976
33.383
33.831
34.316
34.833
35.375
35.937
36.509
37.085
37.658
38.22
38.765
39.287
39.783
40.25
40.684
41.083
41.446
41.771
42.057
42.303
42.511
42.68
42.812
42.91
42.975
43.012
43.023
43.011
42.978
42.927
42.862
42.786
42.701
42.609
42.514
42.415
42.315
42.214
42.112
42.008
41.903
41.796
41.687
41.578
41.467
41.356
41.245
41.135
41.025
40.915
40.806
40.698
40.59
40.481
40.37
40.255
40.136
40.012
39.883
39.746
39.603
39.454
39.3
39.143
38.984
38.825
38.668
38.513
38.363
38.217
38.077
37.944
37.82
37.705
37.601
37.507
37.424
37.351
37.287
37.231
37.184
37.143
37.107
37.075
37.046
37.019
36.991
36.963
36.934
36.904
36.873
36.84
36.807
36.774
36.741
36.707
36.673
36.639
36.603
36.565
36.523
36.476
36.422
36.362
36.296
36.225
36.149
36.069
35.987
35.903
35.819
35.735
35.653
35.573
35.494
35.417
35.342
35.268
35.194
35.121
35.048
34.975
34.9
34.824
34.747
34.669
34.588
34.506
34.423
34.339
34.255
34.172
34.091
34.012
33.934
33.86
33.787
33.717
33.649
33.582
33.516
33.451
33.385
33.32
33.254
33.187
33.119
33.05
32.981
32.913
32.846
32.782
32.721
32.664
32.613
32.568
32.528
32.493
32.462
32.434
32.408
32.383
32.358
32.332
32.304
32.274
32.241
32.205
32.166
32.126
32.084
32.042
32.0
31.959
31.919
31.882
31.847
31.815
31.786
31.76
31.738
31.718
31.7
31.683
31.667
31.65
31.633
31.614
31.595
31.574
31.553
31.533
31.514
31.495
31.478
31.462
31.448
31.436
31.425
31.415
31.406
31.396
31.384
31.371
31.356
31.338
31.316
31.291
31.264
31.234
31.202
31.169
31.135
31.102
31.071
31.043
31.017
30.995
30.977
30.963
30.953
30.946
30.942
30.94
30.939
30.938
30.937
30.934
30.929
30.922
30.911
30.897
30.88
30.859
30.838
30.819
30.805
30.801
30.812
30.844
30.904
30.996
31.126
31.3
31.52
31.789
32.108
32.476
32.891
33.35
33.848
34.38
34.938
35.515
36.103
36.695
37.283
37.86
38.421
38.96
39.475
39.961
40.415
40.835
41.22
41.566
41.874
42.143
42.371
42.561
42.713
42.83
42.913
42.966
42.992
42.995
42.977
42.941
42.889
42.824
42.747
42.66
42.566
42.465
42.358
42.248
42.134
42.019
41.9
41.78
41.657
41.533
41.41
41.287
41.168
41.052
40.941
40.835
40.732
40.633
40.535
40.437
40.338
40.235
40.127
40.014
39.893
39.765
39.63
39.489
39.343
39.196
39.048
38.901
38.757
38.615
38.477
38.342
38.212
38.087
37.968
37.855
37.75
37.654
37.567
37.488
37.418
37.356
37.301
37.252
37.208
37.17
37.135
37.103
37.074
37.047
37.02
36.994
36.968
36.942
36.915
36.885
36.853
36.818
36.779
36.737
36.69
36.638
36.582
36.521
36.456
36.387
36.316
36.243
36.171
36.099
36.028
35.96
35.895
35.832
35.771
35.712
35.652
35.591
35.527
35.46
35.388
35.311
35.229
35.14
35.048
34.953
34.857
34.761
34.668
34.579
34.493
34.41
34.332
34.258
34.188
34.121
34.057
33.994
33.933
33.871
33.808
33.744
33.678
33.609
33.538
33.466
33.393
33.322
33.253
33.188
33.128
33.073
33.022
32.976
32.934
32.894
32.857
32.821
32.784
32.745
32.704
32.659
32.612
32.561
32.509
32.453
32.396
32.338
32.28
32.224
32.169
32.116
32.067
32.021
31.98
31.944
31.913
31.888
31.868
31.853
31.841
31.832
31.826
31.82
31.815
31.808
31.799
31.789
31.775
31.758
31.738
31.716
31.691
31.664
31.634
31.602
31.568
31.532
31.496
31.459
31.423
31.388
31.356
31.326
31.3
31.277
31.257
31.24
31.226
31.214
31.205
31.198
31.192
31.187
31.181
31.175
31.169
31.16
31.15
31.137
31.123
31.105
31.086
31.062
31.035
31.003
30.967
30.927
30.885
30.84
30.793
30.746
30.7
30.657
30.619
30.589
30.573
30.573
30.595
30.642
30.721
30.835
30.985
31.175
31.406
31.678
31.991
32.343
32.731
33.154
33.605
34.081
34.576
35.085
35.602
36.122
36.64
37.15
37.648
38.13
38.592
39.029
39.44
39.821
40.169
40.482
40.759
40.999
41.202
41.369
41.502
41.602
41.673
41.716
41.733
41.728
41.705
41.667
41.617
41.557
41.488
41.411
41.329
41.241
41.148
41.05
40.948
40.842
40.732
40.617
40.498
40.377
40.253
40.128
40.002
39.877
39.753
39.631
39.513
39.399
39.288
39.178
39.069
38.96
38.849
38.737
38.621
38.5
38.376
38.247
38.116
37.983
37.85
37.719
37.592
37.469
37.353
37.244
37.141
37.046
36.959
36.88
36.81
36.747
36.691
36.641
36.596
36.556
36.521
36.49
36.462
36.439
36.419
36.4
36.383
36.367
36.352
36.338
36.324
36.31
36.296
36.281
36.264
36.244
36.221
36.194
36.161
36.124
36.081
36.032
35.977
35.916
35.85
35.78
35.708
35.635
35.562
35.489
35.416
35.344
35.273
35.202
35.131
35.06
34.989
34.916
34.842
34.766
34.688
34.607
34.524
34.44
34.355
34.271
34.189
34.11
34.033
33.961
33.893
33.829
33.77
33.714
33.661
33.61
33.56
33.509
33.457
33.402
33.346
33.286
33.223
33.158
33.09
33.021
32.95
32.88
32.81
32.741
32.676
32.614
32.557
32.504
32.457
32.414
32.374
32.339
32.306
32.276
32.246
32.218
32.189
32.161
32.132
32.103
32.074
32.045
32.016
31.987
31.959
31.933
31.908
31.884
31.862
31.84
31.82
31.8
31.781
31.762
31.744
31.726
31.708
31.691
31.675
31.658
31.641
31.624
31.606
31.588
31.569
31.549
31.528
31.505
31.482
31.457
31.432
31.405
31.377
31.348
31.319
31.289
31.26
31.233
31.207
31.186
31.17
31.164
31.168
31.188
31.228
31.292
31.385
31.51
31.671
31.87
32.108
32.385
32.701
33.055
33.442
33.86
34.303
34.765
35.241
35.722
36.205
36.683
37.15
37.604
38.04
38.456
38.848
39.213
39.55
39.857
40.134
40.38
40.594
40.778
40.931
41.055
41.15
41.218
41.26
41.279
41.276
41.252
41.21
41.153
41.081
40.997
40.903
40.8
40.692
40.582
40.47
40.359
40.249
40.139
40.031
39.923
39.815
39.705
39.592
39.478
39.361
39.243
39.123
39.002
38.88
38.758
38.634
38.51
38.383
38.254
38.121
37.986
37.849
37.71
37.57
37.429
37.29
37.152
37.018
36.888
36.764
36.647
36.538
36.438
36.346
36.263
36.19
36.126
36.071
36.024
35.984
35.952
35.925
35.904
35.887
35.876
35.869
35.866
35.865
35.867
35.869
35.872
35.873
35.872
35.868
35.861
35.852
35.841
35.827
35.811
35.792
35.77
35.744
35.714
35.679
35.638
35.59
35.536
35.474
35.405
35.329
35.247
35.162
35.073
34.983
34.894
34.808
34.726
34.65
34.58
34.516
34.458
34.405
34.354
34.305
34.256
34.204
34.149
34.088
34.02
33.947
33.868
33.785
33.699
33.61
33.521
33.432
33.346
33.263
33.186
33.114
33.049
32.991
32.939
32.893
32.853
32.817
32.785
32.754
32.723
32.691
32.658
32.623
32.585
32.544
32.501
32.457
32.411
32.365
32.32
32.277
32.235
32.195
32.158
32.123
32.092
32.063
32.036
32.012
31.989
31.966
31.944
31.922
31.899
31.876
31.852
31.829
31.806
31.783
31.76
31.739
31.719
31.701
31.684
31.669
31.655
31.641
31.627
31.613
31.599
31.583
31.566
31.547
31.526
31.505
31.482
31.458
31.434
31.408
31.382
31.356
31.331
31.307
31.287
31.271
31.261
31.26
31.27
31.295
31.338
31.403
31.494
31.612
31.761
31.943
32.161
32.416
32.708
33.037
33.403
33.802
34.233
34.692
35.175
35.676
36.191
36.713
37.235
37.752
38.257
38.744
39.207
39.641
40.044
40.413
40.745
41.04
41.298
41.521
41.708
41.862
41.984
42.076
42.14
42.179
42.197
42.195
42.176
42.142
42.093
42.033
41.961
41.881
41.794
41.7
41.602
41.5
41.396
41.29
41.182
41.075
40.97
40.866
40.766
40.668
40.571
40.476
40.381
40.286
40.188
40.086
39.981
39.873
39.76
39.643
39.522
39.396
39.266
39.132
38.995
38.855
38.714
38.571
38.43
38.29
38.153
38.021
37.894
37.772
37.657
37.549
37.448
37.353
37.264
37.181
37.104
37.032
36.965
36.903
36.845
36.792
36.743
36.698
36.657
36.621
36.587
36.556
36.529
36.503
36.477
36.452
36.425
36.396
36.363
36.326
36.286
36.243
36.198
36.15
36.101
36.051
35.999
35.948
35.897
35.845
35.794
35.741
35.687
35.63
35.57
35.507
35.439
35.367
35.29
35.21
35.127
35.041
34.955
34.869
34.785
34.702
34.622
34.545
34.47
34.398
34.327
34.257
34.188
34.119
34.048
33.975
33.9
33.823
33.745
33.665
33.584
33.504
33.424
33.345
33.268
33.195
33.126
33.06
32.997
32.937
32.88
32.825
32.771
32.717
32.666
32.616
32.565
32.511
32.448
32.375
32.295
32.211
32.127
32.047
31.976
31.919
31.877
31.851
31.841
31.842
31.853
31.869
31.888
31.906
31.922
31.932
31.938
31.937
31.93
31.916
31.898
31.875
31.849
31.82
31.79
31.759
31.728
31.699
31.67
31.643
31.619
31.597
31.577
31.561
31.546
31.534
31.522
31.51
31.498
31.485
31.472
31.457
31.44
31.422
31.401
31.377
31.35
31.323
31.294
31.265
31.237
31.21
31.186
31.164
31.144
31.127
31.113
31.101
31.091
31.082
31.075
31.069
31.066
31.065
31.07
31.084
31.112
31.156
31.224
31.319
31.448
31.614
31.821
32.073
32.371
32.715
33.104
33.535
34.005
34.509
35.04
35.592
36.158
36.73
37.299
37.858
38.398
38.916
39.404
39.862
40.286
40.674
41.027
41.344
41.626
41.874
42.088
42.268
42.417
42.534
42.623
42.685
42.722
42.736
42.729
42.703
42.661
42.605
42.538
42.461
42.376
42.286
42.192
42.095
41.996
41.896
41.796
41.697
41.597
41.496
41.395
41.292
41.189
41.085
40.981
40.877
40.773
40.67
40.566
40.462
40.358
40.253
40.145
40.035
39.921
39.8
39.674
39.54
39.401
39.256
39.107
38.957
38.805
38.654
38.506
38.362
38.222
38.088
37.961
37.842
37.729
37.624
37.525
37.432
37.345
37.264
37.19
37.123
37.061
37.006
36.957
36.914
36.874
36.837
36.802
36.767
36.734
36.7
36.666
36.631
36.596
36.559
36.52
36.478
36.433
36.385
36.335
36.282
36.225
36.165
36.102
36.035
35.965
35.893
35.818
35.741
35.662
35.58
35.498
35.416
35.334
35.253
35.173
35.095
35.018
34.943
34.868
34.794
34.718
34.642
34.564
34.485
34.405
34.323
34.241
34.158
34.075
33.993
33.911
33.83
33.75
33.671
33.593
33.516
33.44
33.366
33.294
33.223
33.154
33.085
33.017
32.95
32.883
32.818
32.754
32.691
32.631
32.573
32.518
32.465
32.414
32.365
32.318
32.272
32.227
32.182
32.137
32.092
32.047
32.003
31.96
31.918
31.878
31.839
31.802
31.767
31.733
31.7
31.67
31.64
31.612
31.584
31.558
31.533
31.509
31.486
31.463
31.443
31.423
31.403
31.383
31.364
31.345
31.325
31.305
31.285
31.263
31.241
31.217
31.193
31.168
31.144
31.12
31.097
31.075
31.054
31.034
31.016
30.998
30.981
30.964
30.947
30.931
30.915
30.9
30.884
30.868
30.852
30.836
30.819
30.803
30.787
30.771
30.756
30.742
30.729
30.716
30.703
30.69
30.678
30.666
30.655
30.645
30.634
30.623
30.61
30.595
30.576
30.555
30.532
30.507
30.483
30.462
30.447
30.443
30.455
30.489
30.552
30.649
30.785
30.965
31.192
31.469
31.796
32.172
32.593
33.056
33.556
34.086
34.638
35.205
35.78
36.355
36.923
37.477
38.013
38.525
39.01
39.465
39.888
40.277
40.631
40.948
41.229
41.474
41.682
41.854
41.992
42.099
42.177
42.228
42.255
42.26
42.245
42.212
42.164
42.103
42.033
41.957
41.875
41.79
41.702
41.614
41.524
41.434
41.342
41.247
41.15
41.049
40.945
40.84
40.734
40.627
40.52
40.414
40.309
40.204
40.1
39.996
39.891
39.785
39.677
39.565
39.449
39.327
39.199
39.065
38.927
38.785
38.639
38.491
38.343
38.195
38.05
37.908
37.771
37.642
37.519
37.406
37.301
37.207
37.122
37.048
36.984
36.93
36.884
36.846
36.814
36.787
36.761
36.736
36.711
36.683
36.655
36.625
36.595
36.566
36.537
36.51
36.483
36.456
36.429
36.401
36.372
36.342
36.308
36.271
36.23
36.184
36.133
36.076
36.015
35.95
35.881
35.809
35.734
35.659
35.584
35.51
35.438
35.368
35.301
35.236
35.171
35.107
35.041
34.973
34.901
34.825
34.745
34.661
34.574
34.484
34.393
34.303
34.216
34.132
34.053
33.978
33.908
33.843
33.782
33.724
33.669
33.614
33.559
33.502
33.443
33.38
33.314
33.243
33.168
33.089
33.007
32.924
32.842
32.762
32.685
32.613
32.547
32.486
32.433
32.386
32.346
32.31
32.279
32.251
32.225
32.2
32.176
32.151
32.126
32.1
32.072
32.042
32.012
31.981
31.949
31.916
31.882
31.849
31.817
31.787
31.759
31.733
31.711
31.691
31.674
31.658
31.643
31.628
31.615
31.601
31.586
31.571
31.555
31.539
31.522
31.505
31.487
31.467
31.446
31.424
31.4
31.376
31.352
31.327
31.301
31.275
31.248
31.22
31.19
31.158
31.123
31.087
31.049
31.01
30.972
30.937
30.908
30.888
30.881
30.892
30.924
30.981
31.068
31.189
31.346
31.541
31.777
32.051
32.364
32.714
33.097
33.511
33.95
34.408
34.881
35.363
35.85
36.337
36.821
37.297
37.762
38.211
38.641
39.049
39.431
39.786
40.111
40.405
40.665
40.891
41.084
41.243
41.37
41.467
41.536
41.579
41.599
41.598
41.578
41.541
41.491
41.429
41.358
41.28
41.195
41.107
41.016
40.925
40.833
40.74
40.646
40.55
40.45
40.346
40.238
40.126
40.013
39.897
39.782
39.667
39.553
39.441
39.33
39.218
39.104
38.989
38.87
38.748
38.621
38.489
38.352
38.21
38.064
37.916
37.768
37.622
37.481
37.345
37.216
37.096
36.984
36.881
36.787
36.701
36.622
36.549
36.483
36.423
36.369
36.32
36.276
36.237
36.202
36.173
36.147
36.125
36.106
36.09
36.075
36.061
36.048
36.036
36.023
36.008
35.991
35.972
35.949
35.923
35.894
35.861
35.826
35.786
35.743
35.695
35.643
35.588
35.529
35.466
35.399
35.329
35.255
35.179
35.1
35.02
34.939
34.857
34.775
34.693
34.611
34.529
34.447
34.366
34.285
34.204
34.122
34.041
33.962
33.886
33.811
33.738
33.667
33.599
33.533
33.467
33.403
33.339
33.275
33.211
33.146
33.081
33.016
32.951
32.886
32.823
32.762
32.703
32.646
32.592
32.541
32.493
32.448
32.406
32.367
32.331
32.297
32.265
32.234
32.202
32.169
32.134
32.096
32.056
32.012
31.964
31.914
31.86
31.806
31.751
31.697
31.647
31.601
31.561
31.527
31.5
31.48
31.467
31.461
31.46
31.464
31.47
31.476
31.481
31.484
31.481
31.474
31.461
31.443
31.42
31.394
31.363
31.33
31.296
31.262
31.228
31.195
31.164
31.136
31.11
31.087
31.066
31.047
31.028
31.01
30.993
30.975
30.957
30.937
30.917
30.895
30.873
30.851
30.827
30.804
30.782
30.76
30.741
30.724
30.711
30.703
30.702
30.711
30.734
30.772
30.83
30.912
31.02
31.158
31.33
31.537
31.784
32.07
32.396
32.76
33.161
33.597
34.063
34.555
35.069
35.599
36.14
36.686
37.23
37.766
38.29
38.794
39.273
39.724
40.143
40.526
40.873
41.182
41.454
41.688
41.887
42.051
42.183
42.284
42.356
42.401
42.423
42.424
42.406
42.372
42.325
42.266
42.197
42.12
42.035
41.943
41.847
41.747
41.644
41.539
41.434
41.33
41.226
41.125
41.025
40.927
40.83
40.735
40.64
40.545
40.448
40.348
40.245
40.138
40.026
39.91
39.789
39.665
39.538
39.407
39.274
39.137
38.997
38.856
38.713
38.57
38.429
38.291
38.158
38.03
37.908
37.794
37.687
37.587
37.493
37.407
37.326
37.251
37.181
37.118
37.059
37.007
36.959
36.915
36.876
36.841
36.809
36.779
36.751
36.724
36.696
36.667
36.636
36.601
36.564
36.523
36.478
36.43
36.379
36.324
36.267
36.207
36.146
36.084
36.02
35.957
35.894
35.832
35.77
35.709
35.646
35.582
35.515
35.444
35.368
35.289
35.207
35.122
35.034
34.945
34.855
34.766
34.679
34.595
34.515
34.439
34.366
34.296
34.229
34.163
34.097
34.031
33.965
33.897
33.828
33.757
33.684
33.609
33.534
33.457
33.382
33.308
33.236
33.166
33.099
33.037
32.979
32.925
32.877
32.833
32.793
32.755
32.717
32.679
32.64
32.597
32.552
32.503
32.451
32.398
32.342
32.286
32.23
32.175
32.121
32.07
32.021
31.973
31.928
31.884
31.843
31.804
31.767
31.732
31.701
31.672
31.645
31.621
31.6
31.582
31.565
31.55
31.537
31.526
31.516
31.507
31.499
31.492
31.485
31.479
31.473
31.465
31.457
31.447
31.435
31.421
31.406
31.39
31.373
31.355
31.335
31.313
31.29
31.266
31.24
31.212
31.184
31.156
31.128
31.099
31.071
31.043
31.016
30.99
30.964
30.94
30.916
30.893
30.87
30.847
30.824
30.799
30.772
30.743
30.712
30.68
30.649
30.621
30.599
30.586
30.587
30.607
30.651
30.723
30.828
30.972
31.158
31.387
31.66
31.976
32.333
32.73
33.162
33.626
34.119
34.635
35.169
35.715
36.268
36.821
37.371
37.91
38.435
38.941
39.424
39.879
40.303
40.693
41.047
41.362
41.639
41.877
42.079
42.245
42.377
42.477
42.548
42.593
42.616
42.619
42.605
42.578
42.54
42.492
42.436
42.372
42.301
42.222
42.136
42.043
41.944
41.839
41.731
41.619
41.506
41.392
41.278
41.168
41.06
40.955
40.854
40.755
40.657
40.559
40.458
40.354
40.246
40.131
40.01
39.883
39.75
39.612
39.468
39.321
39.171
39.02
38.868
38.716
38.565
38.415
38.269
38.128
37.994
37.868
37.751
37.644
37.546
37.455
37.371
37.293
37.219
37.149
37.082
37.017
36.957
36.906
36.867
36.84
36.824
36.822
36.831
36.848
36.868
36.886
36.898
36.899
36.886
36.859
36.815
36.755
36.68
36.592
36.494
36.389
36.279
36.167
36.058
35.952
35.853
35.763
35.681
35.608
35.542
35.483
35.428
35.377
35.326
35.274
35.218
35.158
35.091
35.017
34.937
34.852
34.764
34.673
34.582
34.489
34.399
34.311
34.227
34.147
34.071
33.999
33.931
33.866
33.804
33.744
33.686
33.628
33.571
33.512
33.451
33.388
33.323
33.256
33.186
33.116
33.045
32.974
32.905
32.837
32.773
32.714
32.659
32.609
32.564
32.522
32.482
32.444
32.406
32.366
32.324
32.28
32.232
32.182
32.13
32.077
32.025
