Trial 1:0back
41.461
41.601
41.707
41.782
41.83
41.852
41.854
41.837
41.804
41.756
41.696
41.625
41.546
41.46
41.369
41.272
41.171
41.064
40.953
40.838
40.721
40.604
40.489
40.379
40.274
40.174
40.079
39.989
39.902
39.817
39.733
39.648
39.561
39.472
39.378
39.28
39.177
39.069
38.956
38.839
38.717
38.593
38.466
38.34
38.214
38.091
37.969
37.85
37.735
37.624
37.518
37.418
37.325
37.238
37.159
37.086
37.02
36.96
36.905
36.855
36.809
36.768
36.731
36.7
36.674
36.651
36.632
36.614
36.596
36.577
36.556
36.531
36.502
36.469
36.432
36.39
36.344
36.296
36.245
36.193
36.139
36.083
36.026
35.967
35.905
35.84
35.773
35.704
35.632
35.559
35.484
35.408
35.331
35.253
35.174
35.094
35.013
34.932
34.849
34.765
34.681
34.597
34.514
34.432
34.352
34.276
34.202
34.132
34.065
34.001
33.939
33.879
33.82
33.76
33.699
33.636
33.571
33.504
33.436
33.368
33.3
33.233
33.168
33.107
33.049
32.996
32.948
32.903
32.861
32.821
32.78
32.738
32.694
32.647
32.599
32.548
32.494
32.44
32.384
32.329
32.276
32.226
32.18
32.14
32.106
32.076
32.051
32.029
32.011
31.995
31.981
31.967
31.953
31.938
31.92
31.9
31.878
31.854
31.829
31.803
31.776
31.75
31.724
31.7
31.677
31.657
31.639
31.622
31.606
31.592
31.578
31.565
31.551
31.538
31.524
31.511
31.498
31.485
31.472
31.459
31.446
31.431
31.416
31.399
31.38
31.359
31.335
31.309
31.28
31.249
31.216
31.181
31.145
31.109
31.073
31.038
31.006
30.976
30.948
30.923
30.9
30.882
30.868
30.861
30.862
30.874
30.898
30.937
30.996
31.077
31.185
31.323
31.496
31.706
31.955
32.246
32.576
32.947
33.355
33.798
34.272
34.77
35.289
35.821
36.361
36.903
37.44
37.967
38.478
38.968
39.433
39.869
40.272
40.639
40.968
41.257
41.507
41.716
41.887
42.021
42.12
42.187
42.223
42.232
42.22
42.188
42.14
42.078
42.005
41.923
41.833
41.737
41.636
41.531
41.425
41.319
41.214
41.113
41.015
40.922
40.834
40.751
40.671
40.593
40.517
40.441
40.365
40.286
40.204
40.117
40.025
39.926
39.821
39.708
39.588
39.462
39.331
39.196
39.059
38.922
38.786
38.652
38.52
38.391
38.266
38.146
38.03
37.919
37.812
37.712
37.617
37.527
37.444
37.368
37.297
37.233
37.175
37.123
37.077
37.036
37.001
36.97
36.944
36.922
36.903
36.885
36.868
36.849
36.828
36.802
36.771
36.735
36.694
36.648
36.598
36.545
36.488
36.43
36.369
36.307
36.243
36.177
36.109
36.037
35.963
35.886
35.807
35.726
35.644
35.562
35.48
35.398
35.316
35.235
35.154
35.074
34.995
34.918
34.843
34.769
34.699
34.629
34.562
34.495
34.43
34.365
34.298
34.23
34.16
34.088
34.014
33.938
33.861
33.783
33.704
33.627
33.552
33.48
33.411
33.346
33.284
33.225
33.17
33.115
33.061
33.007
32.95
32.891
32.83
32.768
32.704
32.641
32.578
32.517
32.459
32.405
32.356
32.312
32.274
32.242
32.215
32.192
32.173
32.156
32.14
32.124
32.108
32.089
32.068
32.044
32.018
31.991
31.962
31.932
31.902
31.873
31.844
31.817
31.791
31.766
31.741
31.716
31.691
31.665
31.64
31.613
31.585
31.557
31.528
31.498
31.468
31.438
31.408
31.38
31.353
31.329
31.307
31.287
31.269
31.253
31.238
31.226
31.214
31.203
31.193
31.182
31.171
31.158
31.145
31.13
31.114
31.095
31.075
31.055
31.034
31.012
30.992
30.972
30.952
30.934
30.917
30.903
30.889
30.878
30.867
30.857
30.847
30.839
30.83
30.821
30.811
30.799
30.785
30.769
30.751
30.73
30.706
30.682
30.657
30.632
30.609
30.587
30.57
30.558
30.554
30.559
30.577
30.611
30.665
30.744
30.853
30.994
31.173
31.393
31.655
31.961
32.311
32.702
33.132
33.598
34.094
34.617
35.16
35.716
36.281
36.849
37.412
37.964
38.501
39.016
39.505
39.963
40.386
40.771
41.116
41.422
41.688
41.916
42.106
42.261
42.382
42.472
42.532
42.566
42.574
42.559
42.522
42.465
42.391
42.301
42.197
42.08
41.953
41.818
41.677
41.534
41.393
41.257
41.128
41.006
40.892
40.786
40.687
40.593
40.505
40.42
40.336
40.252
40.166
40.077
39.984
39.885
39.781
39.672
39.557
39.438
39.313
39.184
39.05
38.913
38.774
38.635
38.496
38.359
38.226
38.098
37.976
37.861
37.753
37.654
37.564
37.484
37.412
37.349
37.295
37.249
37.21
37.179
37.154
37.134
37.119
37.106
37.094
37.082
37.069
37.053
37.035
37.014
36.99
36.963
36.936
36.906
36.877
36.846
36.815
36.783
36.749
36.711
36.67
36.626
36.576
36.521
36.462
36.397
36.329
36.257
36.181
36.102
36.021
35.938
35.852
35.764
35.675
35.585
35.495
35.405
35.317
35.231
35.147
35.066
34.987
34.91
34.833
34.756
34.677
34.597
34.515
34.432
34.348
34.265
34.183
34.103
34.026
33.952
33.884
33.82
33.762
33.708
33.657
33.608
33.561
33.513
33.463
33.412
33.358
33.301
33.242
33.182
33.12
33.059
32.998
32.938
32.881
32.826
32.775
32.726
32.68
32.638
32.599
32.562
32.527
32.494
32.462
32.43
32.398
32.367
32.337
32.306
32.276
32.246
32.218
32.19
32.163
32.137
32.111
32.086
32.062
32.038
32.014
31.991
31.968
31.945
31.924
31.903
31.884
31.864
31.845
31.825
31.804
31.782
31.76
31.738
31.715
31.691
31.666
31.64
31.615
31.591
31.567
31.544
31.521
31.498
31.475
31.45
31.425
31.399
31.372
31.344
31.315
31.286
31.257
31.231
31.211
31.198
31.197
31.212
31.248
31.307
31.395
31.515
31.672
31.868
32.104
32.381
32.697
33.05
33.435
33.849
34.287
34.746
35.219
35.702
36.191
36.68
37.164
37.638
38.098
38.539
38.956
39.346
39.703
40.027
40.316
40.57
40.788
40.971
41.12
41.237
41.321
41.377
41.407
41.415
41.402
41.371
41.326
41.267
41.197
41.115
41.024
40.923
40.813
40.699
40.58
40.459
40.338
40.217
40.098
39.979
39.863
39.747
39.633
39.519
39.406
39.293
39.18
39.066
38.95
38.834
38.716
38.597
38.476
38.35
38.221
38.086
37.948
37.806
37.664
37.522
37.382
37.248
37.12
36.998
36.885
36.778
36.679
36.587
36.502
36.422
36.349
36.283
36.222
36.169
36.122
36.081
36.047
36.019
35.997
35.979
35.966
35.955
35.946
35.938
35.93
35.921
35.913
35.903
35.893
35.881
35.866
35.847
35.823
35.793
35.758
35.716
35.67
35.619
35.565
35.507
35.448
35.387
35.325
35.263
35.199
35.135
35.068
34.998
34.926
34.849
34.77
34.688
34.603
34.515
34.426
34.338
34.25
34.165
34.083
34.004
33.929
33.856
33.787
33.72
33.657
33.596
33.538
33.481
33.425
33.368
33.31
33.251
33.192
33.133
33.072
33.012
32.951
32.89
32.829
32.769
32.709
32.651
32.595
32.541
32.489
32.441
32.395
32.352
32.312
32.274
32.237
32.202
32.169
32.135
32.101
32.067
32.032
31.997
31.962
31.927
31.892
31.857
31.823
31.79
31.757
31.725
31.695
31.668
31.641
31.616
31.593
31.572
31.553
31.535
31.518
31.503
31.489
31.475
31.461
31.448
31.436
31.424
31.412
31.399
31.385
31.369
31.352
31.333
31.312
31.289
31.263
31.236
31.205
31.173
31.138
31.103
31.068
31.032
30.997
30.964
30.933
30.904
30.879
30.858
30.843
30.833
30.833
30.842
30.865
30.903
30.959
31.039
31.143
31.276
31.441
31.641
31.876
32.148
32.457
32.803
33.184
33.597
34.039
34.506
34.993
35.494
36.005
36.518
37.027
37.526
38.008
38.469
38.902
39.306
39.676
40.011
40.309
40.569
40.793
40.981
41.135
41.259
41.354
41.424
41.471
41.497
41.505
41.494
41.468
41.427
41.372
41.305
41.228
41.143
41.052
40.957
40.86
40.761
40.663
40.566
40.471
40.38
40.29
40.203
40.117
40.032
39.945
39.856
39.764
39.668
39.568
39.464
39.355
39.24
39.12
38.997
38.872
38.745
38.619
38.493
38.369
38.246
38.124
38.004
37.888
37.775
37.666
37.562
37.463
37.369
37.279
37.194
37.114
37.039
36.97
36.906
36.849
36.799
36.756
36.718
36.687
36.66
36.636
36.614
36.593
36.573
36.55
36.525
36.497
36.464
36.428
36.388
36.347
36.304
36.26
36.216
36.171
36.127
36.081
36.033
35.984
35.931
35.875
35.816
35.752
35.683
35.61
35.534
35.456
35.376
35.296
35.216
35.138
35.063
34.991
34.921
34.853
34.787
34.721
34.655
34.588
34.52
34.451
34.38
34.308
34.235
34.161
34.087
34.013
33.939
33.867
33.795
33.723
33.653
33.584
33.517
33.451
33.387
33.325
33.264
33.204
33.145
33.085
33.025
32.965
32.903
32.84
32.776
32.71
32.643
32.575
32.507
32.439
32.373
32.311
32.252
32.2
32.152
32.111
32.076
32.045
32.018
31.993
31.97
31.946
31.921
31.893
31.861
31.824
31.784
31.74
31.694
31.648
31.602
31.558
31.518
31.483
31.455
31.432
31.415
31.402
31.394
31.387
31.381
31.373
31.364
31.351
31.335
31.314
31.288
31.258
31.222
31.181
31.137
31.091
31.044
30.998
30.954
30.914
30.878
30.846
30.818
30.793
30.77
30.748
30.725
30.701
30.675
30.646
30.614
30.58
30.544
30.507
30.469
30.432
30.401
30.378
30.367
30.372
30.398
30.448
30.527
30.639
30.784
30.967
31.185
31.44
31.728
32.05
32.4
32.777
33.177
33.594
34.023
34.46
34.901
35.341
35.776
36.202
36.615
37.012
37.39
37.746
38.076
38.379
38.652
38.896
39.109
39.293
39.449
39.578
39.681
39.76
39.817
39.854
39.873
39.876
39.865
39.841
39.807
39.764
39.713
39.656
39.593
39.525
39.454
39.378
39.3
39.221
39.14
39.059
38.978
38.899
38.821
38.745
38.67
38.598
38.527
38.457
38.39
38.322
38.254
38.184
38.109
38.03
37.945
37.854
37.756
37.652
37.541
37.426
37.307
37.186
37.064
36.942
36.824
36.71
36.602
36.499
36.402
36.311
36.225
36.144
36.067
35.995
35.926
35.862
35.802
35.746
35.696
35.649
35.607
35.567
35.529
35.495
35.465
35.441
35.423
35.41
35.4
35.391
35.382
35.37
35.353
35.33
35.298
35.258
35.209
35.151
35.087
35.017
34.943
34.866
34.788
34.709
34.63
34.554
34.479
34.404
34.33
34.257
34.183
34.11
34.036
33.962
33.888
33.815
33.742
33.671
33.602
33.535
33.47
33.407
33.346
33.288
33.232
33.179
33.128
33.077
33.026
32.974
32.92
32.864
32.805
32.743
32.68
32.615
32.549
32.482
32.416
32.351
32.288
32.227
32.168
32.11
32.055
32.002
31.951
31.903
31.856
31.812
31.768
31.726
31.685
31.645
31.605
31.565
31.524
31.483
31.442
31.401
31.361
31.322
31.284
31.247
31.211
31.176
31.142
31.11
31.081
31.053
31.026
31.002
30.979
30.958
30.937
30.917
30.895
30.872
30.845
30.816
30.784
30.75
30.716
30.681
30.647
30.615
30.583
30.555
30.529
30.507
30.489
30.474
30.461
30.45
30.44
30.43
30.42
30.409
30.396
30.381
30.363
30.343
30.319
30.293
30.266
30.237
30.207
30.177
30.147
30.117
30.088
30.059
30.031
30.004
29.977
29.95
29.923
29.895
29.869
29.842
29.816
29.792
29.77
29.751
29.736
29.728
29.73
29.743
29.772
29.818
29.885
29.976
30.093
30.239
30.414
30.62
30.855
31.118
31.408
31.721
32.055
32.406
32.769
33.141
33.516
33.89
34.26
34.621
34.971
35.307
35.628
35.931
36.215
36.479
36.721
36.942
37.139
37.313
37.465
37.593
37.699
37.784
37.85
37.9
37.934
37.954
37.964
37.964
37.956
37.942
37.922
37.897
37.869
37.839
37.807
37.774
37.74
37.705
37.668
37.63
37.589
37.545
37.499
37.45
37.399
37.346
37.291
37.235
37.177
37.116
37.054
36.988
36.919
36.847
36.772
36.693
36.612
36.527
36.438
36.346
36.253
36.16
36.069
35.979
35.893
35.812
35.736
35.667
35.604
35.549
35.503
35.464
35.432
35.408
35.389
35.374
35.362
35.351
35.341
35.329
35.317
35.302
35.285
35.268
35.249
35.23
35.211
35.192
35.174
35.158
35.144
35.135
35.132
35.132
35.131
35.128
35.118
35.101
35.074
35.036
34.988
34.931
34.867
34.797
34.723
34.647
34.57
34.493
34.416
34.342
34.269
34.199
34.131
34.065
34.002
33.94
33.881
33.824
33.768
33.715
33.663
33.612
33.563
33.514
33.466
33.419
33.375
33.331
33.289
33.248
33.208
33.169
33.132
33.094
33.057
33.02
32.982
32.943
32.901
32.858
32.811
32.761
32.709
32.654
32.599
32.544
32.491
32.439
32.391
32.347
32.306
32.267
32.231
32.198
32.165
32.134
32.102
32.069
32.035
32.0
31.964
31.928
31.893
31.861
31.83
31.804
31.782
31.764
31.751
31.741
31.735
31.73
31.726
31.72
31.711
31.698
31.682
31.661
31.635
31.606
31.573
31.537
31.499
31.461
31.425
31.391
31.36
31.335
31.314
31.299
31.288
31.282
31.279
31.278
31.278
31.277
31.274
31.267
31.255
31.237
31.214
31.185
31.152
31.116
31.079
31.043
31.011
30.984
30.965
30.955
30.957
30.973
31.004
31.054
31.123
31.214
31.326
31.462
31.622
31.805
32.011
32.239
32.488
32.756
33.039
33.336
33.642
33.955
34.271
34.588
34.902
35.209
35.508
35.795
36.069
36.327
36.568
36.79
36.992
37.173
37.333
37.472
37.591
37.691
37.774
37.841
37.895
37.938
37.972
37.998
38.018
38.031
38.039
38.043
38.041
38.036
38.025
38.01
37.99
37.966
37.938
37.905
37.869
37.829
37.786
37.741
37.695
37.649
37.604
37.558
37.512
37.465
37.416
37.365
37.309
37.248
37.182
37.109
37.031
36.947
36.86
36.772
36.686
36.602
36.523
36.447
36.375
36.307
36.243
36.182
36.125
36.073
36.025
35.98
35.94
35.903
35.869
35.837
35.808
35.78
35.755
35.731
35.71
35.691
35.676
35.665
35.659
35.658
35.662
35.667
35.674
35.68
35.683
35.681
35.674
35.66
35.639
35.611
35.576
35.535
35.49
35.441
35.391
35.339
35.287
35.236
35.185
35.134
35.085
35.036
34.99
34.947
34.905
34.863
34.819
34.766
34.704
34.632
34.554
34.471
34.388
34.305
34.226
34.151
34.084
34.023
33.969
33.923
33.882
33.848
33.817
33.79
33.765
33.739
33.712
33.682
33.648
33.61
33.567
33.52
33.47
33.419
33.367
33.317
33.27
33.227
33.187
33.151
33.117
33.086
33.055
33.024
32.99
32.954
32.914
32.872
32.827
32.78
32.733
32.686
32.641
32.599
32.56
32.525
32.494
32.467
32.444
32.423
32.404
32.386
32.369
32.351
32.331
32.309
32.285
32.257
32.227
32.197
32.165
32.134
32.104
32.076
32.052
32.03
32.011
31.995
31.981
31.969
31.958
31.948
31.938
31.928
31.917
31.905
31.891
31.876
31.86
31.842
31.823
31.803
31.78
31.756
31.731
31.706
31.68
31.656
31.632
31.611
31.59
31.569
31.549
31.528
31.508
31.488
31.469
31.45
31.432
31.415
31.398
31.382
31.366
31.35
31.335
31.319
31.303
31.286
31.269
31.252
31.237
31.226
31.221
31.225
31.239
31.268
31.314
31.38
31.47
31.584
31.724
31.891
32.084
32.303
32.546
32.812
33.099
33.406
33.729
34.067
34.415
34.77
35.127
35.483
35.832
36.172
36.498
36.808
37.099
37.37
37.62
37.849
38.056
38.241
38.406
38.552
38.679
38.789
38.883
38.964
39.033
39.09
39.139
39.179
39.212
39.239
39.259
39.273
39.281
39.284
39.281
39.272
39.259
39.244
39.226
39.208
39.19
39.172
39.154
39.138
39.121
39.105
39.088
39.07
39.051
39.029
39.004
38.975
38.94
38.901
38.856
38.806
38.751
38.692
38.63
38.564
38.497
38.429
38.359
38.289
38.217
38.143
38.068
37.993
37.918
37.844
37.774
37.707
37.644
37.587
37.534
37.486
37.444
37.406
37.375
37.349
37.328
37.31
37.295
37.281
37.266
37.25
37.233
37.215
37.194
37.17
37.143
37.114
37.083
37.05
37.015
36.98
36.945
36.911
36.876
36.84
36.803
36.763
36.72
36.673
36.624
36.572
36.518
36.462
36.403
36.343
36.281
36.218
36.154
36.088
36.022
35.957
35.893
35.831
35.77
35.712
35.655
35.599
35.543
35.483
35.422
35.357
35.29
35.222
35.152
35.083
35.016
34.951
34.888
34.828
34.773
34.721
34.674
34.631
34.592
34.555
34.52
34.484
34.447
34.409
34.368
34.325
34.28
34.234
34.185
34.136
34.085
34.033
33.981
33.93
33.878
33.828
33.779
33.731
33.685
33.641
33.6
33.561
33.525
33.491
33.457
33.425
33.393
33.361
33.328
33.294
33.261
33.228
33.196
33.166
33.137
33.111
33.086
33.064
33.043
33.024
33.005
32.986
32.967
32.947
32.926
32.902
32.874
32.843
32.809
32.772
32.735
32.697
32.66
32.625
32.593
32.564
32.54
32.521
32.506
32.495
32.485
32.476
32.467
32.455
32.442
32.426
32.408
32.387
32.362
32.335
32.305
32.275
32.245
32.216
32.187
32.161
32.136
32.113
32.091
32.07
32.05
32.03
32.011
31.991
31.97
31.949
31.928
31.906
31.884
31.862
31.84
31.818
31.798
31.78
31.765
31.754
31.748
31.749
31.758
31.778
31.81
31.857
31.922
32.007
32.114
32.245
32.402
32.586
32.797
33.035
33.299
33.586
33.895
34.223
34.565
34.92
35.283
35.651
36.021
36.388
36.749
37.1
37.439
37.762
38.066
38.35
38.611
38.851
39.068
39.262
39.436
39.59
39.725
39.842
39.944
40.031
40.103
40.164
40.212
40.249
40.276
40.294
40.303
40.304
40.296
40.28
40.257
40.23
40.2
40.168
40.136
40.103
40.073
40.044
40.016
39.991
39.967
39.946
39.925
39.905
39.883
39.859
39.831
39.798
39.758
39.711
39.656
39.594
39.526
39.453
39.375
39.294
39.211
39.127
39.044
38.961
38.88
38.799
38.721
38.646
38.572
38.502
38.436
38.374
38.318
38.267
38.22
38.179
38.143
38.114
38.09
38.072
38.058
38.048
38.04
38.032
38.024
38.013
37.998
37.979
37.956
37.928
37.896
37.86
37.82
37.778
37.731
37.683
37.633
37.582
37.532
37.482
37.434
37.385
37.336
37.286
37.235
37.183
37.129
37.072
37.012
36.948
36.879
36.805
36.722
36.636
36.554
36.48
36.415
36.359
36.309
36.264
36.221
36.177
36.132
36.084
36.031
35.974
35.913
35.849
35.781
35.711
35.64
35.569
35.498
35.43
35.362
35.297
35.234
35.173
35.114
35.057
35.003
34.95
34.9
34.85
34.8
34.75
34.7
34.649
34.598
34.547
34.497
34.447
34.398
34.349
34.3
34.253
34.206
34.162
34.119
34.078
34.039
34.001
33.965
33.93
33.896
33.862
33.828
33.793
33.759
33.725
33.693
33.662
33.634
33.609
33.585
33.564
33.544
33.524
33.505
33.483
33.46
33.435
33.406
33.374
33.34
33.305
33.27
33.235
33.201
33.168
33.137
33.107
33.079
33.053
33.028
33.004
32.98
32.958
32.936
32.915
32.894
32.874
32.853
32.832
32.81
32.787
32.764
32.74
32.714
32.688
32.662
32.634
32.605
32.576
32.549
32.522
32.497
32.474
32.453
32.433
32.414
32.395
32.375
32.355
32.334
32.314
32.296
32.281
32.273
32.275
32.29
32.322
32.374
32.451
32.555
32.689
32.853
33.05
33.277
33.533
33.816
34.124
34.452
34.797
35.154
35.52
35.89
36.261
36.629
36.99
37.341
37.68
38.003
38.31
38.597
38.865
39.113
39.338
39.542
39.723
39.883
40.022
40.142
40.241
40.323
40.388
40.437
40.473
40.496
40.509
40.511
40.504
40.489
40.466
40.438
40.405
40.369
40.331
40.288
40.243
40.195
40.145
40.092
40.039
39.984
39.929
39.875
39.821
39.766
39.712
39.657
39.599
39.539
39.476
39.409
39.336
39.258
39.175
39.085
38.991
38.892
38.791
38.688
38.586
38.485
38.388
38.295
38.21
38.131
38.06
37.995
37.938
37.886
37.84
37.797
37.759
37.723
37.691
37.663
37.638
37.616
37.598
37.582
37.57
37.56
37.551
37.544
37.538
37.532
37.524
37.514
37.5
37.481
37.456
37.427
37.392
37.353
37.31
37.262
37.209
37.148
37.075
36.991
36.9
36.804
36.708
36.614
36.525
36.443
36.369
36.302
36.243
36.19
36.143
36.099
36.059
36.019
35.979
35.939
35.898
35.855
35.81
35.762
35.712
35.659
35.601
35.538
35.471
35.4
35.326
35.25
35.173
35.097
35.021
34.948
34.876
34.805
34.738
34.673
34.611
34.553
34.499
34.448
34.402
34.36
34.321
34.284
34.25
34.217
34.185
34.152
34.119
34.083
34.044
34.002
33.956
33.906
33.855
33.803
33.752
33.703
33.657
33.615
33.575
33.539
33.506
33.475
33.445
33.416
33.388
33.358
33.326
33.293
33.259
33.224
33.189
33.154
33.119
33.087
33.057
33.029
33.003
32.979
32.957
32.935
32.913
32.89
32.866
32.841
32.815
32.789
32.763
32.737
32.712
32.688
32.665
32.642
32.619
32.597
32.574
32.55
32.526
32.501
32.475
32.449
