Trial 1:0back
34.993
35.39
35.805
36.232
36.664
37.097
37.525
37.944
38.348
38.735
39.102
39.446
39.764
40.055
40.319
40.555
40.763
40.943
41.096
41.224
41.327
41.406
41.462
41.496
41.51
41.504
41.481
41.441
41.386
41.317
41.235
41.142
41.039
40.927
40.807
40.681
40.549
40.413
40.274
40.134
39.992
39.85
39.708
39.566
39.426
39.286
39.147
39.009
38.872
38.736
38.6
38.463
38.327
38.19
38.053
37.917
37.782
37.649
37.52
37.396
37.277
37.164
37.059
36.962
36.873
36.793
36.722
36.661
36.608
36.563
36.526
36.497
36.475
36.46
36.45
36.445
36.443
36.444
36.447
36.452
36.458
36.464
36.471
36.476
36.479
36.481
36.48
36.476
36.468
36.457
36.442
36.421
36.395
36.365
36.329
36.289
36.244
36.194
36.139
36.081
36.02
35.957
35.891
35.823
35.754
35.684
35.613
35.541
35.469
35.396
35.323
35.25
35.177
35.103
35.03
34.955
34.881
34.805
34.729
34.653
34.577
34.501
34.426
34.351
34.278
34.207
34.137
34.069
34.001
33.933
33.866
33.8
33.734
33.668
33.603
33.539
33.475
33.413
33.352
33.292
33.234
33.177
33.122
33.067
33.014
32.961
32.91
32.859
32.809
32.76
32.711
32.663
32.615
32.567
32.519
32.471
32.423
32.376
32.329
32.286
32.248
32.219
32.202
32.203
32.225
32.274
32.353
32.467
32.617
32.804
33.031
33.295
33.595
33.929
34.293
34.682
35.091
35.514
35.945
36.379
36.811
37.234
37.646
38.041
38.417
38.77
39.1
39.404
39.681
39.932
40.155
40.351
40.52
40.662
40.778
40.867
40.932
40.972
40.989
40.985
40.961
40.918
40.858
40.782
40.69
40.585
40.467
40.338
40.199
40.051
39.897
39.737
39.575
39.41
39.245
39.081
38.917
38.753
38.589
38.426
38.262
38.097
37.932
37.765
37.599
37.434
37.27
37.108
36.951
36.797
36.65
36.509
36.375
36.249
36.13
36.02
35.918
35.825
35.74
35.665
35.599
35.542
35.494
35.454
35.422
35.398
35.382
35.372
35.368
35.368
35.373
35.381
35.392
35.404
35.417
35.43
35.443
35.454
35.463
35.471
35.476
35.478
35.476
35.47
35.46
35.446
35.427
35.403
35.374
35.341
35.303
35.261
35.216
35.167
35.115
35.061
35.004
34.944
34.882
34.818
34.752
34.684
34.615
34.543
34.471
34.398
34.325
34.251
34.178
34.105
34.033
33.96
33.888
33.816
33.744
33.672
33.6
33.528
33.456
33.386
33.317
33.249
33.183
33.117
33.053
32.989
32.926
32.864
32.802
32.74
32.679
32.618
32.557
32.497
32.438
32.38
32.323
32.268
32.214
32.162
32.111
32.062
32.014
31.967
31.92
31.874
31.828
31.782
31.736
31.689
31.64
31.591
31.541
31.491
31.441
31.395
31.355
31.324
31.305
31.303
31.322
31.367
31.444
31.555
31.704
31.892
32.122
32.391
32.699
33.042
33.416
33.817
34.239
34.677
35.123
35.572
36.018
36.456
36.881
37.288
37.674
38.035
38.37
38.675
38.951
39.196
39.411
39.596
39.751
39.878
39.978
40.051
40.1
40.125
40.129
40.112
40.076
40.022
39.953
39.869
39.772
39.664
39.546
39.419
39.285
39.144
38.998
38.847
38.693
38.534
38.373
38.209
38.043
37.876
37.706
37.536
37.365
37.194
37.023
36.853
36.685
36.52
36.359
36.203
36.053
35.908
35.77
35.641
35.52
35.409
35.309
35.22
35.143
35.077
35.023
34.981
34.95
34.931
34.922
34.922
34.931
34.946
34.968
34.995
35.025
35.058
35.093
35.128
35.162
35.195
35.225
35.253
35.278
35.299
35.316
35.328
35.334
35.336
35.331
35.322
35.306
35.286
35.261
35.231
35.197
35.158
35.115
35.068
35.018
34.965
34.91
34.853
34.795
34.737
34.678
34.619
34.559
34.5
34.439
34.378
34.316
34.252
34.187
34.121
34.054
33.987
33.92
33.852
33.785
33.718
33.651
33.585
33.519
33.454
33.391
33.329
33.269
33.21
33.153
33.097
33.043
32.99
32.939
32.888
32.839
32.79
32.741
32.692
32.643
32.592
32.542
32.49
32.437
32.384
32.33
32.275
32.22
32.165
32.109
32.053
31.997
31.941
31.886
31.83
31.776
31.723
31.674
31.631
31.597
31.576
31.572
31.59
31.634
31.709
31.817
31.962
32.146
32.368
32.629
32.925
33.254
33.612
33.994
34.393
34.804
35.22
35.637
36.048
36.448
36.833
37.199
37.542
37.861
38.153
38.416
38.651
38.855
39.03
39.175
39.292
39.381
39.444
39.482
39.496
39.49
39.463
39.419
39.357
39.281
39.191
39.09
38.979
38.859
38.731
38.595
38.453
38.306
38.155
38.001
37.844
37.685
37.526
37.366
37.207
37.048
36.89
36.734
36.579
36.426
36.274
36.124
35.976
35.83
35.687
35.546
35.41
35.278
35.153
35.034
34.923
34.821
34.729
34.646
34.574
34.512
34.46
34.418
34.387
34.364
34.351
34.346
34.348
34.356
34.368
34.383
34.401
34.421
34.441
34.462
34.483
34.502
34.519
34.535
34.548
34.559
34.568
34.572
34.573
34.57
34.562
34.549
34.532
34.511
34.485
34.455
34.42
34.382
34.342
34.299
34.254
34.208
34.161
34.113
34.063
34.013
33.961
33.908
33.853
33.796
33.736
33.674
33.61
33.544
33.477
33.41
33.341
33.273
33.205
33.137
33.07
33.003
32.938
32.874
32.81
32.748
32.687
32.627
32.567
32.509
32.452
32.397
32.344
32.293
32.245
32.198
32.153
32.108
32.065
32.022
31.979
31.936
31.892
31.848
31.804
31.758
31.712
31.665
31.617
31.569
31.519
31.469
31.418
31.367
31.316
31.266
31.219
31.176
31.14
31.115
31.105
31.113
31.145
31.204
31.294
31.418
31.578
31.775
32.009
32.278
32.579
32.909
33.262
33.636
34.023
34.419
34.819
35.216
35.605
35.982
36.343
36.684
37.002
37.296
37.563
37.803
38.015
38.2
38.356
38.486
38.588
38.665
38.717
38.746
38.753
38.739
38.706
38.655
38.588
38.506
38.412
38.305
38.19
38.065
37.935
37.799
37.66
37.519
37.376
37.233
37.088
36.944
36.799
36.655
36.511
36.368
36.226
36.086
35.947
35.81
35.674
35.54
35.409
35.28
35.154
35.032
34.914
34.801
34.693
34.591
34.495
34.407
34.327
34.255
34.192
34.136
34.089
34.051
34.02
33.997
33.981
33.972
33.968
33.97
33.976
33.986
33.999
34.015
34.032
34.051
34.072
34.092
34.114
34.135
34.155
34.174
34.191
34.204
34.214
34.219
34.219
34.214
34.203
34.187
34.165
34.139
34.109
34.076
34.04
34.0
33.958
33.913
33.865
33.815
33.761
33.705
33.646
33.586
33.525
33.463
33.402
33.341
33.28
33.22
33.159
33.099
33.04
32.98
32.922
32.866
32.81
32.756
32.704
32.653
32.602
32.553
32.504
32.456
32.408
32.359
32.31
32.261
32.212
32.164
32.116
32.068
32.02
31.973
31.927
31.881
31.836
31.79
31.745
31.701
31.656
31.612
31.568
31.524
31.479
31.435
31.391
31.349
31.307
31.269
31.234
31.206
31.188
31.181
31.19
31.219
31.271
31.349
31.458
31.598
31.773
31.981
32.222
32.494
32.794
33.116
33.458
33.813
34.177
34.543
34.908
35.265
35.611
35.941
36.253
36.542
36.807
37.046
37.258
37.442
37.597
37.724
37.823
37.896
37.944
37.969
37.972
37.956
37.923
37.873
37.81
37.734
37.647
37.55
37.445
37.333
37.215
37.093
36.966
36.836
36.703
36.569
36.434
36.299
36.164
36.029
35.896
35.765
35.636
35.509
35.384
35.261
35.14
35.021
34.904
34.79
34.678
34.57
34.466
34.365
34.269
34.179
34.094
34.016
33.944
33.88
33.823
33.774
33.733
33.7
33.675
33.659
33.651
33.65
33.657
33.671
33.691
33.716
33.745
33.777
33.812
33.847
33.882
33.916
33.949
33.979
34.007
34.03
34.049
34.063
34.071
34.075
34.074
34.067
34.056
34.041
34.023
34.0
33.975
33.947
33.917
33.884
33.848
33.81
33.771
33.729
33.686
33.641
33.596
33.549
33.503
33.455
33.408
33.36
33.312
33.263
33.214
33.164
33.114
33.064
33.013
32.963
32.914
32.866
32.817
32.77
32.723
32.677
32.632
32.588
32.545
32.501
32.458
32.415
32.372
32.328
32.285
32.242
32.199
32.156
32.113
32.07
32.027
31.983
31.94
31.897
31.855
31.813
31.771
31.729
31.688
31.647
31.607
31.569
31.534
31.505
31.485
31.476
31.483
31.51
31.56
31.636
31.742
31.88
32.049
32.25
32.482
32.742
33.025
33.33
33.65
33.981
34.318
34.656
34.989
35.314
35.627
35.922
36.199
36.453
36.682
36.886
37.064
37.216
37.341
37.44
37.513
37.562
37.587
37.591
37.575
37.542
37.493
37.431
37.358
37.275
37.183
37.085
36.98
36.868
36.751
36.628
36.502
36.372
36.239
36.105
35.97
35.835
35.701
35.568
35.435
35.305
35.176
35.05
34.926
34.804
34.685
34.568
34.452
34.338
34.227
34.12
34.015
33.915
33.82
33.729
33.645
33.569
33.5
33.439
33.388
33.347
33.315
33.293
33.282
33.279
33.286
33.302
33.324
33.353
33.387
33.425
33.465
33.506
33.548
33.589
33.63
33.668
33.704
33.737
33.766
33.79
33.81
33.824
33.833
33.837
33.836
33.83
33.819
33.804
33.785
33.763
33.738
33.711
33.681
33.651
33.619
33.587
33.554
33.52
33.486
33.452
33.417
33.381
33.344
33.306
33.267
33.226
33.184
33.141
33.097
33.054
33.01
32.966
32.923
32.88
32.838
32.797
32.756
32.716
32.677
32.638
32.599
32.56
32.522
32.484
32.447
32.41
32.374
32.339
32.304
32.269
32.234
32.2
32.165
32.13
32.095
32.06
32.026
31.993
31.959
31.926
31.892
31.859
31.826
31.796
31.77
31.75
31.739
31.738
31.752
31.784
31.837
31.915
32.02
32.154
32.319
32.513
32.735
32.985
33.257
33.55
33.857
34.176
34.499
34.822
35.14
35.448
35.742
36.018
36.273
36.506
36.715
36.899
37.057
37.191
37.3
37.387
37.45
37.494
37.519
37.526
37.518
37.495
37.459
37.411
37.353
37.286
37.21
37.127
37.036
36.939
36.837
36.729
36.617
36.502
36.384
36.263
36.141
36.018
35.894
35.77
35.646
35.522
35.397
35.273
35.149
35.026
34.903
34.782
34.663
34.547
34.434
34.324
34.22
34.121
34.029
33.944
33.868
33.8
33.742
33.694
33.656
33.628
33.61
33.602
33.605
33.617
33.638
33.666
33.701
33.742
33.787
33.835
33.886
33.937
33.988
34.039
34.088
34.135
34.18
34.223
34.263
34.299
34.331
34.359
34.382
34.4
34.413
34.419
34.42
34.415
34.405
34.389
34.367
34.341
34.311
34.277
34.239
34.198
34.155
34.111
34.065
34.02
33.974
33.929
33.885
33.842
33.8
33.76
33.72
33.681
33.643
33.605
33.567
33.528
33.49
33.451
33.413
33.374
33.336
33.298
33.261
33.226
33.192
33.159
33.128
33.097
33.068
33.038
33.009
32.979
32.949
32.918
32.886
32.853
32.818
32.781
32.743
32.704
32.665
32.626
32.59
32.557
32.53
32.509
32.498
32.499
32.516
32.552
32.61
32.693
32.804
32.942
33.11
33.306
33.529
33.777
34.047
34.333
34.632
34.939
35.249
35.558
35.861
36.153
36.433
36.696
36.942
37.166
37.369
37.549
37.705
37.838
37.949
38.037
38.104
38.151
38.178
38.188
38.183
38.163
38.13
38.087
38.033
37.971
37.899
37.82
37.733
37.641
37.544
37.443
37.34
37.234
37.127
37.02
36.912
36.803
36.695
36.586
36.477
36.369
36.262
36.154
36.046
35.939
35.831
35.724
35.618
35.514
35.412
35.313
35.219
35.131
35.05
34.977
34.912
34.857
34.811
34.775
34.749
34.732
34.723
34.723
34.729
34.742
34.759
34.781
34.807
34.836
34.866
34.898
34.929
34.961
34.991
35.02
35.047
35.073
35.096
35.118
35.136
35.152
35.166
35.177
35.186
35.193
35.197
35.199
35.198
35.193
35.185
35.174
35.16
35.141
35.119
35.094
35.066
35.035
35.002
34.967
34.931
34.894
34.855
34.815
34.773
34.73
34.686
34.641
34.596
34.551
34.506
34.461
34.417
34.374
34.332
34.29
34.25
34.211
34.173
34.136
34.099
34.064
34.029
33.995
33.961
33.928
33.895
33.863
33.832
33.801
33.77
33.739
33.709
33.68
33.652
33.625
33.602
33.585
33.577
33.581
33.601
33.641
33.704
33.792
33.909
34.054
34.23
34.435
34.667
34.924
35.203
35.499
35.809
36.127
36.448
36.768
37.083
37.388
37.679
37.953
38.207
38.439
38.647
38.832
38.992
39.128
39.24
39.329
39.396
39.441
39.467
39.475
39.466
39.442
39.404
39.354
39.294
39.226
39.151
39.071
38.985
38.895
38.802
38.705
38.605
38.502
38.397
38.29
38.181
38.071
37.96
37.849
37.738
37.627
37.516
37.406
37.296
37.188
37.08
36.974
36.869
36.767
36.668
36.573
36.481
36.394
36.313
36.237
36.168
36.105
36.049
35.999
35.956
35.92
35.891
35.869
35.854
35.845
35.842
35.845
35.854
35.868
35.886
35.908
35.933
35.96
35.989
36.018
36.046
36.072
36.095
36.115
36.131
36.143
36.151
36.154
36.152
36.146
36.135
36.121
36.102
36.078
36.051
36.02
35.985
35.947
35.906
35.862
35.814
35.765
35.713
35.659
35.604
35.547
35.49
35.433
35.375
35.319
35.263
35.208
35.154
35.102
35.052
35.003
34.956
34.91
34.865
34.821
34.778
34.735
34.693
34.65
34.608
34.565
34.523
34.48
34.436
34.393
34.348
34.304
34.26
34.215
34.171
34.126
34.082
34.038
33.996
33.955
33.918
33.886
33.863
33.85
33.852
33.873
33.918
33.989
34.09
34.224
34.39
34.591
34.824
35.088
35.379
35.695
36.031
36.383
36.745
37.112
37.481
37.844
38.2
38.543
38.869
39.176
39.462
39.724
39.962
40.175
40.363
40.525
40.662
40.775
40.864
40.93
40.974
40.999
41.005
40.995
40.97
40.931
40.881
40.821
40.752
40.678
40.598
40.514
40.426
40.335
40.242
40.146
40.049
39.951
39.852
39.753
39.653
39.554
39.456
39.358
39.26
39.163
39.066
38.97
38.874
38.778
38.682
38.587
38.493
38.401
38.311
38.224
38.141
38.062
37.988
37.92
37.857
37.8
37.748
37.703
37.664
37.63
37.602
37.58
37.562
37.548
37.539
37.533
37.531
37.53
37.531
37.533
37.534
37.535
37.536
37.535
37.534
37.533
37.531
37.53
37.528
37.525
37.522
37.518
37.512
37.503
37.492
37.478
37.459
37.436
37.408
37.375
37.337
37.295
37.249
37.2
37.148
37.094
37.037
36.979
36.919
36.858
36.796
36.733
36.67
36.607
36.543
36.48
36.415
36.351
36.286
36.221
36.157
36.093
36.031
35.969
35.908
35.848
35.789
35.731
35.674
35.617
35.562
35.507
35.452
35.397
35.342
35.286
35.231
35.177
35.123
35.07
35.02
34.973
34.931
34.896
34.871
34.858
34.863
34.887
34.936
35.012
35.118
35.255
35.425
35.626
35.858
36.119
36.404
36.711
37.035
37.372
37.717
38.065
38.414
38.757
39.09
39.411
39.714
39.997
40.258
40.495
40.706
40.891
41.048
41.179
41.284
41.363
41.418
41.45
41.462
41.455
41.431
41.392
41.34
41.276
41.202
41.119
41.029
40.933
40.832
40.726
40.618
40.508
40.398
40.287
40.178
40.07
39.965
39.862
39.762
39.665
39.571
39.479
39.39
39.302
39.216
39.131
39.047
38.964
38.884
38.805
38.728
38.654
38.584
38.516
38.452
38.391
38.333
38.28
38.23
38.186
38.148
38.115
38.087
38.065
38.049
38.039
38.033
38.031
38.033
38.037
38.043
38.051
38.058
38.064
38.069
38.07
38.068
38.061
38.05
38.035
38.015
37.99
37.962
37.928
37.89
37.848
37.801
37.751
37.696
37.637
37.576
37.511
37.444
37.375
37.304
37.232
37.159
37.084
37.007
36.929
36.85
36.769
36.687
36.604
36.521
36.436
36.351
36.266
36.18
36.094
36.008
35.922
35.837
35.753
35.67
35.588
35.507
35.429
35.352
35.278
35.205
35.134
35.065
34.998
34.934
34.872
34.813
34.755
34.698
34.643
34.59
34.537
34.484
34.432
34.379
34.327
34.275
34.226
34.18
34.139
34.105
34.082
34.072
34.078
34.105
34.156
34.232
34.337
34.471
34.635
34.828
35.049
35.295
35.564
35.852
36.155
36.468
36.787
37.108
37.425
37.734
38.031
38.313
38.576
38.818
39.037
39.232
39.403
39.548
39.668
39.764
39.837
39.888
39.919
39.931
39.925
39.903
39.867
39.818
39.758
39.689
39.612
39.528
39.438
39.344
39.246
39.145
39.041
38.937
38.832
38.727
38.622
38.517
38.412
38.308
38.203
38.098
37.993
37.888
37.783
37.679
37.573
37.468
37.362
37.256
37.149
37.043
36.937
36.831
36.727
36.625
36.525
36.427
36.333
36.243
36.158
36.076
36.0
35.929
35.864
35.804
35.751
35.703
35.661
35.625
35.594
35.567
35.544
35.524
35.507
35.493
35.481
35.471
35.462
35.454
35.447
35.44
35.434
35.426
35.416
35.405
35.39
35.373
35.353
35.33
35.303
35.272
35.239
35.201
35.162
35.119
35.075
35.029
34.981
34.931
34.879
34.825
34.77
34.713
34.656
34.598
34.54
34.482
34.424
34.367
34.311
34.254
34.198
34.14
34.081
34.021
33.96
33.897
33.834
33.77
33.706
33.643
33.58
33.517
33.455
33.394
33.333
33.275
33.218
33.164
33.111
33.061
33.011
32.963
32.915
32.868
32.822
32.777
32.732
32.689
32.645
32.602
32.56
32.517
32.475
32.434
32.394
32.355
32.32
32.288
32.263
32.246
32.239
32.247
32.271
32.314
32.379
32.468
32.583
32.726
32.896
33.092
33.313
33.557
33.82
34.099
34.39
34.687
34.986
35.283
35.572
35.851
36.115
36.361
36.587
36.792
36.973
37.131
37.264
37.373
37.458
37.521
37.562
37.583
37.585
37.57
37.539
37.494
37.437
37.369
37.292
37.209
37.119
37.024
36.926
36.824
36.72
36.614
36.507
36.401
36.295
36.19
36.086
35.985
35.886
35.791
35.7
35.612
35.529
35.449
35.373
35.298
35.225
35.153
35.081
35.01
34.939
34.868
34.797
34.726
34.656
34.588
34.521
34.458
34.397
34.34
34.288
34.242
34.203
34.17
34.143
34.124
34.111
34.103
34.1
34.101
34.105
34.11
34.116
34.123
34.13
34.136
34.141
34.146
34.15
34.153
34.155
34.156
34.156
34.153
34.149
34.141
34.132
34.12
34.105
34.087
34.066
34.043
34.018
33.99
33.959
33.926
33.89
33.851
33.811
33.769
33.726
33.682
33.637
33.591
33.546
33.499
33.453
33.406
33.359
33.313
33.266
33.22
33.175
33.13
33.087
33.044
33.001
32.959
32.917
32.876
32.834
32.793
32.753
32.712
32.672
32.631
32.592
32.552
32.514
32.476
32.439
32.403
32.366
32.33
32.293
32.257
32.222
32.186
32.151
32.116
32.081
32.047
32.014
31.982
31.953
31.929
31.911
31.902
31.905
31.921
31.954
32.005
32.076
32.169
32.284
32.422
32.583
32.764
32.965
33.182
33.413
33.653
33.899
34.146
34.392
34.63
34.857
35.07
35.266
35.443
35.599
35.734
35.847
35.938
36.007
36.055
36.082
36.091
36.083
36.06
36.023
35.976
35.921
35.859
35.792
35.721
35.647
35.571
35.494
35.415
35.336
35.257
35.178
35.101
35.023
34.947
34.87
34.794
34.719
34.645
34.572
34.499
34.428
34.357
34.287
34.218
34.149
34.081
34.013
33.946
33.881
33.816
33.753
33.691
33.632
33.576
33.522
33.472
33.427
33.386
33.35
33.32
33.297
33.279
33.269
33.264
33.264
33.27
33.278
33.29
33.304
33.319
33.334
33.349
33.364
33.378
33.391
33.404
33.415
33.427
33.438
33.447
33.455
33.46
33.463
33.463
33.46
33.453
33.444
33.431
33.416
33.399
33.381
33.362
33.342
33.321
33.3
33.278
33.254
33.23
33.206
33.18
33.152
33.124
33.093
33.061
33.028
32.994
32.958
32.922
32.886
32.85
32.815
32.781
32.748
32.715
32.683
32.651
32.62
32.59
32.56
32.531
32.502
32.474
32.446
32.42
32.394
32.369
32.345
32.321
32.298
32.275
32.252
32.229
32.208
32.186
32.165
32.145
32.125
32.105
32.085
32.065
32.045
32.025
32.003
31.981
31.957
31.932
31.906
31.881
31.856
31.833
31.813
31.799
31.793
31.798
31.816
31.85
31.904
31.978
32.076
32.196
32.339
32.505
32.692
32.898
33.119
33.354
33.597
33.844
34.092
34.338
34.576
34.804
35.02
35.22
35.404
35.568
35.713
35.838
35.943
36.029
36.096
36.145
36.177
36.194
36.197
36.188
36.168
36.138
36.1
36.055
36.004
35.947
35.885
35.82
35.752
35.683
35.613
35.542
35.473
35.405
35.339
35.274
35.212
35.152
35.094
35.037
34.984
34.932
34.883
34.835
34.79
34.747
34.705
34.663
34.623
34.582
34.541
34.499
34.457
34.413
34.369
34.324
34.279
34.234
34.189
34.147
34.107
34.07
34.038
34.01
33.986
33.967
33.953
33.944
33.939
33.938
33.94
33.946
33.955
33.966
33.978
33.992
34.007
34.022
34.038
34.053
34.066
34.078
34.088
34.096
34.102
34.105
34.106
34.105
34.101
34.094
34.085
34.074
34.061
34.046
34.028
34.008
33.987
33.964
33.94
33.914
33.887
33.858
33.828
33.796
33.762
33.728
33.692
33.656
