Trial 1:0back
32.389
32.364
32.343
32.323
32.305
32.288
32.272
32.255
32.237
32.217
32.193
32.165
32.134
32.099
32.06
32.019
31.975
31.93
31.885
31.84
31.797
31.756
31.717
31.682
31.65
31.624
31.601
31.581
31.565
31.551
31.538
31.527
31.518
31.511
31.509
31.514
31.529
31.56
31.609
31.681
31.781
31.912
32.078
32.281
32.525
32.811
33.137
33.502
33.905
34.34
34.803
35.289
35.791
36.304
36.822
37.337
37.845
38.34
38.816
39.27
39.697
40.095
40.461
40.793
41.092
41.356
41.586
41.782
41.945
42.077
42.178
42.249
42.292
42.31
42.304
42.276
42.229
42.166
42.089
42.002
41.907
41.806
41.701
41.595
41.489
41.381
41.273
41.164
41.052
40.94
40.825
40.708
40.589
40.468
40.346
40.222
40.098
39.972
39.844
39.714
39.582
39.448
39.313
39.177
39.04
38.901
38.762
38.623
38.485
38.349
38.216
38.085
37.959
37.839
37.724
37.615
37.513
37.418
37.331
37.25
37.177
37.112
37.054
37.004
36.961
36.924
36.893
36.867
36.843
36.822
36.804
36.785
36.766
36.746
36.723
36.697
36.669
36.637
36.604
36.571
36.537
36.505
36.474
36.444
36.415
36.386
36.355
36.322
36.286
36.246
36.199
36.147
36.087
36.02
35.947
35.869
35.788
35.703
35.618
35.532
35.447
35.365
35.285
35.209
35.136
35.065
34.996
34.927
34.857
34.787
34.715
34.64
34.562
34.481
34.397
34.313
34.228
34.144
34.062
33.983
33.908
33.837
33.771
33.71
33.653
33.6
33.551
33.506
33.463
33.422
33.383
33.343
33.303
33.262
33.22
33.177
33.132
33.086
33.04
32.993
32.947
32.9
32.855
32.812
32.769
32.728
32.688
32.649
32.61
32.572
32.534
32.497
32.459
32.422
32.384
32.348
32.313
32.279
32.247
32.217
32.189
32.163
32.14
32.118
32.097
32.076
32.054
32.032
32.01
31.989
31.972
31.958
31.95
31.948
31.956
31.977
32.016
32.076
32.159
32.27
32.411
32.586
32.799
33.051
33.343
33.677
34.051
34.463
34.908
35.38
35.874
36.381
36.894
37.406
37.91
38.398
38.865
39.306
39.716
40.094
40.436
40.743
41.013
41.246
41.445
41.611
41.743
41.846
41.922
41.972
41.999
42.006
41.995
41.968
41.927
41.874
41.81
41.735
41.651
41.559
41.459
41.352
41.241
41.125
41.008
40.89
40.773
40.657
40.541
40.426
40.312
40.197
40.082
39.965
39.845
39.722
39.594
39.462
39.323
39.18
39.031
38.879
38.725
38.569
38.413
38.258
38.104
37.953
37.805
37.662
37.524
37.392
37.268
37.15
37.041
36.939
36.846
36.761
36.684
36.616
36.556
36.503
36.459
36.422
36.39
36.364
36.342
36.322
36.304
36.287
36.27
36.252
36.231
36.209
36.183
36.156
36.125
36.093
36.058
36.021
35.982
35.942
35.902
35.861
35.818
35.773
35.725
35.673
35.617
35.557
35.492
35.423
35.35
35.272
35.191
35.107
35.02
34.931
34.841
34.751
34.662
34.574
34.49
34.41
34.333
34.261
34.191
34.125
34.063
34.002
33.944
33.886
33.829
33.772
33.714
33.656
33.597
33.536
33.474
33.41
33.343
33.274
33.204
33.133
33.063
32.996
32.932
32.871
32.814
32.762
32.714
32.67
32.63
32.594
32.559
32.527
32.494
32.462
32.43
32.396
32.361
32.325
32.288
32.251
32.213
32.175
32.137
32.098
32.06
32.023
31.986
31.952
31.919
31.889
31.862
31.838
31.818
31.801
31.787
31.775
31.764
31.753
31.74
31.726
31.708
31.686
31.661
31.631
31.599
31.565
31.529
31.494
31.459
31.428
31.401
31.38
31.368
31.368
31.381
31.41
31.457
31.528
31.624
31.749
31.907
32.1
32.331
32.601
32.911
33.26
33.647
34.069
34.524
35.006
35.512
36.035
36.569
37.105
37.638
38.161
38.667
39.15
39.605
40.028
40.415
40.766
41.078
41.352
41.587
41.785
41.947
42.073
42.167
42.228
42.261
42.269
42.255
42.222
42.175
42.116
42.048
41.972
41.889
41.8
41.706
41.607
41.505
41.399
41.293
41.185
41.079
40.973
40.869
40.767
40.666
40.566
40.466
40.366
40.264
40.159
40.051
39.939
39.822
39.7
39.573
39.441
39.303
39.161
39.015
38.867
38.716
38.565
38.414
38.263
38.115
37.969
37.827
37.69
37.559
37.433
37.313
37.2
37.093
36.992
36.899
36.813
36.734
36.663
36.599
36.542
36.49
36.444
36.403
36.364
36.329
36.295
36.262
36.229
36.197
36.164
36.132
36.098
36.064
36.028
35.989
35.948
35.903
35.855
35.802
35.745
35.684
35.621
35.554
35.485
35.415
35.345
35.275
35.205
35.136
35.068
35.0
34.932
34.865
34.797
34.728
34.657
34.584
34.509
34.429
34.346
34.26
34.172
34.082
33.991
33.899
33.809
33.72
33.633
33.548
33.465
33.384
33.303
33.222
33.143
33.064
32.987
32.911
32.837
32.765
32.695
32.626
32.56
32.495
32.432
32.372
32.314
32.258
32.205
32.155
32.106
32.059
32.014
31.971
31.928
31.885
31.842
31.797
31.751
31.703
31.653
31.601
31.547
31.493
31.438
31.382
31.328
31.276
31.227
31.183
31.144
31.111
31.084
31.062
31.045
31.032
31.022
31.013
31.004
30.995
30.985
30.971
30.954
30.932
30.905
30.874
30.838
30.798
30.754
30.707
30.658
30.608
30.56
30.514
30.473
30.437
30.409
30.39
30.382
30.388
30.409
30.449
30.51
30.595
30.707
30.848
31.022
31.232
31.478
31.762
32.084
32.443
32.836
33.26
33.711
34.182
34.669
35.164
35.662
36.156
36.64
37.107
37.553
37.973
38.364
38.722
39.047
39.337
39.592
39.812
39.998
40.151
40.275
40.37
40.439
40.486
40.511
40.518
40.509
40.487
40.454
40.412
40.361
40.304
40.241
40.173
40.1
40.022
39.94
39.855
39.767
39.676
39.586
39.495
39.406
39.317
39.229
39.141
39.052
38.96
38.866
38.767
38.663
38.554
38.439
38.32
38.197
38.069
37.937
37.8
37.66
37.518
37.376
37.234
37.093
36.948
36.8
36.656
36.521
36.396
36.284
36.183
36.093
36.012
35.937
35.865
35.795
35.723
35.65
35.577
35.502
35.427
35.348
35.264
35.177
35.091
35.009
34.933
34.867
34.811
34.767
34.734
34.711
34.695
34.684
34.675
34.666
34.655
34.64
34.619
34.593
34.561
34.523
34.48
34.433
34.383
34.332
34.281
34.23
34.18
34.129
34.078
34.027
33.973
33.917
33.858
33.794
33.726
33.653
33.577
33.496
33.413
33.327
33.24
33.154
33.068
32.983
32.901
32.824
32.75
32.681
32.615
32.553
32.494
32.438
32.384
32.33
32.277
32.223
32.166
32.107
32.043
31.976
31.906
31.832
31.756
31.679
31.603
31.528
31.456
31.388
31.324
31.265
31.211
31.162
31.116
31.075
31.036
31.0
30.965
30.932
30.899
30.866
30.834
30.803
30.774
30.746
30.719
30.692
30.667
30.643
30.62
30.598
30.577
30.557
30.54
30.523
30.507
30.492
30.478
30.464
30.449
30.434
30.417
30.398
30.377
30.352
30.323
30.29
30.254
30.215
30.173
30.132
30.091
30.052
30.016
29.984
29.958
29.938
29.926
29.92
29.924
29.939
29.965
30.007
30.065
30.145
30.247
30.376
30.533
30.721
30.941
31.194
31.478
31.795
32.143
32.519
32.919
33.34
33.777
34.224
34.674
35.123
35.565
35.997
36.413
36.81
37.184
37.534
37.855
38.147
38.409
38.64
38.841
39.012
39.154
39.268
39.356
39.419
39.461
39.483
39.489
39.481
39.461
39.429
39.388
39.338
39.282
39.22
39.153
39.082
39.007
38.928
38.846
38.762
38.676
38.591
38.507
38.425
38.344
38.265
38.187
38.11
38.032
37.953
37.87
37.782
37.688
37.587
37.479
37.364
37.243
37.116
36.986
36.854
36.722
36.591
36.463
36.34
36.222
36.11
36.005
35.907
35.815
35.73
35.652
35.581
35.515
35.454
35.398
35.347
35.301
35.259
35.22
35.185
35.153
35.123
35.097
35.072
35.05
35.029
35.009
34.989
34.968
34.947
34.925
34.902
34.878
34.851
34.822
34.79
34.755
34.718
34.677
34.634
34.589
34.541
34.492
34.441
34.389
34.336
34.282
34.227
34.169
34.109
34.046
33.98
33.912
33.841
33.768
33.693
33.617
33.541
33.465
33.391
33.319
33.249
33.182
33.117
33.056
32.999
32.944
32.894
32.845
32.798
32.752
32.707
32.662
32.617
32.57
32.522
32.473
32.423
32.37
32.315
32.259
32.2
32.14
32.079
32.018
31.96
31.904
31.851
31.801
31.754
31.712
31.673
31.639
31.609
31.583
31.56
31.54
31.522
31.507
31.492
31.478
31.463
31.447
31.43
31.411
31.389
31.365
31.339
31.311
31.282
31.251
31.221
31.191
31.161
31.133
31.104
31.076
31.048
31.02
30.991
30.962
30.932
30.902
30.873
30.843
30.815
30.789
30.766
30.748
30.736
30.732
30.738
30.758
30.794
30.848
30.923
31.023
31.149
31.303
31.487
31.7
31.943
32.213
32.509
32.829
33.17
33.529
33.902
34.287
34.678
35.073
35.467
35.859
36.243
36.619
36.981
37.327
37.655
37.961
38.245
38.502
38.734
38.938
39.115
39.265
39.387
39.484
39.556
39.605
39.633
39.644
39.639
39.62
39.59
39.55
39.502
39.446
39.384
39.317
39.246
39.173
39.097
39.02
38.942
38.861
38.78
38.697
38.612
38.526
38.437
38.346
38.252
38.154
38.052
37.946
37.836
37.721
37.603
37.481
37.358
37.233
37.107
36.982
36.857
36.734
36.614
36.497
36.385
36.276
36.171
36.071
35.975
35.884
35.797
35.716
35.641
35.571
35.507
35.449
35.398
35.353
35.314
35.28
35.252
35.227
35.206
35.187
35.171
35.155
35.14
35.123
35.105
35.085
35.063
35.038
35.012
34.984
34.954
34.924
34.893
34.861
34.829
34.797
34.764
34.73
34.693
34.652
34.609
34.563
34.512
34.458
34.4
34.338
34.273
34.204
34.133
34.06
33.986
33.912
33.838
33.764
33.692
33.62
33.55
33.482
33.415
33.349
33.285
33.222
33.16
33.099
33.038
32.976
32.915
32.854
32.794
32.734
32.676
32.618
32.563
32.51
32.461
32.414
32.369
32.326
32.284
32.242
32.2
32.158
32.114
32.068
32.02
31.97
31.919
31.866
31.812
31.759
31.708
31.66
31.614
31.573
31.537
31.507
31.482
31.463
31.449
31.438
31.431
31.426
31.422
31.419
31.416
31.411
31.404
31.396
31.384
31.37
31.352
31.332
31.309
31.285
31.261
31.236
31.212
31.189
31.167
31.146
31.125
31.105
31.085
31.063
31.041
31.019
30.996
30.972
30.948
30.923
30.898
30.874
30.85
30.829
30.809
30.793
30.78
30.774
30.775
30.786
30.81
30.848
30.905
30.983
31.084
31.211
31.366
31.55
31.766
32.013
32.291
32.6
32.937
33.301
33.689
34.097
34.523
34.963
35.412
35.866
36.319
36.767
37.204
37.628
38.032
38.415
38.771
39.1
39.399
39.667
39.905
40.111
40.288
40.435
40.556
40.65
40.72
40.768
40.796
40.807
40.803
40.786
40.757
40.72
40.675
40.624
40.568
40.509
40.45
40.39
40.328
40.265
40.202
40.137
40.072
40.006
39.937
39.867
39.794
39.718
39.639
39.557
39.472
39.383
39.288
39.187
39.079
38.964
38.841
38.711
38.575
38.434
38.29
38.145
38.0
37.856
37.716
37.581
37.45
37.327
37.21
37.101
36.999
36.904
36.817
36.737
36.663
36.596
36.533
36.475
36.421
36.37
36.322
36.278
36.236
36.197
36.16
36.127
36.095
36.066
36.039
36.014
35.989
35.964
35.937
35.907
35.874
35.838
35.798
35.753
35.704
35.651
35.595
35.536
35.476
35.415
35.355
35.294
35.232
35.169
35.105
35.039
34.972
34.903
34.834
34.763
34.692
34.62
34.546
34.473
34.399
34.326
34.254
34.183
34.114
34.048
33.985
33.924
33.866
33.812
33.76
33.71
33.661
33.614
33.566
33.518
33.469
33.416
33.361
33.302
33.241
33.176
33.109
33.04
32.969
32.897
32.825
32.754
32.687
32.623
32.563
32.508
32.459
32.414
32.375
32.34
32.309
32.281
32.255
32.23
32.207
32.183
32.159
32.133
32.106
32.077
32.045
32.011
31.975
31.938
31.899
31.86
31.821
31.782
31.744
31.707
31.673
31.643
31.616
31.591
31.569
31.55
31.534
31.52
31.509
31.499
31.489
31.479
31.468
31.455
31.441
31.425
31.407
31.387
31.366
31.346
31.325
31.305
31.286
31.268
31.251
31.234
31.216
31.198
31.178
31.157
31.136
31.115
31.095
31.082
31.076
31.083
31.106
31.149
31.219
31.318
31.45
31.62
31.829
32.08
32.371
32.703
33.072
33.476
33.908
34.363
34.834
35.313
35.795
36.274
36.743
37.2
37.638
38.057
38.452
38.824
39.171
39.492
39.787
40.055
40.297
40.513
40.702
40.864
40.999
41.109
41.193
41.255
41.295
41.315
41.315
41.298
41.265
41.217
41.156
41.084
41.003
40.916
40.826
40.733
40.639
40.544
40.452
40.361
40.273
40.188
40.105
40.024
39.942
39.86
39.776
39.688
39.598
39.504
39.406
39.305
39.2
39.092
38.981
38.866
38.748
38.628
38.505
38.38
38.253
38.124
37.994
37.864
37.735
37.608
37.485
37.367
37.256
37.152
37.056
36.97
36.892
36.824
36.764
36.712
36.666
36.625
36.588
36.554
36.52
36.487
36.453
36.418
36.383
36.347
36.31
36.274
36.238
36.203
36.168
36.134
36.101
36.07
36.039
36.008
35.977
35.944
35.908
35.87
35.827
35.781
35.73
35.673
35.611
35.545
35.476
35.404
35.331
35.256
35.182
35.109
35.036
34.964
34.895
34.826
34.759
34.692
34.625
34.557
34.489
34.418
34.347
34.274
34.198
34.12
34.04
33.96
33.88
33.801
33.724
33.649
33.577
33.509
33.444
33.384
33.328
33.277
33.229
33.184
33.143
33.104
33.066
33.028
32.991
32.951
32.91
32.866
32.819
32.769
32.716
32.66
32.602
32.544
32.487
32.431
32.379
32.33
32.286
32.247
32.212
32.183
32.159
32.139
32.122
32.109
32.098
32.087
32.078
32.068
32.056
32.04
32.021
31.998
31.972
31.943
31.913
31.881
31.849
31.817
31.785
31.755
31.727
31.699
31.673
31.647
31.62
31.591
31.561
31.529
31.494
31.458
31.422
31.387
31.354
31.323
31.298
31.277
31.263
31.257
31.259
31.273
31.299
31.341
31.401
31.483
31.589
31.722
31.885
32.078
32.302
32.559
32.848
33.167
33.516
33.891
34.29
34.709
35.145
35.595
36.054
36.517
36.979
37.436
37.882
38.312
38.721
39.106
39.462
39.787
40.079
40.334
40.553
40.737
40.887
41.005
41.093
41.154
41.189
41.201
41.192
41.164
41.12
41.063
40.995
40.918
40.834
40.745
40.651
40.555
40.455
40.354
40.252
40.15
40.047
39.943
39.839
39.734
39.629
39.526
39.423
39.322
39.222
39.123
39.024
38.923
38.819
38.711
38.599
38.48
38.354
38.223
38.085
37.943
37.798
37.652
37.507
37.365
37.228
37.099
36.978
36.867
36.767
36.676
36.597
36.528
36.469
36.42
36.379
36.346
36.317
36.291
36.265
36.238
36.209
36.179
36.148
36.115
36.082
36.05
36.019
35.99
35.964
35.941
35.921
35.903
35.887
35.87
35.851
35.83
35.805
35.775
35.74
35.7
35.653
35.602
35.546
35.488
35.426
35.364
35.301
35.238
35.175
35.112
35.049
34.985
34.921
34.855
34.787
34.717
34.645
34.57
34.494
34.416
34.337
34.257
34.175
34.094
34.013
33.934
33.857
33.783
33.711
33.642
33.575
33.51
33.446
33.384
33.321
33.259
33.195
33.132
33.068
33.003
32.937
32.871
32.805
32.739
32.674
32.611
32.55
32.494
32.441
32.393
32.349
32.309
32.274
32.242
32.214
32.189
32.166
32.145
32.125
32.104
32.082
32.06
32.036
32.012
31.987
31.962
31.937
31.91
31.882
31.853
31.822
31.79
31.756
31.722
31.688
31.654
31.621
31.588
31.557
31.528
31.501
31.478
31.457
31.438
31.421
31.405
31.389
31.373
31.356
31.339
31.321
31.304
31.286
31.27
31.255
31.245
31.24
31.244
31.26
31.29
31.338
31.408
31.502
31.623
31.775
31.96
32.18
32.434
32.723
33.046
33.402
33.789
34.205
34.646
35.107
35.585
36.074
36.57
37.065
37.556
38.036
38.498
38.939
39.352
39.735
40.087
40.405
40.687
40.935
41.148
41.327
41.475
41.592
41.681
41.743
41.782
41.801
41.801
41.786
41.757
41.716
41.664
41.604
41.535
41.458
41.374
41.283
41.185
41.083
40.976
40.867
40.756
40.645
40.536
40.43
40.326
40.226
40.128
40.031
39.935
39.838
39.738
39.636
39.53
39.42
39.306
39.188
39.066
38.94
38.811
38.679
38.546
38.411
38.276
38.143
38.014
37.889
37.767
37.651
37.539
37.432
37.332
37.238
37.153
37.074
37.002
36.937
36.877
36.824
36.775
36.733
36.696
36.664
36.636
36.611
36.588
36.567
36.547
36.527
36.506
36.483
36.458
36.43
36.399
36.364
36.326
36.285
36.242
36.197
36.15
36.101
36.05
35.997
35.943
35.887
35.83
35.77
35.709
35.645
35.579
35.511
35.441
35.369
35.296
35.222
35.145
35.067
34.988
34.908
34.828
34.748
34.669
34.59
34.512
34.435
34.359
34.284
34.211
34.14
34.07
34.001
33.933
33.866
33.8
33.735
33.67
33.605
33.54
33.476
33.412
33.349
33.287
33.228
33.171
33.116
33.063
33.012
32.963
32.915
32.868
32.823
32.779
32.735
32.692
32.65
32.609
32.568
32.527
32.487
32.446
32.407
32.367
32.329
32.292
32.256
32.221
32.189
32.158
32.129
32.101
32.075
32.05
32.025
31.999
31.972
31.945
31.916
31.887
31.857
31.826
31.794
31.761
31.729
31.695
31.662
31.628
31.594
31.562
31.531
31.502
31.476
31.452
31.433
31.417
31.405
31.397
31.391
31.387
31.383
31.379
31.373
31.364
31.352
31.336
31.316
31.292
31.266
31.239
31.212
31.187
31.166
31.151
31.146
31.155
31.181
31.228
31.302
31.405
31.542
31.716
31.928
32.181
32.474
32.806
33.176
33.583
34.022
34.49
34.982
35.492
36.016
36.548
37.081
37.61
38.128
38.632
39.116
39.576
40.007
40.407
40.772
41.101
41.393
41.646
41.863
42.042
42.186
42.297
42.375
42.425
42.45
42.453
42.436
42.402
42.355
42.296
42.228
42.154
42.074
41.99
41.902
41.81
41.715
41.616
41.513
41.408
41.303
41.197
41.091
40.987
40.884
40.782
40.68
40.577
40.474
40.368
40.261
40.151
40.038
39.923
39.804
39.68
39.552
39.42
39.285
39.146
39.006
38.864
38.722
38.582
38.445
38.312
38.185
38.065
37.952
37.846
37.749
37.659
37.577
37.501
37.43
37.365
37.303
37.245
37.189
37.136
37.085
37.038
36.994
36.954
36.918
36.886
36.856
36.829
36.802
36.775
36.746
36.714
36.677
36.636
36.59
36.539
36.482
36.421
36.357
36.29
36.223
36.157
36.092
36.029
35.968
35.909
35.851
35.792
35.732
35.67
35.604
35.534
35.459
35.381
35.299
35.213
35.123
35.03
34.935
34.84
34.745
34.651
34.56
34.471
34.385
34.302
34.225
34.152
34.083
34.019
33.959
33.9
33.844
33.787
33.73
33.671
33.61
33.545
33.477
33.407
33.334
33.261
33.189
33.118
33.05
32.986
32.927
32.873
32.825
32.782
32.744
32.709
32.677
32.647
32.618
32.59
32.561
32.53
32.498
32.465
32.43
32.393
32.355
32.316
32.277
32.237
32.199
32.162
32.127
32.095
32.067
32.044
32.025
32.01
32.0
31.992
31.986
31.982
31.98
31.978
31.978
31.979
31.979
31.979
31.977
31.971
31.961
31.946
31.926
31.902
31.874
31.844
31.811
31.779
31.747
31.716
31.688
31.662
31.636
31.611
31.587
31.564
31.541
31.518
31.497
31.478
31.462
31.452
31.449
31.455
31.472
31.504
31.554
31.625
31.721
31.846
32.002
32.192
32.419
32.681
32.981
33.317
33.688
34.091
34.525
34.985
35.468
35.97
36.486
37.011
37.538
38.061
38.575
39.074
39.553
40.006
40.43
40.82
41.173
41.488
41.762
41.996
42.19
42.344
42.46
42.541
42.59
42.609
42.602
42.572
42.523
42.459
42.382
42.295
42.2
42.099
41.993
41.882
41.766
41.647
41.524
41.399
41.273
41.146
41.021
40.898
40.778
40.661
40.547
40.435
40.326
40.218
40.109
39.997
39.882
39.763
39.64
39.512
39.379
39.242
39.1
38.955
38.807
38.658
38.508
38.361
38.215
38.073
37.935
37.802
37.675
37.554
37.442
37.337
37.242
37.157
37.082
37.016
36.96
36.912
36.872
36.837
36.807
36.78
36.756
36.734
36.714
36.696
36.679
36.665
36.652
36.641
36.632
36.624
36.616
36.607
36.594
36.578
36.557
36.531
36.499
36.461
36.418
36.369
36.315
36.257
36.196
36.133
36.069
36.004
35.939
35.874
35.809
35.743
35.677
35.61
35.541
35.469
35.393
35.312
35.227
35.138
35.045
34.951
34.857
34.765
34.675
34.59
34.511
34.436
34.368
34.305
34.247
34.194
34.145
34.098
34.052
34.005
33.957
33.906
33.852
33.795
33.734
33.669
33.6
33.528
33.454
33.378
33.303
33.229
33.157
33.089
33.025
32.967
32.915
32.869
32.829
32.794
32.765
32.738
32.715
32.692
32.669
32.644
32.618
32.59
32.558
32.522
32.482
32.438
32.392
32.345
32.297
32.25
32.205
