Trial 1:0back
36.498
36.48
36.462
36.442
36.42
36.395
36.365
36.33
36.29
36.246
36.198
36.147
36.094
36.038
35.981
35.924
35.868
35.812
35.758
35.704
35.652
35.601
35.551
35.503
35.455
35.408
35.361
35.315
35.268
35.222
35.174
35.125
35.075
35.023
34.971
34.918
34.866
34.815
34.766
34.717
34.671
34.627
34.586
34.547
34.51
34.475
34.441
34.406
34.37
34.333
34.293
34.25
34.203
34.151
34.095
34.035
33.973
33.908
33.844
33.781
33.721
33.664
33.613
33.569
33.53
33.499
33.475
33.458
33.45
33.451
33.461
33.482
33.515
33.562
33.624
33.704
33.803
33.923
34.064
34.228
34.414
34.622
34.85
35.097
35.362
35.641
35.933
36.235
36.542
36.85
37.156
37.455
37.745
38.021
38.281
38.523
38.743
38.939
39.111
39.257
39.379
39.478
39.555
39.614
39.655
39.682
39.695
39.697
39.688
39.67
39.642
39.607
39.563
39.513
39.456
39.393
39.327
39.257
39.187
39.116
39.044
38.974
38.905
38.837
38.77
38.704
38.638
38.573
38.509
38.445
38.381
38.317
38.251
38.184
38.114
38.041
37.965
37.885
37.802
37.716
37.626
37.535
37.443
37.351
37.26
37.172
37.087
37.006
36.928
36.853
36.782
36.714
36.651
36.592
36.536
36.484
36.436
36.389
36.346
36.305
36.266
36.23
36.197
36.165
36.136
36.108
36.082
36.058
36.034
36.011
35.986
35.961
35.934
35.905
35.874
35.84
35.804
35.762
35.716
35.664
35.609
35.551
35.491
35.432
35.374
35.318
35.265
35.214
35.166
35.122
35.08
35.041
35.004
34.967
34.929
34.891
34.849
34.805
34.759
34.708
34.653
34.595
34.534
34.472
34.409
34.347
34.286
34.229
34.175
34.124
34.077
34.034
33.992
33.952
33.912
33.872
33.832
33.79
33.746
33.701
33.653
33.604
33.554
33.501
33.446
33.391
33.334
33.277
33.222
33.168
33.117
33.07
33.026
32.985
32.949
32.915
32.885
32.856
32.829
32.803
32.777
32.751
32.724
32.696
32.667
32.637
32.606
32.576
32.548
32.524
32.507
32.501
32.509
32.535
32.582
32.654
32.752
32.88
33.04
33.231
33.454
33.704
33.981
34.28
34.598
34.932
35.275
35.625
35.976
36.324
36.664
36.995
37.313
37.614
37.897
38.16
38.402
38.623
38.82
38.995
39.148
39.28
39.391
39.483
39.557
39.615
39.657
39.686
39.7
39.701
39.69
39.669
39.638
39.599
39.553
39.5
39.443
39.382
39.318
39.252
39.185
39.119
39.054
38.99
38.928
38.868
38.808
38.748
38.687
38.625
38.561
38.492
38.42
38.343
38.263
38.181
38.096
38.01
37.924
37.838
37.752
37.666
37.58
37.495
37.409
37.323
37.238
37.152
37.066
36.978
36.89
36.801
36.713
36.627
36.545
36.467
36.394
36.328
36.269
36.217
36.172
36.135
36.104
36.078
36.056
36.037
36.018
35.998
35.977
35.954
35.927
35.896
35.863
35.826
35.788
35.748
35.707
35.666
35.625
35.583
35.543
35.504
35.466
35.43
35.394
35.357
35.321
35.284
35.246
35.207
35.166
35.122
35.074
35.023
34.968
34.91
34.849
34.786
34.721
34.655
34.589
34.525
34.463
34.404
34.348
34.296
34.247
34.201
34.157
34.114
34.072
34.031
33.988
33.944
33.899
33.851
33.802
33.75
33.698
33.644
33.588
33.533
33.477
33.422
33.369
33.318
33.269
33.222
33.178
33.135
33.096
33.058
33.022
32.986
32.951
32.917
32.881
32.845
32.808
32.77
32.732
32.692
32.653
32.614
32.576
32.538
32.503
32.468
32.435
32.403
32.372
32.341
32.311
32.281
32.249
32.217
32.185
32.152
32.121
32.094
32.074
32.063
32.067
32.089
32.134
32.206
32.307
32.441
32.609
32.81
33.045
33.312
33.607
33.928
34.269
34.626
34.993
35.365
35.737
36.105
36.464
36.81
37.14
37.45
37.738
38.004
38.249
38.472
38.675
38.858
39.022
39.167
39.294
39.404
39.496
39.572
39.631
39.674
39.703
39.717
39.717
39.704
39.679
39.644
39.601
39.552
39.498
39.441
39.383
39.325
39.267
39.208
39.149
39.09
39.03
38.967
38.903
38.836
38.766
38.694
38.618
38.541
38.462
38.382
38.301
38.219
38.137
38.054
37.971
37.886
37.801
37.716
37.63
37.544
37.458
37.373
37.288
37.204
37.122
37.041
36.962
36.884
36.808
36.734
36.661
36.591
36.525
36.462
36.405
36.351
36.303
36.258
36.218
36.18
36.146
36.114
36.084
36.056
36.03
36.003
35.978
35.954
35.931
35.907
35.883
35.856
35.828
35.797
35.765
35.73
35.693
35.653
35.611
35.564
35.512
35.456
35.395
35.331
35.265
35.199
35.134
35.071
35.013
34.96
34.91
34.864
34.82
34.777
34.736
34.694
34.651
34.607
34.561
34.511
34.459
34.402
34.342
34.278
34.212
34.144
34.074
34.004
33.933
33.864
33.795
33.729
33.666
33.607
33.551
33.499
33.451
33.406
33.366
33.328
33.293
33.259
33.226
33.192
33.158
33.122
33.085
33.045
33.003
32.959
32.914
32.867
32.819
32.771
32.722
32.672
32.623
32.574
32.526
32.479
32.435
32.392
32.352
32.315
32.28
32.247
32.217
32.188
32.162
32.138
32.115
32.094
32.074
32.054
32.034
32.014
31.993
31.971
31.949
31.929
31.912
31.903
31.903
31.916
31.947
32.0
32.078
32.183
32.319
32.486
32.686
32.917
33.179
33.468
33.784
34.122
34.478
34.848
35.229
35.615
36.001
36.383
36.756
37.118
37.463
37.79
38.097
38.381
38.641
38.876
39.086
39.271
39.432
39.568
39.682
39.773
39.845
39.899
39.936
39.958
39.967
39.964
39.95
39.927
39.895
39.856
39.813
39.765
39.715
39.663
39.609
39.555
39.499
39.442
39.382
39.32
39.254
39.183
39.107
39.026
38.94
38.849
38.755
38.657
38.557
38.456
38.354
38.252
38.15
38.049
37.947
37.845
37.744
37.643
37.543
37.444
37.346
37.251
37.158
37.068
36.982
36.901
36.825
36.756
36.693
36.636
36.585
36.541
36.502
36.469
36.44
36.414
36.391
36.368
36.346
36.324
36.3
36.273
36.243
36.209
36.172
36.133
36.092
36.051
36.011
35.972
35.933
35.897
35.862
35.83
35.799
35.769
35.74
35.711
35.682
35.651
35.617
35.58
35.538
35.491
35.439
35.382
35.322
35.26
35.196
35.133
35.071
35.011
34.954
34.899
34.847
34.796
34.747
34.697
34.648
34.596
34.543
34.488
34.431
34.371
34.309
34.243
34.175
34.104
34.031
33.957
33.884
33.813
33.745
33.68
33.619
33.563
33.512
33.465
33.422
33.383
33.347
33.313
33.281
33.249
33.218
33.186
33.152
33.116
33.078
33.038
32.996
32.95
32.903
32.854
32.805
32.755
32.706
32.658
32.613
32.569
32.528
32.49
32.454
32.42
32.388
32.356
32.324
32.293
32.261
32.229
32.197
32.166
32.135
32.106
32.078
32.052
32.029
32.011
32.0
31.997
32.007
32.033
32.077
32.145
32.238
32.359
32.512
32.696
32.913
33.162
33.441
33.749
34.082
34.437
34.81
35.195
35.588
35.986
36.383
36.775
37.159
37.529
37.884
38.219
38.531
38.819
39.081
39.317
39.526
39.71
39.868
40.0
40.108
40.193
40.255
40.297
40.318
40.322
40.31
40.285
40.247
40.199
40.144
40.082
40.017
39.948
39.876
39.803
39.729
39.654
39.578
39.502
39.425
39.348
39.269
39.189
39.105
39.018
38.928
38.834
38.735
38.635
38.531
38.426
38.32
38.214
38.108
38.002
37.897
37.791
37.687
37.581
37.476
37.37
37.263
37.154
37.046
36.939
36.836
36.737
36.645
36.56
36.484
36.418
36.363
36.323
36.299
36.294
36.306
36.328
36.357
36.387
36.412
36.43
36.437
36.431
36.412
36.38
36.337
36.284
36.223
36.158
36.091
36.025
35.961
35.901
35.845
35.794
35.748
35.707
35.669
35.634
35.599
35.564
35.528
35.489
35.447
35.4
35.348
35.292
35.231
35.165
35.097
35.027
34.955
34.884
34.815
34.748
34.685
34.626
34.571
34.52
34.474
34.431
34.391
34.352
34.315
34.277
34.236
34.193
34.147
34.097
34.043
33.985
33.923
33.858
33.792
33.724
33.657
33.591
33.526
33.464
33.404
33.346
33.292
33.241
33.192
33.145
33.101
33.059
33.019
32.979
32.939
32.899
32.859
32.82
32.78
32.741
32.703
32.666
32.63
32.596
32.564
32.534
32.503
32.473
32.442
32.409
32.373
32.336
32.297
32.257
32.217
32.181
32.151
32.131
32.125
32.138
32.174
32.239
32.336
32.469
32.639
32.847
33.093
33.374
33.69
34.035
34.407
34.8
35.21
35.631
36.057
36.483
36.904
37.316
37.716
38.102
38.47
38.82
39.149
39.457
39.741
40.002
40.239
40.451
40.637
40.797
40.932
41.042
41.127
41.189
41.23
41.253
41.259
41.252
41.232
41.202
41.161
41.112
41.055
40.992
40.924
40.851
40.775
40.694
40.611
40.525
40.437
40.347
40.256
40.162
40.065
39.965
39.861
39.753
39.642
39.528
39.41
39.291
39.169
39.046
38.922
38.799
38.677
38.555
38.436
38.318
38.203
38.091
37.982
37.875
37.77
37.666
37.565
37.465
37.368
37.275
37.187
37.105
37.031
36.964
36.905
36.853
36.81
36.774
36.743
36.718
36.696
36.676
36.657
36.638
36.618
36.597
36.575
36.55
36.523
36.493
36.462
36.43
36.397
36.365
36.332
36.299
36.266
36.232
36.197
36.16
36.12
36.076
36.028
35.974
35.916
35.851
35.782
35.709
35.632
35.554
35.476
35.398
35.322
35.248
35.176
35.109
35.045
34.986
34.931
34.878
34.827
34.777
34.727
34.676
34.622
34.565
34.505
34.44
34.372
34.3
34.226
34.15
34.074
33.997
33.922
33.849
33.779
33.712
33.648
33.588
33.532
33.479
33.429
33.383
33.339
33.298
33.258
33.219
33.182
33.145
33.11
33.075
33.039
33.003
32.965
32.926
32.885
32.842
32.798
32.753
32.707
32.661
32.615
32.57
32.526
32.484
32.443
32.403
32.364
32.326
32.289
32.252
32.216
32.18
32.147
32.118
32.096
32.085
32.086
32.106
32.147
32.214
32.311
32.441
32.609
32.816
33.063
33.349
33.672
34.029
34.416
34.83
35.265
35.715
36.177
36.644
37.111
37.575
38.031
38.475
38.905
39.318
39.71
40.08
40.423
40.739
41.025
41.28
41.505
41.7
41.865
42.001
42.109
42.19
42.246
42.279
42.29
42.284
42.261
42.225
42.178
42.121
42.057
41.987
41.911
41.833
41.752
41.669
41.584
41.496
41.405
41.31
41.209
41.104
40.994
40.88
40.763
40.644
40.525
40.405
40.286
40.168
40.047
39.925
39.8
39.673
39.542
39.408
39.269
39.127
38.984
38.839
38.696
38.555
38.417
38.286
38.161
38.043
37.935
37.835
37.745
37.664
37.591
37.527
37.469
37.417
37.369
37.324
37.281
37.239
37.197
37.155
37.113
37.07
37.026
36.982
36.939
36.897
36.856
36.818
36.781
36.745
36.711
36.678
36.645
36.613
36.58
36.545
36.507
36.467
36.424
36.377
36.326
36.273
36.217
36.159
36.1
36.041
35.981
35.92
35.859
35.798
35.735
35.671
35.606
35.538
35.47
35.399
35.327
35.254
35.179
35.103
35.026
34.949
34.872
34.796
34.721
34.646
34.574
34.504
34.438
34.375
34.317
34.262
34.212
34.163
34.117
34.071
34.025
33.977
33.927
33.875
33.82
33.761
33.699
33.633
33.565
33.494
33.422
33.35
33.279
33.212
33.148
33.09
33.039
32.993
32.953
32.918
32.888
32.862
32.837
32.814
32.791
32.767
32.742
32.715
32.686
32.653
32.616
32.575
32.532
32.485
32.437
32.388
32.339
32.292
32.248
32.209
32.179
32.16
32.156
32.171
32.208
32.271
32.363
32.488
32.649
32.846
33.081
33.356
33.668
34.017
34.4
34.812
35.25
35.709
36.184
36.666
37.152
37.636
38.113
38.577
39.023
39.448
39.849
40.223
40.567
40.881
41.163
41.413
41.631
41.816
41.971
42.096
42.193
42.265
42.313
42.339
42.347
42.338
42.315
42.277
42.227
42.165
42.092
42.01
41.919
41.82
41.715
41.606
41.494
41.381
41.268
41.156
41.045
40.935
40.825
40.716
40.608
40.499
40.389
40.278
40.164
40.048
39.928
39.803
39.675
39.542
39.405
39.265
39.122
38.978
38.833
38.689
38.547
38.41
38.277
38.15
38.031
37.92
37.817
37.723
37.637
37.559
37.489
37.425
37.368
37.315
37.264
37.216
37.169
37.122
37.076
37.03
36.985
36.942
36.901
36.862
36.823
36.786
36.75
36.714
36.677
36.639
36.6
36.559
36.515
36.467
36.416
36.363
36.306
36.247
36.185
36.121
36.056
35.989
35.921
35.854
35.787
35.721
35.655
35.588
35.521
35.453
35.384
35.315
35.244
35.173
35.102
35.032
34.963
34.895
34.828
34.763
34.7
34.639
34.579
34.52
34.462
34.403
34.346
34.288
34.23
34.171
34.111
34.051
33.99
33.93
33.869
33.81
33.751
33.692
33.634
33.576
33.517
33.459
33.401
33.344
33.288
33.233
33.181
33.132
33.085
33.04
32.998
32.957
32.917
32.876
32.834
32.79
32.744
32.695
32.644
32.59
32.535
32.479
32.424
32.371
32.319
32.271
32.226
32.186
32.151
32.121
32.095
32.074
32.055
32.039
32.025
32.011
31.997
31.985
31.976
31.97
31.972
31.983
32.008
32.051
32.117
32.21
32.337
32.499
32.701
32.946
33.234
33.563
33.932
34.338
34.778
35.246
35.737
36.244
36.76
37.278
37.792
38.297
38.784
39.248
39.684
40.086
40.454
40.785
41.079
41.337
41.561
41.751
41.911
42.042
42.146
42.225
42.281
42.314
42.326
42.319
42.292
42.249
42.19
42.118
42.035
41.943
41.843
41.739
41.632
41.523
41.412
41.302
41.191
41.081
40.969
40.857
40.743
40.625
40.505
40.38
40.251
40.118
39.983
39.845
39.705
39.562
39.416
39.27
39.123
38.977
38.833
38.691
38.554
38.422
38.295
38.175
38.061
37.954
37.853
37.759
37.67
37.586
37.509
37.437
37.371
37.31
37.255
37.205
37.16
37.121
37.086
37.057
37.033
37.013
36.997
36.984
36.973
36.964
36.954
36.943
36.929
36.912
36.89
36.862
36.829
36.789
36.744
36.693
36.638
36.58
36.52
36.46
36.4
36.341
36.282
36.225
36.169
36.114
36.059
36.003
35.946
35.886
35.824
35.76
35.694
35.624
35.552
35.477
35.398
35.316
35.233
35.149
35.065
34.982
34.901
34.822
34.747
34.675
34.607
34.542
34.481
34.422
34.365
34.309
34.254
34.2
34.147
34.094
34.042
33.99
33.937
33.884
33.83
33.776
33.72
33.665
33.609
33.552
33.496
33.438
33.381
33.324
33.266
33.209
33.152
33.096
33.042
32.991
32.942
32.898
32.857
32.82
32.786
32.755
32.727
32.701
32.677
32.654
32.633
32.614
32.595
32.575
32.556
32.535
32.515
32.496
32.48
32.47
32.47
32.485
32.519
32.578
32.667
32.79
32.951
33.154
33.4
33.69
34.022
34.396
34.807
35.249
35.719
36.207
36.709
37.216
37.721
38.218
38.699
39.158
39.592
39.996
40.368
40.707
41.012
41.282
41.517
41.718
41.886
42.021
42.126
42.201
42.249
42.272
42.272
42.252
42.214
42.161
42.093
42.013
41.921
41.821
41.712
41.597
41.476
41.352
41.225
41.097
40.968
40.84
40.714
40.589
40.465
40.343
40.22
40.097
39.972
39.845
39.714
39.578
39.439
39.295
39.147
38.996
38.841
38.685
38.529
38.374
38.222
38.073
37.927
37.787
37.652
37.523
37.4
37.282
37.169
37.063
36.964
36.873
36.789
36.712
36.645
36.586
36.538
36.5
36.472
36.454
36.443
36.438
36.437
36.439
36.443
36.446
36.447
36.444
36.437
36.424
36.404
36.376
36.341
36.298
36.25
36.196
36.139
36.08
36.021
35.963
35.907
35.852
35.8
35.749
35.699
35.649
35.598
35.546
35.492
35.435
35.374
35.311
35.244
35.174
35.101
35.027
34.95
34.871
34.791
34.711
34.633
34.557
34.483
34.413
34.346
34.282
34.219
34.159
34.099
34.042
33.985
33.93
33.876
33.823
33.771
33.718
33.665
33.612
33.558
33.501
33.443
33.385
33.327
33.269
33.212
33.157
33.106
33.058
33.011
32.962
32.908
32.856
32.807
32.763
32.725
32.694
32.667
32.644
32.622
32.601
32.578
32.553
32.525
32.494
32.459
32.421
32.381
32.338
32.294
32.25
32.206
32.162
32.119
32.077
32.037
31.999
31.962
31.926
31.893
31.863
31.838
31.82
31.812
31.817
31.839
31.881
31.948
32.045
32.176
32.344
32.551
32.8
33.09
33.421
33.79
34.195
34.634
35.1
35.59
36.098
36.617
37.141
37.664
38.182
38.688
39.178
39.648
40.094
40.512
40.899
41.254
41.573
41.856
42.101
42.308
42.479
42.614
42.717
42.788
42.832
42.85
42.846
42.821
42.779
42.722
42.652
42.573
42.486
42.393
42.295
42.194
42.091
41.986
41.88
41.775
41.668
41.561
41.451
41.34
41.225
41.107
40.987
40.865
40.742
40.616
40.489
40.361
40.23
40.096
39.959
39.818
39.674
39.525
39.373
39.219
39.065
38.911
38.759
38.611
38.467
38.329
38.198
38.076
37.962
37.857
37.762
37.674
37.596
37.525
37.463
37.406
37.354
37.307
37.263
37.22
37.178
37.137
37.096
37.054
37.013
36.972
36.931
36.892
36.853
36.816
36.779
36.743
36.706
36.669
36.63
36.59
36.548
36.504
36.458
36.41
36.359
36.306
36.249
36.19
36.127
36.061
35.993
35.921
35.848
35.774
35.699
35.623
35.546
35.469
35.392
35.313
35.233
35.152
35.07
34.985
34.9
34.815
34.729
34.644
34.56
34.477
34.396
34.319
34.244
34.173
34.105
34.04
33.979
33.921
33.866
33.814
33.763
33.714
33.665
33.615
33.565
33.515
33.464
33.411
33.357
33.301
33.243
33.185
33.127
33.069
33.011
32.956
32.904
32.855
32.809
32.768
32.73
32.697
32.667
32.64
32.617
32.597
32.578
32.561
32.544
32.528
32.511
32.494
32.476
32.456
32.435
32.412
32.386
32.356
32.324
32.29
32.253
32.214
32.174
32.133
32.093
32.053
32.015
31.979
31.945
31.914
31.886
31.862
31.844
31.831
31.825
31.83
31.849
31.886
31.945
32.031
32.149
32.305
32.501
32.741
33.026
33.355
33.727
34.14
34.589
35.071
35.579
36.107
36.647
37.193
37.735
38.269
38.787
39.285
39.757
40.2
40.611
40.987
41.326
41.627
41.89
42.115
42.302
42.454
42.572
42.66
42.72
42.754
42.766
42.757
42.73
42.686
42.627
42.554
42.47
42.377
42.277
42.172
42.064
41.957
41.851
41.748
41.649
41.553
41.459
41.367
41.275
41.182
41.086
40.986
40.881
40.771
40.656
40.535
40.409
40.28
40.147
40.011
39.872
39.731
39.587
39.442
39.295
39.147
39.0
38.855
38.711
38.571
38.434
38.302
38.174
38.052
37.936
37.827
37.725
37.629
37.54
37.459
37.384
37.317
37.256
37.199
37.148
37.099
37.054
37.011
36.97
36.931
36.894
36.858
36.822
36.785
36.747
36.707
36.666
36.622
36.575
36.526
36.474
36.42
36.363
36.305
36.245
36.183
36.12
36.054
35.987
35.917
35.845
35.771
35.694
35.615
35.534
35.452
35.368
35.285
35.203
35.12
35.036
34.952
34.866
34.781
34.696
34.612
34.53
34.45
34.374
34.301
34.232
34.166
34.101
34.037
33.973
33.91
33.847
33.783
33.716
33.639
33.553
33.46
33.363
33.263
33.164
33.07
32.983
32.905
32.836
32.778
32.73
32.69
32.657
32.628
32.602
32.576
32.549
32.52
32.489
32.455
32.419
32.381
32.341
32.301
32.261
32.222
32.185
32.151
32.119
32.091
32.066
32.045
32.028
32.014
32.002
31.99
31.978
31.964
31.949
31.932
31.912
31.889
31.863
31.834
31.802
31.769
31.733
31.695
31.656
31.618
31.582
31.549
31.519
31.493
31.471
31.45
31.43
31.41
31.389
31.366
31.341
31.314
31.285
31.253
31.222
31.192
31.166
31.148
31.141
31.151
31.181
31.237
31.323
31.444
31.604
31.804
32.049
32.339
32.674
33.052
33.47
33.925
34.41
34.921
35.45
35.991
36.538
37.083
37.62
38.145
38.651
39.134
39.592
40.019
40.414
40.775
41.099
41.385
41.633
41.841
42.012
42.145
42.243
42.306
42.338
42.342
42.322
42.279
42.218
42.142
42.055
41.958
41.855
41.747
41.636
41.524
41.412
41.3
41.188
41.076
40.965
40.853
40.742
40.629
40.517
40.402
40.286
40.167
40.045
39.921
39.795
39.668
39.54
39.411
39.282
39.151
39.019
38.886
38.751
38.615
38.478
38.339
38.199
38.06
37.92
37.783
37.648
37.518
37.394
37.276
37.166
37.066
36.977
36.898
36.829
36.77
36.719
36.675
36.637
36.603
36.572
36.543
36.514
36.483
36.451
36.415
36.377
36.337
36.294
36.251
36.208
36.165
36.123
36.083
36.045
36.008
35.973
35.938
35.902
35.864
35.823
35.776
35.725
35.668
35.605
35.535
35.459
35.378
35.294
35.207
35.119
35.033
34.949
34.868
34.791
34.72
34.653
34.59
34.533
34.478
34.426
34.375
34.324
34.271
34.215
34.156
34.093
34.026
33.956
33.882
33.806
33.728
33.65
33.571
33.492
33.415
33.339
33.266
33.195
33.129
33.065
33.006
32.95
32.898
32.849
32.804
32.761
32.722
32.685
32.65
32.617
32.586
32.556
32.527
32.499
32.473
32.448
