Trial 1:0back
32.104
32.08
32.057
32.033
32.009
31.985
31.959
31.931
31.903
31.872
31.84
31.807
31.772
31.736
31.7
31.663
31.626
31.591
31.556
31.523
31.492
31.462
31.434
31.407
31.381
31.355
31.33
31.306
31.282
31.257
31.232
31.205
31.176
31.144
31.11
31.073
31.033
30.991
30.947
30.9
30.851
30.802
30.752
30.702
30.652
30.603
30.557
30.513
30.473
30.439
30.41
30.388
30.375
30.372
30.381
30.406
30.452
30.524
30.626
30.766
30.947
31.175
31.452
31.78
32.158
32.584
33.054
33.563
34.105
34.672
35.259
35.858
36.462
37.065
37.659
38.238
38.798
39.333
39.841
40.318
40.761
41.168
41.539
41.871
42.164
42.418
42.633
42.809
42.949
43.053
43.124
43.164
43.176
43.163
43.126
43.068
42.991
42.897
42.789
42.666
42.533
42.39
42.239
42.081
41.917
41.75
41.58
41.408
41.235
41.063
40.89
40.719
40.549
40.38
40.214
40.048
39.884
39.72
39.556
39.392
39.227
39.062
38.897
38.731
38.566
38.401
38.238
38.077
37.921
37.771
37.63
37.499
37.381
37.277
37.188
37.115
37.059
37.018
36.993
36.982
36.985
37.001
37.027
37.064
37.109
37.162
37.22
37.282
37.348
37.414
37.481
37.547
37.61
37.669
37.723
37.772
37.814
37.85
37.879
37.902
37.917
37.925
37.926
37.918
37.902
37.879
37.848
37.81
37.765
37.714
37.656
37.593
37.525
37.452
37.374
37.292
37.206
37.116
37.023
36.927
36.827
36.724
36.618
36.51
36.398
36.284
36.167
36.049
35.93
35.81
35.689
35.569
35.449
35.33
35.211
35.094
34.977
34.862
34.749
34.637
34.528
34.422
34.319
34.221
34.126
34.035
33.948
33.865
33.786
33.711
33.639
33.571
33.506
33.445
33.387
33.332
33.28
33.231
33.184
33.139
33.096
33.055
33.017
32.981
32.947
32.915
32.884
32.855
32.827
32.799
32.773
32.746
32.721
32.696
32.672
32.649
32.626
32.604
32.581
32.559
32.535
32.511
32.485
32.458
32.432
32.406
32.381
32.358
32.336
32.316
32.296
32.278
32.26
32.243
32.225
32.206
32.186
32.166
32.144
32.122
32.099
32.075
32.05
32.025
31.998
31.971
31.943
31.916
31.889
31.863
31.838
31.813
31.79
31.767
31.744
31.72
31.696
31.67
31.644
31.617
31.589
31.561
31.533
31.505
31.475
31.445
31.413
31.381
31.347
31.312
31.276
31.24
31.203
31.165
31.128
31.09
31.051
31.011
30.969
30.927
30.882
30.836
30.788
30.739
30.689
30.638
30.588
30.537
30.488
30.441
30.396
30.357
30.324
30.3
30.289
30.296
30.324
30.379
30.468
30.597
30.769
30.992
31.266
31.594
31.976
32.408
32.888
33.409
33.965
34.55
35.154
35.77
36.391
37.008
37.615
38.206
38.776
39.32
39.835
40.316
40.763
41.172
41.543
41.875
42.169
42.424
42.643
42.825
42.973
43.087
43.17
43.223
43.247
43.245
43.22
43.174
43.108
43.025
42.926
42.814
42.69
42.555
42.413
42.266
42.114
41.959
41.803
41.647
41.493
41.342
41.195
41.051
40.911
40.774
40.64
40.509
40.381
40.255
40.13
40.006
39.881
39.755
39.628
39.497
39.363
39.226
39.086
38.944
38.801
38.658
38.517
38.38
38.247
38.122
38.004
37.895
37.797
37.71
37.634
37.571
37.52
37.481
37.455
37.441
37.439
37.447
37.464
37.489
37.522
37.56
37.603
37.649
37.698
37.747
37.795
37.841
37.884
37.923
37.956
37.983
38.003
38.015
38.018
38.012
37.996
37.971
37.936
37.893
37.844
37.787
37.725
37.658
37.586
37.509
37.427
37.341
37.25
37.155
37.057
36.955
36.85
36.742
36.632
36.52
36.407
36.293
36.179
36.065
35.952
35.839
35.726
35.614
35.501
35.39
35.279
35.169
35.06
34.953
34.847
34.742
34.639
34.537
34.437
34.338
34.242
34.148
34.057
33.969
33.884
33.803
33.725
33.65
33.579
33.511
33.447
33.386
33.329
33.276
33.226
33.179
33.135
33.093
33.052
33.011
32.972
32.933
32.895
32.858
32.821
32.786
32.753
32.72
32.688
32.657
32.627
32.598
32.569
32.541
32.512
32.485
32.457
32.431
32.405
32.38
32.355
32.332
32.309
32.286
32.263
32.241
32.22
32.2
32.18
32.161
32.141
32.122
32.102
32.082
32.061
32.039
32.016
31.992
31.968
31.943
31.918
31.892
31.866
31.84
31.813
31.786
31.758
31.73
31.702
31.673
31.644
31.614
31.584
31.553
31.521
31.489
31.457
31.424
31.391
31.359
31.327
31.295
31.265
31.234
31.204
31.173
31.142
31.111
31.081
31.051
31.022
30.993
30.965
30.938
30.911
30.885
30.86
30.834
30.808
30.782
30.754
30.725
30.694
30.662
30.628
30.592
30.554
30.514
30.473
30.429
30.385
30.339
30.293
30.248
30.205
30.164
30.127
30.094
30.066
30.044
30.03
30.026
30.035
30.06
30.107
30.18
30.287
30.433
30.622
30.859
31.148
31.488
31.88
32.322
32.81
33.34
33.905
34.499
35.114
35.741
36.373
37.001
37.618
38.217
38.794
39.342
39.859
40.34
40.783
41.187
41.552
41.876
42.159
42.403
42.609
42.778
42.911
43.012
43.082
43.122
43.135
43.123
43.088
43.031
42.956
42.865
42.759
42.64
42.512
42.374
42.23
42.08
41.926
41.77
41.613
41.455
41.298
41.143
40.991
40.842
40.697
40.556
40.419
40.287
40.159
40.033
39.91
39.789
39.667
39.544
39.421
39.295
39.166
39.033
38.897
38.759
38.62
38.48
38.342
38.207
38.076
37.952
37.836
37.73
37.634
37.551
37.48
37.423
37.379
37.347
37.329
37.322
37.326
37.341
37.363
37.394
37.43
37.47
37.514
37.56
37.606
37.651
37.695
37.735
37.772
37.803
37.828
37.847
37.858
37.861
37.858
37.847
37.829
37.805
37.774
37.736
37.691
37.64
37.583
37.519
37.45
37.375
37.296
37.213
37.126
37.036
36.942
36.846
36.748
36.648
36.546
36.443
36.339
36.234
36.127
36.019
35.91
35.799
35.687
35.575
35.462
35.348
35.235
35.122
35.008
34.896
34.785
34.677
34.57
34.467
34.366
34.267
34.171
34.077
33.985
33.896
33.811
33.729
33.65
33.576
33.505
33.438
33.374
33.314
33.256
33.201
33.148
33.098
33.05
33.004
32.962
32.921
32.883
32.847
32.812
32.78
32.749
32.72
32.693
32.667
32.642
32.618
32.595
32.573
32.55
32.528
32.506
32.484
32.463
32.441
32.42
32.4
32.379
32.358
32.337
32.315
32.294
32.272
32.249
32.225
32.201
32.176
32.152
32.127
32.102
32.078
32.053
32.029
32.005
31.98
31.955
31.929
31.904
31.878
31.853
31.828
31.804
31.78
31.757
31.735
31.712
31.69
31.669
31.647
31.626
31.604
31.582
31.558
31.534
31.509
31.483
31.456
31.428
31.398
31.368
31.337
31.307
31.275
31.244
31.214
31.183
31.152
31.121
31.09
31.057
31.024
30.99
30.954
30.917
30.879
30.841
30.801
30.76
30.717
30.674
30.63
30.585
30.541
30.497
30.453
30.411
30.37
30.33
30.292
30.256
30.223
30.193
30.167
30.147
30.134
30.132
30.143
30.174
30.228
30.312
30.432
30.594
30.801
31.057
31.363
31.721
32.129
32.582
33.076
33.605
34.163
34.742
35.334
35.932
36.528
37.116
37.69
38.242
38.769
39.267
39.731
40.16
40.552
40.906
41.223
41.501
41.742
41.948
42.118
42.256
42.363
42.439
42.488
42.511
42.51
42.486
42.443
42.381
42.302
42.209
42.102
41.983
41.853
41.714
41.568
41.415
41.256
41.094
40.929
40.762
40.594
40.426
40.258
40.09
39.924
39.759
39.596
39.435
39.276
39.117
38.96
38.804
38.649
38.494
38.34
38.187
38.035
37.885
37.737
37.594
37.456
37.324
37.201
37.088
36.986
36.896
36.819
36.755
36.706
36.67
36.649
36.642
36.647
36.666
36.696
36.737
36.787
36.845
36.91
36.979
37.052
37.126
37.201
37.273
37.342
37.405
37.462
37.511
37.552
37.584
37.608
37.623
37.629
37.628
37.619
37.602
37.578
37.546
37.507
37.461
37.408
37.348
37.281
37.208
37.128
37.045
36.957
36.866
36.771
36.673
36.572
36.468
36.361
36.252
36.14
36.027
35.913
35.798
35.683
35.568
35.452
35.337
35.223
35.11
34.999
34.889
34.781
34.676
34.573
34.472
34.374
34.278
34.185
34.095
34.007
33.923
33.841
33.762
33.685
33.611
33.538
33.468
33.399
33.332
33.266
33.202
33.14
33.08
33.022
32.967
32.914
32.863
32.815
32.769
32.726
32.684
32.645
32.607
32.571
32.536
32.503
32.472
32.442
32.413
32.386
32.359
32.333
32.308
32.284
32.262
32.24
32.218
32.196
32.176
32.155
32.135
32.116
32.096
32.076
32.057
32.037
32.017
31.996
31.976
31.956
31.936
31.916
31.896
31.876
31.857
31.838
31.82
31.801
31.782
31.763
31.742
31.719
31.696
31.672
31.648
31.625
31.601
31.577
31.553
31.528
31.504
31.479
31.454
31.429
31.404
31.379
31.352
31.325
31.296
31.266
31.233
31.199
31.161
31.122
31.079
31.034
30.986
30.936
30.884
30.831
30.777
30.723
30.67
30.619
30.569
30.521
30.476
30.434
30.397
30.364
30.337
30.319
30.311
30.317
30.342
30.391
30.469
30.581
30.733
30.93
31.175
31.47
31.816
32.21
32.651
33.134
33.653
34.202
34.774
35.362
35.958
36.556
37.147
37.726
38.286
38.822
39.331
39.81
40.254
40.663
41.036
41.372
41.671
41.934
42.16
42.35
42.506
42.63
42.722
42.785
42.82
42.829
42.815
42.778
42.72
42.644
42.553
42.447
42.331
42.204
42.07
41.93
41.785
41.637
41.486
41.335
41.184
41.035
40.888
40.744
40.604
40.468
40.336
40.208
40.082
39.958
39.835
39.712
39.589
39.465
39.34
39.213
39.084
38.953
38.821
38.687
38.553
38.419
38.287
38.157
38.031
37.91
37.795
37.689
37.592
37.505
37.429
37.366
37.315
37.276
37.248
37.233
37.228
37.232
37.246
37.268
37.297
37.332
37.372
37.415
37.459
37.504
37.547
37.588
37.626
37.659
37.686
37.708
37.723
37.731
37.732
37.725
37.712
37.69
37.662
37.626
37.583
37.534
37.477
37.414
37.346
37.272
37.193
37.11
37.022
36.931
36.837
36.74
36.64
36.537
36.433
36.325
36.216
36.105
35.992
35.877
35.762
35.646
35.53
35.415
35.301
35.187
35.075
34.964
34.855
34.747
34.641
34.537
34.436
34.338
34.242
34.15
34.061
33.975
33.892
33.812
33.735
33.661
33.59
33.523
33.458
33.396
33.337
33.279
33.224
33.169
33.117
33.066
33.017
32.97
32.926
32.883
32.843
32.805
32.769
32.734
32.7
32.667
32.635
32.604
32.573
32.544
32.515
32.487
32.46
32.432
32.404
32.376
32.349
32.322
32.295
32.269
32.244
32.219
32.194
32.17
32.146
32.121
32.097
32.071
32.046
32.02
31.993
31.967
31.941
31.915
31.889
31.864
31.839
31.813
31.788
31.762
31.735
31.708
31.68
31.652
31.624
31.596
31.567
31.538
31.51
31.481
31.453
31.425
31.397
31.37
31.344
31.317
31.291
31.264
31.237
31.209
31.179
31.149
31.119
31.087
31.056
31.024
30.993
30.963
30.933
30.903
30.874
30.846
30.819
30.791
30.764
30.738
30.712
30.686
30.659
30.631
30.601
30.57
30.538
30.503
30.466
30.428
30.388
30.346
30.305
30.264
30.224
30.186
30.15
30.117
30.088
30.064
30.046
30.034
30.032
30.042
30.066
30.11
30.179
30.278
30.412
30.586
30.804
31.069
31.382
31.742
32.148
32.596
33.08
33.596
34.137
34.695
35.264
35.836
36.404
36.962
37.505
38.026
38.522
38.987
39.421
39.82
40.184
40.513
40.806
41.063
41.284
41.471
41.625
41.747
41.838
41.9
41.935
41.945
41.931
41.896
41.842
41.772
41.686
41.587
41.477
41.358
41.232
41.101
40.966
40.828
40.69
40.552
40.414
40.278
40.144
40.014
39.887
39.764
39.645
39.53
39.418
39.309
39.203
39.098
38.995
38.892
38.787
38.68
38.571
38.459
38.345
38.227
38.107
37.986
37.865
37.745
37.627
37.512
37.402
37.298
37.203
37.116
37.041
36.976
36.924
36.884
36.856
36.84
36.836
36.843
36.86
36.886
36.918
36.956
36.998
37.044
37.091
37.14
37.189
37.236
37.282
37.324
37.36
37.389
37.411
37.425
37.429
37.424
37.41
37.387
37.354
37.314
37.268
37.215
37.158
37.097
37.033
36.966
36.896
36.822
36.746
36.666
36.582
36.496
36.406
36.313
36.218
36.12
36.02
35.917
35.813
35.707
35.601
35.493
35.386
35.279
35.173
35.067
34.963
34.859
34.758
34.658
34.561
34.466
34.375
34.285
34.199
34.115
34.033
33.954
33.877
33.802
33.729
33.658
33.589
33.522
33.457
33.395
33.335
33.277
33.221
33.167
33.116
33.066
33.017
32.971
32.927
32.884
32.844
32.806
32.769
32.734
32.701
32.67
32.64
32.611
32.585
32.559
32.535
32.511
32.488
32.465
32.444
32.422
32.4
32.377
32.354
32.331
32.305
32.279
32.252
32.224
32.196
32.168
32.14
32.113
32.087
32.063
32.04
32.019
31.998
31.978
31.958
31.937
31.916
31.894
31.872
31.848
31.824
31.799
31.773
31.746
31.72
31.693
31.666
31.639
31.613
31.587
31.561
31.536
31.511
31.486
31.462
31.438
31.415
31.391
31.367
31.343
31.319
31.295
31.271
31.247
31.222
31.197
31.171
31.145
31.118
31.091
31.063
31.035
31.006
30.977
30.949
30.921
30.893
30.866
30.839
30.814
30.788
30.763
30.739
30.713
30.687
30.659
30.629
30.597
30.563
30.527
30.49
30.452
30.414
30.377
30.341
30.308
30.279
30.253
30.232
30.215
30.203
30.195
30.194
30.199
30.214
30.241
30.282
30.342
30.425
30.535
30.676
30.851
31.065
31.317
31.61
31.943
32.313
32.717
33.15
33.607
34.081
34.565
35.052
35.535
36.01
36.47
36.911
37.329
37.722
38.087
38.423
38.729
39.006
39.254
39.473
39.664
39.829
39.967
40.08
40.169
40.236
40.282
40.309
40.317
40.309
40.285
40.246
40.194
40.13
40.055
39.969
39.873
39.77
39.659
39.542
39.421
39.295
39.167
39.037
38.906
38.774
38.643
38.512
38.382
38.255
38.129
38.007
37.886
37.767
37.65
37.534
37.417
37.3
37.183
37.065
36.947
36.829
36.712
36.597
36.486
36.379
36.28
36.188
36.105
36.031
35.968
35.916
35.876
35.847
35.83
35.824
35.83
35.846
35.872
35.907
35.949
35.998
36.051
36.108
36.168
36.23
36.292
36.353
36.411
36.466
36.517
36.561
36.599
36.63
36.655
36.673
36.683
36.686
36.681
36.67
36.651
36.626
36.594
36.556
36.511
36.461
36.405
36.344
36.278
36.207
36.132
36.053
35.971
35.886
35.798
35.708
35.616
35.523
35.429
35.335
35.242
35.149
35.057
34.967
34.878
34.791
34.706
34.622
34.54
34.459
34.378
34.298
34.218
34.138
34.057
33.975
33.894
33.812
33.732
33.653
33.577
33.505
33.435
33.369
33.307
33.249
33.194
33.142
33.093
33.046
33.001
32.958
32.917
32.877
32.838
32.8
32.762
32.724
32.687
32.651
32.617
32.584
32.553
32.525
32.498
32.473
32.451
32.43
32.411
32.394
32.379
32.366
32.354
32.343
32.332
32.32
32.306
32.291
32.274
32.256
32.237
32.217
32.197
32.176
32.155
32.134
32.114
32.093
32.073
32.053
32.032
32.012
31.992
31.972
31.952
31.931
31.911
31.892
31.871
31.851
31.831
31.81
31.79
31.769
31.748
31.728
31.707
31.686
31.665
31.644
31.622
31.599
31.576
31.551
31.527
31.503
31.479
31.455
31.432
31.408
31.384
31.36
31.337
31.315
31.293
31.273
31.254
31.236
31.22
31.204
31.189
31.174
31.157
31.138
31.115
31.09
31.061
31.029
30.994
30.957
30.919
30.879
30.838
30.797
30.755
30.714
30.674
30.635
30.598
30.563
30.532
30.503
30.479
30.458
30.444
30.435
30.435
30.446
30.47
30.512
30.577
30.669
30.793
30.954
31.154
31.396
31.682
32.009
32.377
32.782
33.219
33.682
34.165
34.66
35.161
35.66
36.15
36.627
37.084
37.519
37.927
38.307
38.657
38.978
39.267
39.527
39.757
39.957
40.13
40.276
40.396
40.492
40.566
40.619
40.654
40.67
40.67
40.655
40.625
40.584
40.532
40.47
40.401
40.324
40.241
40.152
40.06
39.964
39.866
39.766
39.665
39.563
39.462
39.363
39.266
39.172
39.081
38.993
38.907
38.823
38.741
38.658
38.575
38.49
38.404
38.315
38.223
38.127
38.028
37.927
37.823
37.717
37.611
37.505
37.4
37.299
37.202
37.11
37.026
36.95
36.883
36.826
36.779
36.742
36.715
36.697
36.688
36.688
36.696
36.711
36.732
36.76
36.793
36.829
36.87
36.912
36.956
36.999
37.041
37.08
37.115
37.146
37.172
37.191
37.205
37.212
37.213
37.206
37.193
37.172
37.144
37.109
37.068
37.02
36.966
36.907
36.843
36.775
36.703
36.628
36.551
36.47
36.388
36.303
36.217
36.13
36.041
35.95
35.859
35.768
35.677
35.586
35.497
35.409
35.322
35.236
35.151
35.067
34.982
34.898
34.815
34.733
34.651
34.572
34.493
34.417
34.343
34.271
34.201
34.134
34.069
34.007
33.947
33.889
33.834
33.78
33.727
33.675
33.625
33.576
33.529
33.483
33.441
33.4
33.361
33.324
33.289
33.256
33.224
33.192
33.162
33.131
33.101
33.071
33.041
33.011
32.981
32.951
32.923
32.895
32.869
32.844
32.82
32.798
32.776
32.756
32.736
32.717
32.698
32.679
32.659
32.638
32.617
32.594
32.57
32.545
32.52
32.495
32.47
32.446
32.422
32.4
32.378
32.357
32.337
32.317
32.297
32.276
32.255
32.233
32.209
32.185
32.16
32.133
32.106
32.077
32.048
32.019
31.989
31.96
31.93
31.901
31.873
31.846
31.819
31.793
31.766
31.74
31.713
31.686
31.659
31.632
31.606
31.579
31.553
31.527
31.502
31.478
31.454
31.431
31.408
31.387
31.365
31.344
31.324
31.304
31.284
31.264
31.244
31.225
31.206
31.188
31.17
31.152
31.136
31.121
31.106
31.092
31.077
31.063
31.048
31.033
31.017
31.001
30.983
30.964
30.943
30.92
30.895
30.869
30.84
30.811
30.781
30.751
30.722
30.693
30.667
30.643
30.623
30.608
30.601
30.605
30.622
30.658
30.716
30.802
30.919
31.073
31.265
31.499
31.775
32.092
32.45
32.845
33.273
33.727
34.203
34.692
35.188
35.684
36.172
36.648
37.106
37.541
37.952
38.334
38.687
39.011
39.304
39.567
39.801
40.007
40.186
40.338
40.466
40.57
40.653
40.715
40.759
40.785
40.795
40.79
40.77
40.737
40.693
40.637
40.572
40.499
40.419
40.333
40.241
40.145
40.046
39.945
39.842
39.738
39.634
39.53
39.428
39.327
39.227
39.129
39.034
38.94
38.849
38.759
38.669
38.58
38.49
38.399
38.307
38.213
38.116
38.018
37.917
37.815
37.713
37.611
37.511
37.414
37.321
37.234
37.154
37.083
37.021
36.968
36.927
36.896
36.877
36.869
36.871
36.882
36.902
36.929
36.964
37.003
37.048
37.095
37.145
37.197
37.249
37.3
37.35
37.397
37.441
37.48
37.514
37.541
37.56
37.572
37.575
37.572
37.561
37.544
37.519
37.488
37.449
37.405
37.354
37.298
37.237
37.172
37.103
37.032
36.959
36.884
36.808
36.73
36.652
36.573
36.493
36.412
36.33
36.247
36.163
36.077
35.991
35.905
35.818
35.73
35.641
35.551
35.461
35.37
35.278
35.186
35.094
35.003
34.913
34.825
34.74
34.657
34.577
34.501
34.429
34.36
34.295
34.232
34.172
34.113
34.056
34.001
33.947
33.895
33.845
33.797
33.752
33.709
33.668
33.63
33.594
33.56
33.528
33.498
33.47
33.444
33.419
33.394
33.369
33.344
33.319
33.294
33.27
33.246
33.224
33.202
33.182
33.162
33.144
33.126
33.108
33.09
33.073
33.055
33.037
33.018
32.999
32.978
32.957
32.935
32.912
32.89
32.868
32.847
32.827
32.807
32.788
32.769
32.751
32.734
32.718
32.702
32.685
32.669
32.652
32.634
32.615
32.595
32.573
32.55
32.525
32.501
32.476
32.451
32.426
32.402
32.378
32.355
32.333
32.312
32.29
32.269
32.247
32.225
32.203
32.179
32.155
32.129
32.103
32.075
32.046
32.015
31.983
31.951
31.918
31.885
31.851
31.816
31.78
31.744
31.707
31.669
31.63
31.591
31.55
31.51
31.469
31.428
31.387
31.348
31.309
31.272
31.238
31.206
31.179
31.155
31.137
31.124
31.118
31.119
31.13
31.152
31.188
31.241
31.315
31.415
31.544
31.706
31.903
32.137
32.408
32.715
33.056
33.428
33.827
34.248
34.686
35.133
35.584
36.032
36.472
36.899
37.31
37.701
38.07
38.414
38.733
39.025
39.291
39.53
39.743
39.931
40.094
40.234
40.351
40.446
40.522
40.578
40.617
40.639
40.644
40.634
40.609
40.57
40.518
40.453
40.378
40.294
40.202
40.103
39.999
39.891
39.779
39.664
39.545
39.425
39.304
39.182
39.06
38.938
38.816
38.696
38.576
38.457
38.337
38.217
38.095
37.971
37.845
37.719
37.591
37.463
37.336
37.21
37.087
36.967
36.853
36.746
36.645
36.554
36.473
36.403
36.344
36.297
36.262
36.239
36.228
36.228
36.239
36.259
36.288
