Trial 1:0back
37.906
37.69
37.47
37.247
37.021
36.794
36.567
36.343
36.122
35.907
35.699
35.503
35.32
35.153
35.003
34.871
34.759
34.666
34.592
34.539
34.507
34.497
34.51
34.545
34.601
34.676
34.766
34.868
34.979
35.096
35.216
35.336
35.455
35.572
35.686
35.795
35.897
35.991
36.075
36.147
36.206
36.252
36.285
36.304
36.309
36.302
36.283
36.254
36.217
36.17
36.115
36.052
35.982
35.905
35.823
35.736
35.646
35.552
35.454
35.354
35.251
35.146
35.038
34.926
34.812
34.695
34.575
34.455
34.335
34.215
34.097
33.981
33.868
33.757
33.649
33.544
33.442
33.343
33.248
33.157
33.069
32.986
32.906
32.831
32.761
32.695
32.634
32.577
32.524
32.473
32.424
32.377
32.332
32.289
32.249
32.212
32.179
32.149
32.12
32.093
32.066
32.04
32.017
31.997
31.981
31.969
31.961
31.956
31.954
31.955
31.957
31.961
31.964
31.969
31.973
31.975
31.976
31.974
31.971
31.966
31.96
31.952
31.943
31.931
31.916
31.898
31.876
31.851
31.823
31.794
31.763
31.733
31.704
31.676
31.651
31.629
31.611
31.599
31.595
31.603
31.626
31.671
31.741
31.843
31.982
32.164
32.391
32.668
32.997
33.379
33.812
34.293
34.816
35.371
35.95
36.541
37.133
37.717
38.281
38.816
39.315
39.77
40.179
40.537
40.846
41.106
41.32
41.491
41.618
41.706
41.756
41.774
41.762
41.727
41.67
41.596
41.506
41.404
41.291
41.167
41.033
40.89
40.738
40.578
40.412
40.241
40.065
39.884
39.7
39.512
39.321
39.127
38.931
38.732
38.533
38.331
38.129
37.925
37.72
37.513
37.305
37.097
36.888
36.68
36.474
36.273
36.079
35.894
35.723
35.566
35.427
35.305
35.202
35.119
35.056
35.014
34.993
34.994
35.014
35.052
35.107
35.177
35.26
35.352
35.452
35.555
35.661
35.766
35.867
35.963
36.053
36.136
36.212
36.279
36.336
36.383
36.419
36.443
36.456
36.459
36.451
36.434
36.408
36.374
36.331
36.281
36.224
36.161
36.09
36.012
35.927
35.835
35.736
35.632
35.524
35.412
35.295
35.173
35.047
34.917
34.786
34.656
34.527
34.402
34.282
34.167
34.059
33.957
33.862
33.773
33.689
33.608
33.531
33.457
33.386
33.32
33.256
33.194
33.135
33.081
33.03
32.981
32.934
32.886
32.837
32.787
32.735
32.683
32.631
32.583
32.538
32.497
32.46
32.428
32.399
32.373
32.35
32.329
32.309
32.291
32.274
32.26
32.248
32.238
32.23
32.224
32.219
32.213
32.207
32.199
32.189
32.178
32.167
32.155
32.143
32.131
32.118
32.102
32.084
32.064
32.041
32.015
31.987
31.957
31.926
31.895
31.863
31.831
31.8
31.773
31.75
31.734
31.729
31.74
31.771
31.828
31.919
32.051
32.228
32.455
32.734
33.067
33.452
33.887
34.368
34.886
35.436
36.008
36.592
37.179
37.759
38.323
38.861
39.366
39.83
40.25
40.621
40.943
41.216
41.442
41.623
41.761
41.861
41.924
41.956
41.958
41.933
41.883
41.813
41.723
41.619
41.503
41.378
41.247
41.11
40.969
40.825
40.676
40.523
40.367
40.206
40.042
39.876
39.707
39.536
39.362
39.184
39.002
38.817
38.629
38.44
38.252
38.064
37.879
37.696
37.516
37.34
37.168
37.003
36.846
36.702
36.571
36.455
36.353
36.265
36.19
36.128
36.08
36.044
36.021
36.012
36.015
36.03
36.057
36.094
36.14
36.195
36.256
36.322
36.391
36.461
36.529
36.594
36.654
36.711
36.762
36.807
36.842
36.866
36.878
36.885
36.89
36.894
36.898
36.9
36.897
36.889
36.874
36.851
36.818
36.776
36.723
36.659
36.585
36.502
36.411
36.313
36.21
36.102
35.99
35.878
35.765
35.652
35.54
35.43
35.321
35.214
35.11
35.007
34.906
34.809
34.715
34.626
34.539
34.456
34.376
34.298
34.223
34.15
34.078
34.008
33.94
33.875
33.812
33.753
33.697
33.644
33.596
33.55
33.509
33.47
33.433
33.399
33.366
33.335
33.305
33.279
33.255
33.235
33.217
33.202
33.187
33.174
33.16
33.146
33.132
33.119
33.107
33.097
33.089
33.081
33.074
33.066
33.056
33.044
33.031
33.015
32.997
32.977
32.954
32.929
32.901
32.869
32.833
32.793
32.748
32.698
32.643
32.585
32.523
32.46
32.395
32.332
32.271
32.212
32.155
32.1
32.047
31.998
31.954
31.92
31.899
31.896
31.918
31.971
32.059
32.188
32.363
32.588
32.866
33.197
33.582
34.016
34.496
35.014
35.563
36.133
36.712
37.292
37.861
38.409
38.928
39.409
39.848
40.24
40.581
40.872
41.112
41.303
41.448
41.551
41.614
41.644
41.643
41.617
41.57
41.505
41.427
41.337
41.238
41.13
41.016
40.894
40.766
40.631
40.491
40.343
40.19
40.031
39.865
39.694
39.517
39.335
39.148
38.956
38.759
38.559
38.356
38.152
37.949
37.747
37.548
37.352
37.16
36.972
36.789
36.614
36.448
36.293
36.15
36.023
35.911
35.815
35.737
35.675
35.631
35.604
35.591
35.594
35.61
35.64
35.682
35.734
35.797
35.866
35.94
36.018
36.096
36.175
36.252
36.326
36.396
36.461
36.521
36.574
36.619
36.656
36.683
36.7
36.708
36.705
36.692
36.67
36.64
36.602
36.556
36.503
36.443
36.375
36.301
36.221
36.134
36.042
35.946
35.846
35.743
35.639
35.533
35.426
35.319
35.212
35.106
35.0
34.894
34.789
34.686
34.583
34.483
34.384
34.287
34.192
34.096
34.001
33.904
33.806
33.709
33.614
33.521
33.432
33.348
33.27
33.197
33.131
33.072
33.019
32.973
32.933
32.898
32.868
32.843
32.821
32.805
32.791
32.781
32.772
32.765
32.758
32.751
32.743
32.734
32.726
32.717
32.708
32.701
32.695
32.69
32.686
32.681
32.676
32.669
32.663
32.655
32.647
32.64
32.633
32.626
32.618
32.61
32.599
32.585
32.565
32.54
32.51
32.476
32.439
32.401
32.363
32.325
32.286
32.248
32.209
32.173
32.14
32.112
32.093
32.085
32.093
32.121
32.172
32.253
32.368
32.52
32.712
32.947
33.226
33.548
33.911
34.313
34.749
35.214
35.701
36.2
36.705
37.205
37.692
38.158
38.597
39.002
39.37
39.697
39.983
40.228
40.433
40.598
40.726
40.821
40.886
40.922
40.931
40.917
40.88
40.823
40.749
40.659
40.555
40.439
40.313
40.178
40.035
39.886
39.732
39.573
39.41
39.244
39.076
38.905
38.733
38.558
38.379
38.198
38.013
37.824
37.632
37.438
37.243
37.047
36.852
36.658
36.466
36.278
36.096
35.92
35.753
35.598
35.456
35.329
35.221
35.133
35.064
35.016
34.988
34.979
34.99
35.017
35.06
35.118
35.187
35.269
35.359
35.456
35.557
35.658
35.759
35.858
35.952
36.04
36.12
36.191
36.253
36.306
36.348
36.382
36.405
36.418
36.421
36.414
36.397
36.371
36.339
36.301
36.259
36.214
36.166
36.113
36.056
35.994
35.927
35.853
35.775
35.691
35.603
35.511
35.416
35.317
35.217
35.114
35.009
34.903
34.798
34.693
34.591
34.494
34.401
34.314
34.232
34.154
34.08
34.01
33.942
33.877
33.814
33.752
33.691
33.631
33.572
33.516
33.46
33.406
33.352
33.3
33.25
33.203
33.16
33.122
33.089
33.062
33.042
33.027
33.017
33.012
33.011
33.012
33.014
33.016
33.017
33.016
33.011
33.002
32.989
32.971
32.947
32.92
32.888
32.853
32.814
32.773
32.73
32.686
32.642
32.6
32.56
32.525
32.495
32.472
32.46
32.46
32.476
32.509
32.565
32.647
32.76
32.907
33.093
33.319
33.587
33.898
34.249
34.636
35.055
35.499
35.962
36.438
36.917
37.394
37.859
38.306
38.729
39.12
39.478
39.797
40.078
40.318
40.52
40.685
40.814
40.91
40.976
41.014
41.029
41.022
40.995
40.952
40.895
40.826
40.748
40.662
40.569
40.469
40.361
40.246
40.123
39.993
39.857
39.715
39.567
39.416
39.261
39.103
38.942
38.779
38.612
38.442
38.267
38.089
37.907
37.722
37.535
37.347
37.16
36.976
36.799
36.63
36.472
36.324
36.189
36.068
35.96
35.867
35.79
35.728
35.683
35.655
35.644
35.649
35.67
35.705
35.753
35.811
35.878
35.951
36.028
36.106
36.184
36.258
36.327
36.39
36.445
36.491
36.528
36.557
36.578
36.591
36.596
36.595
36.588
36.574
36.555
36.53
36.498
36.461
36.418
36.369
36.316
36.26
36.201
36.139
36.074
36.005
35.933
35.857
35.776
35.69
35.599
35.504
35.407
35.307
35.208
35.108
35.011
34.913
34.816
34.718
34.621
34.525
34.43
34.337
34.248
34.164
34.085
34.009
33.932
33.855
33.777
33.699
33.624
33.552
33.487
33.429
33.38
33.34
33.308
33.284
33.265
33.252
33.241
33.233
33.227
33.224
33.224
33.227
33.232
33.239
33.247
33.254
33.26
33.265
33.266
33.264
33.258
33.248
33.233
33.215
33.192
33.165
33.134
33.1
33.062
33.021
32.977
32.931
32.885
32.84
32.798
32.763
32.735
32.718
32.714
32.725
32.755
32.807
32.885
32.994
33.137
33.32
33.543
33.81
34.12
34.471
34.859
35.279
35.724
36.187
36.661
37.138
37.611
38.072
38.514
38.93
39.317
39.672
39.99
40.27
40.512
40.715
40.882
41.014
41.115
41.186
41.23
41.25
41.248
41.227
41.19
41.138
41.076
41.003
40.922
40.835
40.742
40.643
40.541
40.434
40.322
40.207
40.087
39.964
39.838
39.71
39.58
39.45
39.319
39.188
39.056
38.922
38.785
38.647
38.505
38.361
38.214
38.064
37.912
37.76
37.608
37.458
37.311
37.168
37.032
36.905
36.788
36.683
36.592
36.516
36.455
36.407
36.374
36.353
36.344
36.344
36.353
36.371
36.398
36.431
36.469
36.51
36.552
36.592
36.629
36.662
36.691
36.717
36.74
36.758
36.772
36.781
36.783
36.779
36.766
36.746
36.717
36.68
36.635
36.582
36.523
36.458
36.39
36.319
36.245
36.17
36.093
36.017
35.939
35.861
35.781
35.702
35.622
35.543
35.465
35.388
35.313
35.239
35.164
35.087
35.006
34.922
34.834
34.741
34.645
34.547
34.45
34.357
34.268
34.186
34.111
34.042
33.979
33.922
33.871
33.825
33.783
33.745
33.712
33.682
33.656
33.632
33.609
33.586
33.562
33.536
33.508
33.478
33.448
33.417
33.387
33.358
33.332
33.309
33.288
33.27
33.255
33.243
33.233
33.227
33.223
33.223
33.226
33.231
33.235
33.238
33.237
33.232
33.222
33.204
33.18
33.15
33.114
33.075
33.034
32.991
32.948
32.906
32.865
32.823
32.781
32.74
32.7
32.663
32.63
32.601
32.577
32.559
32.55
32.549
32.561
32.589
32.636
32.709
32.811
32.948
33.123
33.34
33.599
33.9
34.242
34.622
35.033
35.47
35.926
36.393
36.864
37.329
37.784
38.22
38.633
39.017
39.368
39.683
39.961
40.2
40.401
40.565
40.696
40.796
40.87
40.92
40.95
40.963
40.959
40.94
40.907
40.861
40.805
40.742
40.67
40.592
40.507
40.415
40.316
40.21
40.099
39.983
39.863
39.74
39.617
39.494
39.373
39.252
39.131
39.011
38.89
38.769
38.645
38.519
38.391
38.261
38.13
37.999
37.867
37.736
37.607
37.481
37.359
37.242
37.132
37.031
36.938
36.857
36.787
36.729
36.683
36.648
36.622
36.604
36.593
36.588
36.588
36.591
36.598
36.606
36.615
36.625
36.634
36.642
36.647
36.649
36.647
36.642
36.633
36.621
36.607
36.591
36.573
36.555
36.536
36.515
36.492
36.466
36.438
36.406
36.371
36.334
36.295
36.254
36.21
36.163
36.109
36.048
35.98
35.906
35.826
35.742
35.653
35.562
35.47
35.377
35.284
35.19
35.098
35.005
34.913
34.823
34.734
34.65
34.571
34.497
34.43
34.369
34.314
34.263
34.215
34.169
34.123
34.078
34.032
33.986
33.941
33.895
33.849
33.803
33.757
33.711
33.665
33.618
33.572
33.526
33.481
33.439
33.4
33.365
33.335
33.308
33.286
33.266
33.25
33.236
33.224
33.213
33.203
33.194
33.185
33.176
33.167
33.158
33.149
33.138
33.125
33.11
33.094
33.078
33.061
33.045
33.032
33.023
33.018
33.015
33.014
33.012
33.008
32.999
32.986
32.967
32.941
32.909
32.87
32.826
32.778
32.727
32.674
32.62
32.565
32.511
32.457
32.405
32.355
32.309
32.268
32.233
32.205
32.188
32.184
32.195
32.224
32.277
32.359
32.475
32.628
32.822
33.058
33.338
33.66
34.02
34.414
34.836
35.277
35.733
36.196
36.659
37.116
37.56
37.984
38.382
38.75
39.084
39.383
39.646
39.872
40.063
40.22
40.346
40.444
40.516
40.565
40.591
40.599
40.589
40.565
40.528
40.48
40.426
40.366
40.301
40.233
40.162
40.087
40.007
39.922
39.833
39.741
39.646
39.548
39.448
39.345
39.24
39.132
39.018
38.897
38.77
38.637
38.501
38.361
38.22
38.079
37.94
37.803
37.67
37.541
37.415
37.295
37.182
37.078
36.981
36.891
36.808
36.733
36.663
36.6
36.543
36.49
36.442
36.399
36.361
36.329
36.304
36.286
36.276
36.274
36.278
36.287
36.297
36.306
36.312
36.315
36.315
36.313
36.308
36.302
36.294
36.285
36.274
36.26
36.243
36.222
36.196
36.167
36.133
36.098
36.06
36.021
35.981
35.937
35.89
35.839
35.783
35.722
35.657
35.587
35.514
35.439
35.362
35.282
35.201
35.117
35.031
34.945
34.859
34.773
34.688
34.604
34.523
34.444
34.368
34.295
34.225
34.158
34.093
34.031
33.969
33.909
33.85
33.793
33.739
33.687
33.638
33.593
33.551
33.511
33.475
33.441
33.409
33.379
33.35
33.322
33.295
33.268
33.242
33.217
33.192
33.168
33.143
33.116
33.088
33.058
33.028
32.999
32.972
32.948
32.927
32.911
32.898
32.887
32.879
32.872
32.865
32.859
32.852
32.845
32.836
32.827
32.817
32.805
32.793
32.778
32.761
32.742
32.722
32.7
32.676
32.652
32.626
32.599
32.569
32.536
32.5
32.46
32.415
32.366
32.311
32.254
32.194
32.134
32.077
32.024
31.975
31.931
31.892
31.859
31.831
31.809
31.795
31.791
31.8
31.826
31.874
31.949
32.055
32.196
32.375
32.597
32.864
33.174
33.526
33.914
34.332
34.775
35.234
35.701
36.169
36.629
37.074
37.5
37.899
38.268
38.603
38.902
39.163
39.387
39.574
39.726
39.844
39.93
39.987
40.018
40.027
40.018
39.993
39.957
39.912
39.859
39.8
39.733
39.66
39.581
39.496
39.405
39.309
39.21
39.108
39.003
38.896
38.787
38.677
38.566
38.453
38.337
38.217
38.094
37.968
37.838
37.706
37.57
37.432
37.29
37.146
37.0
36.853
36.706
36.561
36.42
36.284
36.156
36.037
35.93
35.835
35.753
35.685
35.63
35.588
35.558
35.54
35.533
35.536
35.547
35.565
35.59
35.619
35.651
35.687
35.724
35.761
35.797
35.832
35.864
35.893
35.918
35.94
35.956
35.968
35.976
35.979
35.976
35.969
35.957
35.94
35.918
35.891
35.86
35.823
35.781
35.734
35.68
35.62
35.556
35.489
35.421
35.353
35.287
35.222
35.158
35.094
35.029
34.961
34.891
34.817
34.74
34.659
34.575
34.489
34.402
34.315
34.23
34.149
34.073
34.001
33.933
33.868
33.807
33.749
33.693
33.639
33.587
33.537
33.488
33.44
33.392
33.345
33.299
33.255
33.212
33.174
33.139
33.109
33.084
33.063
33.044
33.028
33.014
33.001
32.989
32.976
32.962
32.947
32.929
32.91
32.89
32.869
32.846
32.824
32.802
32.78
32.759
32.739
32.722
32.708
32.696
32.687
32.679
32.673
32.666
32.659
32.651
32.64
32.626
32.61
32.591
32.569
32.544
32.516
32.486
32.452
32.416
32.378
32.34
32.301
32.262
32.222
32.183
32.144
32.106
32.069
32.034
32.002
31.974
31.953
31.942
31.945
31.966
32.011
32.084
32.191
32.336
32.522
32.75
33.022
33.335
33.687
34.074
34.49
34.929
35.383
35.846
36.309
36.765
37.208
37.63
38.025
38.388
38.717
39.008
39.26
39.476
39.656
39.803
39.92
40.008
40.072
40.113
40.133
40.134
40.119
40.09
40.048
39.997
39.939
39.873
39.801
39.722
39.637
39.546
39.449
39.349
39.246
39.141
39.033
38.924
38.813
38.7
38.586
38.468
38.348
38.224
38.098
37.968
37.836
37.701
37.564
37.425
37.283
37.141
36.997
36.854
36.713
36.574
36.439
36.311
36.192
36.082
35.982
35.895
35.82
35.757
35.705
35.662
35.628
35.604
35.588
35.581
35.583
35.592
35.608
35.629
35.653
35.678
35.702
35.725
35.747
35.77
35.795
35.82
35.841
35.854
35.86
35.859
35.851
35.839
35.822
35.802
35.781
35.757
35.733
35.707
35.679
35.649
35.618
35.583
35.545
35.502
35.455
35.404
35.348
35.289
35.225
35.157
35.086
35.01
34.931
34.848
34.763
34.674
34.584
34.492
34.401
34.311
34.224
34.14
34.059
33.981
33.905
33.832
33.761
33.69
33.619
33.549
33.48
33.413
33.348
33.287
33.232
33.183
33.141
33.105
33.074
33.047
33.022
32.997
32.973
32.949
32.924
32.899
32.873
32.848
32.821
32.794
32.766
32.738
32.711
32.685
32.66
32.636
32.613
32.592
32.572
32.551
32.53
32.508
32.486
32.463
32.441
32.42
32.4
32.383
32.368
32.356
32.345
32.337
32.329
32.321
32.312
32.301
32.29
32.278
32.266
32.254
32.242
32.23
32.216
32.2
32.181
32.161
32.139
32.115
32.09
32.064
32.038
32.011
31.985
31.957
31.929
31.899
31.866
31.83
31.791
31.749
31.705
31.661
31.617
31.574
31.532
31.492
31.454
31.418
31.386
31.36
31.342
31.339
31.353
31.39
31.457
31.558
31.7
31.886
32.119
32.4
32.73
33.106
33.524
33.979
34.466
34.975
35.497
36.023
36.543
37.048
37.532
37.987
38.41
38.797
39.145
39.453
39.722
39.952
40.146
40.304
40.431
40.527
40.597
40.643
40.667
40.673
40.662
40.638
40.602
40.556
40.501
40.437
40.366
40.288
40.203
40.113
40.017
39.917
39.814
39.708
39.599
39.489
39.376
39.261
39.144
39.025
38.905
38.783
38.66
38.537
38.412
38.286
38.158
38.028
37.896
37.762
37.628
37.493
37.36
37.229
37.101
36.977
36.857
36.743
36.636
36.536
36.445
36.362
36.289
36.225
36.171
36.127
36.093
36.069
36.054
36.046
36.044
36.046
36.054
36.067
36.084
36.104
36.128
36.153
36.178
36.201
36.221
36.236
36.245
36.247
36.242
36.231
36.214
36.192
36.165
36.135
36.103
36.069
36.032
35.994
35.953
35.91
35.863
35.812
35.757
35.697
35.632
35.564
35.491
35.415
35.336
35.253
35.167
35.078
34.985
34.89
34.794
34.698
34.602
34.507
34.414
34.324
34.236
34.151
34.069
33.989
33.91
33.834
33.759
33.686
33.615
33.547
33.481
33.417
33.356
33.298
33.242
33.188
33.137
33.089
33.044
33.002
32.963
32.925
32.888
32.85
32.813
32.778
32.743
32.711
32.681
32.653
32.627
32.603
32.581
32.561
32.542
32.525
32.508
32.491
32.473
32.456
32.438
32.419
32.399
32.379
32.357
32.333
32.308
32.282
32.256
32.231
32.207
32.184
32.164
32.146
32.131
32.119
32.11
32.103
32.097
32.092
32.087
32.081
32.073
32.064
32.051
32.035
32.016
31.994
31.969
31.942
31.912
31.879
31.844
31.807
31.769
31.729
31.689
31.649
31.611
31.573
31.534
31.493
31.449
31.401
31.349
31.296
31.242
31.191
31.144
31.102
31.069
31.046
31.036
31.042
31.068
31.118
31.197
31.308
31.457
31.648
31.885
32.171
32.505
32.886
33.311
33.774
34.269
34.786
35.316
35.85
36.38
36.898
37.397
37.869
38.31
38.715
39.081
39.406
39.689
39.93
40.131
40.294
40.422
40.519
40.589
40.634
40.659
40.665
40.654
40.629
40.589
40.537
40.473
40.399
40.318
40.229
40.134
40.033
39.928
39.818
39.705
39.588
39.469
39.348
39.225
39.101
38.976
38.851
38.724
38.597
38.468
38.338
38.206
38.073
37.939
37.807
37.675
37.546
37.418
37.291
37.165
37.039
36.913
36.789
36.666
36.547
36.432
36.325
36.227
36.139
36.064
36.002
35.952
35.911
35.877
35.851
35.832
35.818
35.811
35.808
35.81
35.816
35.825
35.835
35.845
35.854
35.861
35.867
35.872
35.875
35.877
35.879
35.881
35.883
35.884
35.882
35.876
35.865
35.848
35.826
35.799
35.766
35.728
35.684
35.636
35.586
35.535
35.484
35.43
35.372
35.311
35.245
35.173
35.096
35.014
34.927
34.835
34.737
34.635
34.529
34.42
34.311
34.202
34.095
33.991
33.891
33.795
33.704
33.618
33.535
33.457
33.381
33.309
33.241
33.176
33.115
33.058
33.003
32.95
32.899
32.85
32.803
32.758
32.715
32.674
32.636
32.603
32.574
32.549
32.527
32.507
32.488
32.469
32.449
32.429
32.406
32.383
32.358
32.331
32.303
32.273
32.242
32.208
32.172
32.134
32.094
32.053
32.013
31.974
31.939
31.907
31.881
31.86
31.844
31.833
31.825
31.819
31.814
31.808
31.802
31.793
31.783
31.771
31.757
31.741
31.726
31.71
31.694
31.677
31.658
31.639
31.619
31.599
31.58
31.562
31.547
31.532
31.518
31.505
31.49
31.474
31.455
31.433
31.407
31.377
31.342
31.303
