Trial 1:0back
38.051
38.277
38.478
38.653
38.803
38.927
39.027
39.103
39.157
39.189
39.203
39.198
39.178
39.144
39.098
39.042
38.978
38.906
38.829
38.747
38.661
38.573
38.482
38.39
38.297
38.203
38.11
38.016
37.922
37.828
37.736
37.645
37.555
37.467
37.381
37.297
37.215
37.134
37.053
36.972
36.891
36.81
36.727
36.644
36.561
36.477
36.393
36.31
36.229
36.149
36.073
36.0
35.932
35.87
35.813
35.762
35.718
35.68
35.648
35.622
35.602
35.587
35.578
35.573
35.571
35.572
35.576
35.582
35.589
35.597
35.604
35.61
35.616
35.619
35.621
35.619
35.615
35.607
35.595
35.58
35.561
35.539
35.512
35.482
35.449
35.413
35.375
35.335
35.292
35.248
35.202
35.154
35.106
35.057
35.007
34.956
34.905
34.852
34.798
34.742
34.686
34.629
34.571
34.513
34.456
34.399
34.344
34.289
34.236
34.184
34.132
34.081
34.029
33.978
33.925
33.872
33.818
33.763
33.707
33.651
33.595
33.54
33.485
33.432
33.379
33.328
33.279
33.231
33.185
33.141
33.098
33.056
33.016
32.975
32.935
32.894
32.851
32.808
32.765
32.72
32.675
32.63
32.585
32.541
32.496
32.453
32.41
32.37
32.332
32.299
32.272
32.253
32.245
32.252
32.275
32.32
32.388
32.484
32.608
32.764
32.951
33.169
33.416
33.691
33.989
34.307
34.64
34.984
35.334
35.686
36.035
36.378
36.71
37.028
37.329
37.61
37.869
38.104
38.315
38.501
38.661
38.796
38.907
38.994
39.059
39.103
39.127
39.133
39.123
39.097
39.057
39.006
38.944
38.874
38.797
38.713
38.625
38.532
38.437
38.34
38.242
38.143
38.045
37.947
37.85
37.755
37.661
37.569
37.477
37.387
37.297
37.209
37.121
37.034
36.947
36.862
36.777
36.693
36.609
36.525
36.442
36.359
36.278
36.198
36.12
36.045
35.973
35.904
35.839
35.778
35.721
35.668
35.62
35.577
35.539
35.508
35.481
35.46
35.444
35.433
35.426
35.422
35.422
35.424
35.428
35.433
35.438
35.443
35.447
35.449
35.45
35.448
35.443
35.436
35.427
35.414
35.399
35.381
35.36
35.337
35.312
35.284
35.254
35.221
35.187
35.15
35.111
35.07
35.027
34.983
34.937
34.889
34.839
34.789
34.736
34.683
34.629
34.573
34.517
34.46
34.401
34.343
34.284
34.225
34.165
34.105
34.045
33.985
33.925
33.865
33.807
33.749
33.692
33.637
33.583
33.531
33.479
33.429
33.379
33.33
33.281
33.232
33.184
33.136
33.088
33.041
32.994
32.948
32.903
32.859
32.817
32.775
32.735
32.696
32.658
32.62
32.583
32.545
32.507
32.468
32.429
32.39
32.351
32.312
32.275
32.241
32.212
32.19
32.178
32.178
32.195
32.231
32.29
32.376
32.49
32.634
32.809
33.015
33.252
33.515
33.804
34.114
34.441
34.78
35.126
35.475
35.821
36.159
36.486
36.796
37.088
37.359
37.605
37.827
38.022
38.191
38.333
38.449
38.541
38.61
38.657
38.684
38.693
38.686
38.663
38.627
38.578
38.517
38.447
38.369
38.283
38.192
38.096
37.996
37.895
37.792
37.689
37.587
37.487
37.387
37.289
37.193
37.097
37.003
36.909
36.817
36.725
36.633
36.542
36.45
36.358
36.267
36.175
36.084
35.992
35.901
35.811
35.723
35.636
35.552
35.471
35.395
35.323
35.257
35.197
35.144
35.097
35.058
35.025
35.0
34.981
34.968
34.962
34.961
34.965
34.973
34.986
35.002
35.021
35.043
35.065
35.089
35.111
35.133
35.153
35.17
35.183
35.192
35.196
35.196
35.191
35.182
35.168
35.15
35.128
35.102
35.074
35.042
35.007
34.97
34.93
34.888
34.844
34.799
34.752
34.704
34.654
34.604
34.552
34.5
34.447
34.395
34.342
34.29
34.238
34.186
34.133
34.08
34.025
33.97
33.912
33.854
33.794
33.734
33.674
33.614
33.555
33.497
33.441
33.386
33.333
33.281
33.231
33.183
33.137
33.093
33.05
33.009
32.968
32.928
32.888
32.848
32.808
32.769
32.73
32.691
32.652
32.613
32.575
32.536
32.497
32.457
32.416
32.375
32.333
32.292
32.253
32.216
32.182
32.154
32.133
32.123
32.126
32.146
32.186
32.251
32.343
32.465
32.618
32.803
33.019
33.264
33.537
33.833
34.149
34.481
34.823
35.172
35.52
35.864
36.199
36.521
36.827
37.113
37.377
37.618
37.834
38.026
38.192
38.333
38.451
38.545
38.617
38.668
38.7
38.715
38.712
38.694
38.662
38.617
38.559
38.492
38.414
38.329
38.238
38.141
38.041
37.939
37.836
37.733
37.629
37.527
37.425
37.325
37.228
37.131
37.037
36.945
36.854
36.765
36.677
36.59
36.504
36.418
36.333
36.247
36.16
36.073
35.985
35.896
35.806
35.716
35.628
35.541
35.458
35.378
35.303
35.235
35.172
35.117
35.069
35.028
34.994
34.968
34.948
34.935
34.928
34.926
34.929
34.937
34.948
34.962
34.978
34.995
35.013
35.029
35.045
35.058
35.069
35.077
35.082
35.084
35.082
35.077
35.069
35.057
35.041
35.024
35.003
34.98
34.955
34.927
34.896
34.863
34.828
34.79
34.75
34.709
34.666
34.622
34.578
34.532
34.486
34.439
34.39
34.341
34.29
34.238
34.185
34.13
34.075
34.018
33.961
33.903
33.845
33.787
33.73
33.674
33.619
33.566
33.514
33.463
33.413
33.364
33.316
33.268
33.22
33.172
33.124
33.077
33.03
32.984
32.938
32.893
32.849
32.806
32.764
32.724
32.686
32.65
32.616
32.583
32.551
32.521
32.492
32.463
32.434
32.405
32.375
32.344
32.312
32.278
32.243
32.207
32.171
32.135
32.1
32.068
32.039
32.017
32.003
32.002
32.016
32.049
32.105
32.187
32.298
32.44
32.615
32.823
33.063
33.333
33.63
33.952
34.293
34.648
35.013
35.382
35.75
36.112
36.465
36.803
37.123
37.423
37.701
37.954
38.181
38.382
38.557
38.706
38.83
38.931
39.009
39.066
39.102
39.12
39.12
39.104
39.074
39.031
38.977
38.913
38.84
38.759
38.672
38.581
38.485
38.386
38.286
38.185
38.084
37.984
37.885
37.788
37.692
37.597
37.505
37.415
37.327
37.241
37.156
37.073
36.99
36.908
36.826
36.743
36.66
36.576
36.492
36.408
36.325
36.243
36.163
36.086
36.013
35.943
35.878
35.817
35.762
35.711
35.665
35.624
35.588
35.558
35.533
35.512
35.497
35.485
35.477
35.474
35.473
35.475
35.478
35.484
35.49
35.498
35.506
35.514
35.521
35.527
35.531
35.532
35.531
35.527
35.521
35.512
35.5
35.486
35.469
35.45
35.428
35.403
35.376
35.347
35.316
35.282
35.246
35.209
35.168
35.126
35.081
35.034
34.986
34.936
34.885
34.832
34.777
34.721
34.664
34.605
34.545
34.485
34.424
34.363
34.303
34.244
34.187
34.13
34.075
34.022
33.97
33.92
33.871
33.823
33.775
33.728
33.68
33.632
33.585
33.537
33.489
33.442
33.395
33.348
33.302
33.256
33.21
33.165
33.119
33.074
33.029
32.985
32.941
32.899
32.857
32.817
32.777
32.739
32.701
32.663
32.626
32.589
32.553
32.517
32.482
32.449
32.418
32.39
32.368
32.354
32.35
32.361
32.389
32.44
32.515
32.619
32.754
32.921
33.121
33.352
33.614
33.903
34.216
34.549
34.896
35.253
35.615
35.978
36.336
36.685
37.021
37.34
37.639
37.916
38.168
38.393
38.592
38.765
38.911
39.031
39.127
39.2
39.251
39.282
39.294
39.29
39.271
39.238
39.193
39.138
39.073
39.001
38.924
38.841
38.754
38.663
38.569
38.472
38.373
38.272
38.17
38.067
37.964
37.861
37.759
37.657
37.557
37.457
37.358
37.26
37.162
37.066
36.971
36.876
36.783
36.69
36.598
36.507
36.417
36.328
36.24
36.154
36.071
35.991
35.915
35.843
35.776
35.715
35.661
35.612
35.57
35.534
35.505
35.482
35.466
35.455
35.45
35.45
35.454
35.461
35.471
35.482
35.495
35.508
35.521
35.534
35.545
35.556
35.565
35.572
35.577
35.579
35.579
35.576
35.57
35.561
35.55
35.535
35.516
35.494
35.468
35.439
35.406
35.37
35.331
35.288
35.243
35.195
35.145
35.093
35.04
34.986
34.931
34.877
34.822
34.767
34.711
34.656
34.599
34.542
34.485
34.427
34.368
34.31
34.252
34.194
34.137
34.082
34.027
33.973
33.921
33.869
33.817
33.767
33.717
33.669
33.621
33.575
33.529
33.485
33.441
33.398
33.354
33.31
33.266
33.22
33.174
33.128
33.08
33.032
32.984
32.935
32.887
32.839
32.792
32.746
32.701
32.658
32.617
32.577
32.538
32.501
32.465
32.431
32.399
32.37
32.347
32.331
32.326
32.334
32.36
32.408
32.482
32.584
32.718
32.885
33.085
33.319
33.584
33.878
34.198
34.54
34.898
35.268
35.645
36.022
36.394
36.756
37.105
37.436
37.747
38.035
38.298
38.535
38.744
38.927
39.082
39.211
39.314
39.393
39.449
39.484
39.499
39.496
39.479
39.447
39.403
39.348
39.283
39.21
39.131
39.045
38.954
38.858
38.758
38.655
38.548
38.439
38.329
38.218
38.106
37.994
37.882
37.772
37.662
37.554
37.447
37.341
37.237
37.134
37.032
36.931
36.83
36.73
36.631
36.532
36.435
36.34
36.246
36.156
36.07
35.989
35.912
35.842
35.778
35.722
35.672
35.629
35.595
35.567
35.548
35.536
35.531
35.533
35.541
35.553
35.57
35.591
35.614
35.639
35.665
35.691
35.716
35.74
35.762
35.782
35.798
35.812
35.822
35.828
35.83
35.827
35.819
35.807
35.791
35.771
35.747
35.719
35.687
35.652
35.615
35.574
35.532
35.487
35.441
35.392
35.343
35.292
35.24
35.186
35.133
35.079
35.025
34.971
34.917
34.863
34.81
34.756
34.702
34.648
34.594
34.54
34.486
34.431
34.376
34.322
34.267
34.211
34.156
34.101
34.046
33.992
33.939
33.886
33.834
33.783
33.733
33.683
33.634
33.584
33.535
33.485
33.436
33.388
33.34
33.294
33.249
33.205
33.163
33.121
33.079
33.037
32.995
32.951
32.907
32.862
32.819
32.778
32.741
32.712
32.692
32.687
32.699
32.732
32.791
32.88
33.0
33.153
33.341
33.563
33.818
34.105
34.419
34.758
35.116
35.488
35.869
36.254
36.636
37.012
37.377
37.727
38.058
38.369
38.655
38.917
39.152
39.36
39.541
39.696
39.826
39.932
40.013
40.073
40.112
40.131
40.132
40.118
40.088
40.045
39.991
39.926
39.852
39.771
39.684
39.591
39.494
39.393
39.289
39.183
39.076
38.969
38.862
38.755
38.648
38.543
38.438
38.334
38.23
38.126
38.021
37.915
37.808
37.699
37.589
37.479
37.368
37.258
37.148
37.038
36.931
36.825
36.723
36.625
36.532
36.446
36.366
36.295
36.233
36.179
36.133
36.096
36.067
36.044
36.029
36.018
36.013
36.011
36.014
36.02
36.029
36.041
36.054
36.069
36.084
36.099
36.114
36.127
36.138
36.145
36.149
36.148
36.143
36.133
36.118
36.098
36.074
36.046
36.014
35.98
35.943
35.905
35.864
35.822
35.778
35.732
35.685
35.637
35.586
35.534
35.481
35.426
35.369
35.312
35.253
35.194
35.134
35.072
35.01
34.947
34.883
34.818
34.753
34.688
34.623
34.558
34.492
34.427
34.363
34.298
34.234
34.171
34.109
34.048
33.989
33.931
33.875
33.82
33.767
33.714
33.663
33.612
33.561
33.511
33.461
33.411
33.36
33.31
33.258
33.206
33.154
33.1
33.047
32.994
32.941
32.89
32.839
32.791
32.743
32.697
32.653
32.612
32.576
32.546
32.526
32.519
32.528
32.557
32.611
32.692
32.805
32.953
33.135
33.354
33.609
33.897
34.216
34.563
34.932
35.32
35.721
36.129
36.539
36.945
37.342
37.727
38.095
38.445
38.772
39.076
39.354
39.606
39.831
40.03
40.201
40.347
40.468
40.565
40.641
40.695
40.73
40.746
40.747
40.732
40.703
40.663
40.613
40.554
40.486
40.411
40.33
40.244
40.153
40.058
39.959
39.858
39.753
39.647
39.539
39.429
39.319
39.208
39.098
38.989
38.882
38.776
38.672
38.569
38.468
38.368
38.268
38.169
38.069
37.969
37.869
37.769
37.669
37.57
37.472
37.378
37.286
37.198
37.114
37.036
36.963
36.897
36.837
36.783
36.735
36.693
36.656
36.625
36.599
36.578
36.561
36.549
36.541
36.536
36.534
36.534
36.535
36.537
36.539
36.541
36.541
36.539
36.535
36.529
36.52
36.508
36.492
36.472
36.449
36.423
36.393
36.359
36.323
36.283
36.24
36.194
36.146
36.094
36.041
35.985
35.927
35.867
35.805
35.741
35.675
35.608
35.539
35.469
35.398
35.327
35.255
35.183
35.111
35.039
34.966
34.894
34.822
34.748
34.675
34.602
34.528
34.454
34.38
34.306
34.233
34.162
34.093
34.025
33.958
33.893
33.829
33.765
33.702
33.639
33.578
33.516
33.455
33.394
33.334
33.274
33.214
33.155
33.096
33.037
32.98
32.924
32.87
32.817
32.765
32.713
32.664
32.617
32.574
32.536
32.507
32.491
32.49
32.51
32.553
32.624
32.726
32.862
33.032
33.238
33.479
33.753
34.057
34.387
34.74
35.109
35.49
35.876
36.263
36.644
37.016
37.374
37.715
38.035
38.332
38.604
38.851
39.071
39.263
39.429
39.568
39.682
39.772
39.84
39.887
39.915
39.926
39.92
39.901
39.867
39.822
39.765
39.697
39.621
39.536
39.445
39.348
39.247
39.144
39.039
38.932
38.824
38.715
38.605
38.494
38.383
38.272
38.161
38.05
37.939
37.829
37.719
37.61
37.501
37.392
37.284
37.176
37.069
36.963
36.857
36.751
36.647
36.543
36.44
36.34
36.243
36.149
36.06
35.976
35.898
35.826
35.761
35.703
35.653
35.609
35.572
35.54
35.514
35.494
35.478
35.467
35.459
35.455
35.453
35.452
35.452
35.453
35.454
35.455
35.455
35.453
35.45
35.443
35.433
35.419
35.4
35.378
35.351
35.32
35.285
35.246
35.203
35.156
35.106
35.054
35.0
34.945
34.889
34.833
34.775
34.716
34.656
34.596
34.534
34.472
34.41
34.347
34.285
34.222
34.158
34.093
34.026
33.957
33.887
33.815
33.742
33.67
33.597
33.526
33.456
33.387
33.319
33.252
33.186
33.122
33.059
32.997
32.937
32.877
32.819
32.761
32.704
32.648
32.592
32.537
32.483
32.43
32.378
32.327
32.277
32.229
32.181
32.134
32.087
32.041
31.995
31.949
31.903
31.857
31.812
31.768
31.726
31.687
31.655
31.631
31.618
31.62
31.642
31.685
31.755
31.853
31.983
32.145
32.341
32.569
32.827
33.112
33.421
33.749
34.091
34.441
34.795
35.147
35.492
35.826
36.145
36.446
36.727
36.986
37.222
37.434
37.62
37.782
37.919
38.032
38.122
38.19
38.236
38.262
38.269
38.26
38.234
38.195
38.143
38.08
38.007
37.926
37.837
37.743
37.644
37.541
37.436
37.329
37.222
37.115
37.008
36.901
36.795
36.689
36.584
36.478
36.373
36.268
36.164
36.06
35.956
35.852
35.748
35.645
35.542
35.441
35.342
35.245
35.151
35.06
34.972
34.888
34.809
34.734
34.665
34.602
34.545
34.494
34.45
34.411
34.378
34.351
34.329
34.312
34.299
34.291
34.286
34.286
34.288
34.293
34.3
34.309
34.319
34.329
34.339
34.348
34.355
34.361
34.365
34.366
34.365
34.361
34.354
34.344
34.331
34.314
34.294
34.271
34.244
34.214
34.18
34.143
34.103
34.061
34.016
33.969
33.92
33.871
33.821
33.771
33.72
33.669
33.618
33.566
33.513
33.46
33.406
33.351
33.296
33.24
33.183
33.127
33.07
33.013
32.955
32.899
32.842
32.786
32.73
32.676
32.623
32.571
32.521
32.472
32.424
32.377
32.33
32.283
32.237
32.191
32.145
32.1
32.055
32.011
31.966
31.921
31.877
31.834
31.79
31.748
31.706
31.665
31.624
31.585
31.547
31.511
31.478
31.449
31.427
31.414
31.414
31.428
31.462
31.518
31.599
31.708
31.846
32.014
32.211
32.436
32.686
32.958
33.248
33.551
33.863
34.179
34.495
34.805
35.106
35.394
35.665
35.917
36.146
36.352
36.533
36.689
36.819
36.925
37.006
37.064
37.1
37.117
37.116
37.098
37.066
37.021
36.964
36.897
36.823
36.741
36.655
36.563
36.469
36.372
36.273
36.172
36.07
35.968
35.866
35.764
35.662
35.562
35.462
35.363
35.265
35.168
35.072
34.977
34.882
34.788
34.694
34.6
34.508
34.417
34.329
34.243
34.16
34.08
34.004
33.932
33.864
33.8
33.74
33.685
33.635
33.59
33.551
33.519
33.492
33.472
33.458
33.449
33.447
33.45
33.458
33.47
33.486
33.504
33.525
33.546
33.568
33.589
33.609
33.627
33.641
33.652
33.659
33.661
33.66
33.656
33.648
33.637
33.624
33.608
33.59
33.57
33.547
33.522
33.493
33.462
33.428
33.393
33.355
33.317
33.277
33.237
33.197
33.156
33.115
33.073
33.031
32.989
32.945
32.902
32.858
32.813
32.768
32.723
32.678
32.632
32.585
32.538
32.491
32.445
32.398
32.351
32.306
32.26
32.216
32.173
32.131
32.09
32.05
32.011
31.973
31.936
31.899
31.863
31.827
31.792
31.756
31.721
31.685
31.65
31.614
31.578
31.542
31.506
31.47
31.434
31.398
31.363
31.329
31.296
31.265
31.235
31.208
31.185
31.168
31.158
31.159
31.173
31.204
31.255
31.328
31.427
31.552
31.704
31.883
32.088
32.318
32.569
32.838
33.121
33.415
33.714
34.013
34.31
34.599
34.878
35.144
35.394
35.624
35.834
36.022
36.187
36.328
36.445
36.539
36.611
36.661
36.691
36.701
36.695
36.673
36.638
36.591
36.534
36.469
36.396
36.317
36.234
36.148
36.059
35.968
35.877
35.785
35.693
35.603
35.513
35.425
35.34
35.256
35.175
35.096
35.02
34.946
34.874
34.804
34.735
34.667
34.6
34.533
34.466
34.398
34.331
34.264
34.197
34.131
34.066
34.003
33.943
33.886
33.832
33.784
33.74
33.701
33.666
33.637
33.611
33.59
33.572
33.557
33.546
33.537
33.533
33.531
33.533
33.537
33.544
33.551
33.559
33.567
33.574
33.581
33.587
33.593
33.598
33.602
33.607
33.611
33.614
33.616
33.616
33.614
33.609
33.602
33.591
33.578
33.561
33.541
33.519
33.494
33.468
33.439
33.41
33.379
33.346
33.313
33.279
33.243
33.207
33.17
33.133
33.096
33.057
33.019
32.979
32.938
32.896
32.853
32.809
32.763
32.717
32.671
32.625
32.58
32.536
32.493
32.453
32.415
32.379
32.345
32.312
32.282
32.254
32.227
32.201
32.176
32.151
32.126
32.099
32.072
32.043
32.012
31.98
31.947
31.913
31.878
31.843
31.808
31.774
31.741
31.71
31.68
31.653
31.629
31.606
31.586
31.568
31.553
31.542
31.537
31.54
31.554
31.581
31.626
31.69
31.776
31.885
32.02
32.179
32.364
32.571
32.799
33.045
33.305
33.575
33.851
34.128
34.402
34.668
34.925
35.168
35.395
35.604
35.793
35.96
36.106
36.23
36.332
36.413
36.473
36.515
36.539
36.546
36.538
36.517
36.485
36.443
36.392
36.334
36.271
36.203
36.131
36.057
35.98
35.902
35.823
35.743
35.663
35.582
35.501
35.421
35.341
35.262
35.184
35.107
35.032
34.959
34.888
34.82
34.753
34.689
34.626
34.564
34.503
34.443
34.383
34.324
34.266
34.209
34.154
34.101
34.051
34.004
33.96
33.919
33.882
33.849
33.819
33.793
33.77
33.75
33.733
33.719
33.708
33.7
33.696
33.695
33.698
33.704
33.713
33.724
33.737
33.751
33.766
33.782
33.797
33.812
33.825
33.836
33.845
33.852
33.857
33.86
33.86
33.858
33.853
33.846
33.837
33.825
33.812
33.795
33.777
33.757
33.735
33.711
33.685
33.659
33.63
33.6
33.569
33.536
33.503
33.468
33.432
33.396
33.358
33.32
33.281
33.243
33.205
33.168
33.132
33.098
33.064
33.031
32.998
32.965
32.932
32.899
32.866
32.833
32.799
32.765
32.731
32.697
32.664
32.63
32.598
32.566
32.535
32.506
32.479
32.453
32.429
32.406
32.385
32.365
32.347
32.329
32.312
32.294
32.276
32.257
32.237
32.215
32.192
32.167
32.141
32.114
32.087
32.061
32.036
32.014
31.997
31.987
31.985
31.994
32.015
32.052
32.107
32.182
32.279
32.399
32.542
32.708
32.896
33.102
33.325
33.562
33.808
34.061
34.317
34.571
34.821
35.063
35.293
35.509
35.709
35.89
36.052
36.193
36.314
36.414
36.494
36.555
36.597
36.622
36.631
36.625
36.605
36.574
36.531
36.479
36.42
36.354
36.282
36.206
36.126
36.043
35.959
35.874
35.788
35.704
35.62
35.538
35.458
35.38
35.304
35.229
35.156
35.085
35.015
34.946
34.879
34.813
34.749
34.687
34.627
34.568
34.512
34.456
34.403
34.35
34.299
34.249
34.2
34.153
34.108
34.066
34.027
33.991
33.958
33.929
33.903
33.881
33.863
33.85
33.841
33.838
33.841
33.848
33.86
33.876
33.896
33.919
33.943
33.97
33.997
34.023
34.049
34.072
34.093
34.112
34.128
34.141
34.152
34.16
34.165
34.167
34.166
34.162
34.155
34.147
34.135
34.122
34.107
34.09
34.072
34.052
34.03
34.007
33.983
33.958
33.93
33.902
33.872
33.841
33.809
33.775
33.742
33.708
33.675
33.642
33.61
33.579
33.548
33.517
33.488
33.459
33.43
33.403
33.376
33.35
33.324
