Trial 1:0back
32.164
32.125
32.091
32.061
32.035
32.013
31.993
31.974
31.956
31.937
31.917
31.894
31.871
31.848
31.826
31.808
31.798
31.8
31.818
31.856
31.919
32.011
32.137
32.3
32.502
32.745
33.028
33.351
33.711
34.105
34.53
34.98
35.453
35.941
36.44
36.945
37.449
37.947
38.434
38.904
39.352
39.774
40.167
40.529
40.858
41.153
41.414
41.64
41.831
41.988
42.112
42.203
42.263
42.294
42.299
42.279
42.238
42.179
42.104
42.017
41.921
41.817
41.708
41.595
41.477
41.356
41.231
41.104
40.974
40.842
40.708
40.573
40.437
40.302
40.167
40.032
39.897
39.764
39.63
39.497
39.362
39.225
39.085
38.944
38.8
38.654
38.505
38.355
38.206
38.058
37.912
37.768
37.629
37.494
37.364
37.24
37.121
37.01
36.907
36.813
36.73
36.655
36.59
36.532
36.483
36.441
36.405
36.374
36.347
36.324
36.304
36.285
36.268
36.254
36.241
36.229
36.218
36.207
36.197
36.186
36.174
36.162
36.149
36.134
36.117
36.096
36.072
36.043
36.009
35.97
35.926
35.876
35.821
35.762
35.7
35.635
35.568
35.5
35.43
35.36
35.289
35.218
35.146
35.074
35.001
34.929
34.857
34.785
34.713
34.641
34.569
34.495
34.421
34.346
34.271
34.197
34.124
34.051
33.979
33.908
33.838
33.769
33.701
33.634
33.569
33.505
33.442
33.382
33.323
33.267
33.213
33.161
33.111
33.064
33.019
32.977
32.937
32.899
32.863
32.828
32.794
32.761
32.729
32.697
32.664
32.632
32.6
32.566
32.532
32.496
32.46
32.421
32.382
32.343
32.302
32.262
32.221
32.18
32.14
32.101
32.063
32.027
31.993
31.962
31.934
31.908
31.886
31.866
31.85
31.836
31.824
31.813
31.803
31.794
31.785
31.777
31.77
31.767
31.771
31.784
31.812
31.86
31.933
32.036
32.175
32.354
32.578
32.85
33.17
33.538
33.951
34.405
34.895
35.414
35.956
36.514
37.078
37.644
38.202
38.748
39.274
39.777
40.252
40.695
41.103
41.475
41.809
42.103
42.358
42.572
42.748
42.886
42.988
43.056
43.093
43.102
43.085
43.048
42.993
42.924
42.842
42.752
42.655
42.553
42.449
42.343
42.235
42.126
42.016
41.907
41.797
41.687
41.576
41.463
41.347
41.23
41.111
40.993
40.874
40.758
40.642
40.528
40.415
40.302
40.187
40.069
39.948
39.821
39.689
39.551
39.407
39.257
39.103
38.946
38.788
38.631
38.479
38.331
38.19
38.057
37.933
37.818
37.712
37.615
37.527
37.446
37.371
37.302
37.239
37.182
37.129
37.083
37.041
37.004
36.972
36.944
36.919
36.896
36.874
36.853
36.831
36.81
36.787
36.763
36.737
36.708
36.676
36.64
36.6
36.555
36.504
36.449
36.388
36.32
36.247
36.17
36.089
36.006
35.922
35.838
35.753
35.668
35.585
35.504
35.426
35.35
35.277
35.205
35.133
35.061
34.988
34.913
34.837
34.759
34.678
34.595
34.509
34.421
34.333
34.243
34.154
34.065
33.978
33.893
33.811
33.731
33.653
33.578
33.505
33.436
33.369
33.305
33.244
33.186
33.13
33.076
33.025
32.975
32.927
32.88
32.835
32.792
32.75
32.711
32.673
32.636
32.601
32.566
32.532
32.498
32.463
32.427
32.389
32.349
32.307
32.264
32.22
32.175
32.13
32.088
32.05
32.015
31.984
31.957
31.935
31.916
31.902
31.889
31.877
31.865
31.85
31.832
31.81
31.785
31.755
31.721
31.685
31.646
31.606
31.567
31.53
31.497
31.471
31.455
31.453
31.467
31.502
31.561
31.649
31.768
31.923
32.116
32.349
32.622
32.936
33.289
33.679
34.106
34.564
35.05
35.56
36.087
36.628
37.175
37.723
38.267
38.801
39.32
39.818
40.288
40.726
41.128
41.492
41.815
42.097
42.337
42.536
42.695
42.817
42.903
42.957
42.981
42.979
42.954
42.91
42.849
42.775
42.69
42.596
42.494
42.384
42.269
42.147
42.019
41.887
41.752
41.616
41.479
41.344
41.211
41.082
40.958
40.84
40.727
40.618
40.513
40.41
40.306
40.201
40.093
39.982
39.866
39.746
39.62
39.488
39.351
39.208
39.062
38.912
38.761
38.609
38.457
38.306
38.159
38.016
37.878
37.748
37.625
37.51
37.403
37.306
37.217
37.136
37.063
36.998
36.938
36.883
36.832
36.786
36.743
36.703
36.666
36.631
36.597
36.565
36.534
36.503
36.473
36.443
36.413
36.382
36.349
36.314
36.275
36.231
36.182
36.128
36.069
36.005
35.938
35.869
35.798
35.726
35.654
35.584
35.516
35.45
35.387
35.326
35.264
35.203
35.141
35.076
35.01
34.939
34.866
34.787
34.705
34.62
34.531
34.442
34.351
34.261
34.172
34.087
34.005
33.927
33.856
33.789
33.727
33.67
33.615
33.561
33.508
33.453
33.397
33.338
33.276
33.21
33.14
33.067
32.993
32.918
32.844
32.772
32.702
32.636
32.574
32.517
32.466
32.421
32.381
32.345
32.312
32.282
32.251
32.221
32.189
32.156
32.121
32.084
32.046
32.007
31.968
31.931
31.894
31.86
31.829
31.801
31.777
31.756
31.737
31.721
31.705
31.69
31.675
31.658
31.64
31.619
31.597
31.572
31.546
31.518
31.489
31.459
31.429
31.398
31.367
31.338
31.311
31.289
31.273
31.265
31.27
31.289
31.327
31.386
31.472
31.589
31.739
31.926
32.152
32.42
32.731
33.085
33.48
33.914
34.382
34.881
35.403
35.941
36.489
37.037
37.58
38.108
38.617
39.101
39.555
39.976
40.362
40.71
41.019
41.288
41.517
41.707
41.858
41.972
42.053
42.103
42.124
42.12
42.093
42.046
41.98
41.898
41.801
41.693
41.574
41.447
41.313
41.174
41.033
40.891
40.751
40.613
40.479
40.35
40.227
40.107
39.992
39.879
39.766
39.652
39.536
39.416
39.292
39.163
39.03
38.893
38.754
38.613
38.47
38.326
38.18
38.034
37.887
37.741
37.597
37.455
37.317
37.184
37.057
36.937
36.825
36.719
36.622
36.532
36.45
36.375
36.309
36.249
36.197
36.15
36.109
36.073
36.04
36.012
35.987
35.965
35.944
35.925
35.907
35.889
35.872
35.853
35.832
35.809
35.784
35.756
35.725
35.69
35.652
35.611
35.566
35.518
35.467
35.414
35.358
35.3
35.24
35.179
35.116
35.051
34.985
34.918
34.849
34.778
34.705
34.63
34.553
34.475
34.395
34.313
34.229
34.143
34.055
33.966
33.876
33.786
33.698
33.611
33.526
33.444
33.366
33.289
33.215
33.142
33.07
32.998
32.926
32.854
32.783
32.713
32.643
32.575
32.509
32.446
32.385
32.328
32.274
32.224
32.177
32.132
32.09
32.05
32.011
31.973
31.934
31.895
31.854
31.813
31.771
31.727
31.683
31.638
31.592
31.545
31.5
31.456
31.414
31.374
31.336
31.303
31.273
31.247
31.224
31.206
31.19
31.176
31.163
31.148
31.132
31.112
31.087
31.058
31.024
30.986
30.944
30.899
30.854
30.811
30.773
30.743
30.724
30.72
30.733
30.768
30.828
30.916
31.036
31.189
31.378
31.606
31.872
32.179
32.524
32.905
33.321
33.766
34.235
34.725
35.228
35.738
36.249
36.755
37.249
37.727
38.182
38.611
39.011
39.379
39.712
40.008
40.267
40.488
40.671
40.819
40.932
41.011
41.059
41.079
41.072
41.042
40.994
40.93
40.853
40.766
40.672
40.572
40.467
40.359
40.247
40.133
40.017
39.899
39.78
39.659
39.538
39.415
39.293
39.171
39.05
38.931
38.814
38.698
38.584
38.469
38.354
38.236
38.116
37.992
37.864
37.731
37.592
37.45
37.303
37.155
37.005
36.855
36.709
36.566
36.428
36.296
36.172
36.056
35.949
35.851
35.763
35.685
35.616
35.557
35.504
35.456
35.412
35.371
35.333
35.295
35.259
35.222
35.186
35.151
35.118
35.089
35.062
35.038
35.016
34.995
34.975
34.954
34.932
34.908
34.88
34.847
34.809
34.763
34.712
34.654
34.591
34.522
34.448
34.371
34.292
34.212
34.132
34.053
33.975
33.9
33.829
33.761
33.697
33.636
33.578
33.523
33.468
33.413
33.356
33.296
33.233
33.166
33.095
33.02
32.942
32.86
32.778
32.695
32.614
32.535
32.46
32.389
32.322
32.259
32.201
32.145
32.09
32.037
31.985
31.934
31.884
31.834
31.784
31.733
31.681
31.628
31.574
31.52
31.464
31.408
31.352
31.296
31.241
31.188
31.137
31.089
31.045
31.005
30.968
30.935
30.906
30.881
30.859
30.839
30.821
30.805
30.79
30.775
30.761
30.746
30.732
30.718
30.704
30.691
30.679
30.668
30.657
30.646
30.635
30.623
30.61
30.596
30.58
30.563
30.545
30.525
30.504
30.481
30.454
30.425
30.393
30.358
30.323
30.293
30.271
30.262
30.268
30.29
30.33
30.388
30.467
30.568
30.695
30.85
31.037
31.257
31.512
31.803
32.129
32.489
32.881
33.304
33.752
34.22
34.705
35.2
35.699
36.196
36.688
37.168
37.63
38.071
38.487
38.873
39.227
39.545
39.819
40.046
40.228
40.371
40.477
40.547
40.583
40.594
40.583
40.55
40.496
40.429
40.355
40.277
40.203
40.137
40.085
40.046
40.016
39.989
39.962
39.93
39.889
39.836
39.769
39.688
39.595
39.489
39.372
39.246
39.115
38.981
38.846
38.713
38.581
38.452
38.325
38.2
38.074
37.948
37.82
37.689
37.555
37.418
37.277
37.133
36.988
36.842
36.699
36.559
36.424
36.296
36.176
36.064
35.96
35.866
35.779
35.701
35.63
35.566
35.508
35.455
35.405
35.358
35.314
35.271
35.231
35.193
35.157
35.123
35.09
35.061
35.033
35.008
34.987
34.973
34.967
34.965
34.964
34.961
34.952
34.935
34.907
34.867
34.814
34.748
34.671
34.584
34.489
34.39
34.288
34.186
34.086
33.991
33.9
33.816
33.738
33.666
33.6
33.54
33.484
33.432
33.381
33.33
33.279
33.225
33.168
33.108
33.044
32.977
32.908
32.837
32.764
32.691
32.618
32.546
32.474
32.404
32.334
32.264
32.194
32.124
32.054
31.985
31.918
31.852
31.789
31.729
31.672
31.619
31.57
31.525
31.485
31.448
31.415
31.386
31.36
31.336
31.314
31.293
31.272
31.249
31.223
31.195
31.162
31.126
31.086
31.042
30.995
30.945
30.893
30.841
30.788
30.736
30.688
30.643
30.602
30.566
30.537
30.514
30.499
30.491
30.49
30.495
30.504
30.517
30.532
30.546
30.559
30.568
30.572
30.571
30.565
30.554
30.538
30.518
30.494
30.467
30.437
30.405
30.372
30.34
30.309
30.281
30.254
30.23
30.209
30.191
30.176
30.162
30.149
30.137
30.125
30.113
30.102
30.093
30.086
30.084
30.088
30.101
30.127
30.169
30.231
30.319
30.436
30.588
30.777
31.007
31.278
31.592
31.948
32.344
32.775
33.238
33.725
34.233
34.753
35.279
35.804
36.323
36.831
37.323
37.795
38.242
38.662
39.052
39.41
39.734
40.023
40.276
40.493
40.673
40.817
40.927
41.006
41.055
41.079
41.079
41.061
41.026
40.979
40.921
40.855
40.783
40.707
40.627
40.545
40.462
40.378
40.292
40.206
40.12
40.032
39.943
39.852
39.759
39.663
39.564
39.462
39.357
39.249
39.139
39.028
38.915
38.801
38.686
38.57
38.452
38.333
38.211
38.086
37.957
37.824
37.687
37.549
37.41
37.273
37.138
37.007
36.882
36.763
36.651
36.548
36.453
36.367
36.289
36.22
36.157
36.102
36.052
36.007
35.965
35.926
35.888
35.852
35.816
35.78
35.745
35.711
35.677
35.645
35.613
35.582
35.551
35.518
35.484
35.449
35.41
35.368
35.323
35.273
35.22
35.162
35.101
35.036
34.97
34.902
34.834
34.765
34.696
34.629
34.563
34.5
34.437
34.375
34.313
34.251
34.188
34.124
34.06
33.994
33.927
33.859
33.789
33.718
33.646
33.574
33.501
33.428
33.356
33.286
33.22
33.156
33.098
33.043
32.993
32.945
32.901
32.857
32.815
32.772
32.728
32.682
32.634
32.584
32.53
32.474
32.416
32.355
32.293
32.229
32.165
32.102
32.04
31.981
31.924
31.872
31.824
31.781
31.742
31.708
31.677
31.649
31.624
31.601
31.581
31.563
31.546
31.531
31.517
31.503
31.489
31.475
31.46
31.445
31.429
31.413
31.395
31.376
31.358
31.339
31.321
31.304
31.287
31.271
31.255
31.24
31.227
31.213
31.2
31.187
31.174
31.16
31.146
31.132
31.117
31.102
31.087
31.073
31.059
31.047
31.036
31.027
31.019
31.011
31.004
30.995
30.985
30.972
30.957
30.939
30.917
30.891
30.861
30.829
30.796
30.762
30.731
30.703
30.682
30.673
30.678
30.703
30.751
30.826
30.932
31.073
31.252
31.469
31.726
32.023
32.358
32.729
33.134
33.569
34.029
34.509
35.002
35.503
36.008
36.51
37.006
37.489
37.958
38.407
38.833
39.231
39.599
39.934
40.234
40.499
40.728
40.92
41.077
41.198
41.287
41.344
41.373
41.376
41.357
41.317
41.26
41.189
41.104
41.009
40.906
40.796
40.683
40.569
40.454
40.341
40.228
40.117
40.008
39.899
39.791
39.682
39.573
39.463
39.353
39.243
39.133
39.024
38.915
38.806
38.696
38.583
38.468
38.348
38.223
38.093
37.957
37.816
37.669
37.519
37.365
37.21
37.057
36.908
36.767
36.634
36.514
36.408
36.315
36.237
36.172
36.119
36.077
36.043
36.015
35.991
35.969
35.947
35.925
35.901
35.875
35.846
35.816
35.786
35.757
35.729
35.704
35.682
35.663
35.646
35.632
35.618
35.604
35.588
35.568
35.545
35.516
35.482
35.443
35.398
35.348
35.294
35.236
35.176
35.113
35.05
34.986
34.923
34.86
34.798
34.737
34.676
34.616
34.556
34.495
34.433
34.37
34.305
34.238
34.169
34.098
34.026
33.952
33.878
33.804
33.73
33.657
33.586
33.517
33.451
33.388
33.327
33.269
33.213
33.157
33.102
33.047
32.992
32.936
32.879
32.82
32.759
32.697
32.632
32.567
32.502
32.438
32.375
32.314
32.257
32.205
32.157
32.114
32.077
32.046
32.02
32.0
31.985
31.974
31.965
31.957
31.949
31.939
31.927
31.912
31.894
31.871
31.845
31.817
31.786
31.754
31.722
31.69
31.659
31.63
31.604
31.581
31.56
31.543
31.527
31.512
31.497
31.481
31.464
31.445
31.424
31.403
31.381
31.357
31.334
31.311
31.288
31.268
31.251
31.238
31.23
31.231
31.242
31.266
31.307
31.367
31.45
31.559
31.696
31.865
32.069
32.308
32.584
32.895
33.24
33.618
34.026
34.461
34.919
35.395
35.884
36.381
36.879
37.373
37.856
38.322
38.766
39.182
39.567
39.918
40.233
40.511
40.752
40.956
41.124
41.257
41.357
41.426
41.468
41.484
41.479
41.455
41.415
41.362
41.298
41.225
41.144
41.057
40.965
40.867
40.765
40.658
40.548
40.434
40.319
40.202
40.087
39.974
39.863
39.757
39.654
39.552
39.452
39.35
39.248
39.142
39.033
38.919
38.8
38.676
38.547
38.414
38.277
38.138
37.997
37.858
37.72
37.584
37.452
37.323
37.199
37.078
36.962
36.85
36.743
36.642
36.546
36.456
36.373
36.297
36.228
36.167
36.114
36.068
36.029
35.996
35.968
35.944
35.923
35.904
35.887
35.872
35.856
35.84
35.822
35.803
35.782
35.76
35.736
35.71
35.681
35.649
35.616
35.579
35.541
35.499
35.454
35.406
35.354
35.298
35.24
35.179
35.116
35.051
34.985
34.918
34.849
34.78
34.711
34.642
34.574
34.505
34.437
34.369
34.3
34.231
34.161
34.091
34.021
33.95
33.878
33.807
33.734
33.661
33.587
33.513
33.438
33.364
33.29
33.217
33.145
33.074
33.005
32.938
32.873
32.81
32.749
32.691
32.636
32.584
32.537
32.493
32.453
32.415
32.38
32.348
32.317
32.286
32.256
32.227
32.196
32.163
32.129
32.093
32.055
32.015
31.974
31.933
31.893
31.855
31.82
31.787
31.758
31.732
31.711
31.694
31.682
31.672
31.666
31.662
31.658
31.654
31.648
31.639
31.627
31.611
31.592
31.569
31.543
31.514
31.485
31.454
31.423
31.393
31.365
31.338
31.313
31.291
31.272
31.255
31.24
31.227
31.215
31.203
31.192
31.179
31.164
31.148
31.129
31.109
31.088
31.067
31.048
31.034
31.029
31.036
31.061
31.107
31.179
31.282
31.419
31.593
31.807
32.062
32.358
32.695
33.07
33.482
33.927
34.401
34.9
35.417
35.946
36.483
37.021
37.553
38.075
38.579
39.062
39.518
39.943
40.335
40.692
41.012
41.294
41.537
41.742
41.91
42.042
42.14
42.206
42.244
42.256
42.247
42.22
42.179
42.124
42.06
41.987
41.907
41.822
41.732
41.637
41.539
41.437
41.332
41.226
41.118
41.009
40.902
40.796
40.693
40.594
40.496
40.4
40.304
40.208
40.111
40.012
39.911
39.806
39.699
39.587
39.47
39.347
39.219
39.086
38.947
38.804
38.659
38.511
38.362
38.216
38.074
37.937
37.808
37.687
37.575
37.473
37.38
37.296
37.221
37.152
37.088
37.03
36.975
36.924
36.875
36.829
36.784
36.741
36.701
36.663
36.628
36.596
36.566
36.54
36.515
36.492
36.468
36.443
36.417
36.387
36.354
36.315
36.272
36.223
36.17
36.112
36.051
35.987
35.921
35.852
35.783
35.714
35.644
35.575
35.506
35.437
35.367
35.296
35.222
35.147
35.068
34.987
34.902
34.816
34.729
34.641
34.554
34.469
34.387
34.309
34.233
34.162
34.094
34.029
33.967
33.906
33.847
33.786
33.725
33.661
33.595
33.525
33.453
33.379
33.304
33.23
33.158
33.088
33.022
32.96
32.902
32.848
32.798
32.752
32.709
32.67
32.634
32.601
32.572
32.544
32.517
32.491
32.464
32.436
32.406
32.373
32.337
32.296
32.252
32.206
32.158
32.11
32.062
32.015
31.971
31.93
31.892
31.859
31.831
31.808
31.789
31.774
31.762
31.754
31.748
31.742
31.737
31.731
31.724
31.714
31.701
31.687
31.669
31.65
31.628
31.604
31.581
31.558
31.538
31.519
31.503
31.488
31.474
31.461
31.446
31.43
31.412
31.39
31.365
31.337
31.307
31.276
31.243
31.21
31.178
31.148
31.121
31.097
31.078
31.065
31.059
31.061
31.074
31.1
31.141
31.202
31.285
31.396
31.537
31.712
31.924
32.175
32.467
32.799
33.173
33.586
34.036
34.519
35.031
35.566
36.118
36.679
37.244
37.805
38.355
38.886
39.392
39.868
40.309
40.714
41.08
41.406
41.691
41.936
42.141
42.31
42.442
42.542
42.612
42.656
42.676
42.676
42.657
42.622
42.573
42.51
42.435
42.349
42.253
42.15
42.04
41.928
41.814
41.7
41.586
41.472
41.359
41.246
41.134
41.024
40.916
40.81
40.706
40.604
40.503
40.401
40.298
40.193
40.083
39.969
39.849
39.723
39.591
39.454
39.311
39.166
39.02
38.874
38.731
38.592
38.456
38.326
38.201
38.08
37.965
37.855
37.751
37.652
37.559
37.471
37.388
37.311
37.24
37.177
37.122
37.075
37.037
37.007
36.985
36.968
36.955
36.945
36.935
36.925
36.913
36.898
36.879
36.857
36.831
36.801
36.767
36.731
36.693
36.653
36.613
36.57
36.526
36.479
36.429
36.375
36.318
36.256
36.189
36.117
36.041
35.96
35.876
35.79
35.702
35.613
35.525
35.438
35.352
35.269
35.189
35.113
35.041
34.972
34.905
34.841
34.778
34.714
34.648
34.58
34.509
34.433
34.354
34.273
34.191
34.108
34.026
33.946
33.868
33.793
33.723
33.656
33.595
33.538
33.484
33.434
33.386
33.339
33.293
33.246
33.199
33.151
33.101
33.049
32.997
32.942
32.887
32.83
32.774
32.719
32.668
32.619
32.576
32.537
32.504
32.477
32.454
32.437
32.422
32.41
32.398
32.386
32.372
32.356
32.336
32.312
32.285
32.254
32.219
32.182
32.144
32.106
32.07
32.037
32.007
31.981
31.958
31.94
31.926
31.915
31.909
31.905
31.902
31.899
31.895
31.889
31.88
31.866
31.846
31.82
31.787
31.749
31.707
31.663
31.617
31.572
31.527
31.487
31.451
31.421
31.398
31.383
31.379
31.387
31.409
31.449
31.509
31.593
31.705
31.849
32.027
32.241
32.493
32.785
33.116
33.485
33.891
34.33
34.798
35.292
35.804
36.33
36.862
37.395
37.923
38.439
38.937
39.411
39.856
40.267
40.642
40.977
41.272
41.526
41.741
41.918
42.06
42.17
42.249
42.302
42.329
42.334
42.318
42.284
42.233
42.168
42.09
42.001
41.901
41.792
41.677
41.555
41.429
41.3
41.17
41.039
40.909
40.781
40.654
40.528
40.405
40.285
40.167
40.05
39.934
39.816
39.695
39.569
39.437
39.299
39.154
39.005
38.851
38.695
38.539
38.385
38.235
38.091
37.952
37.82
37.693
37.573
37.459
37.352
37.251
37.158
37.072
36.993
36.921
36.856
36.798
36.747
36.703
36.666
36.635
36.609
36.587
36.569
36.555
36.542
36.53
36.519
36.508
36.495
36.48
36.463
36.443
36.42
36.393
36.364
36.331
36.297
36.261
36.223
36.182
36.14
36.096
36.049
35.999
35.947
35.892
35.834
35.771
35.704
35.631
35.553
35.472
35.387
35.3
35.213
35.125
35.04
34.956
34.875
34.797
34.723
34.652
34.583
34.517
34.451
34.387
34.322
34.256
34.19
34.122
34.053
33.984
33.913
33.841
33.767
33.694
33.621
33.549
33.478
33.409
33.342
33.279
33.218
33.161
33.108
33.057
33.009
32.964
32.92
32.879
32.838
32.798
32.758
32.717
32.675
