Trial 1:0back
33.671
33.614
33.565
33.524
33.489
33.46
33.435
33.413
33.392
33.37
33.346
33.321
33.295
33.269
33.242
33.216
33.191
33.167
33.143
33.117
33.09
33.061
33.029
32.996
32.961
32.926
32.892
32.861
32.833
32.81
32.794
32.786
32.788
32.801
32.826
32.862
32.912
32.974
33.05
33.141
33.246
33.367
33.505
33.659
33.832
34.026
34.244
34.489
34.765
35.072
35.41
35.773
36.155
36.548
36.943
37.327
37.691
38.024
38.319
38.567
38.766
38.913
39.009
39.057
39.061
39.025
38.955
38.856
38.734
38.594
38.442
38.285
38.127
37.972
37.824
37.683
37.551
37.429
37.317
37.213
37.119
37.032
36.951
36.875
36.801
36.729
36.658
36.588
36.519
36.45
36.38
36.309
36.237
36.165
36.092
36.018
35.944
35.87
35.797
35.725
35.655
35.589
35.529
35.476
35.43
35.391
35.357
35.329
35.305
35.285
35.269
35.257
35.247
35.239
35.232
35.224
35.216
35.207
35.197
35.187
35.177
35.167
35.157
35.147
35.136
35.124
35.111
35.096
35.078
35.057
35.033
35.007
34.981
34.954
34.926
34.896
34.864
34.831
34.798
34.766
34.734
34.703
34.672
34.642
34.612
34.58
34.547
34.513
34.477
34.438
34.396
34.351
34.303
34.254
34.204
34.156
34.109
34.066
34.026
33.988
33.953
33.919
33.886
33.853
33.82
33.785
33.751
33.717
33.683
33.65
33.618
33.587
33.558
33.531
33.503
33.475
33.446
33.417
33.387
33.356
33.325
33.294
33.265
33.237
33.211
33.187
33.163
33.14
33.118
33.095
33.071
33.048
33.025
33.003
32.982
32.963
32.946
32.934
32.927
32.927
32.934
32.95
32.976
33.013
33.062
33.124
33.198
33.286
33.389
33.508
33.645
33.802
33.98
34.179
34.4
34.645
34.915
35.208
35.524
35.858
36.205
36.557
36.907
37.245
37.564
37.856
38.115
38.336
38.514
38.649
38.74
38.787
38.796
38.768
38.708
38.619
38.508
38.377
38.234
38.083
37.93
37.778
37.632
37.496
37.369
37.253
37.148
37.053
36.968
36.89
36.819
36.752
36.688
36.626
36.562
36.497
36.429
36.359
36.286
36.21
36.132
36.054
35.975
35.897
35.821
35.749
35.681
35.618
35.561
35.51
35.465
35.426
35.392
35.365
35.343
35.325
35.309
35.298
35.29
35.287
35.287
35.287
35.287
35.286
35.282
35.275
35.265
35.253
35.239
35.223
35.205
35.184
35.162
35.139
35.115
35.092
35.069
35.047
35.025
35.003
34.979
34.953
34.926
34.898
34.869
34.84
34.811
34.782
34.753
34.724
34.693
34.662
34.629
34.594
34.557
34.519
34.479
34.439
34.399
34.358
34.316
34.274
34.232
34.192
34.155
34.119
34.085
34.054
34.024
33.993
33.963
33.932
33.9
33.868
33.835
33.8
33.764
33.726
33.688
33.649
33.611
33.573
33.537
33.503
33.47
33.439
33.409
33.381
33.353
33.326
33.298
33.271
33.246
33.224
33.204
33.185
33.166
33.147
33.127
33.107
33.085
33.063
33.041
33.02
33.001
32.985
32.975
32.971
32.979
32.999
33.032
33.081
33.146
33.228
33.325
33.44
33.572
33.723
33.892
34.08
34.288
34.516
34.767
35.041
35.338
35.658
35.995
36.346
36.703
37.058
37.401
37.725
38.021
38.284
38.506
38.685
38.818
38.905
38.949
38.952
38.92
38.857
38.769
38.66
38.537
38.401
38.258
38.111
37.962
37.815
37.672
37.535
37.406
37.285
37.174
37.072
36.978
36.893
36.814
36.741
36.672
36.605
36.54
36.474
36.406
36.335
36.26
36.179
36.094
36.005
35.915
35.826
35.739
35.657
35.582
35.514
35.454
35.402
35.358
35.323
35.294
35.271
35.253
35.24
35.231
35.224
35.221
35.22
35.223
35.229
35.239
35.25
35.263
35.275
35.283
35.287
35.286
35.279
35.268
35.252
35.232
35.208
35.181
35.153
35.125
35.098
35.072
35.049
35.027
35.007
34.987
34.966
34.943
34.917
34.888
34.855
34.818
34.779
34.74
34.701
34.662
34.626
34.59
34.556
34.522
34.489
34.456
34.424
34.393
34.363
34.333
34.301
34.268
34.235
34.202
34.17
34.138
34.109
34.08
34.054
34.029
34.006
33.985
33.964
33.943
33.921
33.898
33.873
33.846
33.817
33.787
33.755
33.723
33.69
33.656
33.621
33.585
33.548
33.511
33.473
33.433
33.393
33.352
33.312
33.273
33.237
33.202
33.171
33.143
33.12
33.103
33.094
33.093
33.104
33.125
33.159
33.204
33.265
33.34
33.432
33.539
33.662
33.801
33.958
34.135
34.334
34.559
34.815
35.104
35.425
35.775
36.146
36.531
36.921
37.303
37.668
38.006
38.307
38.566
38.776
38.934
39.04
39.095
39.102
39.065
38.989
38.878
38.74
38.581
38.41
38.231
38.05
37.873
37.704
37.546
37.4
37.267
37.146
37.036
36.935
36.843
36.757
36.675
36.595
36.517
36.439
36.361
36.282
36.204
36.126
36.048
35.968
35.887
35.806
35.725
35.644
35.564
35.485
35.41
35.34
35.275
35.216
35.164
35.121
35.086
35.059
35.038
35.022
35.009
35.0
34.992
34.985
34.979
34.972
34.965
34.958
34.952
34.947
34.944
34.944
34.945
34.946
34.948
34.948
34.948
34.944
34.938
34.928
34.914
34.898
34.879
34.858
34.837
34.816
34.797
34.779
34.762
34.745
34.727
34.707
34.682
34.653
34.619
34.58
34.537
34.492
34.446
34.402
34.36
34.323
34.291
34.262
34.237
34.216
34.196
34.175
34.153
34.127
34.098
34.065
34.03
33.992
33.952
33.912
33.872
33.833
33.794
33.755
33.715
33.675
33.633
33.592
33.55
33.51
33.473
33.437
33.403
33.371
33.341
33.312
33.285
33.257
33.228
33.197
33.165
33.131
33.095
33.06
33.027
32.997
32.971
32.95
32.935
32.926
32.925
32.931
32.945
32.967
32.998
33.039
33.092
33.156
33.234
33.326
33.433
33.554
33.688
33.835
33.995
34.167
34.35
34.545
34.751
34.969
35.2
35.444
35.7
35.97
36.251
36.537
36.821
37.096
37.354
37.59
37.799
37.976
38.12
38.227
38.299
38.336
38.34
38.313
38.259
38.182
38.087
37.977
37.857
37.729
37.599
37.468
37.34
37.216
37.098
36.985
36.878
36.775
36.677
36.583
36.493
36.407
36.324
36.243
36.164
36.087
36.012
35.939
35.868
35.799
35.732
35.667
35.604
35.543
35.485
35.43
35.381
35.336
35.298
35.266
35.24
35.219
35.203
35.191
35.182
35.177
35.173
35.17
35.168
35.166
35.166
35.166
35.166
35.165
35.164
35.162
35.16
35.157
35.153
35.149
35.145
35.145
35.148
35.153
35.159
35.165
35.169
35.171
35.169
35.16
35.143
35.117
35.084
35.044
34.996
34.944
34.888
34.83
34.771
34.712
34.655
34.598
34.544
34.492
34.441
34.394
34.349
34.309
34.271
34.235
34.203
34.173
34.146
34.119
34.093
34.067
34.04
34.009
33.975
33.936
33.893
33.847
33.801
33.753
33.706
33.659
33.613
33.568
33.524
33.48
33.437
33.395
33.354
33.314
33.276
33.238
33.204
33.172
33.144
33.12
33.099
33.084
33.072
33.063
33.057
33.056
33.061
33.075
33.099
33.135
33.186
33.253
33.337
33.44
33.565
33.724
33.919
34.148
34.408
34.692
34.995
35.316
35.652
35.999
36.355
36.715
37.074
37.427
37.767
38.087
38.38
38.643
38.87
39.059
39.207
39.314
39.38
39.407
39.398
39.355
39.284
39.189
39.076
38.947
38.805
38.654
38.497
38.339
38.183
38.03
37.884
37.746
37.617
37.498
37.387
37.283
37.185
37.092
37.002
36.912
36.824
36.735
36.646
36.557
36.467
36.377
36.288
36.199
36.111
36.026
35.943
35.864
35.789
35.719
35.652
35.589
35.53
35.475
35.423
35.377
35.335
35.3
35.269
35.243
35.22
35.196
35.173
35.151
35.13
35.109
35.091
35.076
35.063
35.053
35.046
35.042
35.042
35.044
35.049
35.054
35.057
35.059
35.058
35.055
35.048
35.036
35.021
35.002
34.98
34.954
34.926
34.896
34.863
34.829
34.792
34.753
34.713
34.673
34.633
34.593
34.553
34.513
34.475
34.437
34.4
34.365
34.333
34.303
34.275
34.247
34.218
34.188
34.156
34.123
34.088
34.051
34.014
33.976
33.939
33.903
33.869
33.838
33.809
33.782
33.756
33.73
33.705
33.679
33.652
33.624
33.595
33.564
33.534
33.504
33.478
33.457
33.44
33.428
33.418
33.41
33.405
33.402
33.402
33.404
33.41
33.422
33.44
33.467
33.506
33.559
33.629
33.719
33.832
33.971
34.139
34.342
34.584
34.869
35.198
35.568
35.975
36.411
36.867
37.332
37.794
38.241
38.663
39.051
39.396
39.692
39.936
40.125
40.262
40.347
40.385
40.379
40.334
40.256
40.152
40.025
39.881
39.724
39.559
39.39
39.22
39.052
38.888
38.731
38.582
38.442
38.311
38.19
38.079
37.975
37.877
37.785
37.696
37.609
37.522
37.434
37.342
37.246
37.145
37.038
36.927
36.813
36.697
36.581
36.467
36.355
36.246
36.143
36.048
35.964
35.89
35.827
35.775
35.733
35.699
35.673
35.652
35.634
35.621
35.61
35.601
35.595
35.591
35.588
35.587
35.585
35.581
35.574
35.563
35.549
35.531
35.51
35.486
35.46
35.432
35.402
35.37
35.337
35.305
35.273
35.242
35.212
35.183
35.157
35.132
35.11
35.088
35.066
35.044
35.022
34.998
34.973
34.947
34.92
34.891
34.86
34.827
34.792
34.755
34.716
34.676
34.634
34.589
34.542
34.494
34.445
34.396
34.348
34.301
34.256
34.212
34.171
34.133
34.098
34.066
34.038
34.011
33.985
33.959
33.932
33.903
33.872
33.838
33.802
33.764
33.722
33.679
33.633
33.587
33.541
33.495
33.451
33.408
33.368
33.333
33.305
33.286
33.277
33.279
33.294
33.32
33.361
33.418
33.493
33.59
33.71
33.857
34.034
34.247
34.502
34.804
35.156
35.557
36.001
36.48
36.983
37.495
38.002
38.492
38.95
39.365
39.729
40.036
40.281
40.464
40.586
40.65
40.661
40.626
40.55
40.443
40.309
40.156
39.992
39.821
39.651
39.486
39.328
39.18
39.042
38.916
38.8
38.693
38.592
38.497
38.407
38.319
38.234
38.151
38.072
37.994
37.914
37.831
37.744
37.652
37.555
37.452
37.345
37.235
37.124
37.013
36.903
36.795
36.689
36.586
36.488
36.395
36.309
36.228
36.156
36.091
36.035
35.987
35.948
35.917
35.894
35.878
35.866
35.858
35.852
35.846
35.838
35.827
35.813
35.796
35.776
35.754
35.73
35.704
35.678
35.65
35.622
35.593
35.562
35.529
35.495
35.458
35.419
35.378
35.336
35.294
35.251
35.209
35.169
35.132
35.098
35.067
35.039
35.013
34.989
34.965
34.94
34.911
34.878
34.842
34.802
34.76
34.72
34.688
34.663
34.647
34.636
34.628
34.619
34.608
34.591
34.567
34.536
34.497
34.45
34.396
34.337
34.276
34.213
34.153
34.098
34.048
34.004
33.965
33.932
33.903
33.877
33.853
33.829
33.805
33.781
33.755
33.727
33.698
33.667
33.635
33.604
33.572
33.539
33.506
33.474
33.443
33.415
33.391
33.377
33.374
33.387
33.418
33.47
33.544
33.643
33.77
33.928
34.122
34.36
34.648
34.989
35.383
35.825
36.308
36.821
37.351
37.883
38.403
38.899
39.357
39.769
40.125
40.419
40.648
40.813
40.916
40.959
40.948
40.888
40.784
40.644
40.476
40.286
40.083
39.874
39.665
39.46
39.263
39.075
38.897
38.729
38.572
38.425
38.288
38.161
38.042
37.928
37.819
37.712
37.606
37.501
37.395
37.288
37.181
37.074
36.968
36.864
36.763
36.668
36.578
36.496
36.42
36.349
36.283
36.221
36.164
36.112
36.065
36.022
35.983
35.948
35.915
35.884
35.855
35.827
35.802
35.779
35.758
35.738
35.719
35.702
35.686
35.671
35.656
35.641
35.625
35.608
35.588
35.566
35.542
35.516
35.486
35.454
35.42
35.385
35.351
35.319
35.287
35.255
35.222
35.189
35.154
35.116
35.075
35.031
34.986
34.94
34.892
34.843
34.792
34.741
34.69
34.639
34.589
34.541
34.493
34.446
34.399
34.352
34.304
34.257
34.21
34.164
34.12
34.077
34.038
34.002
33.967
33.934
33.901
33.87
33.838
33.806
33.771
33.734
33.696
33.656
33.615
33.574
33.534
33.497
33.462
33.43
33.4
33.372
33.345
33.317
33.288
33.257
33.225
33.193
33.162
33.132
33.105
33.081
33.063
33.051
33.045
33.046
33.056
33.074
33.103
33.143
33.196
33.264
33.349
33.45
33.569
33.706
33.863
34.042
34.245
34.474
34.734
35.027
35.353
35.71
36.091
36.49
36.896
37.3
37.69
38.056
38.389
38.682
38.932
39.134
39.288
39.394
39.455
39.473
39.453
39.399
39.315
39.208
39.081
38.94
38.791
38.636
38.479
38.326
38.176
38.032
37.895
37.763
37.639
37.523
37.416
37.317
37.224
37.138
37.055
36.975
36.896
36.816
36.735
36.653
36.57
36.486
36.402
36.317
36.234
36.151
36.07
35.993
35.92
35.852
35.791
35.735
35.687
35.646
35.612
35.584
35.561
35.542
35.527
35.516
35.507
35.502
35.498
35.497
35.496
35.495
35.493
35.491
35.488
35.486
35.484
35.482
35.479
35.475
35.468
35.458
35.445
35.427
35.405
35.378
35.348
35.314
35.278
35.241
35.202
35.165
35.127
35.089
35.052
35.016
34.98
34.944
34.907
34.869
34.828
34.785
34.738
34.688
34.636
34.584
34.531
34.477
34.424
34.37
34.316
34.263
34.211
34.16
34.111
34.064
34.018
33.973
33.929
33.887
33.846
33.805
33.765
33.725
33.685
33.645
33.605
33.564
33.523
33.482
33.441
33.398
33.354
33.308
33.263
33.219
33.176
33.133
33.092
33.051
33.013
32.977
32.945
32.919
32.899
32.887
32.884
32.892
32.91
32.942
32.989
33.051
33.129
33.225
33.339
33.473
33.628
33.803
34.0
34.219
34.464
34.736
35.037
35.368
35.727
36.111
36.512
36.922
37.329
37.724
38.098
38.441
38.746
39.007
39.221
39.387
39.504
39.574
39.599
39.583
39.532
39.451
39.344
39.218
39.077
38.927
38.773
38.619
38.467
38.321
38.183
38.053
37.933
37.82
37.717
37.622
37.535
37.456
37.383
37.315
37.251
37.19
37.129
37.067
37.002
36.934
36.863
36.788
36.71
36.631
36.551
36.471
36.393
36.317
36.243
36.173
36.107
36.044
35.986
35.932
35.881
35.833
35.787
35.744
35.703
35.667
35.635
35.608
35.585
35.568
35.554
35.545
35.538
35.532
35.527
35.522
35.515
35.505
35.492
35.475
35.456
35.434
35.41
35.384
35.355
35.325
35.295
35.264
35.232
35.198
35.162
35.124
35.083
35.039
34.994
34.946
34.898
34.85
34.801
34.752
34.702
34.653
34.605
34.559
34.515
34.472
34.431
34.392
34.354
34.316
34.277
34.238
34.197
34.153
34.108
34.06
34.01
33.96
33.909
33.86
33.811
33.764
33.719
33.676
33.635
33.596
33.559
33.523
33.485
33.447
33.409
33.37
33.332
33.294
33.256
33.218
33.181
33.145
33.11
33.078
33.052
33.031
33.016
33.01
33.012
33.026
33.053
33.096
33.156
33.233
33.33
33.448
33.59
33.76
33.963
34.207
34.498
34.839
35.232
35.673
36.156
36.669
37.202
37.741
38.272
38.78
39.254
39.682
40.055
40.368
40.619
40.808
40.935
41.004
41.018
40.982
40.903
40.789
40.647
40.485
40.31
40.131
39.951
39.774
39.603
39.44
39.287
39.145
39.014
38.891
38.777
38.671
38.57
38.474
38.38
38.288
38.197
38.105
38.012
37.916
37.818
37.718
37.617
37.516
37.418
37.321
37.226
37.133
37.041
36.951
36.863
36.777
36.695
36.616
36.539
36.465
36.395
36.329
36.267
36.21
36.158
36.113
36.074
36.039
36.009
35.983
35.96
35.939
35.92
35.9
35.882
35.864
35.847
35.832
35.818
35.805
35.791
35.776
35.758
35.738
35.714
35.686
35.655
35.62
35.584
35.548
35.513
35.479
35.446
35.414
35.381
35.348
35.312
35.273
35.23
35.183
35.131
35.075
35.014
34.95
34.882
34.813
34.743
34.674
34.606
34.54
34.477
34.415
34.356
34.298
34.242
34.188
34.136
34.085
34.034
33.981
33.929
33.876
33.824
33.771
33.72
33.669
33.62
33.573
33.527
33.481
33.436
33.391
33.346
33.301
33.256
33.211
33.167
33.123
33.081
33.039
32.999
32.962
32.927
32.895
32.866
32.841
32.822
32.812
32.812
32.824
32.851
32.893
32.952
33.028
33.122
33.238
33.38
33.553
33.764
34.021
34.329
34.694
35.115
35.587
36.103
36.653
37.225
37.802
38.37
38.913
39.417
39.873
40.272
40.606
40.874
41.073
41.207
41.277
41.29
41.252
41.172
41.057
40.918
40.761
40.591
40.413
40.234
40.055
39.881
39.714
39.557
39.41
39.275
39.15
39.033
38.922
38.817
38.715
38.617
38.52
38.425
38.332
38.239
38.145
38.052
37.956
37.86
37.763
37.664
37.564
37.462
37.358
37.256
37.156
37.06
36.969
36.882
36.799
36.721
36.647
36.578
36.515
36.459
36.41
36.366
36.326
36.288
36.253
36.219
36.187
36.156
36.127
36.099
36.073
36.047
36.021
35.996
35.971
35.945
35.918
35.888
35.857
35.823
35.787
35.75
35.711
35.671
35.63
35.586
35.541
35.494
35.446
35.397
35.348
35.297
35.245
35.192
35.138
35.084
35.03
34.977
34.926
34.877
34.83
34.783
34.737
34.69
34.642
34.592
34.539
34.483
34.424
34.364
34.302
34.239
34.176
34.113
34.053
33.995
33.939
33.886
33.834
33.784
33.735
33.686
33.636
33.585
33.536
33.488
33.441
33.396
33.353
33.313
33.274
33.236
33.197
33.156
33.114
33.071
33.025
32.977
32.928
32.88
32.833
32.79
32.752
32.722
32.701
32.69
32.69
32.701
32.726
32.764
32.817
32.888
32.978
33.096
33.245
33.436
33.679
33.98
34.346
34.776
35.267
35.811
36.394
37.001
37.617
38.224
38.807
39.351
39.843
40.276
40.641
40.934
41.155
41.304
41.386
41.406
41.372
41.29
41.169
41.017
40.841
40.649
40.446
40.238
40.03
39.828
39.636
39.454
39.284
39.127
38.983
38.85
38.725
38.607
38.495
38.389
38.289
38.191
38.096
38.002
37.909
37.815
37.721
37.626
37.53
37.432
37.333
37.233
37.133
37.034
36.938
36.844
36.755
36.671
36.593
36.519
36.451
36.388
36.329
36.273
36.222
36.172
36.124
36.077
36.032
35.99
35.951
35.915
35.881
35.848
35.815
35.783
35.751
35.718
35.685
35.653
35.62
35.587
35.552
35.517
35.48
35.443
35.405
35.366
35.325
35.282
35.239
35.195
35.151
35.108
35.064
35.021
34.977
34.932
34.887
34.841
34.795
34.749
34.7
34.648
34.593
34.536
34.477
34.416
34.356
34.297
34.239
34.182
34.126
34.07
34.014
33.959
33.904
33.85
33.796
33.742
33.687
33.633
33.578
33.522
33.468
33.413
33.359
33.305
33.251
33.196
33.14
33.084
33.027
32.971
32.916
32.864
32.815
32.77
32.728
32.688
32.651
32.614
32.579
32.544
32.509
32.473
32.436
32.398
32.358
32.319
32.283
32.25
32.224
32.206
32.197
32.199
32.213
32.241
32.285
32.348
32.432
32.539
32.673
32.838
33.04
33.287
33.587
33.945
34.363
34.84
35.378
35.973
36.61
37.27
37.934
38.58
39.188
39.739
40.221
40.623
40.941
41.174
41.323
41.394
41.395
41.337
41.229
41.082
40.906
40.711
40.504
40.294
40.084
39.881
39.688
39.505
39.335
39.176
39.027
38.887
38.754
38.627
38.504
38.384
38.267
38.153
38.04
37.929
37.819
37.71
37.601
37.493
37.385
37.277
37.169
37.062
36.954
36.847
36.74
36.634
36.529
36.427
36.328
36.231
36.139
36.053
35.974
35.902
35.838
35.78
35.729
35.684
35.643
35.605
35.571
35.538
35.507
35.476
35.445
35.414
35.382
35.35
35.32
35.29
35.261
35.235
35.209
35.184
35.16
35.137
35.115
35.094
35.072
35.05
35.027
35.001
34.972
34.941
34.906
34.867
34.822
34.772
34.716
34.655
34.591
34.526
34.459
34.393
34.326
34.26
34.196
34.134
34.074
34.016
33.96
33.906
33.852
33.799
33.744
33.69
33.635
33.581
33.527
33.472
33.417
33.362
33.306
33.25
33.192
33.135
33.078
33.021
32.965
32.911
32.859
32.809
32.762
32.715
32.669
32.623
32.578
32.532
32.484
32.434
32.383
32.331
32.28
32.23
32.182
32.139
32.1
32.065
32.033
32.003
31.976
31.953
31.931
31.911
31.892
31.874
31.859
31.848
31.842
31.843
31.854
31.878
31.915
31.968
32.038
32.129
32.241
32.378
32.544
32.747
32.993
33.292
33.649
34.066
34.54
35.067
35.636
36.233
36.845
37.454
38.046
38.607
39.123
39.583
39.98
40.307
40.562
40.744
40.856
40.902
40.889
40.825
40.719
40.578
40.411
40.226
40.03
39.829
39.628
39.431
39.242
39.063
38.894
38.736
38.589
38.452
38.323
38.201
38.083
37.965
37.846
37.726
37.602
37.477
37.349
37.221
37.095
36.972
36.852
36.736
36.625
36.519
36.418
36.321
36.228
36.139
36.052
35.968
35.887
35.809
35.735
35.665
35.6
35.541
35.488
35.441
35.399
35.363
35.331
35.303
35.276
35.252
35.228
35.205
35.181
35.157
35.131
35.103
35.073
35.042
35.012
34.981
34.952
34.923
34.894
34.865
34.834
