Trial 1:0back
38.77
39.18
39.544
39.856
40.11
40.304
40.439
40.515
40.536
40.506
40.43
40.314
40.166
39.993
39.802
39.6
39.395
39.192
38.996
38.81
38.636
38.477
38.331
38.198
38.076
37.964
37.86
37.761
37.665
37.572
37.481
37.392
37.305
37.218
37.131
37.042
36.953
36.861
36.766
36.67
36.574
36.478
36.384
36.29
36.195
36.101
36.008
35.919
35.835
35.76
35.694
35.639
35.595
35.56
35.536
35.522
35.517
35.52
35.527
35.537
35.548
35.558
35.567
35.574
35.578
35.58
35.58
35.575
35.567
35.556
35.542
35.524
35.501
35.474
35.443
35.41
35.375
35.34
35.306
35.271
35.237
35.202
35.167
35.13
35.093
35.056
35.017
34.978
34.937
34.895
34.852
34.807
34.761
34.712
34.661
34.608
34.553
34.496
34.439
34.38
34.321
34.262
34.202
34.143
34.084
34.028
33.973
33.92
33.869
33.821
33.775
33.731
33.687
33.644
33.602
33.563
33.527
33.493
33.461
33.429
33.396
33.361
33.325
33.289
33.252
33.215
33.176
33.137
33.097
33.058
33.019
32.981
32.946
32.913
32.882
32.852
32.825
32.798
32.773
32.747
32.722
32.697
32.671
32.646
32.622
32.597
32.573
32.549
32.528
32.51
32.496
32.488
32.489
32.5
32.525
32.567
32.627
32.708
32.809
32.931
33.073
33.235
33.419
33.623
33.846
34.088
34.351
34.635
34.943
35.276
35.636
36.022
36.427
36.847
37.271
37.69
38.094
38.474
38.819
39.123
39.379
39.584
39.737
39.837
39.887
39.889
39.848
39.77
39.659
39.522
39.367
39.2
39.027
38.851
38.676
38.504
38.338
38.18
38.03
37.891
37.762
37.642
37.529
37.423
37.322
37.225
37.132
37.043
36.957
36.871
36.786
36.701
36.616
36.53
36.444
36.357
36.271
36.186
36.102
36.02
35.941
35.866
35.796
35.732
35.673
35.62
35.572
35.53
35.493
35.462
35.436
35.416
35.402
35.393
35.387
35.383
35.382
35.38
35.378
35.376
35.373
35.37
35.367
35.365
35.362
35.36
35.357
35.354
35.349
35.341
35.33
35.315
35.297
35.276
35.253
35.228
35.203
35.175
35.144
35.11
35.072
35.031
34.987
34.942
34.896
34.849
34.799
34.748
34.696
34.642
34.588
34.535
34.482
34.431
34.382
34.337
34.296
34.256
34.218
34.179
34.139
34.097
34.051
34.004
33.955
33.905
33.857
33.808
33.76
33.713
33.668
33.622
33.576
33.53
33.483
33.438
33.394
33.352
33.313
33.277
33.244
33.213
33.184
33.157
33.133
33.112
33.092
33.073
33.055
33.036
33.015
32.991
32.964
32.934
32.903
32.871
32.838
32.806
32.774
32.744
32.717
32.693
32.675
32.664
32.662
32.671
32.693
32.731
32.785
32.859
32.953
33.067
33.201
33.354
33.526
33.716
33.922
34.144
34.38
34.628
34.888
35.156
35.432
35.717
36.009
36.307
36.609
36.912
37.212
37.505
37.786
38.049
38.289
38.501
38.679
38.822
38.926
38.992
39.022
39.016
38.977
38.908
38.812
38.696
38.564
38.421
38.271
38.118
37.966
37.818
37.677
37.543
37.42
37.307
37.203
37.108
37.019
36.935
36.855
36.776
36.698
36.618
36.536
36.453
36.368
36.282
36.195
36.108
36.02
35.932
35.845
35.761
35.682
35.61
35.545
35.486
35.435
35.39
35.353
35.322
35.298
35.279
35.265
35.256
35.25
35.246
35.247
35.251
35.259
35.268
35.279
35.284
35.281
35.271
35.253
35.23
35.204
35.177
35.151
35.127
35.107
35.091
35.08
35.073
35.067
35.061
35.054
35.046
35.036
35.023
35.008
34.99
34.969
34.944
34.916
34.884
34.847
34.807
34.764
34.719
34.672
34.624
34.576
34.528
34.479
34.428
34.376
34.322
34.266
34.208
34.149
34.092
34.037
33.985
33.936
33.888
33.841
33.796
33.751
33.707
33.665
33.625
33.587
33.55
33.514
33.478
33.442
33.404
33.365
33.323
33.28
33.237
33.194
33.152
33.112
33.074
33.038
33.002
32.967
32.933
32.901
32.87
32.842
32.815
32.789
32.765
32.742
32.719
32.696
32.675
32.658
32.649
32.649
32.661
32.688
32.733
32.796
32.878
32.98
33.103
33.247
33.413
33.6
33.809
34.038
34.29
34.565
34.865
35.192
35.549
35.936
36.349
36.782
37.229
37.679
38.123
38.55
38.951
39.315
39.634
39.901
40.112
40.264
40.358
40.396
40.381
40.32
40.219
40.086
39.929
39.754
39.57
39.381
39.192
39.007
38.829
38.66
38.5
38.35
38.211
38.081
37.959
37.845
37.735
37.631
37.531
37.434
37.338
37.243
37.147
37.051
36.952
36.852
36.751
36.65
36.549
36.45
36.351
36.255
36.162
36.073
35.991
35.915
35.846
35.783
35.728
35.679
35.636
35.6
35.569
35.542
35.52
35.501
35.485
35.472
35.459
35.446
35.432
35.419
35.406
35.394
35.382
35.37
35.36
35.35
35.342
35.335
35.328
35.322
35.316
35.309
35.301
35.291
35.279
35.266
35.25
35.23
35.205
35.174
35.139
35.1
35.057
35.01
34.961
34.908
34.853
34.796
34.739
34.682
34.626
34.57
34.515
34.46
34.406
34.354
34.302
34.25
34.199
34.147
34.096
34.044
33.994
33.945
33.897
33.849
33.801
33.753
33.706
33.658
33.611
33.565
33.525
33.497
33.476
33.463
33.453
33.447
33.442
33.432
33.417
33.394
33.362
33.322
33.274
33.219
33.16
33.098
33.034
32.97
32.907
32.845
32.787
32.732
32.681
32.636
32.594
32.557
32.524
32.498
32.479
32.467
32.466
32.476
32.499
32.536
32.59
32.661
32.751
32.859
32.985
33.131
33.297
33.485
33.699
33.94
34.213
34.522
34.872
35.264
35.695
36.162
36.658
37.172
37.692
38.204
38.696
39.156
39.572
39.937
40.244
40.488
40.667
40.782
40.834
40.827
40.767
40.661
40.518
40.344
40.149
39.941
39.727
39.515
39.309
39.113
38.928
38.757
38.6
38.457
38.326
38.207
38.097
37.994
37.898
37.804
37.713
37.622
37.53
37.436
37.339
37.237
37.133
37.025
36.913
36.799
36.683
36.567
36.453
36.343
36.239
36.14
36.048
35.961
35.88
35.805
35.737
35.676
35.623
35.578
35.541
35.512
35.49
35.474
35.464
35.456
35.452
35.448
35.445
35.443
35.44
35.437
35.434
35.43
35.424
35.415
35.403
35.388
35.371
35.351
35.329
35.305
35.279
35.253
35.225
35.197
35.167
35.135
35.102
35.068
35.031
34.994
34.954
34.913
34.869
34.825
34.779
34.733
34.685
34.635
34.584
34.53
34.474
34.417
34.36
34.301
34.242
34.182
34.122
34.061
34.002
33.944
33.887
33.83
33.775
33.721
33.669
33.619
33.571
33.524
33.479
33.436
33.395
33.356
33.318
33.282
33.248
33.214
33.181
33.15
33.12
33.091
33.062
33.034
33.005
32.977
32.95
32.923
32.897
32.872
32.848
32.824
32.8
32.776
32.752
32.728
32.704
32.678
32.654
32.63
32.607
32.587
32.57
32.558
32.552
32.554
32.566
32.591
32.63
32.687
32.762
32.856
32.972
33.111
33.273
33.459
33.67
33.908
34.177
34.481
34.822
35.202
35.618
36.064
36.533
37.014
37.497
37.97
38.421
38.839
39.214
39.538
39.805
40.014
40.162
40.252
40.286
40.268
40.204
40.1
39.964
39.802
39.623
39.434
39.241
39.049
38.862
38.682
38.51
38.348
38.196
38.053
37.921
37.797
37.682
37.573
37.471
37.372
37.277
37.185
37.095
37.005
36.915
36.824
36.731
36.636
36.539
36.441
36.344
36.248
36.154
36.064
35.977
35.894
35.816
35.741
35.671
35.606
35.546
35.493
35.447
35.407
35.374
35.348
35.329
35.314
35.302
35.292
35.283
35.276
35.27
35.264
35.26
35.262
35.275
35.3
35.336
35.376
35.418
35.456
35.486
35.505
35.511
35.503
35.48
35.443
35.391
35.329
35.256
35.176
35.09
35.002
34.914
34.828
34.748
34.675
34.609
34.55
34.497
34.448
34.401
34.356
34.314
34.273
34.234
34.195
34.159
34.123
34.087
34.051
34.013
33.973
33.93
33.883
33.834
33.783
33.731
33.679
33.627
33.574
33.522
33.47
33.42
33.371
33.324
33.279
33.236
33.195
33.157
33.119
33.082
33.047
33.012
32.979
32.947
32.916
32.885
32.853
32.821
32.788
32.755
32.723
32.691
32.66
32.627
32.594
32.56
32.525
32.489
32.451
32.415
32.379
32.347
32.318
32.295
32.278
32.269
32.268
32.277
32.3
32.339
32.396
32.471
32.565
32.68
32.817
32.976
33.157
33.357
33.577
33.816
34.073
34.35
34.649
34.973
35.321
35.692
36.08
36.479
36.882
37.278
37.661
38.02
38.347
38.635
38.877
39.071
39.213
39.304
39.347
39.344
39.302
39.224
39.116
38.985
38.835
38.672
38.502
38.327
38.152
37.982
37.818
37.664
37.518
37.383
37.257
37.14
37.031
36.928
36.831
36.74
36.653
36.569
36.484
36.4
36.315
36.23
36.147
36.065
35.987
35.911
35.835
35.761
35.687
35.616
35.546
35.479
35.414
35.353
35.297
35.246
35.2
35.16
35.124
35.094
35.07
35.051
35.036
35.028
35.026
35.029
35.036
35.044
35.054
35.062
35.069
35.073
35.073
35.07
35.065
35.058
35.049
35.039
35.028
35.015
35.0
34.982
34.96
34.935
34.908
34.88
34.85
34.821
34.791
34.76
34.728
34.694
34.657
34.617
34.575
34.53
34.484
34.437
34.391
34.345
34.3
34.255
34.208
34.161
34.112
34.063
34.014
33.965
33.92
33.876
33.834
33.793
33.752
33.708
33.663
33.617
33.57
33.525
33.483
33.444
33.406
33.37
33.334
33.299
33.264
33.228
33.194
33.162
33.131
33.102
33.073
33.043
33.012
32.979
32.944
32.906
32.867
32.826
32.786
32.746
32.708
32.672
32.638
32.606
32.577
32.549
32.525
32.504
32.487
32.474
32.467
32.465
32.47
32.483
32.504
32.537
32.584
32.649
32.732
32.836
32.96
33.104
33.268
33.449
33.646
33.856
34.078
34.309
34.548
34.792
35.04
35.292
35.548
35.806
36.064
36.322
36.577
36.828
37.074
37.31
37.536
37.746
37.936
38.102
38.24
38.349
38.426
38.473
38.489
38.476
38.438
38.376
38.294
38.196
38.084
37.963
37.834
37.7
37.564
37.428
37.294
37.166
37.043
36.927
36.819
36.719
36.627
36.541
36.46
36.382
36.306
36.231
36.155
36.079
36.002
35.926
35.85
35.775
35.7
35.627
35.556
35.488
35.423
35.361
35.303
35.25
35.203
35.163
35.13
35.105
35.087
35.076
35.07
35.068
35.07
35.076
35.084
35.094
35.104
35.115
35.124
35.133
35.14
35.145
35.146
35.144
35.138
35.127
35.112
35.094
35.076
35.057
35.036
35.013
34.988
34.959
34.927
34.892
34.855
34.816
34.777
34.737
34.697
34.656
34.615
34.574
34.532
34.489
34.443
34.396
34.349
34.301
34.254
34.209
34.167
34.128
34.09
34.053
34.014
33.974
33.931
33.886
33.84
33.794
33.749
33.705
33.662
33.619
33.577
33.536
33.494
33.452
33.411
33.37
33.331
33.294
33.259
33.225
33.193
33.16
33.128
33.095
33.062
33.031
33.0
32.971
32.942
32.915
32.888
32.861
32.834
32.805
32.777
32.749
32.723
32.699
32.679
32.662
32.65
32.645
32.648
32.662
32.688
32.729
32.789
32.869
32.971
33.096
33.245
33.417
33.611
33.826
34.061
34.313
34.582
34.866
35.166
35.483
35.818
36.168
36.53
36.899
37.27
37.634
37.982
38.307
38.6
38.857
39.072
39.243
39.367
39.445
39.479
39.471
39.426
39.348
39.242
39.114
38.969
38.813
38.65
38.485
38.321
38.163
38.011
37.867
37.731
37.603
37.484
37.371
37.266
37.166
37.072
36.983
36.897
36.815
36.734
36.652
36.57
36.486
36.4
36.312
36.225
36.139
36.053
35.968
35.884
35.804
35.729
35.662
35.603
35.552
35.507
35.469
35.435
35.407
35.383
35.365
35.35
35.339
35.33
35.323
35.32
35.318
35.318
35.318
35.318
35.317
35.315
35.312
35.307
35.299
35.288
35.273
35.256
35.235
35.213
35.189
35.163
35.137
35.111
35.085
35.059
35.034
35.009
34.984
34.959
34.932
34.902
34.871
34.837
34.801
34.762
34.72
34.676
34.63
34.584
34.537
34.489
34.439
34.389
34.338
34.286
34.235
34.182
34.129
34.076
34.023
33.969
33.915
33.861
33.808
33.756
33.703
33.652
33.604
33.557
33.511
33.464
33.419
33.374
33.33
33.287
33.246
33.207
33.169
33.134
33.099
33.065
33.032
33.001
32.972
32.944
32.917
32.893
32.871
32.852
32.836
32.821
32.808
32.797
32.788
32.781
32.777
32.778
32.783
32.793
32.81
32.838
32.879
32.937
33.015
33.113
33.232
33.374
33.538
33.723
33.927
34.151
34.396
34.662
34.952
35.268
35.611
35.98
36.372
36.781
37.199
37.618
38.025
38.411
38.765
39.078
39.343
39.555
39.713
39.816
39.867
39.87
39.83
39.752
39.644
39.512
39.362
39.201
39.033
38.863
38.693
38.516
38.33
38.137
37.943
37.752
37.573
37.409
37.264
37.14
37.037
36.953
36.885
36.83
36.784
36.744
36.708
36.672
36.636
36.596
36.551
36.501
36.445
36.383
36.315
36.242
36.165
36.086
36.007
35.928
35.852
35.782
35.718
35.66
35.609
35.564
35.525
35.493
35.465
35.443
35.425
35.413
35.404
35.4
35.398
35.398
35.398
35.398
35.396
35.392
35.385
35.376
35.364
35.35
35.333
35.315
35.296
35.276
35.253
35.228
35.2
35.17
35.137
35.102
35.064
35.024
34.98
34.934
34.886
34.836
34.786
34.738
34.691
34.644
34.598
34.553
34.508
34.464
34.42
34.376
34.332
34.287
34.24
34.192
34.143
34.094
34.044
33.994
33.944
33.895
33.847
33.801
33.756
33.712
33.668
33.625
33.583
33.542
33.503
33.465
33.428
33.391
33.354
33.318
33.283
33.248
33.214
33.18
33.146
33.112
33.079
33.046
33.013
32.98
32.946
32.913
32.88
32.847
32.814
32.782
32.75
32.719
32.689
32.661
32.638
32.62
32.61
32.611
32.626
32.658
32.708
32.778
32.867
32.979
33.118
33.287
33.487
33.713
33.962
34.229
34.511
34.802
35.104
35.414
35.733
36.06
36.396
36.739
37.085
37.431
37.772
38.1
38.408
38.69
38.938
39.147
39.313
39.434
39.509
39.541
39.531
39.482
39.4
39.29
39.159
39.012
38.855
38.693
38.532
38.376
38.225
38.082
37.948
37.821
37.701
37.589
37.484
37.383
37.288
37.197
37.109
37.023
36.94
36.858
36.776
36.693
36.608
36.522
36.435
36.347
36.261
36.175
36.092
36.012
35.935
35.862
35.792
35.727
35.666
35.609
35.557
35.509
35.467
35.432
35.404
35.381
35.363
35.35
35.341
35.336
35.334
35.333
35.334
35.336
35.338
35.34
35.341
35.341
35.34
35.336
35.327
35.314
35.298
35.279
35.259
35.237
35.213
35.188
35.161
35.131
35.098
35.061
35.021
34.98
34.938
34.894
34.851
34.809
34.767
34.726
34.684
34.641
34.597
34.55
34.502
34.453
34.403
34.353
34.304
34.254
34.204
34.154
34.104
34.054
34.004
33.952
33.901
33.851
33.801
33.752
33.704
33.658
33.613
33.57
33.526
33.483
33.442
33.401
33.362
33.323
33.285
33.249
33.216
33.188
33.164
33.143
33.125
33.108
33.09
33.071
33.051
33.029
33.005
32.979
32.952
32.924
32.895
32.867
32.84
32.815
32.792
32.772
32.756
32.742
32.732
32.725
32.724
32.73
32.743
32.765
32.798
32.843
32.903
32.98
33.075
33.189
33.322
33.472
33.639
33.82
34.015
34.222
34.44
34.668
34.905
35.15
35.404
35.668
35.942
36.227
36.522
36.824
37.128
37.429
37.719
37.994
38.245
38.468
38.656
38.807
38.918
38.99
39.023
39.019
38.983
38.918
38.828
38.719
38.595
38.46
38.319
38.176
38.033
37.894
37.761
37.635
37.518
37.409
37.308
37.214
37.125
37.041
36.959
36.88
36.802
36.725
36.648
36.571
36.492
36.413
36.333
36.252
36.172
36.093
36.015
35.939
35.865
35.794
35.726
35.663
35.605
35.553
35.507
35.467
35.433
35.405
35.382
35.362
35.347
35.335
35.326
35.321
35.317
35.315
35.315
35.316
35.319
35.321
35.323
35.323
35.32
35.314
35.303
35.289
35.273
35.253
35.231
35.206
35.179
35.15
35.118
35.085
35.05
35.014
34.978
34.942
34.905
34.869
34.833
34.794
34.753
34.708
34.66
34.609
34.558
34.507
34.456
34.407
34.361
34.316
34.273
34.229
34.183
34.137
34.088
34.04
33.991
33.943
33.895
33.848
33.802
33.758
33.716
33.675
33.635
33.596
33.558
33.523
33.489
33.457
33.425
33.394
33.362
33.33
33.297
33.264
33.231
33.2
33.17
33.14
33.111
33.081
33.05
33.018
32.985
32.951
32.917
32.883
32.851
32.82
32.79
32.76
32.73
32.701
32.672
32.645
32.62
32.6
32.584
32.576
32.577
32.59
32.618
32.664
32.729
32.815
32.924
33.054
33.205
33.376
33.564
33.767
33.985
34.213
34.452
34.699
34.955
35.22
35.495
35.779
36.074
36.38
36.696
37.016
37.335
37.646
37.942
38.217
38.464
38.678
38.857
38.997
39.097
39.156
39.175
39.155
39.102
39.019
38.911
38.783
38.641
38.489
38.333
38.176
38.022
37.873
37.733
37.602
37.481
37.369
37.267
37.173
37.087
37.006
36.928
36.853
36.778
36.702
36.624
36.544
36.461
36.376
36.288
36.198
36.107
36.017
35.928
35.841
35.759
35.681
35.609
35.544
35.485
35.434
35.389
35.351
35.318
35.291
35.267
35.247
35.23
35.218
35.207
35.196
35.186
35.177
35.167
35.158
35.149
35.141
35.134
35.128
35.124
35.12
35.117
35.113
35.108
35.101
35.091
35.077
35.062
35.045
35.026
35.006
34.986
34.964
34.94
34.912
34.88
34.845
34.806
34.765
34.721
34.676
34.63
34.586
34.543
34.501
34.46
34.418
34.375
34.33
34.282
34.232
34.182
34.131
34.082
34.034
33.987
33.94
33.893
33.845
33.796
33.746
33.696
33.646
33.596
33.546
33.498
33.451
33.404
33.358
33.312
33.267
33.225
33.185
33.148
33.114
33.083
33.055
33.028
33.001
32.975
32.947
32.92
32.892
32.865
32.838
32.81
32.781
32.751
32.718
32.685
32.652
32.619
32.589
32.563
32.543
32.53
32.525
32.528
32.541
32.565
32.602
32.653
32.72
32.805
32.91
33.033
33.175
33.334
33.51
33.701
33.906
34.122
34.345
34.573
34.804
35.035
35.266
35.496
35.724
35.95
36.173
36.393
36.608
36.822
37.033
37.24
37.439
37.625
37.795
37.945
38.071
38.169
38.238
38.277
38.284
38.262
38.214
38.141
38.049
37.94
37.82
37.692
37.558
37.422
37.287
37.156
37.028
36.906
36.788
36.676
36.571
36.472
36.381
36.295
36.214
36.137
36.061
35.986
35.913
35.842
35.773
35.705
35.64
35.576
35.514
35.455
35.398
35.344
35.293
35.245
35.198
35.155
35.115
35.079
35.049
35.024
35.004
34.988
34.977
34.971
34.968
34.969
34.971
34.977
34.984
34.994
35.004
35.015
35.029
35.049
35.076
35.107
35.139
35.17
35.196
35.215
35.223
35.221
35.208
35.185
35.154
35.115
35.068
35.016
34.96
34.901
34.839
34.775
34.712
34.649
34.587
34.527
34.47
34.416
34.367
34.321
34.278
34.236
34.196
34.158
34.121
34.084
34.048
34.011
33.974
33.935
33.894
33.852
33.809
33.765
33.721
33.676
33.633
33.591
33.551
33.512
33.474
33.435
33.397
33.357
33.319
33.282
33.248
33.216
33.187
33.16
33.134
33.108
33.084
33.06
33.036
33.013
32.991
32.97
32.948
32.926
32.904
32.881
32.861
32.844
32.831
32.825
32.829
32.843
32.872
32.916
32.978
33.058
33.157
33.274
33.41
33.564
33.736
33.924
34.126
34.338
34.558
34.783
35.012
35.241
35.467
35.69
35.906
36.117
36.321
36.52
36.713
36.901
37.082
37.258
37.426
37.585
37.733
37.867
37.986
38.087
38.169
38.23
38.27
38.288
38.283
38.257
38.211
38.145
38.062
37.964
37.856
37.74
37.617
37.491
37.364
37.239
37.118
37.002
36.893
36.79
36.691
36.597
36.505
36.415
36.325
36.235
36.144
36.052
35.961
35.87
35.781
35.696
35.615
35.539
35.47
35.408
35.354
35.308
35.27
35.24
35.218
35.202
35.192
35.188
35.189
35.195
35.204
35.215
35.228
35.241
35.253
35.265
35.276
35.283
35.288
35.289
35.285
35.277
35.265
35.249
35.23
35.207
35.179
35.148
35.114
35.079
35.044
35.007
34.97
34.933
34.895
34.859
34.823
34.789
34.756
34.724
34.693
34.662
34.63
34.599
34.567
34.534
34.497
34.459
34.418
34.375
34.331
34.287
34.243
34.197
34.149
34.1
34.048
33.994
33.939
33.883
33.826
33.769
33.712
33.658
33.605
33.555
33.507
33.463
33.422
33.385
33.352
33.322
33.294
33.269
33.245
33.22
33.196
33.172
33.147
33.123
33.098
33.073
33.05
33.027
33.004
32.981
32.957
32.934
32.912
32.894
32.881
32.876
32.881
32.898
32.93
32.979
33.047
33.135
33.244
33.375
33.528
33.703
33.9
34.118
34.359
34.623
34.911
35.226
35.567
35.934
36.325
36.736
37.161
37.591
38.017
38.427
38.812
39.162
39.467
39.719
39.915
40.054
40.134
40.16
40.134
40.063
39.954
39.814
39.651
39.472
39.285
39.096
38.909
38.728
