Trial 1:0back
35.079
35.046
35.014
34.982
34.951
34.92
34.889
34.859
34.829
34.799
34.769
34.74
34.71
34.68
34.651
34.621
34.592
34.562
34.532
34.503
34.473
34.444
34.415
34.388
34.361
34.336
34.312
34.289
34.268
34.247
34.227
34.208
34.188
34.169
34.15
34.131
34.113
34.095
34.077
34.059
34.04
34.02
33.999
33.976
33.953
33.928
33.903
33.878
33.853
33.829
33.807
33.786
33.766
33.747
33.729
33.712
33.696
33.681
33.665
33.65
33.634
33.618
33.601
33.583
33.563
33.542
33.521
33.498
33.476
33.454
33.433
33.412
33.393
33.374
33.357
33.339
33.322
33.305
33.287
33.269
33.25
33.23
33.208
33.186
33.163
33.139
33.115
33.091
33.068
33.046
33.025
33.005
32.988
32.973
32.961
32.954
32.951
32.955
32.968
32.992
33.028
33.08
33.149
33.237
33.346
33.475
33.625
33.794
33.981
34.183
34.398
34.622
34.851
35.084
35.315
35.542
35.763
35.974
36.173
36.359
36.53
36.685
36.824
36.946
37.053
37.145
37.223
37.287
37.34
37.381
37.413
37.437
37.455
37.467
37.475
37.48
37.482
37.484
37.484
37.482
37.479
37.474
37.467
37.459
37.449
37.439
37.427
37.415
37.402
37.389
37.376
37.363
37.35
37.338
37.326
37.313
37.301
37.287
37.273
37.258
37.241
37.223
37.204
37.184
37.163
37.141
37.119
37.097
37.074
37.053
37.033
37.016
37.001
36.99
36.982
36.978
36.979
36.983
36.99
36.999
37.011
37.025
37.04
37.055
37.071
37.086
37.099
37.111
37.122
37.13
37.137
37.141
37.143
37.143
37.139
37.132
37.122
37.109
37.092
37.072
37.05
37.027
37.002
36.976
36.949
36.922
36.894
36.866
36.837
36.808
36.777
36.744
36.709
36.673
36.634
36.593
36.551
36.508
36.464
36.42
36.376
36.333
36.29
36.248
36.206
36.166
36.126
36.088
36.05
36.013
35.977
35.941
35.905
35.869
35.832
35.795
35.756
35.716
35.675
35.634
35.593
35.553
35.514
35.476
35.439
35.404
35.37
35.338
35.307
35.278
35.249
35.221
35.193
35.166
35.138
35.11
35.081
35.052
35.023
34.995
34.968
34.942
34.916
34.891
34.867
34.842
34.817
34.793
34.77
34.746
34.723
34.7
34.677
34.654
34.631
34.607
34.582
34.556
34.529
34.501
34.471
34.441
34.41
34.379
34.347
34.316
34.284
34.254
34.224
34.196
34.168
34.141
34.114
34.088
34.063
34.038
34.013
33.987
33.962
33.936
33.909
33.883
33.857
33.831
33.806
33.782
33.759
33.736
33.714
33.691
33.669
33.646
33.621
33.596
33.57
33.543
33.515
33.487
33.458
33.428
33.399
33.37
33.342
33.315
33.29
33.265
33.242
33.22
33.199
33.179
33.158
33.136
33.115
33.092
33.069
33.045
33.021
32.997
32.973
32.949
32.926
32.905
32.887
32.871
32.861
32.856
32.858
32.869
32.891
32.926
32.977
33.046
33.134
33.242
33.372
33.524
33.698
33.892
34.105
34.336
34.583
34.842
35.11
35.384
35.661
35.937
36.209
36.474
36.727
36.966
37.189
37.393
37.578
37.742
37.885
38.008
38.11
38.194
38.259
38.309
38.346
38.371
38.386
38.392
38.392
38.387
38.377
38.366
38.352
38.338
38.323
38.308
38.292
38.276
38.261
38.245
38.229
38.212
38.196
38.179
38.161
38.141
38.119
38.096
38.07
38.041
38.009
37.975
37.939
37.899
37.858
37.814
37.769
37.724
37.678
37.633
37.59
37.55
37.511
37.475
37.443
37.414
37.39
37.371
37.357
37.349
37.347
37.351
37.359
37.372
37.389
37.408
37.429
37.449
37.468
37.486
37.5
37.51
37.516
37.518
37.514
37.506
37.493
37.475
37.454
37.429
37.401
37.37
37.337
37.302
37.267
37.23
37.194
37.159
37.124
37.091
37.059
37.028
36.997
36.968
36.939
36.91
36.882
36.854
36.826
36.799
36.772
36.745
36.718
36.689
36.658
36.625
36.589
36.551
36.511
36.468
36.423
36.377
36.328
36.278
36.226
36.173
36.12
36.066
36.012
35.959
35.907
35.856
35.806
35.759
35.713
35.67
35.629
35.59
35.552
35.516
35.481
35.446
35.412
35.378
35.344
35.311
35.279
35.247
35.216
35.186
35.156
35.127
35.098
35.07
35.043
35.015
34.988
34.96
34.932
34.903
34.872
34.841
34.809
34.777
34.744
34.711
34.678
34.646
34.615
34.585
34.556
34.527
34.498
34.47
34.442
34.414
34.387
34.36
34.334
34.308
34.284
34.262
34.24
34.219
34.199
34.179
34.159
34.14
34.121
34.102
34.083
34.064
34.044
34.023
34.001
33.977
33.951
33.922
33.892
33.86
33.827
33.794
33.761
33.728
33.695
33.663
33.632
33.602
33.575
33.549
33.526
33.504
33.484
33.467
33.452
33.44
33.43
33.426
33.427
33.437
33.457
33.491
33.54
33.606
33.693
33.8
33.929
34.079
34.249
34.437
34.641
34.857
35.084
35.317
35.554
35.792
36.027
36.255
36.475
36.684
36.88
37.061
37.226
37.375
37.507
37.622
37.721
37.805
37.873
37.927
37.968
37.997
38.015
38.025
38.026
38.022
38.012
37.997
37.98
37.96
37.939
37.917
37.894
37.871
37.848
37.825
37.802
37.78
37.758
37.737
37.716
37.694
37.673
37.651
37.628
37.604
37.579
37.552
37.522
37.491
37.458
37.424
37.389
37.353
37.318
37.283
37.249
37.217
37.188
37.162
37.139
37.12
37.104
37.091
37.081
37.075
37.071
37.071
37.073
37.077
37.084
37.092
37.101
37.111
37.122
37.131
37.139
37.146
37.151
37.153
37.153
37.149
37.142
37.132
37.118
37.101
37.082
37.06
37.036
37.01
36.983
36.954
36.923
36.892
36.859
36.825
36.79
36.754
36.716
36.678
36.638
36.597
36.554
36.511
36.466
36.421
36.375
36.329
36.283
36.235
36.188
36.14
36.092
36.044
35.996
35.949
35.902
35.856
35.811
35.767
35.724
35.681
35.64
35.598
35.556
35.514
35.471
35.428
35.385
35.341
35.297
35.253
35.208
35.164
35.121
35.079
35.038
34.997
34.958
34.921
34.885
34.851
34.818
34.786
34.754
34.723
34.692
34.661
34.631
34.602
34.574
34.546
34.52
34.494
34.469
34.445
34.422
34.399
34.377
34.355
34.333
34.311
34.289
34.267
34.244
34.22
34.195
34.169
34.142
34.113
34.084
34.055
34.027
33.999
33.972
33.946
33.923
33.901
33.881
33.865
33.854
33.848
33.849
33.86
33.881
33.915
33.962
34.022
34.099
34.191
34.3
34.427
34.57
34.729
34.904
35.091
35.29
35.497
35.711
35.927
36.144
36.359
36.567
36.768
36.958
37.136
37.301
37.451
37.586
37.704
37.807
37.894
37.965
38.022
38.065
38.097
38.117
38.129
38.132
38.127
38.116
38.1
38.079
38.054
38.026
37.996
37.965
37.935
37.905
37.876
37.85
37.826
37.804
37.785
37.766
37.747
37.728
37.708
37.686
37.662
37.634
37.604
37.57
37.533
37.493
37.45
37.405
37.36
37.315
37.271
37.229
37.189
37.153
37.122
37.095
37.073
37.057
37.047
37.042
37.043
37.048
37.057
37.069
37.083
37.099
37.116
37.133
37.15
37.165
37.179
37.19
37.2
37.206
37.208
37.206
37.199
37.188
37.173
37.153
37.129
37.102
37.073
37.042
37.01
36.978
36.946
36.914
36.882
36.85
36.819
36.787
36.755
36.722
36.689
36.654
36.617
36.578
36.535
36.489
36.442
36.392
36.342
36.29
36.239
36.188
36.137
36.087
36.038
35.99
35.944
35.898
35.854
35.812
35.77
35.729
35.69
35.65
35.612
35.573
35.536
35.499
35.462
35.425
35.388
35.35
35.313
35.275
35.237
35.199
35.161
35.124
35.089
35.054
35.021
34.989
34.96
34.933
34.908
34.886
34.866
34.848
34.832
34.816
34.799
34.782
34.763
34.742
34.72
34.695
34.667
34.637
34.604
34.569
34.533
34.495
34.456
34.417
34.379
34.341
34.304
34.27
34.237
34.207
34.18
34.157
34.14
34.128
34.125
34.131
34.15
34.182
34.229
34.293
34.375
34.475
34.593
34.73
34.885
35.056
35.242
35.442
35.653
35.871
36.095
36.321
36.546
36.767
36.98
37.184
37.375
37.551
37.711
37.853
37.978
38.085
38.173
38.244
38.298
38.337
38.361
38.373
38.373
38.365
38.348
38.326
38.3
38.271
38.241
38.211
38.182
38.154
38.129
38.105
38.083
38.063
38.045
38.028
38.012
37.997
37.981
37.964
37.946
37.926
37.904
37.879
37.851
37.82
37.786
37.75
37.711
37.67
37.628
37.585
37.542
37.497
37.451
37.406
37.362
37.319
37.278
37.24
37.205
37.173
37.145
37.12
37.098
37.08
37.066
37.055
37.047
37.042
37.039
37.038
37.038
37.038
37.037
37.035
37.03
37.023
37.014
37.001
36.986
36.968
36.948
36.927
36.903
36.877
36.849
36.819
36.786
36.751
36.713
36.672
36.628
36.581
36.533
36.482
36.431
36.377
36.322
36.266
36.209
36.151
36.092
36.035
35.977
35.921
35.865
35.81
35.756
35.703
35.652
35.602
35.554
35.507
35.461
35.416
35.373
35.329
35.286
35.244
35.201
35.159
35.116
35.072
35.028
34.983
34.938
34.892
34.845
34.798
34.751
34.703
34.657
34.612
34.567
34.524
34.482
34.442
34.403
34.364
34.325
34.287
34.248
34.21
34.171
34.134
34.097
34.06
34.025
33.99
33.955
33.921
33.887
33.853
33.82
33.786
33.751
33.717
33.682
33.647
33.611
33.576
33.54
33.504
33.468
33.432
33.396
33.36
33.323
33.286
33.25
33.214
33.178
33.144
33.11
33.077
33.046
33.015
32.987
32.961
32.938
32.918
32.903
32.893
32.889
32.894
32.908
32.934
32.972
33.025
33.092
33.175
33.275
33.39
33.521
33.668
33.828
34.0
34.181
34.37
34.562
34.755
34.946
35.131
35.308
35.474
35.626
35.765
35.888
35.995
36.086
36.16
36.219
36.264
36.295
36.313
36.321
36.32
36.311
36.297
36.277
36.255
36.231
36.205
36.179
36.152
36.126
36.099
36.074
36.051
36.028
36.007
35.986
35.966
35.945
35.923
35.898
35.872
35.842
35.81
35.774
35.735
35.692
35.646
35.597
35.546
35.492
35.436
35.38
35.325
35.27
35.218
35.168
35.12
35.076
35.036
35.0
34.967
34.938
34.914
34.895
34.88
34.871
34.867
34.867
34.87
34.874
34.88
34.885
34.889
34.893
34.894
34.894
34.892
34.887
34.879
34.867
34.851
34.831
34.808
34.782
34.753
34.722
34.688
34.653
34.616
34.578
34.54
34.502
34.463
34.426
34.39
34.355
34.321
34.289
34.259
34.23
34.201
34.173
34.145
34.116
34.087
34.056
34.024
33.99
33.954
33.916
33.876
33.834
33.79
33.745
33.7
33.654
33.609
33.564
33.521
33.478
33.437
33.398
33.36
33.324
33.29
33.257
33.224
33.192
33.161
33.13
33.099
33.068
33.038
33.009
32.98
32.952
32.926
32.901
32.877
32.855
32.833
32.811
32.789
32.766
32.744
32.721
32.698
32.675
32.652
32.63
32.607
32.586
32.565
32.544
32.524
32.504
32.482
32.46
32.437
32.414
32.39
32.368
32.345
32.324
32.304
32.286
32.268
32.252
32.237
32.222
32.208
32.194
32.181
32.168
32.155
32.141
32.126
32.111
32.094
32.077
32.059
32.041
32.023
32.004
31.987
31.969
31.952
31.937
31.922
31.909
31.897
31.887
31.877
31.868
31.858
31.847
31.835
31.822
31.807
31.79
31.772
31.751
31.729
31.704
31.678
31.651
31.624
31.598
31.574
31.553
31.535
31.521
31.512
31.509
31.512
31.522
31.542
31.572
31.614
31.67
31.74
31.824
31.924
32.037
32.164
32.304
32.455
32.614
32.781
32.953
33.126
33.3
33.47
33.634
33.789
33.934
34.067
34.187
34.292
34.383
34.459
34.521
34.568
34.603
34.626
34.638
34.641
34.635
34.623
34.606
34.585
34.563
34.54
34.518
34.498
34.482
34.47
34.462
34.458
34.458
34.461
34.468
34.476
34.487
34.499
34.511
34.525
34.539
34.552
34.565
34.576
34.585
34.591
34.593
34.592
34.587
34.579
34.569
34.557
34.543
34.528
34.513
34.497
34.481
34.465
34.449
34.434
34.42
34.407
34.395
34.383
34.372
34.363
34.355
34.348
34.342
34.338
34.334
34.332
34.33
34.329
34.328
34.328
34.328
34.328
34.327
34.326
34.324
34.321
34.316
34.311
34.303
34.294
34.284
34.271
34.256
34.239
34.219
34.197
34.174
34.149
34.124
34.099
34.073
34.048
34.023
33.999
33.974
33.949
33.924
33.898
33.872
33.846
33.82
33.794
33.769
33.745
33.722
33.701
33.68
33.66
33.639
33.619
33.599
33.578
33.559
33.54
33.522
33.504
33.487
33.469
33.452
33.434
33.416
33.398
33.381
33.364
33.347
33.33
33.313
33.297
33.28
33.263
33.246
33.228
33.209
33.19
33.17
33.151
33.132
33.113
33.095
33.078
33.062
33.048
33.035
33.025
33.015
33.006
32.997
32.989
32.979
32.97
32.96
32.95
32.939
32.928
32.917
32.904
32.891
32.878
32.865
32.852
32.838
32.825
32.811
32.798
32.785
32.772
32.759
32.747
32.734
32.723
32.711
32.7
32.69
32.68
32.671
32.662
32.652
32.642
32.631
32.62
32.609
32.597
32.584
32.571
32.558
32.545
32.531
32.517
32.503
32.491
32.48
32.471
32.466
32.463
32.464
32.469
32.48
32.496
32.52
32.552
32.595
32.648
32.713
32.791
32.88
32.98
33.089
33.207
33.332
33.463
33.597
33.734
33.871
34.007
34.138
34.265
34.385
34.496
34.597
34.687
34.765
34.829
34.879
34.916
34.939
34.95
34.951
34.942
34.925
34.903
34.876
34.847
34.816
34.785
34.756
34.728
34.702
34.68
34.662
34.647
34.637
34.632
34.632
34.634
34.64
34.647
34.655
34.662
34.669
34.675
34.679
34.681
34.68
34.677
34.671
34.661
34.648
34.631
34.612
34.59
34.566
34.54
34.514
34.488
34.462
34.436
34.412
34.39
34.37
34.352
34.338
34.326
34.318
34.314
34.313
34.316
34.321
34.329
34.338
34.348
34.359
34.369
34.379
34.387
34.393
34.398
34.399
34.398
34.393
34.386
34.375
34.362
34.347
34.33
34.311
34.292
34.272
34.252
34.23
34.208
34.186
34.164
34.142
34.121
34.1
34.081
34.062
34.044
34.026
34.009
33.992
33.975
33.958
33.941
33.924
33.907
33.89
33.872
33.855
33.838
33.821
33.804
33.787
33.77
33.753
33.736
33.718
33.701
33.683
33.666
33.648
33.63
33.611
33.593
33.574
33.556
33.539
33.523
33.507
33.493
33.479
33.466
33.454
33.443
33.432
33.423
33.414
33.407
33.4
33.393
33.388
33.382
33.376
33.369
33.362
33.353
33.344
33.334
33.323
33.312
33.301
33.29
33.279
33.268
33.258
33.247
33.237
33.227
33.217
33.207
33.196
33.186
33.175
33.164
33.153
33.143
33.132
33.121
33.11
33.099
33.088
33.077
33.065
33.054
33.042
33.029
33.016
33.002
32.987
32.972
32.955
32.937
32.918
32.897
32.874
32.851
32.827
32.803
32.78
32.758
32.738
32.721
32.708
32.699
32.694
32.694
32.699
32.711
32.731
32.759
32.797
32.846
32.906
32.978
33.061
33.155
33.26
33.374
33.496
33.624
33.755
33.889
34.023
34.155
34.283
34.405
34.519
34.625
34.721
34.806
34.88
34.942
34.993
35.034
35.065
35.087
35.101
35.107
35.107
35.102
35.091
35.078
35.061
35.042
35.023
35.003
34.984
34.966
34.951
34.938
34.927
34.92
34.914
34.911
34.91
34.91
34.912
34.915
34.918
34.923
34.928
34.933
34.938
34.941
34.942
34.942
34.939
34.934
34.926
34.917
34.905
34.892
34.878
34.862
34.845
34.828
34.81
34.792
34.776
34.762
34.751
34.742
34.736
34.733
34.733
34.735
34.74
34.747
34.755
34.765
34.776
34.788
34.801
34.815
34.829
34.842
34.855
34.866
34.874
34.881
34.885
34.886
34.884
34.88
34.873
34.864
34.852
34.839
34.824
34.807
34.788
34.77
34.751
34.732
34.713
34.694
34.677
34.66
34.644
34.628
34.612
34.597
34.581
34.565
34.548
34.531
34.513
34.495
34.477
34.458
34.438
34.417
34.397
34.376
34.355
34.335
34.315
34.296
34.277
34.257
34.236
34.214
34.19
34.165
34.137
34.109
34.078
34.046
34.014
33.982
33.95
33.919
33.889
33.861
33.834
33.81
33.787
33.767
33.747
33.73
33.714
33.7
33.687
33.675
33.664
33.653
33.643
33.634
33.626
33.618
33.61
33.601
33.592
33.583
33.574
33.564
33.553
33.542
33.529
33.516
33.502
33.487
33.471
33.454
33.437
33.419
33.401
33.383
33.364
33.345
33.327
33.311
33.295
33.281
33.267
33.255
33.245
33.235
33.227
33.22
33.212
33.204
33.195
33.184
33.172
33.157
33.141
33.124
33.105
33.085
33.065
33.044
33.024
33.004
32.986
32.969
32.955
32.942
32.932
32.923
32.915
32.909
32.903
32.898
32.892
32.886
32.88
32.873
32.865
32.857
32.848
32.839
32.829
32.818
32.808
32.798
32.789
32.783
32.78
32.781
32.787
32.8
32.821
32.851
32.891
32.942
33.004
33.078
33.164
33.262
33.37
33.489
33.616
33.75
33.889
34.032
34.175
34.316
34.454
34.585
34.707
34.82
34.92
35.007
35.08
35.138
35.181
35.21
35.227
35.231
35.226
35.214
35.194
35.171
35.144
35.116
35.089
35.063
35.04
35.021
35.005
34.994
34.987
34.983
34.982
34.983
34.986
34.988
34.99
34.992
34.991
34.989
34.985
34.979
34.971
34.962
34.952
34.94
34.927
34.913
34.898
34.882
34.865
34.847
34.827
34.807
34.786
34.763
34.741
34.718
34.694
34.671
34.649
34.628
34.609
34.593
34.579
34.567
34.559
34.553
34.55
34.549
34.55
34.552
34.556
34.561
34.566
34.572
34.578
34.584
34.59
34.596
34.601
34.606
34.609
34.611
34.611
34.608
34.603
34.594
34.582
34.568
34.55
34.531
34.509
34.486
34.462
34.437
34.412
34.386
34.361
34.337
34.313
34.289
34.266
34.243
34.221
34.2
34.179
34.158
34.139
34.121
34.104
34.088
34.074
34.06
34.048
34.036
34.025
34.014
34.003
33.993
33.984
33.974
33.963
33.951
33.938
33.924
33.907
33.89
33.871
33.851
33.831
33.811
33.792
33.773
33.756
33.741
33.727
33.715
33.704
33.695
33.686
33.679
33.673
33.667
33.662
33.658
33.654
33.651
33.648
33.645
33.643
33.641
33.638
33.635
33.631
33.627
33.622
33.616
33.609
33.601
33.592
33.582
33.572
33.56
33.547
33.534
33.52
33.506
33.492
33.477
33.463
33.449
33.436
33.423
33.411
33.398
33.386
33.373
33.361
33.348
33.336
33.325
33.314
33.304
33.294
33.284
33.272
33.26
33.247
33.233
33.218
33.202
33.186
33.17
33.154
33.137
33.119
33.101
33.083
33.064
33.046
33.028
33.01
32.994
32.979
32.965
32.952
32.94
32.929
32.919
32.91
32.902
32.896
32.89
32.886
32.884
32.882
32.881
32.881
32.88
32.878
32.875
32.871
32.865
32.858
32.848
32.837
32.823
32.808
32.792
32.775
32.759
32.743
32.728
32.716
32.706
32.699
32.695
32.695
32.699
32.707
32.719
32.737
32.761
32.792
32.832
32.881
32.941
33.011
33.094
33.189
33.296
33.413
33.539
33.672
33.811
33.952
34.094
34.234
34.369
34.497
34.616
34.723
34.818
34.899
34.966
35.02
35.06
35.087
35.102
35.107
35.102
35.089
35.068
35.041
35.009
34.975
34.94
34.905
34.872
34.841
34.813
34.789
34.769
34.753
34.74
34.731
34.724
34.719
34.716
34.715
34.713
34.712
34.71
34.708
34.705
34.7
34.695
34.688
34.679
34.669
34.657
34.644
34.631
34.617
34.603
34.588
34.572
34.556
34.538
34.52
34.502
34.484
34.465
34.447
34.429
34.412
34.396
34.382
34.37
34.36
34.352
34.347
34.345
34.345
34.348
34.352
34.359
34.367
34.375
34.384
34.392
34.399
34.405
34.41
34.414
34.416
34.417
34.417
34.414
34.409
34.402
34.392
34.381
34.367
34.352
34.336
34.32
34.304
34.288
34.271
34.255
34.239
34.223
34.208
34.193
34.178
34.163
34.147
34.132
34.117
34.101
34.086
34.07
34.054
34.038
34.023
34.008
33.994
33.981
33.97
33.959
33.949
33.939
33.931
33.924
33.919
33.914
33.91
33.907
33.906
33.904
33.903
33.902
33.901
33.899
33.896
33.892
33.886
33.878
33.869
33.859
33.849
33.837
33.827
33.816
33.806
33.796
33.787
33.779
33.773
33.767
33.763
33.76
33.758
33.757
33.755
33.754
33.752
33.75
33.747
33.744
33.742
33.738
33.735
33.73
33.725
33.72
33.713
33.706
33.697
33.688
33.679
33.668
33.657
33.645
33.632
33.618
33.605
33.592
33.579
33.568
33.557
33.548
33.539
33.532
33.526
33.521
33.517
33.513
33.511
33.509
33.506
33.503
33.5
33.496
33.492
33.486
33.48
33.474
33.467
33.461
33.455
33.449
33.444
33.437
33.43
33.422
33.412
33.401
33.388
33.373
33.357
33.339
33.32
33.3
33.28
33.261
33.243
33.226
33.209
33.194
33.18
33.168
33.158
33.152
33.151
33.156
33.17
33.192
33.225
33.27
33.326
33.395
33.476
33.569
33.673
33.787
33.909
34.038
34.17
34.305
34.437
34.566
34.688
34.801
34.902
34.991
35.066
35.127
35.175
35.208
35.228
35.235
35.232
35.218
35.197
35.169
35.137
35.102
35.066
