Trial 1:0back
35.362
35.428
35.501
35.577
35.653
35.729
35.801
35.87
35.934
35.992
36.045
36.091
36.131
36.163
36.189
36.208
36.218
36.221
36.215
36.2
36.177
36.145
36.107
36.061
36.009
35.951
35.886
35.813
35.733
35.646
35.552
35.45
35.344
35.232
35.119
35.005
34.894
34.784
34.675
34.568
34.462
34.356
34.25
34.145
34.041
33.939
33.84
33.743
33.649
33.559
33.473
33.39
33.309
33.231
33.156
33.083
33.012
32.943
32.876
32.812
32.749
32.689
32.63
32.573
32.518
32.468
32.423
32.383
32.349
32.32
32.295
32.275
32.259
32.246
32.237
32.231
32.23
32.231
32.233
32.238
32.242
32.245
32.245
32.243
32.239
32.232
32.223
32.213
32.204
32.198
32.195
32.194
32.194
32.195
32.195
32.193
32.188
32.18
32.168
32.153
32.134
32.113
32.088
32.059
32.027
31.993
31.957
31.918
31.878
31.836
31.791
31.744
31.696
31.646
31.595
31.545
31.495
31.446
31.399
31.355
31.316
31.284
31.262
31.253
31.259
31.284
31.332
31.407
31.516
31.663
31.85
32.08
32.353
32.669
33.031
33.438
33.888
34.375
34.893
35.434
35.988
36.546
37.099
37.636
38.149
38.631
39.074
39.474
39.827
40.132
40.389
40.6
40.766
40.892
40.982
41.038
41.065
41.065
41.042
40.999
40.939
40.863
40.773
40.671
40.56
40.441
40.314
40.182
40.046
39.906
39.764
39.619
39.471
39.319
39.166
39.01
38.852
38.692
38.53
38.365
38.198
38.028
37.857
37.683
37.507
37.329
37.151
36.973
36.795
36.62
36.449
36.283
36.125
35.975
35.835
35.707
35.592
35.492
35.407
35.339
35.288
35.255
35.24
35.241
35.259
35.291
35.337
35.392
35.456
35.526
35.6
35.675
35.749
35.821
35.889
35.953
36.011
36.062
36.107
36.144
36.173
36.195
36.21
36.219
36.223
36.219
36.208
36.189
36.161
36.124
36.078
36.024
35.959
35.885
35.801
35.71
35.613
35.512
35.407
35.3
35.191
35.081
34.971
34.86
34.751
34.642
34.534
34.427
34.32
34.214
34.109
34.003
33.897
33.79
33.683
33.577
33.472
33.371
33.274
33.182
33.095
33.013
32.936
32.862
32.792
32.726
32.663
32.602
32.545
32.491
32.441
32.396
32.355
32.317
32.282
32.249
32.218
32.188
32.16
32.133
32.108
32.085
32.064
32.047
32.033
32.022
32.014
32.009
32.005
32.001
31.998
31.995
31.991
31.987
31.981
31.976
31.972
31.967
31.964
31.961
31.958
31.956
31.953
31.949
31.942
31.934
31.923
31.912
31.9
31.888
31.876
31.865
31.854
31.844
31.833
31.822
31.809
31.796
31.779
31.759
31.733
31.701
31.664
31.621
31.574
31.523
31.471
31.417
31.363
31.308
31.254
31.201
31.15
31.105
31.069
31.045
31.037
31.051
31.091
31.163
31.272
31.425
31.627
31.883
32.195
32.563
32.986
33.46
33.981
34.54
35.128
35.735
36.351
36.963
37.562
38.138
38.681
39.184
39.642
40.051
40.41
40.718
40.976
41.187
41.355
41.481
41.569
41.623
41.646
41.642
41.615
41.569
41.505
41.428
41.339
41.241
41.136
41.025
40.907
40.784
40.654
40.518
40.377
40.23
40.079
39.924
39.766
39.607
39.449
39.291
39.134
38.978
38.822
38.665
38.507
38.347
38.186
38.024
37.863
37.702
37.542
37.383
37.225
37.07
36.918
36.77
36.628
36.494
36.369
36.255
36.154
36.065
35.991
35.932
35.888
35.858
35.841
35.837
35.844
35.86
35.883
35.914
35.952
35.995
36.043
36.094
36.146
36.197
36.245
36.289
36.328
36.36
36.383
36.394
36.391
36.376
36.351
36.319
36.283
36.244
36.203
36.161
36.117
36.071
36.022
35.969
35.912
35.849
35.781
35.707
35.629
35.547
35.46
35.369
35.275
35.179
35.082
34.985
34.886
34.787
34.687
34.585
34.483
34.379
34.274
34.169
34.063
33.956
33.85
33.745
33.639
33.536
33.434
33.337
33.245
33.159
33.081
33.01
32.944
32.883
32.825
32.768
32.714
32.66
32.608
32.557
32.509
32.465
32.425
32.389
32.36
32.336
32.317
32.302
32.29
32.281
32.273
32.265
32.257
32.25
32.245
32.24
32.235
32.23
32.226
32.222
32.218
32.214
32.209
32.203
32.195
32.185
32.173
32.159
32.143
32.126
32.109
32.093
32.078
32.065
32.053
32.042
32.031
32.021
32.01
31.998
31.985
31.971
31.956
31.94
31.923
31.904
31.883
31.859
31.832
31.801
31.767
31.729
31.688
31.643
31.595
31.544
31.492
31.439
31.385
31.332
31.28
31.229
31.18
31.135
31.093
31.056
31.027
31.008
31.003
31.019
31.061
31.134
31.245
31.399
31.601
31.858
32.171
32.543
32.972
33.455
33.984
34.553
35.152
35.771
36.398
37.022
37.631
38.216
38.766
39.275
39.735
40.144
40.498
40.798
41.045
41.242
41.391
41.499
41.57
41.608
41.619
41.606
41.573
41.525
41.464
41.394
41.316
41.232
41.141
41.044
40.94
40.829
40.709
40.582
40.445
40.3
40.147
39.987
39.821
39.65
39.476
39.298
39.12
38.942
38.764
38.587
38.412
38.237
38.062
37.889
37.716
37.546
37.38
37.217
37.059
36.906
36.758
36.615
36.48
36.352
36.233
36.124
36.027
35.943
35.875
35.824
35.791
35.776
35.778
35.796
35.828
35.871
35.924
35.983
36.048
36.114
36.181
36.246
36.31
36.371
36.426
36.476
36.519
36.554
36.579
36.594
36.599
36.593
36.578
36.555
36.525
36.489
36.448
36.402
36.352
36.299
36.241
36.178
36.109
36.033
35.951
35.862
35.767
35.667
35.564
35.459
35.352
35.245
35.135
35.023
34.909
34.793
34.675
34.556
34.437
34.32
34.206
34.096
33.99
33.89
33.793
33.7
33.61
33.522
33.435
33.349
33.265
33.181
33.1
33.02
32.944
32.87
32.8
32.733
32.672
32.614
32.562
32.517
32.478
32.445
32.417
32.393
32.373
32.355
32.338
32.321
32.305
32.288
32.271
32.254
32.237
32.22
32.202
32.186
32.17
32.156
32.144
32.134
32.127
32.122
32.118
32.116
32.113
32.109
32.103
32.094
32.082
32.068
32.052
32.036
32.021
32.008
31.996
31.986
31.976
31.967
31.957
31.947
31.936
31.926
31.914
31.903
31.89
31.878
31.864
31.85
31.836
31.819
31.8
31.777
31.751
31.722
31.687
31.647
31.6
31.549
31.492
31.433
31.372
31.313
31.257
31.204
31.154
31.107
31.061
31.015
30.968
30.921
30.874
30.831
30.794
30.766
30.751
30.75
30.77
30.817
30.897
31.02
31.194
31.424
31.714
32.063
32.471
32.933
33.445
33.999
34.586
35.196
35.819
36.443
37.056
37.65
38.214
38.741
39.227
39.667
40.059
40.403
40.699
40.946
41.147
41.304
41.418
41.495
41.535
41.545
41.526
41.484
41.422
41.343
41.249
41.144
41.029
40.906
40.776
40.641
40.5
40.356
40.208
40.057
39.905
39.75
39.592
39.43
39.264
39.094
38.919
38.739
38.555
38.368
38.178
37.987
37.797
37.607
37.42
37.234
37.052
36.873
36.698
36.527
36.361
36.202
36.052
35.913
35.788
35.678
35.586
35.513
35.458
35.422
35.404
35.402
35.416
35.445
35.486
35.54
35.604
35.677
35.758
35.843
35.932
36.021
36.109
36.193
36.271
36.344
36.408
36.465
36.513
36.553
36.584
36.606
36.618
36.621
36.613
36.594
36.564
36.522
36.47
36.407
36.336
36.257
36.172
36.083
35.992
35.898
35.802
35.704
35.605
35.502
35.397
35.289
35.18
35.07
34.958
34.846
34.734
34.623
34.515
34.411
34.312
34.216
34.123
34.03
33.937
33.842
33.747
33.651
33.554
33.458
33.363
33.271
33.181
33.095
33.014
32.937
32.866
32.799
32.737
32.681
32.629
32.581
32.539
32.501
32.469
32.44
32.416
32.395
32.378
32.363
32.35
32.337
32.324
32.312
32.3
32.289
32.282
32.277
32.277
32.282
32.289
32.3
32.313
32.327
32.341
32.354
32.367
32.378
32.388
32.398
32.406
32.412
32.417
32.418
32.417
32.412
32.402
32.389
32.372
32.352
32.329
32.303
32.274
32.244
32.212
32.179
32.145
32.109
32.073
32.035
31.995
31.954
31.909
31.862
31.811
31.757
31.7
31.642
31.583
31.526
31.471
31.418
31.37
31.326
31.288
31.259
31.242
31.241
31.261
31.311
31.397
31.524
31.698
31.921
32.197
32.525
32.905
33.332
33.803
34.31
34.848
35.407
35.978
36.553
37.121
37.673
38.2
38.694
39.147
39.555
39.913
40.22
40.476
40.682
40.841
40.956
41.032
41.074
41.084
41.067
41.028
40.97
40.896
40.808
40.709
40.6
40.484
40.361
40.232
40.099
39.959
39.814
39.661
39.501
39.333
39.157
38.974
38.784
38.59
38.392
38.192
37.989
37.784
37.577
37.366
37.153
36.938
36.72
36.501
36.281
36.063
35.85
35.644
35.45
35.269
35.106
34.96
34.833
34.728
34.643
34.581
34.542
34.526
34.534
34.563
34.614
34.682
34.767
34.865
34.973
35.088
35.205
35.318
35.423
35.52
35.613
35.704
35.796
35.891
35.986
36.079
36.167
36.247
36.314
36.367
36.403
36.42
36.42
36.402
36.368
36.32
36.259
36.186
36.104
36.012
35.914
35.808
35.697
35.582
35.464
35.345
35.226
35.108
34.992
34.878
34.767
34.656
34.547
34.437
34.325
34.211
34.096
33.98
33.863
33.748
33.635
33.524
33.418
33.315
33.217
33.124
33.035
32.952
32.872
32.798
32.728
32.663
32.603
32.547
32.497
32.451
32.411
32.376
32.344
32.315
32.288
32.262
32.235
32.21
32.184
32.159
32.134
32.112
32.093
32.077
32.065
32.057
32.053
32.051
32.05
32.05
32.05
32.049
32.047
32.044
32.04
32.036
32.032
32.028
32.026
32.027
32.03
32.033
32.035
32.036
32.035
32.031
32.024
32.015
32.005
31.993
31.98
31.966
31.951
31.935
31.918
31.901
31.883
31.864
31.843
31.821
31.796
31.77
31.742
31.711
31.678
31.643
31.604
31.563
31.518
31.471
31.421
31.37
31.319
31.269
31.222
31.18
31.145
31.12
31.109
31.113
31.139
31.189
31.27
31.387
31.547
31.757
32.023
32.347
32.731
33.174
33.67
34.215
34.798
35.41
36.039
36.672
37.299
37.91
38.495
39.048
39.559
40.025
40.44
40.802
41.111
41.366
41.571
41.727
41.837
41.907
41.942
41.947
41.926
41.884
41.823
41.747
41.658
41.556
41.444
41.322
41.191
41.054
40.91
40.761
40.607
40.451
40.292
40.132
39.968
39.8
39.628
39.451
39.269
39.083
38.891
38.697
38.5
38.302
38.104
37.91
37.718
37.532
37.351
37.174
37.002
36.835
36.673
36.517
36.37
36.234
36.11
36.001
35.909
35.833
35.775
35.735
35.713
35.706
35.716
35.74
35.778
35.828
35.888
35.958
36.035
36.116
36.2
36.285
36.367
36.446
36.518
36.583
36.64
36.689
36.73
36.761
36.785
36.801
36.808
36.806
36.794
36.773
36.741
36.701
36.653
36.597
36.535
36.467
36.394
36.315
36.233
36.145
36.054
35.959
35.86
35.756
35.647
35.534
35.417
35.297
35.174
35.05
34.926
34.802
34.679
34.559
34.44
34.322
34.206
34.091
33.978
33.867
33.759
33.656
33.559
33.467
33.382
33.305
33.235
33.17
33.111
33.054
33.0
32.947
32.896
32.846
32.796
32.745
32.69
32.633
32.574
32.516
32.46
32.407
32.36
32.319
32.284
32.257
32.238
32.226
32.222
32.225
32.232
32.244
32.258
32.272
32.286
32.299
32.308
32.315
32.318
32.318
32.315
32.31
32.303
32.295
32.286
32.276
32.267
32.258
32.248
32.238
32.228
32.217
32.206
32.195
32.186
32.177
32.169
32.161
32.153
32.145
32.135
32.124
32.111
32.097
32.08
32.062
32.042
32.021
31.998
31.974
31.948
31.92
31.889
31.854
31.815
31.772
31.724
31.672
31.616
31.557
31.496
31.434
31.372
31.312
31.256
31.205
31.161
31.129
31.112
31.116
31.145
31.206
31.304
31.447
31.641
31.89
32.198
32.567
32.997
33.484
34.022
34.604
35.22
35.859
36.508
37.157
37.793
38.406
38.986
39.527
40.021
40.465
40.853
41.187
41.465
41.688
41.861
41.987
42.07
42.117
42.132
42.121
42.086
42.033
41.964
41.882
41.788
41.685
41.574
41.456
41.332
41.202
41.069
40.931
40.788
40.64
40.487
40.33
40.169
40.004
39.837
39.669
39.499
39.327
39.154
38.979
38.803
38.624
38.443
38.259
38.074
37.887
37.701
37.515
37.332
37.155
36.984
36.823
36.673
36.536
36.413
36.306
36.214
36.138
36.078
36.035
36.008
35.998
36.004
36.026
36.061
36.108
36.164
36.228
36.299
36.373
36.45
36.527
36.601
36.671
36.737
36.796
36.85
36.897
36.939
36.973
36.999
37.015
37.02
37.014
36.995
36.965
36.925
36.874
36.815
36.747
36.672
36.589
36.5
36.405
36.304
36.199
36.09
35.977
35.862
35.745
35.626
35.505
35.384
35.262
35.138
35.013
34.887
34.76
34.635
34.512
34.392
34.276
34.165
34.06
33.96
33.866
33.777
33.692
33.611
33.532
33.455
33.379
33.305
33.232
33.161
33.092
33.027
32.965
32.907
32.851
32.799
32.748
32.701
32.656
32.614
32.574
32.536
32.501
32.468
32.437
32.41
32.386
32.365
32.346
32.331
32.318
32.308
32.3
32.293
32.288
32.283
32.278
32.272
32.266
32.26
32.253
32.245
32.237
32.229
32.221
32.211
32.201
32.19
32.179
32.167
32.157
32.151
32.148
32.148
32.15
32.152
32.152
32.148
32.138
32.122
32.1
32.072
32.04
32.004
31.964
31.922
31.878
31.832
31.784
31.734
31.681
31.627
31.571
31.513
31.456
31.398
31.34
31.282
31.226
31.172
31.122
31.077
31.039
31.013
31.001
31.009
31.04
31.102
31.201
31.342
31.532
31.775
32.076
32.436
32.853
33.326
33.848
34.412
35.009
35.629
36.26
36.89
37.508
38.101
38.657
39.164
39.618
40.014
40.352
40.636
40.867
41.052
41.194
41.3
41.375
41.423
41.45
41.458
41.45
41.425
41.385
41.331
41.263
41.18
41.084
40.975
40.855
40.725
40.586
40.44
40.287
40.129
39.966
39.798
39.626
39.45
39.271
39.089
38.904
38.716
38.527
38.336
38.143
37.949
37.753
37.557
37.362
37.169
36.981
36.799
36.625
36.461
36.306
36.163
36.035
35.922
35.827
35.749
35.688
35.644
35.616
35.604
35.606
35.623
35.655
35.702
35.763
35.836
35.918
36.007
36.098
36.19
36.281
36.368
36.451
36.529
36.601
36.666
36.723
36.772
36.812
36.842
36.861
36.869
36.864
36.848
36.82
36.78
36.729
36.668
36.599
36.522
36.439
36.351
36.259
36.164
36.066
35.966
35.863
35.757
35.649
35.54
35.43
35.319
35.209
35.098
34.988
34.877
34.766
34.654
34.541
34.426
34.312
34.199
34.088
33.981
33.878
33.78
33.686
33.597
33.511
33.429
33.349
33.272
33.198
33.127
33.061
32.999
32.944
32.895
32.853
32.818
32.789
32.765
32.745
32.728
32.711
32.696
32.683
32.67
32.66
32.652
32.647
32.645
32.644
32.645
32.646
32.648
32.649
32.65
32.651
32.652
32.654
32.656
32.66
32.665
32.671
32.676
32.682
32.688
32.692
32.695
32.697
32.697
32.695
32.69
32.683
32.672
32.659
32.643
32.625
32.604
32.579
32.551
32.52
32.486
32.448
32.407
32.362
32.316
32.267
32.218
32.169
32.121
32.073
32.027
31.982
31.939
31.897
31.858
31.821
31.789
31.764
31.75
31.751
31.772
31.82
31.899
32.014
32.168
32.366
32.61
32.902
33.241
33.627
34.057
34.527
35.03
35.559
36.105
36.66
37.212
37.752
38.27
38.757
39.207
39.614
39.976
40.293
40.564
40.788
40.967
41.104
41.202
41.263
41.292
41.292
41.267
41.22
41.155
41.076
40.985
40.885
40.777
40.661
40.538
40.408
40.272
40.129
39.98
39.825
39.665
39.5
39.33
39.157
38.981
38.801
38.618
38.431
38.24
38.048
37.853
37.656
37.459
37.262
37.064
36.868
36.674
36.486
36.305
36.134
35.972
35.822
35.685
35.56
35.45
35.358
35.283
35.229
35.194
35.179
35.183
35.205
35.244
35.299
35.368
35.449
35.541
35.64
35.744
35.852
35.96
36.066
36.168
36.264
36.35
36.424
36.486
36.534
36.568
36.589
36.599
36.599
36.59
36.573
36.548
36.515
36.475
36.426
36.369
36.305
36.233
36.155
36.071
35.984
35.894
35.801
35.707
35.611
35.513
35.412
35.309
35.203
35.093
34.982
34.868
34.752
34.636
34.52
34.405
34.292
34.181
34.073
33.968
33.865
33.764
33.665
33.569
33.476
33.388
33.305
33.228
33.157
33.091
33.03
32.974
32.922
32.874
32.828
32.786
32.746
32.709
32.674
32.642
32.613
32.587
32.564
32.544
32.528
32.516
32.508
32.504
32.503
32.505
32.508
32.511
32.513
32.514
32.515
32.514
32.512
32.507
32.501
32.492
32.482
32.469
32.455
32.441
32.426
32.414
32.403
32.394
32.388
32.384
32.384
32.386
32.394
32.405
32.417
32.429
32.438
32.443
32.44
32.431
32.413
32.387
32.354
32.314
32.269
32.218
32.164
32.106
32.047
31.988
31.93
31.874
31.82
31.769
31.722
31.679
31.642
31.611
31.589
31.579
31.585
31.612
31.665
31.749
31.87
32.034
32.246
32.508
32.824
33.193
33.615
34.086
34.602
35.153
35.731
36.326
36.927
37.523
38.105
38.662
39.187
39.672
40.112
40.502
40.84
41.125
41.358
41.542
41.679
41.775
41.834
41.86
41.858
41.832
41.787
41.726
41.652
41.569
41.478
41.382
41.282
41.18
41.074
40.963
40.847
40.723
40.591
40.451
40.303
40.147
39.984
39.815
39.641
39.464
39.285
39.103
38.92
38.737
38.552
38.367
38.182
37.997
37.813
37.631
37.453
37.279
37.111
36.952
36.802
36.663
36.537
36.426
36.329
36.248
36.184
36.137
36.108
36.095
36.097
36.114
36.144
36.184
36.233
36.289
36.348
36.411
36.474
36.537
36.598
36.659
36.719
36.778
36.833
36.883
36.927
36.961
36.985
36.998
36.999
36.989
36.968
36.937
36.898
36.852
36.799
36.741
36.676
36.606
36.53
36.448
36.362
36.271
36.174
36.073
35.969
35.862
35.751
35.638
35.521
35.403
35.282
35.161
35.04
34.919
34.8
34.685
34.574
34.468
34.367
34.272
34.182
34.096
34.015
33.936
33.861
33.787
33.715
33.643
33.572
33.502
33.434
33.368
33.306
33.248
33.193
33.143
33.097
33.053
33.011
32.97
32.93
32.89
32.852
32.815
32.781
32.749
32.721
32.696
32.677
32.661
32.65
32.642
32.637
32.634
32.633
32.633
32.634
32.636
32.639
32.643
32.647
32.652
32.656
32.658
32.66
32.66
32.658
32.653
32.646
32.636
32.625
32.612
32.598
32.584
32.57
32.556
32.542
32.527
32.511
32.493
32.473
32.45
32.425
32.397
32.368
32.337
32.304
32.268
32.229
32.187
32.142
32.093
32.041
31.988
31.933
31.878
31.824
31.771
31.721
31.674
31.632
31.595
31.568
31.551
31.549
31.567
31.609
31.683
31.792
31.944
32.142
32.391
32.694
33.05
33.457
33.912
34.408
34.936
35.488
36.054
36.627
37.198
37.757
38.297
38.811
39.291
39.732
40.13
40.48
40.783
41.037
41.244
41.406
41.527
41.61
41.658
41.676
41.669
41.639
41.589
41.524
41.448
41.361
41.267
41.167
41.061
40.951
40.836
40.716
40.591
40.459
40.319
40.171
40.014
39.849
39.678
39.502
39.323
39.142
38.961
38.78
38.599
38.42
38.241
38.063
37.886
37.71
37.535
37.361
37.19
37.023
36.862
36.71
36.568
36.439
36.324
36.225
36.142
36.076
36.026
35.994
35.979
35.98
35.997
36.029
36.073
36.127
36.19
36.257
36.327
36.396
36.464
36.528
36.589
36.644
36.693
36.737
36.773
36.801
36.822
36.833
36.836
36.829
36.814
36.791
36.761
36.724
36.68
36.631
36.577
36.517
36.451
36.381
36.304
36.222
36.134
36.042
35.944
35.843
35.739
35.633
35.525
35.415
35.304
35.192
35.079
34.965
34.848
34.731
34.613
34.495
34.379
34.265
34.156
34.05
33.949
33.852
33.76
33.671
33.584
33.501
33.42
33.343
33.268
33.198
33.131
33.07
33.014
32.963
32.917
32.874
32.832
32.791
32.749
32.707
32.665
32.626
32.589
32.557
32.529
32.507
32.491
32.479
32.472
32.469
32.469
32.471
32.473
32.477
32.481
32.485
32.489
32.491
32.491
32.49
32.488
32.484
32.479
32.472
32.463
32.452
32.44
32.426
32.41
32.393
32.376
32.358
32.34
32.321
32.303
32.285
32.266
32.247
32.226
32.203
32.175
32.143
32.107
32.065
32.019
31.968
31.908
31.84
31.765
31.685
31.603
31.523
31.448
31.383
31.332
31.299
31.287
31.3
31.342
31.415
31.522
31.666
31.848
32.069
32.333
32.64
32.991
33.386
33.824
34.3
34.809
35.344
35.897
36.458
37.017
37.565
38.092
38.589
39.052
39.473
39.85
40.179
40.461
40.694
40.88
41.022
41.121
41.182
41.207
41.2
41.166
41.11
41.037
40.952
40.858
40.759
40.656
40.549
40.439
40.325
40.207
40.083
39.955
39.82
39.681
39.535
39.384
39.228
39.066
38.899
38.728
38.552
38.372
38.19
38.006
37.82
37.632
37.445
37.258
37.074
36.892
36.714
36.541
36.374
36.215
36.066
35.931
35.812
35.71
35.628
35.566
