Trial 1:0back
34.376
34.436
34.507
34.587
34.677
34.776
34.884
34.999
35.117
35.238
35.359
35.479
35.595
35.705
35.809
35.906
35.994
36.073
36.142
36.201
36.251
36.293
36.328
36.356
36.38
36.4
36.417
36.432
36.443
36.453
36.461
36.468
36.474
36.48
36.486
36.492
36.498
36.503
36.508
36.511
36.513
36.513
36.513
36.512
36.511
36.51
36.51
36.51
36.508
36.505
36.5
36.493
36.483
36.47
36.454
36.434
36.411
36.387
36.362
36.339
36.317
36.297
36.278
36.261
36.245
36.23
36.217
36.205
36.194
36.184
36.175
36.167
36.16
36.156
36.152
36.147
36.142
36.135
36.127
36.118
36.108
36.098
36.087
36.074
36.06
36.045
36.031
36.017
36.005
35.993
35.982
35.97
35.956
35.941
35.924
35.905
35.884
35.861
35.836
35.81
35.783
35.756
35.729
35.703
35.678
35.654
35.631
35.61
35.59
35.572
35.555
35.54
35.527
35.513
35.5
35.485
35.468
35.449
35.429
35.409
35.388
35.366
35.345
35.324
35.302
35.281
35.259
35.238
35.217
35.196
35.174
35.151
35.126
35.101
35.075
35.048
35.022
34.997
34.973
34.951
34.931
34.914
34.901
34.891
34.884
34.879
34.875
34.873
34.871
34.868
34.865
34.862
34.859
34.855
34.851
34.846
34.841
34.834
34.826
34.817
34.806
34.794
34.781
34.768
34.753
34.737
34.719
34.7
34.681
34.66
34.639
34.617
34.597
34.578
34.562
34.549
34.537
34.527
34.516
34.506
34.494
34.482
34.47
34.456
34.443
34.429
34.415
34.402
34.388
34.375
34.361
34.347
34.333
34.318
34.304
34.289
34.275
34.262
34.249
34.238
34.228
34.219
34.21
34.204
34.202
34.205
34.216
34.239
34.273
34.319
34.373
34.433
34.498
34.571
34.652
34.742
34.842
34.951
35.067
35.189
35.314
35.439
35.563
35.682
35.794
35.898
35.993
36.076
36.15
36.212
36.264
36.306
36.338
36.361
36.376
36.386
36.391
36.393
36.393
36.392
36.391
36.391
36.39
36.39
36.392
36.394
36.398
36.404
36.411
36.42
36.428
36.435
36.442
36.447
36.45
36.451
36.448
36.444
36.437
36.428
36.418
36.407
36.395
36.382
36.368
36.352
36.333
36.312
36.289
36.265
36.238
36.211
36.184
36.157
36.131
36.107
36.086
36.067
36.052
36.039
36.029
36.02
36.012
36.007
36.003
35.999
35.994
35.986
35.975
35.962
35.947
35.93
35.912
35.894
35.877
35.862
35.851
35.843
35.84
35.84
35.842
35.844
35.847
35.85
35.852
35.852
35.851
35.847
35.84
35.83
35.816
35.8
35.781
35.76
35.737
35.712
35.685
35.655
35.624
35.591
35.558
35.524
35.49
35.456
35.423
35.39
35.359
35.329
35.298
35.268
35.238
35.207
35.177
35.149
35.124
35.104
35.089
35.078
35.071
35.067
35.065
35.064
35.063
35.063
35.064
35.064
35.063
35.061
35.055
35.047
35.036
35.022
35.006
34.987
34.968
34.946
34.924
34.9
34.877
34.853
34.831
34.81
34.791
34.772
34.755
34.737
34.72
34.704
34.688
34.673
34.659
34.647
34.636
34.626
34.617
34.609
34.601
34.594
34.586
34.577
34.568
34.557
34.544
34.529
34.512
34.495
34.478
34.46
34.443
34.427
34.412
34.397
34.382
34.369
34.357
34.345
34.332
34.319
34.305
34.29
34.275
34.26
34.245
34.23
34.214
34.198
34.184
34.171
34.161
34.154
34.149
34.146
34.144
34.142
34.139
34.136
34.132
34.128
34.124
34.12
34.117
34.114
34.111
34.11
34.112
34.119
34.131
34.151
34.181
34.222
34.277
34.346
34.43
34.53
34.642
34.765
34.896
35.032
35.172
35.313
35.454
35.593
35.729
35.858
35.979
36.09
36.19
36.278
36.352
36.414
36.465
36.505
36.537
36.562
36.582
36.598
36.609
36.618
36.624
36.629
36.634
36.64
36.647
36.654
36.661
36.668
36.674
36.68
36.686
36.691
36.697
36.704
36.711
36.716
36.721
36.724
36.726
36.726
36.724
36.722
36.72
36.718
36.716
36.715
36.713
36.711
36.708
36.703
36.696
36.687
36.676
36.663
36.648
36.631
36.613
36.593
36.573
36.551
36.528
36.505
36.481
36.457
36.434
36.411
36.389
36.368
36.35
36.334
36.321
36.312
36.305
36.3
36.296
36.293
36.291
36.287
36.281
36.271
36.258
36.242
36.224
36.205
36.186
36.168
36.151
36.136
36.121
36.108
36.095
36.082
36.068
36.053
36.036
36.016
35.994
35.971
35.945
35.917
35.889
35.859
35.829
35.8
35.772
35.745
35.72
35.698
35.677
35.659
35.642
35.625
35.608
35.591
35.573
35.554
35.534
35.512
35.48
35.439
35.389
35.333
35.275
35.219
35.17
35.128
35.095
35.071
35.054
35.045
35.043
35.046
35.054
35.065
35.076
35.087
35.095
35.101
35.103
35.102
35.097
35.089
35.077
35.061
35.044
35.026
35.006
34.986
34.966
34.945
34.924
34.901
34.878
34.855
34.831
34.808
34.786
34.765
34.746
34.729
34.713
34.698
34.683
34.669
34.655
34.641
34.627
34.613
34.599
34.586
34.572
34.558
34.544
34.53
34.516
34.503
34.489
34.475
34.462
34.449
34.435
34.421
34.407
34.391
34.374
34.356
34.337
34.318
34.3
34.282
34.264
34.248
34.23
34.208
34.178
34.142
34.101
34.058
34.018
33.982
33.952
33.929
33.915
33.909
33.911
33.919
33.935
33.957
33.984
34.016
34.056
34.103
34.16
34.226
34.301
34.385
34.477
34.577
34.683
34.797
34.917
35.043
35.171
35.301
35.431
35.559
35.684
35.803
35.916
36.019
36.113
36.196
36.269
36.33
36.381
36.423
36.455
36.479
36.497
36.509
36.517
36.523
36.527
36.532
36.536
36.539
36.541
36.543
36.545
36.548
36.553
36.559
36.567
36.576
36.584
36.591
36.597
36.6
36.601
36.6
36.597
36.592
36.587
36.58
36.573
36.566
36.557
36.546
36.533
36.518
36.502
36.483
36.462
36.438
36.413
36.386
36.359
36.332
36.305
36.278
36.253
36.229
36.208
36.19
36.175
36.162
36.15
36.14
36.131
36.124
36.119
36.115
36.111
36.107
36.103
36.097
36.091
36.084
36.077
36.07
36.063
36.057
36.051
36.044
36.036
36.026
36.013
35.997
35.981
35.962
35.944
35.925
35.905
35.883
35.86
35.835
35.808
35.78
35.753
35.726
35.7
35.675
35.652
35.629
35.606
35.583
35.559
35.534
35.51
35.486
35.46
35.434
35.407
35.38
35.355
35.33
35.306
35.284
35.263
35.241
35.22
35.197
35.176
35.155
35.135
35.115
35.098
35.082
35.07
35.059
35.049
35.04
35.03
35.019
35.006
34.993
34.98
34.966
34.953
34.94
34.926
34.912
34.897
34.881
34.866
34.851
34.836
34.821
34.806
34.79
34.772
34.752
34.731
34.708
34.685
34.662
34.64
34.617
34.595
34.573
34.552
34.532
34.515
34.5
34.489
34.48
34.472
34.464
34.454
34.442
34.427
34.411
34.394
34.376
34.359
34.343
34.327
34.311
34.296
34.281
34.267
34.253
34.239
34.226
34.214
34.204
34.195
34.188
34.182
34.176
34.169
34.16
34.148
34.134
34.119
34.103
34.088
34.074
34.061
34.049
34.037
34.025
34.013
34.002
33.991
33.982
33.975
33.972
33.973
33.979
33.992
34.013
34.043
34.084
34.137
34.202
34.279
34.367
34.465
34.573
34.688
34.809
34.933
35.06
35.187
35.312
35.434
35.549
35.656
35.754
35.84
35.914
35.976
36.025
36.064
36.093
36.114
36.129
36.138
36.144
36.147
36.149
36.149
36.149
36.149
36.148
36.148
36.15
36.152
36.157
36.164
36.173
36.182
36.19
36.196
36.199
36.2
36.199
36.198
36.196
36.194
36.191
36.186
36.179
36.17
36.16
36.148
36.135
36.12
36.103
36.082
36.06
36.035
36.01
35.983
35.954
35.925
35.897
35.869
35.843
35.819
35.798
35.78
35.763
35.749
35.737
35.727
35.72
35.716
35.714
35.714
35.718
35.725
35.733
35.743
35.753
35.764
35.775
35.784
35.791
35.796
35.797
35.794
35.787
35.774
35.756
35.733
35.706
35.677
35.646
35.613
35.579
35.545
35.511
35.478
35.446
35.415
35.387
35.362
35.34
35.32
35.301
35.283
35.265
35.248
35.231
35.214
35.198
35.182
35.166
35.151
35.134
35.117
35.101
35.086
35.072
35.061
35.052
35.044
35.037
35.029
35.02
35.01
34.997
34.981
34.964
34.944
34.922
34.898
34.874
34.849
34.826
34.805
34.786
34.767
34.748
34.73
34.711
34.693
34.678
34.664
34.652
34.642
34.632
34.624
34.616
34.61
34.604
34.6
34.596
34.593
34.59
34.587
34.585
34.583
34.58
34.577
34.572
34.565
34.554
34.54
34.522
34.503
34.482
34.462
34.442
34.422
34.402
34.381
34.361
34.342
34.324
34.308
34.294
34.281
34.271
34.261
34.253
34.246
34.239
34.234
34.229
34.224
34.219
34.212
34.204
34.196
34.187
34.178
34.17
34.162
34.153
34.144
34.134
34.125
34.116
34.108
34.101
34.095
34.09
34.085
34.08
34.075
34.071
34.067
34.066
34.069
34.077
34.093
34.118
34.152
34.197
34.255
34.326
34.408
34.503
34.607
34.719
34.837
34.958
35.082
35.207
35.331
35.452
35.57
35.683
35.788
35.886
35.976
36.058
36.131
36.194
36.247
36.291
36.327
36.356
36.379
36.399
36.416
36.43
36.444
36.455
36.466
36.475
36.483
36.489
36.495
36.5
36.504
36.509
36.515
36.521
36.528
36.535
36.541
36.546
36.55
36.555
36.559
36.564
36.569
36.575
36.581
36.586
36.588
36.589
36.588
36.585
36.58
36.573
36.562
36.55
36.535
36.519
36.502
36.485
36.466
36.447
36.428
36.409
36.39
36.372
36.354
36.335
36.317
36.299
36.281
36.264
36.249
36.236
36.224
36.213
36.202
36.191
36.179
36.167
36.153
36.138
36.123
36.109
36.097
36.087
36.078
36.072
36.067
36.063
36.06
36.057
36.054
36.05
36.045
36.038
36.028
36.014
35.997
35.975
35.95
35.922
35.893
35.864
35.835
35.805
35.776
35.745
35.714
35.682
35.649
35.616
35.585
35.556
35.528
35.502
35.477
35.453
35.43
35.41
35.39
35.37
35.351
35.333
35.315
35.297
35.28
35.264
35.249
35.236
35.225
35.216
35.207
35.2
35.193
35.187
35.182
35.177
35.171
35.164
35.157
35.148
35.139
35.129
35.118
35.106
35.092
35.076
35.057
35.036
35.011
34.984
34.955
34.924
34.893
34.861
34.83
34.801
34.774
34.749
34.728
34.709
34.693
34.681
34.673
34.669
34.667
34.665
34.663
34.659
34.654
34.647
34.638
34.628
34.616
34.603
34.589
34.572
34.553
34.532
34.508
34.483
34.458
34.433
34.409
34.387
34.366
34.347
34.33
34.315
34.304
34.295
34.289
34.284
34.283
34.29
34.305
34.327
34.354
34.382
34.406
34.425
34.437
34.441
34.435
34.422
34.402
34.377
34.351
34.327
34.306
34.291
34.284
34.287
34.302
34.331
34.375
34.434
34.509
34.598
34.701
34.815
34.938
35.069
35.206
35.345
35.485
35.623
35.757
35.884
36.003
36.112
36.21
36.298
36.373
36.437
36.488
36.529
36.56
36.583
36.601
36.613
36.622
36.63
36.637
36.643
36.649
36.656
36.661
36.667
36.672
36.678
36.684
36.692
36.701
36.709
36.716
36.722
36.725
36.727
36.727
36.726
36.724
36.722
36.719
36.716
36.711
36.705
36.699
36.693
36.686
36.678
36.669
36.659
36.651
36.648
36.648
36.651
36.655
36.658
36.658
36.653
36.643
36.627
36.607
36.58
36.549
36.514
36.477
36.44
36.405
36.374
36.348
36.326
36.308
36.295
36.285
36.278
36.274
36.272
36.272
36.272
36.272
36.271
36.268
36.262
36.254
36.242
36.227
36.209
36.188
36.165
36.141
36.117
36.094
36.074
36.056
36.04
36.025
36.01
35.995
35.979
35.961
35.941
35.919
35.893
35.863
35.831
35.798
35.764
35.731
35.699
35.67
35.644
35.619
35.596
35.575
35.553
35.532
35.511
35.491
35.471
35.452
35.433
35.413
35.392
35.37
35.347
35.324
35.299
35.275
35.251
35.229
35.21
35.193
35.178
35.166
35.154
35.142
35.13
35.118
35.105
35.093
35.08
35.066
35.054
35.041
35.029
35.018
35.007
34.996
34.984
34.971
34.957
34.942
34.925
34.908
34.89
34.871
34.851
34.83
34.808
34.786
34.764
34.743
34.723
34.704
34.687
34.669
34.651
34.632
34.61
34.585
34.556
34.526
34.493
34.46
34.429
34.399
34.373
34.351
34.334
34.321
34.313
34.309
34.31
34.313
34.318
34.323
34.327
34.329
34.33
34.329
34.325
34.319
34.311
34.301
34.291
34.279
34.269
34.26
34.254
34.25
34.251
34.257
34.272
34.295
34.329
34.376
34.439
34.522
34.624
34.742
34.871
35.008
35.148
35.289
35.428
35.562
35.689
35.809
35.918
36.016
36.101
36.174
36.235
36.285
36.326
36.36
36.387
36.409
36.426
36.438
36.445
36.45
36.451
36.451
36.449
36.447
36.446
36.445
36.445
36.446
36.448
36.449
36.451
36.453
36.455
36.457
36.458
36.458
36.457
36.455
36.453
36.45
36.446
36.442
36.438
36.432
36.425
36.415
36.403
36.388
36.371
36.35
36.328
36.303
36.277
36.251
36.224
36.196
36.167
36.139
36.11
36.082
36.054
36.027
36.001
35.977
35.957
35.94
35.927
35.917
35.91
35.904
35.899
35.894
35.889
35.885
35.882
35.881
35.882
35.883
35.885
35.887
35.89
35.892
35.895
35.898
35.899
35.898
35.894
35.885
35.871
35.853
35.831
35.806
35.779
35.75
35.72
35.69
35.659
35.627
35.595
35.563
35.531
35.5
35.468
35.437
35.406
35.375
35.345
35.315
35.287
35.26
35.234
35.21
35.187
35.165
35.145
35.126
35.109
35.094
35.079
35.067
35.054
35.041
35.028
35.014
35.0
34.987
34.975
34.963
34.951
34.94
34.929
34.917
34.907
34.897
34.888
34.88
34.871
34.863
34.855
34.848
34.839
34.831
34.823
34.814
34.805
34.795
34.784
34.77
34.755
34.737
34.718
34.698
34.678
34.659
34.64
34.623
34.607
34.592
34.579
34.566
34.555
34.544
34.533
34.522
34.509
34.495
34.479
34.462
34.444
34.425
34.407
34.389
34.372
34.355
34.338
34.322
34.306
34.29
34.275
34.26
34.245
34.229
34.213
34.197
34.182
34.167
34.154
34.142
34.13
34.119
34.108
34.098
34.089
34.081
34.072
34.064
34.056
34.048
34.041
34.035
34.031
34.031
34.036
34.046
34.062
34.085
34.117
34.158
34.211
34.275
34.353
34.444
34.547
34.66
34.782
34.912
35.048
35.188
35.33
35.473
35.615
35.753
35.886
36.011
36.127
36.232
36.326
36.408
36.48
36.542
36.596
36.644
36.686
36.726
36.761
36.793
36.82
36.842
36.859
36.871
36.878
36.881
36.881
36.88
36.877
36.874
36.872
36.871
36.872
36.874
36.878
36.883
36.889
36.895
36.9
36.905
36.908
36.91
36.911
36.911
36.912
36.911
36.909
36.905
36.898
36.888
36.875
36.858
36.838
36.815
36.791
36.766
36.741
36.717
36.693
36.668
36.641
36.614
36.586
36.56
36.534
36.511
36.49
36.471
36.454
36.441
36.429
36.419
36.411
36.402
36.393
36.383
36.372
36.36
36.348
36.336
36.325
36.314
36.302
36.289
36.276
36.263
36.249
36.234
36.219
36.202
36.183
36.163
36.141
36.119
36.097
36.075
36.053
36.032
36.012
35.992
35.972
35.952
35.932
35.911
35.888
35.865
35.84
35.815
35.789
35.763
35.734
35.704
35.673
35.64
35.608
35.577
35.549
35.522
35.497
35.473
35.448
35.423
35.397
35.371
35.345
35.321
35.298
35.277
35.257
35.239
35.223
35.207
35.192
35.179
35.167
35.157
35.148
35.139
35.129
35.118
35.105
35.09
35.075
35.059
35.043
35.027
35.012
34.999
34.985
34.972
34.958
34.944
34.928
34.91
34.89
34.87
34.848
34.827
34.805
34.783
34.762
34.741
34.721
34.701
34.682
34.666
34.652
34.641
34.633
34.628
34.624
34.621
34.617
34.613
34.607
34.599
34.588
34.574
34.558
34.54
34.52
34.499
34.475
34.45
34.424
34.397
34.372
34.347
34.325
34.304
34.284
34.265
34.245
34.226
34.207
34.189
34.171
34.154
34.137
34.121
34.106
34.094
34.086
34.083
34.087
34.098
34.116
34.141
34.171
34.209
34.255
34.311
34.379
34.458
34.55
34.653
34.766
34.886
35.012
35.143
35.276
35.41
35.544
35.676
35.805
35.929
36.047
36.159
36.264
36.36
36.449
36.529
36.6
36.663
36.718
36.768
36.811
36.85
36.883
36.912
36.936
36.955
36.971
36.984
36.995
37.005
37.013
37.021
37.028
37.035
37.043
37.051
37.062
37.074
37.087
37.1
37.112
37.124
37.134
37.142
37.147
37.15
37.149
37.146
37.14
37.132
37.12
37.106
37.089
37.068
37.043
37.016
36.986
36.954
36.921
36.888
36.856
36.824
36.793
36.764
36.737
36.713
36.691
36.673
36.657
36.642
36.629
36.617
36.606
36.595
36.587
36.58
36.574
36.569
36.564
36.56
36.554
36.547
36.538
36.528
36.517
36.505
36.492
36.478
36.462
36.443
36.422
36.399
36.374
36.347
36.32
36.292
36.264
36.235
36.206
36.176
36.147
36.118
36.089
36.059
36.029
35.998
35.966
35.932
35.899
35.865
35.833
35.803
35.774
35.746
35.719
35.693
35.669
35.646
35.625
35.606
35.589
35.573
35.557
35.542
35.525
35.509
35.492
35.475
35.457
35.437
35.416
35.394
35.371
35.347
35.323
35.296
35.268
35.239
35.21
35.181
35.153
35.126
35.102
35.078
35.054
35.032
35.011
34.993
34.977
34.964
34.953
34.944
34.937
34.93
34.922
34.914
34.905
34.896
34.889
34.882
34.875
34.868
34.86
34.85
34.837
34.82
34.799
34.774
34.745
34.713
34.678
34.643
34.607
34.573
34.541
34.51
34.483
34.46
34.44
34.424
34.411
34.4
34.391
34.385
34.38
34.376
34.372
34.368
34.364
34.359
34.352
34.342
34.331
34.317
34.301
34.283
34.264
34.245
34.226
34.206
34.185
34.163
34.141
34.12
34.099
34.08
34.064
34.052
34.046
34.044
34.049
34.061
34.08
34.106
34.141
34.186
34.242
34.309
34.388
34.477
34.576
34.683
34.798
34.919
35.045
35.174
35.306
35.437
35.566
35.693
35.813
35.927
36.032
36.127
36.213
36.29
36.36
36.422
36.477
36.524
36.561
36.589
36.61
36.623
36.631
36.635
36.637
36.637
36.636
36.635
36.633
36.631
36.629
36.627
36.626
36.625
36.623
36.622
36.621
36.62
36.621
36.624
36.627
36.631
36.635
36.638
36.639
36.637
36.633
36.624
36.612
36.595
36.574
36.549
36.521
36.49
36.457
36.421
36.384
36.344
36.302
36.26
36.219
36.181
36.147
36.117
36.092
36.071
36.054
36.04
36.03
36.023
36.019
36.017
36.017
36.019
36.021
36.023
36.023
36.023
36.021
36.017
36.011
36.004
35.995
35.985
35.973
35.959
35.943
35.924
35.904
35.881
35.856
35.829
35.801
35.772
35.742
35.712
35.681
35.652
35.623
35.594
35.566
35.538
35.51
35.483
35.457
35.431
35.407
35.383
35.359
35.335
35.311
35.287
35.261
35.234
35.206
35.178
35.15
35.124
35.1
35.076
35.054
35.032
35.01
34.99
34.97
34.952
34.935
34.92
34.905
34.891
34.878
34.866
34.853
34.84
34.826
34.81
34.792
34.771
34.748
34.724
34.7
34.675
34.65
34.625
34.599
34.573
34.547
34.522
34.498
34.477
34.459
34.445
34.432
34.422
34.412
34.404
34.397
34.39
34.383
34.376
34.368
34.358
34.346
34.333
34.319
34.305
34.291
34.276
34.26
34.243
34.224
34.204
34.182
34.16
34.138
34.118
34.097
34.076
34.053
34.031
34.008
33.986
33.965
33.946
33.929
33.914
33.901
33.889
33.878
33.866
33.854
33.842
33.83
33.818
33.806
33.793
33.78
33.767
33.757
33.749
33.743
33.741
33.743
33.749
33.762
33.783
33.813
33.853
33.906
33.97
34.046
34.135
34.236
34.348
34.468
34.596
34.729
34.864
34.999
35.135
35.269
35.403
35.533
35.66
35.782
35.897
36.004
36.102
36.191
36.271
36.341
36.404
36.457
36.503
36.542
36.574
36.6
36.623
36.642
36.659
36.674
36.687
36.697
36.706
36.712
36.716
36.72
36.723
36.724
36.724
36.722
36.719
36.716
36.713
36.71
36.707
36.705
36.705
36.706
36.709
36.715
36.72
36.724
36.723
36.718
36.707
36.69
36.668
36.639
36.604
36.563
36.517
36.467
36.415
36.362
36.311
36.262
36.217
36.177
36.141
36.111
36.084
36.061
36.041
36.024
36.01
35.998
35.988
35.979
35.971
35.963
35.955
35.946
35.937
35.929
35.919
35.91
35.899
35.887
35.873
35.857
35.838
35.817
35.794
35.769
35.741
35.712
35.683
35.653
35.623
35.594
35.564
35.535
35.506
35.479
35.452
35.426
35.4
35.374
35.349
35.324
35.299
35.276
35.254
35.233
35.213
35.194
35.175
35.156
35.138
35.122
35.107
35.093
35.081
35.068
35.055
35.039
35.021
35.002
34.981
34.959
34.936
34.911
34.885
34.858
34.831
34.804
34.777
34.751
34.726
34.701
34.677
34.654
34.633
34.613
34.597
34.582
34.569
34.557
34.546
34.533
34.52
34.505
34.489
34.473
34.456
34.439
34.42
34.401
34.381
34.361
34.341
34.321
34.302
34.283
34.267
34.252
