Trial 1:0back
36.607
36.555
36.505
36.457
36.411
36.368
36.327
36.289
36.253
36.22
36.19
36.163
36.14
36.119
36.1
36.085
36.072
36.062
36.054
36.048
36.043
36.041
36.039
36.04
36.042
36.045
36.05
36.054
36.058
36.06
36.06
36.057
36.05
36.04
36.027
36.012
35.995
35.975
35.954
35.932
35.909
35.885
35.861
35.836
35.812
35.788
35.764
35.74
35.716
35.69
35.663
35.633
35.602
35.569
35.534
35.499
35.465
35.431
35.399
35.369
35.342
35.318
35.295
35.276
35.259
35.244
35.231
35.219
35.207
35.196
35.185
35.173
35.162
35.15
35.138
35.126
35.114
35.1
35.086
35.07
35.052
35.031
35.009
34.986
34.961
34.934
34.907
34.879
34.851
34.822
34.792
34.763
34.733
34.705
34.677
34.65
34.625
34.601
34.578
34.556
34.534
34.513
34.491
34.471
34.453
34.439
34.43
34.428
34.435
34.455
34.488
34.537
34.603
34.685
34.785
34.901
35.032
35.178
35.337
35.507
35.686
35.873
36.064
36.258
36.452
36.644
36.83
37.008
37.176
37.332
37.474
37.602
37.713
37.808
37.887
37.95
37.997
38.031
38.051
38.059
38.058
38.049
38.033
38.015
37.994
37.973
37.953
37.935
37.92
37.906
37.894
37.881
37.867
37.851
37.831
37.806
37.776
37.74
37.699
37.651
37.597
37.538
37.474
37.405
37.333
37.258
37.18
37.101
37.022
36.944
36.868
36.795
36.725
36.661
36.601
36.547
36.498
36.453
36.412
36.373
36.337
36.301
36.267
36.233
36.199
36.165
36.131
36.098
36.067
36.037
36.01
35.986
35.965
35.947
35.932
35.92
35.911
35.905
35.902
35.901
35.902
35.902
35.901
35.898
35.892
35.881
35.866
35.845
35.818
35.787
35.751
35.712
35.671
35.627
35.583
35.539
35.497
35.458
35.422
35.39
35.363
35.339
35.319
35.302
35.288
35.276
35.266
35.258
35.25
35.245
35.24
35.236
35.232
35.229
35.226
35.222
35.217
35.209
35.2
35.187
35.173
35.156
35.137
35.116
35.095
35.074
35.052
35.031
35.01
34.988
34.967
34.945
34.923
34.901
34.878
34.854
34.828
34.802
34.776
34.749
34.724
34.7
34.677
34.656
34.636
34.617
34.599
34.582
34.565
34.548
34.533
34.519
34.507
34.496
34.487
34.481
34.479
34.483
34.495
34.516
34.548
34.592
34.65
34.722
34.807
34.906
35.016
35.137
35.268
35.406
35.552
35.703
35.857
36.015
36.173
36.332
36.488
36.642
36.793
36.94
37.082
37.219
37.35
37.473
37.588
37.692
37.785
37.866
37.935
37.991
38.037
38.071
38.096
38.111
38.117
38.114
38.103
38.085
38.061
38.031
37.996
37.957
37.915
37.87
37.823
37.774
37.723
37.672
37.621
37.569
37.518
37.466
37.415
37.363
37.312
37.261
37.208
37.155
37.1
37.042
36.983
36.923
36.862
36.801
36.741
36.684
36.629
36.578
36.529
36.483
36.44
36.4
36.364
36.334
36.309
36.291
36.278
36.272
36.271
36.274
36.282
36.293
36.306
36.32
36.334
36.348
36.361
36.371
36.378
36.381
36.379
36.371
36.358
36.341
36.32
36.295
36.268
36.239
36.209
36.179
36.148
36.117
36.086
36.054
36.023
35.992
35.96
35.928
35.896
35.864
35.832
35.8
35.768
35.736
35.704
35.673
35.643
35.614
35.586
35.561
35.539
35.52
35.503
35.49
35.479
35.468
35.458
35.448
35.436
35.422
35.406
35.389
35.37
35.348
35.325
35.298
35.269
35.237
35.201
35.161
35.119
35.074
35.026
34.976
34.926
34.877
34.83
34.786
34.745
34.71
34.679
34.652
34.631
34.614
34.602
34.595
34.592
34.594
34.602
34.614
34.632
34.656
34.687
34.725
34.773
34.831
34.9
34.982
35.078
35.187
35.311
35.449
35.599
35.762
35.936
36.118
36.308
36.503
36.701
36.899
37.094
37.283
37.464
37.634
37.789
37.929
38.052
38.158
38.247
38.32
38.377
38.421
38.452
38.473
38.485
38.489
38.488
38.483
38.475
38.464
38.451
38.435
38.417
38.396
38.371
38.343
38.31
38.273
38.23
38.183
38.132
38.078
38.022
37.963
37.902
37.84
37.776
37.712
37.649
37.586
37.525
37.466
37.41
37.355
37.302
37.249
37.198
37.147
37.096
37.046
36.997
36.949
36.903
36.858
36.815
36.773
36.735
36.699
36.666
36.637
36.611
36.59
36.573
36.561
36.552
36.548
36.546
36.547
36.549
36.551
36.554
36.555
36.556
36.556
36.555
36.552
36.548
36.542
36.535
36.525
36.515
36.503
36.49
36.475
36.459
36.442
36.422
36.399
36.373
36.344
36.311
36.274
36.233
36.19
36.144
36.097
36.049
36.0
35.951
35.902
35.852
35.804
35.756
35.711
35.668
35.629
35.593
35.561
35.531
35.504
35.479
35.455
35.432
35.409
35.386
35.363
35.34
35.315
35.289
35.261
35.232
35.2
35.167
35.132
35.097
35.061
35.025
34.991
34.957
34.923
34.889
34.852
34.813
34.772
34.729
34.685
34.641
34.598
34.556
34.518
34.484
34.456
34.435
34.422
34.417
34.423
34.441
34.472
34.518
34.58
34.658
34.752
34.862
34.989
35.132
35.289
35.459
35.642
35.834
36.034
36.241
36.453
36.667
36.882
37.094
37.302
37.501
37.69
37.864
38.024
38.166
38.29
38.395
38.482
38.551
38.603
38.638
38.657
38.663
38.657
38.642
38.62
38.593
38.564
38.533
38.503
38.474
38.446
38.419
38.394
38.37
38.347
38.324
38.299
38.272
38.24
38.202
38.158
38.106
38.047
37.979
37.905
37.825
37.741
37.655
37.568
37.482
37.397
37.316
37.239
37.166
37.1
37.039
36.983
36.931
36.883
36.837
36.793
36.75
36.708
36.668
36.628
36.591
36.557
36.527
36.5
36.478
36.461
36.448
36.439
36.434
36.431
36.428
36.427
36.426
36.425
36.424
36.423
36.421
36.417
36.411
36.401
36.389
36.372
36.351
36.326
36.298
36.266
36.232
36.196
36.158
36.121
36.083
36.046
36.008
35.972
35.935
35.9
35.864
35.83
35.795
35.76
35.726
35.691
35.657
35.621
35.585
35.549
35.513
35.476
35.439
35.402
35.366
35.331
35.298
35.267
35.239
35.213
35.189
35.166
35.143
35.118
35.092
35.062
35.03
34.995
34.958
34.918
34.876
34.833
34.79
34.745
34.7
34.655
34.61
34.565
34.519
34.474
34.43
34.388
34.347
34.31
34.275
34.244
34.216
34.192
34.17
34.151
34.136
34.126
34.123
34.129
34.145
34.175
34.219
34.281
34.36
34.457
34.572
34.706
34.859
35.03
35.218
35.422
35.64
35.869
36.107
36.349
36.592
36.831
37.064
37.286
37.496
37.692
37.872
38.034
38.18
38.307
38.417
38.51
38.586
38.647
38.694
38.729
38.751
38.764
38.766
38.76
38.745
38.723
38.695
38.66
38.62
38.575
38.524
38.471
38.413
38.354
38.291
38.228
38.163
38.097
38.03
37.963
37.895
37.826
37.757
37.688
37.617
37.546
37.474
37.402
37.331
37.26
37.191
37.123
37.057
36.993
36.931
36.869
36.809
36.751
36.694
36.639
36.588
36.54
36.496
36.457
36.421
36.391
36.364
36.343
36.325
36.312
36.304
36.3
36.3
36.305
36.313
36.325
36.339
36.354
36.37
36.386
36.4
36.412
36.421
36.425
36.424
36.418
36.407
36.39
36.368
36.341
36.31
36.274
36.234
36.191
36.146
36.099
36.052
36.005
35.96
35.915
35.871
35.828
35.785
35.743
35.701
35.658
35.614
35.57
35.524
35.477
35.43
35.384
35.339
35.295
35.254
35.218
35.186
35.159
35.139
35.125
35.117
35.115
35.117
35.123
35.131
35.138
35.144
35.147
35.144
35.134
35.117
35.092
35.06
35.022
34.978
34.929
34.878
34.825
34.771
34.717
34.662
34.608
34.555
34.503
34.454
34.407
34.363
34.323
34.287
34.256
34.228
34.204
34.185
34.169
34.16
34.158
34.164
34.181
34.211
34.257
34.319
34.4
34.5
34.619
34.756
34.91
35.078
35.26
35.452
35.653
35.859
36.068
36.278
36.486
36.69
36.888
37.079
37.262
37.435
37.598
37.748
37.885
38.008
38.115
38.207
38.282
38.343
38.389
38.421
38.44
38.448
38.445
38.432
38.41
38.381
38.345
38.304
38.259
38.211
38.161
38.109
38.058
38.005
37.952
37.898
37.842
37.785
37.726
37.663
37.598
37.53
37.459
37.386
37.311
37.236
37.162
37.089
37.019
36.951
36.887
36.827
36.771
36.719
36.671
36.627
36.587
36.549
36.513
36.478
36.442
36.408
36.374
36.343
36.313
36.288
36.266
36.25
36.238
36.23
36.227
36.227
36.23
36.238
36.248
36.26
36.274
36.289
36.304
36.318
36.331
36.342
36.349
36.351
36.347
36.338
36.323
36.303
36.277
36.248
36.214
36.178
36.139
36.097
36.054
36.009
35.963
35.916
35.87
35.824
35.78
35.739
35.7
35.664
35.631
35.599
35.568
35.539
35.509
35.481
35.452
35.425
35.397
35.37
35.343
35.316
35.289
35.261
35.231
35.199
35.165
35.13
35.093
35.056
35.019
34.982
34.944
34.907
34.871
34.835
34.8
34.765
34.731
34.698
34.665
34.634
34.604
34.574
34.545
34.517
34.488
34.459
34.431
34.405
34.382
34.364
34.353
34.352
34.364
34.39
34.434
34.497
34.578
34.679
34.8
34.941
35.1
35.276
35.465
35.667
35.878
36.095
36.316
36.539
36.76
36.976
37.186
37.389
37.581
37.761
37.927
38.077
38.212
38.33
38.432
38.518
38.588
38.643
38.684
38.713
38.729
38.735
38.73
38.717
38.697
38.669
38.635
38.597
38.555
38.51
38.462
38.412
38.359
38.305
38.248
38.189
38.128
38.064
37.997
37.928
37.858
37.785
37.712
37.639
37.565
37.492
37.419
37.348
37.278
37.211
37.146
37.085
37.028
36.974
36.925
36.88
36.839
36.801
36.768
36.739
36.713
36.69
36.671
36.656
36.643
36.633
36.625
36.619
36.613
36.608
36.604
36.601
36.598
36.594
36.591
36.586
36.582
36.576
36.57
36.562
36.553
36.542
36.531
36.518
36.504
36.49
36.476
36.46
36.442
36.423
36.401
36.375
36.345
36.312
36.275
36.234
36.19
36.141
36.089
36.033
35.975
35.914
35.851
35.788
35.725
35.664
35.605
35.548
35.495
35.445
35.399
35.356
35.317
35.281
35.249
35.219
35.191
35.166
35.141
35.117
35.093
35.066
35.037
35.005
34.968
34.926
34.881
34.831
34.777
34.72
34.661
34.601
34.541
34.482
34.423
34.365
34.308
34.252
34.198
34.144
34.093
34.044
33.998
33.955
33.918
33.888
33.866
33.855
33.858
33.876
33.912
33.967
34.044
34.142
34.261
34.401
34.561
34.739
34.933
35.14
35.358
35.584
35.814
36.045
36.275
36.499
36.717
36.926
37.124
37.31
37.483
37.642
37.786
37.915
38.026
38.121
38.198
38.257
38.298
38.323
38.333
38.329
38.314
38.289
38.257
38.22
38.178
38.134
38.088
38.042
37.995
37.948
37.902
37.855
37.808
37.758
37.706
37.65
37.589
37.524
37.454
37.378
37.299
37.218
37.134
37.051
36.969
36.889
36.812
36.739
36.671
36.609
36.553
36.502
36.455
36.412
36.371
36.331
36.292
36.252
36.213
36.174
36.135
36.096
36.058
36.021
35.986
35.952
35.921
35.892
35.865
35.839
35.814
35.791
35.769
35.748
35.729
35.711
35.693
35.677
35.66
35.644
35.627
35.609
35.589
35.568
35.544
35.519
35.492
35.462
35.429
35.394
35.356
35.316
35.274
35.23
35.184
35.136
35.085
35.032
34.977
34.921
34.865
34.809
34.754
34.702
34.652
34.604
34.56
34.518
34.48
34.444
34.409
34.376
34.344
34.313
34.285
34.258
34.232
34.208
34.185
34.163
34.14
34.118
34.095
34.07
34.045
34.019
33.993
33.965
33.937
33.909
33.881
33.853
33.825
33.796
33.768
33.738
33.709
33.679
33.648
33.617
33.584
33.55
33.515
33.478
33.439
33.398
33.356
33.313
33.271
33.23
33.192
33.159
33.132
33.111
33.098
33.094
33.103
33.124
33.16
33.212
33.28
33.366
33.469
33.59
33.729
33.884
34.054
34.237
34.432
34.635
34.846
35.059
35.273
35.486
35.695
35.898
36.095
36.283
36.461
36.627
36.781
36.92
37.044
37.153
37.245
37.32
37.379
37.423
37.451
37.466
37.468
37.458
37.438
37.409
37.371
37.327
37.278
37.226
37.172
37.117
37.062
37.007
36.953
36.899
36.846
36.793
36.741
36.688
36.635
36.582
36.527
36.471
36.411
36.349
36.283
36.213
36.141
36.067
35.991
35.914
35.837
35.761
35.688
35.617
35.549
35.485
35.426
35.373
35.325
35.285
35.251
35.224
35.203
35.188
35.177
35.17
35.166
35.165
35.166
35.168
35.172
35.176
35.18
35.182
35.181
35.177
35.169
35.158
35.142
35.121
35.096
35.065
35.029
34.989
34.946
34.901
34.856
34.81
34.766
34.723
34.684
34.647
34.612
34.581
34.553
34.527
34.503
34.48
34.457
34.433
34.407
34.381
34.352
34.321
34.287
34.25
34.211
34.168
34.122
34.074
34.023
33.97
33.918
33.866
33.816
33.769
33.726
33.689
33.657
33.631
33.612
33.599
33.591
33.587
33.586
33.585
33.583
33.578
33.57
33.556
33.536
33.512
33.483
33.45
33.415
33.378
33.34
33.302
33.266
33.232
33.201
33.173
33.148
33.127
33.109
33.093
33.08
33.068
33.057
33.046
33.035
33.022
33.008
32.992
32.975
32.957
32.94
32.924
32.909
32.898
32.892
32.892
32.902
32.921
32.953
32.998
33.058
33.134
33.226
33.336
33.461
33.602
33.757
33.923
34.1
34.286
34.477
34.672
34.869
35.065
35.257
35.443
35.621
35.789
35.946
36.091
36.223
36.341
36.445
36.536
36.613
36.676
36.725
36.761
36.783
36.793
36.791
36.779
36.759
36.731
36.699
36.663
36.624
36.584
36.543
36.502
36.46
36.418
36.376
36.334
36.292
36.249
36.204
36.159
36.112
36.063
36.014
35.963
35.911
35.859
35.806
35.753
35.701
35.649
35.597
35.545
35.494
35.445
35.397
35.353
35.312
35.275
35.243
35.217
35.197
35.182
35.172
35.166
35.165
35.165
35.167
35.17
35.172
35.173
35.174
35.173
35.171
35.168
35.166
35.165
35.164
35.164
35.163
35.162
35.16
35.156
35.148
35.136
35.121
35.101
35.077
35.05
35.018
34.983
34.944
34.903
34.859
34.813
34.764
34.712
34.657
34.599
34.541
34.481
34.422
34.364
34.307
34.253
34.202
34.155
34.111
34.071
34.034
34.0
33.969
33.941
33.915
33.89
33.867
33.845
33.823
33.8
33.778
33.755
33.732
33.707
33.682
33.657
33.63
33.604
33.576
33.55
33.524
33.498
33.475
33.452
33.431
33.411
33.391
33.372
33.353
33.335
33.316
33.299
33.281
33.265
33.248
33.232
33.215
33.197
33.178
33.157
33.134
33.111
33.087
33.063
33.041
33.022
33.008
33.002
33.004
33.018
33.044
33.084
33.139
33.21
33.295
33.395
33.509
33.635
33.772
33.918
34.073
34.235
34.401
34.572
34.746
34.921
35.096
35.269
35.44
35.608
35.77
35.926
36.074
36.213
36.341
36.458
36.561
36.652
36.73
36.796
36.85
36.892
36.923
36.945
36.957
36.961
36.956
36.944
36.924
36.898
36.867
36.832
36.793
36.752
36.709
36.666
36.623
36.582
36.543
36.505
36.469
36.434
36.399
36.365
36.332
36.298
36.264
36.229
36.194
36.157
36.119
36.079
36.038
35.994
35.95
35.905
35.86
35.816
35.775
35.736
35.699
35.665
35.631
35.599
35.567
35.535
35.504
35.473
35.443
35.414
35.385
35.358
35.331
35.305
35.281
35.257
35.235
35.215
35.197
35.184
35.174
35.169
35.166
35.166
35.167
35.168
35.168
35.167
35.162
35.153
35.139
35.12
35.095
35.064
35.029
34.989
34.946
34.901
34.854
34.807
34.761
34.717
34.677
34.64
34.608
34.58
34.554
34.532
34.512
34.494
34.475
34.456
34.436
34.415
34.391
34.366
34.339
34.311
34.282
34.252
34.221
34.19
34.158
34.128
34.099
34.072
34.047
34.024
34.003
33.984
33.967
33.952
33.938
33.925
33.912
33.9
33.888
33.875
33.862
33.847
33.83
33.812
33.793
33.771
33.749
33.726
33.702
33.676
33.649
33.621
33.591
33.56
33.53
33.5
33.471
33.445
33.42
33.399
33.381
33.366
33.357
33.353
33.356
33.367
33.389
33.422
33.468
33.527
33.602
33.694
33.802
33.926
34.064
34.216
34.379
34.551
34.731
34.915
35.102
35.29
35.476
35.658
35.835
36.005
36.167
36.319
36.462
36.594
36.715
36.824
36.921
37.007
37.081
37.144
37.197
37.239
37.271
37.292
37.302
37.303
37.294
37.276
37.251
37.219
37.182
37.141
37.099
37.056
37.012
36.969
36.927
36.885
36.844
36.803
36.763
36.722
36.681
36.64
36.597
36.551
36.503
36.453
36.399
36.342
36.284
36.223
36.162
36.1
36.04
35.982
35.927
35.875
35.827
35.783
35.742
35.704
35.669
35.635
35.602
35.57
35.538
35.507
35.476
35.446
35.418
35.39
35.366
35.344
35.325
35.312
35.303
35.298
35.298
35.301
35.306
35.313
35.32
35.326
35.331
35.333
35.331
35.325
35.315
35.299
35.28
35.256
35.229
35.198
35.165
35.129
35.093
35.055
35.017
34.978
34.938
34.898
34.858
34.82
34.781
34.744
34.707
34.671
34.637
34.602
34.568
34.534
34.499
34.464
34.428
34.392
34.357
34.322
34.29
34.259
34.23
34.203
34.177
34.154
34.132
34.112
34.094
34.077
34.062
34.049
34.037
34.026
34.014
34.002
33.988
33.971
33.952
33.93
33.904
33.874
33.841
33.807
33.771
33.735
33.699
33.665
33.633
33.602
33.573
33.545
33.519
33.495
33.472
33.45
33.43
33.411
33.393
33.377
33.364
33.352
33.342
33.334
33.328
33.324
33.323
33.325
33.332
33.344
33.363
33.392
33.433
33.487
33.556
33.64
33.74
33.855
33.985
34.127
34.28
34.443
34.614
34.791
34.973
35.159
35.346
35.532
35.715
35.893
36.063
36.225
36.376
36.516
36.644
36.761
36.866
36.96
37.04
37.108
37.163
37.208
37.241
37.264
37.278
37.284
37.282
37.274
37.261
37.243
37.221
37.195
37.166
37.135
37.103
37.07
37.036
37.003
36.968
36.932
36.894
36.854
36.813
36.768
36.721
36.671
36.619
36.564
36.508
36.451
36.392
36.334
36.276
36.219
36.164
36.112
36.062
36.016
35.974
35.935
35.901
35.871
35.843
35.819
35.796
35.776
35.758
35.743
35.729
35.718
35.709
35.702
35.696
35.691
35.686
35.68
35.674
35.668
35.662
35.655
35.649
35.642
35.635
35.628
35.62
35.611
35.602
35.591
35.578
35.564
35.547
35.529
35.508
35.486
35.461
35.435
35.407
35.379
35.351
35.321
35.292
35.262
35.23
35.198
35.163
35.128
35.092
35.055
35.018
34.981
34.945
34.91
34.876
34.844
34.813
34.783
34.754
34.727
34.703
34.681
34.66
34.641
34.622
34.604
34.584
34.564
34.542
34.52
34.496
34.472
34.446
34.419
34.392
34.363
34.334
34.304
34.273
34.241
34.208
34.175
34.14
34.106
34.073
34.041
34.012
33.984
33.959
33.936
33.915
33.894
33.874
33.854
33.835
33.818
33.802
33.789
33.779
33.773
33.773
33.78
33.795
33.82
33.856
33.905
33.966
34.042
34.133
34.238
34.359
34.495
34.645
34.808
34.982
35.166
35.358
35.554
35.753
35.953
36.15
36.342
36.528
36.704
36.869
37.022
37.162
37.287
37.397
37.491
37.57
37.634
37.683
37.719
37.743
37.757
37.761
37.758
37.749
37.733
37.713
37.689
37.663
37.636
37.607
37.579
37.551
37.523
37.495
37.467
37.437
37.404
37.367
37.326
37.281
37.23
37.174
37.113
37.048
36.979
36.906
36.83
36.752
36.673
36.595
36.518
36.446
36.378
36.316
36.259
36.209
36.164
36.124
36.089
36.057
36.027
35.998
35.97
35.943
35.915
35.888
35.862
35.837
35.813
35.793
35.777
35.765
35.758
35.756
35.759
35.767
35.778
35.792
35.806
35.818
35.828
35.834
35.836
35.833
35.825
35.813
35.796
35.775
35.752
35.725
35.697
35.667
35.635
35.603
35.57
35.535
35.498
35.46
35.421
35.381
35.34
35.298
35.255
35.212
35.168
35.125
35.082
35.039
34.996
34.953
34.911
34.87
34.831
34.793
34.755
34.719
34.683
34.648
34.614
34.581
34.549
34.518
34.487
34.457
34.427
34.399
34.371
34.345
34.32
34.297
34.274
34.252
34.231
34.21
34.189
34.168
34.146
34.123
34.099
34.075
34.05
34.025
34.0
33.975
33.949
33.922
33.895
33.868
33.839
33.811
33.783
33.756
33.729
33.703
33.678
33.656
33.636
33.619
33.605
33.595
33.589
33.588
33.593
33.606
33.627
33.659
33.704
33.763
33.836
33.925
34.03
34.15
34.285
34.434
34.595
34.767
34.949
35.138
35.331
35.528
35.726
35.922
36.114
36.3
36.478
36.646
36.804
36.95
37.085
37.206
37.315
37.412
37.495
37.565
37.622
37.667
37.701
37.724
37.739
37.744
37.742
37.732
37.714
37.69
37.659
37.623
37.581
37.536
37.488
37.438
37.386
37.334
37.281
37.227
37.172
37.116
37.058
36.999
36.939
36.877
36.816
36.754
36.691
36.629
36.567
36.506
36.446
36.388
36.334
36.284
36.239
36.201
36.167
36.138
36.113
36.091
36.072
36.053
36.035
36.016
35.996
35.975
35.953
35.929
35.904
35.88
35.856
35.833
