Trial 1:0back
35.247
35.215
35.187
35.162
35.141
35.124
35.11
35.1
35.092
35.086
35.083
35.083
35.084
35.087
35.093
35.1
35.108
35.118
35.128
35.139
35.149
35.159
35.169
35.177
35.183
35.188
35.191
35.192
35.191
35.187
35.181
35.172
35.161
35.147
35.13
35.112
35.091
35.069
35.045
35.019
34.992
34.964
34.936
34.906
34.877
34.847
34.818
34.789
34.76
34.731
34.703
34.675
34.648
34.621
34.594
34.569
34.544
34.52
34.496
34.471
34.448
34.424
34.4
34.377
34.355
34.334
34.313
34.294
34.275
34.257
34.239
34.222
34.205
34.188
34.17
34.153
34.134
34.116
34.096
34.077
34.058
34.038
34.019
33.999
33.98
33.962
33.945
33.928
33.912
33.897
33.883
33.869
33.856
33.843
33.831
33.818
33.806
33.793
33.78
33.767
33.754
33.74
33.726
33.712
33.697
33.681
33.666
33.65
33.635
33.622
33.609
33.597
33.588
33.583
33.582
33.587
33.599
33.621
33.653
33.697
33.755
33.828
33.917
34.022
34.144
34.281
34.433
34.598
34.774
34.959
35.151
35.346
35.543
35.738
35.929
36.113
36.289
36.455
36.608
36.747
36.872
36.981
37.074
37.152
37.215
37.263
37.298
37.319
37.329
37.329
37.32
37.302
37.278
37.247
37.211
37.172
37.129
37.085
37.04
36.995
36.949
36.904
36.86
36.817
36.777
36.739
36.704
36.671
36.639
36.609
36.58
36.551
36.523
36.494
36.464
36.432
36.399
36.364
36.327
36.288
36.248
36.207
36.166
36.124
36.083
36.043
36.005
35.968
35.935
35.904
35.876
35.851
35.83
35.811
35.795
35.782
35.771
35.764
35.759
35.757
35.757
35.76
35.764
35.77
35.777
35.785
35.792
35.799
35.805
35.808
35.81
35.809
35.806
35.799
35.789
35.776
35.759
35.739
35.716
35.69
35.661
35.63
35.598
35.563
35.528
35.492
35.455
35.418
35.381
35.345
35.308
35.271
35.234
35.197
35.161
35.125
35.088
35.052
35.016
34.981
34.946
34.912
34.878
34.843
34.809
34.774
34.738
34.703
34.668
34.633
34.598
34.565
34.533
34.502
34.472
34.444
34.417
34.391
34.366
34.34
34.314
34.288
34.263
34.238
34.212
34.188
34.164
34.139
34.115
34.091
34.068
34.044
34.021
33.998
33.976
33.954
33.933
33.913
33.894
33.875
33.856
33.838
33.821
33.805
33.79
33.777
33.768
33.763
33.764
33.773
33.792
33.822
33.865
33.922
33.994
34.081
34.184
34.303
34.435
34.581
34.739
34.905
35.078
35.256
35.435
35.614
35.79
35.959
36.121
36.272
36.411
36.537
36.65
36.749
36.833
36.904
36.96
37.004
37.036
37.055
37.064
37.062
37.052
37.033
37.007
36.975
36.938
36.897
36.853
36.807
36.759
36.709
36.659
36.609
36.558
36.506
36.454
36.402
36.351
36.299
36.248
36.196
36.145
36.093
36.041
35.988
35.935
35.883
35.831
35.779
35.729
35.679
35.631
35.585
35.541
35.5
35.461
35.425
35.392
35.362
35.335
35.311
35.291
35.275
35.263
35.254
35.248
35.246
35.247
35.251
35.259
35.269
35.281
35.294
35.308
35.321
35.333
35.343
35.352
35.359
35.365
35.368
35.369
35.367
35.364
35.358
35.349
35.339
35.327
35.312
35.295
35.276
35.254
35.23
35.203
35.173
35.142
35.109
35.075
35.041
35.006
34.97
34.935
34.899
34.863
34.828
34.792
34.757
34.721
34.686
34.651
34.617
34.584
34.551
34.52
34.488
34.458
34.428
34.399
34.371
34.344
34.318
34.293
34.269
34.245
34.222
34.199
34.177
34.154
34.13
34.107
34.083
34.059
34.036
34.013
33.991
33.97
33.949
33.929
33.91
33.891
33.873
33.855
33.836
33.816
33.797
33.776
33.755
33.735
33.714
33.695
33.675
33.656
33.638
33.619
33.601
33.583
33.566
33.548
33.531
33.515
33.5
33.488
33.48
33.476
33.479
33.489
33.509
33.541
33.587
33.649
33.727
33.823
33.937
34.069
34.218
34.384
34.565
34.759
34.964
35.178
35.398
35.62
35.842
36.061
36.273
36.476
36.667
36.845
37.007
37.153
37.281
37.392
37.484
37.559
37.618
37.662
37.692
37.709
37.715
37.711
37.699
37.679
37.653
37.623
37.588
37.551
37.512
37.471
37.429
37.386
37.343
37.3
37.256
37.214
37.171
37.129
37.087
37.045
37.002
36.96
36.917
36.873
36.829
36.784
36.738
36.692
36.645
36.597
36.548
36.499
36.45
36.401
36.353
36.306
36.26
36.217
36.175
36.136
36.1
36.068
36.039
36.013
35.992
35.974
35.96
35.95
35.944
35.941
35.94
35.942
35.945
35.948
35.952
35.956
35.959
35.962
35.964
35.965
35.965
35.963
35.96
35.956
35.949
35.94
35.929
35.916
35.9
35.882
35.861
35.837
35.811
35.783
35.752
35.719
35.684
35.648
35.611
35.574
35.535
35.497
35.459
35.421
35.384
35.348
35.312
35.276
35.24
35.204
35.168
35.133
35.098
35.063
35.028
34.994
34.959
34.925
34.892
34.859
34.827
34.796
34.765
34.735
34.706
34.679
34.652
34.627
34.602
34.578
34.555
34.533
34.51
34.487
34.465
34.443
34.421
34.4
34.379
34.357
34.336
34.314
34.292
34.271
34.25
34.229
34.209
34.189
34.17
34.151
34.133
34.113
34.093
34.072
34.05
34.027
34.004
33.979
33.954
33.929
33.904
33.88
33.858
33.839
33.823
33.812
33.806
33.807
33.817
33.837
33.869
33.914
33.975
34.052
34.145
34.257
34.385
34.531
34.693
34.871
35.064
35.268
35.483
35.705
35.931
36.159
36.384
36.605
36.817
37.017
37.204
37.374
37.526
37.659
37.773
37.867
37.942
37.998
38.038
38.062
38.073
38.071
38.058
38.035
38.004
37.965
37.92
37.869
37.814
37.755
37.693
37.63
37.565
37.501
37.437
37.374
37.312
37.252
37.193
37.137
37.082
37.03
36.981
36.934
36.89
36.848
36.808
36.769
36.73
36.692
36.653
36.614
36.573
36.532
36.49
36.448
36.406
36.364
36.322
36.282
36.244
36.209
36.175
36.144
36.116
36.091
36.068
36.048
36.031
36.015
36.002
35.991
35.982
35.974
35.967
35.961
35.957
35.953
35.949
35.946
35.942
35.937
35.932
35.925
35.917
35.906
35.894
35.879
35.861
35.841
35.818
35.792
35.763
35.732
35.698
35.662
35.623
35.583
35.541
35.497
35.453
35.408
35.364
35.319
35.276
35.233
35.191
35.15
35.109
35.069
35.03
34.991
34.954
34.918
34.883
34.85
34.818
34.787
34.757
34.728
34.7
34.671
34.643
34.614
34.585
34.556
34.528
34.499
34.47
34.442
34.414
34.387
34.359
34.332
34.304
34.277
34.25
34.223
34.196
34.171
34.147
34.123
34.1
34.079
34.059
34.04
34.022
34.006
33.991
33.976
33.962
33.949
33.935
33.921
33.907
33.892
33.877
33.862
33.846
33.83
33.813
33.796
33.778
33.761
33.742
33.724
33.705
33.686
33.667
33.65
33.634
33.622
33.613
33.61
33.615
33.628
33.652
33.688
33.739
33.805
33.887
33.987
34.104
34.238
34.389
34.555
34.734
34.926
35.126
35.334
35.547
35.76
35.972
36.179
36.378
36.566
36.742
36.903
37.049
37.179
37.291
37.387
37.466
37.528
37.575
37.606
37.624
37.63
37.623
37.606
37.58
37.546
37.505
37.46
37.41
37.358
37.304
37.249
37.194
37.14
37.086
37.032
36.98
36.928
36.877
36.827
36.778
36.73
36.682
36.634
36.587
36.54
36.492
36.444
36.396
36.347
36.298
36.248
36.199
36.149
36.1
36.052
36.004
35.958
35.914
35.873
35.835
35.799
35.767
35.738
35.713
35.692
35.675
35.661
35.652
35.646
35.643
35.644
35.648
35.653
35.661
35.67
35.681
35.692
35.704
35.715
35.726
35.736
35.744
35.751
35.755
35.757
35.757
35.753
35.745
35.734
35.719
35.699
35.676
35.65
35.62
35.587
35.552
35.515
35.476
35.437
35.396
35.356
35.315
35.275
35.235
35.196
35.157
35.12
35.083
35.046
35.009
34.972
34.935
34.897
34.858
34.82
34.781
34.742
34.703
34.665
34.628
34.592
34.557
34.523
34.492
34.461
34.432
34.404
34.377
34.35
34.325
34.301
34.276
34.253
34.229
34.206
34.183
34.161
34.138
34.116
34.094
34.072
34.05
34.028
34.006
33.982
33.959
33.935
33.912
33.889
33.866
33.844
33.822
33.8
33.779
33.757
33.737
33.716
33.697
33.679
33.664
33.652
33.646
33.648
33.659
33.683
33.719
33.771
33.838
33.921
34.02
34.136
34.267
34.411
34.569
34.738
34.915
35.099
35.286
35.475
35.663
35.847
36.024
36.193
36.352
36.498
36.63
36.748
36.851
36.938
37.011
37.069
37.111
37.14
37.156
37.159
37.151
37.133
37.107
37.074
37.035
36.991
36.943
36.891
36.837
36.779
36.72
36.658
36.594
36.529
36.463
36.397
36.332
36.267
36.205
36.144
36.086
36.03
35.977
35.925
35.875
35.826
35.778
35.73
35.683
35.637
35.59
35.544
35.497
35.451
35.406
35.361
35.317
35.276
35.236
35.2
35.167
35.138
35.113
35.092
35.077
35.066
35.06
35.059
35.061
35.068
35.078
35.09
35.105
35.12
35.136
35.152
35.166
35.179
35.189
35.195
35.197
35.197
35.192
35.184
35.174
35.16
35.144
35.126
35.106
35.084
35.061
35.035
35.009
34.98
34.95
34.919
34.886
34.851
34.816
34.78
34.743
34.705
34.668
34.63
34.593
34.556
34.52
34.484
34.449
34.415
34.382
34.35
34.319
34.288
34.258
34.228
34.199
34.17
34.143
34.116
34.089
34.064
34.039
34.015
33.991
33.969
33.947
33.926
33.905
33.886
33.867
33.848
33.829
33.81
33.791
33.772
33.753
33.733
33.713
33.692
33.671
33.65
33.628
33.606
33.584
33.564
33.544
33.525
33.507
33.489
33.472
33.455
33.438
33.422
33.406
33.393
33.382
33.375
33.375
33.384
33.402
33.433
33.478
33.538
33.614
33.708
33.818
33.947
34.093
34.255
34.433
34.625
34.828
35.04
35.258
35.479
35.699
35.917
36.128
36.332
36.524
36.703
36.868
37.017
37.148
37.262
37.358
37.437
37.498
37.543
37.572
37.588
37.59
37.581
37.561
37.532
37.494
37.45
37.401
37.347
37.291
37.232
37.172
37.112
37.053
36.995
36.939
36.884
36.832
36.782
36.732
36.684
36.637
36.59
36.542
36.493
36.443
36.393
36.342
36.29
36.237
36.183
36.129
36.075
36.021
35.968
35.916
35.866
35.819
35.775
35.733
35.696
35.662
35.632
35.606
35.585
35.568
35.554
35.545
35.54
35.538
35.54
35.546
35.554
35.565
35.578
35.591
35.603
35.616
35.626
35.635
35.642
35.647
35.65
35.65
35.649
35.645
35.64
35.632
35.622
35.609
35.593
35.575
35.553
35.529
35.502
35.473
35.441
35.407
35.372
35.336
35.299
35.262
35.225
35.19
35.156
35.123
35.092
35.061
35.032
35.002
34.972
34.942
34.91
34.879
34.847
34.816
34.785
34.755
34.726
34.697
34.669
34.64
34.612
34.583
34.555
34.529
34.503
34.478
34.455
34.434
34.413
34.394
34.375
34.356
34.337
34.318
34.298
34.278
34.257
34.237
34.218
34.2
34.183
34.166
34.15
34.135
34.121
34.106
34.092
34.078
34.063
34.047
34.031
34.014
33.995
33.975
33.955
33.935
33.917
33.901
33.89
33.886
33.89
33.905
33.934
33.977
34.038
34.118
34.217
34.336
34.475
34.634
34.812
35.007
35.217
35.442
35.677
35.92
36.168
36.417
36.665
36.908
37.143
37.369
37.582
37.781
37.963
38.128
38.274
38.401
38.509
38.599
38.672
38.728
38.769
38.796
38.808
38.808
38.796
38.774
38.743
38.703
38.657
38.605
38.548
38.487
38.425
38.362
38.299
38.236
38.174
38.113
38.053
37.995
37.939
37.884
37.83
37.777
37.724
37.672
37.619
37.567
37.513
37.458
37.401
37.343
37.283
37.223
37.161
37.1
37.039
36.981
36.925
36.873
36.825
36.781
36.741
36.705
36.675
36.649
36.628
36.611
36.6
36.592
36.588
36.588
36.591
36.596
36.603
36.611
36.62
36.628
36.636
36.643
36.649
36.653
36.655
36.654
36.651
36.644
36.634
36.621
36.604
36.584
36.559
36.531
36.498
36.463
36.424
36.383
36.339
36.293
36.246
36.198
36.149
36.1
36.052
36.006
35.961
35.92
35.881
35.845
35.812
35.781
35.752
35.725
35.699
35.675
35.651
35.628
35.604
35.58
35.555
35.528
35.5
35.472
35.442
35.411
35.379
35.346
35.312
35.278
35.243
35.207
35.171
35.134
35.098
35.062
35.026
34.991
34.956
34.923
34.892
34.862
34.834
34.807
34.781
34.757
34.734
34.711
34.69
34.668
34.647
34.625
34.603
34.58
34.556
34.531
34.504
34.476
34.446
34.415
34.384
34.353
34.324
34.297
34.277
34.263
34.26
34.269
34.293
34.335
34.398
34.481
34.587
34.717
34.87
35.045
35.241
35.457
35.689
35.936
36.193
36.459
36.729
36.999
37.267
37.527
37.778
38.016
38.239
38.445
38.631
38.798
38.945
39.07
39.175
39.258
39.322
39.367
39.395
39.406
39.404
39.388
39.361
39.324
39.279
39.226
39.168
39.104
39.037
38.969
38.899
38.828
38.759
38.69
38.623
38.557
38.493
38.43
38.369
38.308
38.247
38.186
38.125
38.062
37.998
37.932
37.866
37.797
37.728
37.657
37.586
37.516
37.445
37.377
37.309
37.244
37.181
37.121
37.064
37.011
36.961
36.916
36.877
36.842
36.813
36.79
36.772
36.76
36.754
36.751
36.753
36.758
36.765
36.775
36.785
36.795
36.805
36.814
36.821
36.826
36.829
36.828
36.824
36.815
36.802
36.784
36.761
36.734
36.703
36.669
36.632
36.592
36.549
36.504
36.457
36.408
36.358
36.307
36.254
36.2
36.146
36.092
36.037
35.983
35.929
35.876
35.824
35.772
35.721
35.671
35.622
35.574
35.527
35.481
35.436
35.392
35.349
35.306
35.263
35.221
35.179
35.138
35.096
35.054
35.013
34.973
34.933
34.895
34.858
34.822
34.787
34.753
34.72
34.688
34.657
34.626
34.596
34.567
34.538
34.508
34.479
34.449
34.419
34.389
34.359
34.329
34.299
34.269
34.239
34.212
34.186
34.164
34.147
34.137
34.136
34.146
34.17
34.21
34.268
34.347
34.447
34.569
34.713
34.879
35.064
35.268
35.487
35.719
35.961
36.21
36.461
36.713
36.96
37.2
37.43
37.648
37.851
38.038
38.206
38.354
38.481
38.586
38.67
38.732
38.774
38.796
38.8
38.788
38.762
38.723
38.675
38.618
38.554
38.485
38.412
38.336
38.258
38.178
38.099
38.019
37.94
37.862
37.785
37.709
37.633
37.559
37.484
37.409
37.334
37.257
37.18
37.102
37.022
36.942
36.86
36.778
36.696
36.615
36.536
36.459
36.385
36.317
36.253
36.195
36.143
36.098
36.059
36.026
35.999
35.978
35.961
35.95
35.943
35.939
35.938
35.94
35.945
35.951
35.959
35.967
35.976
35.985
35.994
36.002
36.009
36.014
36.016
36.015
36.01
36.001
35.988
35.97
35.947
35.921
35.89
35.855
35.817
35.776
35.732
35.685
35.637
35.588
35.538
35.488
35.437
35.386
35.335
35.285
35.235
35.185
35.134
35.084
35.033
34.982
34.931
34.879
34.829
34.779
34.73
34.682
34.635
34.589
34.544
34.5
34.456
34.412
34.369
34.326
34.284
34.242
34.202
34.163
34.124
34.087
34.05
34.015
33.98
33.946
33.913
33.88
33.849
33.818
33.788
33.758
33.728
33.698
33.668
33.638
33.607
33.576
33.545
33.514
33.483
33.453
33.426
33.401
33.381
33.368
33.364
33.371
33.391
33.427
33.482
33.555
33.65
33.767
33.905
34.066
34.247
34.448
34.666
34.899
35.144
35.397
35.656
35.915
36.172
36.424
36.666
36.896
37.111
37.309
37.488
37.645
37.782
37.896
37.989
38.062
38.114
38.149
38.165
38.166
38.153
38.127
38.089
38.042
37.986
37.923
37.854
37.781
37.704
37.625
37.545
37.464
37.384
37.304
37.226
37.148
37.072
36.997
36.922
36.848
36.774
36.7
36.625
36.549
36.472
36.395
36.317
36.239
36.161
36.084
36.008
35.933
35.861
35.79
35.722
35.657
35.595
35.538
35.484
35.435
35.392
35.354
35.323
35.297
35.276
35.26
35.249
35.242
35.239
35.239
35.242
35.247
35.255
35.263
35.271
35.28
35.287
35.293
35.298
35.301
35.301
35.299
35.293
35.284
35.272
35.255
35.235
35.211
35.184
35.154
35.119
35.082
35.042
34.999
34.955
34.908
34.861
34.813
34.765
34.718
34.671
34.626
34.581
34.538
34.495
34.453
34.411
34.369
34.327
34.286
34.244
34.203
34.162
34.122
34.081
34.041
34.001
33.961
33.922
33.883
33.844
33.806
33.77
33.734
33.7
33.667
33.636
33.605
33.576
33.548
33.522
33.496
33.47
33.446
33.422
33.398
33.374
33.35
33.325
33.3
33.274
33.248
33.221
33.194
33.168
33.142
33.117
33.094
33.071
33.051
33.032
33.016
33.004
32.997
32.996
33.004
33.023
33.054
33.1
33.164
33.246
33.349
33.472
33.617
33.783
33.97
34.175
34.398
34.637
34.888
35.148
35.414
35.681
35.947
36.207
36.458
36.697
36.92
37.127
37.314
37.48
37.625
37.749
37.851
37.931
37.991
38.032
38.054
38.059
38.049
38.025
37.988
37.941
37.886
37.824
37.757
37.687
37.615
37.542
37.469
37.398
37.329
37.261
37.196
37.133
37.073
37.014
36.956
36.898
36.84
36.782
36.722
36.662
36.6
36.536
36.471
36.404
36.335
36.265
36.194
36.122
36.051
35.98
35.911
35.844
35.78
35.719
35.662
35.61
35.561
35.518
35.479
35.444
35.414
35.388
35.367
35.35
35.336
35.327
35.321
35.318
35.318
35.319
35.322
35.325
35.329
35.332
35.335
35.336
35.335
35.332
35.327
35.318
35.306
35.29
35.27
35.248
35.222
35.195
35.165
35.132
35.098
35.062
35.024
34.985
34.944
34.901
34.859
34.816
34.773
34.73
34.688
34.646
34.606
34.565
34.524
34.484
34.443
34.403
34.362
34.322
34.282
34.242
34.203
34.164
34.126
34.089
34.053
34.018
33.985
33.953
33.921
33.891
33.862
33.833
33.804
33.775
33.748
33.72
33.693
33.668
33.643
33.619
33.596
33.573
33.551
33.53
33.509
33.488
33.467
33.446
33.425
33.403
33.381
33.359
33.336
33.313
33.29
33.266
33.242
33.219
33.195
33.173
33.151
33.13
33.11
33.091
33.075
33.062
33.053
33.049
33.053
33.065
33.089
33.127
33.18
33.249
33.337
33.445
33.572
33.719
33.886
34.071
34.272
34.488
34.716
34.954
35.197
35.442
35.686
35.924
36.155
36.375
36.582
36.772
36.945
37.098
37.231
37.344
37.436
37.509
37.563
37.6
37.62
37.625
37.617
37.598
37.569
37.533
37.49
37.442
37.391
37.337
37.282
37.226
37.17
37.113
37.057
37.002
36.946
36.891
36.836
36.781
36.725
36.669
36.613
36.556
36.498
36.44
36.38
36.318
36.256
36.192
36.126
36.06
35.993
35.926
35.86
35.794
35.73
35.668
35.61
35.554
35.502
35.455
35.411
35.372
35.336
35.305
35.278
35.256
35.236
35.221
35.207
35.196
35.187
35.178
35.17
35.163
35.156
35.149
35.142
35.134
35.125
35.114
35.102
35.09
35.076
35.061
35.045
35.027
35.008
34.987
34.965
34.94
34.914
34.885
34.855
34.823
34.789
34.753
34.716
34.678
34.639
34.599
34.558
34.518
34.478
34.438
34.398
34.357
34.316
34.275
34.234
34.193
34.152
34.112
34.071
34.032
33.993
33.955
33.918
33.882
33.848
33.815
33.783
33.753
33.725
33.697
33.67
33.644
33.618
33.592
33.567
33.542
33.518
33.494
33.471
33.449
33.427
33.406
33.385
33.364
33.344
33.324
33.304
33.284
33.263
33.242
33.221
33.2
33.178
33.157
33.136
33.116
33.097
33.078
33.06
33.043
33.025
33.007
32.989
32.97
32.952
32.933
32.917
32.903
32.893
32.889
32.891
32.903
32.926
32.963
33.014
33.082
33.167
33.272
33.395
33.538
33.7
33.878
34.072
34.28
34.498
34.723
34.952
35.181
35.408
35.628
35.84
36.04
36.226
36.396
36.548
36.681
36.795
36.89
36.966
37.023
37.062
37.085
37.093
37.087
37.069
37.04
37.004
36.96
36.911
36.857
36.799
36.739
36.676
36.612
36.547
36.48
36.412
36.344
36.276
36.208
36.14
36.073
36.007
35.942
35.878
35.816
35.754
35.692
35.629
35.566
35.502
35.438
35.372
35.307
35.241
35.176
35.113
35.052
34.994
34.94
34.89
34.845
34.805
34.77
34.74
34.715
34.696
34.682
34.672
34.667
34.666
34.668
34.673
34.681
34.691
34.703
34.717
34.731
34.746
34.761
34.775
34.788
34.798
34.806
34.81
34.81
34.806
34.797
34.784
34.767
34.745
34.719
34.688
34.654
34.617
34.578
34.537
34.495
34.452
34.408
34.365
34.323
34.281
34.24
34.2
34.161
34.123
34.085
34.049
34.012
33.976
33.94
33.904
33.868
33.832
33.797
33.761
33.726
33.691
33.656
33.621
33.587
33.554
33.521
33.489
33.458
33.427
33.397
33.368
33.339
33.311
33.282
33.252
33.222
33.192
33.162
33.132
33.103
33.076
33.05
33.025
33.001
32.979
32.958
32.938
32.92
32.903
32.887
32.872
32.858
32.845
32.831
32.818
32.804
32.79
32.776
32.76
32.744
32.728
32.71
32.693
32.676
32.66
32.647
32.637
