Trial 1:0back
33.293
33.314
33.349
33.4
33.469
33.557
33.667
33.8
33.957
34.139
34.347
34.58
34.839
35.121
35.423
35.744
36.077
36.42
36.768
37.114
37.455
37.785
38.097
38.389
38.653
38.888
39.091
39.259
39.391
39.489
39.553
39.584
39.584
39.555
39.502
39.426
39.331
39.219
39.097
38.97
38.841
38.712
38.582
38.452
38.32
38.187
38.052
37.917
37.78
37.643
37.505
37.368
37.231
37.096
36.962
36.829
36.699
36.572
36.448
36.327
36.211
36.099
35.992
35.888
35.788
35.692
35.601
35.513
35.43
35.351
35.276
35.207
35.142
35.083
35.029
34.982
34.941
34.904
34.874
34.848
34.827
34.811
34.799
34.79
34.785
34.783
34.785
34.79
34.797
34.807
34.819
34.832
34.844
34.856
34.868
34.879
34.888
34.895
34.901
34.906
34.909
34.909
34.907
34.901
34.89
34.875
34.856
34.833
34.807
34.779
34.749
34.718
34.685
34.652
34.617
34.583
34.548
34.513
34.477
34.441
34.404
34.366
34.328
34.288
34.247
34.205
34.163
34.12
34.079
34.039
34.001
33.965
33.931
33.898
33.865
33.833
33.801
33.77
33.74
33.71
33.681
33.653
33.627
33.601
33.577
33.553
33.529
33.506
33.483
33.459
33.436
33.413
33.39
33.367
33.345
33.323
33.303
33.284
33.266
33.249
33.233
33.219
33.206
33.194
33.183
33.175
33.169
33.167
33.169
33.175
33.188
33.21
33.244
33.292
33.356
33.44
33.545
33.674
33.828
34.007
34.21
34.439
34.692
34.968
35.264
35.577
35.904
36.241
36.582
36.922
37.256
37.579
37.886
38.171
38.43
38.66
38.859
39.024
39.154
39.251
39.315
39.346
39.348
39.322
39.272
39.199
39.107
38.999
38.877
38.744
38.603
38.455
38.303
38.15
37.995
37.841
37.689
37.542
37.398
37.258
37.123
36.993
36.867
36.744
36.625
36.509
36.395
36.281
36.168
36.056
35.944
35.834
35.725
35.617
35.513
35.413
35.318
35.229
35.147
35.07
35.001
34.939
34.885
34.837
34.797
34.764
34.737
34.716
34.7
34.691
34.687
34.689
34.695
34.707
34.722
34.74
34.761
34.785
34.81
34.835
34.859
34.882
34.903
34.922
34.939
34.952
34.963
34.971
34.976
34.978
34.977
34.973
34.966
34.956
34.942
34.926
34.907
34.886
34.863
34.838
34.811
34.783
34.754
34.724
34.693
34.662
34.631
34.599
34.566
34.533
34.498
34.463
34.427
34.39
34.353
34.315
34.276
34.237
34.199
34.161
34.123
34.086
34.05
34.014
33.981
33.948
33.917
33.887
33.857
33.828
33.798
33.769
33.739
33.71
33.682
33.655
33.629
33.605
33.582
33.562
33.543
33.527
33.513
33.501
33.491
33.482
33.474
33.466
33.458
33.451
33.444
33.437
33.432
33.427
33.426
33.429
33.439
33.456
33.484
33.526
33.584
33.66
33.756
33.875
34.017
34.184
34.374
34.589
34.828
35.089
35.371
35.67
35.984
36.309
36.639
36.969
37.295
37.609
37.906
38.182
38.433
38.656
38.849
39.01
39.138
39.235
39.3
39.335
39.343
39.325
39.283
39.22
39.138
39.039
38.926
38.799
38.662
38.517
38.366
38.211
38.055
37.899
37.745
37.593
37.446
37.302
37.164
37.03
36.901
36.777
36.656
36.54
36.426
36.315
36.206
36.099
35.993
35.889
35.788
35.69
35.594
35.502
35.414
35.33
35.251
35.176
35.106
35.042
34.984
34.932
34.887
34.85
34.82
34.798
34.783
34.774
34.771
34.773
34.78
34.791
34.805
34.821
34.838
34.856
34.874
34.891
34.906
34.921
34.936
34.95
34.963
34.974
34.983
34.99
34.995
34.997
34.996
34.993
34.987
34.978
34.967
34.953
34.937
34.918
34.898
34.874
34.848
34.82
34.79
34.758
34.724
34.69
34.654
34.618
34.58
34.542
34.502
34.462
34.422
34.381
34.341
34.301
34.262
34.223
34.185
34.149
34.113
34.079
34.047
34.016
33.986
33.958
33.929
33.901
33.873
33.845
33.817
33.788
33.759
33.729
33.7
33.672
33.644
33.616
33.59
33.565
33.54
33.515
33.49
33.467
33.446
33.426
33.409
33.392
33.378
33.366
33.357
33.349
33.345
33.343
33.347
33.357
33.376
33.407
33.452
33.513
33.594
33.695
33.82
33.97
34.146
34.347
34.574
34.826
35.1
35.396
35.709
36.036
36.374
36.717
37.06
37.396
37.721
38.029
38.316
38.576
38.807
39.008
39.175
39.31
39.411
39.479
39.518
39.527
39.51
39.468
39.403
39.319
39.219
39.105
38.981
38.849
38.711
38.571
38.429
38.287
38.147
38.008
37.871
37.738
37.607
37.48
37.357
37.238
37.121
37.007
36.896
36.786
36.679
36.573
36.468
36.364
36.26
36.156
36.053
35.95
35.848
35.747
35.648
35.553
35.46
35.372
35.289
35.212
35.141
35.075
35.016
34.965
34.922
34.886
34.859
34.839
34.826
34.821
34.82
34.825
34.834
34.847
34.864
34.883
34.903
34.926
34.949
34.973
34.996
35.018
35.038
35.056
35.071
35.083
35.091
35.095
35.094
35.089
35.078
35.063
35.044
35.022
34.994
34.964
34.93
34.895
34.857
34.818
34.779
34.74
34.701
34.661
34.622
34.583
34.543
34.504
34.464
34.424
34.383
34.34
34.298
34.256
34.214
34.173
34.133
34.094
34.055
34.018
33.981
33.946
33.912
33.879
33.849
33.819
33.791
33.764
33.737
33.71
33.684
33.658
33.632
33.606
33.58
33.553
33.526
33.499
33.472
33.446
33.423
33.406
33.395
33.389
33.387
33.389
33.391
33.391
33.39
33.385
33.377
33.365
33.351
33.336
33.322
33.31
33.304
33.305
33.318
33.345
33.389
33.453
33.54
33.653
33.792
33.959
34.154
34.377
34.628
34.904
35.203
35.523
35.86
36.21
36.568
36.927
37.284
37.632
37.965
38.279
38.568
38.83
39.061
39.26
39.426
39.558
39.657
39.724
39.758
39.763
39.742
39.695
39.624
39.535
39.428
39.308
39.176
39.035
38.888
38.737
38.583
38.429
38.275
38.123
37.975
37.831
37.692
37.558
37.43
37.307
37.189
37.074
36.964
36.856
36.75
36.647
36.544
36.442
36.34
36.238
36.136
36.034
35.933
35.832
35.733
35.635
35.539
35.448
35.361
35.279
35.202
35.132
35.068
35.011
34.96
34.916
34.88
34.85
34.827
34.811
34.801
34.798
34.8
34.809
34.821
34.837
34.856
34.876
34.897
34.916
34.934
34.949
34.961
34.969
34.973
34.974
34.972
34.967
34.959
34.948
34.934
34.917
34.896
34.873
34.847
34.819
34.788
34.754
34.719
34.682
34.643
34.604
34.564
34.523
34.483
34.442
34.401
34.359
34.318
34.277
34.238
34.199
34.162
34.126
34.09
34.056
34.021
33.986
33.951
33.916
33.88
33.845
33.81
33.776
33.741
33.706
33.672
33.639
33.606
33.573
33.542
33.511
33.481
33.454
33.428
33.404
33.38
33.358
33.338
33.319
33.3
33.283
33.268
33.255
33.243
33.233
33.224
33.217
33.211
33.205
33.199
33.193
33.186
33.178
33.17
33.161
33.153
33.146
33.14
33.135
33.133
33.135
33.144
33.161
33.19
33.232
33.292
33.372
33.474
33.599
33.749
33.926
34.13
34.36
34.616
34.897
35.2
35.522
35.859
36.207
36.56
36.912
37.258
37.592
37.908
38.201
38.466
38.7
38.901
39.067
39.199
39.297
39.362
39.396
39.401
39.378
39.33
39.26
39.172
39.068
38.95
38.822
38.688
38.548
38.405
38.262
38.119
37.977
37.837
37.698
37.56
37.425
37.292
37.161
37.034
36.909
36.787
36.668
36.551
36.436
36.323
36.212
36.101
35.992
35.882
35.773
35.664
35.557
35.454
35.354
35.259
35.17
35.086
35.009
34.938
34.874
34.818
34.768
34.726
34.69
34.661
34.638
34.621
34.609
34.603
34.602
34.605
34.611
34.62
34.633
34.647
34.664
34.681
34.7
34.718
34.737
34.755
34.772
34.787
34.8
34.811
34.819
34.823
34.824
34.821
34.814
34.803
34.789
34.771
34.751
34.73
34.708
34.686
34.662
34.638
34.612
34.585
34.556
34.526
34.493
34.458
34.421
34.381
34.339
34.295
34.25
34.204
34.158
34.112
34.066
34.021
33.977
33.935
33.896
33.858
33.822
33.788
33.756
33.726
33.697
33.669
33.641
33.614
33.587
33.56
33.535
33.51
33.487
33.465
33.444
33.424
33.405
33.388
33.37
33.352
33.333
33.315
33.297
33.278
33.26
33.243
33.226
33.211
33.196
33.183
33.171
33.16
33.15
33.14
33.13
33.119
33.11
33.102
33.095
33.091
33.091
33.096
33.108
33.129
33.161
33.205
33.265
33.341
33.437
33.554
33.694
33.857
34.043
34.252
34.484
34.736
35.007
35.295
35.597
35.91
36.229
36.551
36.871
37.185
37.487
37.773
38.039
38.282
38.499
38.686
38.841
38.965
39.056
39.115
39.143
39.142
39.113
39.059
38.981
38.883
38.768
38.639
38.499
38.35
38.196
38.038
37.879
37.72
37.564
37.41
37.26
37.115
36.975
36.839
36.707
36.58
36.458
36.339
36.225
36.112
36.003
35.896
35.792
35.692
35.596
35.503
35.415
35.33
35.249
35.171
35.096
35.026
34.959
34.897
34.84
34.789
34.744
34.705
34.673
34.648
34.628
34.615
34.607
34.605
34.607
34.615
34.627
34.642
34.661
34.682
34.704
34.728
34.752
34.775
34.799
34.821
34.842
34.861
34.878
34.892
34.903
34.91
34.914
34.914
34.91
34.903
34.893
34.881
34.866
34.849
34.83
34.809
34.787
34.763
34.739
34.714
34.69
34.664
34.637
34.609
34.579
34.546
34.511
34.474
34.434
34.393
34.349
34.304
34.258
34.213
34.167
34.122
34.079
34.038
33.998
33.96
33.924
33.89
33.857
33.826
33.797
33.77
33.743
33.718
33.693
33.669
33.645
33.621
33.597
33.573
33.548
33.525
33.502
33.48
33.46
33.442
33.426
33.411
33.398
33.387
33.377
33.368
33.36
33.354
33.347
33.341
33.335
33.331
33.329
33.33
33.335
33.348
33.369
33.401
33.446
33.506
33.584
33.682
33.803
33.95
34.123
34.322
34.547
34.797
35.07
35.363
35.673
35.996
36.328
36.664
36.999
37.327
37.644
37.944
38.223
38.477
38.702
38.897
39.058
39.185
39.278
39.338
39.365
39.363
39.332
39.278
39.203
39.109
39.0
38.879
38.749
38.613
38.471
38.328
38.184
38.041
37.898
37.758
37.621
37.486
37.354
37.224
37.096
36.97
36.846
36.723
36.601
36.481
36.363
36.246
36.131
36.018
35.908
35.801
35.696
35.593
35.491
35.392
35.297
35.207
35.123
35.045
34.976
34.914
34.861
34.816
34.778
34.749
34.725
34.708
34.696
34.691
34.69
34.693
34.7
34.71
34.722
34.737
34.752
34.769
34.785
34.802
34.819
34.836
34.852
34.868
34.883
34.896
34.908
34.918
34.926
34.931
34.934
34.932
34.927
34.918
34.905
34.887
34.865
34.839
34.809
34.776
34.741
34.704
34.665
34.625
34.585
34.544
34.503
34.462
34.422
34.382
34.342
34.302
34.262
34.223
34.183
34.144
34.106
34.069
34.032
33.997
33.962
33.928
33.895
33.861
33.828
33.794
33.759
33.723
33.687
33.65
33.613
33.578
33.544
33.513
33.484
33.457
33.433
33.412
33.394
33.376
33.36
33.344
33.33
33.316
33.302
33.289
33.275
33.261
33.248
33.234
33.22
33.207
33.193
33.181
33.169
33.159
33.151
33.145
33.143
33.144
33.151
33.167
33.193
33.233
33.289
33.363
33.458
33.576
33.717
33.884
34.075
34.292
34.532
34.795
35.081
35.387
35.711
36.049
36.397
36.752
37.107
37.456
37.795
38.118
38.421
38.698
38.945
39.16
39.341
39.488
39.598
39.675
39.719
39.732
39.716
39.674
39.609
39.525
39.423
39.307
39.18
39.044
38.901
38.755
38.606
38.456
38.308
38.161
38.017
37.876
37.74
37.609
37.481
37.358
37.238
37.12
37.005
36.892
36.781
36.672
36.563
36.456
36.35
36.244
36.14
36.038
35.937
35.837
35.737
35.638
35.54
35.444
35.352
35.264
35.181
35.105
35.036
34.976
34.924
34.882
34.848
34.822
34.804
34.794
34.791
34.794
34.803
34.816
34.833
34.853
34.876
34.899
34.923
34.946
34.967
34.986
35.003
35.017
35.029
35.037
35.042
35.044
35.041
35.036
35.029
35.018
35.005
34.989
34.972
34.952
34.93
34.906
34.88
34.852
34.821
34.788
34.753
34.715
34.676
34.636
34.595
34.553
34.511
34.468
34.424
34.381
34.338
34.294
34.25
34.207
34.163
34.12
34.077
34.035
33.994
33.955
33.916
33.879
33.844
33.81
33.778
33.748
33.719
33.691
33.665
33.64
33.617
33.595
33.575
33.555
33.536
33.517
33.498
33.478
33.458
33.439
33.42
33.401
33.382
33.365
33.349
33.335
33.322
33.309
33.298
33.288
33.279
33.27
33.262
33.253
33.245
33.238
33.233
33.232
33.235
33.247
33.269
33.303
33.352
33.42
33.509
33.621
33.758
33.921
34.112
34.33
34.574
34.843
35.134
35.447
35.777
36.119
36.471
36.827
37.181
37.527
37.859
38.173
38.463
38.725
38.956
39.155
39.318
39.446
39.539
39.597
39.623
39.619
39.588
39.532
39.456
39.362
39.252
39.13
38.998
38.859
38.714
38.565
38.414
38.262
38.111
37.962
37.814
37.67
37.529
37.392
37.259
37.13
37.006
36.886
36.769
36.655
36.544
36.435
36.328
36.222
36.117
36.013
35.911
35.811
35.715
35.624
35.541
35.469
35.408
35.354
35.307
35.264
35.223
35.183
35.141
35.096
35.049
35.001
34.951
34.902
34.856
34.814
34.777
34.747
34.724
34.709
34.702
34.703
34.709
34.721
34.737
34.756
34.777
34.799
34.823
34.845
34.866
34.884
34.899
34.91
34.917
34.92
34.918
34.912
34.9
34.885
34.866
34.843
34.817
34.788
34.757
34.725
34.69
34.654
34.619
34.583
34.547
34.512
34.477
34.441
34.406
34.369
34.333
34.296
34.259
34.22
34.182
34.142
34.103
34.064
34.024
33.984
33.944
33.903
33.863
33.823
33.784
33.746
33.709
33.675
33.642
33.61
33.581
33.553
33.526
33.499
33.474
33.45
33.428
33.407
33.388
33.37
33.353
33.337
33.322
33.307
33.292
33.277
33.263
33.249
33.236
33.223
33.211
33.201
33.191
33.182
33.173
33.167
33.163
33.163
33.169
33.182
33.207
33.244
33.298
33.369
33.462
33.577
33.715
33.878
34.064
34.273
34.504
34.757
35.03
35.321
35.628
35.947
36.275
36.607
36.94
37.267
37.584
37.885
38.166
38.422
38.65
38.847
39.011
39.142
39.237
39.298
39.326
39.322
39.29
39.233
39.153
39.054
38.941
38.815
38.678
38.535
38.386
38.233
38.078
37.923
37.769
37.617
37.466
37.318
37.175
37.035
36.9
36.769
36.641
36.518
36.398
36.282
36.169
36.059
35.952
35.847
35.744
35.644
35.546
35.45
35.357
35.267
35.181
35.098
35.021
34.949
34.883
34.823
34.769
34.722
34.683
34.65
34.626
34.608
34.598
34.595
34.597
34.605
34.617
34.631
34.649
34.667
34.687
34.708
34.729
34.75
34.772
34.794
34.815
34.836
34.856
34.874
34.891
34.904
34.915
34.922
34.925
34.924
34.918
34.906
34.89
34.87
34.846
34.819
34.79
34.759
34.728
34.697
34.665
34.634
34.603
34.572
34.542
34.511
34.479
34.446
34.413
34.38
34.345
34.31
34.276
34.243
34.211
34.179
34.148
34.117
34.086
34.055
34.023
33.99
33.958
33.927
33.896
33.865
33.835
33.804
33.775
33.746
33.717
33.689
33.663
33.637
33.613
33.59
33.569
33.55
33.533
33.516
33.499
33.484
33.469
33.455
33.441
33.427
33.414
33.401
33.388
33.376
33.365
33.358
33.354
33.355
33.365
33.383
33.414
33.459
33.522
33.603
33.707
33.833
33.985
34.163
34.365
34.593
34.843
35.115
35.406
35.715
36.038
36.373
36.713
37.055
37.392
37.719
38.03
38.32
38.585
38.822
39.027
39.199
39.336
39.438
39.506
39.541
39.544
39.518
39.466
39.391
39.296
39.184
39.058
38.921
38.775
38.622
38.463
38.302
38.14
37.978
37.817
37.658
37.503
37.351
37.203
37.059
36.919
36.784
36.651
36.522
36.397
36.275
36.156
36.041
35.929
35.819
35.712
35.609
35.509
35.413
35.321
35.234
35.151
35.075
35.004
34.94
34.882
34.832
34.788
34.752
34.724
34.705
34.695
34.693
34.699
34.711
34.728
34.748
34.77
34.793
34.816
34.84
34.863
34.885
34.905
34.924
34.941
34.955
34.968
34.978
34.986
34.991
34.995
34.996
34.996
34.994
34.99
34.984
34.977
34.967
34.954
34.939
34.922
34.901
34.879
34.853
34.825
34.794
34.761
34.726
34.689
34.651
34.611
34.57
34.529
34.487
34.445
34.403
34.361
34.319
34.277
34.236
34.195
34.155
34.116
34.078
34.041
34.006
33.972
33.94
33.908
33.878
33.847
33.817
33.789
33.761
33.733
33.706
33.68
33.656
33.633
33.611
33.591
33.573
33.556
33.54
33.525
33.51
33.496
33.482
33.468
33.455
33.443
33.431
33.421
33.413
33.406
33.403
33.403
33.409
33.422
33.445
33.479
33.529
33.597
33.687
33.8
33.939
34.106
34.303
34.529
34.785
35.07
35.381
35.717
36.073
36.445
36.827
37.213
37.595
37.966
38.32
38.651
38.954
39.225
39.463
39.666
39.832
39.96
40.053
40.11
40.134
40.127
40.09
40.029
39.944
39.838
39.716
39.579
39.432
39.276
39.116
38.953
38.789
38.626
38.464
38.304
38.147
37.993
37.842
37.695
37.551
37.411
37.274
37.14
37.007
36.878
36.75
36.625
36.502
36.382
36.264
36.148
36.036
35.927
35.822
35.721
35.622
35.528
35.437
35.349
35.266
35.187
35.115
35.048
34.987
34.934
34.889
34.851
34.822
34.801
34.788
34.783
34.788
34.802
34.824
34.851
34.881
34.912
34.941
34.968
34.991
35.011
35.026
35.036
35.042
35.044
35.041
35.035
35.026
35.014
35.001
34.985
34.968
34.95
34.93
34.909
34.887
34.864
34.839
34.813
34.786
34.757
34.727
34.696
34.664
34.63
34.594
34.558
34.52
34.482
34.444
34.405
34.366
34.326
34.285
34.245
34.205
34.165
34.126
34.087
34.049
34.012
33.976
33.941
33.907
33.875
33.843
33.81
33.776
33.743
33.71
33.679
33.65
33.623
33.599
33.578
33.56
33.543
33.529
33.516
33.505
33.494
33.483
33.471
33.458
33.446
33.434
33.421
33.407
33.393
33.381
33.369
33.356
33.345
33.335
33.328
33.324
33.324
33.331
33.347
33.373
33.413
33.47
33.548
33.648
33.775
33.93
34.115
34.331
34.581
34.863
35.179
35.526
35.9
36.297
36.71
37.133
37.557
37.975
38.379
38.764
39.122
39.447
39.734
39.978
40.177
40.33
40.44
40.51
40.543
40.542
40.51
40.451
40.369
40.267
40.148
40.015
39.871
39.719
39.561
39.399
39.235
39.071
38.906
38.743
38.583
38.425
38.271
38.119
37.97
37.822
37.675
37.529
37.383
37.239
37.097
36.956
36.816
36.68
36.546
36.415
36.288
36.165
36.045
35.93
35.818
35.711
35.61
35.514
35.423
35.338
35.258
35.184
35.116
35.055
35.001
34.954
34.914
34.881
34.855
34.835
34.822
34.815
34.811
34.812
34.817
34.825
34.836
34.85
34.866
34.885
34.907
34.93
34.954
34.977
34.999
35.02
35.037
35.05
35.059
35.064
35.064
35.059
35.049
35.034
35.016
34.993
34.967
34.937
34.904
34.869
34.833
34.795
34.755
34.715
34.674
34.632
34.59
34.547
34.503
34.458
34.412
34.366
34.319
34.27
34.222
34.174
34.127
34.08
34.033
33.988
33.944
33.9
33.858
33.817
33.778
33.739
33.703
33.669
33.637
33.607
33.578
33.55
33.522
33.495
33.468
33.443
33.418
33.395
33.372
33.35
33.33
33.311
33.293
33.277
33.264
33.253
33.244
33.237
33.231
33.226
33.222
33.217
33.212
33.206
33.201
33.198
33.197
33.2
33.211
33.231
33.264
33.313
33.381
33.47
33.585
33.728
33.902
34.109
34.35
34.626
34.935
35.277
35.647
36.04
36.451
36.873
37.299
37.721
38.132
38.525
38.895
39.24
39.557
39.84
40.086
40.293
40.456
40.576
40.653
40.688
40.682
40.64
40.565
40.461
40.333
40.186
40.023
39.848
39.666
39.48
39.291
39.103
38.916
38.732
38.551
38.374
38.2
38.031
37.867
37.707
37.552
37.4
37.252
37.108
36.965
36.825
36.688
36.552
36.417
36.285
36.155
36.027
35.901
35.779
35.661
35.546
35.436
35.331
35.232
35.139
35.052
34.972
34.9
34.835
34.778
34.729
34.688
34.655
34.629
34.612
34.602
34.598
34.602
34.611
34.626
34.645
34.668
34.693
34.719
34.746
34.771
34.795
34.817
34.835
34.851
34.863
34.872
34.876
34.877
34.874
34.867
34.855
34.839
34.819
34.796
34.769
34.739
34.707
34.673
34.638
34.603
34.567
34.53
34.493
34.454
34.415
34.374
34.332
34.288
34.242
34.195
34.147
34.098
34.048
33.998
33.949
33.9
33.852
33.806
33.762
33.722
33.684
33.651
33.623
33.599
33.579
33.561
33.545
33.528
33.511
33.492
33.471
33.448
33.423
33.395
33.366
33.336
33.305
33.275
33.246
33.22
33.197
33.176
33.159
33.144
33.132
33.122
33.113
33.104
33.094
33.084
33.073
33.063
33.052
33.043
33.034
33.028
33.024
33.024
33.029
33.043
33.068
33.105
33.157
33.228
33.322
33.441
