Trial 1:0back
36.928
36.912
36.894
36.875
36.854
36.831
36.805
36.778
36.747
36.715
36.679
36.641
36.6
36.558
36.514
36.469
36.424
36.377
36.33
36.282
36.234
36.187
36.141
36.096
36.052
36.01
35.97
35.931
35.893
35.858
35.823
35.79
35.758
35.728
35.699
35.671
35.643
35.617
35.592
35.569
35.547
35.529
35.514
35.503
35.495
35.491
35.491
35.495
35.501
35.511
35.522
35.534
35.546
35.558
35.569
35.58
35.588
35.593
35.594
35.59
35.581
35.565
35.543
35.515
35.484
35.449
35.414
35.378
35.344
35.311
35.28
35.253
35.23
35.211
35.195
35.181
35.168
35.156
35.143
35.129
35.114
35.097
35.078
35.058
35.037
35.014
34.99
34.965
34.94
34.914
34.888
34.863
34.839
34.815
34.793
34.772
34.754
34.738
34.725
34.714
34.706
34.698
34.692
34.684
34.674
34.662
34.647
34.628
34.605
34.579
34.547
34.512
34.473
34.431
34.388
34.344
34.299
34.255
34.213
34.174
34.137
34.105
34.078
34.057
34.043
34.037
34.039
34.051
34.072
34.105
34.151
34.211
34.285
34.375
34.481
34.601
34.735
34.881
35.037
35.201
35.371
35.542
35.713
35.881
36.044
36.199
36.345
36.48
36.605
36.718
36.82
36.909
36.987
37.052
37.105
37.145
37.172
37.187
37.19
37.182
37.164
37.137
37.101
37.059
37.011
36.958
36.902
36.844
36.784
36.725
36.667
36.611
36.558
36.509
36.463
36.422
36.385
36.352
36.322
36.293
36.265
36.236
36.207
36.175
36.141
36.104
36.065
36.022
35.977
35.929
35.878
35.825
35.77
35.713
35.655
35.597
35.54
35.484
35.431
35.38
35.333
35.29
35.252
35.218
35.19
35.168
35.152
35.142
35.136
35.134
35.136
35.141
35.147
35.152
35.157
35.158
35.156
35.149
35.138
35.122
35.102
35.079
35.054
35.026
34.996
34.964
34.931
34.898
34.865
34.833
34.803
34.774
34.747
34.722
34.698
34.675
34.653
34.632
34.61
34.586
34.56
34.532
34.5
34.465
34.429
34.391
34.354
34.318
34.285
34.254
34.227
34.201
34.179
34.159
34.142
34.126
34.11
34.095
34.079
34.063
34.045
34.026
34.005
33.983
33.958
33.932
33.906
33.879
33.854
33.83
33.807
33.786
33.766
33.747
33.729
33.711
33.693
33.676
33.66
33.644
33.627
33.611
33.593
33.574
33.554
33.534
33.514
33.495
33.479
33.468
33.463
33.466
33.48
33.507
33.549
33.607
33.681
33.773
33.88
34.002
34.137
34.285
34.441
34.605
34.774
34.944
35.114
35.28
35.439
35.59
35.731
35.862
35.982
36.09
36.185
36.27
36.343
36.405
36.457
36.498
36.529
36.55
36.562
36.564
36.558
36.544
36.524
36.5
36.474
36.445
36.416
36.387
36.357
36.328
36.298
36.267
36.235
36.202
36.168
36.131
36.09
36.044
35.994
35.94
35.882
35.821
35.759
35.697
35.636
35.577
35.523
35.473
35.428
35.389
35.354
35.322
35.292
35.263
35.235
35.207
35.18
35.153
35.127
35.102
35.079
35.058
35.04
35.024
35.013
35.006
35.004
35.005
35.01
35.019
35.032
35.047
35.066
35.086
35.108
35.129
35.15
35.17
35.187
35.201
35.212
35.219
35.223
35.223
35.221
35.215
35.206
35.195
35.181
35.166
35.148
35.129
35.109
35.087
35.064
35.041
35.018
34.995
34.972
34.95
34.928
34.908
34.889
34.873
34.858
34.844
34.832
34.821
34.809
34.795
34.778
34.757
34.733
34.705
34.674
34.64
34.604
34.566
34.528
34.491
34.455
34.42
34.388
34.357
34.329
34.303
34.277
34.254
34.231
34.209
34.187
34.165
34.142
34.12
34.097
34.075
34.052
34.031
34.012
33.995
33.98
33.968
33.962
33.961
33.969
33.986
34.014
34.054
34.109
34.178
34.262
34.362
34.476
34.604
34.744
34.895
35.053
35.216
35.381
35.545
35.705
35.86
36.007
36.145
36.271
36.385
36.488
36.578
36.657
36.724
36.779
36.822
36.855
36.876
36.887
36.888
36.88
36.864
36.841
36.813
36.783
36.75
36.718
36.687
36.658
36.632
36.608
36.586
36.565
36.544
36.522
36.499
36.474
36.445
36.413
36.376
36.335
36.288
36.236
36.18
36.118
36.053
35.985
35.915
35.845
35.776
35.709
35.645
35.586
35.533
35.487
35.447
35.415
35.389
35.369
35.356
35.347
35.342
35.341
35.34
35.341
35.342
35.343
35.342
35.34
35.337
35.332
35.327
35.321
35.315
35.31
35.305
35.3
35.296
35.291
35.286
35.281
35.275
35.269
35.263
35.255
35.248
35.24
35.232
35.225
35.217
35.209
35.201
35.192
35.182
35.17
35.156
35.141
35.123
35.104
35.083
35.06
35.035
35.009
34.98
34.95
34.917
34.884
34.849
34.814
34.779
34.745
34.713
34.683
34.653
34.626
34.6
34.576
34.553
34.531
34.51
34.489
34.469
34.45
34.429
34.408
34.386
34.363
34.34
34.316
34.293
34.27
34.248
34.227
34.209
34.192
34.177
34.165
34.153
34.144
34.136
34.13
34.128
34.131
34.14
34.158
34.187
34.228
34.284
34.355
34.443
34.547
34.666
34.801
34.949
35.107
35.273
35.446
35.622
35.798
35.972
36.142
36.305
36.46
36.606
36.741
36.865
36.976
37.073
37.158
37.229
37.286
37.331
37.363
37.384
37.394
37.394
37.386
37.37
37.347
37.318
37.283
37.245
37.204
37.162
37.12
37.078
37.037
36.997
36.958
36.919
36.879
36.836
36.791
36.743
36.692
36.636
36.577
36.515
36.45
36.384
36.318
36.254
36.192
36.134
36.079
36.029
35.982
35.94
35.902
35.868
35.836
35.806
35.777
35.75
35.722
35.694
35.666
35.637
35.608
35.579
35.551
35.525
35.502
35.481
35.465
35.454
35.448
35.447
35.452
35.462
35.477
35.495
35.515
35.537
35.557
35.574
35.588
35.595
35.597
35.591
35.576
35.553
35.522
35.485
35.441
35.391
35.339
35.284
35.229
35.175
35.123
35.074
35.029
34.988
34.951
34.918
34.888
34.861
34.836
34.812
34.788
34.765
34.742
34.718
34.694
34.668
34.641
34.613
34.583
34.551
34.519
34.487
34.455
34.424
34.396
34.371
34.349
34.332
34.32
34.311
34.305
34.301
34.297
34.29
34.281
34.268
34.25
34.227
34.199
34.166
34.128
34.088
34.046
34.004
33.963
33.927
33.897
33.875
33.863
33.862
33.873
33.899
33.94
33.997
34.07
34.16
34.266
34.387
34.522
34.667
34.822
34.984
35.15
35.318
35.485
35.647
35.805
35.955
36.098
36.233
36.361
36.481
36.593
36.697
36.795
36.885
36.967
37.041
37.106
37.163
37.209
37.243
37.266
37.276
37.275
37.263
37.241
37.212
37.177
37.137
37.094
37.049
37.002
36.954
36.905
36.855
36.805
36.755
36.705
36.654
36.602
36.548
36.492
36.432
36.369
36.303
36.235
36.166
36.096
36.027
35.959
35.893
35.83
35.77
35.715
35.666
35.622
35.585
35.553
35.524
35.499
35.476
35.455
35.435
35.415
35.394
35.372
35.351
35.329
35.307
35.286
35.266
35.246
35.227
35.209
35.191
35.173
35.154
35.134
35.112
35.09
35.066
35.041
35.015
34.988
34.959
34.93
34.901
34.872
34.844
34.818
34.792
34.767
34.742
34.718
34.692
34.667
34.641
34.615
34.588
34.56
34.531
34.502
34.472
34.441
34.41
34.379
34.348
34.318
34.289
34.262
34.237
34.214
34.194
34.178
34.165
34.156
34.149
34.146
34.145
34.144
34.145
34.144
34.142
34.137
34.128
34.114
34.093
34.067
34.035
33.998
33.959
33.919
33.879
33.841
33.808
33.778
33.752
33.731
33.714
33.7
33.689
33.679
33.671
33.664
33.66
33.658
33.662
33.673
33.691
33.72
33.762
33.817
33.887
33.974
34.076
34.195
34.328
34.474
34.631
34.797
34.968
35.143
35.317
35.489
35.656
35.814
35.963
36.1
36.224
36.333
36.427
36.506
36.571
36.622
36.662
36.691
36.713
36.727
36.736
36.741
36.743
36.743
36.74
36.735
36.728
36.719
36.705
36.687
36.665
36.638
36.607
36.571
36.533
36.492
36.449
36.403
36.353
36.3
36.243
36.183
36.12
36.054
35.988
35.921
35.856
35.795
35.737
35.683
35.635
35.592
35.554
35.52
35.489
35.461
35.435
35.41
35.386
35.362
35.339
35.317
35.294
35.272
35.249
35.228
35.208
35.19
35.174
35.162
35.153
35.148
35.146
35.146
35.15
35.156
35.164
35.175
35.187
35.201
35.215
35.23
35.245
35.258
35.27
35.279
35.284
35.285
35.28
35.271
35.258
35.24
35.219
35.193
35.164
35.132
35.099
35.065
35.031
34.997
34.965
34.934
34.905
34.879
34.856
34.836
34.819
34.806
34.795
34.786
34.778
34.77
34.761
34.749
34.734
34.714
34.691
34.663
34.63
34.594
34.555
34.515
34.474
34.434
34.395
34.358
34.323
34.292
34.264
34.238
34.214
34.193
34.174
34.156
34.139
34.123
34.106
34.089
34.073
34.056
34.04
34.025
34.011
33.999
33.99
33.985
33.984
33.988
33.999
34.017
34.044
34.082
34.13
34.192
34.268
34.357
34.461
34.578
34.708
34.848
34.996
35.15
35.308
35.466
35.623
35.776
35.923
36.062
36.194
36.316
36.429
36.532
36.624
36.707
36.778
36.838
36.887
36.924
36.949
36.961
36.962
36.95
36.927
36.893
36.849
36.796
36.736
36.671
36.602
36.531
36.461
36.391
36.324
36.262
36.205
36.154
36.108
36.067
36.029
35.994
35.961
35.928
35.896
35.864
35.831
35.799
35.766
35.735
35.704
35.674
35.644
35.613
35.581
35.548
35.514
35.478
35.442
35.407
35.373
35.341
35.312
35.286
35.264
35.247
35.232
35.222
35.214
35.207
35.202
35.197
35.193
35.188
35.182
35.176
35.17
35.166
35.163
35.163
35.166
35.173
35.182
35.194
35.208
35.223
35.237
35.249
35.256
35.258
35.255
35.247
35.234
35.217
35.198
35.177
35.156
35.134
35.113
35.093
35.073
35.054
35.035
35.017
35.0
34.983
34.967
34.953
34.941
34.931
34.924
34.92
34.917
34.916
34.916
34.916
34.915
34.913
34.91
34.905
34.899
34.891
34.883
34.875
34.869
34.864
34.863
34.865
34.87
34.879
34.891
34.905
34.92
34.936
34.952
34.966
34.977
34.984
34.985
34.981
34.972
34.958
34.94
34.922
34.905
34.893
34.888
34.893
34.911
34.943
34.991
35.056
35.137
35.235
35.347
35.472
35.608
35.751
35.898
36.048
36.196
36.342
36.483
36.617
36.742
36.858
36.963
37.057
37.138
37.207
37.265
37.311
37.347
37.375
37.394
37.406
37.41
37.407
37.397
37.38
37.358
37.33
37.297
37.258
37.215
37.168
37.116
37.061
37.002
36.94
36.875
36.808
36.738
36.666
36.593
36.521
36.448
36.376
36.305
36.235
36.168
36.104
36.043
35.986
35.933
35.884
35.837
35.792
35.749
35.705
35.661
35.616
35.571
35.523
35.475
35.426
35.377
35.328
35.281
35.233
35.187
35.143
35.1
35.061
35.024
34.992
34.965
34.943
34.928
34.919
34.916
34.919
34.927
34.938
34.952
34.967
34.982
34.997
35.01
35.02
35.027
35.03
35.028
35.021
35.009
34.992
34.97
34.944
34.915
34.882
34.847
34.81
34.773
34.735
34.697
34.659
34.622
34.586
34.552
34.521
34.492
34.466
34.442
34.422
34.403
34.388
34.375
34.365
34.358
34.353
34.35
34.347
34.345
34.341
34.336
34.329
34.319
34.306
34.289
34.268
34.244
34.217
34.187
34.155
34.12
34.084
34.047
34.009
33.972
33.936
33.904
33.875
33.852
33.834
33.822
33.814
33.811
33.813
33.818
33.828
33.841
33.859
33.88
33.907
33.941
33.982
34.032
34.093
34.165
34.248
34.345
34.454
34.576
34.709
34.852
35.002
35.158
35.316
35.473
35.628
35.777
35.92
36.055
36.18
36.295
36.398
36.489
36.568
36.635
36.69
36.732
36.761
36.778
36.783
36.777
36.762
36.738
36.707
36.671
36.63
36.585
36.538
36.49
36.441
36.391
36.341
36.291
36.242
36.194
36.148
36.104
36.063
36.023
35.986
35.95
35.915
35.88
35.845
35.807
35.767
35.725
35.68
35.635
35.589
35.543
35.497
35.452
35.409
35.369
35.332
35.298
35.267
35.239
35.214
35.19
35.166
35.141
35.115
35.089
35.063
35.037
35.012
34.991
34.974
34.962
34.954
34.952
34.953
34.959
34.967
34.977
34.987
34.997
35.005
35.011
35.014
35.013
35.009
35.001
34.989
34.974
34.955
34.932
34.907
34.881
34.852
34.823
34.793
34.763
34.734
34.705
34.678
34.651
34.625
34.6
34.576
34.552
34.528
34.504
34.48
34.456
34.432
34.408
34.386
34.364
34.344
34.324
34.307
34.29
34.276
34.263
34.252
34.244
34.236
34.231
34.226
34.221
34.217
34.214
34.211
34.208
34.205
34.202
34.199
34.195
34.189
34.181
34.171
34.157
34.14
34.119
34.095
34.067
34.036
34.002
33.967
33.933
33.9
33.87
33.844
33.824
33.812
33.81
33.819
33.841
33.877
33.926
33.988
34.063
34.15
34.247
34.354
34.47
34.593
34.722
34.854
34.989
35.125
35.26
35.392
35.521
35.644
35.762
35.872
35.975
36.069
36.154
36.228
36.292
36.347
36.393
36.431
36.462
36.487
36.504
36.513
36.516
36.511
36.499
36.48
36.454
36.423
36.387
36.346
36.302
36.254
36.204
36.151
36.097
36.042
35.986
35.929
35.872
35.815
35.757
35.701
35.645
35.59
35.539
35.49
35.444
35.401
35.361
35.324
35.29
35.258
35.227
35.197
35.167
35.136
35.103
35.07
35.035
34.999
34.963
34.927
34.891
34.855
34.82
34.787
34.756
34.727
34.7
34.676
34.653
34.632
34.615
34.6
34.588
34.578
34.571
34.566
34.563
34.562
34.562
34.564
34.567
34.57
34.572
34.573
34.572
34.567
34.557
34.542
34.522
34.496
34.464
34.427
34.386
34.342
34.296
34.25
34.203
34.157
34.112
34.069
34.027
33.988
33.951
33.917
33.885
33.855
33.828
33.802
33.777
33.753
33.729
33.706
33.683
33.66
33.638
33.616
33.597
33.58
33.566
33.556
33.549
33.545
33.544
33.545
33.547
33.549
33.55
33.548
33.544
33.536
33.525
33.511
33.494
33.475
33.454
33.434
33.413
33.393
33.374
33.355
33.338
33.321
33.305
33.292
33.28
33.271
33.265
33.263
33.264
33.27
33.28
33.297
33.32
33.351
33.392
33.443
33.507
33.583
33.673
33.776
33.891
34.018
34.155
34.299
34.449
34.6
34.751
34.897
35.038
35.169
35.29
35.4
35.497
35.582
35.655
35.716
35.766
35.805
35.835
35.856
35.868
35.874
35.874
35.869
35.861
35.85
35.839
35.828
35.816
35.803
35.789
35.774
35.756
35.735
35.711
35.684
35.652
35.617
35.576
35.531
35.482
35.43
35.375
35.32
35.265
35.212
35.161
35.114
35.07
35.03
34.993
34.96
34.93
34.902
34.878
34.857
34.839
34.825
34.814
34.806
34.801
34.798
34.798
34.797
34.797
34.795
34.792
34.787
34.78
34.772
34.762
34.752
34.743
34.736
34.73
34.728
34.728
34.731
34.737
34.743
34.75
34.756
34.761
34.763
34.763
34.76
34.753
34.742
34.728
34.71
34.689
34.667
34.643
34.619
34.596
34.573
34.551
34.529
34.507
34.484
34.462
34.439
34.417
34.395
34.376
34.359
34.344
34.332
34.324
34.317
34.313
34.311
34.311
34.311
34.312
34.313
34.313
34.311
34.309
34.307
34.304
34.301
34.298
34.294
34.291
34.287
34.284
34.279
34.272
34.263
34.25
34.234
34.215
34.191
34.164
34.134
34.102
34.069
34.036
34.004
33.975
33.95
33.929
33.912
33.901
33.894
33.892
33.895
33.904
33.918
33.939
33.968
34.008
34.06
34.126
34.208
34.305
34.418
34.546
34.686
34.838
34.998
35.162
35.328
35.493
35.652
35.804
35.946
36.076
36.193
36.295
36.383
36.456
36.516
36.564
36.601
36.627
36.644
36.653
36.655
36.65
36.64
36.624
36.603
36.578
36.549
36.516
36.479
36.441
36.401
36.361
36.322
36.284
36.248
36.214
36.18
36.148
36.115
36.081
36.045
36.007
35.967
35.923
35.876
35.826
35.771
35.714
35.654
35.592
35.53
35.468
35.409
35.352
35.3
35.251
35.206
35.166
35.13
35.098
35.07
35.044
35.02
34.998
34.977
34.958
34.94
34.922
34.906
34.89
34.875
34.86
34.845
34.83
34.815
34.802
34.789
34.778
34.768
34.759
34.753
34.747
34.744
34.741
34.74
34.739
34.739
34.74
34.74
34.741
34.74
34.738
34.733
34.726
34.715
34.701
34.684
34.663
34.638
34.61
34.58
34.547
34.511
34.474
34.436
34.398
34.361
34.325
34.293
34.264
34.24
34.22
34.204
34.193
34.185
34.18
34.177
34.176
34.175
34.173
34.169
34.162
34.153
34.14
34.123
34.102
34.077
34.051
34.022
33.993
33.964
33.937
33.912
33.89
33.871
33.856
33.844
33.836
33.83
33.826
33.823
33.82
33.815
33.809
33.8
33.789
33.777
33.763
33.75
33.738
33.728
33.721
33.72
33.727
33.743
33.77
33.81
33.866
33.936
34.023
34.127
34.245
34.378
34.524
34.681
34.845
35.013
35.182
35.348
35.51
35.665
35.812
35.949
36.076
36.192
36.298
36.394
36.481
36.558
36.627
36.687
36.737
36.779
36.812
36.836
36.851
36.856
36.851
36.837
36.816
36.787
36.753
36.716
36.675
36.632
36.589
36.545
36.501
36.459
36.419
36.382
36.348
36.317
36.289
36.264
36.24
36.218
36.196
36.175
36.153
36.13
36.105
36.078
36.049
36.016
35.982
35.945
35.906
35.866
35.826
35.787
35.749
35.713
35.678
35.645
35.613
35.583
35.556
35.531
35.509
35.49
35.474
35.46
35.449
35.44
35.431
35.424
35.418
35.412
35.407
35.403
35.4
35.397
35.396
35.395
35.395
35.396
35.397
35.398
35.397
35.396
35.391
35.385
35.376
35.365
35.351
35.334
35.315
35.294
35.271
35.247
35.224
35.201
35.18
35.159
35.139
35.12
35.1
35.081
35.061
35.04
35.019
34.996
34.972
34.948
34.923
34.897
34.871
34.846
34.82
34.796
34.773
34.75
34.728
34.708
34.688
34.669
34.652
34.635
34.619
34.606
34.593
34.581
34.57
34.559
34.549
34.539
34.53
34.522
34.514
34.507
34.499
34.492
34.484
34.475
34.465
34.454
34.441
34.427
34.411
34.394
34.374
34.352
34.33
34.307
34.285
34.266
34.253
34.247
34.25
34.266
34.297
34.345
34.411
34.497
34.603
34.727
34.866
35.019
35.181
35.35
35.523
35.696
35.866
36.032
36.191
36.341
36.48
36.607
36.721
36.821
36.906
36.977
37.035
37.08
37.113
37.135
37.148
37.152
37.149
37.138
37.122
37.101
37.077
37.049
37.02
36.99
36.959
36.929
36.899
36.871
36.843
36.816
36.791
36.765
36.74
36.714
36.686
36.657
36.624
36.589
36.551
36.511
36.467
36.422
36.375
36.326
36.277
36.227
36.176
36.126
36.076
36.027
35.98
35.936
35.895
35.858
35.825
35.797
35.772
35.751
35.732
35.716
35.701
35.687
35.675
35.663
35.651
35.639
35.627
35.615
35.602
35.588
35.575
35.561
35.547
35.533
35.518
35.504
35.49
35.476
35.464
35.452
35.441
35.431
35.423
35.415
35.408
35.401
35.394
35.385
35.375
35.364
35.351
35.337
35.323
35.307
35.291
35.274
35.257
35.239
35.22
35.2
35.177
35.152
35.125
35.094
35.061
35.024
34.985
34.945
34.903
34.863
34.825
34.791
34.762
34.739
34.722
34.711
34.706
34.706
34.711
34.718
34.726
34.735
34.741
34.745
34.744
34.74
34.731
34.719
34.702
34.683
34.66
34.635
34.61
34.585
34.561
34.538
34.517
34.498
34.48
34.465
34.45
34.437
34.425
34.413
34.401
34.389
34.377
34.366
34.355
34.347
34.342
34.342
34.35
34.369
34.401
34.449
34.513
34.596
34.697
34.815
34.95
35.1
35.263
35.437
35.617
35.801
35.983
36.16
36.33
36.489
36.636
36.768
36.884
36.985
37.069
37.137
37.191
37.233
37.264
37.287
37.303
37.315
37.324
37.331
37.335
37.338
37.337
37.332
37.323
37.309
37.289
37.264
37.233
37.197
37.157
37.114
37.068
37.02
36.972
36.923
36.876
36.83
36.786
36.744
36.704
36.664
36.625
36.586
36.548
36.51
36.473
36.437
36.402
36.368
36.334
36.301
36.269
36.238
36.208
36.181
36.155
36.132
36.111
36.094
36.079
36.068
36.06
36.056
36.054
36.055
36.057
36.059
36.062
36.066
36.069
36.073
36.077
36.082
36.086
36.09
36.093
36.095
36.096
36.096
36.093
36.089
36.082
36.072
36.06
36.045
36.026
36.005
35.979
35.949
35.916
35.878
35.836
35.791
35.743
35.694
35.643
35.592
35.542
35.494
35.448
35.406
35.369
35.335
35.307
35.282
35.262
35.245
35.23
35.218
35.207
35.198
35.191
35.184
35.177
35.171
35.163
35.153
35.14
35.124
35.104
35.081
35.055
35.025
34.993
34.958
34.922
34.886
34.851
34.817
34.784
34.753
34.722
34.693
34.664
34.638
34.612
34.588
34.566
34.545
34.525
34.507
34.49
34.476
34.465
34.46
34.461
34.471
34.491
34.523
34.567
34.626
34.7
34.788
34.893
35.013
35.147
35.293
35.451
35.617
35.788
35.963
36.138
36.31
36.478
36.639
36.791
36.933
37.063
37.182
37.288
37.381
37.462
37.531
37.591
37.641
37.683
37.715
37.739
37.755
37.761
