Trial 1:0back
35.023
34.974
34.925
34.874
34.824
34.774
34.727
34.682
34.639
34.599
34.563
34.53
34.499
34.472
34.448
34.426
34.406
34.387
34.368
34.348
34.327
34.305
34.281
34.255
34.229
34.202
34.175
34.149
34.123
34.097
34.073
34.049
34.025
34.0
33.973
33.944
33.913
33.879
33.843
33.804
33.762
33.718
33.673
33.626
33.579
33.534
33.492
33.454
33.421
33.395
33.377
33.369
33.373
33.391
33.426
33.479
33.552
33.644
33.757
33.891
34.044
34.215
34.404
34.607
34.821
35.044
35.273
35.505
35.735
35.962
36.182
36.396
36.599
36.791
36.972
37.142
37.3
37.446
37.582
37.705
37.817
37.917
38.003
38.077
38.138
38.186
38.221
38.244
38.255
38.255
38.244
38.224
38.196
38.161
38.123
38.08
38.035
37.988
37.94
37.891
37.842
37.793
37.743
37.694
37.644
37.594
37.544
37.492
37.438
37.382
37.324
37.263
37.199
37.132
37.063
36.993
36.921
36.85
36.781
36.713
36.648
36.587
36.53
36.479
36.434
36.395
36.362
36.336
36.316
36.301
36.29
36.283
36.278
36.273
36.269
36.265
36.26
36.255
36.249
36.244
36.238
36.232
36.226
36.221
36.216
36.21
36.204
36.198
36.191
36.184
36.176
36.168
36.16
36.153
36.146
36.138
36.131
36.122
36.11
36.095
36.075
36.051
36.02
35.984
35.942
35.895
35.845
35.794
35.741
35.688
35.636
35.587
35.54
35.496
35.456
35.418
35.384
35.352
35.322
35.292
35.261
35.229
35.195
35.16
35.123
35.084
35.045
35.005
34.964
34.923
34.883
34.845
34.808
34.772
34.739
34.707
34.676
34.646
34.618
34.59
34.564
34.537
34.51
34.482
34.453
34.423
34.391
34.357
34.321
34.283
34.243
34.202
34.159
34.117
34.076
34.038
34.002
33.969
33.941
33.918
33.901
33.893
33.895
33.91
33.939
33.986
34.051
34.138
34.246
34.377
34.53
34.703
34.896
35.106
35.331
35.568
35.814
36.066
36.32
36.573
36.821
37.061
37.29
37.503
37.7
37.877
38.035
38.172
38.288
38.385
38.462
38.521
38.565
38.593
38.608
38.61
38.602
38.584
38.557
38.523
38.481
38.435
38.384
38.33
38.274
38.215
38.155
38.094
38.031
37.968
37.903
37.837
37.768
37.696
37.622
37.544
37.465
37.384
37.303
37.223
37.145
37.07
36.997
36.928
36.862
36.801
36.742
36.687
36.635
36.586
36.539
36.496
36.455
36.418
36.384
36.354
36.327
36.304
36.285
36.271
36.26
36.253
36.249
36.248
36.249
36.252
36.257
36.265
36.274
36.285
36.297
36.309
36.322
36.333
36.343
36.348
36.35
36.347
36.34
36.329
36.315
36.298
36.278
36.255
36.229
36.2
36.168
36.133
36.095
36.054
36.011
35.967
35.921
35.874
35.827
35.78
35.733
35.688
35.645
35.605
35.568
35.535
35.507
35.482
35.462
35.444
35.428
35.413
35.397
35.382
35.364
35.345
35.323
35.297
35.267
35.233
35.196
35.155
35.111
35.064
35.014
34.963
34.911
34.859
34.808
34.76
34.714
34.671
34.631
34.592
34.553
34.513
34.473
34.432
34.391
34.349
34.307
34.266
34.226
34.186
34.147
34.111
34.077
34.047
34.02
33.997
33.98
33.97
33.967
33.975
33.992
34.022
34.067
34.127
34.206
34.305
34.424
34.563
34.722
34.899
35.092
35.299
35.516
35.741
35.971
36.202
36.432
36.657
36.875
37.085
37.285
37.475
37.655
37.823
37.978
38.122
38.252
38.369
38.471
38.56
38.634
38.695
38.742
38.776
38.799
38.81
38.811
38.803
38.787
38.764
38.734
38.699
38.658
38.612
38.562
38.507
38.45
38.389
38.325
38.259
38.192
38.122
38.051
37.978
37.903
37.827
37.749
37.67
37.589
37.508
37.426
37.346
37.267
37.191
37.117
37.045
36.977
36.912
36.849
36.79
36.734
36.682
36.634
36.591
36.553
36.52
36.492
36.469
36.452
36.441
36.435
36.435
36.44
36.449
36.461
36.476
36.493
36.509
36.525
36.539
36.549
36.556
36.558
36.554
36.545
36.532
36.514
36.493
36.468
36.44
36.41
36.379
36.347
36.313
36.278
36.242
36.205
36.168
36.13
36.092
36.053
36.013
35.973
35.934
35.894
35.855
35.817
35.779
35.742
35.706
35.671
35.636
35.603
35.569
35.536
35.503
35.47
35.438
35.407
35.377
35.346
35.316
35.286
35.254
35.221
35.186
35.149
35.11
35.069
35.024
34.975
34.923
34.868
34.81
34.75
34.688
34.626
34.563
34.5
34.439
34.38
34.326
34.276
34.232
34.193
34.16
34.134
34.115
34.105
34.104
34.112
34.133
34.166
34.215
34.28
34.362
34.463
34.583
34.721
34.877
35.049
35.235
35.433
35.641
35.857
36.077
36.299
36.521
36.741
36.956
37.165
37.368
37.563
37.75
37.928
38.097
38.255
38.402
38.536
38.658
38.766
38.859
38.937
39.001
39.049
39.084
39.105
39.112
39.107
39.09
39.063
39.025
38.978
38.923
38.861
38.792
38.72
38.644
38.566
38.487
38.407
38.327
38.246
38.164
38.081
37.997
37.912
37.826
37.739
37.65
37.561
37.471
37.382
37.295
37.211
37.13
37.052
36.979
36.91
36.846
36.787
36.733
36.685
36.642
36.604
36.572
36.545
36.523
36.505
36.492
36.483
36.477
36.473
36.472
36.471
36.47
36.47
36.468
36.466
36.462
36.459
36.454
36.447
36.44
36.43
36.418
36.403
36.385
36.364
36.34
36.312
36.279
36.243
36.202
36.157
36.109
36.057
36.003
35.947
35.891
35.834
35.779
35.725
35.675
35.627
35.583
35.542
35.504
35.468
35.434
35.401
35.37
35.34
35.31
35.281
35.251
35.221
35.191
35.161
35.13
35.099
35.067
35.033
34.996
34.958
34.917
34.874
34.828
34.781
34.731
34.679
34.625
34.57
34.513
34.456
34.398
34.341
34.284
34.227
34.171
34.114
34.057
34.0
33.944
33.887
33.831
33.776
33.724
33.673
33.627
33.585
33.548
33.517
33.492
33.476
33.47
33.477
33.498
33.537
33.594
33.672
33.772
33.896
34.043
34.213
34.405
34.617
34.848
35.095
35.354
35.624
35.901
36.181
36.462
36.738
37.008
37.267
37.513
37.743
37.956
38.15
38.326
38.483
38.621
38.741
38.843
38.929
38.998
39.053
39.093
39.121
39.136
39.139
39.131
39.112
39.083
39.045
38.999
38.946
38.888
38.826
38.761
38.695
38.628
38.559
38.49
38.421
38.35
38.278
38.203
38.126
38.046
37.962
37.876
37.789
37.7
37.611
37.522
37.433
37.344
37.256
37.169
37.081
36.994
36.907
36.821
36.738
36.658
36.584
36.515
36.454
36.401
36.356
36.319
36.29
36.268
36.253
36.242
36.235
36.23
36.226
36.223
36.218
36.211
36.202
36.189
36.174
36.156
36.137
36.116
36.096
36.075
36.055
36.035
36.016
35.996
35.975
35.953
35.929
35.903
35.876
35.846
35.815
35.782
35.747
35.709
35.67
35.629
35.585
35.54
35.493
35.445
35.394
35.342
35.289
35.234
35.178
35.122
35.066
35.009
34.952
34.896
34.839
34.784
34.729
34.676
34.625
34.575
34.529
34.484
34.443
34.404
34.369
34.335
34.304
34.275
34.248
34.221
34.194
34.167
34.138
34.106
34.072
34.034
33.992
33.946
33.897
33.845
33.79
33.733
33.674
33.615
33.555
33.495
33.436
33.38
33.328
33.279
33.236
33.198
33.166
33.142
33.127
33.122
33.13
33.153
33.192
33.25
33.33
33.431
33.555
33.703
33.874
34.066
34.279
34.511
34.759
35.02
35.292
35.572
35.856
36.143
36.429
36.71
36.985
37.248
37.499
37.733
37.949
38.144
38.316
38.465
38.591
38.694
38.775
38.836
38.878
38.903
38.914
38.912
38.899
38.877
38.847
38.811
38.768
38.72
38.666
38.608
38.545
38.479
38.409
38.336
38.259
38.18
38.098
38.014
37.927
37.839
37.748
37.655
37.56
37.464
37.366
37.268
37.171
37.075
36.982
36.892
36.806
36.724
36.647
36.576
36.509
36.446
36.388
36.334
36.283
36.237
36.194
36.155
36.12
36.089
36.062
36.037
36.014
35.993
35.972
35.952
35.932
35.912
35.892
35.872
35.853
35.837
35.823
35.812
35.805
35.801
35.801
35.804
35.809
35.817
35.825
35.833
35.839
35.843
35.842
35.836
35.823
35.801
35.77
35.729
35.68
35.623
35.561
35.495
35.427
35.36
35.293
35.23
35.172
35.118
35.071
35.031
34.996
34.968
34.945
34.925
34.908
34.892
34.874
34.855
34.832
34.806
34.776
34.741
34.703
34.661
34.617
34.572
34.526
34.48
34.436
34.393
34.354
34.317
34.282
34.25
34.221
34.195
34.172
34.149
34.127
34.105
34.082
34.056
34.028
33.996
33.959
33.918
33.874
33.827
33.779
33.733
33.691
33.658
33.635
33.626
33.635
33.664
33.716
33.792
33.895
34.023
34.178
34.358
34.561
34.786
35.029
35.287
35.556
35.832
36.112
36.39
36.663
36.927
37.179
37.416
37.636
37.836
38.016
38.174
38.311
38.427
38.524
38.601
38.662
38.708
38.742
38.764
38.775
38.776
38.768
38.751
38.726
38.693
38.652
38.602
38.546
38.481
38.409
38.331
38.246
38.156
38.061
37.961
37.857
37.748
37.636
37.52
37.403
37.284
37.164
37.045
36.926
36.81
36.698
36.592
36.492
36.398
36.311
36.231
36.156
36.088
36.024
35.965
35.909
35.857
35.807
35.76
35.715
35.673
35.634
35.6
35.571
35.547
35.529
35.518
35.513
35.513
35.519
35.529
35.542
35.556
35.571
35.585
35.596
35.605
35.608
35.604
35.593
35.574
35.549
35.517
35.481
35.441
35.398
35.353
35.307
35.262
35.217
35.172
35.128
35.084
35.04
34.996
34.95
34.902
34.854
34.804
34.753
34.701
34.648
34.594
34.538
34.482
34.426
34.37
34.315
34.26
34.206
34.152
34.1
34.05
34.001
33.954
33.91
33.867
33.827
33.79
33.754
33.72
33.687
33.655
33.624
33.592
33.559
33.524
33.487
33.446
33.401
33.352
33.298
33.24
33.176
33.109
33.039
32.967
32.896
32.826
32.761
32.7
32.646
32.6
32.565
32.542
32.534
32.542
32.569
32.615
32.682
32.772
32.883
33.017
33.172
33.349
33.545
33.761
33.994
34.242
34.504
34.777
35.06
35.349
35.642
35.937
36.229
36.516
36.795
37.063
37.316
37.553
37.771
37.968
38.144
38.297
38.428
38.535
38.62
38.684
38.727
38.75
38.755
38.745
38.72
38.683
38.636
38.58
38.517
38.449
38.378
38.305
38.23
38.155
38.08
38.003
37.926
37.848
37.769
37.69
37.61
37.53
37.45
37.369
37.287
37.204
37.121
37.036
36.949
36.862
36.773
36.683
36.593
36.503
36.414
36.327
36.243
36.162
36.085
36.011
35.942
35.879
35.821
35.77
35.724
35.685
35.653
35.626
35.604
35.586
35.572
35.559
35.547
35.534
35.521
35.507
35.492
35.476
35.46
35.444
35.428
35.415
35.403
35.393
35.385
35.376
35.367
35.358
35.346
35.331
35.312
35.29
35.262
35.231
35.196
35.157
35.114
35.07
35.023
34.975
34.927
34.88
34.833
34.786
34.74
34.695
34.651
34.608
34.566
34.524
34.483
34.442
34.401
34.36
34.32
34.279
34.238
34.198
34.157
34.117
34.076
34.035
33.994
33.951
33.907
33.861
33.813
33.763
33.711
33.658
33.603
33.547
33.489
33.43
33.37
33.309
33.248
33.187
33.126
33.064
33.004
32.943
32.884
32.825
32.768
32.712
32.66
32.611
32.567
32.528
32.496
32.472
32.459
32.457
32.47
32.499
32.548
32.619
32.713
32.833
32.978
33.151
33.348
33.57
33.814
34.078
34.358
34.649
34.947
35.249
35.551
35.85
36.142
36.426
36.697
36.956
37.199
37.426
37.634
37.824
37.993
38.143
38.271
38.378
38.463
38.526
38.57
38.595
38.601
38.592
38.568
38.531
38.485
38.43
38.369
38.303
38.233
38.161
38.088
38.014
37.938
37.861
37.782
37.702
37.619
37.534
37.446
37.357
37.266
37.171
37.073
36.972
36.868
36.76
36.65
36.54
36.43
36.32
36.211
36.106
36.003
35.906
35.813
35.725
35.644
35.569
35.5
35.438
35.384
35.339
35.301
35.272
35.249
35.233
35.223
35.218
35.216
35.216
35.217
35.22
35.222
35.224
35.224
35.224
35.222
35.219
35.215
35.209
35.201
35.191
35.179
35.163
35.144
35.121
35.095
35.065
35.032
34.994
34.953
34.909
34.861
34.812
34.76
34.709
34.659
34.612
34.568
34.528
34.491
34.457
34.425
34.395
34.367
34.339
34.312
34.285
34.257
34.229
34.2
34.17
34.14
34.11
34.079
34.048
34.016
33.983
33.95
33.915
33.879
33.842
33.803
33.765
33.725
33.684
33.642
33.598
33.553
33.505
33.455
33.404
33.35
33.295
33.239
33.182
33.126
33.07
33.016
32.964
32.916
32.872
32.834
32.801
32.774
32.753
32.737
32.726
32.72
32.72
32.725
32.737
32.755
32.783
32.823
32.877
32.948
33.039
33.152
33.289
33.449
33.634
33.844
34.077
34.331
34.605
34.895
35.197
35.508
35.823
36.137
36.447
36.747
37.035
37.306
37.559
37.789
37.995
38.177
38.335
38.469
38.581
38.671
38.741
38.793
38.828
38.847
38.854
38.848
38.832
38.806
38.772
38.731
38.684
38.63
38.571
38.505
38.434
38.358
38.275
38.186
38.091
37.99
37.882
37.77
37.653
37.532
37.407
37.281
37.153
37.025
36.898
36.773
36.651
36.532
36.418
36.309
36.206
36.109
36.017
35.932
35.851
35.777
35.707
35.642
35.583
35.529
35.48
35.436
35.399
35.369
35.345
35.327
35.317
35.312
35.312
35.317
35.327
35.339
35.353
35.366
35.378
35.389
35.397
35.402
35.403
35.402
35.396
35.387
35.374
35.359
35.34
35.319
35.294
35.267
35.236
35.202
35.167
35.13
35.092
35.053
35.015
34.977
34.939
34.9
34.861
34.821
34.781
34.742
34.702
34.661
34.621
34.579
34.538
34.496
34.453
34.409
34.363
34.315
34.266
34.215
34.165
34.114
34.063
34.013
33.965
33.918
33.873
33.83
33.789
33.749
33.709
33.669
33.63
33.59
33.549
33.507
33.463
33.417
33.368
33.317
33.264
33.21
33.156
33.101
33.048
32.996
32.947
32.9
32.857
32.818
32.785
32.76
32.744
32.74
32.752
32.782
32.834
32.912
33.017
33.152
33.317
33.512
33.736
33.986
34.26
34.555
34.866
35.189
35.52
35.855
36.187
36.513
36.829
37.131
37.416
37.683
37.929
38.154
38.357
38.54
38.701
38.842
38.962
39.062
39.143
39.204
39.246
39.268
39.273
39.261
39.232
39.19
39.134
39.068
38.992
38.907
38.817
38.721
38.622
38.519
38.414
38.306
38.197
38.086
37.974
37.861
37.746
37.631
37.517
37.403
37.289
37.176
37.062
36.947
36.833
36.718
36.603
36.488
36.374
36.262
36.153
36.048
35.948
35.855
35.769
35.69
35.619
35.557
35.504
35.46
35.423
35.394
35.371
35.353
35.341
35.333
35.328
35.328
35.33
35.336
35.344
35.354
35.364
35.375
35.385
35.393
35.4
35.404
35.403
35.397
35.385
35.366
35.341
35.309
35.272
35.228
35.18
35.128
35.073
35.018
34.962
34.906
34.851
34.797
34.744
34.693
34.645
34.6
34.557
34.517
34.478
34.44
34.403
34.366
34.328
34.29
34.249
34.207
34.162
34.116
34.068
34.019
33.97
33.922
33.874
33.827
33.782
33.74
33.7
33.662
33.626
33.592
33.559
33.527
33.496
33.466
33.437
33.407
33.375
33.343
33.307
33.269
33.228
33.183
33.135
33.083
33.028
32.972
32.915
32.858
32.802
32.747
32.696
32.649
32.607
32.57
32.54
32.517
32.503
32.501
32.513
32.543
32.592
32.665
32.765
32.893
33.052
33.242
33.463
33.717
34.0
34.31
34.642
34.992
35.355
35.727
36.1
36.472
36.836
37.188
37.522
37.836
38.125
38.39
38.627
38.836
39.018
39.172
39.3
39.401
39.478
39.531
39.564
39.577
39.575
39.559
39.531
39.493
39.446
39.393
39.333
39.267
39.196
39.12
39.039
38.953
38.862
38.765
38.663
38.556
38.445
38.332
38.218
38.104
37.991
37.879
37.769
37.662
37.558
37.457
37.36
37.266
37.173
37.082
36.992
36.903
36.815
36.727
36.641
36.555
36.471
36.387
36.303
36.22
36.136
36.054
35.973
35.894
35.817
35.744
35.677
35.617
35.567
35.527
35.499
35.481
35.474
35.477
35.49
35.51
35.534
35.561
35.588
35.613
35.634
35.649
35.658
35.66
35.655
35.643
35.624
35.6
35.57
35.535
35.496
35.453
35.408
35.361
35.312
35.261
35.208
35.154
35.099
35.043
34.986
34.927
34.867
34.806
34.746
34.686
34.627
34.57
34.514
34.461
34.411
34.364
34.319
34.276
34.236
34.197
34.159
34.121
34.084
34.046
34.006
33.965
33.92
33.873
33.824
33.773
33.72
33.666
33.61
33.551
33.492
33.431
33.37
33.31
33.252
33.196
33.143
33.093
33.045
32.999
32.955
32.911
32.866
32.822
32.777
32.733
32.69
32.648
32.609
32.573
32.538
32.507
32.48
32.459
32.444
32.44
32.448
32.471
32.515
32.581
32.673
32.792
32.94
33.117
33.324
33.558
33.819
34.103
34.407
34.725
35.055
35.393
35.736
36.079
36.42
36.756
37.082
37.396
37.694
37.974
38.233
38.469
38.681
38.869
39.031
39.169
39.282
39.37
39.434
39.475
39.495
39.494
39.474
39.439
39.389
39.327
39.256
39.177
39.092
39.004
38.913
38.822
38.732
38.641
38.551
38.46
38.369
38.277
38.184
38.088
37.99
37.889
37.785
37.678
37.567
37.453
37.337
37.219
37.102
36.986
36.872
36.761
36.652
36.546
36.446
36.35
36.261
36.178
36.102
36.035
35.977
35.929
35.89
35.86
35.84
35.827
35.822
35.824
35.831
35.842
35.856
35.871
35.888
35.905
35.921
35.935
35.946
35.955
35.961
35.963
35.961
35.956
35.947
35.934
35.918
35.899
35.877
35.853
35.826
35.798
35.768
35.735
35.698
35.658
35.614
35.565
35.514
35.459
35.402
35.344
35.285
35.228
35.172
35.121
35.072
35.028
34.986
34.947
34.912
34.879
34.848
34.818
34.788
34.757
34.724
34.687
34.648
34.604
34.556
34.504
34.447
34.387
34.325
34.261
34.195
34.13
34.064
33.999
33.934
33.87
33.808
33.747
33.687
33.63
33.574
33.52
33.468
33.417
33.367
33.317
33.267
33.218
33.171
33.125
33.082
33.043
33.008
32.979
32.958
32.948
32.951
32.972
33.013
33.078
33.169
33.288
33.436
33.615
33.823
34.06
34.324
34.611
34.918
35.24
35.572
35.91
36.25
36.586
36.914
37.23
37.532
37.814
38.077
38.317
38.535
38.729
38.9
39.048
39.172
39.274
39.356
39.417
39.458
39.482
39.487
39.477
39.45
39.41
39.357
39.292
39.217
39.134
39.043
38.947
38.845
38.738
38.626
38.51
38.391
38.27
38.147
38.023
37.899
37.775
37.651
37.529
37.408
37.289
37.173
37.059
36.947
36.839
36.733
36.629
36.528
36.43
36.334
36.24
36.148
36.058
35.971
35.888
35.809
35.735
35.665
35.601
35.543
35.491
35.446
35.409
35.38
35.357
35.343
35.335
35.335
35.34
35.349
35.363
35.379
35.397
35.416
35.434
35.45
35.463
35.473
35.48
35.482
35.48
35.473
35.461
35.445
35.425
35.401
35.373
35.341
35.304
35.264
35.221
35.174
35.123
35.068
35.01
34.949
34.886
34.82
34.752
34.684
34.615
34.545
34.474
34.403
34.331
34.259
34.189
34.121
34.055
33.991
33.931
33.874
33.82
33.767
33.716
33.666
33.616
33.567
33.517
33.467
33.416
33.364
33.312
33.261
33.21
33.16
33.111
33.064
33.017
32.972
32.926
32.881
32.837
32.793
32.749
32.704
32.658
32.61
32.562
32.514
32.466
32.421
32.379
32.342
32.31
32.286
32.271
32.266
32.275
32.299
32.343
32.409
32.499
32.616
32.762
32.937
33.143
33.378
33.642
33.931
34.244
34.577
34.925
35.285
35.65
36.016
36.378
36.731
37.072
37.398
37.705
37.993
38.258
38.502
38.723
38.921
39.095
39.246
39.373
39.478
39.559
39.619
39.658
39.677
39.678
39.662
39.631
39.587
39.532
39.467
39.393
39.312
39.225
39.133
39.036
38.936
38.831
38.722
38.61
38.495
38.377
38.257
38.136
38.014
37.892
37.77
37.649
37.529
37.411
37.295
37.183
37.073
36.968
36.867
36.77
36.678
36.591
36.509
36.432
36.361
36.295
36.234
36.177
36.125
36.077
36.033
35.994
35.959
35.929
35.904
35.885
35.87
35.861
35.856
35.855
35.857
35.861
35.867
35.874
35.88
35.884
35.886
35.885
35.88
35.871
35.855
35.834
35.808
35.776
35.739
35.698
35.654
35.608
35.561
35.512
35.464
35.415
35.366
35.318
35.271
35.225
35.18
35.136
35.092
35.048
35.004
34.961
34.917
34.872
34.827
34.782
34.737
34.691
34.645
34.597
34.548
34.496
34.441
34.383
34.322
34.256
34.186
34.111
34.034
33.955
33.877
33.801
33.729
33.661
33.6
33.544
33.495
33.453
33.416
33.383
33.353
33.324
33.294
33.261
33.225
33.184
33.137
33.084
33.025
32.961
32.894
32.825
32.756
32.688
32.625
32.568
32.519
32.482
32.458
32.448
32.455
32.48
32.525
32.592
32.684
32.802
32.948
33.122
33.324
33.555
33.813
34.096
34.401
34.725
35.064
35.415
35.773
36.133
36.492
36.844
37.186
37.514
37.824
38.113
38.378
