Trial 1:0back
33.214
33.214
33.217
33.227
33.243
33.269
33.306
33.355
33.418
33.494
33.584
33.687
33.802
33.93
34.07
34.219
34.375
34.537
34.7
34.863
35.023
35.178
35.328
35.47
35.604
35.728
35.842
35.945
36.035
36.112
36.175
36.225
36.263
36.291
36.31
36.321
36.326
36.323
36.314
36.299
36.278
36.254
36.227
36.197
36.165
36.131
36.095
36.057
36.018
35.98
35.941
35.903
35.864
35.826
35.788
35.749
35.71
35.67
35.629
35.588
35.547
35.504
35.461
35.416
35.368
35.319
35.268
35.217
35.166
35.118
35.071
35.029
34.989
34.954
34.923
34.897
34.874
34.856
34.842
34.831
34.822
34.816
34.812
34.809
34.81
34.814
34.82
34.829
34.84
34.852
34.863
34.874
34.885
34.895
34.905
34.915
34.925
34.935
34.944
34.952
34.958
34.961
34.963
34.963
34.961
34.957
34.953
34.946
34.938
34.927
34.914
34.899
34.881
34.861
34.839
34.814
34.788
34.76
34.73
34.7
34.669
34.638
34.607
34.576
34.544
34.513
34.481
34.45
34.419
34.39
34.362
34.335
34.308
34.282
34.254
34.226
34.195
34.164
34.131
34.097
34.064
34.03
33.996
33.963
33.931
33.901
33.874
33.85
33.828
33.809
33.791
33.774
33.758
33.743
33.728
33.714
33.701
33.688
33.674
33.659
33.644
33.628
33.612
33.596
33.581
33.565
33.549
33.533
33.517
33.502
33.488
33.476
33.465
33.457
33.449
33.443
33.438
33.434
33.431
33.429
33.427
33.426
33.424
33.423
33.421
33.418
33.416
33.414
33.412
33.408
33.403
33.397
33.389
33.38
33.369
33.358
33.345
33.332
33.318
33.303
33.289
33.276
33.263
33.251
33.24
33.229
33.219
33.208
33.198
33.187
33.177
33.167
33.158
33.15
33.142
33.136
33.129
33.121
33.114
33.105
33.096
33.087
33.077
33.066
33.055
33.044
33.033
33.024
33.018
33.015
33.017
33.023
33.033
33.048
33.071
33.1
33.139
33.188
33.247
33.316
33.394
33.482
33.58
33.687
33.802
33.923
34.048
34.176
34.303
34.428
34.55
34.668
34.78
34.886
34.985
35.077
35.16
35.234
35.299
35.355
35.402
35.44
35.47
35.493
35.507
35.514
35.513
35.506
35.493
35.476
35.455
35.43
35.402
35.372
35.338
35.302
35.264
35.227
35.19
35.155
35.122
35.09
35.058
35.026
34.994
34.962
34.931
34.899
34.867
34.835
34.802
34.768
34.733
34.698
34.663
34.627
34.591
34.555
34.519
34.484
34.449
34.415
34.382
34.351
34.323
34.3
34.28
34.264
34.251
34.243
34.239
34.238
34.242
34.251
34.263
34.278
34.295
34.315
34.335
34.356
34.376
34.395
34.412
34.427
34.439
34.449
34.456
34.459
34.46
34.459
34.458
34.456
34.455
34.454
34.454
34.453
34.451
34.449
34.445
34.44
34.435
34.428
34.42
34.41
34.398
34.384
34.368
34.351
34.332
34.312
34.291
34.269
34.245
34.22
34.194
34.168
34.143
34.119
34.097
34.075
34.053
34.03
34.007
33.983
33.96
33.938
33.916
33.895
33.874
33.854
33.835
33.815
33.797
33.779
33.761
33.743
33.725
33.706
33.687
33.669
33.651
33.634
33.618
33.604
33.59
33.578
33.566
33.556
33.547
33.539
33.533
33.527
33.522
33.517
33.514
33.511
33.511
33.511
33.513
33.516
33.517
33.517
33.515
33.51
33.502
33.493
33.483
33.472
33.46
33.449
33.439
33.43
33.421
33.414
33.409
33.404
33.401
33.399
33.397
33.395
33.393
33.391
33.389
33.386
33.382
33.378
33.374
33.369
33.363
33.356
33.348
33.34
33.332
33.324
33.314
33.304
33.294
33.283
33.272
33.262
33.254
33.248
33.242
33.236
33.23
33.225
33.22
33.217
33.216
33.216
33.217
33.218
33.219
33.22
33.22
33.221
33.221
33.223
33.225
33.227
33.229
33.232
33.238
33.247
33.262
33.284
33.315
33.354
33.402
33.46
33.527
33.604
33.69
33.784
33.885
33.992
34.101
34.212
34.322
34.429
34.532
34.631
34.722
34.805
34.878
34.94
34.992
35.034
35.067
35.091
35.107
35.117
35.12
35.118
35.111
35.099
35.083
35.063
35.041
35.017
34.99
34.96
34.93
34.897
34.865
34.831
34.799
34.768
34.737
34.708
34.68
34.651
34.623
34.593
34.562
34.53
34.499
34.467
34.435
34.405
34.375
34.347
34.32
34.293
34.267
34.242
34.218
34.195
34.174
34.155
34.138
34.123
34.111
34.102
34.097
34.095
34.096
34.099
34.104
34.111
34.12
34.13
34.143
34.158
34.175
34.194
34.213
34.234
34.254
34.274
34.294
34.313
34.332
34.35
34.367
34.382
34.395
34.406
34.414
34.42
34.423
34.425
34.423
34.419
34.411
34.401
34.388
34.373
34.358
34.343
34.328
34.312
34.296
34.28
34.264
34.249
34.235
34.222
34.21
34.198
34.186
34.174
34.161
34.147
34.134
34.119
34.103
34.085
34.065
34.043
34.02
33.997
33.974
33.954
33.936
33.92
33.907
33.897
33.889
33.884
33.88
33.877
33.875
33.872
33.869
33.864
33.858
33.85
33.841
33.831
33.821
33.81
33.799
33.788
33.777
33.766
33.755
33.745
33.735
33.726
33.719
33.713
33.709
33.706
33.705
33.706
33.708
33.711
33.713
33.716
33.717
33.718
33.718
33.716
33.714
33.712
33.71
33.708
33.707
33.706
33.704
33.702
33.7
33.698
33.694
33.69
33.685
33.679
33.672
33.664
33.654
33.645
33.635
33.625
33.615
33.605
33.594
33.583
33.573
33.564
33.557
33.552
33.549
33.546
33.545
33.545
33.545
33.548
33.552
33.56
33.572
33.586
33.605
33.629
33.659
33.695
33.74
33.793
33.854
33.923
33.999
34.081
34.169
34.261
34.356
34.454
34.551
34.648
34.741
34.828
34.91
34.984
35.049
35.106
35.154
35.191
35.219
35.238
35.247
35.249
35.243
35.231
35.215
35.194
35.17
35.143
35.114
35.083
35.052
35.02
34.989
34.959
34.93
34.902
34.874
34.848
34.822
34.796
34.771
34.746
34.72
34.695
34.669
34.641
34.613
34.582
34.551
34.517
34.483
34.448
34.413
34.379
34.345
34.312
34.281
34.251
34.223
34.199
34.179
34.163
34.152
34.145
34.142
34.141
34.144
34.148
34.154
34.163
34.174
34.187
34.202
34.218
34.236
34.253
34.272
34.291
34.311
34.333
34.355
34.378
34.401
34.424
34.446
34.467
34.488
34.508
34.527
34.544
34.559
34.569
34.573
34.573
34.569
34.56
34.548
34.534
34.518
34.501
34.484
34.468
34.452
34.437
34.423
34.411
34.4
34.391
34.383
34.375
34.368
34.362
34.356
34.35
34.342
34.333
34.321
34.307
34.29
34.273
34.254
34.234
34.213
34.19
34.167
34.143
34.119
34.097
34.076
34.058
34.042
34.028
34.016
34.005
33.996
33.988
33.982
33.977
33.973
33.97
33.968
33.967
33.968
33.969
33.971
33.973
33.974
33.975
33.975
33.973
33.969
33.964
33.958
33.952
33.945
33.939
33.933
33.929
33.925
33.922
33.92
33.919
33.918
33.918
33.918
33.919
33.92
33.919
33.919
33.917
33.916
33.914
33.912
33.91
33.907
33.903
33.897
33.891
33.886
33.881
33.877
33.874
33.872
33.87
33.868
33.866
33.864
33.861
33.859
33.857
33.856
33.856
33.856
33.856
33.857
33.859
33.863
33.87
33.88
33.892
33.908
33.927
33.951
33.981
34.018
34.063
34.115
34.175
34.241
34.314
34.393
34.477
34.565
34.656
34.749
34.843
34.934
35.023
35.107
35.186
35.257
35.321
35.376
35.423
35.461
35.49
35.508
35.517
35.516
35.507
35.492
35.472
35.45
35.425
35.398
35.37
35.341
35.311
35.282
35.253
35.225
35.198
35.172
35.148
35.124
35.102
35.081
35.061
35.041
35.02
34.999
34.977
34.954
34.93
34.905
34.879
34.851
34.822
34.792
34.763
34.734
34.706
34.679
34.652
34.625
34.6
34.577
34.557
34.54
34.525
34.514
34.504
34.496
34.491
34.489
34.489
34.492
34.498
34.505
34.514
34.524
34.534
34.546
34.558
34.572
34.587
34.604
34.62
34.635
34.65
34.664
34.679
34.693
34.707
34.721
34.733
34.744
34.753
34.758
34.762
34.763
34.763
34.761
34.758
34.753
34.746
34.737
34.727
34.717
34.707
34.697
34.688
34.678
34.668
34.658
34.648
34.64
34.632
34.624
34.617
34.61
34.603
34.593
34.583
34.571
34.557
34.543
34.527
34.512
34.497
34.481
34.464
34.447
34.431
34.414
34.399
34.385
34.372
34.36
34.348
34.337
34.327
34.317
34.308
34.3
34.292
34.283
34.275
34.266
34.256
34.247
34.238
34.229
34.221
34.213
34.205
34.199
34.193
34.188
34.183
34.179
34.176
34.174
34.173
34.173
34.173
34.174
34.175
34.176
34.178
34.179
34.181
34.182
34.182
34.181
34.179
34.175
34.171
34.166
34.161
34.157
34.153
34.149
34.145
34.141
34.138
34.137
34.137
34.139
34.143
34.148
34.153
34.159
34.164
34.169
34.175
34.18
34.186
34.192
34.196
34.2
34.204
34.211
34.221
34.237
34.26
34.291
34.33
34.377
34.432
34.494
34.563
34.638
34.719
34.804
34.892
34.982
35.07
35.155
35.237
35.314
35.386
35.452
35.512
35.563
35.605
35.638
35.661
35.677
35.685
35.686
35.682
35.673
35.659
35.641
35.62
35.596
35.571
35.543
35.514
35.484
35.454
35.423
35.393
35.363
35.334
35.306
35.28
35.254
35.229
35.205
35.18
35.156
35.13
35.104
35.077
35.049
35.022
34.994
34.966
34.939
34.911
34.884
34.857
34.831
34.806
34.783
34.762
34.744
34.728
34.713
34.7
34.689
34.679
34.67
34.662
34.656
34.653
34.653
34.654
34.658
34.663
34.671
34.68
34.693
34.708
34.727
34.747
34.769
34.792
34.815
34.837
34.86
34.883
34.906
34.928
34.948
34.966
34.98
34.99
34.997
34.999
34.998
34.995
34.99
34.983
34.975
34.967
34.957
34.947
34.936
34.926
34.917
34.908
34.898
34.888
34.877
34.864
34.852
34.839
34.826
34.813
34.8
34.787
34.772
34.756
34.739
34.72
34.702
34.684
34.667
34.65
34.633
34.618
34.604
34.591
34.579
34.569
34.56
34.552
34.543
34.533
34.523
34.513
34.502
34.491
34.479
34.467
34.454
34.44
34.425
34.409
34.395
34.381
34.37
34.361
34.356
34.353
34.352
34.353
34.355
34.358
34.361
34.365
34.367
34.37
34.372
34.372
34.372
34.37
34.368
34.365
34.362
34.358
34.355
34.352
34.349
34.345
34.342
34.338
34.335
34.331
34.329
34.327
34.326
34.326
34.325
34.324
34.322
34.321
34.32
34.319
34.319
34.319
34.319
34.318
34.318
34.318
34.32
34.324
34.33
34.34
34.352
34.368
34.388
34.413
34.443
34.48
34.525
34.577
34.637
34.704
34.777
34.855
34.937
35.021
35.107
35.193
35.278
35.359
35.436
35.505
35.566
35.619
35.663
35.698
35.726
35.745
35.758
35.763
35.763
35.757
35.747
35.733
35.717
35.699
35.68
35.659
35.637
35.612
35.585
35.556
35.526
35.495
35.463
35.43
35.397
35.364
35.332
35.3
35.269
35.24
35.213
35.189
35.166
35.144
35.124
35.104
35.086
35.068
35.051
35.034
35.016
34.997
34.977
34.955
34.933
34.91
34.888
34.866
34.846
34.828
34.812
34.799
34.788
34.78
34.775
34.772
34.774
34.778
34.786
34.798
34.811
34.827
34.844
34.863
34.883
34.903
34.925
34.948
34.97
34.991
35.011
35.029
35.045
35.059
35.072
35.084
35.094
35.103
35.11
35.113
35.114
35.113
35.11
35.106
35.101
35.097
35.093
35.088
35.082
35.075
35.067
35.059
35.05
35.041
35.032
35.023
35.013
35.003
34.992
34.981
34.969
34.958
34.946
34.934
34.921
34.907
34.891
34.874
34.858
34.841
34.824
34.808
34.791
34.774
34.755
34.736
34.715
34.695
34.676
34.658
34.643
34.629
34.617
34.606
34.598
34.591
34.586
34.584
34.584
34.586
34.589
34.593
34.598
34.603
34.608
34.612
34.615
34.616
34.616
34.614
34.61
34.606
34.6
34.593
34.586
34.58
34.575
34.571
34.568
34.566
34.564
34.563
34.561
34.559
34.557
34.554
34.552
34.551
34.55
34.55
34.551
34.552
34.555
34.557
34.559
34.56
34.559
34.558
34.556
34.555
34.554
34.555
34.559
34.566
34.576
34.589
34.605
34.624
34.649
34.679
34.716
34.761
34.814
34.875
34.942
35.014
35.089
35.168
35.247
35.328
35.409
35.489
35.565
35.638
35.704
35.763
35.814
35.857
35.892
35.918
35.936
35.946
35.949
35.943
35.929
35.909
35.883
35.852
35.818
35.783
35.746
35.71
35.674
35.637
35.602
35.569
35.538
35.509
35.483
35.459
35.435
35.411
35.386
35.359
35.332
35.303
35.273
35.242
35.21
35.177
35.145
35.112
35.079
35.048
35.017
34.989
34.962
34.938
34.917
34.899
34.884
34.873
34.867
34.864
34.864
34.865
34.868
34.871
34.873
34.875
34.878
34.881
34.887
34.894
34.904
34.916
34.931
34.948
34.966
34.985
35.006
35.027
35.048
35.069
35.09
35.11
35.13
35.149
35.166
35.182
35.196
35.208
35.218
35.226
35.233
35.237
35.24
35.239
35.236
35.231
35.222
35.212
35.199
35.185
35.17
35.154
35.137
35.119
35.102
35.084
35.067
35.051
35.036
35.021
35.006
34.992
34.977
34.964
34.951
34.938
34.926
34.913
34.9
34.886
34.872
34.858
34.844
34.832
34.821
34.811
34.801
34.792
34.783
34.775
34.768
34.762
34.758
34.754
34.75
34.745
34.739
34.732
34.724
34.716
34.708
34.7
34.693
34.685
34.677
34.669
34.662
34.655
34.65
34.646
34.644
34.642
34.642
34.643
34.644
34.646
34.65
34.653
34.658
34.661
34.664
34.665
34.663
34.661
34.658
34.654
34.65
34.646
34.642
34.636
34.63
34.623
34.616
34.61
34.606
34.604
34.604
34.605
34.607
34.609
34.612
34.615
34.619
34.624
34.631
34.639
34.65
34.664
34.682
34.706
34.737
34.776
34.823
34.877
34.939
35.007
35.082
35.161
35.245
35.332
35.421
35.51
35.597
35.682
35.764
35.842
35.913
35.977
36.033
36.08
36.12
36.15
36.172
36.185
36.19
36.187
36.178
36.163
36.143
36.12
36.094
36.066
36.035
36.004
35.972
35.94
35.908
35.878
35.848
35.819
35.791
35.764
35.737
35.71
35.682
35.654
35.625
35.597
35.569
35.542
35.515
35.488
35.459
35.43
35.401
35.373
35.346
35.321
35.299
35.279
35.26
35.243
35.227
35.212
35.199
35.188
35.178
35.169
35.16
35.15
35.141
35.134
35.128
35.125
35.126
35.13
35.137
35.147
35.16
35.176
35.195
35.217
35.241
35.267
35.294
35.321
35.347
35.37
35.392
35.411
35.427
35.442
35.454
35.464
35.471
35.475
35.476
35.474
35.47
35.465
35.459
35.453
35.446
35.439
35.433
35.425
35.418
35.41
35.401
35.392
35.383
35.374
35.364
35.353
35.341
35.327
35.31
35.292
35.272
35.251
35.231
35.211
35.192
35.175
35.159
35.143
35.128
35.113
35.099
35.085
35.072
35.059
35.047
35.036
35.026
35.015
35.005
34.995
34.985
34.975
34.966
34.955
34.944
34.932
34.919
34.906
34.893
34.882
34.872
34.864
34.856
34.849
34.842
34.835
34.829
34.824
34.82
34.816
34.813
34.81
34.807
34.805
34.804
34.803
34.804
34.805
34.806
34.807
34.807
34.805
34.802
34.798
34.794
34.79
34.788
34.786
34.786
34.786
34.787
34.789
34.792
34.795
34.8
34.804
34.808
34.811
34.813
34.814
34.815
34.814
34.813
34.811
34.808
34.805
34.802
34.799
34.797
34.797
34.801
34.81
34.826
34.851
34.884
34.926
34.976
35.035
35.101
35.175
35.255
35.34
35.429
35.521
35.613
35.705
35.794
35.879
35.958
36.03
36.095
36.152
36.201
36.243
36.276
36.301
36.317
36.325
36.325
36.318
36.305
36.287
36.266
36.241
36.212
36.182
36.15
36.117
36.085
36.053
36.023
35.995
35.968
35.943
35.918
35.894
35.871
35.849
35.83
35.812
35.795
35.78
35.763
35.746
35.727
35.706
35.684
35.661
35.638
35.613
35.588
35.561
35.533
35.503
35.472
35.441
35.41
35.382
35.357
35.336
35.319
35.306
35.296
35.291
35.289
35.29
35.294
35.301
35.309
35.319
35.329
35.34
35.353
35.366
35.382
35.398
35.415
35.432
35.449
35.466
35.483
35.501
35.518
35.536
35.553
35.569
35.585
35.599
35.613
35.624
35.634
35.642
35.648
35.652
35.653
35.651
35.645
35.634
35.62
35.602
35.582
35.56
35.536
35.512
35.487
35.464
35.442
35.421
35.403
35.387
35.373
35.36
35.349
35.34
35.331
35.322
35.313
35.304
35.293
35.282
35.27
35.258
35.244
35.23
35.214
35.197
35.179
35.16
35.143
35.127
35.113
35.102
35.094
35.088
35.083
35.08
35.077
35.075
35.073
35.071
35.068
35.064
35.059
35.052
35.043
35.032
35.02
35.006
34.993
34.98
34.969
34.958
34.947
34.938
34.93
34.925
34.921
34.921
34.922
34.924
34.927
34.929
34.93
34.931
34.932
34.934
34.935
34.936
34.936
34.934
34.93
34.925
34.92
34.915
34.91
34.905
34.901
34.896
34.892
34.887
34.883
34.88
34.878
34.878
34.878
34.878
34.876
34.873
34.868
34.863
34.858
34.854
34.851
34.85
34.852
34.855
34.863
34.875
34.892
34.917
34.949
34.99
35.039
35.099
35.168
35.245
35.331
35.424
35.522
35.622
35.724
35.824
35.921
36.013
36.098
36.176
36.246
36.306
36.357
36.398
36.43
36.454
36.469
36.476
36.475
36.468
36.455
36.437
36.416
36.392
36.366
36.338
36.309
36.279
36.248
36.216
36.185
36.154
36.125
36.097
36.07
36.045
36.021
35.997
35.972
35.948
35.922
35.897
35.871
35.844
35.818
35.792
35.766
35.739
35.712
35.685
35.657
35.63
35.604
35.579
35.554
35.531
35.509
35.489
35.47
35.453
35.439
35.428
35.419
35.413
35.41
35.41
35.414
35.421
35.43
35.443
35.457
35.471
35.486
35.501
35.515
35.529
35.544
35.56
35.578
35.597
35.616
35.635
35.652
35.668
35.682
35.695
35.708
35.72
35.732
35.743
35.752
35.758
35.76
35.76
35.756
35.75
35.741
35.731
35.719
35.705
35.688
35.67
35.65
35.63
35.611
35.592
35.575
35.559
35.542
35.526
35.51
35.493
35.477
35.462
35.448
35.434
35.421
35.407
35.392
35.377
35.361
35.344
35.327
35.311
35.295
35.28
35.264
35.248
35.233
35.219
35.206
35.194
35.184
35.175
35.167
35.16
35.152
35.145
35.138
35.13
35.123
35.116
35.107
35.098
35.088
35.076
35.064
35.052
35.042
35.033
35.026
35.02
35.016
35.013
35.011
35.009
35.008
35.008
35.008
35.01
35.012
35.015
35.017
35.018
35.019
35.017
35.015
35.011
35.006
34.999
34.992
34.983
34.975
34.967
34.959
34.953
34.948
34.944
34.941
34.939
34.939
34.938
34.938
34.939
34.94
34.941
34.942
34.942
34.942
34.94
34.937
34.931
34.924
34.917
34.91
34.904
34.899
34.894
34.891
34.891
34.893
34.899
34.911
34.929
34.954
34.987
35.026
35.073
35.128
35.191
35.262
35.34
35.424
35.513
35.605
35.699
35.792
35.883
35.972
36.057
36.138
36.212
36.28
36.341
36.393
36.436
36.471
36.497
36.515
36.525
36.528
36.525
36.517
36.504
36.487
36.467
36.444
36.418
36.391
36.362
36.333
36.303
36.272
36.241
36.21
36.177
36.144
36.111
36.078
36.045
36.013
35.981
35.951
35.922
35.895
35.87
35.846
35.823
35.802
35.781
35.759
35.738
35.716
35.691
35.666
35.639
35.612
35.587
35.563
35.542
35.524
35.508
35.494
35.483
35.475
35.47
35.469
35.471
35.478
35.489
35.502
35.516
35.533
35.552
35.572
35.594
35.618
35.642
35.667
35.69
35.712
35.731
35.749
35.766
35.781
35.794
35.805
35.815
35.822
35.825
35.826
35.824
35.82
35.814
35.807
35.8
35.792
35.782
35.77
35.757
35.743
35.729
35.714
35.7
35.687
35.674
35.662
35.649
35.636
35.623
35.611
35.599
35.587
35.575
35.564
35.552
35.54
35.527
35.515
35.503
35.49
35.475
35.459
35.44
35.419
35.394
35.368
35.341
35.316
35.292
35.271
35.252
35.236
35.223
35.213
35.204
35.197
35.193
35.19
35.188
35.188
35.188
35.188
35.189
35.19
35.191
35.19
35.19
35.187
35.184
35.18
35.176
35.171
35.167
35.162
35.158
35.153
35.15
35.146
35.142
35.139
35.134
35.129
35.125
35.121
35.119
35.117
35.116
35.115
35.113
35.111
35.108
35.104
35.1
35.096
35.092
35.088
35.083
35.077
35.07
35.063
35.056
35.05
35.044
35.04
35.037
35.034
35.031
35.029
35.029
35.029
35.031
35.035
35.04
35.048
35.057
35.069
35.085
35.106
35.132
35.164
35.203
35.248
35.299
35.355
35.418
35.486
35.56
35.64
35.725
35.813
35.903
35.991
36.077
36.159
36.236
36.306
36.368
36.422
36.466
36.5
36.524
36.537
36.542
36.538
36.527
36.511
36.49
36.466
36.441
36.414
36.385
36.356
36.325
36.295
36.265
36.235
36.206
36.178
36.15
36.123
36.096
36.069
36.042
36.014
35.986
35.958
35.929
35.9
35.87
35.838
35.805
35.77
35.734
35.697
35.661
35.627
35.595
35.566
35.541
35.519
35.501
