Trial 1:0back
38.619
38.832
39.019
39.178
39.31
39.416
39.496
39.553
39.586
39.599
39.594
39.572
39.537
39.489
39.431
39.364
39.289
39.208
39.122
39.031
38.937
38.841
38.742
38.642
38.539
38.435
38.33
38.224
38.116
38.008
37.899
37.789
37.679
37.568
37.457
37.346
37.235
37.125
37.015
36.907
36.799
36.693
36.59
36.489
36.392
36.299
36.209
36.123
36.041
35.964
35.891
35.825
35.766
35.715
35.672
35.639
35.614
35.598
35.59
35.589
35.595
35.607
35.624
35.646
35.67
35.695
35.72
35.744
35.765
35.781
35.792
35.797
35.794
35.784
35.767
35.743
35.713
35.678
35.639
35.596
35.551
35.505
35.458
35.411
35.364
35.316
35.267
35.218
35.167
35.114
35.059
35.001
34.941
34.88
34.817
34.753
34.688
34.623
34.559
34.497
34.438
34.383
34.332
34.286
34.242
34.201
34.162
34.124
34.084
34.043
33.999
33.951
33.899
33.844
33.785
33.724
33.66
33.594
33.528
33.46
33.392
33.324
33.255
33.185
33.116
33.046
32.976
32.906
32.836
32.767
32.699
32.633
32.57
32.511
32.458
32.414
32.382
32.366
32.37
32.397
32.453
32.538
32.657
32.81
32.997
33.218
33.47
33.752
34.058
34.387
34.733
35.092
35.46
35.83
36.198
36.56
36.91
37.245
37.561
37.857
38.13
38.378
38.602
38.8
38.972
39.118
39.238
39.333
39.405
39.455
39.486
39.498
39.494
39.476
39.444
39.401
39.347
39.283
39.211
39.131
39.043
38.949
38.849
38.745
38.636
38.524
38.409
38.292
38.175
38.056
37.936
37.817
37.696
37.575
37.453
37.329
37.202
37.073
36.941
36.808
36.673
36.537
36.403
36.27
36.14
36.015
35.895
35.781
35.675
35.576
35.485
35.403
35.329
35.264
35.207
35.158
35.117
35.084
35.057
35.037
35.024
35.017
35.016
35.021
35.031
35.044
35.06
35.077
35.093
35.107
35.118
35.124
35.122
35.114
35.098
35.075
35.045
35.009
34.968
34.924
34.876
34.826
34.775
34.725
34.676
34.629
34.583
34.539
34.498
34.458
34.42
34.383
34.346
34.308
34.268
34.224
34.177
34.125
34.069
34.01
33.947
33.881
33.812
33.742
33.672
33.601
33.532
33.464
33.4
33.339
33.282
33.228
33.177
33.129
33.082
33.035
32.989
32.94
32.889
32.834
32.775
32.713
32.648
32.581
32.515
32.451
32.391
32.336
32.287
32.245
32.213
32.192
32.183
32.189
32.212
32.255
32.319
32.406
32.519
32.659
32.827
33.023
33.246
33.495
33.767
34.059
34.369
34.693
35.027
35.368
35.712
36.055
36.393
36.724
37.045
37.352
37.644
37.916
38.167
38.396
38.6
38.779
38.933
39.063
39.167
39.248
39.305
39.34
39.352
39.343
39.314
39.266
39.201
39.121
39.027
38.922
38.806
38.683
38.555
38.424
38.293
38.162
38.033
37.905
37.778
37.652
37.525
37.399
37.272
37.144
37.015
36.884
36.752
36.619
36.486
36.354
36.223
36.095
35.97
35.849
35.733
35.623
35.521
35.426
35.34
35.265
35.199
35.145
35.1
35.065
35.04
35.023
35.015
35.013
35.018
35.027
35.039
35.053
35.069
35.083
35.096
35.106
35.112
35.115
35.113
35.107
35.098
35.085
35.069
35.051
35.032
35.013
34.993
34.973
34.954
34.934
34.914
34.893
34.872
34.849
34.824
34.796
34.765
34.731
34.694
34.653
34.61
34.563
34.514
34.463
34.409
34.353
34.296
34.237
34.176
34.115
34.054
33.992
33.931
33.871
33.812
33.754
33.698
33.645
33.594
33.545
33.498
33.453
33.409
33.366
33.322
33.277
33.23
33.18
33.128
33.074
33.019
32.963
32.907
32.851
32.798
32.749
32.706
32.671
32.647
32.638
32.645
32.672
32.722
32.797
32.898
33.029
33.189
33.38
33.6
33.85
34.127
34.43
34.754
35.096
35.451
35.816
36.186
36.554
36.916
37.266
37.599
37.912
38.201
38.464
38.698
38.903
39.077
39.221
39.336
39.425
39.487
39.526
39.544
39.543
39.526
39.494
39.45
39.395
39.329
39.255
39.172
39.082
38.986
38.883
38.773
38.658
38.537
38.41
38.277
38.139
37.996
37.848
37.697
37.542
37.385
37.226
37.067
36.909
36.753
36.601
36.453
36.312
36.177
36.05
35.93
35.818
35.713
35.616
35.525
35.441
35.363
35.291
35.224
35.164
35.11
35.064
35.024
34.994
34.971
34.958
34.954
34.958
34.968
34.985
35.006
35.03
35.055
35.08
35.105
35.127
35.146
35.161
35.171
35.176
35.176
35.171
35.161
35.148
35.132
35.114
35.094
35.073
35.051
35.03
35.007
34.983
34.957
34.929
34.899
34.865
34.828
34.788
34.743
34.695
34.644
34.59
34.533
34.474
34.412
34.347
34.28
34.212
34.143
34.074
34.004
33.935
33.867
33.8
33.736
33.674
33.614
33.558
33.503
33.451
33.399
33.35
33.302
33.254
33.207
33.161
33.113
33.064
33.013
32.963
32.914
32.869
32.832
32.807
32.8
32.813
32.853
32.922
33.026
33.165
33.343
33.559
33.811
34.099
34.417
34.76
35.124
35.502
35.887
36.271
36.651
37.019
37.372
37.706
38.017
38.303
38.565
38.8
39.01
39.196
39.358
39.499
39.62
39.722
39.805
39.87
39.918
39.948
39.961
39.956
39.933
39.895
39.841
39.772
39.689
39.594
39.486
39.368
39.24
39.104
38.963
38.816
38.664
38.511
38.356
38.2
38.046
37.893
37.743
37.595
37.452
37.311
37.174
37.04
36.91
36.782
36.657
36.535
36.416
36.3
36.188
36.08
35.978
35.882
35.791
35.706
35.629
35.561
35.501
35.451
35.41
35.379
35.356
35.342
35.334
35.334
35.339
35.349
35.362
35.378
35.395
35.411
35.427
35.441
35.452
35.46
35.465
35.466
35.462
35.454
35.439
35.418
35.391
35.356
35.313
35.264
35.209
35.149
35.085
35.019
34.952
34.885
34.819
34.755
34.694
34.636
34.581
34.53
34.482
34.437
34.394
34.353
34.313
34.275
34.237
34.198
34.157
34.113
34.066
34.016
33.962
33.904
33.844
33.781
33.716
33.651
33.587
33.523
33.46
33.4
33.342
33.288
33.237
33.192
33.15
33.114
33.084
33.061
33.049
33.049
33.066
33.101
33.16
33.246
33.361
33.508
33.688
33.901
34.145
34.419
34.719
35.039
35.377
35.726
36.081
36.437
36.787
37.127
37.452
37.758
38.041
38.299
38.53
38.733
38.908
39.054
39.172
39.264
39.33
39.374
39.397
39.4
39.388
39.361
39.321
39.271
39.21
39.141
39.064
38.981
38.892
38.798
38.698
38.592
38.48
38.363
38.24
38.111
37.978
37.84
37.697
37.552
37.404
37.254
37.105
36.957
36.81
36.668
36.528
36.394
36.265
36.141
36.024
35.914
35.811
35.715
35.628
35.547
35.476
35.412
35.357
35.309
35.268
35.233
35.202
35.174
35.149
35.125
35.103
35.082
35.061
35.041
35.023
35.006
34.992
34.981
34.973
34.968
34.965
34.966
34.969
34.972
34.976
34.979
34.98
34.978
34.971
34.959
34.941
34.917
34.885
34.845
34.798
34.744
34.684
34.619
34.55
34.477
34.402
34.327
34.252
34.179
34.109
34.043
33.98
33.921
33.866
33.813
33.762
33.713
33.663
33.612
33.56
33.506
33.45
33.392
33.331
33.267
33.201
33.133
33.064
32.996
32.93
32.867
32.806
32.75
32.697
32.65
32.609
32.575
32.547
32.528
32.518
32.521
32.538
32.572
32.624
32.696
32.791
32.909
33.053
33.222
33.418
33.637
33.879
34.14
34.418
34.71
35.011
35.319
35.627
35.932
36.229
36.514
36.783
37.032
37.26
37.463
37.642
37.794
37.92
38.02
38.095
38.146
38.175
38.184
38.174
38.148
38.105
38.05
37.982
37.904
37.818
37.725
37.627
37.525
37.42
37.315
37.209
37.103
36.997
36.891
36.784
36.676
36.567
36.456
36.343
36.228
36.11
35.991
35.869
35.747
35.624
35.503
35.383
35.267
35.154
35.046
34.944
34.849
34.76
34.679
34.606
34.54
34.482
34.431
34.388
34.352
34.322
34.3
34.282
34.27
34.262
34.258
34.258
34.262
34.269
34.277
34.287
34.296
34.304
34.311
34.316
34.317
34.314
34.307
34.296
34.281
34.261
34.236
34.208
34.176
34.142
34.105
34.069
34.032
33.997
33.962
33.929
33.896
33.863
33.828
33.792
33.753
33.71
33.662
33.609
33.552
33.49
33.424
33.356
33.284
33.211
33.137
33.061
32.987
32.913
32.842
32.774
32.708
32.645
32.586
32.529
32.476
32.425
32.377
32.332
32.289
32.248
32.208
32.168
32.128
32.088
32.046
32.003
31.961
31.92
31.882
31.848
31.823
31.809
31.81
31.829
31.868
31.931
32.019
32.133
32.273
32.439
32.63
32.844
33.077
33.326
33.588
33.859
34.133
34.408
34.679
34.942
35.194
35.432
35.653
35.857
36.042
36.206
36.351
36.474
36.575
36.655
36.714
36.754
36.777
36.785
36.778
36.759
36.728
36.687
36.636
36.579
36.515
36.446
36.373
36.296
36.216
36.131
36.043
35.951
35.854
35.753
35.649
35.542
35.433
35.321
35.208
35.093
34.978
34.863
34.75
34.64
34.533
34.431
34.335
34.245
34.16
34.081
34.008
33.942
33.882
33.829
33.784
33.745
33.712
33.684
33.66
33.64
33.623
33.609
33.596
33.583
33.572
33.562
33.553
33.546
33.54
33.535
33.531
33.528
33.526
33.525
33.523
33.522
33.52
33.517
33.512
33.506
33.498
33.486
33.472
33.453
33.431
33.405
33.375
33.34
33.302
33.258
33.211
33.161
33.108
33.053
32.999
32.946
32.895
32.847
32.804
32.765
32.731
32.703
32.678
32.658
32.64
32.624
32.608
32.592
32.575
32.556
32.534
32.51
32.482
32.45
32.414
32.374
32.33
32.282
32.23
32.177
32.122
32.066
32.011
31.957
31.904
31.854
31.807
31.763
31.723
31.687
31.655
31.625
31.599
31.574
31.551
31.53
31.509
31.49
31.473
31.46
31.452
31.451
31.461
31.484
31.524
31.582
31.662
31.765
31.892
32.043
32.217
32.412
32.626
32.855
33.096
33.344
33.596
33.846
34.091
34.328
34.554
34.767
34.966
35.148
35.313
35.461
35.591
35.704
35.8
35.879
35.943
35.994
36.031
36.057
36.073
36.078
36.074
36.06
36.038
36.008
35.971
35.925
35.873
35.813
35.748
35.677
35.602
35.523
35.44
35.355
35.267
35.177
35.085
34.991
34.895
34.798
34.7
34.603
34.508
34.415
34.325
34.239
34.158
34.083
34.015
33.954
33.9
33.852
33.812
33.777
33.747
33.722
33.699
33.679
33.661
33.646
33.632
33.62
33.611
33.605
33.602
33.605
33.611
33.622
33.637
33.656
33.679
33.704
33.731
33.758
33.784
33.807
33.827
33.842
33.852
33.856
33.854
33.846
33.831
33.81
33.784
33.752
33.715
33.676
33.634
33.592
33.55
33.508
33.468
33.43
33.394
33.359
33.326
33.296
33.268
33.242
33.217
33.193
33.169
33.145
33.12
33.093
33.065
33.034
33.002
32.967
32.931
32.893
32.855
32.815
32.775
32.735
32.696
32.656
32.617
32.578
32.54
32.504
32.47
32.437
32.406
32.376
32.348
32.321
32.295
32.27
32.247
32.226
32.206
32.189
32.173
32.161
32.154
32.153
32.159
32.176
32.204
32.246
32.304
32.38
32.476
32.591
32.726
32.879
33.049
33.233
33.429
33.634
33.843
34.054
34.263
34.467
34.664
34.851
35.027
35.191
35.343
35.48
35.605
35.715
35.812
35.895
35.964
36.021
36.064
36.095
36.114
36.121
36.117
36.104
36.08
36.048
36.008
35.959
35.903
35.84
35.772
35.698
35.621
35.54
35.458
35.374
35.29
35.206
35.124
35.043
34.964
34.887
34.811
34.736
34.663
34.592
34.523
34.456
34.391
34.329
34.27
34.212
34.157
34.104
34.054
34.007
33.965
33.928
33.896
33.869
33.847
33.83
33.816
33.805
33.798
33.792
33.788
33.785
33.785
33.786
33.79
33.796
33.804
33.814
33.826
33.838
33.851
33.865
33.878
33.891
33.902
33.911
33.918
33.921
33.921
33.917
33.907
33.893
33.875
33.853
33.827
33.799
33.768
33.736
33.702
33.667
33.631
33.595
33.558
33.522
33.486
33.451
33.418
33.386
33.356
33.327
33.3
33.273
33.249
33.225
33.201
33.178
33.153
33.127
33.099
33.069
33.038
33.004
32.969
32.933
32.896
32.858
32.821
32.785
32.751
32.719
32.688
32.66
32.633
32.608
32.586
32.566
32.549
32.533
32.52
32.509
32.499
32.49
32.482
32.475
32.47
32.47
32.476
32.49
32.517
32.559
32.619
32.698
32.799
32.923
33.069
33.237
33.425
33.629
33.846
34.072
34.303
34.534
34.761
34.981
35.19
35.385
35.565
35.728
35.875
36.004
36.117
36.213
36.296
36.364
36.42
36.464
36.497
36.519
36.53
36.532
36.525
36.509
36.484
36.452
36.414
36.369
36.318
36.263
36.204
36.142
36.079
36.015
35.949
35.883
35.817
35.749
35.681
35.611
35.54
35.468
35.395
35.321
35.247
35.175
35.104
35.035
34.968
34.905
34.847
34.793
34.744
34.701
34.664
34.631
34.602
34.577
34.555
34.536
34.519
34.501
34.483
34.464
34.442
34.42
34.397
34.374
34.352
34.331
34.312
34.295
34.279
34.266
34.254
34.243
34.234
34.227
34.22
34.215
34.21
34.206
34.2
34.193
34.186
34.178
34.169
34.16
34.15
34.141
34.131
34.121
34.11
34.099
34.088
34.075
34.06
34.043
34.024
34.002
33.977
33.949
33.918
33.883
33.845
33.804
33.761
33.715
33.666
33.617
33.567
33.517
33.469
33.422
33.379
33.339
33.303
33.27
33.241
33.215
33.193
33.174
33.157
33.143
33.129
33.117
33.104
33.09
33.076
33.06
33.043
33.025
33.004
32.981
32.957
32.93
32.902
32.872
32.842
32.812
32.783
32.757
32.733
32.711
32.693
32.677
32.665
32.655
32.649
32.647
32.65
32.658
32.674
32.7
32.739
32.792
32.861
32.948
33.056
33.183
33.33
33.495
33.678
33.874
34.081
34.294
34.512
34.73
34.945
35.154
35.353
35.54
35.714
35.874
36.018
36.146
36.258
36.355
36.438
36.505
36.558
36.596
36.62
36.63
36.628
36.614
36.589
36.555
36.513
36.464
36.409
36.35
36.288
36.222
36.154
36.085
36.014
35.943
35.872
35.8
35.727
35.654
35.58
35.507
35.435
35.365
35.297
35.231
35.17
35.112
35.058
35.008
34.962
34.92
34.881
34.846
34.815
34.785
34.757
34.729
34.7
34.672
34.645
34.617
34.59
34.563
34.537
34.513
34.491
34.472
34.456
34.444
34.436
34.431
34.431
34.433
34.439
34.447
34.456
34.466
34.474
34.482
34.488
34.491
34.491
34.486
34.475
34.459
34.437
34.409
34.376
34.339
34.3
34.259
34.219
34.182
34.148
34.119
34.094
34.074
34.057
34.044
34.033
34.022
34.012
34.0
33.986
33.97
33.951
33.928
33.901
33.87
33.836
33.798
33.758
33.716
33.673
33.631
33.59
33.551
33.514
33.481
33.452
33.426
33.405
33.386
33.37
33.356
33.342
33.328
33.313
33.296
33.278
33.259
33.238
33.215
33.192
33.166
33.14
33.111
33.081
33.049
33.015
32.98
32.945
32.909
32.873
32.837
32.801
32.766
32.733
32.702
32.674
32.652
32.636
32.629
32.633
32.651
32.684
32.734
32.803
32.892
33.001
33.131
33.281
33.45
33.636
33.835
34.047
34.266
34.489
34.712
34.931
35.143
35.343
35.53
35.701
35.856
35.993
36.112
36.215
36.301
36.373
36.43
36.474
36.506
36.527
36.537
36.538
36.53
36.515
36.493
36.467
36.437
36.404
36.368
36.329
36.288
36.245
36.2
36.154
36.106
36.056
36.004
35.95
35.892
35.831
35.766
35.698
35.627
35.554
35.479
35.404
35.328
35.254
35.182
35.114
35.05
34.994
34.944
34.901
34.865
34.835
34.813
34.796
34.785
34.776
34.769
34.764
34.76
34.755
34.751
34.747
34.743
34.74
34.739
34.74
34.743
34.75
34.759
34.771
34.784
34.799
34.815
34.831
34.847
34.861
34.872
34.88
34.884
34.883
34.877
34.866
34.849
34.827
34.801
34.77
34.737
34.701
34.665
34.627
34.59
34.552
34.515
34.478
34.443
34.408
34.375
34.343
34.313
34.286
34.26
34.237
34.216
34.196
34.179
34.163
34.149
34.136
34.125
34.115
34.107
34.099
34.092
34.085
34.077
34.067
34.055
34.041
34.023
34.002
33.977
33.951
33.922
33.892
33.862
33.832
33.803
33.774
33.745
33.717
33.689
33.662
33.635
33.609
33.585
33.562
33.542
33.525
33.512
33.504
33.503
33.509
33.524
33.549
33.586
33.635
33.699
33.776
33.869
33.977
34.101
34.238
34.389
34.552
34.725
34.906
35.094
35.284
35.475
35.662
35.843
36.016
36.179
36.33
36.47
36.596
36.71
36.81
36.898
36.974
37.038
37.09
37.131
37.161
37.181
37.191
37.19
37.181
37.163
37.138
37.107
37.07
37.029
36.985
36.938
36.888
36.835
36.781
36.724
36.665
36.604
36.539
36.472
36.402
36.329
36.252
36.172
36.091
36.009
35.927
35.845
35.765
35.686
35.612
35.541
35.476
35.415
35.359
35.309
35.265
35.227
35.194
35.166
35.143
35.123
35.107
35.094
35.083
35.074
35.069
35.066
35.066
35.069
35.075
35.084
35.096
35.111
35.129
35.15
35.173
35.198
35.224
35.25
35.275
35.297
35.314
35.326
35.332
35.332
35.325
35.311
35.293
35.27
35.245
35.217
35.185
35.151
35.114
35.073
35.031
34.987
34.942
34.897
34.853
34.809
34.767
34.725
34.683
34.642
34.602
34.563
34.524
34.488
34.452
34.417
34.383
34.352
34.323
34.297
34.273
34.252
34.233
34.214
34.197
34.179
34.16
34.14
34.118
34.093
34.066
34.035
34.002
33.966
33.926
33.883
33.838
33.791
33.743
33.694
33.644
33.593
33.543
33.494
33.448
33.404
33.366
33.335
33.311
33.298
33.297
33.312
33.345
33.399
33.475
33.573
33.696
33.842
34.012
34.202
34.411
34.635
34.871
35.115
35.362
35.61
35.854
36.09
36.317
36.529
36.727
36.907
37.067
37.208
37.329
37.432
37.516
37.583
37.635
37.673
37.698
37.713
37.719
37.718
37.71
37.696
37.68
37.661
37.64
37.619
37.597
37.575
37.553
37.529
37.504
37.475
37.443
37.406
37.364
37.317
37.265
37.209
37.15
37.088
37.025
36.962
36.901
36.843
36.787
36.735
36.686
36.641
36.599
36.56
36.523
36.487
36.452
36.418
36.385
36.352
36.32
36.288
36.257
36.227
36.197
36.166
36.136
36.106
36.077
36.048
36.022
35.998
35.977
35.961
35.95
35.945
35.946
35.953
35.964
35.978
35.995
36.012
36.029
36.043
36.054
36.058
36.056
36.047
36.03
36.006
35.974
35.937
35.893
35.846
35.795
35.743
35.691
35.639
35.59
35.544
35.502
35.463
35.428
35.395
35.366
35.339
35.313
35.29
35.268
35.247
35.227
35.207
35.187
35.168
35.151
35.134
35.119
35.104
35.09
35.076
35.063
35.049
35.036
35.022
35.008
34.993
34.978
34.961
34.942
34.92
34.894
34.864
34.83
34.792
34.749
34.703
34.653
34.599
34.543
34.486
34.428
34.369
34.311
34.253
34.198
34.146
34.097
34.052
34.011
33.974
33.94
33.909
33.883
33.862
33.848
33.843
33.849
33.868
33.904
33.957
34.031
34.125
34.239
34.371
34.523
34.691
34.874
35.07
35.276
35.49
35.707
35.926
36.142
36.352
36.553
36.742
36.919
37.081
37.228
37.359
37.473
37.572
37.654
37.721
37.773
37.811
37.836
37.849
37.852
37.846
37.83
37.806
37.776
37.741
37.701
37.658
37.613
37.568
37.522
37.478
37.435
37.394
37.354
37.316
37.279
37.242
37.205
37.168
37.129
37.089
37.047
37.002
36.956
36.907
36.857
36.805
36.752
36.699
36.646
36.593
36.541
36.491
36.442
36.396
36.354
36.316
36.284
36.257
36.235
36.219
36.209
36.203
36.201
36.203
36.207
36.214
36.221
36.228
36.233
36.236
36.237
36.236
36.232
36.226
36.218
36.209
36.199
36.189
36.18
36.171
36.162
36.152
36.14
36.126
36.11
36.092
36.071
36.046
36.019
35.987
35.953
35.915
35.876
35.836
35.794
35.753
35.712
35.672
35.633
35.595
35.559
35.524
35.491
35.46
35.431
35.403
35.376
35.348
35.32
35.292
35.263
35.234
35.204
35.173
35.143
35.114
35.087
35.063
35.041
35.022
35.006
34.991
34.977
34.963
34.946
34.928
34.906
34.88
34.851
34.817
34.778
34.735
34.687
34.636
34.583
34.531
34.479
34.43
34.383
34.34
34.301
34.266
34.235
34.206
34.181
34.159
34.14
34.124
34.111
34.103
34.1
34.105
34.118
34.144
34.183
34.239
34.311
34.402
34.512
34.64
34.786
34.949
35.126
35.315
35.514
35.721
35.933
36.148
36.363
36.577
36.786
36.989
37.184
37.369
37.542
37.702
37.848
37.978
38.093
38.193
38.278
38.35
38.408
38.453
38.486
38.508
38.52
38.523
38.516
38.502
38.48
38.451
38.415
38.372
38.323
38.268
38.209
38.144
38.076
38.004
37.929
37.853
37.777
37.702
37.628
37.557
37.487
37.419
37.354
37.29
37.228
37.17
37.113
37.059
37.007
36.957
36.911
36.867
36.827
36.791
36.759
36.731
36.707
36.687
36.672
36.661
36.654
36.65
36.648
36.648
36.65
36.652
36.655
36.658
36.662
36.666
36.67
36.675
36.679
36.684
36.688
36.691
36.692
36.69
36.685
