Trial 1:0back
36.816
36.748
36.681
36.618
36.561
36.51
36.469
36.437
36.416
36.405
36.405
36.414
36.434
36.463
36.499
36.542
36.587
36.635
36.682
36.726
36.768
36.804
36.835
36.859
36.877
36.887
36.89
36.886
36.875
36.858
36.836
36.809
36.778
36.744
36.706
36.664
36.62
36.572
36.522
36.469
36.413
36.355
36.296
36.235
36.173
36.109
36.044
35.978
35.911
35.842
35.773
35.703
35.634
35.565
35.498
35.431
35.367
35.303
35.24
35.178
35.116
35.055
34.994
34.935
34.876
34.819
34.762
34.707
34.653
34.6
34.548
34.499
34.45
34.403
34.358
34.314
34.272
34.233
34.197
34.163
34.132
34.104
34.078
34.054
34.032
34.011
33.992
33.974
33.957
33.941
33.925
33.91
33.895
33.882
33.869
33.859
33.85
33.842
33.836
33.831
33.827
33.825
33.822
33.82
33.817
33.814
33.811
33.807
33.802
33.796
33.79
33.783
33.776
33.768
33.759
33.749
33.738
33.727
33.715
33.703
33.69
33.678
33.664
33.651
33.636
33.62
33.601
33.581
33.559
33.536
33.512
33.489
33.466
33.443
33.42
33.398
33.376
33.354
33.333
33.312
33.291
33.27
33.249
33.227
33.205
33.183
33.16
33.137
33.115
33.092
33.07
33.049
33.027
33.005
32.984
32.962
32.94
32.916
32.89
32.863
32.834
32.803
32.772
32.741
32.709
32.678
32.648
32.618
32.591
32.566
32.543
32.522
32.503
32.486
32.47
32.455
32.442
32.43
32.423
32.42
32.426
32.442
32.473
32.524
32.599
32.702
32.837
33.007
33.215
33.461
33.746
34.07
34.431
34.825
35.246
35.689
36.143
36.6
37.05
37.485
37.897
38.279
38.627
38.935
39.201
39.424
39.603
39.741
39.84
39.903
39.933
39.936
39.916
39.879
39.826
39.763
39.691
39.613
39.532
39.447
39.362
39.275
39.19
39.105
39.023
38.942
38.862
38.782
38.702
38.623
38.543
38.464
38.385
38.307
38.229
38.153
38.078
38.005
37.934
37.865
37.798
37.732
37.667
37.603
37.54
37.477
37.413
37.349
37.284
37.219
37.152
37.085
37.017
36.95
36.885
36.821
36.761
36.705
36.653
36.608
36.569
36.538
36.516
36.502
36.497
36.501
36.513
36.533
36.561
36.596
36.636
36.68
36.726
36.775
36.825
36.875
36.925
36.972
37.015
37.054
37.088
37.114
37.134
37.146
37.151
37.149
37.139
37.122
37.096
37.065
37.026
36.982
36.932
36.877
36.818
36.756
36.692
36.625
36.557
36.488
36.418
36.346
36.274
36.201
36.129
36.058
35.988
35.92
35.854
35.789
35.724
35.659
35.593
35.526
35.456
35.385
35.311
35.236
35.16
35.084
35.009
34.936
34.865
34.797
34.732
34.67
34.612
34.558
34.507
34.459
34.414
34.371
34.331
34.293
34.256
34.221
34.187
34.155
34.124
34.095
34.069
34.045
34.023
34.004
33.988
33.974
33.963
33.955
33.949
33.944
33.94
33.937
33.934
33.93
33.926
33.921
33.917
33.911
33.905
33.899
33.892
33.885
33.877
33.868
33.858
33.847
33.835
33.823
33.81
33.796
33.783
33.77
33.758
33.745
33.731
33.715
33.697
33.677
33.656
33.634
33.61
33.586
33.562
33.537
33.513
33.488
33.462
33.436
33.41
33.383
33.357
33.331
33.305
33.28
33.254
33.229
33.203
33.178
33.154
33.13
33.108
33.087
33.068
33.051
33.034
33.017
33.001
32.986
32.97
32.955
32.938
32.921
32.904
32.886
32.867
32.847
32.828
32.808
32.789
32.769
32.749
32.727
32.704
32.679
32.654
32.629
32.604
32.579
32.554
32.528
32.503
32.478
32.454
32.434
32.417
32.406
32.4
32.401
32.41
32.431
32.466
32.519
32.595
32.7
32.839
33.016
33.234
33.496
33.803
34.153
34.542
34.967
35.419
35.891
36.373
36.856
37.33
37.787
38.218
38.619
38.982
39.307
39.589
39.828
40.025
40.182
40.299
40.382
40.431
40.451
40.445
40.418
40.372
40.31
40.237
40.154
40.065
39.973
39.88
39.788
39.697
39.609
39.522
39.437
39.353
39.272
39.192
39.116
39.041
38.969
38.898
38.83
38.764
38.699
38.636
38.574
38.513
38.453
38.395
38.337
38.281
38.226
38.171
38.116
38.061
38.006
37.951
37.894
37.836
37.776
37.714
37.65
37.586
37.522
37.459
37.398
37.34
37.286
37.236
37.192
37.154
37.123
37.098
37.081
37.07
37.066
37.068
37.076
37.088
37.104
37.124
37.146
37.169
37.191
37.211
37.23
37.245
37.256
37.264
37.268
37.268
37.265
37.258
37.247
37.232
37.213
37.19
37.16
37.125
37.085
37.039
36.989
36.934
36.875
36.812
36.747
36.679
36.608
36.534
36.458
36.379
36.298
36.215
36.13
36.043
35.955
35.864
35.773
35.681
35.589
35.498
35.41
35.326
35.245
35.168
35.096
35.027
34.961
34.898
34.838
34.781
34.726
34.673
34.623
34.573
34.524
34.474
34.425
34.377
34.329
34.282
34.237
34.193
34.152
34.113
34.076
34.042
34.011
33.983
33.958
33.936
33.917
33.899
33.883
33.867
33.852
33.837
33.819
33.8
33.779
33.759
33.739
33.72
33.704
33.691
33.681
33.672
33.664
33.656
33.647
33.638
33.626
33.613
33.598
33.582
33.565
33.548
33.531
33.514
33.498
33.481
33.465
33.448
33.431
33.414
33.396
33.377
33.356
33.334
33.311
33.287
33.263
33.239
33.214
33.188
33.161
33.135
33.109
33.084
33.06
33.039
33.019
32.999
32.979
32.96
32.939
32.917
32.894
32.871
32.847
32.821
32.795
32.768
32.741
32.715
32.689
32.665
32.643
32.623
32.606
32.59
32.577
32.564
32.553
32.541
32.53
32.518
32.506
32.493
32.479
32.464
32.447
32.43
32.41
32.389
32.367
32.345
32.322
32.298
32.274
32.249
32.224
32.2
32.176
32.152
32.13
32.11
32.092
32.076
32.064
32.054
32.048
32.044
32.044
32.047
32.054
32.068
32.089
32.119
32.163
32.224
32.306
32.413
32.551
32.723
32.933
33.183
33.474
33.804
34.172
34.572
35.0
35.448
35.906
36.367
36.82
37.259
37.675
38.062
38.414
38.728
39.001
39.234
39.427
39.58
39.697
39.779
39.83
39.852
39.85
39.828
39.789
39.736
39.672
39.6
39.522
39.441
39.357
39.274
39.192
39.112
39.034
38.958
38.886
38.815
38.746
38.678
38.609
38.54
38.47
38.4
38.33
38.26
38.191
38.122
38.053
37.985
37.918
37.853
37.79
37.728
37.666
37.605
37.545
37.485
37.426
37.367
37.307
37.248
37.189
37.131
37.074
37.02
36.97
36.926
36.886
36.853
36.825
36.802
36.785
36.775
36.77
36.771
36.779
36.793
36.813
36.839
36.872
36.909
36.951
36.996
37.043
37.091
37.138
37.184
37.228
37.268
37.306
37.339
37.368
37.391
37.409
37.42
37.424
37.421
37.411
37.393
37.367
37.335
37.296
37.252
37.203
37.149
37.089
37.026
36.958
36.888
36.814
36.738
36.66
36.581
36.502
36.422
36.342
36.264
36.188
36.114
36.042
35.971
35.903
35.835
35.767
35.701
35.636
35.573
35.511
35.451
35.392
35.334
35.278
35.224
35.17
35.118
35.068
35.02
34.973
34.928
34.886
34.846
34.808
34.773
34.741
34.711
34.684
34.657
34.632
34.607
34.583
34.56
34.536
34.514
34.492
34.471
34.45
34.429
34.409
34.388
34.368
34.35
34.333
34.317
34.302
34.287
34.274
34.261
34.25
34.238
34.227
34.216
34.205
34.193
34.181
34.169
34.157
34.146
34.135
34.124
34.113
34.101
34.088
34.074
34.058
34.042
34.026
34.014
34.006
34.001
33.997
33.993
33.988
33.982
33.972
33.958
33.939
33.916
33.89
33.862
33.832
33.801
33.77
33.737
33.704
33.668
33.632
33.596
33.558
33.52
33.481
33.441
33.4
33.359
33.316
33.274
33.231
33.189
33.148
33.109
33.072
33.036
33.002
32.969
32.939
32.912
32.888
32.869
32.855
32.848
32.849
32.858
32.878
32.912
32.964
33.038
33.138
33.271
33.44
33.648
33.897
34.19
34.525
34.898
35.305
35.738
36.19
36.653
37.116
37.572
38.013
38.43
38.818
39.17
39.485
39.759
39.992
40.185
40.339
40.457
40.543
40.599
40.629
40.636
40.624
40.597
40.557
40.507
40.449
40.385
40.316
40.242
40.165
40.085
40.002
39.918
39.833
39.75
39.669
39.59
39.513
39.438
39.367
39.297
39.23
39.164
39.101
39.038
38.976
38.915
38.855
38.796
38.738
38.681
38.623
38.565
38.505
38.445
38.384
38.321
38.256
38.188
38.117
38.044
37.971
37.897
37.824
37.754
37.688
37.627
37.573
37.526
37.487
37.457
37.435
37.422
37.417
37.421
37.432
37.449
37.471
37.497
37.525
37.555
37.585
37.614
37.641
37.666
37.687
37.704
37.717
37.724
37.727
37.724
37.717
37.705
37.689
37.668
37.642
37.613
37.578
37.54
37.498
37.452
37.401
37.346
37.288
37.228
37.164
37.098
37.03
36.96
36.888
36.814
36.739
36.663
36.588
36.513
36.439
36.367
36.295
36.225
36.158
36.092
36.028
35.966
35.904
35.842
35.78
35.717
35.652
35.585
35.517
35.447
35.377
35.305
35.233
35.162
35.092
35.024
34.96
34.899
34.842
34.79
34.743
34.7
34.661
34.626
34.595
34.568
34.544
34.523
34.504
34.487
34.471
34.456
34.441
34.428
34.415
34.402
34.388
34.375
34.36
34.345
34.329
34.312
34.295
34.277
34.257
34.236
34.212
34.186
34.159
34.129
34.097
34.063
34.028
33.993
33.958
33.924
33.891
33.86
33.832
33.806
33.782
33.76
33.739
33.719
33.7
33.68
33.659
33.637
33.612
33.585
33.555
33.524
33.49
33.455
33.419
33.382
33.345
33.308
33.27
33.231
33.191
33.151
33.109
33.067
33.025
32.984
32.943
32.904
32.866
32.829
32.793
32.758
32.726
32.696
32.668
32.642
32.618
32.596
32.574
32.553
32.533
32.514
32.497
32.48
32.464
32.449
32.434
32.421
32.408
32.397
32.386
32.374
32.359
32.342
32.322
32.3
32.275
32.249
32.222
32.195
32.167
32.139
32.112
32.085
32.06
32.035
32.011
31.989
31.969
31.953
31.94
31.93
31.922
31.916
31.912
31.91
31.91
31.913
31.92
31.931
31.948
31.974
32.012
32.064
32.136
32.232
32.36
32.523
32.726
32.972
33.263
33.598
33.974
34.388
34.834
35.303
35.787
36.278
36.766
37.244
37.702
38.134
38.535
38.898
39.222
39.505
39.744
39.942
40.099
40.218
40.302
40.353
40.379
40.387
40.383
40.37
40.348
40.315
40.273
40.22
40.155
40.078
39.991
39.894
39.788
39.674
39.556
39.435
39.314
39.195
39.08
38.971
38.869
38.775
38.692
38.618
38.553
38.496
38.446
38.401
38.359
38.321
38.284
38.247
38.21
38.17
38.13
38.087
38.042
37.995
37.945
37.893
37.839
37.783
37.726
37.669
37.612
37.556
37.501
37.448
37.397
37.35
37.306
37.268
37.234
37.207
37.186
37.168
37.151
37.135
37.121
37.111
37.104
37.103
37.108
37.119
37.136
37.159
37.187
37.218
37.25
37.282
37.312
37.339
37.362
37.38
37.392
37.396
37.393
37.382
37.362
37.335
37.302
37.262
37.215
37.163
37.104
37.038
36.968
36.892
36.813
36.731
36.648
36.564
36.48
36.397
36.317
36.238
36.162
36.088
36.017
35.948
35.881
35.816
35.752
35.69
35.629
35.568
35.507
35.447
35.386
35.325
35.264
35.204
35.144
35.086
35.029
34.974
34.92
34.868
34.816
34.767
34.719
34.672
34.627
34.585
34.546
34.51
34.476
34.445
34.416
34.39
34.365
34.341
34.318
34.295
34.274
34.253
34.235
34.217
34.201
34.187
34.173
34.16
34.148
34.136
34.125
34.115
34.105
34.096
34.087
34.079
34.07
34.062
34.054
34.046
34.039
34.03
34.02
34.009
33.997
33.983
33.968
33.951
33.933
33.914
33.894
33.875
33.856
33.836
33.815
33.795
33.773
33.751
33.727
33.704
33.68
33.654
33.627
33.598
33.566
33.534
33.5
33.467
33.434
33.402
33.372
33.344
33.319
33.296
33.277
33.26
33.246
33.234
33.223
33.212
33.202
33.19
33.176
33.159
33.139
33.117
33.092
33.065
33.036
33.004
32.971
32.936
32.9
32.861
32.823
32.785
32.748
32.712
32.679
32.646
32.616
32.587
32.561
32.537
32.516
32.498
32.484
32.475
32.471
32.472
32.481
32.499
32.53
32.576
32.64
32.727
32.841
32.987
33.168
33.389
33.651
33.954
34.298
34.678
35.09
35.526
35.98
36.443
36.907
37.362
37.802
38.22
38.609
38.964
39.283
39.562
39.8
39.998
40.156
40.278
40.364
40.42
40.448
40.451
40.433
40.398
40.347
40.284
40.214
40.137
40.056
39.973
39.888
39.804
39.72
39.636
39.555
39.475
39.396
39.319
39.244
39.172
39.101
39.033
38.966
38.901
38.837
38.774
38.712
38.652
38.592
38.533
38.475
38.416
38.359
38.301
38.244
38.187
38.129
38.069
38.009
37.948
37.885
37.821
37.757
37.692
37.629
37.568
37.51
37.457
37.409
37.367
37.332
37.304
37.286
37.276
37.275
37.282
37.297
37.319
37.345
37.375
37.408
37.444
37.482
37.521
37.559
37.595
37.628
37.658
37.683
37.703
37.718
37.727
37.728
37.722
37.708
37.687
37.657
37.621
37.578
37.531
37.478
37.422
37.363
37.301
37.237
37.171
37.103
37.033
36.96
36.886
36.811
36.736
36.661
36.586
36.511
36.437
36.364
36.292
36.219
36.146
36.073
35.999
35.924
35.849
35.773
35.697
35.622
35.547
35.473
35.401
35.329
35.258
35.19
35.123
35.06
35.0
34.944
34.89
34.84
34.792
34.747
34.704
34.663
34.624
34.589
34.556
34.525
34.496
34.468
34.442
34.415
34.389
34.363
34.338
34.312
34.287
34.263
34.24
34.22
34.201
34.184
34.17
34.158
34.148
34.141
34.135
34.13
34.124
34.117
34.108
34.097
34.084
34.068
34.051
34.031
34.008
33.984
33.959
33.931
33.903
33.872
33.839
33.805
33.77
33.734
33.697
33.66
33.622
33.584
33.547
33.511
33.476
33.443
33.412
33.382
33.353
33.325
33.297
33.268
33.237
33.206
33.176
33.146
33.116
33.087
33.06
33.032
33.005
32.978
32.95
32.923
32.896
32.87
32.845
32.82
32.796
32.772
32.747
32.721
32.694
32.667
32.639
32.609
32.579
32.548
32.516
32.483
32.448
32.412
32.375
32.339
32.303
32.27
32.239
32.211
32.187
32.164
32.145
32.127
32.111
32.096
32.083
32.07
32.059
32.048
32.039
32.032
32.03
32.035
32.052
32.086
32.141
32.221
32.333
32.481
32.671
32.904
33.183
33.507
33.874
34.281
34.72
35.185
35.668
36.16
36.651
37.132
37.596
38.033
38.438
38.804
39.128
39.41
39.647
39.841
39.994
40.107
40.186
40.234
40.254
40.251
40.228
40.189
40.137
40.076
40.006
39.93
39.848
39.761
39.67
39.576
39.481
39.386
39.291
39.198
39.109
39.023
38.943
38.867
38.796
38.729
38.666
38.606
38.549
38.494
38.439
38.384
38.329
38.273
38.216
38.158
38.097
38.035
37.971
37.906
37.839
37.77
37.699
37.625
37.55
37.473
37.395
37.317
37.239
37.163
37.089
37.02
36.954
36.894
36.838
36.789
36.744
36.705
36.672
36.644
36.624
36.61
36.604
36.605
36.612
36.625
36.643
36.665
36.691
36.719
36.749
36.779
36.808
36.834
36.858
36.878
36.892
36.901
36.903
36.898
36.886
36.867
36.842
36.812
36.776
36.735
36.69
36.642
36.592
36.54
36.488
36.435
36.382
36.328
36.273
36.218
36.161
36.105
36.048
35.991
35.934
35.876
35.819
35.76
35.701
35.64
35.577
35.514
35.45
35.385
35.32
35.256
35.192
35.129
35.068
35.008
34.951
34.896
34.844
34.796
34.751
34.708
34.668
34.632
34.597
34.565
34.534
34.505
34.477
34.45
34.423
34.396
34.369
34.342
34.315
34.288
34.263
34.239
34.217
34.196
34.177
34.16
34.143
34.127
34.11
34.094
34.077
34.061
34.044
34.026
34.008
33.989
33.968
33.945
33.922
33.898
33.874
33.851
33.829
33.807
33.785
33.762
33.737
33.712
33.685
33.656
33.625
33.593
33.561
33.528
33.496
33.466
33.437
33.41
33.384
33.36
33.338
33.315
33.292
33.269
33.245
33.219
33.192
33.165
33.137
33.11
33.083
33.058
33.036
33.016
33.0
32.987
32.978
32.97
32.963
32.955
32.946
32.934
32.919
32.901
32.88
32.855
32.828
32.799
32.768
32.735
32.701
32.665
32.63
32.596
32.563
32.533
32.504
32.479
32.457
32.437
32.42
32.406
32.395
32.389
32.387
32.39
32.399
32.414
32.439
32.474
32.524
32.593
32.684
32.803
32.953
33.139
33.364
33.628
33.93
34.27
34.642
35.042
35.463
35.9
36.343
36.787
37.223
37.644
38.043
38.417
38.759
39.068
39.341
39.577
39.777
39.941
40.07
40.167
40.234
40.275
40.292
40.288
40.266
40.228
40.179
40.12
40.053
39.98
39.902
39.82
39.736
39.65
39.563
39.478
39.392
39.307
39.223
39.14
39.059
38.981
38.906
38.835
38.768
38.706
38.649
38.596
38.546
38.499
38.453
38.408
38.361
38.31
38.257
38.2
38.139
38.074
38.006
37.935
37.862
37.789
37.716
37.643
37.573
37.508
37.447
37.393
37.346
37.308
37.278
37.258
37.248
37.247
37.255
37.272
37.295
37.324
37.357
37.392
37.428
37.464
37.498
37.529
37.556
37.58
37.6
37.616
37.629
37.637
37.642
37.644
37.643
37.637
37.626
37.609
37.588
37.56
37.528
37.49
37.448
37.401
37.349
37.293
37.233
37.169
37.101
37.029
36.953
36.873
36.789
36.704
36.616
36.527
36.437
36.348
36.26
36.174
36.088
36.004
35.921
35.841
35.764
35.688
35.613
35.54
35.469
35.399
35.331
35.263
35.196
35.128
35.061
34.995
34.929
34.865
34.803
34.745
34.69
34.64
34.593
34.55
34.51
34.473
34.439
34.407
34.378
34.35
34.324
34.299
34.274
34.25
34.226
34.201
34.176
34.149
34.122
34.095
34.068
34.041
34.015
33.991
33.968
33.948
33.929
33.912
33.895
33.879
33.863
33.846
33.828
33.811
33.793
33.775
33.758
33.74
33.722
33.704
33.685
33.663
33.64
33.615
33.589
33.56
33.531
33.501
33.471
33.44
33.409
33.377
33.345
33.313
33.281
33.249
33.218
33.186
33.155
33.126
33.097
33.071
33.046
33.023
33.002
32.983
32.967
32.953
32.944
32.937
32.934
32.932
32.931
32.929
32.926
32.921
32.912
32.901
32.887
32.869
32.848
32.825
32.8
32.772
32.742
32.709
32.674
32.636
32.597
32.555
32.511
32.467
32.423
32.38
32.338
32.298
32.262
32.229
32.201
32.178
32.159
32.146
32.139
32.138
32.147
32.166
32.198
32.248
32.319
32.416
32.546
32.712
32.919
33.168
33.461
33.798
34.174
34.587
35.029
35.495
35.974
36.458
36.94
37.409
37.86
38.285
38.678
39.036
39.354
39.632
39.868
40.063
40.218
40.335
40.416
40.467
40.49
40.489
40.469
40.431
40.38
40.318
40.248
40.172
40.091
40.008
39.923
39.839
39.755
39.674
39.595
39.52
39.448
39.381
39.318
39.258
39.201
39.146
39.094
39.045
38.999
38.956
38.917
38.88
38.845
38.814
38.784
38.755
38.727
38.698
38.667
38.633
38.596
38.554
38.508
38.454
38.394
38.326
38.252
38.172
38.088
38.002
37.916
37.832
37.752
37.678
37.611
37.552
37.502
37.461
37.429
37.404
37.387
37.377
37.375
37.38
37.391
37.406
37.425
37.447
37.472
37.496
37.52
37.542
37.56
37.572
37.577
37.575
37.564
37.545
37.518
37.483
37.44
37.39
37.334
37.273
37.209
37.14
37.069
36.995
36.918
36.84
36.761
36.681
36.6
36.52
36.439
36.358
36.277
36.196
36.114
36.031
35.946
35.861
35.776
35.69
35.604
35.52
35.436
35.354
35.273
35.194
35.117
35.042
34.97
34.901
34.834
34.77
34.708
34.649
34.592
34.536
34.481
34.426
34.372
34.319
34.267
34.216
34.166
34.117
34.07
34.024
33.98
33.939
33.9
33.863
33.829
33.799
33.771
33.746
33.725
33.706
33.69
33.675
33.66
33.646
33.63
33.614
33.598
33.581
33.564
33.549
33.534
33.52
33.508
33.498
33.49
33.483
33.476
33.471
33.465
33.459
33.452
33.444
33.433
33.421
33.406
33.39
33.372
33.352
33.33
33.307
33.282
33.256
33.228
33.198
33.166
33.132
33.097
33.059
33.019
32.978
32.937
32.894
32.852
32.809
32.767
32.725
32.686
32.648
32.612
32.578
32.546
32.52
32.498
32.482
32.469
32.458
32.448
32.436
32.423
32.409
32.393
32.377
32.359
32.34
32.32
32.298
32.273
32.246
32.218
32.188
32.156
32.122
32.086
32.048
32.008
31.968
31.926
31.885
31.845
31.808
31.774
31.742
31.714
31.688
31.663
31.641
31.621
31.603
31.589
31.578
31.573
31.574
31.583
31.604
31.638
31.69
31.764
31.865
31.998
32.165
32.372
32.621
32.914
33.25
33.63
34.049
34.504
34.987
35.49
36.002
36.514
37.017
37.501
37.958
38.383
38.769
39.114
39.416
39.674
39.889
40.062
40.197
40.295
40.36
40.397
40.408
40.399
40.372
40.331
40.28
40.22
40.155
40.085
40.012
39.937
39.861
39.784
39.709
39.634
39.561
39.487
39.413
39.339
39.265
39.191
39.119
39.049
38.982
38.918
38.857
38.8
38.746
