Trial 1:0back
36.231
36.215
36.198
36.178
36.158
36.136
36.115
36.094
36.074
36.054
36.035
36.017
36.0
35.984
35.972
35.963
35.959
35.958
35.959
35.961
35.963
35.964
35.963
35.96
35.956
35.951
35.944
35.934
35.923
35.912
35.9
35.89
35.881
35.874
35.867
35.86
35.853
35.846
35.838
35.83
35.822
35.814
35.806
35.798
35.789
35.778
35.765
35.75
35.733
35.715
35.696
35.676
35.656
35.636
35.617
35.599
35.581
35.564
35.548
35.531
35.514
35.498
35.482
35.466
35.452
35.439
35.426
35.415
35.403
35.392
35.381
35.37
35.361
35.353
35.346
35.339
35.332
35.324
35.315
35.303
35.291
35.277
35.261
35.245
35.228
35.211
35.194
35.177
35.162
35.148
35.136
35.125
35.115
35.105
35.096
35.087
35.079
35.071
35.062
35.054
35.046
35.039
35.031
35.024
35.016
35.007
34.996
34.985
34.973
34.96
34.949
34.939
34.932
34.929
34.929
34.932
34.937
34.94
34.941
34.939
34.933
34.923
34.91
34.894
34.876
34.856
34.834
34.811
34.788
34.767
34.748
34.729
34.71
34.692
34.675
34.659
34.645
34.634
34.625
34.618
34.613
34.61
34.609
34.609
34.611
34.613
34.616
34.617
34.616
34.612
34.607
34.6
34.594
34.591
34.594
34.603
34.62
34.646
34.683
34.73
34.787
34.853
34.927
35.007
35.092
35.18
35.27
35.36
35.449
35.534
35.616
35.693
35.763
35.826
35.88
35.927
35.965
35.996
36.021
36.04
36.052
36.059
36.059
36.055
36.046
36.035
36.022
36.009
35.995
35.982
35.97
35.96
35.95
35.942
35.936
35.932
35.929
35.928
35.93
35.932
35.936
35.941
35.947
35.952
35.956
35.957
35.955
35.951
35.944
35.935
35.926
35.916
35.906
35.896
35.887
35.878
35.871
35.864
35.857
35.85
35.842
35.832
35.821
35.808
35.793
35.778
35.764
35.753
35.746
35.743
35.744
35.748
35.755
35.765
35.777
35.79
35.805
35.821
35.837
35.853
35.868
35.881
35.891
35.898
35.902
35.9
35.895
35.884
35.87
35.852
35.832
35.811
35.79
35.77
35.751
35.734
35.719
35.706
35.694
35.683
35.67
35.656
35.639
35.62
35.599
35.576
35.552
35.528
35.507
35.487
35.47
35.453
35.437
35.422
35.407
35.392
35.377
35.362
35.346
35.329
35.313
35.297
35.283
35.271
35.262
35.256
35.254
35.254
35.255
35.256
35.256
35.254
35.251
35.245
35.238
35.229
35.22
35.209
35.199
35.189
35.178
35.169
35.16
35.15
35.139
35.128
35.116
35.104
35.092
35.082
35.075
35.07
35.068
35.07
35.075
35.083
35.093
35.104
35.114
35.122
35.126
35.126
35.122
35.114
35.102
35.088
35.071
35.053
35.032
35.011
34.989
34.968
34.947
34.927
34.91
34.894
34.879
34.866
34.854
34.844
34.835
34.826
34.817
34.808
34.797
34.784
34.77
34.752
34.733
34.713
34.693
34.675
34.659
34.644
34.632
34.622
34.615
34.612
34.612
34.616
34.622
34.632
34.646
34.666
34.692
34.726
34.768
34.818
34.876
34.941
35.012
35.089
35.171
35.257
35.345
35.431
35.515
35.594
35.668
35.735
35.794
35.846
35.89
35.926
35.953
35.972
35.983
35.986
35.983
35.975
35.966
35.956
35.947
35.939
35.932
35.927
35.924
35.921
35.919
35.915
35.91
35.902
35.892
35.881
35.869
35.857
35.846
35.837
35.83
35.824
35.821
35.818
35.816
35.815
35.814
35.813
35.811
35.807
35.801
35.792
35.779
35.764
35.744
35.722
35.697
35.67
35.643
35.616
35.591
35.57
35.552
35.537
35.524
35.514
35.506
35.5
35.496
35.495
35.497
35.502
35.512
35.523
35.537
35.55
35.562
35.573
35.581
35.587
35.59
35.59
35.588
35.583
35.577
35.569
35.561
35.55
35.539
35.526
35.511
35.495
35.478
35.459
35.439
35.42
35.4
35.382
35.365
35.349
35.334
35.318
35.304
35.291
35.278
35.264
35.25
35.236
35.221
35.208
35.196
35.186
35.178
35.17
35.164
35.159
35.153
35.146
35.138
35.129
35.119
35.109
35.099
35.089
35.078
35.068
35.058
35.049
35.04
35.032
35.026
35.02
35.013
35.005
34.995
34.984
34.972
34.961
34.95
34.94
34.929
34.918
34.908
34.898
34.89
34.883
34.877
34.873
34.869
34.865
34.863
34.861
34.86
34.859
34.858
34.857
34.856
34.854
34.851
34.847
34.843
34.838
34.832
34.826
34.819
34.812
34.805
34.797
34.788
34.778
34.769
34.759
34.75
34.74
34.73
34.719
34.707
34.695
34.683
34.67
34.655
34.639
34.622
34.605
34.588
34.571
34.555
34.542
34.531
34.525
34.522
34.522
34.525
34.531
34.538
34.547
34.558
34.57
34.585
34.603
34.627
34.658
34.696
34.744
34.801
34.868
34.944
35.028
35.118
35.213
35.311
35.412
35.512
35.612
35.708
35.8
35.887
35.966
36.038
36.102
36.159
36.207
36.247
36.28
36.306
36.326
36.341
36.351
36.357
36.36
36.361
36.36
36.358
36.353
36.347
36.338
36.327
36.313
36.298
36.282
36.265
36.248
36.231
36.215
36.201
36.19
36.182
36.175
36.171
36.167
36.165
36.162
36.158
36.153
36.147
36.139
36.13
36.121
36.111
36.102
36.093
36.084
36.075
36.065
36.055
36.044
36.032
36.019
36.005
35.99
35.975
35.962
35.95
35.94
35.934
35.93
35.93
35.932
35.936
35.942
35.948
35.953
35.957
35.96
35.961
35.96
35.957
35.952
35.945
35.938
35.929
35.921
35.912
35.903
35.894
35.883
35.871
35.858
35.844
35.83
35.814
35.797
35.779
35.761
35.742
35.725
35.709
35.695
35.682
35.67
35.658
35.644
35.63
35.614
35.597
35.579
35.56
35.541
35.522
35.502
35.483
35.464
35.446
35.428
35.41
35.392
35.374
35.355
35.337
35.318
35.3
35.284
35.269
35.256
35.246
35.237
35.229
35.221
35.214
35.206
35.198
35.189
35.18
35.171
35.164
35.159
35.155
35.154
35.155
35.157
35.159
35.161
35.162
35.161
35.157
35.151
35.143
35.132
35.12
35.105
35.089
35.073
35.057
35.042
35.028
35.017
35.007
34.998
34.989
34.981
34.972
34.963
34.953
34.943
34.933
34.923
34.911
34.9
34.888
34.876
34.864
34.85
34.836
34.819
34.802
34.785
34.769
34.754
34.742
34.732
34.725
34.721
34.719
34.718
34.717
34.717
34.715
34.713
34.71
34.707
34.707
34.707
34.708
34.709
34.708
34.706
34.703
34.7
34.697
34.696
34.699
34.707
34.723
34.747
34.782
34.829
34.886
34.955
35.033
35.12
35.213
35.31
35.408
35.506
35.602
35.696
35.786
35.871
35.951
36.023
36.088
36.144
36.193
36.234
36.267
36.292
36.309
36.318
36.322
36.323
36.324
36.326
36.328
36.332
36.335
36.338
36.34
36.341
36.34
36.338
36.333
36.327
36.318
36.307
36.292
36.274
36.255
36.234
36.214
36.196
36.18
36.168
36.16
36.155
36.152
36.151
36.15
36.148
36.146
36.142
36.136
36.128
36.119
36.109
36.098
36.086
36.072
36.056
36.038
36.018
35.998
35.977
35.955
35.933
35.91
35.89
35.872
35.857
35.846
35.839
35.836
35.836
35.84
35.846
35.854
35.863
35.872
35.882
35.891
35.899
35.905
35.909
35.911
35.911
35.908
35.902
35.894
35.884
35.873
35.859
35.844
35.827
35.809
35.791
35.772
35.752
35.732
35.711
35.69
35.669
35.648
35.626
35.605
35.582
35.559
35.537
35.515
35.495
35.477
35.462
35.448
35.435
35.424
35.413
35.403
35.392
35.38
35.365
35.349
35.332
35.314
35.297
35.28
35.265
35.25
35.237
35.224
35.212
35.2
35.188
35.174
35.16
35.145
35.13
35.115
35.102
35.091
35.081
35.072
35.066
35.061
35.057
35.055
35.053
35.051
35.046
35.04
35.032
35.022
35.009
34.996
34.981
34.966
34.949
34.933
34.916
34.9
34.885
34.872
34.862
34.854
34.85
34.847
34.847
34.849
34.851
34.852
34.853
34.853
34.85
34.845
34.838
34.828
34.815
34.802
34.787
34.773
34.757
34.742
34.726
34.708
34.69
34.67
34.651
34.632
34.614
34.598
34.584
34.57
34.558
34.546
34.535
34.524
34.515
34.508
34.503
34.503
34.507
34.518
34.537
34.565
34.602
34.648
34.703
34.765
34.834
34.91
34.99
35.075
35.163
35.254
35.346
35.438
35.529
35.617
35.701
35.781
35.855
35.923
35.985
36.039
36.086
36.127
36.162
36.191
36.214
36.231
36.241
36.246
36.247
36.243
36.236
36.225
36.211
36.197
36.184
36.172
36.163
36.156
36.156
36.167
36.19
36.221
36.258
36.295
36.328
36.353
36.369
36.373
36.366
36.35
36.324
36.29
36.251
36.208
36.163
36.117
36.072
36.03
35.991
35.956
35.926
35.9
35.878
35.86
35.845
35.834
35.826
35.822
35.821
35.823
35.826
35.831
35.835
35.838
35.839
35.839
35.838
35.836
35.834
35.832
35.831
35.831
35.835
35.841
35.85
35.86
35.87
35.878
35.883
35.886
35.886
35.882
35.875
35.863
35.847
35.83
35.811
35.793
35.774
35.756
35.739
35.721
35.704
35.687
35.669
35.652
35.635
35.618
35.601
35.583
35.564
35.544
35.523
35.5
35.476
35.451
35.428
35.405
35.383
35.363
35.345
35.329
35.313
35.299
35.287
35.276
35.265
35.256
35.247
35.239
35.231
35.224
35.218
35.212
35.207
35.202
35.196
35.188
35.18
35.169
35.158
35.146
35.133
35.12
35.106
35.092
35.078
35.064
35.051
35.039
35.026
35.013
34.999
34.985
34.97
34.956
34.943
34.932
34.923
34.916
34.911
34.906
34.903
34.899
34.895
34.889
34.882
34.872
34.861
34.849
34.837
34.823
34.808
34.792
34.775
34.759
34.743
34.727
34.713
34.7
34.687
34.676
34.667
34.66
34.656
34.654
34.653
34.653
34.654
34.654
34.653
34.65
34.646
34.64
34.632
34.622
34.611
34.6
34.588
34.578
34.568
34.559
34.551
34.545
34.541
34.54
34.543
34.553
34.57
34.598
34.637
34.687
34.75
34.825
34.911
35.007
35.11
35.216
35.325
35.433
35.539
35.64
35.736
35.825
35.908
35.982
36.047
36.102
36.148
36.183
36.209
36.227
36.238
36.245
36.247
36.247
36.245
36.242
36.239
36.237
36.235
36.234
36.233
36.232
36.229
36.224
36.218
36.212
36.205
36.199
36.194
36.189
36.186
36.183
36.18
36.176
36.169
36.159
36.146
36.129
36.109
36.088
36.065
36.043
36.023
36.005
35.99
35.978
35.967
35.957
35.947
35.939
35.931
35.924
35.917
35.912
35.909
35.907
35.907
35.907
35.908
35.908
35.909
35.91
35.909
35.906
35.902
35.897
35.891
35.886
35.882
35.88
35.877
35.874
35.871
35.867
35.863
35.858
35.853
35.847
35.839
35.827
35.813
35.796
35.779
35.761
35.742
35.724
35.706
35.687
35.669
35.651
35.634
35.62
35.607
35.596
35.586
35.578
35.571
35.565
35.558
35.551
35.542
35.531
35.519
35.505
35.489
35.471
35.452
35.432
35.412
35.393
35.374
35.355
35.338
35.321
35.305
35.29
35.276
35.261
35.245
35.228
35.21
35.191
35.172
35.154
35.138
35.126
35.118
35.113
35.109
35.108
35.109
35.11
35.113
35.117
35.121
35.125
35.128
35.131
35.132
35.131
35.128
35.123
35.116
35.107
35.096
35.083
35.07
35.056
35.041
35.027
35.014
34.999
34.984
34.968
34.952
34.937
34.922
34.908
34.893
34.879
34.865
34.852
34.839
34.826
34.813
34.8
34.786
34.771
34.755
34.737
34.717
34.697
34.678
34.66
34.644
34.632
34.623
34.62
34.622
34.629
34.642
34.66
34.684
34.716
34.757
34.807
34.867
34.935
35.009
35.089
35.173
35.26
35.349
35.439
35.529
35.618
35.704
35.788
35.867
35.941
36.009
36.07
36.123
36.168
36.203
36.23
36.247
36.258
36.262
36.261
36.259
36.255
36.251
36.247
36.243
36.237
36.231
36.224
36.217
36.208
36.198
36.188
36.177
36.166
36.157
36.149
36.142
36.135
36.129
36.125
36.121
36.117
36.111
36.103
36.091
36.077
36.061
36.043
36.023
36.003
35.982
35.96
35.939
35.918
35.899
35.88
35.863
35.847
35.833
35.82
35.808
35.797
35.789
35.784
35.78
35.778
35.779
35.782
35.789
35.798
35.81
35.824
35.84
35.854
35.868
35.881
35.891
35.899
35.904
35.907
35.909
35.908
35.905
35.898
35.887
35.872
35.852
35.83
35.804
35.777
35.749
35.721
35.695
35.67
35.646
35.623
35.601
35.578
35.556
35.534
35.512
35.491
35.47
35.449
35.429
35.41
35.39
35.37
35.348
35.325
35.302
35.279
35.256
35.233
35.211
35.191
35.172
35.156
35.141
35.128
35.117
35.108
35.101
35.097
35.094
35.093
35.093
35.095
35.097
35.099
35.1
35.1
35.097
35.091
35.082
35.072
35.059
35.044
35.029
35.015
35.001
34.988
34.976
34.965
34.955
34.946
34.937
34.929
34.92
34.912
34.904
34.897
34.889
34.88
34.872
34.863
34.853
34.843
34.833
34.822
34.812
34.802
34.794
34.786
34.779
34.773
34.768
34.761
34.754
34.746
34.736
34.725
34.71
34.693
34.674
34.654
34.634
34.616
34.599
34.583
34.569
34.555
34.543
34.532
34.523
34.517
34.512
34.51
34.51
34.516
34.527
34.546
34.575
34.612
34.658
34.714
34.778
34.849
34.928
35.012
35.103
35.2
35.301
35.407
35.513
35.62
35.724
35.826
35.924
36.018
36.104
36.183
36.254
36.314
36.365
36.408
36.441
36.467
36.485
36.498
36.504
36.506
36.505
36.501
36.496
36.49
36.484
36.48
36.476
36.474
36.474
36.476
36.481
36.488
36.495
36.503
36.509
36.513
36.515
36.513
36.508
36.499
36.487
36.473
36.457
36.439
36.42
36.401
36.381
36.361
36.342
36.324
36.308
36.291
36.274
36.258
36.242
36.228
36.215
36.205
36.195
36.186
36.176
36.167
36.157
36.147
36.138
36.13
36.124
36.12
36.118
36.119
36.121
36.125
36.13
36.135
36.139
36.142
36.142
36.139
36.134
36.125
36.115
36.103
36.091
36.078
36.065
36.052
36.04
36.029
36.02
36.012
36.005
35.998
35.989
35.979
35.967
35.954
35.94
35.926
35.911
35.895
35.879
35.863
35.846
35.829
35.812
35.792
35.772
35.75
35.727
35.703
35.68
35.656
35.633
35.612
35.592
35.574
35.557
35.541
35.524
35.506
35.488
35.471
35.454
35.438
35.424
35.413
35.403
35.393
35.385
35.375
35.365
35.353
35.338
35.32
35.3
35.277
35.253
35.23
35.208
35.187
35.169
35.151
35.135
35.119
35.104
35.088
35.072
35.057
35.043
35.029
35.016
35.004
34.995
34.988
34.983
34.98
34.978
34.977
34.976
34.975
34.972
34.967
34.96
34.952
34.942
34.93
34.918
34.904
34.888
34.872
34.855
34.838
34.822
34.806
34.792
34.778
34.764
34.752
34.74
34.729
34.718
34.708
34.7
34.694
34.69
34.688
34.688
34.691
34.697
34.708
34.725
34.749
34.78
34.817
34.861
34.911
34.969
35.035
35.109
35.192
35.282
35.376
35.475
35.575
35.675
35.774
35.868
35.957
36.037
36.109
36.171
36.224
36.271
36.311
36.345
36.376
36.403
36.426
36.446
36.461
36.472
36.478
36.48
36.479
36.474
36.466
36.454
36.44
36.424
36.409
36.397
36.387
36.381
36.376
36.373
36.37
36.367
36.364
36.361
36.357
36.354
36.35
36.348
36.347
36.347
36.35
36.354
36.358
36.36
36.359
36.355
36.346
36.333
36.317
36.303
36.295
36.292
36.294
36.298
36.302
36.304
36.301
36.294
36.283
36.266
36.245
36.219
36.19
36.157
36.124
36.091
36.06
36.031
36.007
35.987
35.972
35.963
35.959
35.96
35.963
35.969
35.975
35.981
35.983
35.983
35.978
35.97
35.958
35.944
35.928
35.912
35.894
35.875
35.856
35.837
35.816
35.795
35.774
35.751
35.728
35.704
35.681
35.658
35.637
35.617
35.598
35.579
35.559
35.54
35.521
35.503
35.487
35.474
35.464
35.456
35.451
35.446
35.442
35.437
35.429
35.418
35.404
35.387
35.367
35.345
35.323
35.301
35.28
35.26
35.242
35.226
35.21
35.194
35.178
35.161
35.142
35.123
35.105
35.089
35.075
35.064
35.056
35.049
35.043
35.037
35.031
35.024
35.015
35.005
34.994
34.982
34.969
34.956
34.943
34.931
34.92
34.91
34.902
34.895
34.889
34.883
34.877
34.87
34.862
34.854
34.847
34.838
34.829
34.818
34.806
34.793
34.779
34.765
34.752
34.738
34.724
34.71
34.694
34.679
34.663
34.648
34.633
34.618
34.603
34.589
34.573
34.557
34.542
34.527
34.515
34.508
34.505
34.507
34.516
34.53
34.551
34.579
34.615
34.658
34.71
34.772
34.844
34.925
35.014
35.109
35.209
35.311
35.413
35.513
35.61
35.702
35.789
35.871
35.947
36.017
36.079
36.135
36.184
36.226
36.261
36.287
36.306
36.317
36.321
36.32
36.315
36.307
36.298
36.29
36.285
36.284
36.288
36.296
36.308
36.321
36.333
36.344
36.351
36.355
36.355
36.352
36.346
36.339
36.33
36.318
36.306
36.292
36.278
36.264
36.248
36.232
36.215
36.197
36.177
36.158
36.138
36.117
36.096
36.076
36.056
36.037
36.019
36.001
35.983
35.963
35.943
35.923
35.905
35.889
35.876
35.866
35.861
35.859
35.862
35.868
35.876
35.883
35.888
35.891
35.891
35.89
35.888
35.886
35.885
35.883
35.882
35.879
35.875
35.869
35.862
35.852
35.84
35.826
35.81
35.792
35.773
35.753
35.732
35.712
35.693
35.674
35.656
35.637
35.617
35.596
35.575
35.553
35.533
35.513
35.494
35.475
35.457
35.438
35.418
35.399
35.379
35.36
35.342
35.326
35.311
35.298
35.286
35.275
35.265
35.256
35.246
35.235
35.223
35.21
35.196
35.182
35.166
35.15
35.136
35.122
35.11
35.099
35.089
35.08
35.072
35.064
35.057
35.05
35.044
35.038
35.033
35.029
35.025
35.02
35.016
35.011
35.005
34.999
34.992
34.982
34.97
34.956
34.938
34.919
34.897
34.875
34.853
34.832
34.813
34.796
34.78
34.764
34.749
34.734
34.721
34.709
34.7
34.692
34.686
34.681
34.676
34.672
34.669
34.665
34.661
34.656
34.649
34.642
34.634
34.627
34.623
34.623
34.629
34.641
34.661
34.689
34.727
34.773
34.83
34.895
34.969
35.049
35.136
35.228
35.323
35.421
35.518
35.614
35.705
35.79
35.868
35.937
35.998
36.05
36.094
36.132
36.164
36.19
36.21
36.226
36.236
36.243
36.247
36.248
36.247
36.242
36.235
36.225
36.213
36.202
36.191
36.183
36.176
36.171
36.167
36.164
36.161
36.157
36.154
36.149
36.145
36.141
36.138
36.135
36.132
36.13
36.127
36.123
36.116
36.106
36.093
36.077
36.058
36.037
36.016
35.995
35.974
35.953
35.932
35.911
35.889
35.87
35.852
35.838
35.827
35.82
35.817
35.816
35.818
35.822
35.827
35.833
35.837
35.841
35.844
35.845
35.845
35.845
35.844
35.844
35.844
35.844
35.843
35.84
35.835
35.827
35.816
35.802
35.786
35.768
35.749
35.729
35.709
35.689
35.671
35.653
35.635
35.616
35.595
35.573
35.548
35.522
35.495
35.468
35.44
35.413
35.387
35.362
35.338
35.316
35.296
35.277
35.26
35.244
35.23
35.217
35.204
35.193
35.183
35.172
35.161
35.15
35.137
35.125
35.113
35.1
35.087
35.073
35.058
35.044
35.03
35.018
35.008
35.0
34.994
34.989
34.985
34.981
34.977
34.972
34.966
34.959
34.951
34.943
34.936
34.93
34.923
34.915
34.906
34.896
34.883
34.868
34.849
34.829
34.808
34.788
34.769
34.752
34.738
34.727
34.717
34.708
34.7
34.692
34.684
34.677
34.669
34.659
34.648
34.635
34.621
34.607
34.593
34.58
34.566
34.553
34.539
34.525
34.511
34.496
34.482
34.468
34.456
34.444
34.435
34.428
34.423
34.419
34.416
34.415
34.414
34.415
34.416
34.418
34.421
34.426
34.432
34.443
34.457
34.478
34.506
34.542
34.586
34.638
34.697
34.764
34.839
34.92
35.007
35.097
35.189
35.282
35.373
35.462
35.547
35.628
35.704
35.775
35.839
35.897
35.947
35.989
36.025
36.053
36.076
36.093
36.105
36.113
36.119
36.123
36.127
36.132
36.138
36.145
36.154
36.165
36.176
36.188
36.2
36.213
36.225
36.235
36.244
36.25
36.254
36.256
36.258
36.259
36.259
36.258
36.256
36.251
36.244
36.235
36.225
36.213
36.2
36.186
36.172
36.157
36.141
36.124
36.105
36.085
36.064
36.045
36.027
36.01
35.996
35.985
35.977
35.972
35.969
35.968
35.966
35.964
35.96
35.954
35.946
35.938
35.93
35.922
35.916
35.91
35.906
35.903
35.901
35.901
35.9
35.898
35.893
35.887
35.877
35.866
35.853
35.839
35.822
35.805
35.786
35.767
35.747
35.727
35.708
35.689
35.67
35.652
35.634
35.618
35.602
35.585
35.569
35.551
35.532
35.512
35.49
35.466
35.439
35.412
35.384
35.357
35.33
35.304
35.279
35.256
35.233
35.213
35.195
35.179
35.165
35.152
35.139
35.125
35.109
35.092
35.076
35.059
35.043
35.028
35.015
35.002
34.991
34.982
34.975
34.969
34.965
34.963
34.962
34.963
34.966
34.971
34.977
34.983
34.988
34.991
34.992
34.99
34.986
34.981
34.977
34.976
34.978
34.984
