Trial 1:0back
35.542
35.997
36.454
36.906
37.35
37.78
38.191
38.582
38.949
39.291
39.606
39.892
40.15
40.378
40.577
40.747
40.888
41.002
41.09
41.155
41.198
41.22
41.224
41.21
41.181
41.139
41.085
41.022
40.952
40.878
40.801
40.722
40.643
40.564
40.484
40.404
40.324
40.241
40.157
40.069
39.979
39.885
39.789
39.689
39.587
39.482
39.375
39.267
39.157
39.045
38.932
38.814
38.692
38.566
38.439
38.31
38.179
38.049
37.92
37.794
37.669
37.542
37.411
37.276
37.14
37.007
36.882
36.769
36.671
36.589
36.52
36.464
36.427
36.413
36.417
36.43
36.448
36.468
36.488
36.505
36.519
36.528
36.532
36.533
36.529
36.519
36.505
36.486
36.463
36.437
36.407
36.376
36.346
36.319
36.3
36.286
36.269
36.243
36.207
36.158
36.096
36.022
35.938
35.847
35.752
35.655
35.558
35.465
35.375
35.29
35.212
35.139
35.072
35.009
34.949
34.892
34.835
34.777
34.718
34.656
34.592
34.525
34.456
34.387
34.317
34.248
34.181
34.115
34.051
33.988
33.927
33.867
33.808
33.749
33.69
33.631
33.571
33.509
33.446
33.382
33.318
33.254
33.192
33.133
33.078
33.028
32.982
32.942
32.908
32.878
32.853
32.829
32.808
32.788
32.767
32.745
32.722
32.696
32.668
32.637
32.603
32.567
32.529
32.489
32.448
32.409
32.371
32.335
32.302
32.274
32.25
32.231
32.215
32.203
32.193
32.184
32.173
32.159
32.142
32.12
32.093
32.061
32.026
31.987
31.945
31.901
31.857
31.814
31.774
31.739
31.711
31.694
31.689
31.7
31.73
31.782
31.857
31.959
32.09
32.253
32.449
32.679
32.943
33.24
33.568
33.923
34.302
34.702
35.118
35.547
35.985
36.428
36.87
37.309
37.74
38.157
38.558
38.938
39.293
39.621
39.92
40.188
40.424
40.63
40.805
40.952
41.072
41.168
41.242
41.296
41.331
41.35
41.353
41.343
41.32
41.286
41.243
41.192
41.134
41.07
41.002
40.93
40.855
40.778
40.699
40.62
40.542
40.465
40.389
40.314
40.24
40.166
40.091
40.013
39.932
39.845
39.753
39.653
39.546
39.431
39.309
39.18
39.045
38.905
38.761
38.615
38.468
38.322
38.177
38.036
37.901
37.772
37.651
37.538
37.434
37.338
37.25
37.169
37.093
37.022
36.955
36.892
36.833
36.776
36.723
36.674
36.628
36.586
36.546
36.509
36.474
36.441
36.409
36.378
36.345
36.31
36.273
36.231
36.185
36.134
36.077
36.016
35.952
35.884
35.816
35.747
35.68
35.614
35.551
35.49
35.432
35.376
35.322
35.269
35.215
35.161
35.105
35.046
34.984
34.917
34.846
34.771
34.692
34.61
34.527
34.444
34.363
34.284
34.208
34.134
34.063
33.995
33.928
33.863
33.8
33.735
33.67
33.603
33.536
33.466
33.395
33.324
33.251
33.179
33.109
33.04
32.975
32.915
32.86
32.81
32.764
32.722
32.683
32.646
32.609
32.572
32.534
32.492
32.448
32.402
32.352
32.3
32.246
32.19
32.135
32.081
32.029
31.982
31.939
31.903
31.871
31.846
31.826
31.81
31.797
31.786
31.776
31.766
31.754
31.74
31.723
31.702
31.677
31.648
31.615
31.578
31.539
31.497
31.454
31.411
31.37
31.332
31.297
31.264
31.233
31.203
31.174
31.145
31.116
31.086
31.056
31.026
30.997
30.97
30.947
30.928
30.915
30.91
30.915
30.932
30.963
31.011
31.078
31.167
31.281
31.422
31.592
31.793
32.024
32.286
32.578
32.898
33.243
33.611
33.996
34.395
34.803
35.215
35.626
36.03
36.424
36.803
37.164
37.504
37.822
38.115
38.383
38.624
38.839
39.027
39.188
39.324
39.433
39.52
39.584
39.628
39.655
39.667
39.666
39.654
39.633
39.607
39.575
39.54
39.502
39.461
39.418
39.372
39.323
39.272
39.219
39.165
39.112
39.059
39.007
38.955
38.902
38.849
38.794
38.737
38.676
38.613
38.545
38.471
38.391
38.305
38.213
38.113
38.008
37.896
37.778
37.656
37.529
37.399
37.269
37.138
37.011
36.889
36.774
36.667
36.57
36.483
36.407
36.34
36.282
36.232
36.188
36.148
36.11
36.074
36.037
35.999
35.96
35.918
35.875
35.831
35.787
35.743
35.701
35.661
35.622
35.585
35.549
35.513
35.478
35.441
35.403
35.361
35.316
35.267
35.214
35.158
35.098
35.035
34.969
34.902
34.834
34.766
34.7
34.637
34.575
34.516
34.458
34.4
34.341
34.282
34.22
34.154
34.085
34.011
33.932
33.85
33.766
33.681
33.597
33.514
33.434
33.359
33.289
33.225
33.167
33.114
33.067
33.023
32.982
32.944
32.907
32.871
32.834
32.795
32.753
32.707
32.658
32.606
32.553
32.497
32.442
32.386
32.331
32.278
32.227
32.18
32.135
32.093
32.054
32.016
31.981
31.947
31.914
31.883
31.852
31.822
31.792
31.761
31.729
31.696
31.662
31.628
31.593
31.559
31.524
31.49
31.455
31.422
31.391
31.36
31.331
31.304
31.279
31.257
31.236
31.218
31.202
31.187
31.175
31.163
31.154
31.145
31.137
31.129
31.118
31.106
31.092
31.075
31.056
31.032
31.006
30.976
30.944
30.911
30.877
30.842
30.806
30.769
30.733
30.696
30.661
30.628
30.596
30.567
30.541
30.518
30.498
30.481
30.469
30.459
30.452
30.448
30.446
30.448
30.454
30.464
30.482
30.508
30.546
30.599
30.67
30.761
30.875
31.015
31.182
31.378
31.604
31.86
32.145
32.457
32.795
33.155
33.534
33.926
34.327
34.729
35.129
35.519
35.896
36.255
36.594
36.91
37.202
37.47
37.715
37.935
38.132
38.308
38.463
38.6
38.72
38.824
38.913
38.988
39.048
39.095
39.13
39.152
39.163
39.164
39.156
39.139
39.115
39.086
39.052
39.015
38.977
38.938
38.899
38.862
38.826
38.793
38.762
38.732
38.703
38.672
38.64
38.603
38.562
38.514
38.458
38.394
38.323
38.245
38.161
38.071
37.978
37.882
37.785
37.687
37.589
37.491
37.394
37.298
37.202
37.107
37.014
36.924
36.838
36.756
36.68
36.61
36.546
36.488
36.436
36.39
36.349
36.312
36.278
36.245
36.212
36.179
36.146
36.111
36.075
36.038
36.0
35.96
35.919
35.876
35.832
35.787
35.741
35.695
35.649
35.603
35.558
35.513
35.469
35.425
35.381
35.335
35.289
35.242
35.193
35.143
35.092
35.04
34.986
34.929
34.87
34.807
34.741
34.673
34.605
34.536
34.468
34.402
34.338
34.277
34.219
34.163
34.108
34.054
34.0
33.944
33.886
33.827
33.765
33.701
33.635
33.569
33.502
33.435
33.372
33.313
33.259
33.209
33.165
33.127
33.092
33.06
33.029
32.999
32.969
32.938
32.902
32.858
32.804
32.744
32.678
32.611
32.544
32.479
32.418
32.362
32.312
32.269
32.234
32.205
32.184
32.169
32.163
32.164
32.168
32.175
32.181
32.183
32.18
32.17
32.151
32.123
32.087
32.043
31.994
31.941
31.884
31.828
31.774
31.725
31.681
31.643
31.611
31.584
31.56
31.533
31.504
31.478
31.458
31.444
31.433
31.426
31.424
31.424
31.426
31.43
31.433
31.435
31.434
31.431
31.425
31.415
31.403
31.388
31.371
31.353
31.334
31.315
31.295
31.275
31.255
31.233
31.211
31.188
31.164
31.139
31.114
31.091
31.068
31.046
31.028
31.012
31.002
30.996
30.997
31.006
31.025
31.057
31.103
31.167
31.251
31.357
31.489
31.646
31.831
32.044
32.284
32.55
32.842
33.155
33.488
33.835
34.193
34.557
34.923
35.286
35.643
35.988
36.32
36.635
36.93
37.203
37.453
37.681
37.885
38.066
38.224
38.362
38.478
38.576
38.655
38.718
38.768
38.806
38.834
38.853
38.864
38.867
38.864
38.855
38.839
38.817
38.79
38.76
38.727
38.693
38.658
38.624
38.591
38.559
38.529
38.5
38.471
38.442
38.413
38.381
38.346
38.306
38.26
38.206
38.146
38.077
38.002
37.921
37.836
37.746
37.653
37.558
37.462
37.366
37.271
37.177
37.087
37.001
36.92
36.844
36.773
36.708
36.649
36.593
36.541
36.493
36.449
36.408
36.371
36.338
36.31
36.285
36.264
36.248
36.236
36.226
36.219
36.213
36.206
36.198
36.187
36.172
36.151
36.123
36.089
36.048
36.002
35.952
35.898
35.842
35.785
35.729
35.673
35.618
35.565
35.513
35.461
35.409
35.356
35.302
35.245
35.184
35.12
35.052
34.98
34.906
34.831
34.756
34.683
34.614
34.548
34.487
34.43
34.377
34.328
34.282
34.237
34.194
34.151
34.106
34.058
34.007
33.952
33.893
33.831
33.766
33.699
33.633
33.568
33.506
33.448
33.393
33.343
33.297
33.255
33.218
33.183
33.151
33.119
33.086
33.052
33.015
32.975
32.934
32.89
32.844
32.797
32.75
32.704
32.659
32.618
32.58
32.547
32.518
32.493
32.472
32.455
32.442
32.43
32.42
32.41
32.399
32.387
32.373
32.357
32.338
32.317
32.294
32.267
32.239
32.21
32.181
32.152
32.126
32.102
32.081
32.063
32.048
32.035
32.024
32.012
32.0
31.986
31.97
31.951
31.93
31.906
31.88
31.851
31.82
31.786
31.751
31.716
31.68
31.646
31.614
31.585
31.562
31.544
31.534
31.532
31.54
31.558
31.589
31.634
31.695
31.774
31.874
31.996
32.14
32.309
32.501
32.718
32.959
33.223
33.509
33.816
34.141
34.481
34.833
35.193
35.556
35.918
36.275
36.622
36.957
37.274
37.574
37.853
38.11
38.347
38.563
38.758
38.932
39.087
39.222
39.339
39.439
39.522
39.589
39.644
39.686
39.717
39.74
39.754
39.76
39.759
39.752
39.739
39.72
39.697
39.67
39.64
39.609
39.577
39.545
39.513
39.483
39.452
39.421
39.389
39.355
39.318
39.278
39.234
39.186
39.132
39.074
39.011
38.942
38.866
38.785
38.698
38.606
38.508
38.406
38.299
38.189
38.078
37.967
37.856
37.749
37.645
37.545
37.451
37.362
37.28
37.205
37.138
37.077
37.023
36.976
36.935
36.9
36.869
36.844
36.823
36.804
36.787
36.769
36.75
36.728
36.704
36.676
36.644
36.609
36.57
36.528
36.482
36.435
36.388
36.341
36.295
36.252
36.21
36.169
36.129
36.087
36.044
35.998
35.948
35.895
35.837
35.774
35.707
35.636
35.564
35.491
35.419
35.348
35.279
35.212
35.148
35.086
35.025
34.965
34.906
34.846
34.785
34.724
34.66
34.594
34.527
34.458
34.389
34.321
34.254
34.191
34.132
34.078
34.029
33.985
33.945
33.908
33.873
33.838
33.802
33.765
33.726
33.684
33.638
33.59
33.538
33.484
33.428
33.371
33.316
33.262
33.212
33.165
33.122
33.084
33.049
33.017
32.987
32.958
32.929
32.899
32.867
32.834
32.799
32.763
32.727
32.69
32.654
32.62
32.587
32.557
32.529
32.505
32.484
32.467
32.452
32.439
32.427
32.415
32.402
32.387
32.371
32.354
32.334
32.312
32.289
32.264
32.239
32.214
32.189
32.164
32.142
32.122
32.104
32.09
32.079
32.071
32.064
32.059
32.054
32.05
32.045
32.038
32.028
32.016
32.0
31.98
31.957
31.929
31.898
31.864
31.827
31.788
31.749
31.71
31.673
31.64
31.611
31.587
31.569
31.555
31.548
31.547
31.552
31.564
31.584
31.612
31.65
31.703
31.771
31.86
31.97
32.104
32.266
32.457
32.679
32.931
33.215
33.53
33.874
34.244
34.636
35.045
35.465
35.893
36.32
36.742
37.153
37.551
37.931
38.291
38.628
38.942
39.231
39.496
39.737
39.954
40.146
40.315
40.462
40.588
40.694
40.782
40.852
40.907
40.949
40.977
40.995
41.004
41.004
40.997
40.984
40.964
40.939
40.91
40.88
40.849
40.818
40.788
40.758
40.727
40.696
40.661
40.623
40.58
40.532
40.481
40.425
40.366
40.304
40.238
40.17
40.098
40.022
39.943
39.859
39.771
39.679
39.584
39.486
39.386
39.284
39.181
39.078
38.975
38.873
38.772
38.673
38.578
38.486
38.399
38.317
38.241
38.171
38.108
38.051
38.001
37.956
37.914
37.877
37.842
37.81
37.779
37.749
37.718
37.688
37.656
37.624
37.592
37.558
37.523
37.485
37.444
37.401
37.354
37.304
37.25
37.193
37.133
37.07
37.002
36.931
36.857
36.778
36.696
36.611
36.523
36.432
36.342
36.253
36.164
36.077
35.991
35.907
35.826
35.749
35.674
35.603
35.535
35.47
35.406
35.343
35.282
35.22
35.159
35.097
35.034
34.97
34.907
34.844
34.781
34.717
34.654
34.589
34.525
34.46
34.395
34.33
34.264
34.198
34.132
34.066
34.001
33.938
33.875
33.815
33.756
33.698
33.641
33.585
33.53
33.476
33.422
33.37
33.32
33.272
33.226
33.182
33.14
33.102
33.065
33.03
32.995
32.96
32.926
32.89
32.855
32.819
32.784
32.749
32.714
32.678
32.644
32.609
32.575
32.54
32.506
32.472
32.439
32.407
32.377
32.349
32.322
32.295
32.268
32.24
32.211
32.181
32.15
32.118
32.085
32.053
32.022
31.993
31.966
31.942
31.92
31.9
31.883
31.866
31.851
31.837
31.823
31.808
31.793
31.778
31.763
31.748
31.733
31.719
31.705
31.691
31.677
31.663
31.648
31.632
31.615
31.596
31.575
31.552
31.528
31.502
31.474
31.446
31.417
31.387
31.358
31.33
31.305
31.281
31.259
31.238
31.22
31.202
31.187
31.173
31.161
31.149
31.136
31.123
31.107
31.09
31.071
31.051
31.03
31.011
30.995
30.984
30.981
30.99
31.016
31.062
31.133
31.233
31.366
31.534
31.738
31.98
32.26
32.574
32.921
33.297
33.697
34.117
34.549
34.991
35.437
35.882
36.322
36.753
37.171
37.573
37.956
38.317
38.655
38.967
39.254
39.516
39.751
39.96
40.144
40.303
40.439
40.553
40.647
40.721
40.777
40.815
40.837
40.846
40.842
40.827
40.804
40.774
40.739
40.7
40.657
40.61
40.559
40.504
40.447
40.387
40.326
40.265
40.205
40.145
40.087
40.031
39.976
39.922
39.868
39.813
39.757
39.699
39.638
39.573
39.504
39.43
39.351
39.266
39.175
39.078
38.973
38.862
38.746
38.627
38.506
38.386
38.269
38.156
38.05
37.95
37.857
37.771
37.693
37.623
37.559
37.5
37.446
37.394
37.344
37.297
37.251
37.208
37.168
37.132
37.099
37.069
37.042
37.017
36.992
36.967
36.941
36.913
36.881
36.845
36.805
36.759
36.709
36.654
36.595
36.533
36.468
36.402
36.335
36.267
36.2
36.133
36.067
36.002
35.938
35.874
35.81
35.745
35.681
35.615
35.55
35.484
35.419
35.355
35.29
35.224
35.158
35.09
35.02
34.949
34.876
34.803
34.728
34.652
34.576
34.5
34.425
34.351
34.28
34.21
34.143
34.076
34.011
33.946
33.881
33.815
33.749
33.682
33.615
33.549
33.484
33.422
33.362
33.305
33.252
33.202
33.155
33.11
33.067
33.027
32.988
32.949
32.912
32.874
32.837
32.799
32.759
32.719
32.677
32.635
32.591
32.547
32.502
32.457
32.414
32.372
32.333
32.297
32.263
32.232
32.205
32.181
32.16
32.142
32.125
32.109
32.094
32.077
32.059
32.039
32.018
31.995
31.97
31.943
31.915
31.887
31.858
31.829
31.801
31.774
31.749
31.725
31.702
31.682
31.664
31.647
31.632
31.618
31.605
31.593
31.582
31.57
31.559
31.546
31.531
31.515
31.497
31.476
31.453
31.428
31.401
31.371
31.339
31.306
31.271
31.236
31.2
31.166
31.133
31.102
31.074
31.05
31.028
31.01
30.995
30.984
30.977
30.975
30.981
30.995
31.021
31.061
31.117
31.193
31.291
31.414
31.566
31.748
31.962
32.208
32.486
32.796
33.134
33.498
33.884
34.289
34.709
35.137
35.568
35.998
36.42
36.829
37.222
37.594
37.944
38.27
38.569
38.843
39.089
39.308
39.499
39.662
39.797
39.904
39.987
40.045
40.083
40.101
40.103
40.091
40.07
40.039
40.001
39.956
39.905
39.848
39.787
39.72
39.65
39.577
39.503
39.427
39.352
39.278
39.205
39.133
39.063
38.994
38.927
38.86
38.794
38.729
38.664
38.598
38.531
38.46
38.386
38.308
38.225
38.137
38.044
37.948
37.849
37.748
37.648
37.549
37.452
37.356
37.263
37.17
37.08
36.991
36.904
36.819
36.737
36.66
36.587
36.52
36.459
36.406
36.361
36.323
36.292
36.268
36.247
36.231
36.216
36.203
36.19
36.177
36.162
36.145
36.127
36.106
36.083
36.058
36.032
36.005
35.976
35.945
35.913
35.879
35.844
35.806
35.765
35.721
35.674
35.624
35.571
35.514
35.455
35.394
35.331
35.266
35.199
35.132
35.064
34.997
34.93
34.863
34.797
34.731
34.666
34.603
34.543
34.485
34.428
34.37
34.311
34.25
34.187
34.122
34.055
33.987
33.918
33.849
33.779
33.71
33.641
33.575
33.509
33.445
33.382
33.321
33.262
33.206
33.151
33.099
33.05
33.002
32.955
32.909
32.864
32.818
32.772
32.726
32.682
32.637
32.591
32.538
32.476
32.406
32.331
32.255
32.182
32.115
32.056
32.009
31.971
31.945
31.928
31.92
31.919
31.923
31.932
31.942
31.952
31.961
31.968
31.972
31.971
31.966
31.957
31.944
31.926
31.904
31.879
31.851
31.821
31.789
31.755
31.72
31.686
31.652
31.619
31.589
31.561
31.536
31.514
31.495
31.48
31.468
31.459
31.452
31.448
31.446
31.449
31.457
31.474
31.501
31.543
31.6
31.677
31.777
31.902
32.055
32.239
32.454
32.701
32.98
33.289
33.625
33.986
34.369
34.768
35.179
35.597
36.017
36.434
36.843
37.238
37.618
37.977
38.315
38.63
38.92
39.184
39.42
39.629
39.81
39.964
40.092
40.196
40.279
40.343
40.389
40.419
40.434
40.434
40.422
40.396
40.358
40.31
40.252
40.187
40.117
40.042
39.966
39.889
39.813
39.737
39.664
39.591
39.521
39.453
39.386
39.321
39.257
39.193
39.128
39.061
38.992
38.921
38.846
38.767
38.685
38.598
38.508
38.415
38.319
38.222
38.124
38.026
37.928
37.831
37.734
37.638
37.543
37.449
37.355
37.263
37.172
37.083
36.999
36.919
36.845
36.777
36.716
36.662
36.616
36.576
36.543
36.515
36.491
36.469
36.447
36.425
36.401
36.377
36.352
36.326
36.299
36.271
36.242
36.212
36.181
36.149
36.116
36.082
36.048
36.012
35.974
35.934
35.891
35.845
35.796
35.743
35.687
35.627
35.563
35.495
35.425
35.354
35.281
35.208
35.133
35.058
34.982
34.907
34.832
34.76
34.69
34.622
34.556
34.492
34.429
34.368
34.306
34.245
34.184
34.121
34.056
33.99
33.924
33.856
33.787
33.718
33.65
33.581
33.513
33.445
33.378
33.313
33.249
33.187
33.129
33.073
33.02
32.969
32.92
32.873
32.827
32.782
32.739
32.697
32.656
32.615
32.576
32.537
32.498
32.458
32.42
32.381
32.344
32.307
32.273
32.239
32.206
32.175
32.144
32.115
32.086
32.06
32.035
32.013
31.992
31.973
31.956
31.941
31.928
31.916
31.905
31.895
31.885
31.874
31.863
31.85
31.834
31.816
31.795
31.77
31.742
31.712
31.681
31.649
31.618
31.589
31.561
31.536
31.514
31.495
31.48
31.467
31.457
31.449
31.445
31.447
31.456
31.474
31.507
31.556
31.626
31.721
31.846
32.003
32.194
32.422
32.686
32.987
33.322
33.69
34.086
34.507
34.946
35.399
35.86
36.324
36.786
37.241
37.683
38.109
38.513
38.893
39.245
39.568
39.861
40.124
40.357
40.561
40.738
40.889
41.016
41.12
41.202
41.264
41.307
41.332
41.342
41.336
41.317
41.285
41.242
41.191
41.131
41.064
40.992
40.916
40.838
40.757
40.677
40.597
40.517
40.44
40.363
40.289
40.215
40.142
40.069
39.996
39.921
39.845
39.768
39.688
39.607
39.523
39.437
39.348
39.257
39.161
39.061
38.956
38.847
38.733
38.616
38.498
38.38
38.263
38.15
38.041
37.937
37.838
37.744
37.657
37.576
37.502
37.437
37.379
37.328
37.284
37.247
37.215
37.188
37.165
37.144
37.125
37.105
37.084
37.061
37.035
37.007
36.977
36.947
36.916
36.884
36.853
36.82
36.785
36.749
36.711
36.669
36.624
36.573
36.516
36.454
36.385
36.311
36.232
36.151
36.069
35.986
35.905
35.826
35.75
35.677
35.605
35.534
35.463
35.39
35.316
35.241
35.164
35.086
35.007
34.927
34.848
34.769
34.691
34.616
34.542
34.47
34.401
34.333
34.268
34.206
34.146
34.088
34.032
33.976
33.921
33.865
33.808
33.75
33.69
33.629
33.566
33.503
33.439
33.377
33.316
33.256
33.199
33.143
33.09
33.039
32.989
32.94
32.891
32.841
32.789
32.737
32.685
32.633
32.583
32.536
32.491
32.448
32.408
32.371
32.335
32.302
32.27
32.24
32.213
32.187
32.162
32.139
32.117
32.094
32.072
32.049
32.026
32.002
31.977
31.952
31.926
31.899
31.872
31.845
31.818
31.792
31.766
31.742
31.72
31.7
31.683
31.668
31.655
31.643
31.632
31.62
31.608
31.594
31.578
31.56
31.539
31.514
31.488
31.458
31.428
31.396
31.366
31.339
31.319
31.309
31.313
31.334
31.376
31.443
31.538
31.664
31.822
32.015
32.243
32.505
32.801
33.13
33.488
33.873
34.284
34.718
35.169
35.634
36.109
36.587
37.065
37.536
37.997
38.443
38.869
39.273
39.651
40.002
40.322
40.611
40.868
41.093
41.285
41.446
41.577
41.679
41.755
41.809
41.841
41.856
41.857
