Trial 1:0back
40.286
40.4
40.462
40.477
40.45
40.387
40.295
40.18
40.048
39.903
39.751
39.595
39.439
39.286
39.138
38.995
38.858
38.728
38.605
38.49
38.381
38.279
38.181
38.087
37.997
37.909
37.823
37.737
37.652
37.568
37.484
37.401
37.318
37.234
37.148
37.061
36.971
36.879
36.783
36.685
36.584
36.48
36.372
36.263
36.153
36.042
35.931
35.821
35.712
35.606
35.505
35.41
35.322
35.242
35.17
35.106
35.049
35.001
34.962
34.931
34.908
34.892
34.882
34.877
34.879
34.887
34.9
34.917
34.937
34.958
34.98
35.003
35.025
35.047
35.065
35.079
35.089
35.093
35.092
35.084
35.069
35.046
35.013
34.97
34.918
34.858
34.793
34.722
34.645
34.564
34.477
34.387
34.295
34.202
34.11
34.019
33.93
33.844
33.761
33.679
33.598
33.516
33.436
33.359
33.288
33.225
33.172
33.129
33.098
33.078
33.067
33.062
33.062
33.063
33.064
33.062
33.056
33.044
33.026
33.001
32.973
32.941
32.909
32.878
32.847
32.819
32.795
32.774
32.759
32.747
32.739
32.734
32.732
32.733
32.737
32.744
32.753
32.763
32.772
32.78
32.786
32.791
32.794
32.796
32.795
32.793
32.789
32.784
32.779
32.774
32.77
32.767
32.764
32.763
32.762
32.762
32.763
32.766
32.769
32.773
32.778
32.782
32.786
32.789
32.79
32.789
32.787
32.781
32.771
32.757
32.739
32.719
32.698
32.68
32.663
32.651
32.643
32.644
32.655
32.68
32.722
32.785
32.874
32.995
33.153
33.354
33.604
33.904
34.258
34.663
35.116
35.61
36.134
36.677
37.225
37.765
38.286
38.774
39.22
39.616
39.953
40.231
40.446
40.601
40.697
40.74
40.736
40.691
40.613
40.507
40.38
40.238
40.088
39.933
39.777
39.623
39.474
39.329
39.192
39.062
38.939
38.823
38.712
38.606
38.502
38.402
38.305
38.209
38.116
38.023
37.932
37.841
37.75
37.659
37.566
37.472
37.375
37.277
37.176
37.074
36.97
36.865
36.757
36.647
36.534
36.419
36.303
36.185
36.069
35.953
35.839
35.726
35.617
35.514
35.418
35.329
35.25
35.178
35.116
35.063
35.02
34.986
34.961
34.944
34.933
34.927
34.928
34.934
34.946
34.965
34.989
35.02
35.054
35.091
35.128
35.163
35.195
35.22
35.238
35.247
35.246
35.235
35.213
35.179
35.136
35.084
35.024
34.958
34.888
34.813
34.735
34.655
34.574
34.493
34.411
34.33
34.25
34.172
34.098
34.027
33.96
33.897
33.839
33.785
33.734
33.686
33.64
33.595
33.551
33.508
33.465
33.423
33.38
33.337
33.292
33.248
33.205
33.164
33.123
33.085
33.05
33.017
32.988
32.963
32.944
32.929
32.917
32.909
32.905
32.903
32.904
32.906
32.908
32.909
32.909
32.908
32.904
32.9
32.895
32.889
32.881
32.872
32.86
32.847
32.834
32.821
32.809
32.797
32.787
32.777
32.769
32.762
32.758
32.756
32.757
32.76
32.765
32.771
32.777
32.784
32.789
32.792
32.793
32.792
32.788
32.781
32.774
32.766
32.756
32.745
32.732
32.719
32.707
32.698
32.692
32.689
32.688
32.689
32.693
32.701
32.712
32.726
32.743
32.764
32.788
32.815
32.849
32.891
32.944
33.013
33.1
33.212
33.356
33.536
33.76
34.03
34.349
34.717
35.129
35.58
36.064
36.571
37.09
37.608
38.114
38.596
39.043
39.449
39.806
40.108
40.353
40.542
40.674
40.753
40.782
40.763
40.702
40.605
40.476
40.321
40.146
39.956
39.757
39.553
39.347
39.143
38.943
38.748
38.56
38.382
38.214
38.056
37.909
37.773
37.646
37.53
37.426
37.332
37.247
37.168
37.095
37.029
36.967
36.906
36.845
36.784
36.721
36.654
36.582
36.504
36.417
36.323
36.22
36.111
35.996
35.876
35.754
35.631
35.507
35.385
35.268
35.158
35.056
34.965
34.886
34.818
34.764
34.723
34.698
34.687
34.689
34.701
34.722
34.75
34.784
34.822
34.862
34.901
34.939
34.975
35.007
35.035
35.059
35.078
35.091
35.098
35.096
35.086
35.067
35.041
35.008
34.97
34.924
34.873
34.818
34.759
34.7
34.639
34.578
34.517
34.456
34.395
34.334
34.272
34.21
34.147
34.082
34.017
33.951
33.885
33.821
33.759
33.7
33.644
33.589
33.536
33.486
33.438
33.394
33.353
33.316
33.282
33.251
33.224
33.2
33.18
33.163
33.149
33.138
33.13
33.124
33.12
33.118
33.116
33.113
33.108
33.099
33.087
33.072
33.055
33.038
33.02
33.002
32.985
32.97
32.958
32.948
32.942
32.939
32.939
32.942
32.947
32.954
32.961
32.969
32.975
32.979
32.979
32.976
32.969
32.961
32.952
32.941
32.927
32.908
32.886
32.861
32.834
32.808
32.784
32.763
32.747
32.735
32.728
32.729
32.74
32.764
32.803
32.861
32.942
33.051
33.192
33.369
33.586
33.845
34.145
34.487
34.869
35.288
35.735
36.203
36.681
37.16
37.629
38.079
38.499
38.881
39.216
39.501
39.732
39.91
40.034
40.107
40.133
40.116
40.061
39.972
39.856
39.716
39.557
39.384
39.2
39.011
38.818
38.625
38.432
38.243
38.059
37.882
37.713
37.552
37.4
37.256
37.122
36.997
36.88
36.77
36.665
36.562
36.459
36.354
36.249
36.142
36.036
35.932
35.832
35.738
35.649
35.565
35.486
35.41
35.337
35.264
35.191
35.116
35.04
34.963
34.886
34.811
34.739
34.672
34.61
34.555
34.509
34.471
34.443
34.425
34.418
34.422
34.437
34.462
34.495
34.536
34.582
34.634
34.688
34.741
34.791
34.838
34.878
34.913
34.94
34.96
34.972
34.975
34.969
34.955
34.932
34.901
34.861
34.814
34.76
34.701
34.638
34.572
34.506
34.442
34.378
34.315
34.252
34.192
34.135
34.082
34.03
33.981
33.933
33.885
33.836
33.787
33.737
33.687
33.636
33.587
33.539
33.492
33.447
33.404
33.364
33.326
33.291
33.257
33.226
33.198
33.174
33.154
33.138
33.124
33.112
33.101
33.093
33.086
33.082
33.081
33.082
33.085
33.088
33.09
33.091
33.092
33.092
33.091
33.088
33.082
33.073
33.063
33.05
33.036
33.022
33.009
32.998
32.988
32.98
32.974
32.969
32.967
32.967
32.968
32.972
32.975
32.978
32.981
32.984
32.986
32.987
32.986
32.984
32.981
32.98
32.981
32.99
33.009
33.041
33.089
33.157
33.249
33.371
33.528
33.725
33.964
34.248
34.577
34.95
35.365
35.815
36.293
36.791
37.297
37.802
38.294
38.76
39.191
39.58
39.919
40.204
40.433
40.604
40.719
40.78
40.793
40.761
40.691
40.589
40.46
40.311
40.145
39.967
39.78
39.589
39.396
39.204
39.016
38.833
38.655
38.484
38.321
38.168
38.025
37.889
37.756
37.622
37.488
37.355
37.225
37.1
36.984
36.876
36.779
36.691
36.614
36.544
36.479
36.418
36.355
36.29
36.221
36.147
36.068
35.983
35.893
35.798
35.701
35.603
35.507
35.415
35.326
35.243
35.167
35.098
35.037
34.986
34.943
34.909
34.884
34.867
34.859
34.859
34.865
34.877
34.893
34.912
34.933
34.954
34.977
34.998
35.018
35.035
35.048
35.058
35.063
35.066
35.065
35.06
35.051
35.037
35.017
34.994
34.966
34.934
34.897
34.855
34.807
34.753
34.695
34.631
34.564
34.494
34.421
34.347
34.272
34.199
34.129
34.061
33.997
33.936
33.88
33.828
33.78
33.736
33.695
33.655
33.618
33.583
33.55
33.518
33.488
33.46
33.432
33.405
33.378
33.353
33.328
33.305
33.283
33.263
33.243
33.224
33.205
33.187
33.171
33.157
33.145
33.133
33.122
33.114
33.107
33.105
33.106
33.111
33.12
33.131
33.144
33.158
33.172
33.185
33.195
33.202
33.205
33.203
33.198
33.189
33.179
33.168
33.157
33.146
33.134
33.123
33.113
33.104
33.095
33.086
33.075
33.064
33.054
33.045
33.037
33.031
33.028
33.027
33.03
33.039
33.057
33.085
33.128
33.188
33.269
33.374
33.508
33.674
33.878
34.123
34.411
34.743
35.119
35.535
35.985
36.463
36.959
37.464
37.965
38.452
38.913
39.34
39.722
40.054
40.332
40.553
40.716
40.823
40.875
40.877
40.835
40.753
40.637
40.495
40.33
40.15
39.96
39.765
39.568
39.375
39.188
39.009
38.839
38.681
38.534
38.395
38.266
38.145
38.035
37.934
37.844
37.764
37.691
37.624
37.558
37.494
37.429
37.364
37.296
37.225
37.151
37.073
36.991
36.904
36.811
36.713
36.608
36.498
36.383
36.267
36.15
36.033
35.917
35.804
35.695
35.592
35.496
35.409
35.33
35.26
35.2
35.15
35.11
35.081
35.061
35.051
35.049
35.055
35.068
35.085
35.104
35.124
35.145
35.164
35.183
35.199
35.213
35.223
35.228
35.23
35.227
35.219
35.208
35.193
35.172
35.146
35.113
35.076
35.035
34.99
34.942
34.89
34.835
34.778
34.719
34.657
34.593
34.525
34.453
34.379
34.304
34.227
34.151
34.076
34.002
33.932
33.866
33.805
33.749
33.699
33.656
33.618
33.585
33.555
33.528
33.505
33.485
33.468
33.453
33.439
33.427
33.416
33.407
33.398
33.39
33.381
33.371
33.362
33.351
33.339
33.326
33.313
33.298
33.281
33.263
33.244
33.227
33.211
33.197
33.187
33.179
33.175
33.176
33.181
33.191
33.204
33.219
33.234
33.248
33.261
33.272
33.28
33.286
33.29
33.291
33.286
33.277
33.265
33.249
33.232
33.213
33.193
33.172
33.15
33.127
33.105
33.084
33.065
33.046
33.029
33.012
32.996
32.982
32.97
32.961
32.956
32.956
32.96
32.97
32.988
33.015
33.054
33.108
33.181
33.276
33.398
33.549
33.735
33.957
34.22
34.524
34.87
35.256
35.678
36.128
36.598
37.08
37.564
38.038
38.495
38.923
39.314
39.661
39.959
40.205
40.398
40.537
40.624
40.66
40.65
40.599
40.513
40.397
40.255
40.092
39.913
39.724
39.528
39.33
39.132
38.937
38.748
38.569
38.4
38.244
38.099
37.967
37.846
37.738
37.641
37.555
37.478
37.408
37.343
37.282
37.224
37.167
37.108
37.046
36.98
36.909
36.833
36.75
36.661
36.564
36.462
36.356
36.246
36.133
36.017
35.9
35.784
35.671
35.563
35.463
35.371
35.289
35.218
35.157
35.105
35.063
35.031
35.011
35.001
35.0
35.008
35.022
35.041
35.065
35.092
35.12
35.147
35.172
35.195
35.215
35.233
35.248
35.258
35.264
35.264
35.26
35.249
35.234
35.212
35.185
35.152
35.115
35.074
35.029
34.981
34.93
34.877
34.823
34.768
34.712
34.656
34.599
34.541
34.481
34.418
34.354
34.289
34.225
34.162
34.101
34.041
33.984
33.93
33.879
33.833
33.79
33.752
33.718
33.687
33.66
33.635
33.612
33.591
33.573
33.555
33.539
33.522
33.506
33.491
33.478
33.465
33.452
33.438
33.423
33.408
33.393
33.379
33.365
33.354
33.344
33.336
33.33
33.326
33.324
33.325
33.326
33.328
33.33
33.331
33.332
33.332
33.333
33.332
33.331
33.328
33.325
33.32
33.313
33.303
33.291
33.278
33.263
33.248
33.233
33.218
33.204
33.191
33.177
33.162
33.147
33.132
33.117
33.104
33.093
33.085
33.083
33.088
33.103
33.13
33.172
33.233
33.316
33.425
33.563
33.735
33.942
34.187
34.471
34.793
35.151
35.541
35.957
36.392
36.837
37.283
37.721
38.139
38.53
38.885
39.197
39.463
39.68
39.849
39.969
40.044
40.074
40.064
40.019
39.941
39.837
39.709
39.562
39.4
39.227
39.048
38.863
38.677
38.492
38.311
38.135
37.966
37.805
37.653
37.51
37.377
37.253
37.139
37.032
36.933
36.84
36.752
36.667
36.585
36.506
36.427
36.347
36.264
36.178
36.088
35.993
35.896
35.796
35.693
35.588
35.481
35.374
35.268
35.166
35.068
34.977
34.892
34.815
34.748
34.691
34.645
34.61
34.586
34.575
34.575
34.586
34.608
34.64
34.679
34.723
34.771
34.822
34.873
34.922
34.966
35.003
35.032
35.052
35.062
35.064
35.058
35.043
35.022
34.995
34.963
34.926
34.886
34.845
34.803
34.761
34.718
34.674
34.632
34.589
34.547
34.505
34.462
34.416
34.368
34.318
34.266
34.212
34.158
34.103
34.047
33.989
33.93
33.871
33.813
33.758
33.705
33.654
33.606
33.563
33.524
33.492
33.466
33.446
33.431
33.42
33.413
33.409
33.407
33.405
33.403
33.4
33.394
33.386
33.376
33.363
33.349
33.334
33.319
33.303
33.287
33.271
33.255
33.241
33.228
33.217
33.208
33.201
33.196
33.194
33.195
33.198
33.204
33.21
33.217
33.223
33.228
33.232
33.233
33.231
33.226
33.219
33.21
33.199
33.186
33.171
33.153
33.134
33.114
33.095
33.077
33.064
33.059
33.063
33.079
33.111
33.161
33.235
33.335
33.466
33.63
33.83
34.069
34.348
34.666
35.023
35.413
35.832
36.272
36.725
37.184
37.639
38.08
38.498
38.884
39.233
39.537
39.793
39.997
40.149
40.249
40.301
40.308
40.275
40.208
40.112
39.993
39.855
39.705
39.544
39.379
39.21
39.04
38.874
38.712
38.557
38.408
38.266
38.132
38.007
37.89
37.781
37.679
37.583
37.493
37.407
37.325
37.246
37.169
37.093
37.016
36.938
36.857
36.775
36.691
36.604
36.512
36.417
36.319
36.22
36.119
36.018
35.918
35.819
35.721
35.626
35.534
35.444
35.358
35.277
35.201
35.132
35.071
35.018
34.975
34.941
34.916
34.899
34.891
34.891
34.897
34.909
34.926
34.945
34.966
34.988
35.012
35.036
35.06
35.083
35.102
35.117
35.126
35.129
35.125
35.113
35.092
35.061
35.022
34.976
34.925
34.869
34.811
34.752
34.691
34.627
34.561
34.495
34.427
34.36
34.292
34.223
34.154
34.087
34.023
33.962
33.905
33.852
33.805
33.761
33.722
33.686
33.653
33.623
33.596
33.571
33.547
33.524
33.501
33.479
33.458
33.439
33.42
33.401
33.383
33.365
33.348
33.334
33.322
33.311
33.303
33.298
33.294
33.294
33.295
33.297
33.301
33.306
33.312
33.317
33.322
33.328
33.334
33.339
33.343
33.345
33.345
33.344
33.34
33.333
33.324
33.314
33.304
33.294
33.286
33.278
33.271
33.265
33.26
33.256
33.252
33.25
33.249
33.248
33.246
33.241
33.234
33.224
33.213
33.202
33.191
33.182
33.176
33.176
33.185
33.206
33.244
33.301
33.382
33.488
33.623
33.789
33.989
34.225
34.498
34.809
35.156
35.537
35.949
36.385
36.838
37.299
37.759
38.208
38.638
39.039
39.404
39.727
40.004
40.229
40.403
40.525
40.598
40.623
40.606
40.55
40.461
40.344
40.203
40.044
39.872
39.692
39.51
39.329
39.153
38.984
38.822
38.671
38.532
38.404
38.288
38.182
38.087
38.001
37.924
37.854
37.79
37.729
37.671
37.614
37.557
37.499
37.436
37.366
37.29
37.206
37.116
37.02
36.918
36.812
36.701
36.589
36.475
36.362
36.25
36.14
36.034
35.932
35.837
35.748
35.667
35.593
35.528
35.47
35.42
35.379
35.346
35.323
35.307
35.297
35.29
35.286
35.284
35.284
35.287
35.291
35.296
35.301
35.306
35.312
35.317
35.32
35.321
35.319
35.314
35.307
35.295
35.279
35.259
35.235
35.207
35.174
35.136
35.092
35.042
34.988
34.928
34.864
34.795
34.722
34.648
34.572
34.498
34.425
34.355
34.289
34.226
34.168
34.113
34.062
34.014
33.968
33.927
33.89
33.856
33.826
33.799
33.775
33.753
33.733
33.715
33.699
33.684
33.672
33.66
33.647
33.634
33.619
33.606
33.592
33.579
33.566
33.553
33.539
33.525
33.512
33.498
33.484
33.469
33.453
33.437
33.422
33.409
33.4
33.397
33.398
33.402
33.409
33.417
33.426
33.436
33.444
33.449
33.448
33.442
33.432
33.417
33.401
33.383
33.366
33.35
33.336
33.323
33.311
33.301
33.292
33.284
33.275
33.267
33.259
33.253
33.25
33.253
33.263
33.281
33.305
33.332
33.361
33.388
33.414
33.441
33.471
33.508
33.554
33.616
33.699
33.81
33.952
34.13
34.346
34.601
34.896
35.23
35.598
35.996
36.416
36.851
37.291
37.728
38.151
38.552
38.924
39.258
39.55
39.795
39.991
40.138
40.237
40.289
40.298
40.267
40.2
40.103
39.98
39.838
39.68
39.512
39.338
39.163
38.99
38.825
38.668
38.521
38.383
38.255
38.139
38.034
37.941
37.857
37.781
37.711
37.648
37.588
37.532
37.477
37.423
37.369
37.314
37.255
37.192
37.123
37.047
36.964
36.875
36.78
36.679
36.573
36.462
36.347
36.23
36.113
35.997
35.885
35.778
35.678
35.586
35.502
35.429
35.367
35.317
35.278
35.25
35.23
35.217
35.209
35.207
35.208
35.213
35.219
35.224
35.23
35.235
35.239
35.243
35.244
35.241
35.233
35.22
35.204
35.187
35.169
35.152
35.135
35.118
35.102
35.086
35.07
35.055
35.039
35.02
34.998
34.971
34.938
34.901
34.858
34.808
34.751
34.687
34.618
34.545
34.47
34.394
34.319
34.245
34.174
34.105
34.042
33.984
33.932
33.887
33.847
33.812
33.781
33.755
33.732
33.714
33.698
33.683
33.668
33.653
33.639
33.624
33.608
33.589
33.57
33.549
33.528
33.506
33.485
33.465
33.446
33.429
33.415
33.404
33.396
33.391
33.391
33.393
33.398
33.406
33.417
33.432
33.448
33.465
33.481
33.494
33.506
33.514
33.517
33.517
33.511
33.499
33.483
33.463
33.439
33.414
33.39
33.366
33.345
33.326
33.308
33.293
33.28
33.269
33.26
33.252
33.245
33.238
33.23
33.22
33.21
33.199
33.188
33.178
33.169
33.164
33.164
33.174
33.196
33.234
33.29
33.369
33.473
33.606
33.772
33.972
34.208
34.479
34.786
35.124
35.49
35.88
36.284
36.696
37.109
37.513
37.903
38.269
38.604
38.903
39.163
39.379
39.551
39.678
39.76
39.799
39.797
39.759
39.69
39.594
39.475
39.34
39.193
39.038
38.88
38.722
38.566
38.413
38.265
38.125
37.995
37.874
37.759
37.652
37.552
37.459
37.373
37.295
37.223
37.156
37.092
37.031
36.97
36.906
36.837
36.762
36.681
36.593
36.499
36.401
36.298
36.192
36.085
35.979
35.874
35.772
35.675
35.583
35.497
35.416
35.342
35.275
35.216
35.165
35.122
35.088
35.061
35.042
35.03
35.024
35.023
35.028
35.035
35.045
35.056
35.067
35.079
35.092
35.104
35.115
35.124
35.132
35.138
35.144
35.148
35.15
35.149
35.144
35.137
35.127
35.114
35.098
35.077
35.051
35.021
34.985
34.943
34.897
34.846
34.789
34.728
34.662
34.592
34.519
34.445
34.37
34.295
34.22
34.148
34.078
34.013
33.954
33.9
33.851
33.807
33.767
33.731
33.698
33.67
33.646
33.627
33.612
33.601
33.592
33.587
33.583
33.58
33.578
33.575
33.571
33.566
33.561
33.554
33.546
33.537
33.526
33.516
33.506
33.499
33.493
33.489
33.485
33.481
33.477
33.474
33.473
33.472
33.473
33.473
33.474
33.475
33.474
33.472
33.469
33.463
33.455
33.442
33.426
33.407
33.385
33.361
33.334
33.306
33.278
33.252
33.229
33.209
33.195
33.184
33.18
33.181
33.191
33.211
33.242
33.289
33.352
33.434
33.536
33.663
33.815
33.997
34.209
34.452
34.727
35.033
35.368
35.729
36.109
36.504
36.907
37.31
37.707
38.089
38.45
38.783
39.081
39.341
39.557
39.729
39.856
39.938
39.978
39.979
39.945
39.88
39.789
39.677
39.548
39.406
39.254
39.096
38.935
38.775
38.617
38.465
38.319
38.18
38.05
37.929
37.817
37.713
37.619
37.533
37.457
37.388
37.326
37.269
37.217
37.167
37.118
37.067
37.015
36.958
36.897
36.831
36.758
36.677
36.588
36.491
36.387
36.278
36.165
36.05
35.934
35.818
35.705
35.596
35.494
35.401
35.317
35.243
35.181
35.131
35.093
35.067
35.05
35.043
35.042
35.048
35.06
35.077
35.097
35.119
35.141
35.162
35.181
35.198
35.21
35.218
35.22
35.216
35.208
35.201
35.195
35.189
35.181
35.166
35.142
35.108
35.064
35.011
34.953
34.89
34.823
34.755
34.69
34.629
34.571
34.516
34.463
34.411
34.358
34.303
34.246
34.188
34.127
34.065
34.001
33.937
33.872
33.81
33.749
33.691
33.635
33.583
33.534
33.49
33.451
33.419
33.394
33.376
33.364
33.358
33.357
33.36
33.366
33.376
33.386
33.397
33.405
33.411
33.415
33.415
33.413
33.408
33.4
33.389
33.375
33.359
33.342
33.326
33.313
33.301
33.291
33.284
33.278
33.274
33.271
33.27
33.271
33.271
33.27
33.268
33.266
33.264
33.261
33.258
33.253
33.246
33.237
33.225
33.21
33.192
33.172
33.149
33.123
33.097
33.072
33.05
33.035
33.027
33.029
33.042
33.068
33.11
33.171
33.252
33.356
33.486
33.643
33.831
34.051
34.305
34.591
34.909
35.258
35.633
36.03
36.444
36.866
37.288
37.703
38.1
38.474
38.816
39.122
39.386
39.607
39.783
39.916
40.005
40.053
40.063
40.038
39.983
39.902
39.801
39.684
39.555
39.419
39.28
39.139
38.999
38.86
38.725
38.593
38.466
38.343
38.225
38.113
38.006
37.907
37.813
37.724
37.641
37.563
37.491
37.424
37.362
37.305
37.249
37.194
37.136
37.075
37.01
36.94
36.865
36.784
36.698
36.607
36.512
36.413
36.31
36.206
36.1
35.993
35.888
