Trial 1:0back
37.96
38.469
38.958
39.423
39.857
40.257
40.621
40.944
41.226
41.467
41.665
41.823
41.943
42.025
42.074
42.091
42.08
42.043
41.983
41.904
41.808
41.698
41.576
41.445
41.306
41.161
41.01
40.856
40.699
40.54
40.381
40.222
40.065
39.908
39.753
39.6
39.448
39.298
39.149
39.0
38.852
38.705
38.557
38.41
38.264
38.118
37.973
37.829
37.688
37.55
37.416
37.289
37.167
37.053
36.947
36.85
36.763
36.686
36.62
36.563
36.517
36.481
36.453
36.434
36.423
36.42
36.423
36.432
36.445
36.462
36.481
36.502
36.524
36.546
36.566
36.584
36.599
36.609
36.613
36.612
36.604
36.589
36.567
36.537
36.5
36.455
36.405
36.347
36.284
36.216
36.143
36.066
35.985
35.901
35.815
35.727
35.637
35.547
35.456
35.365
35.273
35.183
35.092
35.003
34.915
34.828
34.742
34.657
34.574
34.491
34.41
34.328
34.248
34.168
34.089
34.011
33.935
33.859
33.784
33.711
33.64
33.57
33.502
33.436
33.372
33.311
33.252
33.196
33.142
33.091
33.042
32.994
32.947
32.9
32.855
32.81
32.767
32.724
32.682
32.641
32.602
32.565
32.53
32.497
32.465
32.436
32.408
32.381
32.356
32.332
32.308
32.286
32.265
32.246
32.228
32.212
32.197
32.183
32.168
32.154
32.139
32.124
32.107
32.088
32.067
32.043
32.017
31.99
31.96
31.929
31.898
31.865
31.834
31.805
31.781
31.762
31.753
31.756
31.775
31.813
31.875
31.964
32.085
32.241
32.435
32.668
32.943
33.258
33.614
34.008
34.436
34.893
35.375
35.876
36.388
36.904
37.418
37.924
38.414
38.883
39.325
39.737
40.115
40.455
40.756
41.017
41.238
41.419
41.561
41.666
41.734
41.77
41.775
41.752
41.703
41.631
41.539
41.43
41.306
41.17
41.024
40.87
40.71
40.547
40.38
40.213
40.046
39.879
39.713
39.549
39.386
39.225
39.066
38.907
38.75
38.593
38.436
38.28
38.124
37.968
37.812
37.657
37.502
37.35
37.201
37.056
36.916
36.783
36.657
36.54
36.433
36.336
36.251
36.176
36.113
36.062
36.022
35.995
35.979
35.975
35.981
35.996
36.02
36.051
36.087
36.127
36.17
36.213
36.256
36.297
36.334
36.366
36.392
36.411
36.422
36.425
36.42
36.407
36.386
36.357
36.321
36.278
36.228
36.172
36.11
36.044
35.972
35.896
35.817
35.733
35.647
35.558
35.466
35.373
35.278
35.183
35.087
34.991
34.894
34.797
34.701
34.605
34.51
34.415
34.321
34.229
34.137
34.047
33.958
33.871
33.786
33.703
33.623
33.546
33.472
33.401
33.333
33.269
33.207
33.148
33.092
33.038
32.986
32.936
32.888
32.843
32.8
32.76
32.722
32.687
32.653
32.621
32.59
32.56
32.53
32.501
32.471
32.441
32.411
32.38
32.349
32.317
32.284
32.25
32.216
32.181
32.145
32.108
32.069
32.029
31.988
31.947
31.905
31.863
31.821
31.779
31.739
31.699
31.662
31.626
31.594
31.565
31.539
31.518
31.502
31.492
31.49
31.497
31.516
31.552
31.606
31.685
31.791
31.927
32.098
32.305
32.552
32.838
33.163
33.528
33.929
34.364
34.827
35.314
35.82
36.337
36.86
37.381
37.895
38.396
38.876
39.333
39.76
40.155
40.513
40.831
41.109
41.346
41.541
41.696
41.812
41.891
41.935
41.948
41.932
41.889
41.821
41.731
41.622
41.495
41.354
41.201
41.038
40.868
40.692
40.512
40.33
40.147
39.964
39.782
39.602
39.423
39.247
39.073
38.901
38.731
38.563
38.398
38.235
38.074
37.915
37.758
37.602
37.449
37.299
37.152
37.009
36.872
36.74
36.614
36.496
36.387
36.286
36.194
36.113
36.042
35.982
35.933
35.895
35.867
35.849
35.84
35.839
35.846
35.859
35.879
35.903
35.931
35.962
35.994
36.027
36.059
36.09
36.118
36.142
36.161
36.175
36.182
36.181
36.173
36.157
36.133
36.1
36.06
36.013
35.959
35.898
35.831
35.759
35.681
35.599
35.512
35.423
35.331
35.237
35.142
35.045
34.947
34.848
34.75
34.651
34.553
34.455
34.358
34.262
34.167
34.073
33.982
33.893
33.806
33.722
33.64
33.562
33.486
33.414
33.346
33.28
33.217
33.156
33.097
33.04
32.984
32.929
32.874
32.82
32.767
32.714
32.662
32.611
32.561
32.512
32.466
32.421
32.378
32.338
32.299
32.263
32.227
32.193
32.16
32.129
32.098
32.067
32.037
32.008
31.98
31.952
31.925
31.899
31.873
31.848
31.824
31.801
31.779
31.758
31.737
31.717
31.697
31.678
31.658
31.638
31.617
31.596
31.575
31.552
31.528
31.504
31.479
31.455
31.432
31.413
31.4
31.395
31.402
31.424
31.467
31.534
31.629
31.758
31.924
32.13
32.378
32.67
33.007
33.387
33.808
34.266
34.758
35.279
35.822
36.381
36.949
37.518
38.082
38.634
39.167
39.674
40.151
40.592
40.993
41.353
41.669
41.941
42.168
42.352
42.494
42.595
42.659
42.688
42.685
42.654
42.596
42.516
42.417
42.301
42.171
42.03
41.88
41.724
41.563
41.399
41.233
41.065
40.898
40.731
40.565
40.401
40.24
40.08
39.923
39.768
39.615
39.463
39.312
39.162
39.012
38.862
38.712
38.561
38.41
38.26
38.11
37.962
37.817
37.676
37.54
37.41
37.287
37.172
37.065
36.968
36.88
36.802
36.734
36.676
36.627
36.588
36.558
36.536
36.521
36.513
36.511
36.512
36.517
36.525
36.535
36.546
36.557
36.568
36.577
36.584
36.587
36.587
36.583
36.574
36.56
36.539
36.513
36.48
36.441
36.395
36.341
36.281
36.214
36.14
36.06
35.974
35.883
35.788
35.689
35.587
35.483
35.377
35.271
35.164
35.058
34.952
34.849
34.746
34.646
34.549
34.454
34.361
34.271
34.185
34.101
34.02
33.942
33.866
33.793
33.722
33.652
33.583
33.514
33.446
33.379
33.311
33.244
33.178
33.114
33.051
32.99
32.931
32.874
32.818
32.764
32.712
32.662
32.614
32.569
32.525
32.484
32.444
32.406
32.37
32.335
32.301
32.269
32.237
32.207
32.176
32.147
32.117
32.088
32.059
32.03
32.002
31.974
31.945
31.918
31.89
31.862
31.835
31.806
31.777
31.747
31.716
31.685
31.654
31.625
31.598
31.576
31.562
31.558
31.568
31.596
31.648
31.726
31.835
31.98
32.163
32.387
32.653
32.963
33.317
33.711
34.145
34.613
35.112
35.636
36.177
36.729
37.284
37.837
38.379
38.904
39.406
39.88
40.321
40.725
41.089
41.412
41.691
41.928
42.122
42.274
42.386
42.46
42.498
42.502
42.475
42.421
42.342
42.241
42.12
41.984
41.833
41.672
41.502
41.326
41.146
40.963
40.779
40.596
40.413
40.233
40.054
39.878
39.704
39.532
39.362
39.195
39.028
38.862
38.697
38.532
38.367
38.202
38.037
37.872
37.708
37.546
37.386
37.231
37.081
36.937
36.8
36.672
36.554
36.445
36.347
36.26
36.183
36.117
36.061
36.015
35.978
35.951
35.933
35.923
35.921
35.925
35.937
35.954
35.975
36.0
36.027
36.055
36.081
36.106
36.127
36.144
36.155
36.159
36.156
36.146
36.128
36.102
36.069
36.028
35.979
35.924
35.862
35.794
35.72
35.641
35.557
35.47
35.379
35.284
35.188
35.089
34.988
34.886
34.783
34.68
34.577
34.474
34.373
34.273
34.174
34.078
33.984
33.892
33.802
33.715
33.63
33.548
33.468
33.391
33.315
33.242
33.17
33.1
33.03
32.962
32.896
32.83
32.766
32.703
32.642
32.582
32.524
32.468
32.413
32.361
32.311
32.263
32.218
32.174
32.133
32.094
32.057
32.02
31.984
31.949
31.915
31.881
31.847
31.815
31.783
31.752
31.722
31.693
31.664
31.636
31.608
31.58
31.551
31.522
31.492
31.463
31.433
31.404
31.376
31.349
31.322
31.295
31.269
31.244
31.221
31.201
31.187
31.182
31.189
31.211
31.254
31.323
31.421
31.553
31.723
31.934
32.188
32.488
32.831
33.218
33.646
34.11
34.606
35.128
35.671
36.226
36.786
37.345
37.894
38.427
38.938
39.421
39.871
40.285
40.658
40.989
41.276
41.519
41.718
41.873
41.986
42.059
42.096
42.098
42.069
42.011
41.929
41.824
41.699
41.558
41.402
41.235
41.058
40.874
40.684
40.49
40.293
40.094
39.896
39.698
39.503
39.309
39.118
38.93
38.744
38.561
38.381
38.203
38.026
37.851
37.677
37.503
37.329
37.157
36.986
36.817
36.651
36.49
36.335
36.187
36.047
35.917
35.798
35.691
35.597
35.516
35.448
35.394
35.353
35.326
35.31
35.307
35.314
35.332
35.358
35.39
35.428
35.469
35.513
35.558
35.603
35.647
35.688
35.726
35.759
35.786
35.805
35.816
35.818
35.81
35.793
35.767
35.731
35.688
35.636
35.578
35.514
35.445
35.372
35.294
35.214
35.13
35.044
34.955
34.864
34.771
34.677
34.581
34.484
34.387
34.29
34.192
34.094
33.996
33.898
33.802
33.706
33.612
33.52
33.429
33.341
33.254
33.17
33.088
33.008
32.932
32.858
32.787
32.719
32.654
32.591
32.529
32.47
32.412
32.357
32.303
32.251
32.2
32.151
32.104
32.058
32.013
31.97
31.928
31.887
31.848
31.81
31.774
31.739
31.706
31.675
31.644
31.614
31.583
31.552
31.52
31.486
31.45
31.412
31.372
31.331
31.288
31.244
31.2
31.155
31.112
31.071
31.035
31.007
30.989
30.986
31.001
31.039
31.105
31.203
31.338
31.514
31.732
31.994
32.302
32.654
33.047
33.48
33.946
34.441
34.958
35.49
36.03
36.57
37.104
37.623
38.122
38.594
39.034
39.437
39.8
40.12
40.396
40.628
40.815
40.959
41.061
41.124
41.151
41.144
41.107
41.044
40.958
40.851
40.727
40.588
40.437
40.275
40.105
39.929
39.747
39.561
39.373
39.183
38.991
38.799
38.605
38.412
38.217
38.022
37.826
37.629
37.432
37.235
37.038
36.841
36.645
36.451
36.259
36.071
35.886
35.706
35.533
35.367
35.21
35.064
34.929
34.806
34.698
34.604
34.526
34.462
34.414
34.382
34.364
34.361
34.371
34.393
34.425
34.467
34.515
34.569
34.625
34.684
34.741
34.797
34.849
34.896
34.938
34.973
35.001
35.021
35.035
35.04
35.037
35.027
35.01
34.985
34.954
34.916
34.872
34.822
34.766
34.705
34.639
34.568
34.494
34.416
34.336
34.253
34.169
34.082
33.994
33.905
33.815
33.725
33.634
33.543
33.452
33.362
33.272
33.184
33.096
33.011
32.927
32.846
32.767
32.69
32.616
32.544
32.475
32.408
32.342
32.279
32.217
32.157
32.099
32.041
31.985
31.93
31.875
31.822
31.771
31.722
31.675
31.63
31.587
31.547
31.508
31.47
31.435
31.4
31.367
31.335
31.303
31.272
31.241
31.21
31.181
31.152
31.124
31.095
31.067
31.037
31.006
30.974
30.94
30.904
30.868
30.833
30.799
30.769
30.745
30.731
30.731
30.749
30.791
30.859
30.96
31.097
31.274
31.493
31.757
32.066
32.419
32.814
33.247
33.715
34.213
34.733
35.27
35.817
36.365
36.909
37.44
37.952
38.439
38.897
39.319
39.703
40.045
40.344
40.599
40.81
40.978
41.103
41.189
41.237
41.25
41.23
41.181
41.106
41.007
40.889
40.754
40.606
40.446
40.278
40.104
39.924
39.741
39.556
39.371
39.187
39.005
38.824
38.646
38.471
38.297
38.125
37.954
37.785
37.616
37.447
37.278
37.11
36.942
36.774
36.607
36.441
36.276
36.114
35.956
35.803
35.656
35.517
35.386
35.266
35.155
35.056
34.968
34.892
34.827
34.774
34.732
34.702
34.682
34.671
34.67
34.676
34.69
34.71
34.734
34.762
34.792
34.823
34.853
34.881
34.907
34.929
34.947
34.959
34.966
34.967
34.962
34.95
34.932
34.906
34.873
34.833
34.786
34.733
34.674
34.609
34.539
34.464
34.385
34.302
34.216
34.127
34.037
33.944
33.851
33.756
33.661
33.566
33.472
33.379
33.287
33.196
33.107
33.019
32.933
32.847
32.761
32.676
32.591
32.507
32.424
32.341
32.259
32.178
32.098
32.019
31.941
31.864
31.789
31.716
31.646
31.578
31.514
31.453
31.395
31.341
31.289
31.239
31.192
31.145
31.1
31.056
31.012
30.968
30.924
30.88
30.835
30.791
30.746
30.702
30.659
30.616
30.573
30.53
30.487
30.445
30.403
30.362
30.322
30.285
30.253
30.226
30.209
30.205
30.217
30.249
30.306
30.392
30.51
30.663
30.855
31.087
31.36
31.673
32.024
32.41
32.827
33.272
33.738
34.22
34.711
35.205
35.694
36.173
36.635
37.074
37.487
37.867
38.213
38.522
38.791
39.022
39.213
39.365
39.48
39.56
39.607
39.623
39.611
39.574
39.514
39.434
39.337
39.225
39.1
38.965
38.822
38.671
38.516
38.358
38.198
38.038
37.877
37.717
37.558
37.4
37.244
37.089
36.936
36.784
36.633
36.483
36.334
36.186
36.038
35.89
35.743
35.597
35.452
35.309
35.169
35.032
34.9
34.773
34.652
34.537
34.43
34.331
34.241
34.16
34.089
34.028
33.976
33.934
33.901
33.877
33.862
33.853
33.852
33.856
33.866
33.88
33.897
33.918
33.939
33.961
33.982
34.001
34.017
34.029
34.036
34.038
34.036
34.027
34.014
33.994
33.969
33.939
33.904
33.863
33.818
33.768
33.713
33.655
33.592
33.526
33.458
33.386
33.312
33.236
33.159
33.08
32.999
32.918
32.836
32.753
32.67
32.588
32.505
32.423
32.342
32.263
32.184
32.107
32.032
31.959
31.888
31.819
31.752
31.688
31.626
31.566
31.507
31.45
31.393
31.337
31.282
31.228
31.175
31.122
31.071
31.02
30.97
30.921
30.874
30.827
30.78
30.735
30.691
30.649
30.609
30.571
30.535
30.501
30.47
30.44
30.411
30.385
30.359
30.335
30.311
30.287
30.262
30.237
30.212
30.186
30.16
30.133
30.106
30.079
30.051
30.025
29.999
29.977
29.958
29.947
29.945
29.955
29.982
30.029
30.1
30.198
30.326
30.488
30.684
30.917
31.187
31.492
31.83
32.2
32.597
33.016
33.452
33.9
34.354
34.806
35.252
35.686
36.103
36.498
36.867
37.207
37.515
37.789
38.029
38.233
38.402
38.536
38.637
38.705
38.742
38.752
38.737
38.7
38.642
38.568
38.479
38.378
38.266
38.146
38.019
37.886
37.751
37.613
37.473
37.333
37.193
37.054
36.917
36.781
36.648
36.517
36.388
36.26
36.133
36.007
35.882
35.757
35.632
35.508
35.384
35.261
35.139
35.02
34.904
34.791
34.683
34.581
34.484
34.395
34.313
34.239
34.175
34.119
34.072
34.034
34.004
33.983
33.97
33.965
33.966
33.973
33.985
34.002
34.024
34.048
34.075
34.103
34.131
34.16
34.187
34.212
34.234
34.252
34.265
34.273
34.275
34.272
34.262
34.247
34.226
34.2
34.168
34.13
34.087
34.039
33.986
33.929
33.868
33.804
33.737
33.668
33.596
33.522
33.446
33.369
33.29
33.211
33.132
33.053
32.976
32.901
32.828
32.756
32.687
32.62
32.555
32.493
32.434
32.376
32.321
32.266
32.213
32.161
32.109
32.059
32.01
31.961
31.913
31.866
31.819
31.774
31.729
31.686
31.643
31.602
31.562
31.524
31.486
31.45
31.414
31.379
31.344
31.31
31.277
31.244
31.213
31.182
31.152
31.122
31.094
31.066
31.038
31.011
30.984
30.957
30.931
30.905
30.88
30.855
30.832
30.811
30.794
30.784
30.782
30.791
30.816
30.86
30.925
31.016
31.134
31.283
31.464
31.678
31.923
32.201
32.507
32.84
33.196
33.57
33.959
34.357
34.758
35.159
35.553
35.937
36.305
36.653
36.977
37.275
37.543
37.779
37.982
38.153
38.291
38.396
38.471
38.516
38.534
38.527
38.496
38.444
38.373
38.286
38.185
38.073
37.952
37.824
37.692
37.556
37.419
37.281
37.144
37.009
36.876
36.747
36.622
36.501
36.383
36.269
36.156
36.046
35.937
35.828
35.719
35.609
35.499
35.388
35.276
35.165
35.054
34.945
34.839
34.737
34.639
34.548
34.463
34.386
34.319
34.26
34.212
34.173
34.145
34.126
34.116
34.114
34.121
34.135
34.157
34.184
34.216
34.253
34.292
34.333
34.375
34.416
34.455
34.491
34.523
34.549
34.57
34.583
34.59
34.588
34.579
34.561
34.536
34.504
34.465
34.419
34.367
34.31
34.249
34.184
34.116
34.047
33.976
33.905
33.834
33.763
33.693
33.624
33.555
33.488
33.422
33.357
33.293
33.231
33.171
33.113
33.056
33.0
32.945
32.89
32.837
32.784
32.732
32.68
32.629
32.577
32.527
32.476
32.426
32.376
32.327
32.278
32.231
32.184
32.139
32.096
32.055
32.016
31.98
31.947
31.916
31.886
31.859
31.833
31.807
31.783
31.759
31.735
31.711
31.687
31.664
31.64
31.616
31.592
31.569
31.546
31.522
31.499
31.475
31.45
31.425
31.401
31.376
31.353
31.332
31.314
31.301
31.294
31.296
31.31
31.338
31.385
31.453
31.546
31.667
31.819
32.003
32.22
32.472
32.756
33.072
33.417
33.789
34.183
34.594
35.019
35.452
35.886
36.318
36.74
37.147
37.534
37.897
38.232
38.536
38.807
39.044
39.246
39.413
39.546
39.647
39.717
39.758
39.774
39.766
39.737
39.69
39.626
39.549
39.46
39.362
39.256
39.144
39.028
38.91
38.79
38.671
38.552
38.434
38.317
38.2
38.085
37.971
37.858
37.745
37.632
37.519
37.406
37.291
37.176
37.059
36.942
36.825
36.708
36.593
36.479
36.368
36.261
36.159
36.062
35.973
35.89
35.816
35.749
35.691
35.642
35.6
35.567
35.541
35.523
35.511
35.507
35.508
35.515
35.526
35.542
35.561
35.583
35.607
35.632
35.658
35.683
35.708
35.73
35.751
35.768
35.781
35.79
35.794
35.792
35.783
35.769
35.749
35.722
35.69
35.652
35.609
35.562
35.51
35.454
35.394
35.33
35.264
35.195
35.124
35.051
34.977
34.903
34.828
34.753
34.679
34.606
34.534
34.464
34.395
34.328
34.263
34.2
34.138
34.077
34.018
33.959
33.902
33.846
33.791
33.738
33.685
33.634
33.585
33.537
33.489
33.443
33.398
33.354
33.311
33.268
33.226
33.185
33.145
33.106
33.068
33.031
32.996
32.961
32.928
32.895
32.862
32.83
32.799
32.767
32.737
32.707
32.678
32.651
32.624
32.6
32.576
32.553
32.531
32.51
32.489
32.47
32.452
32.436
32.424
32.417
32.419
32.43
32.455
32.496
32.558
32.643
32.754
32.896
33.07
33.278
33.52
33.797
34.106
34.446
34.814
35.206
35.616
36.041
36.474
36.909
37.341
37.765
38.174
38.564
38.931
39.27
39.58
39.857
40.101
40.311
40.486
40.628
40.737
40.816
40.866
40.89
40.89
40.868
40.826
40.769
40.696
40.612
40.517
40.414
40.304
40.188
40.069
39.947
39.825
39.703
39.581
39.462
39.344
39.229
39.117
39.006
38.899
38.793
38.688
38.584
38.48
38.375
38.27
38.163
38.054
37.944
37.832
37.719
37.605
37.491
37.378
37.266
37.156
37.051
36.951
36.857
36.771
36.694
36.626
36.567
36.519
36.479
36.448
36.426
36.411
36.404
36.402
36.407
36.416
36.428
36.442
36.458
36.473
36.489
36.504
36.517
36.528
36.535
36.539
36.538
36.532
36.521
36.504
36.48
36.451
36.416
36.375
36.328
36.276
36.22
36.16
36.096
36.029
35.959
35.887
35.813
35.738
35.662
35.585
35.508
35.431
35.354
35.278
35.202
35.127
35.052
34.98
34.909
34.839
34.77
34.703
34.637
34.573
34.51
34.448
34.388
34.328
34.27
34.212
34.156
34.1
34.045
33.991
33.937
33.886
33.835
33.786
33.739
33.693
33.647
33.603
33.559
33.516
33.474
33.433
33.394
33.356
33.32
33.285
33.251
33.219
33.187
33.155
33.123
33.091
33.058
33.024
32.989
32.954
32.918
32.883
32.848
32.814
32.782
32.751
32.723
32.699
32.679
32.665
32.659
32.663
32.679
32.712
32.763
32.838
32.938
33.066
33.225
33.417
33.641
33.898
34.188
34.509
34.857
35.229
35.623
36.031
36.451
36.875
37.298
37.715
38.12
38.508
38.874
39.214
39.525
39.805
40.052
40.265
40.443
40.587
40.697
40.775
40.823
40.844
40.839
40.811
40.764
40.699
40.62
40.528
40.425
40.314
40.195
40.072
39.945
39.816
39.685
39.555
39.424
39.295
39.168
39.042
38.918
38.796
38.676
38.557
38.438
38.321
38.202
38.083
37.963
37.841
37.719
37.595
37.47
37.346
37.222
37.1
36.981
36.867
36.758
36.655
36.56
36.472
36.394
36.325
36.265
36.215
36.174
36.143
36.119
36.103
36.094
36.09
36.091
36.097
36.106
36.118
36.132
36.146
36.161
36.175
36.188
36.198
36.206
36.21
36.209
36.204
36.193
36.177
36.154
36.124
36.088
36.046
35.998
35.945
35.887
35.826
35.761
35.694
35.625
35.554
35.482
35.409
35.335
35.26
35.185
35.111
35.036
34.961
34.886
34.811
34.737
34.662
34.588
34.515
34.442
34.369
34.298
34.228
34.16
34.093
34.028
33.965
33.904
33.846
33.79
33.736
33.684
33.633
33.584
33.536
33.489
33.443
33.397
33.352
33.309
33.266
33.224
33.184
33.145
33.107
33.07
33.034
33.0
32.967
32.935
32.904
32.874
32.844
32.815
32.786
32.757
32.728
32.697
32.666
32.635
32.603
32.571
32.539
32.507
32.476
32.444
32.413
32.383
32.353
32.325
32.3
32.278
32.264
