Trial 3:3back
35.026
34.944
34.874
34.817
34.773
34.74
34.717
34.702
34.695
34.694
34.696
34.701
34.706
34.71
34.711
34.709
34.701
34.689
34.673
34.653
34.632
34.61
34.59
34.574
34.565
34.563
34.57
34.586
34.613
34.651
34.699
34.757
34.823
34.897
34.977
35.062
35.148
35.233
35.314
35.388
35.453
35.506
35.547
35.573
35.586
35.585
35.571
35.545
35.509
35.464
35.411
35.353
35.292
35.229
35.167
35.107
35.052
35.003
34.961
34.925
34.897
34.874
34.856
34.841
34.83
34.82
34.812
34.805
34.797
34.786
34.773
34.756
34.736
34.713
34.689
34.664
34.639
34.614
34.589
34.562
34.534
34.505
34.475
34.444
34.412
34.379
34.345
34.311
34.276
34.24
34.204
34.168
34.133
34.099
34.068
34.039
34.012
33.985
33.96
33.936
33.915
33.899
33.889
33.884
33.885
33.892
33.903
33.917
33.933
33.952
33.974
33.999
34.028
34.059
34.094
34.132
34.173
34.22
34.274
34.336
34.412
34.501
34.607
34.729
34.866
35.016
35.178
35.348
35.525
35.706
35.886
36.063
36.232
36.39
36.534
36.663
36.773
36.865
36.939
36.994
37.03
37.051
37.057
37.051
37.035
37.009
36.977
36.938
36.895
36.847
36.797
36.745
36.692
36.64
36.59
36.542
36.497
36.454
36.414
36.376
36.341
36.312
36.292
36.282
36.281
36.284
36.289
36.292
36.291
36.285
36.271
36.249
36.218
36.18
36.135
36.084
36.028
35.967
35.904
35.838
35.772
35.706
35.642
35.581
35.525
35.473
35.428
35.39
35.358
35.333
35.314
35.299
35.29
35.286
35.286
35.291
35.298
35.309
35.322
35.337
35.354
35.372
35.393
35.414
35.435
35.456
35.475
35.492
35.508
35.521
35.532
35.541
35.546
35.55
35.552
35.552
35.551
35.548
35.542
35.534
35.521
35.505
35.485
35.461
35.433
35.402
35.368
35.333
35.295
35.258
35.22
35.182
35.147
35.115
35.086
35.063
35.044
35.028
35.015
35.004
34.995
34.986
34.978
34.967
34.956
34.942
34.926
34.908
34.886
34.862
34.837
34.811
34.784
34.758
34.732
34.708
34.684
34.662
34.64
34.619
34.6
34.581
34.564
34.548
34.531
34.515
34.497
34.478
34.457
34.436
34.414
34.391
34.367
34.343
34.317
34.291
34.262
34.232
34.202
34.173
34.145
34.119
34.094
34.072
34.052
34.033
34.017
34.002
33.99
33.981
33.974
33.971
33.97
33.972
33.975
33.978
33.981
33.982
33.98
33.976
33.971
33.962
33.949
33.931
33.905
33.873
33.837
33.8
33.765
33.735
33.71
33.69
33.678
33.671
33.67
33.674
33.685
33.702
33.726
33.757
33.796
33.842
33.897
33.961
34.036
34.125
34.23
34.353
34.494
34.653
34.83
35.023
35.228
35.442
35.66
35.88
36.096
36.307
36.507
36.695
36.869
37.025
37.164
37.283
37.381
37.461
37.521
37.565
37.593
37.607
37.608
37.598
37.577
37.548
37.51
37.465
37.415
37.361
37.304
37.247
37.189
37.134
37.082
37.032
36.985
36.941
36.902
36.866
36.834
36.805
36.779
36.757
36.738
36.723
36.712
36.703
36.698
36.695
36.693
36.692
36.691
36.689
36.684
36.675
36.662
36.644
36.623
36.597
36.567
36.532
36.494
36.452
36.408
36.362
36.314
36.267
36.221
36.177
36.135
36.095
36.058
36.023
35.991
35.963
35.937
35.915
35.896
35.881
35.868
35.859
35.852
35.849
35.847
35.848
35.85
35.852
35.853
35.853
35.851
35.848
35.843
35.837
35.829
35.819
35.808
35.795
35.78
35.763
35.745
35.724
35.703
35.68
35.655
35.629
35.602
35.574
35.544
35.512
35.478
35.442
35.404
35.363
35.32
35.277
35.233
35.191
35.149
35.107
35.066
35.025
34.984
34.943
34.903
34.864
34.828
34.793
34.761
34.73
34.702
34.675
34.651
34.629
34.61
34.593
34.578
34.563
34.548
34.533
34.516
34.498
34.48
34.461
34.443
34.426
34.411
34.397
34.384
34.373
34.362
34.353
34.345
34.338
34.332
34.327
34.322
34.318
34.313
34.307
34.301
34.295
34.288
34.28
34.273
34.264
34.254
34.244
34.232
34.219
34.206
34.192
34.178
34.165
34.153
34.141
34.13
34.119
34.108
34.098
34.087
34.077
34.066
34.053
34.039
34.021
34.002
33.984
33.968
33.952
33.936
33.916
33.891
33.859
33.821
33.776
33.725
33.67
33.612
33.554
33.497
33.443
33.394
33.35
33.313
33.284
33.265
33.259
33.268
33.294
33.34
33.407
33.495
33.604
33.732
33.878
34.039
34.213
34.398
34.591
34.787
34.984
35.178
35.364
35.539
35.701
35.846
35.974
36.085
36.178
36.252
36.308
36.347
36.368
36.374
36.366
36.348
36.322
36.29
36.254
36.216
36.177
36.138
36.1
36.063
36.03
36.0
35.976
35.958
35.946
35.941
35.943
35.95
35.962
35.977
35.997
36.019
36.044
36.071
36.099
36.128
36.158
36.187
36.217
36.245
36.272
36.296
36.317
36.334
36.344
36.348
36.342
36.326
36.301
36.267
36.225
36.177
36.123
36.065
36.004
35.943
35.883
35.827
35.775
35.728
35.687
35.653
35.627
35.608
35.596
35.59
35.59
35.593
35.599
35.607
35.616
35.626
35.636
35.645
35.652
35.657
35.659
35.657
35.651
35.643
35.632
35.619
35.605
35.589
35.572
35.553
35.531
35.507
35.481
35.454
35.425
35.394
35.362
35.329
35.295
35.261
35.226
35.19
35.155
35.119
35.082
35.045
35.008
34.974
34.943
34.915
34.891
34.87
34.85
34.832
34.815
34.798
34.783
34.769
34.757
34.746
34.737
34.73
34.723
34.716
34.71
34.704
34.699
34.694
34.69
34.686
34.682
34.678
34.675
34.671
34.667
34.665
34.664
34.666
34.67
34.679
34.69
34.705
34.722
34.742
34.764
34.787
34.812
34.838
34.865
34.891
34.918
34.943
34.965
34.983
34.996
35.003
35.004
35.0
34.991
34.977
34.961
34.941
34.921
34.9
34.881
34.865
34.855
34.851
34.853
34.86
34.871
34.884
34.898
34.91
34.921
34.93
34.936
34.939
34.939
34.936
34.929
34.918
34.904
34.885
34.862
34.836
34.807
34.777
34.745
34.712
34.679
34.647
34.615
34.586
34.561
34.541
34.527
34.522
34.526
34.541
34.568
34.611
34.67
34.748
34.848
34.97
35.114
35.278
35.46
35.656
35.86
36.069
36.279
36.483
36.68
36.865
37.035
37.188
37.322
37.435
37.527
37.597
37.645
37.67
37.675
37.662
37.633
37.59
37.536
37.472
37.402
37.326
37.249
37.171
37.095
37.022
36.953
36.89
36.831
36.778
36.73
36.685
36.644
36.604
36.567
36.532
36.499
36.467
36.438
36.409
36.381
36.355
36.33
36.307
36.285
36.263
36.24
36.215
36.188
36.158
36.124
36.087
36.046
36.002
35.956
35.908
35.859
35.809
35.761
35.714
35.668
35.626
35.588
35.554
35.526
35.503
35.484
35.471
35.461
35.456
35.455
35.457
35.462
35.469
35.477
35.485
35.494
35.501
35.507
35.511
35.511
35.509
35.504
35.496
35.486
35.474
35.461
35.446
35.428
35.41
35.389
35.369
35.348
35.327
35.307
35.288
35.27
35.252
35.235
35.217
35.199
35.181
35.161
35.14
35.116
35.09
35.062
35.033
35.002
34.97
34.938
34.905
34.872
34.837
34.802
34.767
34.731
34.696
34.659
34.622
34.583
34.543
34.501
34.457
34.411
34.366
34.32
34.274
34.228
34.182
34.136
34.089
34.041
33.994
33.948
33.904
33.863
33.826
33.795
33.769
33.75
33.738
33.732
33.733
33.742
33.759
33.784
33.817
33.856
33.902
33.954
34.008
34.065
34.122
34.177
34.231
34.28
34.323
34.359
34.387
34.406
34.415
34.416
34.408
34.392
34.369
34.34
34.306
34.269
34.229
34.189
34.148
34.107
34.068
34.031
33.997
33.965
33.935
33.908
33.883
33.861
33.841
33.824
33.811
33.801
33.794
33.789
33.785
33.783
33.784
33.787
33.795
33.808
33.826
33.85
33.88
33.917
33.963
34.02
34.09
34.176
34.277
34.396
34.53
34.679
34.84
35.011
35.186
35.364
35.54
35.71
35.872
36.023
36.16
36.281
36.384
36.468
36.532
36.576
36.601
36.607
36.597
36.573
36.537
36.49
36.435
36.372
36.305
36.233
36.16
36.087
36.015
35.946
35.881
35.82
35.762
35.708
35.656
35.607
35.559
35.514
35.471
35.43
35.391
35.355
35.319
35.286
35.254
35.224
35.195
35.168
35.144
35.122
35.102
35.084
35.066
35.05
35.033
35.015
34.996
34.976
34.955
34.932
34.909
34.884
34.86
34.836
34.812
34.789
34.768
34.748
34.73
34.716
34.704
34.695
34.689
34.687
34.688
34.693
34.702
34.716
34.734
34.755
34.779
34.806
34.834
34.864
34.895
34.925
34.956
34.986
35.015
35.043
35.07
35.096
35.118
35.138
35.153
35.164
35.171
35.173
35.172
35.166
35.156
35.143
35.127
35.107
35.083
35.056
35.027
34.996
34.964
34.933
34.903
34.875
34.848
34.823
34.802
34.782
34.765
34.75
34.735
34.721
34.709
34.697
34.687
34.676
34.664
34.651
34.635
34.617
34.597
34.575
34.552
34.527
34.502
34.477
34.453
34.431
34.411
34.394
34.38
34.371
34.366
34.366
34.372
34.382
34.398
34.42
34.447
34.478
34.513
34.55
34.589
34.626
34.662
34.696
34.728
34.757
34.783
34.806
34.825
34.841
34.854
34.864
34.872
34.88
34.886
34.893
34.901
34.907
34.914
34.919
34.923
34.924
34.923
34.919
34.913
34.904
34.893
34.879
34.862
34.84
34.815
34.786
34.754
34.721
34.687
34.656
34.626
34.6
34.576
34.554
34.535
34.518
34.505
34.497
34.495
34.502
34.519
34.548
34.591
34.647
34.719
34.808
34.914
35.036
35.174
35.326
35.49
35.661
35.836
36.012
36.185
36.352
36.512
36.662
36.799
36.923
37.031
37.122
37.195
37.248
37.282
37.297
37.297
37.281
37.253
37.214
37.165
37.11
37.047
36.98
36.907
36.831
36.752
36.673
36.595
36.52
36.449
36.382
36.319
36.261
36.206
36.155
36.108
36.065
36.025
35.988
35.954
35.922
35.891
35.86
35.829
35.798
35.766
35.732
35.698
35.663
35.628
35.591
35.552
35.511
35.468
35.424
35.379
35.332
35.286
35.242
35.201
35.164
35.131
35.102
35.078
35.058
35.042
35.032
35.027
35.03
35.037
35.049
35.064
35.082
35.102
35.124
35.147
35.169
35.189
35.206
35.22
35.228
35.23
35.227
35.219
35.206
35.189
35.17
35.149
35.127
35.103
35.078
35.051
35.024
34.997
34.97
34.942
34.913
34.882
34.851
34.819
34.785
34.75
34.713
34.675
34.635
34.594
34.552
34.509
34.466
34.422
34.38
34.338
34.297
34.258
34.22
34.184
34.151
34.121
34.094
34.069
34.047
34.026
34.006
33.988
33.972
33.958
33.945
33.933
33.92
33.907
33.894
33.879
33.863
33.845
33.826
33.805
33.784
33.764
33.746
33.73
33.717
33.707
33.7
33.695
33.691
33.689
33.688
33.688
33.688
33.69
33.692
33.695
33.698
33.701
33.703
33.704
33.702
33.697
33.69
33.68
33.667
33.651
33.634
33.616
33.596
33.575
33.552
33.528
33.503
33.477
33.452
33.428
33.406
33.387
33.371
33.358
33.346
33.335
33.325
33.316
33.308
33.299
33.292
33.285
33.28
33.276
33.274
33.277
33.286
33.305
33.338
33.388
33.456
33.545
33.656
33.786
33.936
34.101
34.28
34.469
34.663
34.858
35.05
35.233
35.403
35.558
35.694
35.811
35.908
35.984
36.041
36.08
36.102
36.109
36.102
36.083
36.053
36.02
35.984
35.946
35.906
35.865
35.822
35.775
35.724
35.668
35.608
35.543
35.475
35.405
35.335
35.268
35.203
35.141
35.084
35.029
34.979
34.932
34.889
34.85
34.815
34.784
34.755
34.729
34.702
34.675
34.647
34.616
34.582
34.546
34.508
34.469
34.428
34.387
34.346
34.304
34.263
34.222
34.184
34.149
34.118
34.093
34.073
34.06
34.052
34.051
34.054
34.063
34.077
34.094
34.114
34.135
34.157
34.179
34.201
34.222
34.242
34.261
34.278
34.293
34.305
34.314
34.32
34.324
34.326
34.327
34.325
34.322
34.315
34.306
34.294
34.28
34.264
34.245
34.225
34.202
34.177
34.15
34.121
34.092
34.061
34.029
33.997
33.965
33.932
33.9
33.869
33.839
33.81
33.783
33.757
33.732
33.71
33.69
33.672
33.656
33.641
33.626
33.612
33.599
33.585
33.571
33.556
33.54
33.524
33.507
33.491
33.477
33.463
33.452
33.443
33.436
33.431
33.428
33.427
33.427
33.427
33.43
33.435
33.442
33.452
33.464
33.478
33.494
33.51
33.526
33.542
33.558
33.573
33.587
33.601
33.614
33.626
33.636
33.644
33.65
33.653
33.654
33.654
33.652
33.65
33.647
33.643
33.639
33.633
33.627
33.62
33.614
33.607
33.601
33.595
33.591
33.59
33.593
33.6
33.611
33.627
33.65
33.68
33.719
33.769
33.829
33.902
33.988
34.087
34.2
34.325
34.462
34.609
34.763
34.922
35.083
35.244
35.399
35.547
35.684
35.808
35.918
36.012
36.089
36.151
36.198
36.23
36.248
36.255
36.25
36.234
36.21
36.176
36.136
36.091
36.041
35.988
35.932
35.876
35.818
35.762
35.706
35.651
35.598
35.549
35.502
35.458
35.417
35.379
35.344
35.31
35.279
35.249
35.22
35.193
35.167
35.142
35.117
35.092
35.066
35.04
35.013
34.985
34.958
34.931
34.905
34.879
34.853
34.828
34.803
34.778
34.755
34.734
34.716
34.702
34.692
34.687
34.686
34.691
34.7
34.713
34.729
34.749
34.772
34.797
34.823
34.851
34.878
34.905
34.93
34.954
34.976
34.996
35.015
35.033
35.049
35.065
35.08
35.093
35.104
35.112
35.118
35.119
35.118
35.114
35.106
35.095
35.081
35.065
35.046
35.026
35.004
34.98
34.953
34.925
34.895
34.862
34.826
34.789
34.749
34.71
34.669
34.628
34.587
34.545
34.504
34.464
34.425
34.388
34.352
34.319
34.288
34.259
34.232
34.207
34.185
34.164
34.145
34.128
34.113
34.099
34.086
34.074
34.062
34.051
34.039
34.026
34.013
34.0
33.987
33.975
33.965
33.958
33.952
33.948
33.944
33.941
33.939
33.937
33.938
33.94
33.943
33.946
33.95
33.955
33.961
33.965
33.969
33.97
33.968
33.963
33.955
33.944
33.932
33.917
33.902
33.886
33.871
33.856
33.843
33.83
33.819
33.81
33.803
33.8
33.799
33.802
33.809
33.82
33.834
33.853
33.875
33.902
33.937
33.98
34.035
34.102
34.183
34.28
34.392
34.517
34.656
34.806
34.963
35.125
35.288
35.451
35.61
35.764
35.911
36.047
36.171
36.282
36.377
36.457
36.522
36.571
36.607
36.629
36.638
36.635
36.62
36.593
36.555
36.508
36.454
36.393
36.328
36.261
36.194
36.126
36.061
35.999
35.941
35.886
35.838
35.794
35.757
35.726
35.701
35.683
35.669
35.661
35.656
35.653
35.652
35.652
35.651
35.649
35.646
35.64
35.631
35.617
35.599
35.576
35.549
35.519
35.487
35.453
35.418
35.382
35.346
35.309
35.274
35.24
35.209
35.183
35.163
35.149
35.142
35.141
35.147
35.157
35.171
35.188
35.207
35.229
35.252
35.277
35.3
35.324
35.349
35.376
35.402
35.427
35.449
35.469
35.484
35.494
35.499
35.498
35.491
35.479
35.463
35.444
35.423
35.401
35.378
35.357
35.336
35.317
35.298
35.28
35.263
35.246
35.229
35.212
35.196
35.18
35.165
35.151
35.135
35.118
35.099
35.078
35.055
35.031
35.007
34.981
34.956
34.93
34.904
34.879
34.854
34.832
34.812
34.795
34.781
34.77
34.763
34.757
34.754
34.751
34.749
34.748
34.747
34.747
34.747
34.748
34.748
34.747
34.745
34.742
34.74
34.738
34.736
34.735
34.736
34.738
34.742
34.746
34.75
34.755
34.758
34.761
34.764
34.767
34.769
34.771
34.773
34.775
34.776
34.775
34.774
34.771
34.766
34.758
34.749
34.736
34.722
34.704
34.683
34.66
34.635
34.611
34.588
34.566
34.547
34.529
34.514
34.502
34.494
34.489
34.489
34.493
34.503
34.52
34.546
34.582
34.63
34.689
34.76
34.844
34.94
35.047
35.164
35.29
35.423
35.56
35.7
35.84
35.977
36.109
36.233
36.346
36.449
36.54
36.617
36.682
36.733
36.772
36.798
36.814
36.82
36.816
36.804
36.783
36.755
36.72
36.678
36.63
36.58
36.527
36.474
36.422
36.371
36.323
36.277
36.236
36.198
36.164
36.133
36.106
36.081
36.06
36.042
36.026
36.012
35.999
35.986
35.973
35.959
35.943
35.924
35.903
35.88
35.855
35.828
35.799
35.768
35.736
35.702
35.668
35.634
35.6
35.568
35.537
35.508
35.483
35.46
35.441
35.425
35.411
35.398
35.389
35.381
35.377
35.375
35.376
35.378
35.381
35.384
35.385
35.386
35.386
35.385
35.384
35.383
35.382
35.379
35.376
35.37
35.364
35.357
35.35
35.345
35.342
35.34
35.338
35.337
35.334
35.329
35.322
35.312
35.299
35.285
35.269
35.251
35.231
35.209
35.183
35.149
35.107
35.06
35.009
34.958
34.909
34.862
34.82
34.782
34.748
34.72
34.697
34.68
34.669
34.662
34.66
34.66
34.661
34.661
34.66
34.657
34.652
34.646
34.637
34.626
34.614
34.6
34.583
34.564
34.543
34.518
34.493
34.466
34.438
34.411
34.384
34.36
34.336
34.315
34.295
34.279
34.265
34.253
34.245
34.239
34.234
34.232
34.23
34.229
34.228
34.227
34.225
34.223
34.22
34.217
34.212
34.207
34.2
34.193
34.185
34.176
34.166
34.155
34.144
34.131
34.118
34.105
34.092
34.08
34.068
34.058
34.049
34.042
34.034
34.027
34.02
34.011
34.0
33.988
33.974
33.958
33.942
33.926
33.911
33.898
33.887
33.881
33.878
33.881
33.888
33.902
33.921
33.947
33.981
34.023
34.076
34.141
34.219
34.311
34.415
34.531
34.657
34.792
34.934
35.081
35.228
35.374
35.517
35.654
35.782
35.9
36.008
36.102
36.183
36.25
36.303
36.342
36.367
36.379
36.379
36.37
36.351
36.325
36.295
36.26
36.222
36.182
36.141
36.099
36.058
36.017
35.976
35.935
35.894
35.854
35.814
35.775
35.736
35.698
35.66
35.625
35.596
35.577
35.568
35.566
35.569
35.575
35.58
35.583
35.581
35.573
35.557
35.534
35.502
35.464
35.42
35.373
35.322
35.271
35.22
35.169
35.12
35.073
35.028
34.987
34.951
34.919
34.893
34.872
34.858
34.848
34.844
34.844
34.849
34.857
34.869
34.884
34.902
34.921
34.942
34.963
34.983
35.003
35.021
35.036
35.049
35.06
35.068
35.072
35.075
35.074
35.072
35.068
35.062
35.057
35.05
35.044
35.036
35.025
35.013
34.997
34.98
34.959
34.937
34.913
34.888
34.863
34.837
34.812
34.787
34.763
34.738
34.714
34.692
34.671
34.651
34.633
34.616
34.6
34.583
34.567
34.551
34.535
34.521
34.507
34.494
34.48
34.465
34.45
34.435
34.42
34.406
34.394
34.383
34.374
34.365
34.357
34.348
34.339
34.33
34.321
34.313
34.306
34.301
34.297
34.294
34.291
34.289
34.287
34.285
34.284
34.284
34.287
34.292
34.299
34.309
34.319
34.33
34.341
34.35
34.357
34.363
34.365
34.365
34.361
34.353
34.343
34.331
34.318
34.305
34.293
34.281
34.271
34.262
34.254
34.246
34.239
34.232
34.225
34.218
34.212
34.207
34.204
34.201
34.199
34.198
34.199
34.202
34.207
34.214
34.221
34.231
34.244
34.264
34.292
34.331
34.382
34.447
34.527
34.622
34.731
34.853
34.988
35.132
35.283
35.439
35.597
35.753
35.903
36.044
36.173
36.29
36.393
36.481
36.554
36.612
36.655
36.683
36.698
36.7
36.691
36.673
36.647
36.614
36.577
36.537
36.495
36.451
36.407
36.364
36.321
36.279
36.239
36.201
36.165
36.13
36.098
36.066
36.037
36.01
35.984
35.959
35.936
35.913
35.892
35.872
35.852
35.832
35.811
35.789
35.767
35.744
35.721
35.697
35.673
35.647
35.62
35.591
35.56
35.529
35.497
35.466
35.435
35.404
35.374
35.346
35.319
35.295
35.273
35.255
35.24
35.229
35.221
35.219
35.221
35.228
35.24
35.256
35.277
35.301
35.327
35.355
35.383
35.412
35.439
35.465
35.487
35.505
35.518
35.527
35.533
35.534
35.531
35.525
35.516
35.504
35.489
35.471
35.452
35.432
35.411
35.389
35.368
35.348
35.328
35.308
35.289
35.27
35.252
35.233
35.215
35.197
35.18
35.163
35.146
35.13
35.114
35.098
35.083
35.067
35.052
35.036
35.019
35.002
34.983
34.963
34.944
34.925
34.908
34.892
34.879
34.867
34.856
34.846
34.836
34.827
34.819
34.811
34.804
34.796
34.789
34.78
34.771
34.763
34.754
34.746
34.738
34.729
34.72
34.709
34.698
34.687
34.677
34.666
34.657
34.649
34.642
34.639
34.638
34.639
34.641
34.643
34.646
34.648
34.65
34.652
34.653
34.654
34.655
34.654
34.651
34.646
34.637
34.625
34.611
34.595
34.577
34.56
34.542
34.526
34.51
34.494
34.48
34.467
34.455
34.444
34.434
34.425
34.416
34.407
34.399
34.391
34.385
34.381
34.381
34.387
34.402
34.425
34.461
34.509
34.571
34.649
34.744
34.854
34.981
35.122
35.275
35.438
35.607
35.779
35.95
36.117
36.276
36.427
