Trial 3:3back
36.374
36.34
36.305
36.267
36.229
36.19
36.15
36.109
36.067
36.023
35.978
35.93
35.88
35.826
35.77
35.712
35.652
35.592
35.531
35.471
35.412
35.355
35.301
35.25
35.201
35.152
35.105
35.059
35.012
34.967
34.921
34.876
34.832
34.789
34.747
34.707
34.669
34.631
34.595
34.561
34.528
34.497
34.465
34.435
34.404
34.374
34.343
34.313
34.283
34.253
34.223
34.193
34.164
34.135
34.108
34.082
34.058
34.036
34.014
33.995
33.977
33.962
33.948
33.934
33.921
33.908
33.893
33.876
33.857
33.836
33.813
33.788
33.763
33.737
33.711
33.686
33.663
33.64
33.618
33.596
33.575
33.554
33.533
33.513
33.492
33.472
33.452
33.433
33.414
33.396
33.378
33.36
33.341
33.322
33.304
33.286
33.268
33.25
33.232
33.215
33.199
33.183
33.167
33.151
33.135
33.12
33.104
33.089
33.072
33.054
33.036
33.016
32.996
32.976
32.959
32.948
32.945
32.955
32.981
33.026
33.094
33.189
33.311
33.464
33.647
33.859
34.098
34.363
34.649
34.954
35.273
35.601
35.934
36.266
36.593
36.911
37.215
37.502
37.771
38.019
38.244
38.447
38.627
38.784
38.919
39.032
39.125
39.199
39.256
39.298
39.327
39.346
39.355
39.356
39.351
39.341
39.326
39.308
39.287
39.262
39.235
39.205
39.172
39.136
39.096
39.055
39.012
38.968
38.924
38.88
38.836
38.793
38.75
38.707
38.663
38.619
38.573
38.524
38.473
38.419
38.361
38.299
38.231
38.158
38.08
37.997
37.91
37.819
37.727
37.633
37.54
37.45
37.362
37.28
37.202
37.13
37.064
37.004
36.951
36.905
36.866
36.834
36.807
36.785
36.767
36.75
36.735
36.721
36.708
36.695
36.68
36.664
36.645
36.623
36.597
36.569
36.536
36.499
36.458
36.413
36.364
36.312
36.256
36.198
36.138
36.077
36.016
35.955
35.895
35.834
35.775
35.717
35.66
35.603
35.548
35.494
35.441
35.389
35.338
35.288
35.239
35.189
35.139
35.089
35.037
34.985
34.933
34.883
34.833
34.786
34.741
34.699
34.661
34.626
34.594
34.566
34.54
34.518
34.498
34.48
34.461
34.44
34.416
34.387
34.355
34.32
34.284
34.249
34.216
34.184
34.154
34.126
34.101
34.078
34.057
34.038
34.02
34.003
33.985
33.967
33.948
33.927
33.906
33.885
33.864
33.843
33.822
33.801
33.781
33.761
33.741
33.721
33.702
33.682
33.663
33.646
33.629
33.613
33.597
33.582
33.565
33.548
33.529
33.509
33.488
33.467
33.444
33.421
33.397
33.374
33.352
33.329
33.307
33.285
33.261
33.237
33.211
33.185
33.157
33.128
33.099
33.069
33.04
33.013
32.988
32.963
32.939
32.916
32.893
32.872
32.853
32.836
32.824
32.818
32.822
32.838
32.87
32.922
32.997
33.098
33.228
33.387
33.576
33.793
34.037
34.305
34.593
34.898
35.213
35.535
35.858
36.178
36.491
36.795
37.086
37.363
37.623
37.866
38.09
38.293
38.476
38.637
38.778
38.898
38.999
39.08
39.142
39.187
39.216
39.232
39.235
39.227
39.21
39.185
39.154
39.117
39.078
39.037
38.994
38.951
38.908
38.866
38.826
38.787
38.75
38.713
38.677
38.642
38.608
38.572
38.534
38.493
38.446
38.394
38.337
38.274
38.205
38.13
38.05
37.966
37.879
37.791
37.703
37.614
37.527
37.442
37.36
37.282
37.208
37.139
37.074
37.013
36.956
36.903
36.853
36.806
36.761
36.718
36.677
36.637
36.599
36.561
36.525
36.49
36.458
36.428
36.399
36.371
36.345
36.32
36.295
36.267
36.238
36.206
36.171
36.133
36.093
36.05
36.005
35.957
35.906
35.854
35.8
35.746
35.69
35.635
35.58
35.525
35.471
35.416
35.362
35.309
35.255
35.202
35.151
35.099
35.047
34.995
34.941
34.887
34.833
34.781
34.73
34.681
34.634
34.589
34.548
34.509
34.474
34.44
34.407
34.376
34.346
34.318
34.291
34.265
34.238
34.212
34.185
34.157
34.128
34.098
34.068
34.039
34.011
33.984
33.958
33.933
33.91
33.889
33.869
33.85
33.831
33.811
33.791
33.77
33.75
33.73
33.71
33.69
33.67
33.651
33.632
33.613
33.596
33.578
33.561
33.545
33.528
33.51
33.492
33.473
33.453
33.431
33.407
33.381
33.354
33.325
33.296
33.265
33.235
33.206
33.178
33.151
33.127
33.104
33.083
33.064
33.045
33.027
33.01
32.995
32.982
32.971
32.962
32.954
32.948
32.942
32.936
32.93
32.924
32.915
32.904
32.891
32.877
32.861
32.843
32.824
32.804
32.783
32.762
32.74
32.719
32.699
32.681
32.666
32.656
32.651
32.654
32.669
32.698
32.745
32.811
32.899
33.012
33.151
33.317
33.51
33.728
33.97
34.233
34.516
34.813
35.119
35.431
35.744
36.054
36.358
36.651
36.929
37.19
37.431
37.651
37.849
38.025
38.178
38.309
38.419
38.51
38.585
38.645
38.692
38.728
38.754
38.77
38.779
38.78
38.774
38.762
38.743
38.719
38.689
38.656
38.62
38.581
38.54
38.497
38.454
38.411
38.367
38.324
38.281
38.238
38.195
38.152
38.107
38.059
38.008
37.953
37.894
37.831
37.763
37.692
37.616
37.537
37.457
37.376
37.295
37.216
37.139
37.064
36.992
36.925
36.862
36.803
36.75
36.701
36.656
36.615
36.579
36.548
36.52
36.495
36.473
36.453
36.434
36.417
36.4
36.383
36.363
36.342
36.319
36.294
36.265
36.234
36.202
36.168
36.133
36.099
36.064
36.03
35.994
35.958
35.92
35.88
35.838
35.793
35.745
35.693
35.639
35.582
35.523
35.464
35.405
35.346
35.289
35.235
35.182
35.13
35.081
35.034
34.987
34.942
34.897
34.853
34.809
34.767
34.725
34.686
34.65
34.615
34.583
34.552
34.523
34.495
34.468
34.441
34.415
34.389
34.364
34.339
34.314
34.289
34.265
34.242
34.219
34.197
34.175
34.153
34.132
34.11
34.088
34.066
34.042
34.017
33.992
33.967
33.94
33.913
33.885
33.858
33.831
33.806
33.782
33.76
33.741
33.724
33.709
33.696
33.682
33.668
33.654
33.638
33.621
33.604
33.586
33.567
33.548
33.527
33.505
33.48
33.455
33.428
33.401
33.374
33.348
33.323
33.299
33.278
33.258
33.242
33.227
33.215
33.204
33.193
33.183
33.172
33.16
33.146
33.131
33.114
33.096
33.076
33.055
33.033
33.011
32.989
32.967
32.943
32.918
32.892
32.864
32.835
32.807
32.778
32.752
32.728
32.707
32.691
32.68
32.677
32.682
32.702
32.746
32.819
32.924
33.06
33.226
33.419
33.636
33.873
34.127
34.395
34.674
34.96
35.251
35.544
35.837
36.128
36.415
36.694
36.964
37.223
37.468
37.698
37.911
38.107
38.283
38.44
38.577
38.694
38.793
38.873
38.937
38.984
39.016
39.034
39.04
39.037
39.025
39.007
38.982
38.953
38.921
38.886
38.848
38.807
38.765
38.721
38.677
38.632
38.586
38.539
38.491
38.443
38.393
38.343
38.292
38.241
38.189
38.135
38.08
38.023
37.962
37.898
37.83
37.757
37.677
37.592
37.501
37.406
37.309
37.213
37.12
37.032
36.949
36.872
36.803
36.742
36.689
36.644
36.605
36.571
36.543
36.521
36.503
36.49
36.479
36.47
36.461
36.451
36.439
36.423
36.403
36.38
36.354
36.324
36.292
36.258
36.223
36.186
36.149
36.112
36.075
36.039
36.004
35.968
35.932
35.895
35.857
35.817
35.775
35.732
35.687
35.64
35.592
35.543
35.491
35.439
35.385
35.33
35.274
35.216
35.156
35.095
35.033
34.972
34.912
34.854
34.799
34.746
34.697
34.65
34.604
34.562
34.521
34.483
34.448
34.416
34.387
34.36
34.335
34.31
34.286
34.262
34.238
34.213
34.186
34.159
34.132
34.104
34.077
34.051
34.026
34.005
33.985
33.969
33.954
33.939
33.925
33.91
33.895
33.879
33.861
33.842
33.822
33.801
33.777
33.752
33.725
33.698
33.672
33.645
33.619
33.593
33.567
33.541
33.515
33.489
33.463
33.437
33.412
33.387
33.363
33.339
33.316
33.293
33.27
33.246
33.221
33.195
33.168
33.142
33.117
33.092
33.068
33.046
33.028
33.015
33.006
33.0
32.996
32.992
32.988
32.981
32.972
32.96
32.945
32.925
32.902
32.875
32.847
32.817
32.786
32.756
32.726
32.696
32.667
32.637
32.607
32.578
32.55
32.524
32.501
32.484
32.475
32.475
32.488
32.517
32.565
32.635
32.73
32.852
33.002
33.181
33.39
33.627
33.892
34.183
34.495
34.824
35.166
35.514
35.864
36.21
36.547
36.87
37.177
37.463
37.727
37.969
38.188
38.383
38.555
38.703
38.829
38.934
39.021
39.089
39.141
39.177
39.201
39.215
39.219
39.218
39.21
39.198
39.181
39.161
39.139
39.114
39.088
39.059
39.029
38.997
38.964
38.929
38.892
38.854
38.816
38.777
38.737
38.697
38.657
38.615
38.571
38.523
38.472
38.417
38.357
38.292
38.223
38.148
38.068
37.984
37.895
37.802
37.708
37.612
37.518
37.425
37.334
37.247
37.164
37.086
37.013
36.945
36.882
36.824
36.77
36.722
36.678
36.637
36.6
36.565
36.532
36.503
36.477
36.452
36.429
36.405
36.381
36.354
36.326
36.296
36.264
36.232
36.198
36.163
36.126
36.087
36.046
36.004
35.961
35.917
35.873
35.827
35.78
35.733
35.685
35.637
35.588
35.537
35.484
35.43
35.374
35.318
35.26
35.202
35.143
35.084
35.025
34.967
34.909
34.851
34.796
34.743
34.693
34.646
34.603
34.564
34.528
34.495
34.466
34.437
34.41
34.383
34.355
34.327
34.298
34.268
34.238
34.207
34.176
34.145
34.114
34.084
34.054
34.025
33.997
33.97
33.945
33.921
33.898
33.876
33.854
33.832
33.81
33.788
33.763
33.732
33.698
33.663
33.628
33.594
33.563
33.535
33.511
33.49
33.472
33.455
33.44
33.427
33.414
33.4
33.386
33.371
33.354
33.334
33.313
33.291
33.268
33.244
33.22
33.196
33.172
33.148
33.124
33.1
33.078
33.056
33.034
33.012
32.991
32.97
32.95
32.93
32.91
32.892
32.876
32.86
32.844
32.829
32.813
32.797
32.781
32.764
32.746
32.729
32.71
32.692
32.674
32.657
32.639
32.622
32.605
32.588
32.569
32.549
32.529
32.51
32.493
32.477
32.464
32.453
32.445
32.442
32.445
32.454
32.474
32.508
32.558
32.629
32.724
32.846
32.996
33.177
33.387
33.625
33.89
34.178
34.486
34.808
35.141
35.478
35.816
36.148
36.473
36.784
37.078
37.353
37.606
37.836
38.043
38.226
38.387
38.527
38.647
38.747
38.83
38.896
38.947
38.986
39.013
39.03
39.039
39.04
39.035
39.023
39.005
38.982
38.953
38.92
38.883
38.843
38.801
38.756
38.711
38.666
38.621
38.578
38.534
38.49
38.446
38.403
38.359
38.315
38.27
38.223
38.175
38.124
38.068
38.007
37.942
37.87
37.793
37.71
37.624
37.536
37.446
37.356
37.268
37.185
37.106
37.035
36.97
36.912
36.861
36.816
36.776
36.74
36.708
36.677
36.647
36.618
36.589
36.56
36.532
36.503
36.474
36.445
36.416
36.386
36.355
36.324
36.294
36.264
36.234
36.205
36.175
36.145
36.113
36.078
36.042
36.003
35.96
35.914
35.864
35.81
35.754
35.696
35.637
35.576
35.514
35.453
35.391
35.331
35.273
35.217
35.162
35.109
35.058
35.009
34.961
34.913
34.863
34.813
34.761
34.71
34.659
34.609
34.56
34.514
34.47
34.427
34.387
34.349
34.314
34.282
34.254
34.231
34.21
34.192
34.176
34.162
34.147
34.132
34.114
34.095
34.074
34.051
34.026
33.999
33.969
33.938
33.905
33.872
33.838
33.805
33.772
33.742
33.715
33.691
33.672
33.656
33.643
33.632
33.624
33.616
33.608
33.598
33.586
33.573
33.556
33.537
33.515
33.492
33.467
33.441
33.413
33.385
33.356
33.327
33.3
33.276
33.255
33.237
33.221
33.206
33.192
33.178
33.162
33.144
33.125
33.105
33.084
33.062
33.039
33.018
32.996
32.975
32.953
32.93
32.908
32.885
32.864
32.842
32.821
32.801
32.782
32.763
32.745
32.727
32.71
32.692
32.672
32.651
32.629
32.606
32.581
32.557
32.533
32.509
32.486
32.465
32.447
32.434
32.426
32.426
32.437
32.462
32.505
32.568
32.654
32.765
32.904
33.073
33.271
33.498
33.752
34.031
34.33
34.646
34.974
35.309
35.646
35.979
36.303
36.615
36.91
37.186
37.441
37.673
37.883
38.069
38.232
38.374
38.494
38.595
38.678
38.745
38.796
38.833
38.858
38.871
38.874
38.87
38.859
38.842
38.819
38.793
38.762
38.727
38.688
38.646
38.601
38.553
38.502
38.45
38.396
38.341
38.284
38.227
38.17
38.112
38.055
37.996
37.938
37.879
37.82
37.759
37.697
37.633
37.566
37.497
37.426
37.353
37.278
37.203
37.129
37.057
36.988
36.922
36.861
36.804
36.751
36.704
36.661
36.621
36.585
36.55
36.515
36.481
36.448
36.415
36.384
36.354
36.328
36.304
36.284
36.266
36.249
36.233
36.217
36.2
36.181
36.161
36.139
36.114
36.087
36.058
36.026
35.992
35.955
35.917
35.876
35.833
35.786
35.734
35.68
35.623
35.564
35.504
35.442
35.379
35.315
35.251
35.187
35.125
35.065
35.006
34.95
34.896
34.844
34.795
34.746
34.697
34.649
34.602
34.555
34.509
34.463
34.419
34.374
34.332
34.29
34.251
34.213
34.178
34.147
34.119
34.095
34.075
34.06
34.048
34.04
34.032
34.025
34.017
34.007
33.996
33.983
33.968
33.95
33.929
33.907
33.882
33.855
33.828
33.799
33.77
33.741
33.712
33.683
33.655
33.629
33.604
33.581
33.559
33.539
33.519
33.501
33.484
33.469
33.455
33.441
33.426
33.412
33.397
33.381
33.364
33.345
33.326
33.306
33.285
33.263
33.241
33.219
33.197
33.176
33.155
33.134
33.112
33.09
33.068
33.046
33.023
32.999
32.975
32.951
32.928
32.906
32.885
32.865
32.847
32.829
32.812
32.794
32.776
32.759
32.741
32.723
32.705
32.687
32.668
32.65
32.633
32.618
32.606
32.601
32.604
32.619
32.651
32.702
32.776
32.878
33.01
33.174
33.371
33.601
33.863
34.153
34.468
34.803
35.154
35.515
35.88
36.243
36.599
36.943
37.272
37.582
37.872
38.138
38.381
38.6
38.796
38.969
39.121
39.252
39.365
39.459
39.535
39.594
39.639
39.67
39.689
39.697
39.696
39.687
39.673
39.655
39.633
39.61
39.585
39.558
39.529
39.501
39.471
39.44
39.408
39.373
39.337
39.3
39.262
39.223
39.183
39.141
39.096
39.048
38.997
38.942
38.885
38.824
38.758
38.688
38.614
38.536
38.453
38.368
38.279
38.188
38.096
38.004
37.913
37.824
37.737
37.655
37.576
37.503
37.436
37.375
37.319
37.266
37.217
37.17
37.126
37.082
37.04
36.998
36.956
36.915
36.876
36.838
36.802
36.768
36.734
36.702
36.67
36.637
36.603
36.568
36.531
36.493
36.454
36.412
36.369
36.325
36.279
36.23
36.178
36.122
36.062
36.0
35.936
35.871
35.808
35.745
35.683
35.622
35.563
35.506
35.449
35.391
35.334
35.276
35.217
35.159
35.102
35.044
34.987
34.932
34.879
34.828
34.779
34.733
34.691
34.651
34.615
34.581
34.548
34.517
34.487
34.459
34.431
34.405
34.379
34.354
34.33
34.308
34.287
34.268
34.25
34.235
34.22
34.206
34.192
34.176
34.159
34.139
34.116
34.091
34.064
34.036
34.007
33.975
33.942
33.909
33.876
33.842
33.809
33.776
33.743
33.712
33.682
33.653
33.626
33.601
33.579
33.559
33.54
33.522
33.504
33.486
33.466
33.445
33.422
33.398
33.371
33.344
33.316
33.289
33.262
33.237
33.214
33.193
33.175
33.158
33.142
33.127
33.112
33.098
33.083
33.068
33.05
33.03
33.008
32.984
32.958
32.931
32.903
32.877
32.851
32.827
32.805
32.785
32.768
32.755
32.746
32.743
32.747
32.761
32.786
32.827
32.886
32.966
33.071
33.203
33.364
33.557
33.78
34.031
34.309
34.611
34.935
35.275
35.628
35.988
36.347
36.7
37.042
37.367
37.672
37.953
38.209
38.436
38.635
38.806
38.951
39.071
39.168
39.244
39.3
39.34
39.365
39.378
39.381
39.376
39.364
39.346
39.324
39.3
39.273
39.246
39.217
39.188
39.157
39.125
39.094
39.063
39.032
39.002
38.973
38.944
38.917
38.891
38.864
38.836
38.805
38.77
38.73
38.684
38.631
38.569
38.5
38.423
38.339
38.247
38.15
38.049
37.948
37.847
37.747
37.651
37.561
37.476
37.399
37.329
37.265
37.208
37.156
37.106
37.059
37.015
36.973
36.932
36.893
36.855
36.818
36.78
36.743
36.705
36.666
36.627
36.588
36.549
36.511
36.475
36.44
36.405
36.371
36.337
36.303
36.268
36.231
36.193
36.153
36.112
36.068
36.023
35.975
35.925
35.871
35.815
35.755
35.694
35.63
35.565
35.5
35.434
35.369
35.304
35.24
35.178
35.118
35.06
35.003
34.949
34.898
34.85
34.805
34.762
34.721
34.681
34.641
34.602
34.563
34.525
34.488
34.453
34.418
34.385
34.352
34.322
34.292
34.264
34.237
34.211
34.185
34.159
34.134
34.111
34.088
34.067
34.047
34.027
34.009
33.991
33.973
33.956
33.938
33.919
33.899
33.876
33.852
33.826
33.799
33.769
33.739
33.708
33.679
33.649
33.62
33.592
33.566
33.54
33.516
33.493
33.472
33.452
33.433
33.415
33.398
33.381
33.365
33.348
33.331
33.314
33.295
33.276
33.256
33.235
33.214
33.194
33.173
33.153
33.133
33.114
33.094
33.073
33.05
33.027
33.003
32.978
32.953
32.93
32.907
32.885
32.864
32.844
32.823
32.801
32.778
32.753
32.729
32.705
32.683
32.666
32.657
32.659
32.677
32.712
32.769
32.85
32.957
33.092
33.255
33.446
33.664
33.908
34.174
34.459
34.759
35.07
35.387
35.706
36.022
36.333
36.635
36.924
37.197
37.454
37.692
37.911
38.109
38.289
38.448
38.589
38.711
38.815
38.901
38.969
39.021
39.056
39.077
39.086
39.085
39.078
39.067
39.054
39.037
39.018
38.996
38.97
38.94
38.904
38.862
38.815
38.764
38.708
38.649
38.587
38.523
38.458
38.394
38.33
38.266
38.202
38.138
38.072
38.005
37.934
37.861
37.784
37.703
37.619
37.533
37.445
37.356
37.267
37.18
37.096
37.016
36.941
36.871
36.807
36.75
36.698
36.653
36.613
36.578
36.547
36.521
36.497
36.477
36.46
36.444
36.43
36.415
36.399
36.382
36.363
36.341
36.315
36.285
36.252
36.215
36.176
36.135
36.091
36.046
36.001
35.957
35.915
35.874
35.833
35.792
35.751
35.709
35.665
35.618
35.57
35.519
35.467
35.413
35.358
35.301
35.243
35.185
35.127
35.069
35.012
34.957
34.904
34.853
34.804
34.758
34.715
34.674
34.636
34.599
34.564
34.531
34.501
34.471
34.444
34.42
34.398
34.378
34.36
34.343
34.327
34.312
34.297
34.283
34.267
34.252
34.235
34.217
34.198
34.177
34.154
34.129
34.103
34.076
34.05
34.025
34.0
33.978
33.959
33.943
33.925
33.903
33.878
33.849
33.818
33.787
33.757
33.729
33.703
33.68
33.66
33.643
33.628
33.614
33.602
33.59
33.58
33.57
33.561
33.551
33.542
33.532
33.521
33.51
33.498
33.485
33.471
33.455
33.438
33.419
33.397
33.371
33.342
33.31
33.277
33.242
33.207
33.172
33.138
33.107
33.078
33.052
33.027
33.004
32.983
32.964
32.948
32.935
32.926
32.924
32.929
32.943
32.971
33.015
33.077
33.16
33.268
33.401
33.56
33.745
33.955
34.188
34.443
34.717
35.006
35.308
35.618
35.93
36.24
36.543
36.837
37.117
37.381
37.628
37.855
38.061
38.246
38.408
38.548
38.664
38.757
38.829
38.88
38.913
38.93
38.93
38.917
38.893
38.859
38.818
38.772
38.723
38.671
38.618
38.564
38.51
38.456
38.402
38.349
38.297
38.247
38.198
38.151
38.105
38.058
38.01
37.96
37.907
37.85
37.789
37.725
37.656
37.583
37.505
37.424
37.341
37.256
37.17
37.087
37.006
36.93
36.861
36.797
36.739
36.686
36.638
36.595
36.556
36.52
36.489
36.46
36.434
36.408
36.384
36.36
36.337
36.313
36.289
36.264
36.24
36.215
36.19
36.165
36.139
36.111
36.082
36.053
36.022
35.991
35.959
35.927
35.895
35.864
35.833
35.802
35.769
35.734
35.697
35.657
35.613
35.566
35.514
35.46
35.402
35.341
35.279
35.215
35.15
35.084
35.019
34.956
34.895
34.836
34.78
34.727
34.676
34.628
34.582
34.538
34.496
34.455
34.418
34.385
34.354
34.327
34.301
34.278
34.257
34.237
34.218
34.2
34.182
34.166
34.15
34.135
34.12
34.104
34.087
34.07
34.053
34.034
34.014
33.993
33.971
33.948
33.927
33.906
33.887
33.87
33.854
33.838
33.824
33.81
33.794
33.778
33.761
33.741
33.72
33.697
33.673
33.647
33.62
33.593
33.566
33.539
33.514
33.491
33.469
33.449
33.431
33.415
33.401
33.389
33.377
33.364
33.351
33.335
33.318
33.298
33.274
33.247
33.218
33.186
33.154
33.122
33.091
33.06
33.031
33.003
32.978
32.955
32.933
32.914
32.897
32.881
32.869
32.859
32.852
32.849
32.851
32.862
32.883
32.918
32.97
33.043
33.14
33.264
33.417
33.599
