Trial 3:3back
33.808
33.792
33.773
33.752
33.729
33.705
33.68
33.655
33.631
33.606
33.582
33.56
33.539
33.521
33.508
33.501
33.501
33.511
33.532
33.566
33.616
33.682
33.767
33.872
33.998
34.144
34.309
34.493
34.694
34.909
35.136
35.371
35.612
35.854
36.096
36.333
36.563
36.783
36.992
37.188
37.367
37.53
37.676
37.804
37.913
38.005
38.08
38.14
38.184
38.216
38.235
38.242
38.238
38.223
38.2
38.169
38.133
38.091
38.045
37.994
37.94
37.883
37.825
37.765
37.705
37.643
37.58
37.514
37.444
37.372
37.297
37.22
37.141
37.062
36.981
36.899
36.818
36.736
36.655
36.577
36.502
36.431
36.366
36.308
36.256
36.211
36.173
36.146
36.129
36.119
36.114
36.113
36.114
36.115
36.116
36.117
36.118
36.119
36.121
36.122
36.125
36.129
36.134
36.141
36.149
36.158
36.169
36.18
36.192
36.203
36.213
36.222
36.229
36.235
36.237
36.236
36.231
36.223
36.209
36.192
36.17
36.145
36.116
36.085
36.05
36.011
35.967
35.92
35.87
35.817
35.763
35.709
35.655
35.601
35.545
35.488
35.431
35.374
35.319
35.265
35.212
35.16
35.108
35.056
35.004
34.952
34.901
34.852
34.805
34.76
34.717
34.675
34.635
34.597
34.56
34.525
34.49
34.457
34.425
34.394
34.365
34.337
34.311
34.288
34.266
34.245
34.224
34.205
34.186
34.167
34.149
34.132
34.115
34.099
34.084
34.07
34.058
34.047
34.038
34.029
34.021
34.013
34.004
33.993
33.981
33.968
33.953
33.938
33.922
33.906
33.889
33.872
33.854
33.837
33.82
33.804
33.789
33.774
33.759
33.745
33.73
33.713
33.694
33.674
33.653
33.63
33.607
33.583
33.558
33.533
33.507
33.482
33.46
33.442
33.43
33.426
33.433
33.453
33.489
33.541
33.613
33.703
33.812
33.941
34.088
34.253
34.433
34.627
34.832
35.046
35.268
35.492
35.718
35.942
36.161
36.374
36.577
36.769
36.947
37.111
37.261
37.394
37.51
37.609
37.691
37.756
37.806
37.841
37.862
37.871
37.868
37.854
37.831
37.799
37.761
37.719
37.673
37.626
37.575
37.522
37.466
37.406
37.344
37.28
37.214
37.146
37.074
37.0
36.924
36.844
36.762
36.679
36.595
36.51
36.425
36.34
36.256
36.174
36.094
36.017
35.944
35.876
35.812
35.753
35.702
35.659
35.625
35.599
35.58
35.568
35.563
35.563
35.568
35.577
35.59
35.606
35.624
35.644
35.664
35.685
35.707
35.729
35.75
35.772
35.792
35.812
35.831
35.849
35.864
35.876
35.886
35.892
35.895
35.895
35.891
35.883
35.872
35.856
35.836
35.811
35.782
35.748
35.712
35.673
35.63
35.585
35.537
35.486
35.433
35.378
35.323
35.266
35.21
35.154
35.098
35.042
34.987
34.932
34.877
34.823
34.77
34.718
34.667
34.617
34.567
34.518
34.47
34.423
34.376
34.33
34.286
34.244
34.204
34.167
34.132
34.1
34.072
34.047
34.027
34.009
33.993
33.978
33.961
33.939
33.909
33.874
33.834
33.793
33.755
33.722
33.695
33.677
33.667
33.665
33.67
33.68
33.696
33.714
33.735
33.758
33.78
33.802
33.822
33.839
33.852
33.861
33.866
33.865
33.86
33.851
33.838
33.821
33.8
33.776
33.749
33.72
33.69
33.658
33.626
33.594
33.561
33.528
33.496
33.464
33.432
33.402
33.374
33.347
33.322
33.301
33.282
33.268
33.26
33.26
33.27
33.291
33.326
33.375
33.44
33.521
33.619
33.733
33.865
34.013
34.176
34.353
34.541
34.736
34.937
35.141
35.345
35.549
35.748
35.941
36.124
36.296
36.455
36.601
36.732
36.847
36.948
37.031
37.098
37.15
37.186
37.209
37.221
37.223
37.217
37.203
37.182
37.154
37.12
37.079
37.034
36.984
36.931
36.874
36.814
36.751
36.684
36.614
36.54
36.463
36.385
36.306
36.226
36.145
36.065
35.984
35.904
35.825
35.746
35.667
35.589
35.511
35.435
35.362
35.293
35.229
35.171
35.118
35.072
35.031
34.997
34.97
34.952
34.942
34.941
34.948
34.964
34.986
35.015
35.049
35.088
35.13
35.174
35.219
35.263
35.306
35.348
35.387
35.422
35.453
35.48
35.503
35.521
35.534
35.543
35.548
35.549
35.546
35.538
35.528
35.515
35.499
35.481
35.459
35.433
35.402
35.367
35.329
35.289
35.247
35.204
35.16
35.115
35.068
35.019
34.969
34.919
34.869
34.82
34.772
34.724
34.676
34.627
34.578
34.53
34.485
34.444
34.405
34.37
34.335
34.3
34.266
34.232
34.2
34.169
34.14
34.113
34.087
34.062
34.037
34.013
33.99
33.97
33.951
33.936
33.923
33.912
33.902
33.893
33.886
33.879
33.874
33.87
33.866
33.862
33.858
33.853
33.848
33.842
33.835
33.829
33.822
33.816
33.81
33.805
33.802
33.799
33.798
33.798
33.798
33.799
33.798
33.796
33.792
33.785
33.777
33.767
33.757
33.746
33.733
33.719
33.703
33.685
33.665
33.642
33.618
33.592
33.565
33.537
33.509
33.481
33.455
33.431
33.41
33.393
33.38
33.374
33.373
33.381
33.399
33.429
33.471
33.528
33.601
33.688
33.791
33.91
34.043
34.19
34.35
34.52
34.699
34.883
35.07
35.258
35.444
35.626
35.803
35.972
36.131
36.28
36.416
36.54
36.649
36.744
36.823
36.888
36.939
36.977
37.002
37.015
37.017
37.008
36.99
36.964
36.93
36.891
36.847
36.798
36.746
36.69
36.631
36.568
36.503
36.436
36.37
36.304
36.242
36.186
36.134
36.085
36.037
35.988
35.935
35.877
35.813
35.741
35.662
35.578
35.491
35.404
35.317
35.233
35.153
35.078
35.009
34.949
34.897
34.857
34.827
34.808
34.8
34.801
34.811
34.83
34.855
34.886
34.921
34.96
35.0
35.041
35.081
35.121
35.16
35.198
35.235
35.27
35.303
35.333
35.359
35.381
35.399
35.412
35.421
35.424
35.421
35.414
35.403
35.388
35.37
35.349
35.325
35.299
35.271
35.241
35.209
35.174
35.138
35.101
35.061
35.019
34.975
34.929
34.882
34.835
34.787
34.738
34.69
34.641
34.594
34.548
34.505
34.464
34.427
34.395
34.366
34.34
34.319
34.299
34.281
34.265
34.249
34.233
34.216
34.2
34.183
34.165
34.148
34.13
34.112
34.094
34.076
34.059
34.043
34.029
34.017
34.005
33.995
33.985
33.977
33.97
33.965
33.961
33.958
33.955
33.953
33.95
33.946
33.941
33.935
33.927
33.917
33.904
33.889
33.871
33.852
33.831
33.809
33.787
33.767
33.749
33.733
33.719
33.708
33.7
33.695
33.694
33.698
33.705
33.718
33.736
33.761
33.795
33.84
33.896
33.965
34.046
34.14
34.245
34.36
34.485
34.619
34.759
34.906
35.057
35.213
35.37
35.527
35.682
35.834
35.98
36.12
36.252
36.376
36.49
36.592
36.684
36.764
36.832
36.888
36.932
36.965
36.986
36.997
36.998
36.989
36.973
36.949
36.92
36.886
36.848
36.808
36.764
36.718
36.67
36.62
36.568
36.516
36.464
36.413
36.361
36.309
36.256
36.202
36.148
36.093
36.037
35.981
35.925
35.867
35.81
35.753
35.697
35.641
35.588
35.536
35.487
35.441
35.4
35.364
35.334
35.31
35.292
35.28
35.273
35.27
35.271
35.274
35.281
35.292
35.306
35.324
35.343
35.364
35.386
35.406
35.426
35.445
35.463
35.48
35.496
35.511
35.523
35.534
35.542
35.547
35.549
35.548
35.543
35.534
35.521
35.505
35.485
35.462
35.435
35.406
35.374
35.341
35.305
35.269
35.231
35.193
35.155
35.116
35.076
35.034
34.991
34.947
34.903
34.859
34.815
34.773
34.731
34.69
34.65
34.612
34.576
34.542
34.511
34.481
34.453
34.427
34.4
34.373
34.347
34.319
34.292
34.264
34.236
34.209
34.183
34.158
34.134
34.112
34.091
34.073
34.055
34.04
34.025
34.013
34.002
33.993
33.987
33.982
33.978
33.974
33.97
33.967
33.965
33.964
33.964
33.965
33.966
33.967
33.966
33.962
33.954
33.943
33.928
33.911
33.891
33.868
33.843
33.817
33.791
33.765
33.74
33.716
33.694
33.673
33.655
33.64
33.629
33.622
33.622
33.628
33.642
33.666
33.699
33.744
33.802
33.874
33.962
34.066
34.183
34.313
34.455
34.606
34.764
34.928
35.093
35.256
35.416
35.57
35.719
35.861
35.999
36.13
36.255
36.371
36.477
36.572
36.657
36.73
36.793
36.846
36.888
36.92
36.942
36.955
36.959
36.956
36.946
36.93
36.908
36.882
36.852
36.819
36.784
36.748
36.713
36.677
36.642
36.608
36.575
36.542
36.51
36.479
36.447
36.414
36.379
36.342
36.302
36.259
36.213
36.165
36.115
36.063
36.009
35.953
35.897
35.84
35.785
35.73
35.677
35.628
35.581
35.539
35.502
35.472
35.449
35.436
35.432
35.437
35.45
35.47
35.496
35.525
35.556
35.587
35.616
35.644
35.669
35.691
35.71
35.725
35.736
35.745
35.749
35.751
35.751
35.749
35.745
35.74
35.731
35.721
35.707
35.691
35.672
35.653
35.632
35.611
35.588
35.562
35.534
35.504
35.471
35.436
35.401
35.364
35.328
35.292
35.255
35.219
35.182
35.146
35.111
35.077
35.044
35.01
34.976
34.941
34.905
34.868
34.832
34.797
34.763
34.729
34.696
34.664
34.632
34.601
34.572
34.544
34.517
34.493
34.47
34.447
34.426
34.407
34.389
34.375
34.363
34.353
34.345
34.337
34.33
34.322
34.314
34.305
34.293
34.279
34.262
34.243
34.224
34.205
34.187
34.171
34.157
34.145
34.134
34.126
34.119
34.113
34.108
34.103
34.097
34.092
34.086
34.078
34.069
34.058
34.046
34.031
34.016
33.999
33.981
33.963
33.944
33.923
33.9
33.876
33.85
33.824
33.797
33.772
33.747
33.724
33.704
33.689
33.68
33.678
33.686
33.704
33.733
33.773
33.827
33.893
33.974
34.068
34.176
34.295
34.425
34.565
34.713
34.868
35.028
35.191
35.353
35.513
35.668
35.817
35.958
36.089
36.21
36.32
36.419
36.507
36.584
36.649
36.704
36.748
36.782
36.807
36.824
36.833
36.835
36.83
36.819
36.803
36.782
36.756
36.726
36.694
36.66
36.626
36.592
36.558
36.526
36.496
36.467
36.441
36.417
36.396
36.377
36.36
36.344
36.327
36.306
36.281
36.247
36.207
36.16
36.108
36.054
35.999
35.945
35.894
35.848
35.807
35.77
35.738
35.71
35.686
35.666
35.649
35.636
35.626
35.62
35.617
35.617
35.618
35.621
35.625
35.629
35.634
35.639
35.644
35.649
35.654
35.659
35.663
35.667
35.671
35.675
35.679
35.682
35.685
35.686
35.686
35.684
35.68
35.674
35.665
35.653
35.637
35.618
35.595
35.57
35.542
35.512
35.479
35.445
35.409
35.372
35.335
35.297
35.26
35.225
35.191
35.158
35.126
35.094
35.063
35.031
34.999
34.967
34.936
34.905
34.874
34.842
34.811
34.779
34.746
34.715
34.684
34.655
34.626
34.598
34.57
34.543
34.516
34.491
34.467
34.445
34.426
34.409
34.394
34.38
34.368
34.357
34.348
34.339
34.332
34.326
34.319
34.312
34.305
34.296
34.287
34.278
34.269
34.261
34.254
34.248
34.242
34.236
34.23
34.224
34.218
34.212
34.207
34.2
34.194
34.187
34.179
34.171
34.162
34.153
34.143
34.132
34.12
34.107
34.093
34.078
34.061
34.043
34.024
34.004
33.983
33.962
33.94
33.917
33.894
33.871
33.848
33.823
33.799
33.773
33.747
33.721
33.694
33.668
33.641
33.615
33.59
33.565
33.543
33.522
33.505
33.49
33.479
33.473
33.472
33.477
33.49
33.511
33.542
33.583
33.635
33.695
33.764
33.843
33.932
34.032
34.143
34.267
34.401
34.544
34.695
34.851
35.011
35.17
35.329
35.483
35.631
35.77
35.9
36.019
36.126
36.22
36.301
36.369
36.423
36.463
36.492
36.508
36.514
36.51
36.498
36.48
36.455
36.426
36.393
36.359
36.323
36.287
36.249
36.212
36.176
36.14
36.107
36.074
36.043
36.012
35.98
35.947
35.911
35.874
35.837
35.8
35.764
35.729
35.694
35.657
35.62
35.583
35.546
35.509
35.474
35.44
35.407
35.376
35.345
35.317
35.292
35.269
35.249
35.231
35.216
35.204
35.194
35.186
35.181
35.178
35.176
35.173
35.17
35.167
35.165
35.164
35.163
35.162
35.162
35.161
35.16
35.16
35.159
35.159
35.158
35.159
35.16
35.161
35.161
35.16
35.158
35.154
35.149
35.141
35.133
35.122
35.11
35.094
35.077
35.056
35.034
35.008
34.981
34.951
34.92
34.887
34.852
34.816
34.778
34.74
34.702
34.663
34.625
34.588
34.551
34.515
34.479
34.444
34.409
34.375
34.342
34.31
34.279
34.25
34.221
34.194
34.168
34.143
34.119
34.097
34.075
34.054
34.034
34.013
33.992
33.971
33.95
33.93
33.909
33.889
33.87
33.85
33.83
33.81
33.791
33.773
33.755
33.739
33.723
33.709
33.695
33.683
33.672
33.662
33.652
33.643
33.633
33.623
33.612
33.601
33.588
33.576
33.564
33.553
33.541
33.53
33.52
33.511
33.504
33.498
33.494
33.491
33.49
33.49
33.49
33.491
33.491
33.489
33.486
33.481
33.474
33.465
33.454
33.44
33.423
33.404
33.383
33.36
33.337
33.313
33.289
33.265
33.242
33.22
33.199
33.18
33.163
33.148
33.134
33.122
33.111
33.104
33.1
33.101
33.108
33.122
33.146
33.18
33.224
33.278
33.345
33.423
33.513
33.615
33.727
33.849
33.98
34.116
34.258
34.402
34.546
34.691
34.832
34.97
35.103
35.228
35.345
35.452
35.549
35.635
35.71
35.774
35.827
35.869
35.9
35.918
35.925
35.923
35.914
35.898
35.878
35.857
35.834
35.811
35.789
35.768
35.747
35.727
35.705
35.684
35.661
35.637
35.612
35.586
35.56
35.532
35.504
35.475
35.444
35.41
35.375
35.338
35.299
35.26
35.221
35.182
35.143
35.104
35.064
35.025
34.986
34.949
34.917
34.888
34.864
34.845
34.829
34.815
34.805
34.797
34.792
34.792
34.795
34.802
34.812
34.823
34.835
34.848
34.86
34.87
34.877
34.876
34.866
34.848
34.825
34.8
34.777
34.759
34.748
34.744
34.749
34.761
34.779
34.803
34.829
34.856
34.882
34.906
34.926
34.939
34.946
34.946
34.939
34.926
34.907
34.883
34.854
34.821
34.785
34.746
34.705
34.664
34.624
34.584
34.545
34.507
34.471
34.435
34.401
34.368
34.337
34.309
34.282
34.256
34.232
34.209
34.186
34.164
34.144
34.124
34.105
34.087
34.068
34.049
34.03
34.012
33.994
33.977
33.963
33.95
33.938
33.926
33.915
33.904
33.893
33.883
33.874
33.865
33.856
33.847
33.837
33.827
33.816
33.806
33.796
33.787
33.779
33.771
33.764
33.757
33.749
33.742
33.734
33.727
33.72
33.713
33.704
33.693
33.681
33.667
33.653
33.638
33.624
33.611
33.599
33.587
33.576
33.564
33.553
33.541
33.53
33.52
33.509
33.498
33.485
33.47
33.453
33.434
33.414
33.393
33.37
33.346
33.321
33.295
33.267
33.239
33.213
33.188
33.166
33.147
33.13
33.117
33.106
33.1
33.099
33.106
33.123
33.151
33.191
33.242
33.305
33.379
33.464
33.56
33.669
33.789
33.919
34.059
34.205
34.355
34.508
34.662
34.814
34.963
35.108
35.247
35.378
35.501
35.615
35.718
35.812
35.896
35.971
36.035
36.09
36.137
36.176
36.208
36.233
36.252
36.265
36.273
36.276
36.273
36.265
36.253
36.235
36.212
36.185
36.154
36.121
36.085
36.048
36.01
35.972
35.935
35.9
35.867
35.835
35.805
35.777
35.749
35.722
35.695
35.668
35.64
35.612
35.583
35.551
35.519
35.484
35.449
35.414
35.378
35.344
35.312
35.283
35.256
35.233
35.215
35.2
35.191
35.187
35.186
35.189
35.194
35.201
35.21
35.22
35.232
35.246
35.261
35.277
35.293
35.306
35.318
35.327
35.333
35.338
35.342
35.343
35.342
35.339
35.332
35.323
35.312
35.3
35.287
35.274
35.259
35.242
35.223
35.203
35.181
35.157
35.133
35.109
35.084
35.057
35.029
34.999
34.968
34.935
34.901
34.867
34.832
34.797
34.762
34.727
34.691
34.656
34.621
34.586
34.551
34.517
34.483
34.45
34.417
34.385
34.354
34.324
34.295
34.267
34.239
34.211
34.184
34.158
34.132
34.107
34.083
34.06
34.037
34.015
33.994
33.975
33.957
33.94
33.925
33.911
33.899
33.887
33.876
33.866
33.858
33.85
33.843
33.837
33.83
33.823
33.815
33.806
33.796
33.787
33.777
33.768
33.759
33.749
33.739
33.73
33.72
33.712
33.704
33.696
33.689
33.682
33.674
33.665
33.656
33.645
33.634
33.622
33.611
33.599
33.586
33.574
33.561
33.547
33.533
33.518
33.502
33.485
33.467
33.448
33.428
33.407
33.386
33.364
33.343
33.322
33.304
33.288
33.274
33.263
33.253
33.245
33.239
33.236
33.236
33.241
33.252
33.27
33.298
33.335
33.384
33.447
33.522
33.612
33.715
33.831
33.96
34.102
34.254
34.417
34.586
34.76
34.936
35.11
35.282
35.447
35.606
35.755
35.895
36.026
36.146
36.255
36.352
36.436
36.509
36.57
36.619
36.658
36.686
36.704
36.713
36.713
36.705
36.691
36.671
36.648
36.621
36.591
36.559
36.525
36.489
36.451
36.412
36.373
36.335
36.297
36.26
36.222
36.184
36.146
36.109
36.071
36.035
36.0
35.965
35.929
35.893
35.855
35.817
35.777
35.737
35.699
35.661
35.624
35.588
35.554
35.521
35.49
35.461
35.436
35.415
35.397
35.385
35.377
35.374
35.374
35.379
35.387
35.398
35.41
35.424
35.438
35.453
35.467
35.481
35.495
35.508
35.52
35.531
35.538
35.543
35.545
35.545
35.543
35.539
35.532
35.524
35.512
35.497
35.48
35.462
35.443
35.423
35.404
35.385
35.366
35.346
35.324
35.3
35.275
35.248
35.219
35.188
35.156
35.122
35.087
35.05
35.013
34.976
34.939
34.903
34.867
34.83
34.792
34.754
34.716
34.677
34.639
34.602
34.566
34.531
34.496
34.463
34.432
34.402
34.375
34.35
34.327
34.305
34.284
34.264
34.244
34.225
34.205
34.184
34.161
34.136
34.111
34.085
34.062
34.041
34.023
34.01
34.002
33.999
33.999
34.003
34.009
34.016
34.025
34.033
34.04
34.048
34.054
34.058
34.061
34.061
34.06
34.057
34.052
34.044
34.034
34.02
34.005
33.987
33.969
33.951
33.934
33.918
33.903
33.889
33.876
33.864
33.851
33.839
33.826
33.813
33.799
33.783
33.767
33.749
33.731
33.712
33.692
33.673
33.654
33.635
33.617
33.601
33.586
33.574
33.567
33.567
33.573
33.587
33.61
33.643
33.685
33.737
33.801
33.877
33.964
34.063
34.173
34.292
34.42
34.554
34.694
34.837
34.982
35.124
35.263
35.396
35.523
35.643
35.755
35.859
35.956
36.045
36.127
36.201
36.268
36.327
36.378
36.42
36.454
36.481
36.499
36.511
36.516
36.513
36.503
36.486
36.462
36.433
36.401
36.364
36.326
36.286
36.245
36.202
36.159
36.115
36.072
36.029
35.986
35.943
35.9
35.857
35.813
35.77
35.726
35.681
35.637
35.592
35.547
35.503
35.459
35.417
35.377
35.34
35.306
35.276
35.249
35.226
35.208
35.194
35.184
35.18
35.18
35.186
35.196
35.211
35.228
35.247
35.269
35.291
35.315
35.339
35.364
35.389
35.414
35.439
35.462
35.485
35.506
35.526
35.544
35.56
35.572
35.581
35.586
35.587
35.585
35.58
35.572
35.56
35.546
35.53
35.511
35.49
35.466
35.44
35.413
35.385
35.356
35.326
35.295
35.264
35.232
35.201
35.169
35.137
35.104
35.067
35.027
34.984
34.941
34.897
34.854
34.814
34.776
34.74
34.706
34.675
34.646
34.618
34.592
34.567
34.544
34.522
34.502
34.482
34.463
34.444
34.426
34.409
34.393
34.377
34.362
34.347
34.331
34.316
34.3
34.286
34.274
34.263
34.254
34.247
34.24
34.235
34.23
34.227
34.225
34.224
34.224
34.223
34.22
34.215
34.206
34.195
34.182
34.168
34.153
34.137
34.121
34.103
34.084
34.065
34.048
34.032
34.02
34.009
34.0
33.99
33.98
33.968
33.956
33.945
33.935
33.927
33.92
33.914
33.91
33.907
33.907
33.912
33.923
33.943
33.972
34.011
34.058
34.115
34.182
34.261
34.352
34.457
34.573
34.701
34.839
34.983
35.133
35.287
35.443
35.6
35.757
35.913
36.066
36.215
36.356
36.488
36.608
36.716
36.81
36.89
36.956
37.01
37.051
37.082
37.104
37.117
37.123
37.122
37.116
37.104
37.089
37.071
37.05
37.028
37.004
36.978
36.95
36.919
36.887
36.853
36.818
36.782
36.744
36.706
36.667
36.626
36.584
36.542
36.497
36.452
36.405
36.357
36.309
36.261
36.214
36.168
36.124
36.083
36.043
36.006
35.972
35.941
35.913
35.888
35.867
35.85
35.836
35.827
35.822
35.822
35.825
35.831
35.84
35.852
35.866
35.881
35.898
35.916
35.934
35.952
35.968
35.984
35.999
36.012
36.023
36.032
36.039
36.043
36.043
36.037
36.028
36.015
36.001
35.984
35.966
35.948
35.928
35.907
35.885
35.862
35.839
35.816
35.793
35.77
35.745
35.718
35.689
35.658
35.626
35.593
35.561
35.528
35.496
35.462
35.426
35.389
35.351
35.314
35.277
35.24
35.204
35.168
35.132
