Trial 3:3back
32.791
32.76
32.726
32.69
32.652
32.615
32.579
32.543
32.509
32.475
32.442
32.408
32.375
32.341
32.305
32.268
32.228
32.186
32.142
32.098
32.054
32.011
31.973
31.938
31.909
31.887
31.872
31.866
31.872
31.89
31.923
31.973
32.04
32.127
32.236
32.369
32.526
32.707
32.911
33.137
33.382
33.644
33.918
34.202
34.491
34.78
35.066
35.345
35.615
35.874
36.121
36.354
36.572
36.775
36.962
37.131
37.283
37.418
37.536
37.638
37.723
37.794
37.849
37.892
37.921
37.938
37.944
37.939
37.924
37.901
37.871
37.835
37.795
37.752
37.709
37.667
37.626
37.587
37.551
37.516
37.484
37.454
37.425
37.399
37.377
37.365
37.361
37.363
37.367
37.366
37.357
37.336
37.302
37.253
37.191
37.117
37.033
36.942
36.845
36.747
36.651
36.559
36.476
36.401
36.335
36.279
36.234
36.198
36.173
36.154
36.141
36.13
36.119
36.108
36.094
36.077
36.055
36.03
36.002
35.972
35.94
35.907
35.873
35.841
35.81
35.781
35.756
35.733
35.712
35.691
35.671
35.648
35.622
35.59
35.553
35.508
35.456
35.397
35.332
35.263
35.19
35.115
35.04
34.964
34.889
34.818
34.75
34.688
34.63
34.577
34.528
34.482
34.438
34.396
34.353
34.31
34.265
34.218
34.17
34.12
34.07
34.02
33.971
33.922
33.875
33.829
33.784
33.739
33.693
33.645
33.595
33.543
33.489
33.433
33.378
33.324
33.273
33.225
33.181
33.142
33.107
33.076
33.048
33.023
32.998
32.974
32.948
32.921
32.892
32.862
32.83
32.798
32.767
32.737
32.71
32.684
32.659
32.635
32.611
32.588
32.563
32.537
32.509
32.479
32.448
32.414
32.379
32.343
32.306
32.269
32.233
32.197
32.161
32.124
32.087
32.048
32.008
31.969
31.932
31.899
31.871
31.852
31.842
31.845
31.862
31.898
31.952
32.029
32.128
32.252
32.401
32.576
32.774
32.994
33.234
33.493
33.767
34.053
34.35
34.653
34.96
35.266
35.569
35.865
36.15
36.42
36.672
36.903
37.112
37.296
37.456
37.592
37.705
37.797
37.868
37.922
37.96
37.985
37.999
38.005
38.006
38.003
37.998
37.992
37.987
37.982
37.978
37.975
37.972
37.968
37.963
37.956
37.946
37.932
37.914
37.892
37.866
37.835
37.799
37.759
37.715
37.668
37.62
37.57
37.521
37.473
37.425
37.378
37.33
37.281
37.233
37.182
37.131
37.078
37.024
36.969
36.914
36.86
36.807
36.755
36.706
36.66
36.617
36.578
36.543
36.512
36.485
36.461
36.441
36.422
36.404
36.385
36.365
36.341
36.314
36.283
36.248
36.209
36.166
36.119
36.07
36.02
35.972
35.925
35.881
35.84
35.803
35.768
35.734
35.702
35.671
35.639
35.605
35.568
35.527
35.481
35.429
35.372
35.31
35.244
35.177
35.109
35.04
34.971
34.902
34.833
34.765
34.696
34.625
34.554
34.48
34.407
34.334
34.262
34.194
34.13
34.071
34.017
33.969
33.924
33.882
33.843
33.806
33.771
33.738
33.707
33.676
33.645
33.613
33.581
33.547
33.512
33.476
33.44
33.403
33.366
33.328
33.289
33.248
33.206
33.162
33.117
33.07
33.022
32.974
32.926
32.879
32.834
32.792
32.754
32.72
32.69
32.663
32.637
32.613
32.589
32.564
32.539
32.515
32.491
32.468
32.446
32.426
32.408
32.39
32.373
32.355
32.335
32.313
32.288
32.259
32.228
32.194
32.159
32.127
32.098
32.071
32.044
32.014
31.98
31.943
31.906
31.87
31.838
31.811
31.792
31.783
31.785
31.8
31.83
31.877
31.944
32.032
32.143
32.279
32.439
32.625
32.835
33.068
33.32
33.589
33.872
34.166
34.468
34.775
35.081
35.384
35.68
35.966
36.24
36.498
36.739
36.961
37.162
37.34
37.496
37.63
37.742
37.833
37.905
37.96
37.999
38.026
38.042
38.049
38.05
38.046
38.041
38.034
38.028
38.022
38.016
38.012
38.009
38.007
38.007
38.007
38.006
38.005
38.0
37.992
37.978
37.959
37.934
37.902
37.863
37.818
37.768
37.711
37.651
37.588
37.524
37.459
37.395
37.332
37.271
37.212
37.156
37.104
37.057
37.013
36.974
36.937
36.901
36.865
36.828
36.791
36.753
36.714
36.675
36.636
36.598
36.561
36.525
36.49
36.457
36.426
36.397
36.37
36.344
36.318
36.291
36.263
36.233
36.202
36.169
36.135
36.098
36.06
36.021
35.982
35.944
35.909
35.875
35.842
35.809
35.775
35.739
35.702
35.661
35.616
35.565
35.509
35.448
35.383
35.315
35.246
35.177
35.107
35.037
34.969
34.903
34.838
34.775
34.711
34.647
34.582
34.517
34.453
34.39
34.329
34.269
34.212
34.157
34.107
34.061
34.02
33.984
33.951
33.92
33.89
33.86
33.829
33.797
33.763
33.726
33.687
33.647
33.606
33.566
33.525
33.485
33.444
33.403
33.36
33.316
33.273
33.231
33.19
33.15
33.112
33.075
33.041
33.009
32.981
32.955
32.932
32.91
32.888
32.865
32.841
32.815
32.788
32.759
32.729
32.698
32.667
32.637
32.608
32.58
32.553
32.528
32.503
32.477
32.449
32.42
32.388
32.356
32.323
32.292
32.263
32.236
32.213
32.194
32.182
32.179
32.186
32.203
32.235
32.283
32.35
32.439
32.551
32.689
32.852
33.039
33.25
33.481
33.732
34.0
34.281
34.571
34.867
35.165
35.463
35.756
36.043
36.321
36.586
36.838
37.074
37.293
37.492
37.672
37.832
37.97
38.088
38.186
38.265
38.325
38.369
38.399
38.415
38.421
38.418
38.408
38.392
38.371
38.347
38.323
38.299
38.278
38.258
38.241
38.228
38.219
38.213
38.209
38.206
38.202
38.197
38.187
38.171
38.148
38.116
38.075
38.025
37.967
37.902
37.831
37.755
37.675
37.594
37.514
37.436
37.363
37.295
37.233
37.176
37.125
37.079
37.037
37.0
36.965
36.933
36.903
36.875
36.85
36.827
36.806
36.788
36.772
36.756
36.742
36.728
36.713
36.697
36.678
36.656
36.63
36.601
36.568
36.53
36.487
36.439
36.389
36.336
36.283
36.23
36.179
36.129
36.08
36.033
35.986
35.941
35.897
35.853
35.808
35.763
35.716
35.667
35.615
35.559
35.5
35.438
35.374
35.31
35.247
35.185
35.124
35.065
35.007
34.949
34.89
34.831
34.772
34.713
34.653
34.593
34.532
34.471
34.411
34.353
34.298
34.247
34.199
34.156
34.116
34.08
34.047
34.015
33.983
33.953
33.922
33.892
33.861
33.829
33.797
33.764
33.729
33.692
33.655
33.616
33.577
33.537
33.497
33.455
33.413
33.37
33.327
33.285
33.243
33.202
33.161
33.118
33.074
33.031
32.989
32.949
32.914
32.885
32.86
32.839
32.82
32.803
32.789
32.775
32.76
32.744
32.725
32.702
32.676
32.646
32.612
32.575
32.537
32.5
32.465
32.435
32.409
32.387
32.37
32.358
32.35
32.347
32.349
32.356
32.371
32.396
32.433
32.484
32.553
32.641
32.751
32.886
33.048
33.237
33.453
33.695
33.96
34.245
34.546
34.86
35.182
35.507
35.83
36.148
36.458
36.755
37.038
37.305
37.553
37.782
37.991
38.18
38.348
38.496
38.623
38.73
38.817
38.884
38.934
38.966
38.982
38.984
38.974
38.954
38.924
38.888
38.848
38.804
38.759
38.715
38.673
38.634
38.6
38.57
38.545
38.524
38.508
38.495
38.483
38.47
38.454
38.435
38.41
38.378
38.34
38.293
38.238
38.175
38.106
38.03
37.949
37.863
37.774
37.685
37.599
37.517
37.442
37.375
37.318
37.27
37.232
37.204
37.183
37.17
37.162
37.157
37.154
37.15
37.147
37.141
37.133
37.121
37.107
37.09
37.07
37.048
37.023
36.995
36.965
36.934
36.9
36.864
36.826
36.785
36.74
36.693
36.643
36.59
36.537
36.481
36.424
36.366
36.307
36.248
36.19
36.134
36.08
36.027
35.976
35.927
35.879
35.831
35.782
35.731
35.677
35.618
35.557
35.492
35.426
35.359
35.292
35.225
35.158
35.094
35.031
34.971
34.913
34.857
34.802
34.749
34.696
34.644
34.593
34.544
34.495
34.449
34.405
34.363
34.324
34.289
34.256
34.227
34.201
34.176
34.153
34.129
34.105
34.08
34.052
34.022
33.988
33.952
33.913
33.873
33.834
33.795
33.756
33.718
33.68
33.643
33.605
33.568
33.531
33.495
33.46
33.426
33.393
33.362
33.333
33.305
33.279
33.254
33.23
33.206
33.182
33.157
33.132
33.106
33.08
33.054
33.029
33.006
32.986
32.97
32.96
32.957
32.961
32.976
33.001
33.04
33.095
33.167
33.259
33.372
33.507
33.667
33.851
34.059
34.29
34.542
34.811
35.093
35.386
35.685
35.986
36.285
36.579
36.864
37.136
37.394
37.635
37.858
38.064
38.251
38.419
38.568
38.698
38.811
38.906
38.986
39.05
39.1
39.138
39.163
39.175
39.177
39.169
39.151
39.125
39.091
39.05
39.003
38.952
38.898
38.845
38.793
38.744
38.7
38.661
38.627
38.597
38.572
38.549
38.528
38.507
38.486
38.462
38.435
38.404
38.366
38.321
38.269
38.209
38.143
38.07
37.991
37.91
37.826
37.743
37.662
37.583
37.509
37.441
37.38
37.325
37.277
37.236
37.201
37.172
37.149
37.129
37.113
37.099
37.086
37.072
37.058
37.043
37.027
37.01
36.993
36.975
36.957
36.939
36.92
36.899
36.876
36.851
36.822
36.788
36.748
36.703
36.65
36.59
36.524
36.452
36.376
36.297
36.216
36.137
36.059
35.985
35.915
35.849
35.787
35.729
35.673
35.619
35.567
35.514
35.461
35.405
35.348
35.288
35.225
35.16
35.094
35.028
34.964
34.903
34.845
34.79
34.738
34.688
34.64
34.591
34.542
34.492
34.442
34.393
34.343
34.295
34.247
34.2
34.154
34.11
34.067
34.027
33.988
33.952
33.918
33.885
33.853
33.822
33.791
33.76
33.731
33.703
33.678
33.654
33.631
33.61
33.588
33.565
33.542
33.517
33.49
33.46
33.429
33.395
33.359
33.321
33.283
33.244
33.206
33.169
33.131
33.092
33.051
33.008
32.964
32.919
32.874
32.83
32.789
32.751
32.716
32.685
32.657
32.632
32.61
32.591
32.575
32.562
32.551
32.545
32.544
32.551
32.569
32.6
32.647
32.712
32.797
32.903
33.033
33.186
33.364
33.566
33.79
34.034
34.295
34.573
34.863
35.164
35.473
35.787
36.104
36.419
36.731
37.035
37.33
37.612
37.879
38.128
38.357
38.566
38.751
38.912
39.05
39.166
39.259
39.33
39.382
39.415
39.43
39.43
39.417
39.394
39.363
39.328
39.29
39.251
39.214
39.178
39.145
39.113
39.083
39.056
39.029
39.003
38.977
38.95
38.922
38.893
38.863
38.831
38.798
38.76
38.719
38.672
38.621
38.567
38.509
38.448
38.385
38.32
38.254
38.186
38.117
38.048
37.979
37.911
37.844
37.779
37.716
37.655
37.597
37.541
37.489
37.44
37.394
37.353
37.317
37.287
37.261
37.241
37.226
37.214
37.206
37.2
37.195
37.188
37.179
37.166
37.147
37.122
37.09
37.052
37.006
36.956
36.9
36.841
36.78
36.718
36.656
36.593
36.529
36.466
36.403
36.338
36.273
36.207
36.14
36.071
36.001
35.93
35.858
35.786
35.715
35.645
35.576
35.51
35.446
35.384
35.326
35.27
35.217
35.165
35.114
35.061
35.007
34.952
34.896
34.84
34.783
34.727
34.672
34.618
34.566
34.515
34.465
34.415
34.365
34.315
34.264
34.212
34.159
34.107
34.055
34.004
33.956
33.911
33.872
33.837
33.808
33.784
33.763
33.744
33.726
33.707
33.685
33.662
33.637
33.611
33.584
33.556
33.526
33.496
33.465
33.434
33.401
33.368
33.333
33.296
33.257
33.215
33.17
33.124
33.078
33.033
32.99
32.949
32.911
32.875
32.84
32.807
32.776
32.746
32.717
32.691
32.669
32.652
32.643
32.644
32.658
32.686
32.733
32.799
32.886
32.997
33.132
33.29
33.471
33.675
33.901
34.146
34.41
34.69
34.983
35.287
35.598
35.912
36.224
36.532
36.831
37.117
37.387
37.637
37.866
38.071
38.253
38.41
38.543
38.653
38.742
38.811
38.862
38.898
38.92
38.931
38.934
38.933
38.928
38.921
38.912
38.902
38.89
38.875
38.857
38.836
38.812
38.784
38.751
38.714
38.671
38.622
38.568
38.509
38.446
38.379
38.309
38.236
38.163
38.09
38.017
37.945
37.874
37.805
37.738
37.672
37.608
37.546
37.484
37.423
37.363
37.304
37.245
37.188
37.134
37.083
37.036
36.994
36.956
36.924
36.895
36.871
36.85
36.832
36.815
36.8
36.784
36.766
36.746
36.721
36.692
36.658
36.62
36.579
36.536
36.492
36.449
36.408
36.368
36.331
36.295
36.26
36.225
36.19
36.153
36.114
36.071
36.024
35.972
35.915
35.851
35.783
35.71
35.635
35.558
35.482
35.408
35.336
35.265
35.197
35.13
35.065
35.001
34.939
34.878
34.818
34.759
34.7
34.64
34.58
34.519
34.459
34.399
34.34
34.282
34.226
34.173
34.122
34.073
34.024
33.977
33.93
33.884
33.84
33.797
33.753
33.708
33.662
33.615
33.569
33.523
33.478
33.434
33.39
33.347
33.304
33.263
33.223
33.184
33.147
33.111
33.076
33.042
33.007
32.972
32.937
32.902
32.87
32.84
32.812
32.787
32.764
32.743
32.725
32.709
32.696
32.683
32.671
32.656
32.64
32.621
32.601
32.579
32.556
32.533
32.508
32.482
32.455
32.427
32.397
32.366
32.332
32.295
32.257
32.217
32.176
32.137
32.101
32.069
32.043
32.026
32.02
32.026
32.048
32.088
32.147
32.229
32.335
32.467
32.627
32.814
33.03
33.273
33.542
33.835
34.149
34.479
34.82
35.17
35.524
35.877
36.224
36.56
36.881
37.183
37.463
37.719
37.95
38.156
38.336
38.491
38.623
38.734
38.825
38.897
38.953
38.994
39.023
39.04
39.049
39.049
39.041
39.028
39.008
38.984
38.956
38.925
38.891
38.854
38.816
38.778
38.741
38.706
38.673
38.643
38.615
38.589
38.563
38.538
38.51
38.48
38.444
38.401
38.35
38.291
38.222
38.143
38.055
37.96
37.859
37.757
37.654
37.555
37.461
37.375
37.298
37.231
37.176
37.131
37.094
37.066
37.042
37.023
37.006
36.989
36.97
36.95
36.925
36.897
36.866
36.833
36.799
36.764
36.729
36.695
36.66
36.624
36.586
36.547
36.505
36.46
36.411
36.359
36.303
36.244
36.183
36.122
36.059
35.997
35.934
35.871
35.809
35.75
35.693
35.636
35.58
35.522
35.464
35.404
35.343
35.28
35.216
35.15
35.084
35.018
34.953
34.889
34.825
34.762
34.7
34.638
34.576
34.514
34.451
34.387
34.32
34.252
34.183
34.113
34.044
33.978
33.916
33.859
33.805
33.757
33.712
33.671
33.633
33.597
33.565
33.535
33.506
33.478
33.451
33.424
33.398
33.372
33.348
33.324
33.299
33.272
33.243
33.209
33.173
33.135
33.095
33.055
33.015
32.976
32.938
32.902
32.867
32.836
32.806
32.778
32.75
32.722
32.694
32.666
32.638
32.612
32.588
32.566
32.544
32.522
32.5
32.477
32.453
32.429
32.405
32.381
32.358
32.334
32.309
32.284
32.259
32.236
32.213
32.192
32.172
32.154
32.14
32.133
32.136
32.152
32.185
32.238
32.313
32.411
32.535
32.686
32.864
33.067
33.295
33.544
33.812
34.094
34.389
34.693
35.002
35.314
35.625
35.931
36.229
36.517
36.793
37.054
37.297
37.521
37.725
37.906
38.064
38.199
38.312
38.401
38.469
38.516
38.544
38.555
38.551
38.534
38.506
38.469
38.428
38.384
38.341
38.299
38.26
38.224
38.192
38.163
38.138
38.116
38.095
38.074
38.053
38.03
38.005
37.976
37.942
37.902
37.854
37.798
37.736
37.668
37.596
37.52
37.442
37.363
37.283
37.205
37.128
37.054
36.982
36.912
36.846
36.783
36.723
36.667
36.613
36.561
36.512
36.465
36.423
36.385
36.352
36.325
36.303
36.288
36.277
36.271
36.268
36.267
36.268
36.268
36.265
36.258
36.246
36.228
36.204
36.173
36.137
36.095
36.049
36.0
35.95
35.898
35.846
35.793
35.738
35.68
35.62
35.558
35.493
35.425
35.354
35.28
35.204
35.126
35.049
34.973
34.9
34.83
34.764
34.702
34.645
34.592
34.543
34.498
34.455
34.414
34.374
34.335
34.297
34.259
34.223
34.186
34.149
34.109
34.067
34.021
33.972
33.92
33.867
33.814
33.761
33.709
33.66
33.613
33.571
33.531
33.495
33.459
33.424
33.386
33.346
33.304
33.261
33.218
33.175
33.132
33.091
33.051
33.013
32.977
32.944
32.914
32.886
32.858
32.832
32.805
32.778
32.752
32.726
32.703
32.681
32.661
32.643
32.628
32.615
32.609
32.612
32.629
32.666
32.724
32.804
32.904
33.025
33.164
33.322
33.496
33.686
33.889
34.105
34.332
34.568
34.814
35.067
35.328
35.593
35.86
36.127
36.392
36.652
36.905
37.147
37.375
37.588
37.784
37.96
38.114
38.246
38.355
38.44
38.504
38.546
38.568
38.572
38.56
38.537
38.504
38.466
38.424
38.38
38.336
38.293
38.251
38.214
38.181
38.155
38.133
38.114
38.097
38.079
38.06
38.036
38.009
37.977
37.94
37.896
37.844
37.787
37.724
37.657
37.585
37.509
37.431
37.351
37.271
37.193
37.117
37.044
36.975
36.91
36.849
36.791
36.734
36.679
36.624
36.57
36.516
36.463
36.413
36.367
36.326
36.291
36.261
36.237
36.218
36.203
36.192
36.184
36.178
36.17
36.161
36.147
36.129
36.107
36.079
36.048
36.013
35.975
35.934
35.891
35.848
35.803
35.757
35.708
35.656
35.6
35.539
35.474
35.405
35.333
35.258
35.179
35.098
35.017
34.937
34.86
34.787
34.719
34.655
34.595
34.538
34.484
34.431
34.38
34.329
34.278
34.228
34.178
34.129
34.08
34.033
33.986
33.941
33.895
33.85
33.806
33.762
33.718
33.675
33.631
33.586
33.541
33.495
33.449
33.403
33.358
33.315
33.272
33.229
33.186
33.143
33.099
33.056
33.014
32.974
32.935
32.899
32.864
32.831
32.801
32.773
32.748
32.725
32.703
32.68
32.657
32.631
32.605
32.577
32.549
32.522
32.495
32.47
32.449
32.433
32.423
32.421
32.43
32.45
32.484
32.533
32.6
32.685
32.792
32.923
33.079
33.261
33.469
33.703
33.96
34.238
34.537
34.85
35.175
35.507
35.841
36.171
36.493
36.803
37.098
37.373
37.627
37.857
38.064
38.248
38.41
38.552
38.675
38.781
38.87
38.943
39.003
39.05
39.085
39.107
39.119
39.12
39.113
39.098
39.075
39.047
39.012
38.974
38.933
38.891
38.849
38.808
38.768
38.731
38.696
38.664
38.635
38.608
38.582
38.558
38.532
38.506
38.477
38.444
38.405
38.36
38.308
38.247
38.18
38.106
38.026
37.942
37.854
37.764
37.673
37.582
37.495
37.412
37.336
37.266
37.204
37.149
37.101
37.059
37.022
36.989
36.959
36.929
36.9
36.871
36.841
36.811
36.781
36.75
36.719
36.688
36.657
36.625
36.592
36.559
36.524
36.486
36.444
36.397
36.346
36.289
36.228
36.162
36.092
36.02
35.945
35.87
35.795
35.72
35.645
35.572
35.501
35.431
35.364
35.297
35.232
35.167
35.102
35.036
34.968
34.9
34.833
34.767
34.704
34.643
34.585
34.53
34.476
34.423
34.37
34.316
34.262
34.207
34.151
34.095
34.04
33.985
33.93
33.876
33.823
33.77
33.715
33.661
33.606
33.552
33.5
33.449
33.401
33.355
33.312
33.271
33.232
33.194
33.157
33.121
33.083
33.045
33.007
32.969
32.933
32.898
32.866
32.836
32.808
32.779
32.751
32.721
32.689
32.655
32.619
32.58
32.54
32.5
32.459
32.419
32.379
32.341
32.304
32.269
32.234
32.2
32.169
32.139
32.113
32.093
32.08
32.077
32.084
32.105
32.139
32.19
32.259
32.35
32.465
32.605
32.771
32.964
33.181
33.424
33.689
33.976
34.281
34.6
34.93
35.266
35.603
35.934
36.257
36.565
36.855
37.125
37.372
37.596
37.796
37.972
38.125
38.257
38.368
38.461
38.536
38.596
38.64
38.671
38.69
38.697
38.694
38.682
38.662
38.635
38.602
38.566
38.528
38.49
38.454
38.421
38.393
38.37
38.351
38.337
38.326
38.317
38.309
38.3
38.287
38.27
38.246
38.215
38.175
38.125
38.066
37.997
37.92
37.837
37.748
37.655
37.561
37.466
37.373
37.284
37.199
37.119
37.046
36.979
36.917
36.86
36.806
36.755
36.706
36.659
36.615
36.57
36.526
36.481
36.437
36.394
36.352
36.311
36.272
36.236
36.202
36.17
36.14
36.108
36.074
36.037
35.996
35.949
35.897
35.84
35.78
35.716
35.65
35.582
35.512
35.441
35.37
35.297
35.225
35.153
35.08
35.008
34.937
34.868
34.8
34.733
34.669
34.607
34.547
34.489
34.431
34.373
34.313
34.251
34.186
34.12
34.052
33.984
33.915
33.846
33.777
33.707
33.637
33.567
33.497
33.426
33.355
33.284
33.215
33.149
33.086
33.027
32.972
32.921
32.873
32.827
32.781
32.736
32.69
32.643
32.595
32.547
32.5
32.453
32.408
32.365
32.324
32.285
32.249
32.215
32.181
32.148
32.115
32.083
32.051
32.019
31.985
31.95
31.911
31.869
31.824
31.776
31.726
31.675
31.624
31.573
31.524
31.477
31.431
31.387
31.344
31.301
31.26
31.221
31.182
31.145
31.11
31.079
31.05
31.025
31.001
