Trial 3:3back
37.028
36.951
36.874
36.797
36.721
36.645
36.569
36.494
36.419
36.344
36.27
36.194
36.118
36.041
35.965
35.888
35.812
35.734
35.656
35.578
35.501
35.426
35.354
35.285
35.221
35.163
35.11
35.065
35.028
34.998
34.976
34.959
34.948
34.94
34.934
34.93
34.927
34.924
34.921
34.915
34.906
34.895
34.882
34.866
34.85
34.833
34.816
34.799
34.783
34.769
34.758
34.749
34.742
34.736
34.729
34.721
34.711
34.697
34.681
34.66
34.636
34.607
34.576
34.542
34.507
34.471
34.434
34.396
34.357
34.316
34.275
34.235
34.196
34.158
34.12
34.081
34.042
34.004
33.967
33.931
33.895
33.86
33.824
33.787
33.751
33.714
33.678
33.641
33.604
33.567
33.53
33.493
33.457
33.42
33.382
33.343
33.302
33.259
33.213
33.166
33.117
33.068
33.017
32.966
32.916
32.869
32.827
32.791
32.764
32.746
32.739
32.746
32.768
32.807
32.864
32.939
33.033
33.144
33.274
33.421
33.583
33.757
33.94
34.129
34.32
34.512
34.701
34.884
35.06
35.226
35.379
35.518
35.642
35.75
35.843
35.92
35.98
36.025
36.056
36.073
36.08
36.078
36.067
36.05
36.027
35.998
35.965
35.93
35.893
35.855
35.817
35.778
35.739
35.698
35.657
35.614
35.57
35.523
35.473
35.419
35.362
35.302
35.241
35.178
35.114
35.05
34.986
34.923
34.862
34.801
34.743
34.685
34.628
34.571
34.516
34.463
34.413
34.364
34.319
34.275
34.235
34.198
34.165
34.136
34.109
34.086
34.065
34.046
34.029
34.013
33.999
33.985
33.972
33.958
33.945
33.932
33.919
33.905
33.89
33.875
33.86
33.845
33.83
33.817
33.805
33.795
33.784
33.773
33.761
33.748
33.734
33.718
33.699
33.678
33.653
33.626
33.599
33.572
33.546
33.52
33.495
33.471
33.448
33.427
33.407
33.387
33.367
33.345
33.321
33.295
33.267
33.237
33.204
33.167
33.128
33.087
33.045
33.003
32.962
32.922
32.884
32.849
32.817
32.787
32.76
32.736
32.712
32.688
32.664
32.64
32.612
32.582
32.547
32.508
32.463
32.412
32.354
32.29
32.222
32.152
32.081
32.013
31.95
31.894
31.849
31.817
31.799
31.797
31.813
31.85
31.908
31.987
32.089
32.212
32.355
32.516
32.695
32.888
33.091
33.3
33.512
33.722
33.927
34.125
34.312
34.488
34.649
34.796
34.928
35.046
35.15
35.243
35.323
35.393
35.451
35.498
35.536
35.564
35.585
35.599
35.607
35.608
35.605
35.596
35.583
35.566
35.545
35.52
35.49
35.457
35.421
35.383
35.344
35.305
35.266
35.226
35.184
35.142
35.1
35.058
35.015
34.972
34.93
34.887
34.846
34.805
34.765
34.727
34.69
34.652
34.613
34.572
34.532
34.492
34.455
34.421
34.392
34.366
34.345
34.329
34.319
34.313
34.311
34.312
34.313
34.315
34.316
34.316
34.316
34.316
34.314
34.311
34.307
34.301
34.295
34.287
34.279
34.271
34.262
34.253
34.243
34.234
34.226
34.219
34.213
34.206
34.2
34.192
34.185
34.178
34.171
34.163
34.153
34.142
34.129
34.116
34.103
34.09
34.077
34.065
34.051
34.037
34.02
34.0
33.977
33.95
33.918
33.881
33.839
33.793
33.745
33.695
33.645
33.595
33.545
33.498
33.454
33.413
33.376
33.343
33.314
33.288
33.267
33.249
33.235
33.225
33.217
33.209
33.202
33.195
33.187
33.178
33.168
33.156
33.144
33.132
33.121
33.11
33.1
33.09
33.079
33.068
33.055
33.04
33.023
33.003
32.981
32.958
32.935
32.915
32.901
32.895
32.898
32.914
32.944
32.989
33.051
33.131
33.227
33.339
33.465
33.604
33.754
33.913
34.078
34.248
34.418
34.586
34.749
34.905
35.054
35.194
35.324
35.444
35.553
35.649
35.734
35.809
35.875
35.93
35.976
36.012
36.038
36.053
36.058
36.054
36.041
36.022
35.997
35.967
35.932
35.893
35.852
35.811
35.77
35.73
35.692
35.655
35.619
35.584
35.551
35.52
35.491
35.461
35.43
35.395
35.357
35.315
35.269
35.219
35.168
35.115
35.061
35.007
34.953
34.9
34.849
34.801
34.755
34.711
34.67
34.632
34.598
34.568
34.542
34.52
34.501
34.485
34.472
34.462
34.453
34.446
34.44
34.434
34.429
34.425
34.422
34.422
34.422
34.425
34.427
34.429
34.429
34.428
34.424
34.417
34.407
34.392
34.372
34.347
34.318
34.287
34.253
34.217
34.178
34.139
34.101
34.064
34.03
33.999
33.971
33.947
33.926
33.91
33.897
33.887
33.879
33.873
33.865
33.857
33.846
33.835
33.822
33.809
33.794
33.779
33.762
33.746
33.728
33.71
33.69
33.667
33.641
33.614
33.584
33.554
33.522
33.489
33.454
33.42
33.386
33.356
33.328
33.303
33.282
33.264
33.248
33.236
33.227
33.222
33.218
33.215
33.211
33.207
33.201
33.193
33.183
33.169
33.152
33.132
33.109
33.083
33.057
33.03
33.003
32.976
32.951
32.928
32.907
32.892
32.882
32.879
32.883
32.897
32.924
32.966
33.023
33.096
33.185
33.288
33.405
33.534
33.676
33.828
33.986
34.15
34.315
34.479
34.64
34.795
34.944
35.084
35.212
35.328
35.431
35.519
35.594
35.656
35.708
35.749
35.782
35.806
35.826
35.842
35.857
35.873
35.892
35.914
35.938
35.963
35.989
36.014
36.038
36.058
36.073
36.082
36.085
36.081
36.07
36.052
36.028
35.999
35.965
35.928
35.887
35.845
35.803
35.761
35.72
35.68
35.639
35.599
35.559
35.522
35.486
35.454
35.425
35.397
35.371
35.346
35.322
35.299
35.277
35.259
35.242
35.227
35.214
35.205
35.198
35.196
35.197
35.202
35.208
35.215
35.223
35.231
35.239
35.247
35.253
35.258
35.26
35.258
35.252
35.242
35.23
35.214
35.195
35.171
35.145
35.118
35.091
35.064
35.039
35.014
34.99
34.965
34.941
34.919
34.897
34.878
34.86
34.844
34.827
34.811
34.794
34.776
34.756
34.733
34.707
34.677
34.644
34.609
34.573
34.537
34.503
34.471
34.44
34.411
34.384
34.36
34.337
34.317
34.297
34.278
34.26
34.243
34.227
34.211
34.197
34.183
34.169
34.153
34.137
34.12
34.102
34.083
34.063
34.043
34.023
34.004
33.986
33.97
33.955
33.94
33.925
33.909
33.892
33.873
33.852
33.83
33.805
33.778
33.749
33.718
33.686
33.654
33.623
33.593
33.567
33.546
33.534
33.531
33.541
33.565
33.604
33.659
33.729
33.815
33.914
34.026
34.15
34.283
34.422
34.564
34.707
34.848
34.988
35.125
35.257
35.383
35.501
35.612
35.714
35.808
35.895
35.973
36.044
36.106
36.16
36.207
36.244
36.274
36.295
36.306
36.308
36.298
36.279
36.251
36.216
36.175
36.129
36.08
36.029
35.977
35.925
35.875
35.829
35.787
35.751
35.719
35.691
35.666
35.643
35.621
35.6
35.578
35.554
35.526
35.494
35.459
35.42
35.38
35.339
35.297
35.257
35.217
35.179
35.142
35.107
35.075
35.048
35.025
35.005
34.99
34.978
34.969
34.963
34.961
34.96
34.961
34.961
34.959
34.956
34.951
34.945
34.937
34.928
34.918
34.906
34.894
34.881
34.868
34.855
34.844
34.833
34.824
34.815
34.808
34.801
34.796
34.79
34.783
34.774
34.762
34.745
34.725
34.701
34.675
34.647
34.617
34.584
34.551
34.516
34.482
34.449
34.417
34.388
34.36
34.334
34.31
34.289
34.27
34.252
34.234
34.216
34.195
34.174
34.15
34.127
34.102
34.075
34.049
34.024
34.002
33.982
33.966
33.953
33.943
33.935
33.928
33.922
33.918
33.913
33.907
33.899
33.889
33.878
33.865
33.851
33.835
33.818
33.799
33.779
33.758
33.737
33.717
33.698
33.68
33.662
33.645
33.629
33.615
33.603
33.594
33.587
33.583
33.584
33.592
33.607
33.634
33.672
33.723
33.789
33.869
33.964
34.073
34.195
34.33
34.475
34.627
34.782
34.94
35.097
35.252
35.403
35.548
35.685
35.811
35.924
36.025
36.113
36.188
36.252
36.305
36.348
36.381
36.407
36.425
36.438
36.447
36.452
36.453
36.452
36.448
36.443
36.437
36.43
36.424
36.416
36.408
36.397
36.382
36.363
36.339
36.31
36.277
36.239
36.198
36.152
36.102
36.05
35.995
35.94
35.883
35.826
35.771
35.717
35.668
35.624
35.586
35.553
35.527
35.505
35.489
35.477
35.47
35.466
35.465
35.466
35.466
35.465
35.463
35.459
35.454
35.446
35.435
35.42
35.402
35.382
35.362
35.341
35.323
35.305
35.29
35.276
35.264
35.254
35.247
35.242
35.239
35.236
35.232
35.226
35.219
35.211
35.2
35.188
35.172
35.153
35.13
35.104
35.075
35.045
35.015
34.986
34.959
34.934
34.91
34.889
34.87
34.852
34.836
34.819
34.801
34.781
34.76
34.736
34.71
34.681
34.65
34.615
34.576
34.534
34.489
34.44
34.389
34.335
34.278
34.222
34.167
34.114
34.064
34.018
33.975
33.936
33.901
33.869
33.84
33.814
33.789
33.764
33.738
33.712
33.684
33.655
33.624
33.591
33.556
33.52
33.484
33.447
33.411
33.377
33.346
33.318
33.296
33.28
33.274
33.278
33.293
33.319
33.356
33.406
33.469
33.546
33.637
33.742
33.861
33.992
34.134
34.285
34.445
34.61
34.78
34.951
35.12
35.285
35.442
35.591
35.729
35.856
35.971
36.072
36.159
36.231
36.29
36.336
36.371
36.395
36.41
36.415
36.411
36.398
36.379
36.355
36.327
36.295
36.262
36.226
36.19
36.152
36.114
36.077
36.042
36.007
35.974
35.94
35.905
35.87
35.833
35.794
35.754
35.711
35.666
35.618
35.568
35.517
35.468
35.42
35.375
35.333
35.295
35.26
35.23
35.204
35.183
35.166
35.153
35.142
35.133
35.125
35.117
35.109
35.101
35.092
35.083
35.073
35.062
35.052
35.043
35.035
35.029
35.023
35.018
35.012
35.007
35.002
34.998
34.994
34.991
34.988
34.987
34.986
34.987
34.988
34.991
34.994
34.996
34.999
35.001
35.003
35.005
35.007
35.009
35.009
35.008
35.004
34.997
34.987
34.975
34.959
34.939
34.917
34.891
34.864
34.837
34.81
34.782
34.753
34.722
34.689
34.653
34.616
34.578
34.539
34.499
34.458
34.416
34.374
34.334
34.294
34.256
34.22
34.185
34.15
34.117
34.085
34.054
34.024
33.994
33.965
33.935
33.907
33.879
33.853
33.828
33.804
33.781
33.759
33.739
33.721
33.705
33.69
33.676
33.661
33.645
33.629
33.613
33.598
33.585
33.575
33.57
33.572
33.585
33.612
33.656
33.72
33.804
33.909
34.035
34.18
34.345
34.528
34.728
34.94
35.162
35.388
35.617
35.845
36.07
36.289
36.501
36.702
36.892
37.069
37.231
37.378
37.509
37.624
37.723
37.806
37.873
37.923
37.957
37.976
37.982
37.976
37.959
37.931
37.893
37.846
37.791
37.729
37.661
37.588
37.513
37.435
37.358
37.281
37.207
37.136
37.07
37.01
36.957
36.91
36.869
36.833
36.8
36.768
36.736
36.703
36.668
36.628
36.584
36.535
36.48
36.42
36.354
36.284
36.211
36.136
36.06
35.985
35.913
35.845
35.783
35.728
35.682
35.642
35.61
35.584
35.564
35.55
35.54
35.534
35.527
35.52
35.51
35.495
35.476
35.45
35.419
35.379
35.332
35.276
35.215
35.148
35.078
35.006
34.935
34.865
34.798
34.733
34.672
34.615
34.562
34.511
34.462
34.415
34.368
34.321
34.274
34.228
34.181
34.134
34.085
34.034
33.982
33.93
33.88
33.831
33.785
33.741
33.699
33.66
33.623
33.589
33.557
33.527
33.496
33.464
33.431
33.395
33.359
33.322
33.283
33.243
33.202
33.162
33.123
33.085
33.049
33.014
32.979
32.945
32.912
32.879
32.847
32.815
32.783
32.751
32.72
32.688
32.658
32.628
32.597
32.565
32.53
32.491
32.447
32.396
32.339
32.274
32.201
32.122
32.037
31.949
31.86
31.776
31.698
31.631
31.581
31.551
31.546
31.567
31.618
31.7
31.812
31.953
32.119
32.308
32.515
32.738
32.97
33.208
33.448
33.686
33.919
34.146
34.364
34.574
34.772
34.959
35.134
35.296
35.447
35.586
35.714
35.831
35.935
36.028
36.109
36.179
36.238
36.287
36.326
36.354
36.37
36.377
36.374
36.363
36.345
36.322
36.295
36.265
36.231
36.195
36.16
36.125
36.094
36.066
36.042
36.022
36.004
35.988
35.975
35.963
35.95
35.935
35.916
35.891
35.858
35.817
35.767
35.708
35.643
35.573
35.497
35.418
35.337
35.257
35.181
35.111
35.05
34.998
34.958
34.929
34.912
34.905
34.909
34.921
34.94
34.962
34.985
35.006
35.024
35.038
35.047
35.052
35.051
35.045
35.034
35.019
35.002
34.983
34.965
34.947
34.931
34.917
34.906
34.897
34.891
34.887
34.884
34.882
34.879
34.875
34.869
34.861
34.851
34.839
34.825
34.807
34.786
34.762
34.736
34.707
34.677
34.648
34.618
34.59
34.565
34.541
34.522
34.505
34.491
34.479
34.468
34.456
34.442
34.427
34.41
34.39
34.368
34.344
34.317
34.289
34.259
34.23
34.2
34.171
34.143
34.117
34.093
34.073
34.058
34.048
34.044
34.046
34.055
34.072
34.098
34.135
34.183
34.243
34.316
34.402
34.5
34.61
34.731
34.863
35.002
35.148
35.3
35.457
35.618
35.782
35.95
36.119
36.289
36.457
36.622
36.78
36.93
37.07
37.199
37.316
37.421
37.512
37.588
37.649
37.694
37.723
37.738
37.74
37.731
37.714
37.689
37.657
37.62
37.579
37.534
37.488
37.442
37.395
37.35
37.305
37.261
37.217
37.175
37.132
37.09
37.047
37.003
36.957
36.908
36.856
36.802
36.745
36.686
36.627
36.566
36.505
36.444
36.383
36.324
36.268
36.217
36.172
36.134
36.103
36.079
36.061
36.049
36.041
36.039
36.041
36.046
36.053
36.06
36.068
36.075
36.082
36.087
36.09
36.092
36.093
36.094
36.095
36.099
36.105
36.115
36.126
36.139
36.151
36.161
36.17
36.175
36.177
36.176
36.17
36.159
36.143
36.122
36.097
36.068
36.036
36.002
35.966
35.93
35.893
35.858
35.826
35.796
35.772
35.752
35.736
35.723
35.712
35.701
35.691
35.68
35.669
35.658
35.645
35.632
35.617
35.603
35.588
35.574
35.561
35.549
35.537
35.525
35.512
35.499
35.485
35.471
35.456
35.44
35.422
35.401
35.377
35.353
35.329
35.308
35.292
35.282
35.281
35.292
35.315
35.354
35.41
35.486
35.581
35.697
35.832
35.986
36.157
36.342
36.539
36.745
36.958
37.175
37.392
37.607
37.816
38.017
38.208
38.387
38.555
38.709
38.848
38.973
39.081
39.172
39.248
39.308
39.354
39.387
39.408
39.417
39.415
39.402
39.38
39.348
39.309
39.264
39.212
39.156
39.096
39.032
38.964
38.893
38.819
38.743
38.667
38.589
38.511
38.433
38.354
38.274
38.194
38.115
38.038
37.962
37.887
37.812
37.738
37.663
37.587
37.512
37.436
37.362
37.288
37.217
37.146
37.076
37.006
36.936
36.867
36.798
36.731
36.666
36.604
36.543
36.483
36.426
36.371
36.319
36.269
36.222
36.179
36.14
36.104
36.074
36.051
36.034
36.026
36.024
36.027
36.036
36.047
36.059
36.073
36.086
36.1
36.112
36.123
36.13
36.135
36.135
36.13
36.122
36.109
36.094
36.076
36.053
36.026
35.995
35.962
35.926
35.888
35.85
35.811
35.77
35.728
35.685
35.64
35.595
35.549
35.501
35.452
35.401
35.347
35.292
35.235
35.178
35.121
35.063
35.004
34.943
34.882
34.82
34.759
34.699
34.64
34.582
34.527
34.473
34.422
34.374
34.33
34.292
34.261
34.24
34.232
34.24
34.265
34.312
34.381
34.475
34.593
34.735
34.899
35.085
35.291
35.515
35.752
36.0
36.254
36.509
36.76
37.004
37.237
37.456
37.66
37.846
38.013
38.161
38.288
38.396
38.488
38.563
38.625
38.676
38.717
38.75
38.776
38.797
38.813
38.825
38.834
38.84
38.843
38.844
38.84
38.832
38.82
38.802
38.78
38.753
38.724
38.692
38.659
38.625
38.589
38.554
38.518
38.483
38.447
38.411
38.374
38.335
38.293
38.247
38.197
38.143
38.085
38.024
37.96
37.893
37.824
37.754
37.683
37.614
37.548
37.488
37.434
37.387
37.347
37.314
37.288
37.269
37.258
37.254
37.257
37.264
37.275
37.287
37.299
37.308
37.312
37.313
37.308
37.3
37.287
37.269
37.247
37.22
37.19
37.158
37.124
37.091
37.058
37.026
36.996
36.966
36.937
36.909
36.881
36.854
36.827
36.8
36.771
36.742
36.71
36.678
36.644
36.611
36.578
36.545
36.513
36.481
36.448
36.414
36.38
36.346
36.312
36.275
36.236
36.194
36.15
36.103
36.055
36.006
35.957
35.909
35.86
35.81
35.76
35.71
35.661
35.613
35.567
35.522
35.479
35.435
35.391
35.348
35.307
35.268
35.232
35.202
35.178
35.162
35.157
35.167
35.193
35.239
35.305
35.394
35.504
35.637
35.793
35.972
36.173
36.394
36.631
36.88
37.137
37.396
37.654
37.907
38.151
38.386
38.609
38.82
39.015
39.193
39.352
39.492
39.614
39.718
39.805
39.877
39.934
39.977
40.007
40.023
40.026
40.018
39.998
39.97
39.934
39.891
39.843
39.789
39.73
39.667
39.601
39.532
39.462
39.39
39.318
39.245
39.172
39.099
39.024
38.948
38.871
38.793
38.714
38.633
38.55
38.466
38.38
38.293
38.205
38.118
38.032
37.95
37.87
37.795
37.724
37.659
37.599
37.545
37.498
37.456
37.418
37.385
37.354
37.324
37.294
37.26
37.223
37.182
37.137
37.088
37.035
36.979
36.922
36.865
36.809
36.756
36.706
36.66
36.617
36.577
36.541
36.51
36.482
36.459
36.439
36.42
36.4
36.379
36.355
36.33
36.303
36.275
36.247
36.218
36.187
36.156
36.123
36.089
36.053
36.016
35.978
35.938
35.896
35.852
35.806
35.758
35.708
35.658
35.607
35.553
35.497
35.44
35.381
35.323
35.265
35.209
35.155
35.102
35.048
34.993
34.937
34.881
34.827
34.775
34.725
34.678
34.632
34.588
34.546
34.503
34.461
34.418
34.373
34.326
34.277
34.225
34.173
34.123
34.075
34.033
33.996
33.967
33.95
33.946
33.958
33.989
34.038
34.108
34.196
34.303
34.428
34.57
34.728
34.9
35.086
35.281
35.484
35.691
35.899
36.104
36.305
36.499
36.684
36.857
37.016
37.162
37.292
37.408
37.508
37.594
37.665
37.723
37.766
37.795
37.811
37.815
37.807
37.789
37.762
37.728
37.686
37.639
37.587
37.53
37.47
37.408
37.344
37.278
37.211
37.141
37.07
36.996
36.919
36.841
36.761
36.681
36.599
36.517
36.435
36.352
36.27
36.19
36.112
36.038
35.967
35.899
35.835
35.773
35.714
35.657
35.601
35.545
35.488
35.431
35.371
35.311
35.252
35.194
35.14
35.089
35.042
35.0
34.962
34.93
34.902
34.88
34.862
34.848
34.835
34.823
34.812
34.801
34.788
34.775
34.759
34.741
34.72
34.693
34.663
34.629
34.595
34.559
34.524
34.488
34.451
34.415
34.38
34.346
34.315
34.285
34.256
34.229
34.201
34.173
34.146
34.118
34.091
34.063
34.034
34.003
33.969
33.934
33.897
33.86
33.823
33.786
33.748
33.71
33.671
33.631
33.592
33.552
33.511
33.471
33.431
33.392
33.353
33.315
33.278
33.242
33.205
33.168
33.13
33.091
33.053
33.015
32.976
32.937
32.899
32.862
32.827
32.795
32.765
32.738
32.712
32.687
32.661
32.637
32.612
32.586
32.559
32.53
32.499
32.467
32.435
32.404
32.375
32.351
32.333
32.324
32.327
32.344
32.376
32.424
32.489
32.571
32.669
32.78
32.904
33.038
33.179
33.325
33.472
33.62
33.765
33.907
34.044
34.175
34.298
34.413
34.518
34.614
34.7
34.775
34.839
34.893
34.935
34.967
34.988
35.0
35.004
35.0
34.989
34.971
34.945
34.913
34.875
34.832
34.787
34.739
34.691
34.643
34.596
34.549
34.503
34.461
34.424
34.391
34.362
34.337
34.315
34.295
34.276
34.258
34.239
34.219
34.196
34.169
34.137
34.1
34.059
34.015
33.968
33.919
33.869
33.818
33.768
33.72
33.676
33.636
33.6
33.569
33.543
33.521
33.503
33.49
33.48
33.472
33.465
33.458
33.45
33.441
33.431
33.421
33.409
33.396
33.382
33.367
33.352
33.338
33.326
33.317
33.31
33.305
33.302
33.301
33.3
33.3
33.299
33.295
33.289
33.279
33.265
33.248
33.229
33.207
33.183
33.158
33.131
33.102
33.074
33.046
33.019
32.992
32.966
32.941
32.918
32.896
32.878
32.861
32.845
32.829
32.813
32.797
32.782
32.768
32.755
32.744
32.733
32.722
32.712
32.701
32.688
32.674
32.658
32.64
32.62
32.599
32.576
32.552
32.528
32.502
32.474
32.445
32.416
32.385
32.355
32.324
32.293
32.262
32.23
32.197
32.164
32.129
32.092
32.052
32.009
31.964
31.918
31.872
31.828
31.788
31.752
31.722
31.701
31.69
31.689
31.699
31.72
31.752
31.795
31.849
31.914
31.989
32.073
32.165
32.263
32.366
32.473
32.583
32.695
32.809
32.924
33.038
33.149
33.256
33.359
33.458
33.553
33.643
33.728
33.807
33.879
33.944
34.002
34.052
34.095
34.131
34.16
34.182
34.197
34.205
34.208
34.207
34.204
34.197
34.189
34.179
34.169
34.159
