Trial 3:3back
35.501
35.639
35.767
35.884
35.989
36.082
36.162
36.229
36.284
36.327
36.36
36.382
36.396
36.403
36.403
36.397
36.387
36.373
36.356
36.338
36.318
36.296
36.275
36.252
36.229
36.205
36.181
36.156
36.131
36.104
36.076
36.046
36.014
35.981
35.946
35.909
35.871
35.831
35.791
35.749
35.706
35.663
35.619
35.575
35.53
35.484
35.436
35.388
35.338
35.288
35.237
35.188
35.14
35.096
35.055
35.019
34.987
34.961
34.94
34.924
34.914
34.908
34.906
34.909
34.915
34.924
34.936
34.949
34.964
34.98
34.997
35.015
35.033
35.051
35.069
35.085
35.099
35.11
35.119
35.124
35.127
35.128
35.126
35.123
35.117
35.111
35.104
35.096
35.087
35.076
35.065
35.052
35.038
35.022
35.004
34.984
34.963
34.939
34.914
34.888
34.861
34.833
34.805
34.777
34.748
34.72
34.692
34.664
34.636
34.609
34.583
34.557
34.531
34.505
34.478
34.45
34.421
34.391
34.361
34.331
34.301
34.271
34.243
34.215
34.189
34.164
34.141
34.119
34.097
34.075
34.054
34.033
34.012
33.992
33.972
33.953
33.935
33.917
33.901
33.885
33.869
33.853
33.838
33.823
33.809
33.795
33.781
33.768
33.755
33.743
33.732
33.721
33.711
33.701
33.692
33.682
33.673
33.665
33.657
33.649
33.642
33.635
33.627
33.618
33.607
33.595
33.58
33.565
33.548
33.529
33.51
33.489
33.468
33.446
33.424
33.402
33.382
33.363
33.346
33.331
33.318
33.308
33.301
33.296
33.296
33.301
33.314
33.334
33.365
33.407
33.462
33.53
33.612
33.709
33.819
33.943
34.078
34.224
34.378
34.538
34.702
34.869
35.037
35.204
35.368
35.528
35.681
35.826
35.962
36.086
36.197
36.295
36.379
36.448
36.502
36.543
36.572
36.588
36.593
36.589
36.576
36.557
36.533
36.505
36.474
36.441
36.407
36.372
36.338
36.303
36.27
36.239
36.209
36.181
36.155
36.13
36.106
36.083
36.06
36.036
36.011
35.984
35.956
35.926
35.894
35.86
35.825
35.789
35.751
35.712
35.672
35.63
35.588
35.545
35.503
35.462
35.422
35.385
35.35
35.319
35.292
35.268
35.248
35.233
35.221
35.213
35.209
35.209
35.211
35.216
35.223
35.232
35.243
35.255
35.268
35.283
35.3
35.318
35.338
35.358
35.377
35.397
35.415
35.432
35.447
35.46
35.469
35.476
35.48
35.48
35.477
35.47
35.46
35.446
35.429
35.409
35.384
35.357
35.327
35.295
35.26
35.224
35.187
35.15
35.114
35.078
35.043
35.01
34.98
34.951
34.925
34.901
34.878
34.856
34.834
34.812
34.79
34.767
34.744
34.72
34.695
34.67
34.645
34.619
34.593
34.567
34.541
34.516
34.491
34.467
34.443
34.419
34.396
34.373
34.351
34.329
34.307
34.286
34.267
34.248
34.232
34.217
34.203
34.192
34.181
34.172
34.164
34.157
34.151
34.144
34.138
34.132
34.125
34.118
34.111
34.103
34.095
34.087
34.078
34.067
34.055
34.042
34.027
34.011
33.993
33.975
33.956
33.937
33.918
33.9
33.884
33.868
33.854
33.841
33.829
33.817
33.806
33.796
33.785
33.773
33.761
33.748
33.734
33.719
33.703
33.687
33.67
33.654
33.639
33.625
33.614
33.606
33.604
33.608
33.62
33.641
33.672
33.715
33.769
33.837
33.919
34.015
34.125
34.248
34.385
34.532
34.688
34.851
35.02
35.191
35.362
35.532
35.697
35.856
36.006
36.146
36.274
36.388
36.487
36.572
36.643
36.701
36.745
36.778
36.799
36.811
36.815
36.811
36.802
36.786
36.767
36.743
36.716
36.687
36.656
36.624
36.591
36.558
36.526
36.494
36.463
36.433
36.404
36.375
36.346
36.318
36.289
36.259
36.228
36.194
36.159
36.123
36.085
36.046
36.007
35.967
35.925
35.881
35.836
35.789
35.741
35.693
35.645
35.598
35.554
35.514
35.478
35.447
35.421
35.399
35.382
35.37
35.361
35.356
35.354
35.355
35.359
35.365
35.374
35.386
35.399
35.416
35.435
35.455
35.477
35.5
35.523
35.545
35.566
35.585
35.602
35.617
35.629
35.638
35.644
35.646
35.645
35.639
35.63
35.616
35.598
35.576
35.55
35.522
35.491
35.459
35.427
35.396
35.367
35.339
35.313
35.29
35.267
35.246
35.226
35.205
35.184
35.162
35.139
35.114
35.088
35.061
35.034
35.005
34.976
34.947
34.917
34.887
34.856
34.826
34.797
34.769
34.741
34.713
34.686
34.659
34.633
34.606
34.58
34.554
34.528
34.502
34.475
34.449
34.422
34.396
34.369
34.343
34.317
34.292
34.268
34.246
34.226
34.207
34.19
34.175
34.161
34.149
34.138
34.127
34.118
34.109
34.1
34.091
34.081
34.069
34.057
34.043
34.027
34.009
33.99
33.969
33.947
33.924
33.9
33.875
33.85
33.824
33.797
33.77
33.743
33.716
33.691
33.666
33.644
33.625
33.609
33.597
33.589
33.587
33.59
33.599
33.615
33.637
33.667
33.705
33.752
33.808
33.875
33.953
34.043
34.144
34.256
34.379
34.511
34.653
34.801
34.954
35.109
35.265
35.418
35.567
35.71
35.845
35.972
36.088
36.193
36.287
36.368
36.437
36.494
36.539
36.571
36.592
36.602
36.603
36.596
36.581
36.56
36.534
36.505
36.472
36.438
36.403
36.366
36.33
36.293
36.257
36.222
36.188
36.155
36.122
36.09
36.058
36.026
35.993
35.96
35.925
35.889
35.852
35.813
35.772
35.729
35.684
35.637
35.588
35.538
35.487
35.436
35.386
35.336
35.289
35.243
35.2
35.16
35.123
35.09
35.062
35.038
35.019
35.005
34.996
34.991
34.991
34.995
35.002
35.013
35.027
35.045
35.066
35.089
35.115
35.143
35.172
35.201
35.232
35.262
35.29
35.317
35.342
35.363
35.38
35.394
35.403
35.407
35.408
35.403
35.395
35.384
35.369
35.353
35.334
35.313
35.291
35.267
35.242
35.216
35.189
35.161
35.132
35.104
35.074
35.045
35.017
34.988
34.96
34.931
34.902
34.872
34.841
34.81
34.778
34.746
34.715
34.683
34.651
34.62
34.59
34.56
34.53
34.502
34.474
34.448
34.422
34.397
34.371
34.345
34.318
34.29
34.261
34.232
34.202
34.174
34.146
34.12
34.096
34.075
34.056
34.039
34.025
34.013
34.002
33.992
33.983
33.975
33.968
33.962
33.956
33.952
33.948
33.946
33.944
33.943
33.942
33.941
33.939
33.936
33.931
33.925
33.917
33.907
33.895
33.881
33.864
33.846
33.827
33.806
33.785
33.764
33.743
33.722
33.702
33.682
33.662
33.642
33.624
33.607
33.592
33.581
33.574
33.572
33.577
33.59
33.612
33.643
33.686
33.741
33.808
33.888
33.982
34.087
34.206
34.335
34.474
34.621
34.775
34.933
35.094
35.256
35.417
35.574
35.726
35.871
36.007
36.133
36.246
36.346
36.433
36.505
36.565
36.611
36.646
36.67
36.683
36.687
36.684
36.673
36.656
36.634
36.608
36.578
36.545
36.511
36.477
36.443
36.411
36.38
36.351
36.324
36.299
36.275
36.253
36.231
36.21
36.189
36.167
36.144
36.12
36.094
36.066
36.036
36.003
35.968
35.93
35.889
35.846
35.8
35.753
35.705
35.657
35.609
35.562
35.519
35.478
35.441
35.407
35.378
35.352
35.33
35.311
35.296
35.284
35.275
35.269
35.266
35.267
35.27
35.275
35.283
35.293
35.305
35.318
35.332
35.347
35.363
35.378
35.394
35.408
35.42
35.431
35.44
35.446
35.449
35.45
35.448
35.443
35.435
35.424
35.412
35.397
35.38
35.362
35.342
35.321
35.3
35.277
35.254
35.23
35.205
35.18
35.155
35.128
35.101
35.073
35.044
35.016
34.987
34.958
34.93
34.903
34.876
34.85
34.826
34.802
34.78
34.759
34.739
34.719
34.7
34.679
34.658
34.635
34.611
34.586
34.559
34.532
34.503
34.475
34.446
34.418
34.39
34.363
34.337
34.313
34.289
34.267
34.247
34.229
34.213
34.2
34.189
34.18
34.172
34.167
34.162
34.158
34.154
34.149
34.144
34.137
34.128
34.117
34.105
34.091
34.075
34.058
34.041
34.022
34.004
33.986
33.968
33.951
33.934
33.917
33.9
33.883
33.866
33.848
33.829
33.809
33.788
33.766
33.744
33.722
33.7
33.679
33.658
33.639
33.62
33.603
33.588
33.574
33.563
33.554
33.548
33.548
33.552
33.564
33.583
33.612
33.651
33.702
33.765
33.841
33.931
34.033
34.148
34.276
34.413
34.56
34.713
34.871
35.032
35.191
35.348
35.499
35.643
35.777
35.901
36.014
36.116
36.205
36.282
36.346
36.396
36.434
36.46
36.475
36.48
36.476
36.464
36.447
36.424
36.398
36.37
36.34
36.31
36.28
36.251
36.222
36.194
36.166
36.139
36.111
36.083
36.056
36.028
36.0
35.973
35.945
35.917
35.889
35.86
35.83
35.799
35.767
35.734
35.699
35.664
35.628
35.591
35.553
35.515
35.477
35.439
35.402
35.365
35.33
35.296
35.265
35.236
35.21
35.187
35.168
35.153
35.142
35.136
35.134
35.137
35.145
35.157
35.173
35.192
35.213
35.236
35.26
35.286
35.311
35.336
35.361
35.384
35.404
35.423
35.438
35.449
35.456
35.459
35.458
35.453
35.443
35.429
35.412
35.392
35.369
35.344
35.319
35.292
35.266
35.239
35.213
35.187
35.161
35.135
35.108
35.079
35.049
35.017
34.984
34.95
34.916
34.881
34.847
34.813
34.78
34.747
34.715
34.684
34.654
34.625
34.596
34.569
34.542
34.516
34.491
34.467
34.443
34.42
34.398
34.377
34.356
34.336
34.316
34.296
34.275
34.255
34.235
34.215
34.196
34.177
34.16
34.145
34.132
34.121
34.113
34.107
34.102
34.098
34.096
34.094
34.093
34.091
34.089
34.087
34.083
34.079
34.074
34.067
34.06
34.051
34.04
34.027
34.012
33.996
33.978
33.958
33.937
33.914
33.889
33.864
33.839
33.813
33.788
33.763
33.739
33.717
33.695
33.674
33.653
33.634
33.615
33.597
33.58
33.563
33.549
33.536
33.526
33.518
33.514
33.515
33.52
33.532
33.55
33.574
33.607
33.647
33.696
33.754
33.822
33.899
33.986
34.083
34.189
34.304
34.427
34.555
34.687
34.819
34.952
35.081
35.205
35.323
35.432
35.531
35.618
35.693
35.756
35.807
35.846
35.874
35.891
35.898
35.897
35.888
35.873
35.853
35.828
35.799
35.768
35.736
35.704
35.672
35.642
35.614
35.588
35.563
35.54
35.519
35.497
35.475
35.453
35.429
35.404
35.376
35.346
35.313
35.277
35.238
35.196
35.153
35.107
35.061
35.013
34.965
34.917
34.868
34.82
34.772
34.726
34.682
34.64
34.601
34.565
34.533
34.505
34.481
34.463
34.449
34.44
34.435
34.434
34.437
34.444
34.454
34.467
34.482
34.501
34.522
34.546
34.572
34.601
34.631
34.661
34.691
34.719
34.744
34.765
34.782
34.793
34.797
34.796
34.789
34.776
34.759
34.739
34.716
34.69
34.664
34.637
34.61
34.583
34.557
34.531
34.506
34.483
34.46
34.437
34.416
34.394
34.372
34.35
34.327
34.304
34.281
34.257
34.233
34.209
34.184
34.159
34.133
34.106
34.078
34.05
34.023
33.995
33.968
33.942
33.917
33.892
33.869
33.846
33.823
33.799
33.775
33.75
33.725
33.699
33.673
33.648
33.624
33.601
33.58
33.562
33.546
33.532
33.521
33.512
33.505
33.501
33.498
33.498
33.499
33.503
33.508
33.514
33.522
33.53
33.539
33.547
33.555
33.563
33.569
33.574
33.577
33.579
33.58
33.578
33.575
33.57
33.562
33.552
33.539
33.524
33.506
33.487
33.466
33.445
33.422
33.399
33.377
33.356
33.336
33.318
33.303
33.291
33.282
33.277
33.276
33.279
33.286
33.299
33.316
33.339
33.369
33.406
33.451
33.506
33.571
33.646
33.732
33.828
33.933
34.047
34.169
34.296
34.427
34.559
34.692
34.821
34.946
35.063
35.172
35.271
35.358
35.433
35.494
35.543
35.578
35.6
35.61
35.609
35.597
35.576
35.547
35.512
35.471
35.428
35.382
35.336
35.29
35.247
35.205
35.167
35.132
35.101
35.073
35.049
35.028
35.01
34.993
34.979
34.965
34.951
34.937
34.921
34.903
34.882
34.859
34.833
34.803
34.769
34.732
34.69
34.645
34.597
34.547
34.497
34.448
34.401
34.356
34.315
34.277
34.244
34.216
34.193
34.174
34.16
34.15
34.145
34.144
34.146
34.152
34.162
34.174
34.19
34.209
34.23
34.253
34.278
34.304
34.331
34.358
34.384
34.41
34.433
34.455
34.474
34.491
34.506
34.517
34.526
34.532
34.534
34.533
34.529
34.521
34.511
34.497
34.482
34.464
34.444
34.422
34.399
34.375
34.351
34.326
34.301
34.276
34.251
34.228
34.204
34.182
34.161
34.14
34.12
34.1
34.081
34.063
34.045
34.028
34.013
33.998
33.983
33.969
33.955
33.942
33.928
33.913
33.897
33.881
33.864
33.846
33.828
33.809
33.79
33.77
33.75
33.728
33.707
33.684
33.662
33.64
33.618
33.596
33.575
33.555
33.536
33.518
33.503
33.489
33.478
33.468
33.46
33.454
33.447
33.442
33.437
33.432
33.426
33.42
33.414
33.408
33.402
33.397
33.392
33.389
33.386
33.385
33.384
33.383
33.383
33.382
33.381
33.378
33.374
33.367
33.359
33.348
33.337
33.324
33.311
33.297
33.282
33.268
33.253
33.239
33.227
33.216
33.208
33.203
33.203
33.208
33.219
33.237
33.264
33.301
33.349
33.407
33.477
33.56
33.654
33.76
33.877
34.003
34.138
34.279
34.423
34.57
34.716
34.86
35.0
35.134
35.261
35.379
35.487
35.585
35.67
35.743
35.803
35.848
35.88
35.899
35.905
35.9
35.884
35.858
35.824
35.783
35.737
35.687
35.634
35.58
35.527
35.475
35.425
35.378
35.335
35.296
35.261
35.23
35.203
35.178
35.156
35.137
35.118
35.1
35.081
35.062
35.041
35.019
34.995
34.968
34.94
34.91
34.878
34.845
34.811
34.776
34.739
34.701
34.663
34.624
34.585
34.548
34.512
34.479
34.449
34.424
34.403
34.388
34.377
34.371
34.37
34.372
34.376
34.384
34.394
34.406
34.42
34.436
34.454
34.475
34.497
34.52
34.546
34.573
34.599
34.626
34.652
34.676
34.698
34.717
34.734
34.748
34.759
34.766
34.771
34.772
34.77
34.765
34.756
34.745
34.73
34.713
34.693
34.671
34.646
34.621
34.594
34.568
34.543
34.519
34.496
34.475
34.456
34.437
34.42
34.403
34.386
34.369
34.351
34.333
34.314
34.295
34.274
34.253
34.232
34.211
34.191
34.172
34.154
34.138
34.124
34.111
34.099
34.088
34.077
34.066
34.055
34.042
34.029
34.015
34.0
33.983
33.965
33.946
33.925
33.904
33.882
33.86
33.839
33.819
33.801
33.785
33.771
33.761
33.754
33.75
33.749
33.75
33.753
33.757
33.761
33.765
33.769
33.773
33.776
33.777
33.777
33.775
33.771
33.764
33.755
33.745
33.734
33.722
33.711
33.7
33.689
33.677
33.666
33.654
33.642
33.629
33.615
33.6
33.584
33.568
33.551
33.535
33.519
33.504
33.491
33.48
33.47
33.463
33.459
33.458
33.462
33.471
33.485
33.507
33.538
33.579
33.631
33.695
33.771
33.859
33.959
34.071
34.194
34.326
34.467
34.615
34.767
34.922
35.077
35.232
35.383
35.528
35.666
35.795
35.914
36.022
36.118
36.203
36.275
36.334
36.382
36.418
36.444
36.46
36.467
36.466
36.457
36.442
36.421
36.396
36.367
36.337
36.306
36.276
36.247
36.219
36.193
36.167
36.143
36.119
36.096
36.073
36.05
36.028
36.005
35.983
35.961
35.938
35.915
35.891
35.865
35.837
35.808
35.776
35.742
35.705
35.665
35.623
35.578
35.532
35.485
35.438
35.392
35.348
35.307
35.269
35.236
35.208
35.184
35.167
35.154
35.148
35.147
35.152
35.161
35.175
35.191
35.211
35.232
35.254
35.277
35.301
35.325
35.349
35.373
35.398
35.422
35.445
35.466
35.485
35.502
35.516
35.527
35.534
35.537
35.538
35.535
35.529
35.519
35.508
35.494
35.479
35.464
35.447
35.43
35.413
35.394
35.375
35.354
35.333
35.312
35.291
35.271
35.252
35.234
35.215
35.197
35.178
35.159
35.139
35.119
35.099
35.078
35.058
35.037
35.017
34.998
34.98
34.963
34.947
34.931
34.916
34.902
34.887
34.873
34.857
34.84
34.822
34.803
34.782
34.76
34.738
34.717
34.696
34.676
34.657
34.64
34.624
34.608
34.594
34.579
34.566
34.553
34.542
34.533
34.525
34.519
34.514
34.511
34.51
34.509
34.509
34.508
34.507
34.504
34.501
34.496
34.49
34.483
34.475
34.466
34.456
34.446
34.434
34.422
34.409
34.395
34.38
34.364
34.346
34.328
34.308
34.287
34.265
34.241
34.217
34.192
34.168
34.145
34.125
34.106
34.09
34.077
34.067
34.06
34.056
34.057
34.063
34.075
34.093
34.119
34.153
34.198
34.255
34.324
34.406
34.502
34.611
34.734
34.868
35.014
35.169
35.33
35.496
35.664
35.832
35.996
36.156
36.309
36.453
36.586
36.707
36.815
36.91
36.991
37.058
37.111
37.151
37.179
37.196
37.203
37.201
37.192
37.177
37.156
37.131
37.102
37.072
37.04
37.008
36.976
36.945
36.914
36.884
36.855
36.827
36.8
36.772
36.745
36.717
36.688
36.658
36.626
36.593
36.558
36.522
36.485
36.445
36.405
36.362
36.318
36.272
36.224
36.175
36.125
36.076
36.026
35.978
35.931
35.886
35.843
35.804
35.768
35.737
35.71
35.688
35.671
35.659
35.653
35.651
35.654
35.662
35.674
35.69
35.709
35.731
35.756
35.783
35.811
35.839
35.867
35.893
35.917
35.939
35.959
35.976
35.991
36.003
36.012
36.019
36.023
36.024
36.022
36.018
36.01
36.0
35.987
35.971
35.953
35.933
35.911
35.888
35.865
35.841
35.816
35.791
35.766
35.741
35.717
35.693
35.669
35.646
35.623
35.601
35.579
35.557
35.537
35.518
35.5
35.482
35.465
35.449
35.433
35.417
35.401
35.385
35.369
35.352
35.335
35.316
35.296
35.275
35.253
35.229
35.203
35.176
35.146
35.116
35.084
35.051
35.02
34.989
34.959
34.932
34.906
34.883
34.861
34.842
34.824
34.808
34.793
34.779
34.765
34.752
34.739
34.726
34.713
34.699
34.685
34.67
34.654
34.637
34.618
34.597
34.573
34.547
34.519
34.49
34.461
34.432
34.403
34.376
34.349
34.324
34.3
34.278
34.257
34.239
34.223
34.209
34.199
34.194
34.194
34.2
34.214
34.238
34.271
34.316
34.373
34.443
34.527
34.625
34.737
34.862
34.999
35.146
35.302
35.465
35.633
35.805
35.979
36.152
36.322
36.487
36.647
36.798
36.94
37.071
37.191
37.3
37.395
37.479
37.551
37.611
37.659
37.696
37.722
37.738
37.745
37.744
37.735
37.721
37.702
37.679
37.652
37.623
37.592
37.561
37.529
37.497
37.465
37.435
37.405
37.376
37.348
37.319
37.29
37.26
37.229
37.196
37.161
37.124
37.085
37.042
36.996
36.946
36.893
36.838
36.781
36.723
36.665
36.608
36.553
36.5
36.45
36.402
36.358
36.318
36.283
36.252
36.226
36.206
36.19
36.18
36.174
36.173
36.176
36.184
36.196
36.212
36.231
36.254
36.279
36.307
36.336
36.366
36.397
36.428
36.459
36.488
36.514
36.539
36.561
36.58
36.597
36.61
36.62
36.626
36.629
36.628
36.623
36.616
36.605
36.591
36.575
36.557
36.537
36.516
36.493
36.47
36.446
36.422
36.397
36.373
36.349
36.324
36.3
36.275
36.25
36.225
36.199
36.173
36.147
36.119
36.091
36.061
36.03
35.998
35.964
35.929
35.893
35.857
35.821
35.786
35.751
35.718
35.685
35.653
35.621
35.591
35.561
35.531
35.502
35.474
35.447
35.421
35.396
35.372
35.35
35.328
35.307
35.286
35.265
35.245
35.224
35.202
35.181
35.159
35.137
35.116
35.096
35.076
35.056
35.038
35.02
35.003
34.985
34.968
34.95
34.932
34.913
34.894
34.875
34.856
34.837
34.817
34.797
34.778
34.758
34.738
34.717
34.697
34.676
34.655
34.635
34.617
34.6
34.586
34.577
34.573
34.576
34.588
34.61
34.645
34.695
34.76
34.843
34.944
35.062
35.198
35.351
35.518
35.698
35.888
36.087
36.292
36.5
36.708
36.913
37.113
37.308
37.493
37.67
37.835
37.988
38.128
38.255
38.368
38.467
38.553
38.626
38.687
38.737
38.776
38.805
38.826
38.84
38.846
38.846
38.841
38.832
38.82
38.805
38.789
38.771
38.753
38.734
38.715
38.694
38.672
38.649
38.624
38.596
38.567
38.535
38.501
38.464
38.426
38.385
38.343
38.298
38.252
38.205
38.155
38.105
38.054
38.002
37.95
37.897
37.844
37.791
37.738
37.685
37.634
37.586
37.54
37.498
37.459
37.424
37.393
37.367
37.346
37.329
37.315
37.307
37.302
37.302
37.306
37.313
37.323
37.336
37.351
37.368
37.386
37.405
37.425
37.445
37.463
37.48
37.495
37.507
37.517
37.523
37.526
37.526
37.522
37.516
37.506
37.493
37.476
37.457
37.434
37.408
37.38
37.35
37.318
37.286
37.254
37.222
37.19
37.159
37.128
37.098
37.068
37.037
37.007
36.976
36.944
36.912
36.879
36.844
36.808
36.771
36.732
36.693
36.652
36.61
36.567
36.525
36.482
36.439
36.396
36.354
36.312
36.271
36.23
36.19
36.152
36.115
36.079
36.045
36.013
35.983
