Trial 3:3back
36.699
36.662
36.621
36.578
36.531
36.481
36.427
36.366
36.294
36.21
36.115
36.012
35.903
35.792
35.681
35.574
35.474
35.381
35.299
35.227
35.166
35.114
35.071
35.035
35.006
34.981
34.959
34.938
34.918
34.897
34.875
34.851
34.824
34.794
34.761
34.725
34.685
34.642
34.595
34.546
34.495
34.442
34.388
34.334
34.28
34.229
34.18
34.134
34.091
34.049
34.008
33.968
33.928
33.889
33.851
33.814
33.78
33.75
33.721
33.695
33.669
33.644
33.621
33.598
33.576
33.553
33.53
33.507
33.485
33.463
33.442
33.423
33.406
33.391
33.378
33.367
33.361
33.361
33.371
33.393
33.43
33.484
33.559
33.657
33.779
33.93
34.108
34.314
34.548
34.808
35.092
35.394
35.711
36.039
36.372
36.708
37.042
37.372
37.691
37.996
38.283
38.55
38.793
39.01
39.199
39.362
39.497
39.607
39.693
39.758
39.803
39.833
39.849
39.854
39.851
39.842
39.828
39.811
39.79
39.768
39.745
39.722
39.7
39.679
39.659
39.64
39.622
39.605
39.59
39.575
39.562
39.547
39.531
39.511
39.487
39.457
39.418
39.37
39.311
39.241
39.161
39.072
38.973
38.866
38.753
38.636
38.516
38.394
38.273
38.154
38.038
37.927
37.822
37.724
37.635
37.553
37.48
37.414
37.356
37.305
37.261
37.223
37.189
37.16
37.135
37.112
37.09
37.07
37.049
37.028
37.006
36.981
36.953
36.92
36.882
36.841
36.796
36.746
36.692
36.635
36.575
36.513
36.449
36.38
36.308
36.232
36.153
36.072
35.988
35.902
35.814
35.727
35.641
35.557
35.476
35.399
35.325
35.255
35.19
35.127
35.067
35.009
34.953
34.898
34.844
34.791
34.738
34.684
34.63
34.577
34.525
34.474
34.424
34.377
34.331
34.287
34.244
34.201
34.158
34.116
34.073
34.029
33.984
33.937
33.889
33.841
33.793
33.745
33.698
33.653
33.61
33.571
33.535
33.501
33.471
33.443
33.417
33.391
33.364
33.337
33.31
33.283
33.255
33.226
33.196
33.165
33.133
33.099
33.065
33.029
32.994
32.959
32.926
32.895
32.866
32.843
32.826
32.82
32.825
32.846
32.885
32.947
33.035
33.151
33.297
33.473
33.68
33.916
34.181
34.47
34.781
35.112
35.457
35.814
36.178
36.545
36.908
37.263
37.606
37.932
38.239
38.525
38.786
39.021
39.231
39.413
39.569
39.697
39.798
39.875
39.93
39.968
39.99
40.001
40.004
40.003
40.0
39.998
39.998
40.001
40.007
40.015
40.026
40.038
40.052
40.066
40.08
40.092
40.103
40.11
40.113
40.112
40.105
40.091
40.068
40.036
39.993
39.939
39.874
39.797
39.708
39.608
39.496
39.376
39.247
39.112
38.973
38.833
38.694
38.558
38.428
38.304
38.188
38.081
37.982
37.892
37.811
37.739
37.674
37.616
37.563
37.513
37.466
37.421
37.375
37.328
37.279
37.228
37.175
37.119
37.061
37.0
36.938
36.874
36.81
36.746
36.683
36.621
36.56
36.5
36.44
36.379
36.316
36.251
36.184
36.115
36.044
35.969
35.891
35.811
35.729
35.648
35.568
35.489
35.411
35.335
35.261
35.188
35.117
35.047
34.978
34.91
34.843
34.778
34.714
34.651
34.588
34.526
34.462
34.396
34.33
34.262
34.196
34.131
34.069
34.009
33.952
33.897
33.846
33.799
33.755
33.715
33.678
33.645
33.613
33.583
33.554
33.526
33.498
33.472
33.445
33.417
33.387
33.353
33.317
33.278
33.237
33.195
33.153
33.111
33.071
33.031
32.993
32.955
32.92
32.886
32.853
32.821
32.788
32.756
32.724
32.691
32.658
32.625
32.592
32.56
32.528
32.496
32.464
32.433
32.403
32.378
32.357
32.343
32.338
32.346
32.368
32.409
32.47
32.554
32.663
32.8
32.965
33.158
33.38
33.629
33.905
34.205
34.524
34.857
35.198
35.542
35.887
36.227
36.561
36.886
37.198
37.497
37.78
38.045
38.291
38.516
38.718
38.897
39.055
39.191
39.308
39.405
39.484
39.546
39.594
39.63
39.658
39.679
39.695
39.708
39.72
39.731
39.744
39.757
39.771
39.784
39.796
39.807
39.816
39.823
39.828
39.829
39.827
39.82
39.809
39.793
39.772
39.745
39.709
39.665
39.611
39.547
39.472
39.386
39.289
39.18
39.061
38.933
38.8
38.661
38.519
38.375
38.233
38.095
37.963
37.84
37.727
37.624
37.532
37.45
37.379
37.316
37.259
37.208
37.16
37.114
37.068
37.022
36.973
36.922
36.869
36.813
36.756
36.696
36.633
36.569
36.505
36.44
36.376
36.311
36.245
36.181
36.118
36.056
35.995
35.936
35.877
35.819
35.762
35.706
35.649
35.59
35.528
35.463
35.395
35.322
35.244
35.163
35.079
34.992
34.905
34.817
34.728
34.641
34.556
34.472
34.392
34.315
34.241
34.172
34.107
34.046
33.99
33.937
33.888
33.842
33.799
33.758
33.719
33.681
33.642
33.604
33.564
33.525
33.486
33.447
33.408
33.37
33.332
33.296
33.26
33.226
33.193
33.16
33.128
33.095
33.062
33.029
32.997
32.966
32.935
32.906
32.877
32.849
32.82
32.79
32.76
32.729
32.698
32.667
32.636
32.605
32.574
32.544
32.514
32.485
32.457
32.428
32.4
32.371
32.341
32.311
32.28
32.249
32.219
32.191
32.162
32.135
32.107
32.079
32.052
32.024
31.997
31.969
31.942
31.911
31.878
31.845
31.816
31.794
31.783
31.787
31.81
31.855
31.924
32.023
32.152
32.313
32.508
32.735
32.994
33.281
33.594
33.927
34.276
34.637
35.003
35.37
35.733
36.086
36.426
36.749
37.052
37.334
37.593
37.828
38.039
38.227
38.391
38.533
38.655
38.758
38.844
38.916
38.975
39.024
39.066
39.102
39.134
39.164
39.193
39.22
39.247
39.272
39.295
39.316
39.335
39.352
39.365
39.376
39.384
39.389
39.391
39.39
39.384
39.373
39.357
39.335
39.307
39.272
39.227
39.174
39.111
39.038
38.956
38.864
38.763
38.654
38.539
38.42
38.297
38.172
38.045
37.92
37.797
37.677
37.561
37.451
37.346
37.248
37.158
37.074
36.997
36.926
36.862
36.805
36.754
36.709
36.668
36.63
36.594
36.558
36.521
36.481
36.438
36.392
36.343
36.292
36.238
36.181
36.121
36.057
35.992
35.924
35.855
35.784
35.712
35.639
35.566
35.493
35.421
35.349
35.277
35.207
35.138
35.07
35.002
34.936
34.87
34.806
34.741
34.677
34.613
34.548
34.484
34.42
34.355
34.29
34.223
34.156
34.088
34.02
33.951
33.882
33.811
33.74
33.67
33.6
33.531
33.464
33.399
33.336
33.275
33.213
33.152
33.091
33.033
32.976
32.921
32.868
32.817
32.769
32.723
32.68
32.639
32.601
32.565
32.533
32.502
32.473
32.445
32.418
32.392
32.366
32.34
32.315
32.29
32.264
32.237
32.21
32.183
32.155
32.129
32.104
32.079
32.056
32.033
32.011
31.99
31.968
31.944
31.915
31.878
31.832
31.778
31.72
31.66
31.601
31.546
31.495
31.449
31.408
31.372
31.341
31.314
31.291
31.272
31.255
31.24
31.226
31.213
31.2
31.186
31.171
31.153
31.134
31.113
31.091
31.069
31.047
31.026
31.006
30.99
30.979
30.976
30.985
31.01
31.055
31.123
31.217
31.339
31.491
31.672
31.881
32.116
32.376
32.656
32.954
33.263
33.579
33.899
34.216
34.528
34.83
35.117
35.388
35.639
35.867
36.073
36.257
36.417
36.556
36.672
36.768
36.845
36.905
36.951
36.982
37.003
37.013
37.017
37.015
37.01
37.002
36.993
36.982
36.972
36.963
36.956
36.952
36.951
36.953
36.958
36.964
36.97
36.973
36.971
36.964
36.947
36.92
36.884
36.838
36.784
36.724
36.657
36.585
36.507
36.422
36.333
36.24
36.144
36.046
35.947
35.85
35.755
35.663
35.576
35.495
35.419
35.35
35.285
35.224
35.167
35.113
35.063
35.018
34.979
34.945
34.915
34.889
34.865
34.844
34.824
34.803
34.783
34.762
34.74
34.717
34.691
34.663
34.633
34.601
34.568
34.535
34.5
34.461
34.419
34.374
34.325
34.272
34.216
34.157
34.098
34.037
33.976
33.915
33.853
33.794
33.736
33.68
33.625
33.572
33.519
33.468
33.418
33.369
33.323
33.278
33.236
33.195
33.155
33.114
33.072
33.031
32.99
32.95
32.909
32.869
32.829
32.79
32.751
32.712
32.675
32.639
32.605
32.571
32.539
32.506
32.472
32.439
32.407
32.377
32.35
32.326
32.305
32.287
32.27
32.255
32.241
32.229
32.218
32.207
32.196
32.186
32.175
32.163
32.151
32.137
32.123
32.109
32.093
32.077
32.06
32.042
32.024
32.005
31.985
31.965
31.944
31.924
31.903
31.882
31.86
31.839
31.818
31.798
31.778
31.758
31.739
31.72
31.702
31.683
31.663
31.645
31.626
31.609
31.594
31.581
31.574
31.573
31.58
31.597
31.627
31.673
31.736
31.818
31.921
32.044
32.188
32.353
32.539
32.743
32.963
33.195
33.437
33.684
33.935
34.185
34.431
34.672
34.903
35.123
35.329
35.519
35.691
35.846
35.983
36.104
36.207
36.294
36.365
36.42
36.461
36.49
36.509
36.519
36.522
36.52
36.514
36.506
36.497
36.488
36.477
36.466
36.454
36.442
36.431
36.42
36.411
36.403
36.395
36.387
36.378
36.367
36.353
36.336
36.316
36.291
36.259
36.221
36.176
36.124
36.065
36.0
35.929
35.852
35.772
35.69
35.606
35.524
35.444
35.368
35.299
35.236
35.181
35.134
35.094
35.062
35.036
35.016
35.001
34.99
34.983
34.979
34.977
34.976
34.975
34.973
34.97
34.965
34.958
34.948
34.934
34.916
34.895
34.87
34.842
34.81
34.776
34.739
34.7
34.659
34.616
34.571
34.524
34.476
34.427
34.377
34.327
34.276
34.226
34.177
34.131
34.087
34.046
34.008
33.972
33.938
33.905
33.871
33.837
33.802
33.767
33.732
33.696
33.66
33.622
33.582
33.54
33.497
33.452
33.406
33.361
33.318
33.277
33.24
33.206
33.176
33.15
33.127
33.107
33.088
33.071
33.054
33.039
33.023
33.008
32.994
32.98
32.968
32.956
32.942
32.928
32.914
32.9
32.887
32.874
32.862
32.85
32.837
32.824
32.81
32.795
32.778
32.759
32.739
32.716
32.689
32.659
32.627
32.594
32.56
32.528
32.496
32.467
32.441
32.418
32.396
32.377
32.359
32.342
32.326
32.31
32.293
32.275
32.257
32.239
32.22
32.202
32.184
32.166
32.15
32.135
32.124
32.12
32.124
32.14
32.17
32.218
32.287
32.379
32.494
32.635
32.799
32.986
33.194
33.422
33.666
33.92
34.183
34.448
34.714
34.975
35.227
35.467
35.692
35.899
36.087
36.25
36.386
36.495
36.579
36.641
36.687
36.719
36.742
36.759
36.773
36.785
36.797
36.81
36.825
36.841
36.858
36.876
36.896
36.916
36.937
36.958
36.978
36.998
37.016
37.033
37.049
37.061
37.071
37.077
37.08
37.079
37.072
37.06
37.04
37.014
36.982
36.942
36.896
36.843
36.784
36.722
36.655
36.586
36.515
36.443
36.372
36.302
36.235
36.17
36.11
36.052
35.999
35.949
35.904
35.862
35.823
35.786
35.752
35.719
35.688
35.656
35.624
35.593
35.562
35.532
35.502
35.473
35.444
35.415
35.387
35.359
35.333
35.307
35.282
35.258
35.235
35.211
35.186
35.159
35.129
35.097
35.062
35.024
34.982
34.937
34.889
34.838
34.784
34.727
34.668
34.608
34.546
34.485
34.423
34.363
34.303
34.245
34.188
34.135
34.084
34.037
33.994
33.954
33.917
33.884
33.853
33.823
33.794
33.766
33.738
33.711
33.683
33.655
33.627
33.599
33.572
33.544
33.516
33.489
33.463
33.44
33.418
33.398
33.381
33.364
33.348
33.332
33.315
33.297
33.277
33.255
33.231
33.206
33.179
33.153
33.128
33.104
33.081
33.059
33.036
33.014
32.992
32.969
32.947
32.925
32.904
32.883
32.862
32.84
32.819
32.797
32.775
32.752
32.729
32.706
32.682
32.659
32.637
32.615
32.595
32.577
32.561
32.544
32.528
32.51
32.492
32.471
32.45
32.428
32.406
32.384
32.362
32.342
32.324
32.308
32.297
32.293
32.297
32.313
32.343
32.39
32.459
32.551
32.668
32.811
32.978
33.171
33.385
33.618
33.865
34.124
34.389
34.658
34.927
35.191
35.448
35.693
35.924
36.139
36.337
36.516
36.676
36.816
36.936
37.037
37.122
37.19
37.246
37.289
37.323
37.349
37.369
37.384
37.395
37.402
37.406
37.406
37.404
37.4
37.393
37.386
37.378
37.37
37.363
37.357
37.352
37.347
37.342
37.339
37.335
37.33
37.323
37.312
37.298
37.28
37.257
37.23
37.197
37.158
37.114
37.066
37.013
36.955
36.893
36.827
36.758
36.687
36.616
36.545
36.476
36.411
36.35
36.294
36.243
36.197
36.158
36.125
36.097
36.074
36.054
36.036
36.019
36.002
35.984
35.965
35.944
35.921
35.896
35.868
35.838
35.807
35.773
35.738
35.701
35.664
35.628
35.592
35.557
35.522
35.487
35.451
35.415
35.377
35.339
35.299
35.257
35.212
35.165
35.115
35.063
35.01
34.957
34.904
34.852
34.799
34.746
34.694
34.642
34.591
34.54
34.489
34.438
34.386
34.334
34.281
34.229
34.178
34.129
34.082
34.038
33.997
33.958
33.922
33.889
33.858
33.829
33.803
33.779
33.756
33.734
33.713
33.692
33.672
33.651
33.631
33.608
33.585
33.559
33.531
33.502
33.472
33.442
33.411
33.379
33.348
33.316
33.285
33.254
33.223
33.193
33.165
33.138
33.114
33.091
33.072
33.055
33.042
33.031
33.022
33.014
33.007
33.0
32.993
32.985
32.978
32.97
32.962
32.953
32.944
32.934
32.924
32.913
32.901
32.887
32.871
32.853
32.832
32.807
32.779
32.749
32.717
32.685
32.651
32.617
32.583
32.549
32.517
32.488
32.46
32.436
32.413
32.393
32.375
32.359
32.345
32.335
32.33
32.329
32.335
32.347
32.369
32.403
32.453
32.524
32.617
32.737
32.884
33.058
33.26
33.486
33.736
34.007
34.294
34.594
34.901
35.21
35.515
35.813
36.098
36.368
36.619
36.85
37.059
37.244
37.405
37.542
37.656
37.748
37.819
37.873
37.912
37.937
37.953
37.961
37.962
37.96
37.956
37.952
37.948
37.946
37.946
37.95
37.957
37.968
37.981
37.995
38.011
38.025
38.039
38.049
38.057
38.059
38.058
38.051
38.041
38.025
38.003
37.974
37.939
37.896
37.847
37.791
37.728
37.659
37.584
37.505
37.422
37.339
37.257
37.178
37.104
37.035
36.974
36.92
36.87
36.826
36.786
36.751
36.72
36.692
36.668
36.648
36.63
36.614
36.601
36.588
36.575
36.563
36.551
36.538
36.522
36.503
36.479
36.451
36.419
36.384
36.347
36.308
36.268
36.228
36.188
36.147
36.105
36.061
36.016
35.967
35.917
35.864
35.808
35.751
35.692
35.634
35.576
35.518
35.459
35.401
35.344
35.287
35.23
35.173
35.116
35.06
35.005
34.951
34.899
34.849
34.801
34.756
34.713
34.672
34.631
34.592
34.554
34.517
34.481
34.444
34.407
34.369
34.33
34.292
34.254
34.217
34.18
34.143
34.108
34.072
34.036
34.001
33.968
33.936
33.907
33.878
33.851
33.825
33.8
33.775
33.749
33.722
33.695
33.667
33.64
33.614
33.59
33.567
33.548
33.531
33.517
33.505
33.493
33.481
33.469
33.457
33.443
33.428
33.412
33.395
33.377
33.358
33.338
33.317
33.295
33.274
33.252
33.231
33.209
33.188
33.168
33.148
33.131
33.114
33.099
33.084
33.068
33.052
33.034
33.015
32.996
32.977
32.957
32.938
32.919
32.9
32.881
32.862
32.844
32.826
32.809
32.791
32.773
32.753
32.731
32.709
32.685
32.66
32.635
32.608
32.582
32.556
32.531
32.508
32.488
32.474
32.466
32.468
32.481
32.51
32.558
32.629
32.725
32.851
33.007
33.193
33.411
33.656
33.927
34.221
34.532
34.856
35.19
35.526
35.861
36.19
36.509
36.814
37.103
37.371
37.619
37.844
38.045
38.221
38.37
38.493
38.59
38.663
38.713
38.742
38.754
38.752
38.739
38.718
38.693
38.665
38.638
38.613
38.591
38.573
38.56
38.55
38.545
38.543
38.543
38.546
38.55
38.554
38.555
38.554
38.551
38.546
38.538
38.528
38.515
38.497
38.476
38.45
38.419
38.381
38.336
38.284
38.224
38.159
38.087
38.011
37.931
37.847
37.761
37.676
37.594
37.515
37.441
37.373
37.312
37.257
37.21
37.17
37.135
37.105
37.081
37.062
37.046
37.035
37.025
37.017
37.009
36.999
36.986
36.97
36.949
36.924
36.894
36.861
36.823
36.781
36.735
36.687
36.638
36.587
36.535
36.481
36.426
36.369
36.312
36.253
36.194
36.132
36.07
36.008
35.947
35.888
35.831
35.776
35.721
35.667
35.612
35.556
35.499
35.44
35.379
35.316
35.252
35.186
35.121
35.056
34.994
34.934
34.877
34.821
34.767
34.714
34.662
34.61
34.56
34.51
34.462
34.416
34.372
34.33
34.289
34.249
34.211
34.174
34.138
34.102
34.067
34.033
34.0
33.969
33.94
33.912
33.886
33.862
33.839
33.818
33.797
33.777
33.758
33.74
33.722
33.704
33.687
33.669
33.65
33.631
33.611
33.589
33.568
33.546
33.523
33.5
33.476
33.451
33.427
33.403
33.378
33.352
33.325
33.297
33.268
33.238
33.207
33.175
33.144
33.114
33.083
33.053
33.022
32.991
32.961
32.93
32.898
32.866
32.832
32.798
32.764
32.731
32.698
32.668
32.64
32.615
32.591
32.566
32.541
32.516
32.491
32.467
32.443
32.42
32.4
32.384
32.371
32.362
32.359
32.366
32.383
32.416
32.467
32.54
32.64
32.768
32.928
33.118
33.34
33.591
33.869
34.17
34.49
34.824
35.167
35.514
35.861
36.203
36.535
36.852
37.15
37.427
37.68
37.909
38.113
38.289
38.44
38.565
38.666
38.747
38.808
38.851
38.88
38.896
38.903
38.904
38.899
38.89
38.877
38.862
38.847
38.831
38.815
38.798
38.781
38.765
38.749
38.733
38.717
38.699
38.68
38.659
38.636
38.613
38.588
38.562
38.535
38.507
38.476
38.442
38.403
38.359
38.309
38.253
38.192
38.126
38.054
37.978
37.897
37.815
37.732
37.65
37.57
37.494
37.422
37.356
37.296
37.243
37.196
37.157
37.124
37.097
37.076
37.06
37.046
37.035
37.023
37.01
36.995
36.977
36.956
36.931
36.903
36.871
36.834
36.793
36.749
36.701
36.652
36.6
36.548
36.496
36.444
36.393
36.342
36.291
36.24
36.188
36.135
36.08
36.024
35.966
35.906
35.844
35.782
35.719
35.656
35.593
35.531
35.47
35.41
35.35
35.289
35.228
35.168
35.108
35.047
34.987
34.927
34.869
34.813
34.759
34.705
34.654
34.605
34.558
34.514
34.472
34.432
34.395
34.359
34.324
34.29
34.256
34.224
34.192
34.16
34.127
34.094
34.059
34.024
33.988
33.951
33.915
33.88
33.846
33.815
33.785
33.759
33.734
33.711
33.689
33.668
33.646
33.623
33.597
33.571
33.544
33.517
33.491
33.465
33.44
33.414
33.388
33.36
33.33
33.299
33.265
33.228
33.189
33.149
33.106
33.064
33.021
32.98
32.939
32.9
32.862
32.824
32.786
32.75
32.715
32.683
32.655
32.628
32.602
32.577
32.553
32.528
32.502
32.474
32.447
32.419
32.391
32.363
32.335
32.309
32.285
32.264
32.246
32.234
32.229
32.234
32.253
32.288
32.345
32.427
32.538
32.68
32.853
33.057
33.29
33.551
33.836
34.142
34.463
34.795
35.131
35.467
35.798
36.119
36.427
36.718
36.99
37.242
37.473
37.68
37.864
38.023
38.159
38.272
38.364
38.435
38.487
38.522
38.543
38.551
38.549
38.538
38.52
38.496
38.468
38.439
38.409
38.381
38.357
38.336
38.319
38.305
38.294
38.283
38.272
38.259
38.244
38.227
38.206
38.18
38.15
38.113
38.07
38.022
37.969
37.91
37.847
37.78
37.709
37.634
37.558
37.48
37.403
37.327
37.253
37.181
37.111
37.044
36.98
36.919
36.861
36.806
36.752
36.703
36.656
36.613
36.574
36.539
36.507
36.478
36.452
36.429
36.407
36.386
36.366
36.347
36.326
36.303
36.277
36.247
36.212
36.173
36.129
36.08
36.025
35.966
35.903
35.837
35.768
35.698
35.626
35.555
35.485
35.416
35.349
35.283
35.218
35.154
35.092
35.03
34.97
34.913
34.858
34.806
34.756
34.706
34.657
34.609
34.562
34.515
34.468
34.42
34.371
34.321
34.268
34.214
34.158
34.101
34.044
33.985
33.924
33.863
33.801
33.739
33.68
33.624
33.571
33.521
33.474
33.431
33.391
33.354
33.319
33.288
33.259
33.234
33.211
33.189
33.169
33.151
33.135
33.121
33.109
33.099
33.09
33.081
33.071
33.061
33.049
33.036
33.021
33.005
32.987
32.966
32.944
32.92
32.893
32.866
32.837
32.809
32.781
32.753
32.725
32.695
32.665
32.635
32.604
32.573
32.543
32.514
32.486
32.458
32.43
32.402
32.374
32.346
32.317
32.289
32.261
32.234
32.207
32.181
32.154
32.127
32.1
32.075
32.051
32.028
32.007
31.988
31.971
31.957
31.946
31.941
31.945
31.962
31.997
32.052
32.131
32.237
32.372
32.538
32.735
32.96
33.213
33.49
33.787
34.102
34.428
34.761
35.096
35.428
35.753
36.066
36.362
36.639
36.894
37.126
37.334
37.517
37.675
37.808
37.918
38.006
38.075
38.125
38.159
