Trial 3:3back
34.156
34.14
34.123
34.107
34.09
34.072
34.054
34.035
34.016
33.997
33.978
33.959
33.941
33.924
33.908
33.894
33.88
33.867
33.854
33.842
33.831
33.821
33.811
33.801
33.792
33.783
33.773
33.764
33.753
33.742
33.73
33.717
33.705
33.692
33.679
33.667
33.655
33.643
33.632
33.622
33.612
33.604
33.596
33.589
33.583
33.578
33.573
33.568
33.565
33.562
33.559
33.556
33.552
33.546
33.54
33.532
33.523
33.513
33.502
33.489
33.476
33.464
33.452
33.442
33.432
33.423
33.415
33.408
33.401
33.394
33.387
33.38
33.374
33.369
33.364
33.36
33.356
33.353
33.349
33.345
33.34
33.334
33.328
33.322
33.319
33.319
33.324
33.338
33.361
33.396
33.445
33.508
33.587
33.68
33.79
33.914
34.053
34.205
34.368
34.539
34.717
34.897
35.076
35.251
35.419
35.578
35.724
35.856
35.973
36.073
36.156
36.223
36.275
36.315
36.344
36.363
36.372
36.374
36.37
36.359
36.344
36.325
36.303
36.28
36.258
36.237
36.219
36.202
36.187
36.172
36.158
36.145
36.131
36.118
36.106
36.094
36.084
36.077
36.071
36.068
36.068
36.072
36.077
36.083
36.088
36.091
36.09
36.084
36.074
36.06
36.042
36.021
35.997
35.97
35.941
35.91
35.876
35.841
35.806
35.769
35.734
35.7
35.667
35.637
35.609
35.585
35.564
35.546
35.532
35.52
35.51
35.501
35.493
35.486
35.479
35.471
35.465
35.458
35.453
35.448
35.444
35.441
35.439
35.437
35.435
35.432
35.428
35.422
35.415
35.406
35.396
35.384
35.37
35.354
35.338
35.322
35.304
35.286
35.268
35.249
35.231
35.211
35.191
35.169
35.145
35.12
35.094
35.066
35.039
35.012
34.986
34.962
34.941
34.921
34.902
34.884
34.866
34.848
34.828
34.808
34.785
34.761
34.736
34.711
34.686
34.663
34.64
34.617
34.595
34.573
34.553
34.534
34.516
34.5
34.486
34.474
34.463
34.454
34.445
34.436
34.426
34.415
34.404
34.392
34.38
34.367
34.354
34.342
34.331
34.319
34.307
34.29
34.267
34.236
34.202
34.165
34.128
34.093
34.062
34.036
34.016
34.001
33.993
33.989
33.99
33.994
34.001
34.009
34.018
34.026
34.033
34.04
34.045
34.049
34.051
34.051
34.049
34.045
34.038
34.028
34.016
34.003
33.988
33.971
33.954
33.935
33.917
33.899
33.883
33.869
33.858
33.851
33.846
33.845
33.845
33.844
33.842
33.838
33.832
33.823
33.812
33.798
33.783
33.767
33.752
33.739
33.728
33.72
33.713
33.709
33.705
33.703
33.7
33.696
33.691
33.685
33.678
33.671
33.663
33.657
33.65
33.645
33.643
33.644
33.648
33.652
33.658
33.663
33.666
33.667
33.665
33.66
33.655
33.649
33.643
33.638
33.634
33.631
33.631
33.633
33.638
33.649
33.665
33.688
33.723
33.769
33.831
33.909
34.005
34.12
34.253
34.404
34.57
34.748
34.935
35.128
35.321
35.513
35.699
35.877
36.044
36.198
36.341
36.469
36.583
36.679
36.757
36.817
36.857
36.881
36.889
36.884
36.868
36.843
36.812
36.779
36.745
36.711
36.68
36.653
36.631
36.614
36.602
36.593
36.588
36.585
36.584
36.584
36.583
36.582
36.579
36.575
36.569
36.561
36.552
36.54
36.528
36.513
36.498
36.482
36.466
36.449
36.433
36.416
36.398
36.38
36.36
36.337
36.313
36.288
36.261
36.233
36.204
36.172
36.14
36.107
36.075
36.044
36.014
35.986
35.961
35.939
35.92
35.905
35.893
35.883
35.877
35.874
35.872
35.872
35.872
35.872
35.873
35.873
35.873
35.872
35.87
35.866
35.861
35.855
35.848
35.839
35.83
35.82
35.81
35.799
35.787
35.774
35.758
35.742
35.724
35.705
35.685
35.664
35.641
35.616
35.59
35.562
35.533
35.504
35.474
35.445
35.415
35.387
35.358
35.331
35.304
35.278
35.253
35.228
35.204
35.18
35.155
35.13
35.105
35.08
35.054
35.029
35.004
34.98
34.958
34.936
34.914
34.893
34.87
34.847
34.824
34.8
34.775
34.75
34.726
34.703
34.683
34.663
34.646
34.629
34.612
34.595
34.577
34.557
34.536
34.514
34.492
34.472
34.453
34.436
34.421
34.408
34.397
34.387
34.379
34.372
34.365
34.358
34.351
34.342
34.332
34.319
34.306
34.292
34.278
34.265
34.252
34.24
34.229
34.219
34.209
34.199
34.187
34.174
34.16
34.145
34.131
34.118
34.105
34.094
34.083
34.075
34.067
34.059
34.051
34.043
34.034
34.025
34.015
34.006
33.996
33.988
33.979
33.972
33.966
33.96
33.952
33.944
33.934
33.923
33.911
33.897
33.882
33.867
33.851
33.835
33.82
33.806
33.794
33.783
33.773
33.763
33.754
33.745
33.736
33.726
33.717
33.707
33.698
33.689
33.684
33.682
33.684
33.686
33.69
33.692
33.691
33.689
33.684
33.676
33.668
33.659
33.653
33.651
33.655
33.669
33.694
33.733
33.788
33.859
33.949
34.058
34.186
34.332
34.493
34.669
34.854
35.048
35.244
35.44
35.631
35.817
35.994
36.161
36.317
36.461
36.591
36.706
36.806
36.888
36.954
37.003
37.036
37.054
37.06
37.055
37.041
37.02
36.996
36.97
36.943
36.916
36.891
36.867
36.847
36.83
36.816
36.807
36.801
36.798
36.798
36.8
36.803
36.806
36.808
36.809
36.81
36.811
36.811
36.809
36.807
36.802
36.795
36.785
36.773
36.758
36.74
36.72
36.698
36.675
36.651
36.625
36.599
36.573
36.547
36.52
36.492
36.464
36.435
36.407
36.378
36.351
36.324
36.3
36.277
36.256
36.237
36.22
36.205
36.192
36.181
36.172
36.163
36.157
36.151
36.147
36.145
36.146
36.147
36.15
36.153
36.154
36.154
36.152
36.148
36.141
36.132
36.121
36.108
36.093
36.077
36.06
36.041
36.02
35.997
35.972
35.946
35.918
35.889
35.86
35.83
35.801
35.772
35.743
35.716
35.689
35.662
35.634
35.605
35.574
35.543
35.512
35.481
35.45
35.421
35.393
35.366
35.341
35.318
35.296
35.274
35.253
35.232
35.212
35.192
35.173
35.154
35.135
35.117
35.099
35.082
35.064
35.045
35.026
35.006
34.985
34.963
34.941
34.918
34.894
34.871
34.849
34.829
34.811
34.793
34.777
34.76
34.744
34.727
34.711
34.696
34.682
34.67
34.659
34.649
34.64
34.631
34.622
34.613
34.603
34.592
34.58
34.567
34.555
34.542
34.53
34.516
34.501
34.484
34.465
34.445
34.424
34.403
34.382
34.36
34.341
34.323
34.309
34.296
34.287
34.279
34.274
34.271
34.268
34.267
34.265
34.263
34.261
34.257
34.253
34.246
34.236
34.224
34.21
34.193
34.175
34.154
34.132
34.109
34.086
34.064
34.044
34.027
34.012
33.999
33.988
33.979
33.971
33.965
33.959
33.953
33.948
33.943
33.936
33.929
33.92
33.909
33.899
33.887
33.876
33.864
33.853
33.843
33.833
33.825
33.814
33.797
33.775
33.749
33.721
33.692
33.666
33.646
33.633
33.628
33.635
33.654
33.686
33.733
33.796
33.875
33.972
34.086
34.217
34.364
34.526
34.702
34.889
35.084
35.283
35.483
35.682
35.875
36.058
36.23
36.388
36.532
36.662
36.776
36.876
36.96
37.028
37.082
37.122
37.149
37.167
37.175
37.177
37.174
37.167
37.156
37.144
37.129
37.113
37.096
37.079
37.063
37.048
37.034
37.021
37.01
37.001
36.995
36.991
36.988
36.986
36.983
36.98
36.975
36.97
36.963
36.955
36.947
36.939
36.931
36.923
36.915
36.905
36.895
36.882
36.866
36.848
36.827
36.803
36.776
36.748
36.716
36.682
36.646
36.607
36.568
36.529
36.491
36.454
36.42
36.389
36.363
36.34
36.322
36.307
36.297
36.289
36.284
36.281
36.28
36.281
36.283
36.287
36.293
36.299
36.304
36.308
36.31
36.309
36.304
36.296
36.283
36.266
36.246
36.224
36.2
36.177
36.155
36.132
36.11
36.089
36.067
36.046
36.024
36.002
35.979
35.957
35.933
35.909
35.884
35.858
35.832
35.807
35.784
35.762
35.742
35.723
35.705
35.688
35.671
35.653
35.634
35.613
35.591
35.565
35.535
35.502
35.466
35.427
35.387
35.347
35.308
35.272
35.239
35.21
35.184
35.162
35.144
35.129
35.118
35.11
35.104
35.1
35.097
35.094
35.09
35.083
35.075
35.063
35.047
35.029
35.008
34.985
34.961
34.936
34.911
34.887
34.865
34.845
34.827
34.812
34.801
34.792
34.786
34.782
34.779
34.777
34.776
34.773
34.769
34.763
34.756
34.746
34.734
34.72
34.704
34.688
34.674
34.66
34.648
34.638
34.628
34.619
34.61
34.601
34.59
34.577
34.563
34.547
34.531
34.513
34.496
34.478
34.461
34.445
34.43
34.415
34.401
34.387
34.373
34.361
34.348
34.337
34.325
34.315
34.306
34.298
34.291
34.284
34.277
34.269
34.26
34.249
34.236
34.222
34.206
34.19
34.173
34.157
34.142
34.127
34.113
34.101
34.089
34.078
34.068
34.058
34.051
34.047
34.049
34.058
34.077
34.109
34.155
34.217
34.299
34.399
34.518
34.655
34.809
34.976
35.155
35.342
35.535
35.729
35.921
36.107
36.287
36.457
36.615
36.761
36.891
37.005
37.103
37.184
37.249
37.299
37.337
37.364
37.382
37.391
37.393
37.389
37.38
37.367
37.35
37.331
37.311
37.292
37.275
37.261
37.249
37.239
37.231
37.224
37.218
37.212
37.207
37.201
37.195
37.189
37.183
37.177
37.171
37.165
37.158
37.15
37.14
37.127
37.111
37.091
37.067
37.04
37.01
36.979
36.946
36.91
36.872
36.834
36.794
36.756
36.72
36.689
36.664
36.643
36.627
36.616
36.607
36.599
36.592
36.584
36.576
36.566
36.555
36.545
36.535
36.527
36.522
36.517
36.514
36.511
36.509
36.508
36.507
36.506
36.502
36.496
36.486
36.473
36.456
36.435
36.41
36.382
36.351
36.32
36.288
36.256
36.226
36.196
36.168
36.143
36.12
36.1
36.082
36.065
36.048
36.03
36.012
35.99
35.966
35.939
35.909
35.876
35.842
35.805
35.768
35.73
35.692
35.655
35.62
35.586
35.554
35.524
35.496
35.47
35.446
35.422
35.399
35.377
35.354
35.331
35.308
35.285
35.261
35.237
35.213
35.189
35.164
35.139
35.113
35.089
35.065
35.043
35.023
35.004
34.987
34.97
34.954
34.938
34.92
34.899
34.875
34.848
34.818
34.786
34.752
34.717
34.682
34.646
34.612
34.579
34.548
34.518
34.489
34.461
34.434
34.407
34.381
34.356
34.332
34.309
34.287
34.268
34.25
34.234
34.22
34.209
34.198
34.188
34.179
34.169
34.158
34.147
34.134
34.122
34.108
34.095
34.083
34.072
34.062
34.053
34.045
34.037
34.028
34.018
34.006
33.993
33.978
33.962
33.946
33.933
33.921
33.912
33.906
33.901
33.898
33.895
33.892
33.888
33.883
33.876
33.868
33.859
33.849
33.839
33.828
33.816
33.805
33.794
33.782
33.77
33.758
33.746
33.732
33.718
33.704
33.69
33.679
33.672
33.671
33.678
33.696
33.727
33.773
33.837
33.918
34.019
34.138
34.274
34.428
34.596
34.776
34.968
35.168
35.374
35.583
35.794
36.003
36.206
36.401
36.585
36.756
36.911
37.051
37.173
37.279
37.366
37.437
37.492
37.531
37.556
37.568
37.568
37.561
37.546
37.525
37.502
37.479
37.456
37.435
37.417
37.4
37.385
37.373
37.365
37.36
37.357
37.358
37.36
37.365
37.371
37.377
37.385
37.392
37.4
37.407
37.413
37.418
37.422
37.423
37.421
37.416
37.408
37.398
37.385
37.369
37.352
37.335
37.318
37.301
37.283
37.264
37.244
37.219
37.191
37.159
37.123
37.082
37.038
36.992
36.943
36.892
36.841
36.79
36.74
36.692
36.647
36.606
36.57
36.539
36.511
36.488
36.468
36.452
36.438
36.425
36.415
36.405
36.396
36.388
36.38
36.373
36.366
36.36
36.353
36.347
36.339
36.332
36.323
36.313
36.303
36.292
36.281
36.269
36.258
36.246
36.234
36.221
36.207
36.191
36.173
36.153
36.132
36.109
36.085
36.059
36.034
36.008
35.982
35.957
35.931
35.905
35.878
35.851
35.823
35.796
35.769
35.743
35.72
35.698
35.679
35.66
35.643
35.624
35.605
35.585
35.563
35.539
35.513
35.487
35.462
35.437
35.414
35.392
35.371
35.351
35.331
35.31
35.289
35.267
35.243
35.219
35.195
35.172
35.15
35.13
35.114
35.1
35.089
35.08
35.071
35.063
35.054
35.044
35.032
35.018
35.003
34.985
34.967
34.947
34.927
34.907
34.888
34.868
34.849
34.83
34.813
34.797
34.782
34.767
34.754
34.741
34.729
34.719
34.71
34.7
34.692
34.683
34.673
34.664
34.653
34.642
34.631
34.621
34.61
34.6
34.589
34.577
34.566
34.553
34.541
34.527
34.513
34.497
34.482
34.466
34.451
34.434
34.418
34.402
34.387
34.375
34.363
34.351
34.34
34.328
34.315
34.3
34.284
34.267
34.249
34.23
34.211
34.19
34.17
34.149
34.129
34.111
34.094
34.079
34.069
34.063
34.066
34.079
34.104
34.144
34.2
34.275
34.369
34.483
34.615
34.764
34.926
35.1
35.284
35.476
35.672
35.87
36.067
36.26
36.447
36.625
36.793
36.949
37.091
37.219
37.334
37.433
37.518
37.588
37.643
37.684
37.712
37.729
37.735
37.732
37.723
37.709
37.693
37.675
37.656
37.638
37.62
37.604
37.591
37.58
37.573
37.57
37.571
37.576
37.585
37.596
37.609
37.621
37.633
37.643
37.651
37.657
37.66
37.661
37.659
37.653
37.645
37.633
37.617
37.597
37.573
37.546
37.516
37.483
37.447
37.41
37.37
37.329
37.288
37.247
37.207
37.168
37.131
37.095
37.063
37.034
37.008
36.986
36.968
36.953
36.941
36.931
36.922
36.914
36.908
36.903
36.899
36.895
36.892
36.889
36.884
36.88
36.874
36.867
36.857
36.845
36.831
36.815
36.797
36.778
36.759
36.74
36.72
36.701
36.68
36.659
36.636
36.612
36.588
36.563
36.537
36.511
36.485
36.458
36.432
36.406
36.38
36.353
36.323
36.291
36.257
36.221
36.183
36.145
36.108
36.072
36.039
36.009
35.98
35.953
35.927
35.902
35.876
35.85
35.823
35.794
35.765
35.736
35.708
35.681
35.655
35.631
35.607
35.584
35.56
35.536
35.51
35.483
35.455
35.427
35.4
35.374
35.35
35.327
35.306
35.286
35.267
35.249
35.232
35.215
35.199
35.183
35.167
35.151
35.136
35.119
35.101
35.08
35.058
35.035
35.011
34.987
34.963
34.939
34.916
34.893
34.87
34.85
34.831
34.814
34.8
34.789
34.779
34.772
34.767
34.764
34.761
34.757
34.752
34.746
34.737
34.725
34.711
34.693
34.674
34.652
34.629
34.605
34.582
34.559
34.537
34.517
34.5
34.483
34.468
34.454
34.439
34.425
34.411
34.395
34.378
34.36
34.34
34.319
34.299
34.279
34.26
34.242
34.227
34.215
34.208
34.208
34.215
34.233
34.263
34.307
34.365
34.44
34.53
34.637
34.758
34.895
35.045
35.206
35.377
35.554
35.737
35.922
36.107
36.289
36.465
36.633
36.79
36.933
37.062
37.175
37.272
37.353
37.419
37.471
37.509
37.534
37.547
37.549
37.541
37.525
37.503
37.475
37.445
37.414
37.383
37.355
37.33
37.308
37.289
37.273
37.261
37.251
37.243
37.238
37.234
37.232
37.231
37.23
37.228
37.224
37.219
37.214
37.207
37.198
37.186
37.17
37.15
37.127
37.099
37.068
37.033
36.995
36.953
36.908
36.861
36.811
36.761
36.709
36.658
36.608
36.561
36.518
36.477
36.441
36.409
36.384
36.365
36.351
36.34
36.333
36.327
36.323
36.32
36.317
36.313
36.309
36.303
36.297
36.29
36.282
36.272
36.261
36.248
36.236
36.222
36.209
36.197
36.184
36.173
36.161
36.15
36.137
36.123
36.105
36.085
36.062
36.035
36.006
35.976
35.943
35.911
35.878
35.846
35.814
35.782
35.749
35.717
35.684
35.651
35.618
35.585
35.553
35.52
35.489
35.456
35.423
35.389
35.353
35.317
35.28
35.244
35.21
35.179
35.152
35.129
35.109
35.091
35.075
35.06
35.046
35.031
35.015
34.996
34.976
34.952
34.927
34.9
34.872
34.842
34.812
34.781
34.75
34.719
34.689
34.661
34.635
34.611
34.591
34.574
34.559
34.546
34.536
34.526
34.515
34.501
34.484
34.463
34.439
34.413
34.386
34.358
34.332
34.308
34.286
34.269
34.254
34.242
34.233
34.225
34.218
34.211
34.203
34.194
34.184
34.174
34.162
34.148
34.133
34.116
34.097
34.078
34.059
34.04
34.023
34.007
33.993
33.981
33.971
33.963
33.955
33.948
33.939
33.93
33.919
33.906
33.89
33.872
33.852
33.832
33.811
33.792
33.774
33.756
33.74
33.724
33.71
33.696
33.684
33.673
33.665
33.66
33.661
33.667
33.683
33.708
33.746
33.797
33.865
33.95
34.053
34.175
34.314
34.469
34.64
34.823
35.017
35.219
35.426
35.637
35.846
36.051
36.247
36.431
36.601
36.756
36.893
37.012
37.113
37.196
37.264
37.318
37.359
37.388
37.407
37.417
37.419
37.414
37.403
37.388
37.37
37.352
37.333
37.316
37.3
37.285
37.273
37.264
37.259
37.256
37.257
37.26
37.266
37.273
37.283
37.294
37.307
37.32
37.332
37.342
37.349
37.352
37.35
37.342
37.329
37.312
37.291
37.266
37.239
37.21
37.179
37.146
37.11
37.072
37.031
36.989
36.944
36.898
36.851
36.804
36.758
36.712
36.669
36.628
36.59
36.556
36.525
36.496
36.47
36.447
36.426
36.409
36.394
36.383
36.374
36.369
36.365
36.362
36.358
36.354
36.348
36.34
36.33
36.316
36.299
36.278
36.254
36.228
36.199
36.168
36.135
36.102
36.069
36.036
36.004
35.973
35.943
35.914
35.886
35.857
35.828
35.797
35.766
35.735
35.704
35.673
35.641
35.608
35.574
35.541
35.506
35.472
35.438
35.403
35.369
35.337
35.306
35.277
35.25
35.224
35.2
35.176
35.153
35.129
35.104
35.077
35.047
35.015
34.983
34.949
34.916
34.883
34.851
34.821
34.793
34.767
34.743
34.72
34.7
34.681
34.663
34.647
34.631
34.615
34.597
34.579
34.558
34.535
34.511
34.486
34.461
34.436
34.413
34.391
34.37
34.352
34.336
34.322
34.311
34.302
34.293
34.283
34.271
34.259
34.244
34.229
34.212
34.195
34.177
34.159
34.142
34.124
34.107
34.088
34.069
34.049
34.028
34.006
33.983
33.96
33.937
33.916
33.896
33.877
33.86
33.845
33.831
33.818
33.806
33.794
33.781
33.768
33.754
33.738
33.722
33.706
33.689
33.673
33.658
33.644
33.63
33.618
33.606
33.594
33.583
33.572
33.559
33.546
33.531
33.515
33.499
33.483
33.466
33.45
33.436
33.423
33.411
33.4
33.391
33.384
33.379
33.377
33.378
33.384
33.396
33.417
33.45
33.498
33.562
33.644
33.746
33.866
34.004
34.158
34.325
34.504
34.692
34.887
35.084
35.283
35.478
35.668
35.849
36.018
36.175
36.318
36.445
36.555
36.647
36.723
36.783
36.828
36.858
36.877
36.886
36.886
36.88
36.87
36.857
36.843
36.829
36.816
36.806
36.798
36.793
36.791
36.792
36.796
36.801
36.809
36.817
36.824
36.83
36.835
36.838
36.839
36.838
36.836
36.833
36.829
36.824
36.817
36.808
36.797
36.783
36.768
36.75
36.729
36.706
36.68
36.652
36.62
36.587
36.55
36.511
36.471
36.429
36.386
36.343
36.3
36.258
36.217
36.179
36.142
36.109
36.078
36.049
36.022
35.998
35.976
35.955
35.936
35.918
35.901
35.885
35.87
35.854
35.837
35.818
35.797
35.776
35.753
35.729
35.706
35.684
35.664
35.645
35.629
35.614
35.6
35.587
35.572
35.557
35.54
35.521
35.498
35.473
35.443
35.409
35.37
35.327
35.283
35.237
35.192
35.148
35.105
35.063
35.022
34.984
34.949
34.918
34.889
34.862
34.837
34.815
34.794
34.774
34.754
34.734
34.713
34.693
34.673
34.653
34.633
34.612
34.59
34.567
34.543
34.517
34.49
34.464
34.438
34.415
34.393
34.374
34.355
34.338
34.321
34.306
34.29
34.273
34.255
34.235
34.214
34.191
34.169
34.146
34.124
34.104
34.085
34.07
34.055
34.042
34.029
34.016
34.002
33.987
33.971
33.952
33.933
33.913
33.893
33.873
33.855
33.838
33.82
33.802
33.784
33.765
33.746
33.726
33.706
33.687
33.668
33.65
33.634
33.62
33.608
33.599
33.593
33.589
33.586
33.584
33.583
33.58
33.576
33.569
33.559
33.547
33.535
33.524
33.514
33.506
33.498
33.492
33.488
33.484
33.481
33.478
33.473
33.466
33.456
33.444
33.429
33.41
33.389
33.366
33.342
33.318
33.295
33.274
33.255
33.238
33.225
33.214
33.206
33.2
33.196
33.193
33.19
33.186
33.179
33.169
33.157
33.142
33.128
33.114
33.103
33.096
33.095
33.102
33.118
33.144
33.181
33.23
33.293
33.369
33.459
33.563
33.68
33.81
33.951
34.103
34.262
34.427
34.594
34.76
34.924
35.083
35.237
35.382
35.517
35.641
35.75
35.845
35.925
35.989
36.038
36.074
36.097
36.109
36.111
36.104
36.091
36.073
36.051
36.027
36.003
35.979
35.957
35.937
35.92
35.905
35.894
35.885
35.878
35.874
35.872
35.871
35.87
35.87
35.869
35.869
35.869
35.87
35.872
35.873
35.875
