Trial 3:3back
35.981
35.972
35.959
35.944
35.925
35.905
35.882
35.858
35.833
35.808
35.783
35.761
35.741
35.723
35.709
35.697
35.687
35.68
35.674
35.67
35.667
35.663
35.66
35.655
35.65
35.645
35.64
35.635
35.631
35.627
35.624
35.62
35.616
35.612
35.609
35.605
35.602
35.597
35.591
35.583
35.573
35.56
35.545
35.527
35.506
35.482
35.455
35.426
35.398
35.37
35.344
35.321
35.301
35.284
35.27
35.259
35.252
35.246
35.241
35.237
35.233
35.227
35.22
35.211
35.201
35.189
35.176
35.16
35.144
35.128
35.111
35.093
35.076
35.058
35.041
35.025
35.009
34.994
34.98
34.966
34.955
34.945
34.938
34.932
34.93
34.93
34.933
34.936
34.938
34.94
34.94
34.939
34.933
34.924
34.911
34.894
34.874
34.852
34.83
34.808
34.786
34.766
34.748
34.732
34.72
34.711
34.706
34.705
34.707
34.71
34.714
34.717
34.718
34.717
34.713
34.705
34.694
34.679
34.662
34.644
34.623
34.603
34.583
34.565
34.549
34.537
34.529
34.525
34.526
34.53
34.536
34.542
34.549
34.552
34.552
34.548
34.54
34.529
34.517
34.505
34.492
34.481
34.471
34.463
34.455
34.449
34.444
34.44
34.437
34.435
34.435
34.437
34.441
34.451
34.466
34.487
34.516
34.553
34.599
34.655
34.719
34.791
34.87
34.956
35.045
35.138
35.231
35.324
35.413
35.498
35.576
35.648
35.714
35.773
35.826
35.872
35.912
35.946
35.973
35.993
36.007
36.015
36.017
36.012
36.003
35.988
35.97
35.948
35.926
35.905
35.886
35.871
35.861
35.856
35.856
35.862
35.873
35.888
35.907
35.928
35.948
35.967
35.982
35.994
36.0
35.999
35.993
35.981
35.963
35.94
35.913
35.883
35.851
35.82
35.789
35.76
35.735
35.714
35.698
35.688
35.683
35.683
35.686
35.694
35.703
35.715
35.727
35.738
35.747
35.754
35.757
35.756
35.75
35.74
35.727
35.712
35.695
35.678
35.662
35.646
35.632
35.621
35.611
35.603
35.595
35.588
35.58
35.572
35.563
35.553
35.544
35.534
35.524
35.514
35.503
35.493
35.483
35.473
35.462
35.45
35.439
35.427
35.415
35.402
35.389
35.376
35.362
35.347
35.33
35.311
35.29
35.267
35.242
35.216
35.192
35.169
35.149
35.132
35.119
35.111
35.107
35.108
35.112
35.119
35.127
35.134
35.139
35.14
35.137
35.13
35.118
35.103
35.085
35.064
35.042
35.02
34.997
34.975
34.954
34.935
34.918
34.905
34.894
34.886
34.881
34.878
34.877
34.878
34.88
34.882
34.885
34.887
34.888
34.888
34.886
34.883
34.879
34.872
34.862
34.85
34.835
34.817
34.797
34.776
34.754
34.732
34.71
34.69
34.672
34.656
34.644
34.635
34.631
34.63
34.632
34.638
34.646
34.656
34.667
34.678
34.688
34.697
34.703
34.706
34.705
34.7
34.691
34.678
34.661
34.639
34.614
34.588
34.56
34.532
34.504
34.48
34.459
34.443
34.433
34.43
34.432
34.439
34.45
34.464
34.481
34.5
34.521
34.543
34.565
34.588
34.613
34.638
34.667
34.698
34.733
34.772
34.816
34.867
34.925
34.991
35.063
35.142
35.227
35.317
35.41
35.504
35.597
35.688
35.774
35.852
35.922
35.982
36.03
36.066
36.091
36.105
36.109
36.105
36.095
36.079
36.06
36.039
36.018
35.997
35.979
35.963
35.951
35.943
35.938
35.936
35.937
35.941
35.948
35.956
35.966
35.977
35.988
35.999
36.007
36.012
36.015
36.014
36.011
36.005
35.999
35.991
35.982
35.972
35.96
35.946
35.931
35.915
35.896
35.876
35.855
35.834
35.814
35.795
35.776
35.759
35.743
35.729
35.717
35.708
35.703
35.7
35.701
35.703
35.708
35.713
35.719
35.725
35.73
35.735
35.74
35.742
35.744
35.743
35.741
35.736
35.729
35.72
35.708
35.693
35.677
35.661
35.645
35.63
35.616
35.603
35.591
35.579
35.565
35.551
35.536
35.519
35.5
35.48
35.459
35.437
35.414
35.392
35.372
35.355
35.341
35.331
35.324
35.32
35.318
35.319
35.32
35.321
35.323
35.323
35.321
35.316
35.307
35.294
35.277
35.255
35.23
35.202
35.174
35.146
35.12
35.097
35.078
35.064
35.054
35.048
35.046
35.046
35.048
35.051
35.055
35.06
35.065
35.07
35.073
35.074
35.073
35.069
35.063
35.054
35.042
35.029
35.012
34.993
34.972
34.948
34.923
34.898
34.872
34.847
34.822
34.797
34.776
34.757
34.742
34.731
34.724
34.722
34.723
34.728
34.736
34.746
34.757
34.768
34.779
34.788
34.794
34.796
34.793
34.785
34.772
34.755
34.733
34.709
34.682
34.655
34.629
34.604
34.583
34.565
34.553
34.544
34.539
34.537
34.536
34.537
34.539
34.54
34.541
34.542
34.543
34.542
34.541
34.54
34.537
34.534
34.53
34.526
34.523
34.521
34.523
34.53
34.543
34.564
34.594
34.635
34.686
34.747
34.819
34.9
34.988
35.084
35.186
35.29
35.396
35.499
35.598
35.69
35.774
35.849
35.914
35.967
36.008
36.039
36.054
36.054
36.038
36.011
35.977
35.939
35.901
35.867
35.837
35.816
35.804
35.802
35.81
35.826
35.848
35.876
35.907
35.941
35.975
36.007
36.037
36.062
36.084
36.101
36.114
36.122
36.125
36.124
36.12
36.113
36.103
36.09
36.076
36.059
36.042
36.022
36.001
35.979
35.956
35.931
35.906
35.882
35.857
35.834
35.812
35.793
35.776
35.761
35.749
35.74
35.737
35.744
35.761
35.788
35.821
35.857
35.892
35.922
35.946
35.961
35.967
35.964
35.952
35.932
35.905
35.873
35.837
35.798
35.758
35.717
35.677
35.637
35.6
35.566
35.535
35.509
35.486
35.466
35.45
35.438
35.428
35.423
35.421
35.422
35.427
35.434
35.441
35.448
35.453
35.455
35.454
35.45
35.441
35.428
35.412
35.391
35.366
35.339
35.31
35.28
35.249
35.218
35.188
35.159
35.131
35.105
35.081
35.061
35.044
35.032
35.023
35.02
35.02
35.024
35.03
35.038
35.047
35.056
35.062
35.066
35.066
35.062
35.054
35.043
35.028
35.011
34.992
34.972
34.953
34.936
34.922
34.911
34.903
34.899
34.897
34.899
34.902
34.905
34.909
34.912
34.914
34.913
34.909
34.902
34.893
34.883
34.871
34.859
34.847
34.837
34.827
34.819
34.811
34.805
34.798
34.792
34.784
34.777
34.768
34.759
34.748
34.734
34.718
34.699
34.678
34.655
34.631
34.607
34.583
34.56
34.541
34.525
34.513
34.504
34.499
34.496
34.496
34.498
34.502
34.506
34.512
34.518
34.526
34.537
34.552
34.572
34.599
34.635
34.681
34.736
34.8
34.873
34.954
35.04
35.13
35.223
35.315
35.406
35.493
35.575
35.65
35.717
35.775
35.822
35.86
35.888
35.908
35.921
35.928
35.93
35.928
35.923
35.918
35.915
35.913
35.913
35.916
35.92
35.925
35.93
35.934
35.936
35.937
35.936
35.934
35.929
35.922
35.914
35.904
35.893
35.884
35.876
35.871
35.869
35.869
35.872
35.877
35.884
35.892
35.901
35.909
35.917
35.922
35.923
35.921
35.914
35.903
35.887
35.867
35.844
35.817
35.789
35.76
35.731
35.704
35.678
35.655
35.634
35.617
35.603
35.592
35.584
35.58
35.577
35.577
35.577
35.578
35.578
35.577
35.576
35.575
35.573
35.57
35.567
35.564
35.561
35.559
35.558
35.558
35.559
35.56
35.562
35.562
35.559
35.553
35.544
35.529
35.509
35.484
35.454
35.42
35.384
35.348
35.313
35.282
35.254
35.231
35.213
35.199
35.189
35.184
35.181
35.181
35.18
35.178
35.174
35.167
35.157
35.144
35.128
35.11
35.091
35.071
35.052
35.033
35.017
35.003
34.992
34.986
34.982
34.982
34.984
34.986
34.987
34.987
34.985
34.979
34.969
34.955
34.938
34.919
34.898
34.877
34.857
34.84
34.826
34.816
34.81
34.808
34.809
34.814
34.821
34.831
34.842
34.853
34.863
34.869
34.872
34.87
34.863
34.85
34.833
34.812
34.788
34.762
34.735
34.709
34.684
34.662
34.643
34.628
34.616
34.608
34.603
34.602
34.604
34.608
34.612
34.617
34.622
34.625
34.627
34.628
34.628
34.626
34.622
34.615
34.606
34.595
34.58
34.562
34.542
34.52
34.499
34.479
34.462
34.451
34.448
34.455
34.474
34.506
34.551
34.61
34.68
34.762
34.853
34.951
35.055
35.163
35.27
35.376
35.478
35.573
35.661
35.741
35.811
35.872
35.923
35.964
35.994
36.014
36.024
36.027
36.024
36.017
36.006
35.993
35.98
35.967
35.957
35.948
35.943
35.941
35.941
35.945
35.952
35.962
35.974
35.988
36.002
36.017
36.031
36.043
36.054
36.062
36.068
36.073
36.074
36.073
36.069
36.061
36.05
36.036
36.019
35.998
35.975
35.949
35.92
35.89
35.858
35.825
35.793
35.763
35.737
35.714
35.696
35.684
35.677
35.676
35.68
35.688
35.699
35.712
35.725
35.738
35.749
35.756
35.76
35.76
35.754
35.743
35.727
35.706
35.681
35.652
35.623
35.595
35.571
35.55
35.535
35.525
35.521
35.522
35.527
35.534
35.541
35.547
35.551
35.551
35.548
35.54
35.528
35.511
35.491
35.467
35.441
35.414
35.389
35.366
35.345
35.328
35.314
35.303
35.294
35.287
35.281
35.275
35.268
35.259
35.247
35.233
35.216
35.197
35.177
35.156
35.135
35.114
35.096
35.08
35.068
35.058
35.052
35.048
35.047
35.047
35.049
35.051
35.054
35.055
35.054
35.05
35.042
35.03
35.015
34.996
34.977
34.958
34.94
34.925
34.912
34.903
34.895
34.89
34.886
34.883
34.881
34.877
34.872
34.865
34.856
34.846
34.834
34.821
34.806
34.791
34.775
34.758
34.743
34.729
34.717
34.708
34.701
34.697
34.696
34.696
34.699
34.703
34.708
34.712
34.716
34.718
34.717
34.712
34.703
34.69
34.672
34.651
34.626
34.6
34.572
34.546
34.521
34.5
34.482
34.469
34.458
34.451
34.446
34.444
34.445
34.449
34.455
34.464
34.476
34.49
34.508
34.53
34.557
34.591
34.632
34.681
34.737
34.802
34.874
34.952
35.036
35.124
35.214
35.305
35.395
35.483
35.565
35.641
35.709
35.767
35.815
35.853
35.883
35.906
35.922
35.935
35.944
35.951
35.957
35.961
35.963
35.965
35.966
35.966
35.965
35.964
35.962
35.96
35.958
35.955
35.954
35.953
35.954
35.957
35.962
35.968
35.976
35.984
35.992
36.0
36.007
36.012
36.015
36.016
36.013
36.006
35.994
35.977
35.955
35.927
35.895
35.859
35.823
35.787
35.754
35.724
35.698
35.678
35.664
35.656
35.654
35.657
35.666
35.676
35.688
35.699
35.707
35.713
35.716
35.716
35.715
35.711
35.706
35.699
35.693
35.686
35.679
35.671
35.663
35.654
35.645
35.633
35.621
35.607
35.591
35.572
35.55
35.525
35.497
35.467
35.436
35.405
35.378
35.355
35.337
35.324
35.317
35.316
35.319
35.326
35.336
35.347
35.358
35.367
35.372
35.373
35.368
35.357
35.341
35.319
35.291
35.258
35.222
35.183
35.142
35.102
35.064
35.029
34.998
34.973
34.955
34.944
34.94
34.942
34.95
34.962
34.976
34.989
35.001
35.011
35.017
35.02
35.019
35.015
35.006
34.993
34.976
34.955
34.931
34.906
34.881
34.858
34.837
34.819
34.805
34.793
34.785
34.779
34.775
34.773
34.773
34.773
34.774
34.773
34.771
34.768
34.764
34.758
34.751
34.744
34.735
34.727
34.721
34.716
34.711
34.706
34.702
34.697
34.692
34.688
34.682
34.674
34.664
34.65
34.634
34.615
34.595
34.575
34.556
34.538
34.523
34.51
34.5
34.492
34.488
34.488
34.49
34.495
34.502
34.51
34.518
34.523
34.527
34.528
34.525
34.518
34.507
34.493
34.477
34.462
34.448
34.438
34.432
34.431
34.437
34.449
34.469
34.498
34.534
34.578
34.629
34.688
34.754
34.826
34.903
34.984
35.068
35.154
35.24
35.325
35.408
35.487
35.563
35.635
35.701
35.761
35.815
35.862
35.902
35.935
35.96
35.977
35.985
35.985
35.977
35.962
35.941
35.918
35.892
35.866
35.842
35.821
35.803
35.79
35.783
35.782
35.787
35.795
35.807
35.821
35.836
35.852
35.868
35.883
35.896
35.907
35.914
35.918
35.919
35.917
35.913
35.908
35.901
35.894
35.886
35.876
35.866
35.854
35.841
35.826
35.809
35.79
35.769
35.744
35.718
35.69
35.661
35.632
35.605
35.581
35.559
35.541
35.528
35.521
35.518
35.519
35.524
35.532
35.542
35.553
35.564
35.575
35.584
35.591
35.595
35.596
35.593
35.586
35.574
35.558
35.539
35.519
35.497
35.474
35.45
35.426
35.402
35.378
35.355
35.332
35.312
35.292
35.275
35.258
35.244
35.231
35.219
35.207
35.197
35.187
35.178
35.17
35.162
35.155
35.149
35.144
35.139
35.134
35.129
35.123
35.116
35.107
35.097
35.086
35.072
35.058
35.043
35.029
35.015
35.001
34.99
34.98
34.972
34.965
34.959
34.954
34.95
34.948
34.945
34.944
34.943
34.942
34.941
34.938
34.935
34.93
34.922
34.913
34.901
34.887
34.87
34.851
34.83
34.808
34.786
34.765
34.747
34.732
34.721
34.714
34.711
34.712
34.716
34.722
34.731
34.74
34.75
34.759
34.764
34.767
34.766
34.761
34.752
34.738
34.723
34.711
34.704
34.704
34.708
34.715
34.724
34.733
34.74
34.744
34.744
34.741
34.734
34.724
34.711
34.697
34.68
34.662
34.644
34.626
34.609
34.592
34.575
34.558
34.541
34.524
34.507
34.491
34.477
34.464
34.452
34.442
34.434
34.428
34.424
34.425
34.428
34.436
34.447
34.463
34.486
34.516
34.555
34.602
34.658
34.721
34.793
34.871
34.955
35.045
35.138
35.232
35.327
35.419
35.507
35.59
35.666
35.733
35.791
35.839
35.875
35.9
35.915
35.923
35.923
35.916
35.905
35.89
35.872
35.853
35.834
35.818
35.804
35.793
35.786
35.783
35.783
35.785
35.789
35.794
35.799
35.805
35.811
35.816
35.822
35.829
35.836
35.843
35.851
35.858
35.864
35.869
35.871
35.871
35.867
35.859
35.848
35.834
35.816
35.796
35.774
35.75
35.726
35.703
35.68
35.659
35.641
35.624
35.61
35.599
35.59
35.585
35.581
35.577
35.574
35.57
35.564
35.558
35.552
35.545
35.537
35.53
35.523
35.517
35.511
35.506
35.502
35.498
35.493
35.487
35.479
35.47
35.459
35.447
35.433
35.418
35.402
35.385
35.368
35.349
35.329
35.309
35.29
35.271
35.255
35.24
35.226
35.215
35.205
35.197
35.192
35.189
35.187
35.187
35.188
35.191
35.195
35.199
35.205
35.21
35.215
35.219
35.222
35.224
35.224
35.223
35.219
35.214
35.205
35.191
35.174
35.151
35.125
35.096
35.063
35.031
34.999
34.969
34.942
34.919
34.901
34.889
34.882
34.88
34.883
34.89
34.9
34.911
34.925
34.939
34.952
34.965
34.976
34.984
34.989
34.989
34.985
34.976
34.964
34.947
34.927
34.905
34.882
34.858
34.835
34.813
34.793
34.775
34.76
34.747
34.737
34.73
34.727
34.726
34.726
34.725
34.723
34.72
34.715
34.708
34.7
34.691
34.682
34.672
34.663
34.654
34.646
34.639
34.633
34.626
34.62
34.614
34.609
34.602
34.595
34.586
34.576
34.564
34.551
34.536
34.521
34.506
34.492
34.48
34.47
34.461
34.454
34.45
34.448
34.448
34.451
34.456
34.462
34.468
34.476
34.485
34.496
34.509
34.525
34.544
34.568
34.596
34.631
34.671
34.717
34.769
34.825
34.886
34.951
35.02
35.092
35.167
35.245
35.323
35.401
35.476
35.547
35.614
35.675
35.729
35.776
35.816
35.848
35.874
35.892
35.905
35.913
35.916
35.916
35.913
35.906
35.896
35.883
35.87
35.855
35.839
35.823
35.806
35.789
35.774
35.76
35.751
35.745
35.744
35.746
35.751
35.758
35.767
35.777
35.785
35.792
35.797
35.797
35.793
35.786
35.776
35.764
35.751
35.738
35.724
35.709
35.693
35.677
35.661
35.645
35.63
35.616
35.604
35.594
35.587
35.583
35.582
35.584
35.587
35.592
35.597
35.601
35.605
35.607
35.608
35.607
35.605
35.602
35.597
35.59
35.581
35.57
35.559
35.547
35.535
35.523
35.511
35.5
35.49
35.48
35.47
35.461
35.451
35.441
35.432
35.424
35.417
35.411
35.405
35.4
35.396
35.393
35.39
35.386
35.382
35.377
35.369
35.359
35.346
35.33
35.312
35.292
35.27
35.248
35.227
35.206
35.188
35.172
35.158
35.146
35.135
35.125
35.115
35.106
35.095
35.085
35.073
35.061
35.046
35.032
35.016
35.002
34.987
34.973
34.961
34.951
34.943
34.938
34.936
34.937
34.94
34.944
34.949
34.955
34.958
34.959
34.956
34.95
34.941
34.927
34.909
34.888
34.865
34.841
34.816
34.789
34.759
34.728
34.697
34.668
34.644
34.625
34.612
34.606
34.606
34.61
34.618
34.628
34.638
34.649
34.658
34.666
34.67
34.672
34.671
34.671
34.671
34.672
34.674
34.678
34.682
34.687
34.691
34.694
34.696
34.697
34.696
34.692
34.686
34.677
34.665
34.65
34.632
34.611
34.587
34.561
34.533
34.505
34.478
34.452
34.429
34.409
34.393
34.381
34.374
34.372
34.376
34.385
34.398
34.415
34.432
34.449
34.466
34.482
34.499
34.516
34.537
34.562
34.592
34.629
34.673
34.724
34.782
34.846
34.913
34.983
35.052
35.121
35.188
35.251
35.312
35.369
35.423
35.473
35.519
35.562
35.603
35.641
35.678
35.713
35.746
35.778
35.808
35.836
35.861
35.885
35.906
35.924
35.939
35.949
35.956
35.959
35.958
35.955
35.948
35.938
35.926
35.912
35.893
35.871
35.845
35.817
35.789
35.763
35.738
35.717
35.701
35.688
35.681
35.678
35.679
35.683
35.69
35.699
35.71
35.72
35.73
35.737
35.742
35.745
35.744
35.74
35.732
35.72
35.705
35.687
35.668
35.648
35.629
35.612
35.596
35.583
35.572
35.563
35.556
35.551
35.548
35.545
35.542
35.538
35.533
35.527
35.52
35.511
35.501
35.491
35.48
35.47
35.46
35.452
35.445
35.439
35.435
35.433
35.434
35.435
35.435
35.434
35.432
35.427
35.419
35.408
35.394
35.376
35.357
35.335
35.312
35.288
35.263
35.239
35.215
35.192
35.172
35.155
35.142
35.133
35.127
35.122
35.119
35.116
35.113
35.11
35.106
35.099
35.091
35.08
35.068
35.054
35.04
35.026
35.014
35.003
34.994
34.986
34.98
34.974
34.967
34.959
34.95
34.939
34.926
34.912
34.897
34.882
34.865
34.848
34.831
34.816
34.805
34.797
34.793
34.793
34.797
34.803
34.811
34.821
34.83
34.84
34.848
34.855
34.86
34.864
34.865
34.865
34.861
34.855
34.846
34.833
34.816
34.797
34.775
34.752
34.729
34.708
34.686
34.666
34.647
34.631
34.617
34.606
34.599
34.595
34.595
34.599
34.607
34.618
34.632
34.647
34.662
34.677
34.688
34.697
34.7
34.698
34.691
34.677
34.658
34.635
34.609
34.582
34.554
34.529
34.506
34.487
34.473
34.463
34.458
34.456
34.458
34.462
34.468
34.474
34.48
34.484
34.488
34.491
34.494
34.497
34.501
34.508
34.518
34.533
34.556
34.588
34.631
34.686
34.751
34.828
34.914
35.007
35.106
35.206
35.306
35.403
35.492
35.573
35.644
35.705
35.755
35.797
35.829
35.853
35.87
35.879
35.882
35.881
35.876
35.87
35.862
35.854
35.847
35.841
35.835
35.83
35.826
35.823
35.82
35.817
35.813
35.808
35.802
35.795
35.788
35.78
35.774
35.768
35.763
35.759
35.756
35.754
35.753
35.754
35.756
35.759
35.764
35.771
35.778
35.786
35.793
35.8
35.807
35.813
35.817
35.819
35.817
35.812
35.802
35.788
35.771
35.752
35.729
35.704
35.678
35.652
35.627
35.603
35.582
35.563
35.547
35.534
35.524
35.516
35.511
35.507
35.503
35.5
35.496
35.491
35.486
35.481
35.478
35.476
35.476
35.478
35.48
35.482
35.484
35.486
35.487
35.485
35.481
35.473
35.463
35.45
35.433
35.414
35.392
35.369
35.346
35.322
35.3
35.278
35.258
35.239
35.221
35.203
35.186
35.17
35.155
35.143
35.135
35.129
35.128
35.13
35.134
35.142
35.153
35.167
35.182
35.199
35.216
35.233
35.248
35.258
35.262
35.26
35.252
35.238
35.219
35.196
35.171
35.144
35.116
35.087
35.06
35.036
35.014
34.997
34.984
34.977
34.974
34.976
34.981
34.99
35.002
35.014
35.027
35.039
35.05
35.057
35.061
35.062
35.06
35.056
35.051
35.044
35.036
35.028
35.02
35.012
35.003
34.995
34.988
34.981
34.975
34.969
34.963
34.958
34.953
34.947
34.941
34.934
34.925
34.915
34.904
34.893
34.884
34.882
34.889
34.903
34.922
34.942
34.961
34.976
34.985
34.986
34.981
34.967
34.947
34.921
34.891
34.858
34.823
34.787
34.751
34.717
34.683
34.652
34.623
34.598
34.575
34.555
34.536
34.519
34.503
34.489
34.476
34.466
34.459
34.457
34.461
34.472
34.49
34.518
34.556
34.603
34.66
34.726
34.8
34.88
34.964
35.053
35.144
35.235
35.324
35.411
35.493
35.567
35.632
35.686
35.73
35.765
35.792
35.814
35.831
35.845
35.858
35.869
35.879
35.889
35.899
35.908
35.917
35.926
35.935
35.944
35.953
35.962
