Trial 3:3back
35.173
35.171
35.169
35.166
35.16
35.153
35.142
35.128
35.111
35.092
35.073
35.052
35.033
35.015
34.998
34.983
34.97
34.958
34.949
34.942
34.936
34.93
34.926
34.921
34.917
34.912
34.906
34.899
34.893
34.888
34.884
34.881
34.879
34.878
34.878
34.878
34.876
34.873
34.866
34.856
34.843
34.826
34.806
34.785
34.764
34.745
34.728
34.715
34.707
34.703
34.703
34.706
34.712
34.719
34.725
34.73
34.732
34.731
34.728
34.721
34.71
34.696
34.679
34.66
34.64
34.619
34.599
34.581
34.566
34.552
34.541
34.531
34.523
34.517
34.512
34.507
34.503
34.498
34.492
34.486
34.481
34.477
34.474
34.471
34.469
34.467
34.465
34.464
34.462
34.459
34.455
34.452
34.449
34.445
34.443
34.44
34.438
34.436
34.434
34.432
34.43
34.426
34.423
34.418
34.412
34.405
34.397
34.387
34.377
34.366
34.354
34.34
34.325
34.309
34.293
34.277
34.261
34.245
34.231
34.219
34.21
34.205
34.204
34.21
34.223
34.245
34.276
34.318
34.374
34.443
34.526
34.622
34.731
34.851
34.981
35.12
35.267
35.419
35.576
35.737
35.899
36.06
36.217
36.366
36.506
36.633
36.748
36.849
36.937
37.011
37.073
37.122
37.159
37.184
37.198
37.203
37.198
37.186
37.167
37.143
37.113
37.079
37.042
37.001
36.957
36.911
36.864
36.818
36.772
36.727
36.684
36.642
36.602
36.565
36.532
36.502
36.477
36.457
36.441
36.43
36.422
36.418
36.415
36.413
36.411
36.407
36.401
36.391
36.378
36.361
36.34
36.315
36.287
36.256
36.225
36.192
36.16
36.129
36.1
36.073
36.049
36.028
36.01
35.997
35.989
35.985
35.986
35.992
36.001
36.012
36.024
36.036
36.048
36.058
36.067
36.072
36.074
36.073
36.067
36.059
36.047
36.034
36.02
36.006
35.993
35.982
35.973
35.966
35.96
35.955
35.95
35.945
35.937
35.926
35.911
35.892
35.868
35.84
35.81
35.776
35.742
35.706
35.671
35.638
35.607
35.579
35.553
35.529
35.508
35.488
35.469
35.45
35.43
35.41
35.389
35.368
35.346
35.325
35.304
35.285
35.268
35.253
35.24
35.228
35.218
35.21
35.204
35.198
35.192
35.185
35.177
35.169
35.16
35.151
35.142
35.132
35.121
35.11
35.098
35.087
35.075
35.063
35.052
35.042
35.034
35.027
35.021
35.015
35.009
35.004
34.998
34.993
34.987
34.981
34.974
34.967
34.96
34.952
34.944
34.934
34.923
34.91
34.895
34.879
34.861
34.844
34.827
34.811
34.797
34.785
34.774
34.766
34.759
34.753
34.749
34.747
34.746
34.748
34.75
34.753
34.756
34.758
34.76
34.759
34.757
34.751
34.742
34.73
34.714
34.696
34.676
34.656
34.636
34.618
34.603
34.593
34.586
34.583
34.582
34.583
34.586
34.588
34.59
34.589
34.586
34.581
34.572
34.562
34.55
34.538
34.526
34.514
34.505
34.497
34.493
34.49
34.488
34.488
34.489
34.49
34.491
34.492
34.492
34.492
34.49
34.487
34.483
34.477
34.47
34.462
34.453
34.443
34.432
34.419
34.404
34.389
34.374
34.358
34.344
34.33
34.318
34.308
34.3
34.295
34.292
34.291
34.293
34.3
34.313
34.332
34.36
34.397
34.446
34.505
34.577
34.662
34.759
34.868
34.988
35.119
35.259
35.409
35.565
35.725
35.889
36.053
36.214
36.371
36.52
36.66
36.786
36.899
36.996
37.076
37.138
37.181
37.207
37.216
37.21
37.191
37.162
37.124
37.081
37.033
36.983
36.932
36.882
36.833
36.787
36.744
36.705
36.668
36.634
36.602
36.571
36.543
36.517
36.493
36.47
36.449
36.428
36.409
36.391
36.374
36.358
36.342
36.325
36.307
36.287
36.265
36.24
36.214
36.185
36.155
36.124
36.094
36.064
36.036
36.013
35.993
35.978
35.968
35.96
35.955
35.953
35.952
35.953
35.956
35.959
35.962
35.966
35.97
35.974
35.978
35.98
35.981
35.982
35.981
35.98
35.979
35.976
35.972
35.967
35.962
35.956
35.948
35.94
35.932
35.924
35.917
35.911
35.904
35.898
35.89
35.882
35.87
35.856
35.839
35.818
35.794
35.766
35.735
35.702
35.666
35.631
35.595
35.562
35.53
35.502
35.476
35.455
35.436
35.422
35.409
35.398
35.387
35.375
35.362
35.347
35.328
35.307
35.284
35.259
35.233
35.209
35.186
35.165
35.147
35.131
35.12
35.111
35.106
35.104
35.104
35.105
35.107
35.109
35.11
35.11
35.109
35.107
35.103
35.098
35.093
35.086
35.078
35.069
35.059
35.049
35.038
35.027
35.015
35.003
34.992
34.981
34.972
34.965
34.958
34.951
34.943
34.933
34.924
34.913
34.902
34.89
34.879
34.868
34.858
34.85
34.843
34.837
34.831
34.826
34.82
34.815
34.81
34.805
34.799
34.791
34.783
34.774
34.765
34.754
34.744
34.734
34.726
34.719
34.714
34.711
34.71
34.71
34.709
34.709
34.709
34.708
34.705
34.701
34.696
34.69
34.683
34.676
34.668
34.661
34.654
34.647
34.64
34.634
34.628
34.622
34.616
34.609
34.601
34.592
34.583
34.574
34.565
34.557
34.546
34.532
34.512
34.489
34.463
34.437
34.413
34.393
34.378
34.368
34.364
34.364
34.368
34.373
34.381
34.388
34.395
34.399
34.402
34.403
34.402
34.4
34.399
34.4
34.406
34.418
34.438
34.467
34.506
34.558
34.621
34.698
34.787
34.889
35.002
35.127
35.263
35.406
35.555
35.708
35.861
36.014
36.164
36.307
36.443
36.568
36.682
36.784
36.872
36.946
37.005
37.05
37.08
37.095
37.097
37.087
37.065
37.033
36.995
36.95
36.902
36.852
36.801
36.751
36.702
36.655
36.61
36.568
36.528
36.492
36.458
36.427
36.399
36.375
36.353
36.335
36.319
36.306
36.295
36.287
36.278
36.269
36.258
36.245
36.229
36.208
36.184
36.155
36.122
36.087
36.051
36.013
35.977
35.942
35.91
35.882
35.856
35.832
35.808
35.786
35.765
35.747
35.731
35.717
35.707
35.7
35.697
35.699
35.705
35.716
35.731
35.75
35.772
35.796
35.82
35.844
35.866
35.884
35.898
35.907
35.91
35.908
35.898
35.883
35.862
35.837
35.81
35.781
35.75
35.719
35.687
35.655
35.623
35.592
35.561
35.532
35.504
35.479
35.455
35.433
35.412
35.393
35.374
35.356
35.339
35.322
35.307
35.293
35.279
35.266
35.254
35.242
35.23
35.217
35.203
35.189
35.172
35.155
35.136
35.117
35.096
35.076
35.057
35.04
35.025
35.012
35.001
34.991
34.981
34.972
34.962
34.952
34.941
34.929
34.916
34.901
34.886
34.871
34.856
34.842
34.83
34.821
34.814
34.811
34.81
34.81
34.811
34.813
34.814
34.815
34.815
34.814
34.813
34.809
34.804
34.797
34.788
34.778
34.768
34.757
34.748
34.738
34.729
34.721
34.713
34.705
34.697
34.689
34.68
34.67
34.659
34.647
34.634
34.62
34.606
34.592
34.578
34.565
34.553
34.542
34.532
34.522
34.513
34.504
34.494
34.485
34.475
34.466
34.457
34.448
34.439
34.429
34.42
34.411
34.403
34.397
34.392
34.388
34.385
34.383
34.382
34.381
34.379
34.378
34.377
34.376
34.375
34.374
34.372
34.369
34.365
34.36
34.355
34.349
34.344
34.339
34.334
34.329
34.323
34.316
34.31
34.302
34.295
34.287
34.278
34.269
34.26
34.25
34.239
34.226
34.211
34.196
34.181
34.166
34.154
34.144
34.138
34.137
34.144
34.159
34.185
34.221
34.269
34.33
34.402
34.486
34.58
34.683
34.796
34.917
35.044
35.177
35.314
35.453
35.592
35.73
35.865
35.995
36.119
36.233
36.338
36.431
36.512
36.579
36.631
36.669
36.694
36.705
36.705
36.696
36.678
36.653
36.623
36.59
36.555
36.52
36.486
36.453
36.423
36.396
36.371
36.347
36.324
36.303
36.283
36.264
36.246
36.23
36.215
36.201
36.188
36.175
36.163
36.151
36.138
36.126
36.113
36.099
36.085
36.07
36.052
36.033
36.011
35.988
35.963
35.936
35.908
35.881
35.855
35.83
35.805
35.782
35.76
35.739
35.72
35.703
35.686
35.671
35.657
35.645
35.635
35.629
35.626
35.625
35.628
35.634
35.643
35.654
35.667
35.681
35.696
35.71
35.722
35.73
35.735
35.734
35.728
35.718
35.704
35.688
35.669
35.649
35.629
35.609
35.591
35.573
35.557
35.542
35.526
35.511
35.493
35.474
35.451
35.426
35.399
35.369
35.337
35.305
35.274
35.244
35.216
35.19
35.167
35.146
35.129
35.115
35.104
35.097
35.092
35.088
35.086
35.084
35.081
35.075
35.067
35.055
35.04
35.023
35.003
34.981
34.959
34.937
34.917
34.898
34.882
34.867
34.855
34.844
34.833
34.823
34.811
34.8
34.788
34.777
34.767
34.758
34.75
34.742
34.735
34.728
34.722
34.716
34.712
34.708
34.706
34.704
34.703
34.701
34.699
34.696
34.692
34.687
34.68
34.671
34.662
34.651
34.64
34.629
34.618
34.608
34.599
34.592
34.587
34.585
34.584
34.584
34.585
34.585
34.583
34.578
34.571
34.561
34.549
34.534
34.518
34.5
34.482
34.465
34.449
34.436
34.424
34.416
34.411
34.408
34.408
34.41
34.411
34.412
34.412
34.411
34.407
34.402
34.395
34.388
34.381
34.374
34.367
34.361
34.356
34.351
34.346
34.341
34.337
34.334
34.334
34.336
34.339
34.342
34.344
34.344
34.343
34.339
34.333
34.325
34.314
34.301
34.286
34.271
34.254
34.236
34.218
34.2
34.182
34.166
34.152
34.138
34.126
34.115
34.106
34.097
34.09
34.083
34.078
34.075
34.074
34.074
34.076
34.082
34.092
34.107
34.129
34.159
34.199
34.248
34.308
34.379
34.46
34.551
34.653
34.764
34.883
35.009
35.14
35.274
35.411
35.548
35.684
35.817
35.945
36.066
36.179
36.281
36.371
36.447
36.507
36.552
36.581
36.595
36.598
36.591
36.575
36.552
36.523
36.49
36.454
36.417
36.379
36.341
36.304
36.268
36.232
36.196
36.161
36.128
36.097
36.068
36.042
36.02
36.002
35.987
35.977
35.97
35.967
35.967
35.969
35.972
35.975
35.976
35.975
35.97
35.962
35.949
35.931
35.91
35.885
35.856
35.824
35.791
35.755
35.72
35.684
35.65
35.619
35.592
35.57
35.552
35.538
35.53
35.527
35.529
35.535
35.543
35.555
35.568
35.583
35.6
35.617
35.635
35.652
35.668
35.682
35.692
35.699
35.701
35.7
35.694
35.685
35.672
35.656
35.638
35.618
35.597
35.575
35.553
35.532
35.512
35.494
35.478
35.462
35.448
35.432
35.416
35.397
35.376
35.352
35.326
35.299
35.271
35.243
35.215
35.189
35.164
35.143
35.126
35.113
35.103
35.096
35.093
35.091
35.091
35.091
35.09
35.089
35.085
35.08
35.072
35.063
35.051
35.037
35.021
35.004
34.986
34.968
34.95
34.932
34.917
34.903
34.891
34.882
34.875
34.871
34.868
34.869
34.871
34.875
34.881
34.889
34.899
34.912
34.928
34.947
34.97
34.997
35.028
35.063
35.101
35.142
35.186
35.232
35.282
35.333
35.385
35.438
35.49
35.541
35.588
35.63
35.668
35.7
35.727
35.749
35.765
35.775
35.78
35.781
35.779
35.773
35.762
35.747
35.727
35.704
35.678
35.648
35.617
35.583
35.547
35.51
35.471
35.432
35.392
35.351
35.308
35.265
35.22
35.174
35.128
35.082
35.036
34.992
34.949
34.908
34.871
34.839
34.814
34.795
34.783
34.779
34.781
34.787
34.797
34.809
34.823
34.839
34.858
34.878
34.9
34.921
34.942
34.961
34.979
34.995
35.01
35.024
35.036
35.048
35.058
35.068
35.077
35.085
35.09
35.093
35.092
35.088
35.082
35.071
35.058
35.044
35.031
35.018
35.007
34.997
34.988
34.978
34.967
34.955
34.941
34.926
34.909
34.89
34.871
34.85
34.83
34.81
34.791
34.773
34.757
34.743
34.729
34.718
34.707
34.699
34.692
34.685
34.679
34.673
34.667
34.661
34.653
34.645
34.635
34.624
34.612
34.6
34.587
34.576
34.565
34.557
34.55
34.545
34.543
34.542
34.542
34.542
34.543
34.543
34.542
34.539
34.535
34.529
34.522
34.513
34.503
34.492
34.481
34.47
34.459
34.45
34.442
34.437
34.434
34.434
34.436
34.44
34.446
34.452
34.459
34.464
34.469
34.472
34.474
34.474
34.473
34.469
34.464
34.456
34.447
34.437
34.428
34.419
34.411
34.405
34.401
34.397
34.395
34.393
34.392
34.391
34.389
34.388
34.385
34.382
34.377
34.369
34.36
34.347
34.333
34.317
34.299
34.279
34.26
34.243
34.227
34.215
34.205
34.199
34.197
34.198
34.202
34.209
34.218
34.227
34.237
34.246
34.253
34.259
34.263
34.265
34.266
34.266
34.264
34.261
34.256
34.251
34.244
34.236
34.226
34.215
34.205
34.195
34.187
34.18
34.175
34.171
34.169
34.168
34.169
34.171
34.174
34.178
34.181
34.185
34.188
34.191
34.193
34.194
34.196
34.198
34.2
34.2
34.199
34.196
34.191
34.184
34.176
34.166
34.154
34.141
34.127
34.113
34.1
34.088
34.079
34.074
34.073
34.076
34.082
34.092
34.104
34.117
34.131
34.144
34.155
34.164
34.169
34.171
34.168
34.162
34.153
34.142
34.13
34.118
34.11
34.107
34.112
34.127
34.154
34.193
34.245
34.309
34.388
34.482
34.592
34.717
34.857
35.011
35.177
35.353
35.537
35.724
35.912
36.097
36.275
36.443
36.598
36.738
36.859
36.962
37.046
37.111
37.159
37.189
37.205
37.207
37.198
37.177
37.149
37.113
37.074
37.032
36.99
36.948
36.908
36.87
36.835
36.802
36.771
36.743
36.717
36.693
36.67
36.65
36.633
36.618
36.605
36.595
36.587
36.581
36.577
36.573
36.571
36.568
36.564
36.558
36.549
36.539
36.526
36.51
36.491
36.468
36.444
36.417
36.39
36.362
36.335
36.309
36.285
36.261
36.239
36.216
36.194
36.173
36.152
36.132
36.113
36.096
36.08
36.067
36.056
36.049
36.044
36.043
36.044
36.047
36.052
36.057
36.063
36.068
36.071
36.072
36.071
36.068
36.062
36.054
36.043
36.03
36.015
35.999
35.982
35.963
35.942
35.92
35.897
35.873
35.847
35.82
35.792
35.764
35.736
35.707
35.679
35.651
35.624
35.598
35.574
35.55
35.528
35.506
35.484
35.463
35.442
35.422
35.403
35.384
35.366
35.349
35.333
35.318
35.304
35.292
35.281
35.271
35.263
35.256
35.251
35.246
35.243
35.241
35.238
35.236
35.232
35.227
35.219
35.208
35.194
35.177
35.157
35.135
35.112
35.088
35.065
35.044
35.026
35.012
35.002
34.996
34.993
34.992
34.99
34.986
34.98
34.972
34.961
34.948
34.935
34.92
34.906
34.893
34.882
34.872
34.864
34.858
34.855
34.853
34.852
34.851
34.85
34.848
34.845
34.842
34.837
34.831
34.824
34.816
34.807
34.799
34.79
34.783
34.778
34.775
34.771
34.767
34.76
34.752
34.742
34.731
34.72
34.708
34.697
34.686
34.676
34.667
34.659
34.652
34.646
34.641
34.637
34.633
34.628
34.622
34.615
34.607
34.597
34.587
34.575
34.565
34.555
34.548
34.544
34.544
34.546
34.551
34.557
34.563
34.569
34.573
34.575
34.574
34.571
34.566
34.558
34.549
34.538
34.528
34.516
34.505
34.493
34.48
34.467
34.452
34.438
34.423
34.408
34.394
34.38
34.367
34.355
34.346
34.34
34.337
34.337
34.342
34.352
34.367
34.387
34.412
34.443
34.48
34.522
34.569
34.623
34.684
34.753
34.833
34.923
35.023
35.134
35.254
35.382
35.517
35.657
35.798
35.938
36.074
36.203
36.323
36.43
36.523
36.6
36.66
36.704
36.732
36.744
36.745
36.733
36.713
36.685
36.651
36.615
36.575
36.535
36.495
36.456
36.419
36.385
36.355
36.327
36.303
36.281
36.262
36.246
36.23
36.214
36.2
36.186
36.173
36.161
36.149
36.138
36.126
36.112
36.096
36.077
36.056
36.032
36.007
35.981
35.954
35.927
35.902
35.877
35.854
35.833
35.812
35.792
35.771
35.75
35.727
35.705
35.683
35.662
35.645
35.632
35.623
35.619
35.62
35.628
35.641
35.658
35.68
35.704
35.729
35.752
35.773
35.789
35.8
35.805
35.805
35.8
35.79
35.777
35.763
35.748
35.735
35.722
35.712
35.704
35.698
35.692
35.687
35.68
35.672
35.662
35.65
35.635
35.618
35.597
35.573
35.546
35.517
35.487
35.455
35.423
35.392
35.363
35.335
35.309
35.284
35.261
35.238
35.216
35.195
35.176
35.159
35.143
35.128
35.115
35.102
35.09
35.078
35.067
35.058
35.049
35.041
35.034
35.028
35.022
35.016
35.01
35.005
35.0
34.995
34.991
34.988
34.985
34.982
34.977
34.973
34.967
34.961
34.954
34.947
34.94
34.933
34.927
34.92
34.914
34.907
34.899
34.892
34.884
34.876
34.867
34.857
34.845
34.833
34.82
34.808
34.796
34.785
34.776
34.768
34.762
34.757
34.753
34.749
34.745
34.74
34.734
34.727
34.717
34.705
34.692
34.679
34.666
34.654
34.645
34.638
34.632
34.629
34.628
34.629
34.633
34.638
34.643
34.647
34.65
34.651
34.65
34.647
34.642
34.634
34.624
34.612
34.599
34.585
34.572
34.559
34.547
34.538
34.53
34.524
34.521
34.521
34.524
34.528
34.534
34.541
34.547
34.551
34.554
34.555
34.554
34.55
34.545
34.538
34.529
34.52
34.51
34.501
34.491
34.481
34.472
34.463
34.455
34.446
34.439
34.432
34.425
34.42
34.416
34.412
34.411
34.411
34.415
34.422
34.434
34.452
34.478
34.514
34.558
34.613
34.677
34.753
34.84
34.938
35.045
35.159
35.28
35.407
35.536
35.668
35.8
35.931
36.058
36.18
36.295
36.403
36.5
36.586
36.659
36.718
36.764
36.795
36.811
36.813
36.802
36.78
36.749
36.71
36.666
36.62
36.574
36.529
36.488
36.451
36.418
36.39
36.367
36.346
36.329
36.314
36.299
36.286
36.274
36.262
36.252
36.242
36.233
36.226
36.22
36.216
36.213
36.212
36.212
36.211
36.208
36.204
36.197
36.188
36.176
36.16
36.141
36.116
36.087
36.053
36.017
35.978
35.938
35.898
35.86
35.824
35.791
35.763
35.74
35.721
35.708
35.7
35.698
35.7
35.706
35.714
35.723
35.734
35.745
35.756
35.768
35.779
35.791
35.8
35.808
35.813
35.815
35.812
35.805
35.795
35.781
35.765
35.747
35.727
35.708
35.689
35.671
35.655
35.64
35.626
35.613
35.599
35.584
35.568
35.551
35.53
35.508
35.482
35.455
35.427
35.399
35.372
35.347
35.325
35.307
35.292
35.28
35.272
35.266
35.262
35.26
35.259
35.257
35.254
35.25
35.245
35.237
35.227
35.215
35.203
35.19
35.177
35.164
35.152
35.14
35.129
35.117
35.104
35.091
35.077
35.063
35.049
35.034
35.021
35.007
34.994
34.981
34.971
34.963
34.959
34.959
34.961
34.964
34.968
34.971
34.972
34.97
34.967
34.96
34.953
34.944
34.934
34.923
34.911
34.899
34.887
34.874
34.862
34.851
34.841
34.833
34.825
34.817
34.809
34.801
34.792
34.783
34.774
34.765
34.757
34.749
34.743
34.737
34.731
34.724
34.718
34.712
34.706
34.7
34.695
34.691
34.687
34.683
34.681
34.68
34.68
34.68
34.68
34.68
34.678
34.676
34.672
34.666
34.659
34.651
34.642
34.634
34.625
34.619
34.614
34.611
34.61
34.611
34.615
34.618
34.621
34.622
34.621
34.617
34.61
34.602
34.592
34.579
34.565
34.551
34.537
34.524
34.511
34.5
34.49
34.482
34.476
34.472
34.47
34.469
34.469
34.469
34.47
34.469
34.467
34.463
34.456
34.447
34.437
34.425
34.412
34.399
34.387
34.376
34.369
34.364
34.364
34.369
34.378
34.393
34.412
34.438
34.47
34.508
34.553
34.604
34.663
34.731
34.809
34.896
34.992
35.097
35.21
35.33
35.455
35.583
35.713
35.841
35.966
36.086
36.198
36.302
36.394
36.475
36.542
36.596
36.638
36.666
36.683
36.688
36.684
36.672
36.655
36.633
36.609
36.583
36.556
36.529
36.501
36.473
36.445
36.417
36.389
36.363
36.339
36.317
36.298
36.282
36.269
36.26
36.254
36.249
36.246
36.242
36.237
36.23
36.22
36.208
36.192
36.175
36.157
36.137
36.117
36.097
36.076
36.055
36.035
36.017
35.999
35.983
35.966
35.951
35.935
35.919
35.902
35.886
35.871
35.856
35.844
35.833
35.825
35.819
35.816
35.814
35.816
35.819
35.824
35.831
35.84
35.85
35.861
35.872
35.883
35.893
35.902
35.908
35.912
35.913
35.91
35.902
35.89
35.875
35.856
35.835
35.812
35.787
35.762
35.737
35.711
35.685
35.66
35.636
35.613
35.591
35.569
35.549
35.528
35.508
35.49
35.471
35.452
35.433
35.415
35.396
35.377
35.358
35.339
35.319
35.299
35.278
35.259
35.24
35.223
35.207
35.194
35.183
35.175
35.17
35.166
35.164
35.161
35.159
35.155
35.148
35.139
35.128
35.113
35.096
35.078
35.058
35.039
35.021
35.007
34.996
34.989
34.986
34.987
34.99
34.994
34.998
35.002
35.004
35.004
35.001
34.996
34.986
34.974
34.959
34.944
34.928
34.913
34.899
34.886
34.875
34.865
34.858
34.853
34.849
34.846
34.845
34.845
34.845
34.846
34.847
34.848
34.848
34.849
34.848
34.848
34.846
34.843
34.837
34.831
