Trial 3:3back
38.701
38.567
38.435
38.304
38.176
38.049
37.925
37.802
37.683
37.567
37.456
37.351
37.254
37.164
37.085
37.016
36.958
36.911
36.875
36.849
36.831
36.819
36.812
36.808
36.806
36.807
36.808
36.81
36.81
36.808
36.804
36.796
36.784
36.768
36.748
36.724
36.695
36.66
36.619
36.568
36.506
36.433
36.351
36.261
36.166
36.067
35.967
35.867
35.768
35.671
35.576
35.484
35.394
35.305
35.217
35.13
35.041
34.952
34.861
34.769
34.677
34.583
34.488
34.392
34.293
34.192
34.089
33.984
33.879
33.774
33.672
33.574
33.48
33.391
33.308
33.23
33.156
33.085
33.016
32.948
32.882
32.816
32.752
32.689
32.627
32.568
32.511
32.457
32.406
32.358
32.313
32.271
32.231
32.192
32.154
32.116
32.079
32.043
32.007
31.973
31.941
31.912
31.885
31.861
31.841
31.822
31.806
31.792
31.778
31.762
31.744
31.722
31.697
31.67
31.641
31.613
31.587
31.563
31.54
31.518
31.497
31.478
31.458
31.439
31.419
31.399
31.378
31.357
31.335
31.313
31.293
31.275
31.262
31.255
31.257
31.272
31.305
31.361
31.446
31.566
31.728
31.939
32.205
32.528
32.91
33.351
33.846
34.392
34.978
35.597
36.237
36.888
37.539
38.178
38.794
39.378
39.923
40.42
40.867
41.26
41.598
41.882
42.115
42.299
42.437
42.534
42.592
42.617
42.612
42.581
42.528
42.456
42.369
42.269
42.158
42.037
41.907
41.771
41.629
41.483
41.332
41.179
41.027
40.876
40.727
40.58
40.435
40.292
40.153
40.017
39.884
39.754
39.626
39.501
39.378
39.257
39.136
39.017
38.898
38.778
38.658
38.535
38.41
38.283
38.154
38.024
37.894
37.764
37.636
37.51
37.388
37.27
37.16
37.056
36.961
36.876
36.801
36.735
36.68
36.635
36.6
36.573
36.554
36.542
36.535
36.532
36.531
36.531
36.532
36.533
36.534
36.533
36.53
36.523
36.512
36.496
36.474
36.447
36.414
36.375
36.331
36.28
36.224
36.163
36.097
36.027
35.953
35.877
35.798
35.717
35.634
35.551
35.467
35.382
35.297
35.21
35.122
35.033
34.942
34.849
34.755
34.659
34.562
34.465
34.368
34.271
34.173
34.076
33.979
33.884
33.79
33.697
33.605
33.513
33.421
33.328
33.235
33.142
33.049
32.959
32.871
32.788
32.708
32.632
32.561
32.493
32.426
32.362
32.297
32.234
32.171
32.109
32.049
31.992
31.937
31.884
31.833
31.783
31.734
31.685
31.637
31.589
31.541
31.495
31.451
31.41
31.371
31.336
31.305
31.278
31.253
31.232
31.212
31.194
31.178
31.162
31.146
31.13
31.108
31.076
31.036
30.99
30.942
30.896
30.854
30.819
30.791
30.77
30.757
30.752
30.753
30.761
30.775
30.796
30.824
30.859
30.903
30.958
31.029
31.121
31.237
31.385
31.57
31.798
32.077
32.408
32.796
33.238
33.732
34.274
34.855
35.468
36.104
36.751
37.399
38.037
38.656
39.246
39.8
40.31
40.77
41.178
41.53
41.826
42.068
42.258
42.398
42.492
42.543
42.555
42.532
42.477
42.396
42.294
42.174
42.04
41.897
41.748
41.594
41.439
41.283
41.128
40.973
40.821
40.67
40.524
40.38
40.239
40.099
39.961
39.825
39.691
39.558
39.427
39.297
39.166
39.036
38.906
38.775
38.645
38.516
38.388
38.262
38.136
38.01
37.884
37.758
37.63
37.503
37.377
37.252
37.131
37.013
36.9
36.792
36.689
36.595
36.51
36.434
36.368
36.313
36.268
36.233
36.208
36.191
36.181
36.176
36.176
36.178
36.181
36.183
36.185
36.184
36.18
36.173
36.162
36.147
36.127
36.102
36.071
36.033
35.99
35.941
35.884
35.821
35.75
35.673
35.589
35.501
35.408
35.311
35.213
35.114
35.013
34.912
34.811
34.71
34.609
34.508
34.406
34.303
34.2
34.097
33.995
33.893
33.793
33.694
33.596
33.498
33.401
33.305
33.21
33.118
33.029
32.944
32.862
32.785
32.711
32.642
32.576
32.513
32.454
32.397
32.342
32.288
32.234
32.18
32.125
32.068
32.009
31.947
31.883
31.819
31.755
31.692
31.633
31.576
31.524
31.474
31.427
31.383
31.341
31.302
31.266
31.233
31.202
31.175
31.152
31.132
31.115
31.099
31.085
31.071
31.056
31.041
31.023
31.004
30.983
30.96
30.936
30.913
30.891
30.871
30.854
30.84
30.826
30.812
30.798
30.783
30.769
30.754
30.741
30.73
30.722
30.717
30.716
30.718
30.721
30.724
30.726
30.725
30.721
30.714
30.703
30.691
30.679
30.671
30.67
30.678
30.702
30.745
30.813
30.913
31.051
31.233
31.467
31.756
32.104
32.511
32.975
33.492
34.054
34.654
35.282
35.927
36.579
37.226
37.857
38.463
39.035
39.567
40.052
40.486
40.867
41.192
41.463
41.679
41.844
41.959
42.028
42.056
42.047
42.006
41.938
41.846
41.735
41.608
41.468
41.317
41.159
40.997
40.834
40.672
40.513
40.356
40.203
40.053
39.905
39.76
39.616
39.474
39.334
39.196
39.06
38.925
38.79
38.657
38.525
38.394
38.264
38.136
38.008
37.88
37.753
37.626
37.499
37.372
37.248
37.125
37.007
36.893
36.784
36.683
36.589
36.506
36.432
36.369
36.317
36.275
36.242
36.218
36.203
36.196
36.197
36.204
36.217
36.233
36.252
36.272
36.292
36.311
36.327
36.34
36.35
36.354
36.352
36.344
36.328
36.305
36.274
36.237
36.195
36.148
36.097
36.044
35.987
35.926
35.861
35.792
35.718
35.639
35.554
35.464
35.37
35.273
35.173
35.071
34.968
34.864
34.758
34.65
34.54
34.428
34.314
34.199
34.083
33.965
33.848
33.731
33.615
33.502
33.392
33.286
33.184
33.087
32.994
32.906
32.821
32.741
32.664
32.592
32.523
32.458
32.396
32.338
32.285
32.234
32.188
32.144
32.102
32.063
32.024
31.986
31.947
31.908
31.869
31.829
31.79
31.752
31.716
31.684
31.654
31.627
31.602
31.579
31.556
31.533
31.509
31.483
31.458
31.433
31.408
31.386
31.366
31.348
31.332
31.316
31.302
31.29
31.281
31.274
31.268
31.263
31.257
31.249
31.239
31.225
31.208
31.189
31.167
31.144
31.119
31.093
31.067
31.041
31.015
30.988
30.961
30.934
30.909
30.886
30.865
30.848
30.833
30.82
30.807
30.793
30.778
30.762
30.745
30.727
30.71
30.696
30.686
30.685
30.696
30.724
30.776
30.857
30.974
31.134
31.344
31.609
31.935
32.321
32.768
33.271
33.824
34.421
35.05
35.701
36.361
37.021
37.667
38.291
38.883
39.434
39.938
40.392
40.792
41.137
41.427
41.664
41.852
41.993
42.089
42.145
42.163
42.148
42.106
42.039
41.951
41.845
41.723
41.59
41.447
41.296
41.14
40.98
40.82
40.66
40.501
40.343
40.187
40.031
39.877
39.725
39.573
39.422
39.272
39.123
38.975
38.827
38.681
38.535
38.39
38.247
38.106
37.968
37.833
37.701
37.572
37.447
37.327
37.21
37.098
36.99
36.886
36.788
36.695
36.608
36.53
36.46
36.4
36.35
36.31
36.281
36.261
36.251
36.249
36.254
36.265
36.281
36.3
36.321
36.342
36.363
36.381
36.397
36.41
36.419
36.425
36.426
36.422
36.412
36.396
36.373
36.343
36.305
36.26
36.209
36.15
36.085
36.013
35.935
35.852
35.765
35.675
35.581
35.485
35.386
35.284
35.181
35.077
34.972
34.867
34.761
34.655
34.548
34.439
34.329
34.216
34.102
33.986
33.87
33.755
33.642
33.533
33.429
33.33
33.236
33.147
33.063
32.982
32.904
32.829
32.757
32.687
32.62
32.555
32.493
32.435
32.38
32.329
32.282
32.239
32.199
32.163
32.13
32.099
32.07
32.044
32.019
31.994
31.97
31.946
31.923
31.899
31.877
31.854
31.831
31.809
31.786
31.761
31.735
31.709
31.681
31.653
31.625
31.596
31.567
31.539
31.511
31.483
31.456
31.429
31.403
31.376
31.35
31.324
31.298
31.272
31.248
31.226
31.205
31.187
31.169
31.153
31.137
31.121
31.105
31.087
31.068
31.047
31.023
30.998
30.973
30.95
30.932
30.921
30.922
30.938
30.973
31.034
31.125
31.255
31.429
31.653
31.933
32.272
32.669
33.125
33.636
34.196
34.796
35.427
36.076
36.732
37.383
38.018
38.627
39.201
39.732
40.214
40.642
41.016
41.336
41.605
41.821
41.988
42.107
42.182
42.217
42.217
42.186
42.127
42.044
41.941
41.821
41.688
41.544
41.391
41.233
41.072
40.908
40.742
40.576
40.41
40.244
40.079
39.917
39.757
39.6
39.447
39.298
39.152
39.009
38.869
38.731
38.594
38.459
38.324
38.19
38.054
37.919
37.782
37.645
37.509
37.375
37.242
37.112
36.984
36.86
36.74
36.625
36.516
36.414
36.319
36.232
36.155
36.086
36.028
35.98
35.944
35.92
35.906
35.902
35.906
35.917
35.933
35.952
35.972
35.992
36.012
36.032
36.054
36.082
36.116
36.152
36.187
36.218
36.239
36.248
36.243
36.222
36.183
36.128
36.058
35.974
35.878
35.775
35.666
35.553
35.44
35.328
35.22
35.115
35.014
34.917
34.822
34.73
34.64
34.551
34.463
34.376
34.289
34.201
34.111
34.021
33.929
33.836
33.743
33.649
33.555
33.461
33.368
33.277
33.188
33.101
33.016
32.935
32.856
32.78
32.707
32.637
32.572
32.51
32.452
32.398
32.346
32.297
32.247
32.198
32.149
32.099
32.05
32.003
31.958
31.916
31.878
31.844
31.815
31.789
31.767
31.75
31.744
31.751
31.771
31.799
31.83
31.859
31.882
31.897
31.901
31.894
31.875
31.844
31.804
31.757
31.704
31.649
31.591
31.533
31.475
31.421
31.371
31.328
31.291
31.262
31.24
31.225
31.217
31.212
31.211
31.212
31.213
31.212
31.209
31.205
31.198
31.189
31.178
31.165
31.15
31.133
31.113
31.092
31.069
31.045
31.02
30.995
30.971
30.948
30.927
30.911
30.901
30.898
30.907
30.928
30.967
31.026
31.113
31.231
31.388
31.591
31.846
32.155
32.524
32.953
33.44
33.981
34.57
35.196
35.853
36.527
37.208
37.882
38.54
39.17
39.763
40.312
40.812
41.258
41.647
41.98
42.256
42.477
42.647
42.767
42.844
42.882
42.884
42.857
42.804
42.73
42.639
42.534
42.418
42.293
42.161
42.024
41.881
41.734
41.584
41.429
41.271
41.111
40.95
40.788
40.627
40.468
40.313
40.161
40.012
39.867
39.727
39.592
39.462
39.337
39.217
39.101
38.986
38.872
38.757
38.64
38.519
38.395
38.268
38.14
38.011
37.882
37.756
37.634
37.518
37.408
37.305
37.212
37.127
37.05
36.983
36.923
36.871
36.828
36.794
36.769
36.753
36.747
36.749
36.758
36.772
36.789
36.807
36.825
36.842
36.855
36.864
36.869
36.868
36.862
36.851
36.833
36.81
36.781
36.746
36.704
36.656
36.6
36.538
36.469
36.393
36.311
36.223
36.129
36.032
35.931
35.828
35.723
35.617
35.512
35.408
35.305
35.204
35.105
35.007
34.911
34.816
34.72
34.623
34.526
34.428
34.328
34.227
34.127
34.028
33.931
33.837
33.747
33.66
33.578
33.499
33.422
33.348
33.274
33.202
33.13
33.057
32.985
32.915
32.846
32.779
32.714
32.651
32.589
32.528
32.467
32.406
32.343
32.28
32.215
32.149
32.082
32.015
31.95
31.887
31.827
31.772
31.721
31.676
31.635
31.599
31.566
31.535
31.507
31.481
31.455
31.429
31.405
31.382
31.361
31.342
31.325
31.31
31.297
31.285
31.273
31.261
31.251
31.241
31.234
31.228
31.223
31.22
31.22
31.222
31.225
31.229
31.234
31.237
31.239
31.24
31.238
31.236
31.232
31.227
31.22
31.211
31.201
31.188
31.172
31.153
31.132
31.107
31.081
31.053
31.025
30.998
30.973
30.951
30.936
30.933
30.945
30.979
31.042
31.141
31.282
31.472
31.716
32.018
32.381
32.804
33.287
33.824
34.408
35.03
35.679
36.345
37.016
37.681
38.33
38.951
39.536
40.077
40.568
41.005
41.385
41.706
41.97
42.178
42.334
42.442
42.507
42.534
42.528
42.493
42.433
42.354
42.26
42.154
42.039
41.919
41.793
41.662
41.528
41.389
41.247
41.101
40.952
40.801
40.647
40.492
40.335
40.178
40.021
39.866
39.712
39.561
39.414
39.268
39.125
38.985
38.846
38.706
38.567
38.427
38.288
38.149
38.009
37.869
37.73
37.592
37.456
37.323
37.195
37.072
36.955
36.846
36.744
36.652
36.57
36.499
36.439
36.391
36.355
36.331
36.317
36.311
36.313
36.32
36.332
36.346
36.361
36.375
36.388
36.399
36.407
36.414
36.418
36.419
36.42
36.418
36.413
36.403
36.388
36.367
36.34
36.306
36.265
36.216
36.159
36.095
36.023
35.943
35.857
35.765
35.669
35.569
35.466
35.361
35.253
35.143
35.032
34.919
34.806
34.691
34.575
34.46
34.344
34.227
34.111
33.996
33.883
33.771
33.661
33.553
33.45
33.351
33.257
33.169
33.085
33.006
32.931
32.859
32.788
32.719
32.65
32.581
32.514
32.447
32.383
32.32
32.26
32.202
32.146
32.092
32.04
31.991
31.944
31.899
31.857
31.817
31.779
31.743
31.708
31.675
31.642
31.61
31.578
31.547
31.517
31.488
31.462
31.437
31.413
31.39
31.37
31.351
31.336
31.324
31.316
31.311
31.308
31.307
31.306
31.306
31.305
31.304
31.301
31.297
31.293
31.288
31.284
31.281
31.28
31.279
31.279
31.278
31.276
31.273
31.268
31.263
31.257
31.249
31.24
31.23
31.217
31.203
31.186
31.169
31.15
31.13
31.11
31.09
31.071
31.054
31.039
31.027
31.02
31.018
31.026
31.048
31.088
31.155
31.253
31.39
31.574
31.811
32.107
32.464
32.884
33.364
33.901
34.488
35.115
35.773
36.45
37.134
37.814
38.479
39.116
39.719
40.277
40.784
41.236
41.63
41.966
42.243
42.463
42.63
42.746
42.817
42.846
42.838
42.799
42.731
42.641
42.532
42.408
42.273
42.128
41.976
41.819
41.658
41.494
41.327
41.158
40.987
40.816
40.642
40.466
40.289
40.11
39.932
39.755
39.582
39.412
39.247
39.086
38.929
38.775
38.622
38.47
38.319
38.17
38.02
37.87
37.721
37.573
37.428
37.286
37.148
37.016
36.891
36.775
36.669
36.574
36.491
36.421
36.365
36.322
36.292
36.274
36.266
36.267
36.277
36.293
36.315
36.34
36.369
36.399
36.429
36.457
36.484
36.507
36.526
36.539
36.548
36.551
36.55
36.543
36.533
36.517
36.497
36.472
36.441
36.404
36.362
36.313
36.257
36.194
36.124
36.046
35.963
35.874
35.783
35.69
35.597
35.504
35.413
35.322
35.232
35.141
35.049
34.955
34.859
34.765
34.671
34.577
34.482
34.386
34.288
34.187
34.084
33.98
33.876
33.771
33.666
33.562
33.458
33.357
33.257
33.159
33.064
32.972
32.883
32.798
32.718
32.644
32.575
32.512
32.455
32.402
32.354
32.311
32.27
32.233
32.197
32.162
32.128
32.096
32.065
32.036
32.01
31.988
31.97
31.956
31.944
31.935
31.926
31.918
31.909
31.9
31.891
31.882
31.875
31.869
31.864
31.86
31.857
31.854
31.849
31.842
31.834
31.824
31.814
31.803
31.792
31.782
31.771
31.76
31.749
31.737
31.723
31.708
31.691
31.673
31.655
31.638
31.624
31.614
31.61
31.616
31.633
31.667
31.724
31.81
31.931
32.093
32.302
32.564
32.88
33.253
33.682
34.165
34.695
35.265
35.866
36.488
37.119
37.749
38.368
38.967
39.537
40.071
40.564
41.01
41.407
41.751
42.043
42.283
42.472
42.613
42.709
42.763
42.781
42.767
42.723
42.653
42.562
42.453
42.33
42.194
42.05
41.9
41.745
41.586
41.426
41.265
41.104
40.943
40.783
40.625
40.466
40.306
40.146
39.986
39.825
39.664
39.503
39.342
39.181
39.02
38.859
38.698
38.539
38.382
38.226
38.072
37.92
37.769
37.621
37.474
37.33
37.188
37.05
36.917
36.788
36.666
36.552
36.447
36.351
36.267
36.195
36.136
36.091
36.059
36.041
36.035
36.041
36.059
36.085
36.12
36.161
36.205
36.251
36.296
36.339
36.377
36.408
36.432
36.448
36.456
36.455
36.445
36.428
36.403
36.373
36.337
36.296
36.25
36.199
36.142
36.079
36.008
35.93
35.843
35.748
35.646
35.537
35.424
35.307
35.189
35.07
34.953
34.837
34.723
34.611
34.502
34.395
34.29
34.186
34.083
33.982
33.88
33.777
33.672
33.567
33.464
33.365
33.273
33.187
33.108
33.036
32.971
32.91
32.854
32.802
32.751
32.702
32.653
32.603
32.551
32.5
32.447
32.396
32.345
32.297
32.251
32.207
32.166
32.128
32.09
32.054
32.018
31.983
31.95
31.919
31.891
31.864
31.84
31.817
31.797
31.777
31.758
31.739
31.718
31.696
31.673
31.648
31.622
31.595
31.568
31.541
31.514
31.489
31.465
31.443
31.424
31.408
31.393
31.381
31.37
31.36
31.352
31.344
31.337
31.33
31.323
31.315
31.306
31.297
31.287
31.277
31.267
31.257
31.247
31.235
31.222
31.207
31.191
31.174
31.157
31.144
31.137
31.142
31.163
31.208
31.284
31.399
31.56
31.774
32.047
32.385
32.787
33.254
33.783
34.366
34.996
35.662
36.352
37.056
37.76
38.453
39.125
39.767
40.37
40.927
41.433
41.885
42.279
42.616
42.896
43.121
43.295
43.421
43.503
43.544
43.549
43.522
43.468
43.39
43.294
43.183
43.061
42.93
42.792
42.648
42.499
42.348
42.194
42.04
41.885
41.731
41.58
41.432
41.286
41.145
41.007
40.873
40.743
40.616
40.492
40.371
40.251
40.133
40.014
39.893
39.77
39.645
39.517
39.385
39.25
39.112
38.97
38.826
38.678
38.531
38.384
38.239
38.099
37.965
37.837
37.716
37.604
37.503
37.414
37.335
37.269
37.216
37.175
37.145
37.124
37.113
37.109
37.11
37.114
37.12
37.125
37.128
37.129
37.126
37.118
37.106
37.089
37.068
37.043
37.013
36.978
36.939
36.895
36.845
36.789
36.726
36.656
36.579
36.496
36.406
36.31
36.21
36.106
36.001
35.894
35.786
35.679
35.573
35.469
35.367
35.268
35.171
35.078
34.987
34.898
34.811
34.724
34.637
34.549
34.461
34.371
34.278
34.184
34.089
33.996
33.905
33.817
33.734
33.655
33.582
33.512
33.445
33.38
33.316
33.252
33.186
33.118
33.049
32.979
32.908
32.837
32.766
32.695
32.625
32.555
32.486
32.417
32.349
32.283
32.219
32.156
32.096
32.038
31.985
31.935
31.888
31.846
31.808
31.774
31.743
31.714
31.688
31.663
31.638
31.615
31.591
31.568
31.546
31.526
31.509
31.493
31.48
31.47
31.464
31.459
31.456
31.453
31.451
31.447
31.444
31.44
31.436
31.433
31.431
31.429
31.427
31.424
31.421
31.415
31.408
31.398
31.386
31.37
31.352
31.331
31.308
31.282
31.254
31.223
31.19
31.156
31.122
31.09
31.061
31.035
31.011
30.992
30.979
30.975
30.984
31.011
31.061
31.141
31.257
31.416
31.624
31.889
32.215
32.605
33.06
33.577
34.152
34.777
35.443
36.14
36.857
37.581
38.3
39.003
39.678
40.313
40.901
41.435
41.91
42.326
42.68
42.974
43.21
43.39
43.518
43.598
43.636
43.635
43.603
43.545
43.464
43.366
43.255
43.133
43.004
42.871
42.733
42.594
42.454
42.313
42.173
42.032
41.89
41.746
41.6
41.452
41.303
41.155
41.009
40.866
40.726
40.59
40.457
40.328
40.202
40.079
39.958
39.837
39.717
39.597
39.475
39.353
39.228
39.102
38.976
38.848
38.72
38.592
38.466
38.342
38.221
38.103
37.989
37.88
37.778
37.683
37.597
37.519
37.45
37.391
37.34
37.299
37.267
37.242
37.224
37.212
37.204
37.2
37.197
37.195
37.191
37.186
37.177
37.163
37.143
37.116
37.081
37.039
36.99
36.934
36.872
36.803
36.729
36.651
36.569
36.486
36.401
36.317
36.232
36.148
36.063
35.977
35.889
35.798
35.703
35.602
35.491
35.366
35.23
35.085
34.935
34.786
34.641
34.504
34.377
34.261
34.158
34.066
33.983
33.909
33.841
33.776
33.715
33.655
33.594
33.53
33.464
33.394
33.322
33.246
33.17
33.094
33.018
32.944
32.87
32.797
32.725
32.654
32.585
32.516
32.45
32.387
32.328
32.273
32.221
32.174
32.13
32.088
32.049
32.01
31.971
31.932
31.893
31.853
31.812
31.772
31.732
31.692
31.653
31.616
31.58
31.547
31.517
31.49
31.465
31.442
31.42
31.4
31.381
31.364
31.348
31.333
31.319
31.304
31.289
31.272
31.254
31.236
31.219
31.201
31.185
31.169
31.155
31.142
31.131
31.121
31.112
31.104
31.095
31.085
31.077
31.069
31.06
31.052
31.043
31.035
31.027
31.019
31.01
31.001
30.99
30.978
30.963
30.947
30.929
30.909
30.89
30.869
30.849
30.83
30.814
30.805
30.807
30.823
30.86
30.922
31.017
31.152
31.333
31.568
31.861
32.217
32.637
33.118
33.659
34.251
34.889
35.561
36.256
36.962
37.666
38.358
39.025
39.658
40.248
40.79
41.278
41.708
42.079
42.389
42.641
42.837
42.98
43.076
43.129
43.144
43.126
43.08
43.01
42.919
42.811
42.689
42.556
42.416
42.268
42.117
41.964
41.81
41.655
41.5
41.345
41.19
41.036
40.884
40.734
40.588
40.445
40.307
40.173
40.043
39.916
39.793
39.672
39.552
39.434
39.314
39.193
39.069
38.942
