Trial 3:3back
33.727
33.688
33.652
33.62
33.592
33.569
33.55
33.535
33.525
33.518
33.512
33.506
33.502
33.497
33.491
33.485
33.478
33.471
33.465
33.461
33.456
33.451
33.443
33.433
33.42
33.404
33.385
33.361
33.334
33.304
33.271
33.237
33.203
33.168
33.134
33.102
33.072
33.046
33.025
33.008
33.0
33.003
33.022
33.062
33.125
33.217
33.338
33.491
33.675
33.889
34.13
34.395
34.677
34.97
35.268
35.564
35.853
36.127
36.382
36.615
36.822
37.0
37.149
37.269
37.363
37.431
37.476
37.503
37.513
37.511
37.499
37.478
37.451
37.418
37.382
37.344
37.306
37.267
37.228
37.19
37.154
37.12
37.09
37.061
37.034
37.008
36.983
36.959
36.937
36.915
36.892
36.87
36.848
36.826
36.804
36.781
36.759
36.736
36.714
36.691
36.667
36.642
36.617
36.59
36.561
36.529
36.492
36.451
36.406
36.358
36.306
36.251
36.193
36.133
36.072
36.012
35.951
35.891
35.831
35.773
35.717
35.665
35.616
35.573
35.534
35.502
35.478
35.461
35.452
35.448
35.451
35.459
35.471
35.485
35.499
35.511
35.519
35.523
35.522
35.517
35.507
35.492
35.473
35.452
35.43
35.407
35.386
35.366
35.347
35.328
35.306
35.281
35.252
35.217
35.176
35.127
35.071
35.006
34.934
34.856
34.774
34.69
34.605
34.52
34.437
34.358
34.284
34.217
34.156
34.101
34.051
34.007
33.971
33.941
33.916
33.897
33.881
33.869
33.859
33.85
33.842
33.833
33.823
33.81
33.795
33.776
33.756
33.733
33.708
33.682
33.657
33.631
33.606
33.582
33.559
33.537
33.517
33.496
33.476
33.455
33.433
33.412
33.395
33.384
33.383
33.394
33.421
33.468
33.538
33.636
33.762
33.916
34.097
34.301
34.525
34.766
35.018
35.276
35.535
35.79
36.037
36.27
36.488
36.685
36.861
37.014
37.143
37.249
37.332
37.393
37.435
37.458
37.466
37.461
37.446
37.424
37.397
37.367
37.335
37.302
37.27
37.24
37.212
37.184
37.157
37.128
37.1
37.071
37.043
37.016
36.989
36.962
36.936
36.912
36.89
36.869
36.848
36.827
36.807
36.786
36.763
36.738
36.711
36.681
36.648
36.612
36.572
36.529
36.482
36.433
36.38
36.324
36.267
36.209
36.15
36.091
36.032
35.973
35.913
35.855
35.8
35.748
35.7
35.656
35.617
35.584
35.558
35.539
35.526
35.518
35.516
35.517
35.522
35.53
35.54
35.549
35.558
35.564
35.568
35.571
35.571
35.567
35.56
35.55
35.535
35.515
35.491
35.462
35.429
35.39
35.346
35.296
35.243
35.186
35.128
35.07
35.01
34.951
34.892
34.834
34.778
34.722
34.668
34.613
34.557
34.499
34.441
34.384
34.326
34.268
34.21
34.154
34.1
34.05
34.004
33.962
33.922
33.886
33.853
33.822
33.794
33.768
33.746
33.725
33.709
33.694
33.679
33.664
33.647
33.628
33.607
33.584
33.563
33.548
33.546
33.563
33.604
33.673
33.77
33.897
34.053
34.237
34.446
34.677
34.923
35.179
35.439
35.697
35.949
36.189
36.412
36.614
36.793
36.947
37.077
37.184
37.27
37.336
37.385
37.417
37.437
37.445
37.442
37.43
37.412
37.387
37.358
37.324
37.286
37.244
37.2
37.153
37.104
37.053
37.002
36.952
36.905
36.861
36.821
36.784
36.752
36.722
36.694
36.667
36.641
36.614
36.588
36.561
36.535
36.506
36.474
36.44
36.404
36.366
36.326
36.284
36.237
36.188
36.134
36.078
36.019
35.956
35.891
35.825
35.76
35.697
35.637
35.582
35.534
35.493
35.459
35.432
35.412
35.398
35.39
35.388
35.391
35.396
35.404
35.413
35.423
35.434
35.446
35.458
35.47
35.481
35.491
35.501
35.507
35.511
35.51
35.504
35.493
35.478
35.458
35.433
35.402
35.367
35.327
35.284
35.238
35.19
35.14
35.089
35.035
34.98
34.921
34.858
34.792
34.721
34.647
34.569
34.488
34.405
34.322
34.242
34.164
34.089
34.017
33.949
33.884
33.824
33.766
33.713
33.661
33.612
33.565
33.52
33.478
33.441
33.408
33.38
33.355
33.334
33.315
33.3
33.287
33.274
33.26
33.245
33.228
33.211
33.194
33.178
33.163
33.152
33.148
33.155
33.176
33.214
33.272
33.355
33.465
33.605
33.777
33.98
34.212
34.471
34.752
35.05
35.358
35.668
35.976
36.276
36.56
36.825
37.066
37.28
37.465
37.621
37.748
37.847
37.92
37.969
38.0
38.013
38.014
38.003
37.984
37.959
37.929
37.897
37.863
37.829
37.794
37.76
37.725
37.69
37.655
37.621
37.589
37.559
37.531
37.505
37.481
37.458
37.437
37.417
37.4
37.383
37.365
37.345
37.323
37.298
37.269
37.235
37.198
37.156
37.111
37.063
37.013
36.962
36.912
36.861
36.806
36.746
36.679
36.605
36.525
36.44
36.352
36.262
36.172
36.083
35.998
35.92
35.849
35.788
35.738
35.699
35.672
35.656
35.65
35.652
35.66
35.672
35.687
35.704
35.721
35.738
35.753
35.767
35.779
35.787
35.791
35.789
35.782
35.77
35.753
35.731
35.704
35.673
35.637
35.598
35.557
35.513
35.468
35.421
35.373
35.324
35.274
35.223
35.17
35.115
35.059
35.001
34.941
34.882
34.821
34.761
34.699
34.637
34.574
34.512
34.449
34.388
34.327
34.267
34.208
34.149
34.09
34.029
33.967
33.905
33.843
33.781
33.721
33.663
33.608
33.557
33.509
33.463
33.419
33.376
33.336
33.3
33.268
33.244
33.228
33.225
33.238
33.273
33.332
33.419
33.534
33.679
33.854
34.058
34.289
34.54
34.808
35.085
35.366
35.645
35.918
36.18
36.427
36.657
36.866
37.054
37.219
37.361
37.481
37.578
37.654
37.709
37.745
37.764
37.767
37.757
37.737
37.709
37.675
37.636
37.594
37.553
37.512
37.472
37.435
37.399
37.364
37.33
37.295
37.259
37.223
37.185
37.148
37.109
37.07
37.03
36.99
36.95
36.911
36.872
36.832
36.791
36.747
36.702
36.655
36.605
36.551
36.492
36.428
36.36
36.29
36.216
36.139
36.06
35.979
35.897
35.815
35.733
35.654
35.578
35.506
35.439
35.378
35.323
35.275
35.236
35.205
35.184
35.17
35.164
35.166
35.173
35.186
35.204
35.224
35.245
35.264
35.281
35.296
35.309
35.319
35.328
35.333
35.336
35.336
35.333
35.324
35.309
35.286
35.256
35.218
35.174
35.124
35.07
35.014
34.959
34.904
34.849
34.795
34.741
34.687
34.632
34.576
34.517
34.456
34.391
34.326
34.259
34.192
34.122
34.051
33.98
33.909
33.841
33.777
33.717
33.661
33.608
33.559
33.513
33.468
33.424
33.379
33.333
33.284
33.234
33.183
33.133
33.082
33.03
32.979
32.929
32.882
32.841
32.806
32.778
32.761
32.758
32.773
32.81
32.874
32.969
33.096
33.259
33.458
33.691
33.954
34.243
34.552
34.875
35.204
35.531
35.851
36.156
36.442
36.704
36.939
37.144
37.319
37.465
37.583
37.678
37.75
37.801
37.834
37.851
37.856
37.849
37.834
37.81
37.781
37.747
37.711
37.673
37.636
37.602
37.57
37.54
37.511
37.484
37.458
37.433
37.409
37.386
37.361
37.336
37.31
37.284
37.258
37.231
37.203
37.175
37.147
37.118
37.088
37.058
37.025
36.991
36.954
36.912
36.865
36.812
36.752
36.684
36.612
36.535
36.455
36.374
36.292
36.211
36.133
36.059
35.991
35.928
35.872
35.824
35.781
35.745
35.716
35.693
35.675
35.663
35.655
35.65
35.647
35.647
35.648
35.651
35.654
35.655
35.654
35.65
35.643
35.634
35.621
35.604
35.581
35.553
35.52
35.483
35.44
35.392
35.339
35.28
35.216
35.148
35.076
35.001
34.925
34.846
34.767
34.687
34.609
34.533
34.461
34.392
34.326
34.265
34.207
34.153
34.103
34.056
34.013
33.973
33.936
33.901
33.867
33.835
33.805
33.776
33.748
33.72
33.691
33.661
33.631
33.601
33.57
33.537
33.501
33.461
33.417
33.369
33.318
33.264
33.207
33.148
33.089
33.031
32.974
32.922
32.876
32.837
32.808
32.792
32.793
32.815
32.861
32.937
33.046
33.19
33.37
33.586
33.835
34.114
34.417
34.738
35.07
35.404
35.733
36.051
36.352
36.633
36.888
37.116
37.316
37.487
37.63
37.746
37.839
37.908
37.958
37.991
38.009
38.014
38.008
37.993
37.97
37.942
37.909
37.874
37.838
37.8
37.763
37.726
37.69
37.657
37.625
37.595
37.566
37.537
37.507
37.478
37.448
37.418
37.388
37.357
37.325
37.292
37.259
37.227
37.196
37.165
37.132
37.097
37.06
37.02
36.975
36.926
36.87
36.809
36.741
36.669
36.591
36.51
36.427
36.343
36.261
36.181
36.105
36.034
35.968
35.908
35.852
35.802
35.755
35.714
35.679
35.649
35.624
35.604
35.588
35.577
35.569
35.567
35.568
35.571
35.576
35.579
35.581
35.58
35.576
35.567
35.553
35.533
35.51
35.483
35.453
35.421
35.386
35.348
35.308
35.265
35.22
35.172
35.121
35.068
35.012
34.956
34.898
34.838
34.777
34.717
34.656
34.595
34.534
34.473
34.412
34.351
34.289
34.228
34.165
34.1
34.036
33.972
33.909
33.849
33.792
33.739
33.69
33.645
33.604
33.568
33.534
33.502
33.47
33.437
33.401
33.364
33.324
33.283
33.241
33.201
33.162
33.127
33.095
33.067
33.04
33.015
32.991
32.968
32.945
32.924
32.904
32.886
32.872
32.865
32.866
32.879
32.907
32.955
33.025
33.123
33.251
33.41
33.602
33.824
34.076
34.353
34.651
34.963
35.282
35.6
35.913
36.214
36.499
36.766
37.011
37.231
37.425
37.592
37.733
37.847
37.936
38.002
38.048
38.074
38.083
38.078
38.061
38.036
38.003
37.963
37.914
37.858
37.798
37.736
37.675
37.616
37.563
37.517
37.479
37.45
37.43
37.419
37.416
37.419
37.427
37.438
37.45
37.46
37.466
37.466
37.457
37.437
37.406
37.365
37.312
37.252
37.184
37.11
37.032
36.95
36.866
36.782
36.697
36.613
36.528
36.444
36.361
36.28
36.2
36.122
36.049
35.981
35.92
35.866
35.819
35.781
35.749
35.726
35.711
35.703
35.7
35.701
35.703
35.707
35.711
35.715
35.717
35.718
35.717
35.715
35.712
35.708
35.702
35.694
35.682
35.667
35.647
35.621
35.589
35.55
35.506
35.455
35.399
35.338
35.271
35.2
35.125
35.047
34.966
34.883
34.799
34.713
34.627
34.542
34.458
34.375
34.293
34.212
34.134
34.057
33.983
33.912
33.843
33.779
33.72
33.667
33.619
33.577
33.539
33.505
33.475
33.449
33.426
33.404
33.384
33.366
33.35
33.336
33.323
33.309
33.294
33.277
33.258
33.237
33.214
33.187
33.155
33.119
33.079
33.036
32.993
32.949
32.904
32.859
32.813
32.766
32.719
32.673
32.629
32.589
32.553
32.523
32.502
32.491
32.493
32.51
32.544
32.6
32.682
32.794
32.94
33.12
33.336
33.585
33.867
34.175
34.505
34.848
35.199
35.55
35.894
36.226
36.541
36.834
37.101
37.341
37.55
37.73
37.878
37.996
38.085
38.148
38.187
38.206
38.206
38.191
38.165
38.131
38.094
38.056
38.017
37.978
37.94
37.904
37.871
37.84
37.81
37.781
37.752
37.723
37.693
37.662
37.63
37.597
37.565
37.534
37.504
37.476
37.449
37.422
37.393
37.362
37.329
37.292
37.252
37.207
37.158
37.106
37.049
36.988
36.923
36.854
36.78
36.702
36.622
36.539
36.456
36.37
36.284
36.198
36.113
36.03
35.951
35.877
35.809
35.748
35.695
35.651
35.615
35.587
35.566
35.55
35.539
35.531
35.526
35.522
35.519
35.517
35.516
35.515
35.513
35.509
35.504
35.497
35.49
35.481
35.47
35.453
35.431
35.402
35.366
35.325
35.277
35.224
35.167
35.105
35.042
34.977
34.909
34.84
34.77
34.699
34.628
34.557
34.485
34.414
34.344
34.273
34.203
34.134
34.066
34.0
33.937
33.876
33.819
33.765
33.712
33.66
33.608
33.555
33.504
33.453
33.402
33.35
33.299
33.248
33.199
33.153
33.111
33.071
33.035
33.0
32.968
32.939
32.913
32.891
32.873
32.858
32.846
32.838
32.832
32.829
32.828
32.829
32.832
32.837
32.841
32.844
32.844
32.839
32.83
32.814
32.793
32.765
32.732
32.694
32.652
32.609
32.567
32.528
32.495
32.471
32.459
32.463
32.489
32.543
32.629
32.752
32.915
33.119
33.365
33.652
33.976
34.329
34.703
35.09
35.48
35.865
36.236
36.586
36.908
37.198
37.451
37.667
37.846
37.989
38.098
38.176
38.228
38.256
38.266
38.26
38.244
38.218
38.185
38.145
38.1
38.053
38.004
37.957
37.91
37.865
37.82
37.778
37.737
37.698
37.661
37.625
37.591
37.557
37.525
37.493
37.461
37.43
37.4
37.371
37.344
37.317
37.288
37.258
37.224
37.186
37.144
37.095
37.041
36.982
36.917
36.846
36.771
36.69
36.606
36.519
36.432
36.344
36.255
36.169
36.086
36.008
35.935
35.867
35.805
35.749
35.7
35.657
35.621
35.589
35.561
35.537
35.517
35.502
35.493
35.488
35.489
35.493
35.502
35.512
35.524
35.534
35.54
35.54
35.533
35.518
35.495
35.465
35.427
35.381
35.33
35.272
35.211
35.145
35.077
35.008
34.939
34.87
34.8
34.729
34.658
34.587
34.517
34.448
34.38
34.311
34.243
34.177
34.113
34.052
33.993
33.936
33.88
33.825
33.768
33.711
33.653
33.595
33.536
33.476
33.417
33.359
33.301
33.244
33.189
33.137
33.088
33.042
32.998
32.957
32.918
32.882
32.85
32.822
32.798
32.776
32.758
32.744
32.735
32.729
32.726
32.726
32.728
32.73
32.733
32.737
32.741
32.743
32.745
32.745
32.742
32.738
32.729
32.717
32.7
32.679
32.653
32.623
32.59
32.555
32.519
32.486
32.46
32.446
32.45
32.477
32.534
32.626
32.757
32.931
33.151
33.414
33.718
34.057
34.424
34.811
35.21
35.611
36.005
36.382
36.736
37.061
37.353
37.609
37.828
38.01
38.156
38.268
38.349
38.402
38.43
38.438
38.428
38.404
38.37
38.326
38.278
38.227
38.175
38.122
38.07
38.019
37.968
37.917
37.867
37.818
37.769
37.721
37.673
37.626
37.58
37.537
37.497
37.46
37.429
37.4
37.373
37.346
37.318
37.289
37.257
37.222
37.18
37.132
37.078
37.02
36.956
36.888
36.818
36.745
36.67
36.593
36.519
36.446
36.375
36.303
36.229
36.153
36.076
35.999
35.926
35.857
35.795
35.741
35.694
35.656
35.628
35.609
35.6
35.599
35.603
35.613
35.625
35.639
35.651
35.662
35.67
35.676
35.677
35.675
35.666
35.652
35.632
35.605
35.573
35.535
35.493
35.445
35.393
35.335
35.273
35.207
35.137
35.063
34.987
34.91
34.834
34.759
34.687
34.616
34.548
34.481
34.416
34.352
34.288
34.224
34.159
34.094
34.029
33.964
33.9
33.836
33.773
33.711
33.652
33.595
33.54
33.486
33.433
33.382
33.331
33.281
33.231
33.181
33.131
33.081
33.033
32.987
32.944
32.905
32.868
32.834
32.803
32.774
32.748
32.724
32.7
32.679
32.659
32.644
32.636
32.635
32.644
32.666
32.702
32.759
32.84
32.949
33.088
33.259
33.463
33.698
33.961
34.248
34.554
34.873
35.2
35.527
35.849
36.159
36.45
36.718
36.958
37.168
37.346
37.49
37.602
37.684
37.738
37.769
37.78
37.773
37.752
37.721
37.684
37.642
37.598
37.552
37.504
37.457
37.409
37.363
37.318
37.272
37.226
37.181
37.137
37.094
37.053
37.014
36.978
36.945
36.915
36.886
36.859
36.833
36.808
36.782
36.754
36.723
36.689
36.651
36.609
36.562
36.509
36.45
36.385
36.314
36.238
36.159
36.078
35.994
35.909
35.823
35.739
35.658
35.582
35.51
35.445
35.387
35.337
35.296
35.263
35.238
35.22
35.208
35.205
35.214
35.234
35.263
35.3
35.34
35.38
35.415
35.442
35.46
35.466
35.46
35.442
35.412
35.37
35.318
35.259
35.195
35.128
35.06
34.99
34.921
34.854
34.789
34.728
34.671
34.616
34.563
34.51
34.458
34.406
34.352
34.296
34.238
34.175
34.108
34.038
33.963
33.887
33.81
33.732
33.655
33.58
33.507
33.436
33.368
33.303
33.241
33.184
33.13
33.079
33.03
32.982
32.937
32.895
32.856
32.82
32.787
32.754
32.724
32.698
32.674
32.654
32.637
32.622
32.608
32.594
32.582
32.572
32.565
32.563
32.568
32.585
32.616
32.666
32.74
32.842
32.978
33.149
33.357
33.6
33.875
34.178
34.503
34.844
35.193
35.544
35.888
36.217
36.525
36.807
37.06
37.28
37.467
37.62
37.74
37.83
37.893
37.931
37.949
37.949
37.938
37.919
37.894
37.864
37.832
37.797
37.762
37.726
37.689
37.652
37.614
37.576
37.536
37.497
37.46
37.423
37.387
37.352
37.318
37.285
37.252
37.221
37.191
37.161
37.131
37.1
37.066
37.03
36.991
36.95
36.906
36.857
36.804
36.749
36.69
36.63
36.568
36.503
36.435
36.364
36.291
36.216
36.139
36.061
35.982
35.903
35.826
35.752
35.682
35.618
35.56
35.507
35.461
35.422
35.389
35.363
35.342
35.324
35.311
35.301
35.293
35.286
35.282
35.278
35.273
35.267
35.259
35.253
35.249
35.248
35.249
35.252
35.253
35.249
35.24
35.224
35.202
35.173
35.136
35.092
35.039
34.979
34.913
34.84
34.762
34.678
34.591
34.501
34.409
34.316
34.224
34.133
34.045
33.961
33.881
33.807
33.737
33.672
33.61
33.548
33.489
33.429
33.37
33.31
33.252
33.195
33.141
33.092
33.045
33.002
32.961
32.923
32.889
32.859
32.834
32.811
32.791
32.772
32.754
32.737
32.719
32.701
32.685
32.669
32.654
32.641
32.629
32.62
32.616
32.618
32.628
32.649
32.685
32.741
32.822
32.932
33.074
33.251
33.465
33.712
33.992
34.297
34.624
34.963
35.308
35.65
35.983
36.299
36.593
36.862
37.103
37.315
37.496
37.647
37.768
37.863
37.934
37.983
38.012
38.024
38.022
38.008
37.986
37.957
37.923
37.887
37.848
37.807
37.766
37.725
37.686
37.65
37.617
37.589
37.565
37.543
37.524
37.506
37.49
37.473
37.455
37.434
37.41
37.383
37.353
37.32
37.285
37.246
37.206
37.162
37.115
37.063
37.007
36.947
36.883
36.815
36.742
36.664
36.582
36.496
36.408
36.32
36.231
36.143
36.056
35.971
35.89
35.814
35.743
35.679
35.62
35.567
35.52
35.48
35.445
35.415
35.39
35.371
35.357
35.349
35.347
35.348
35.352
35.358
35.365
35.37
35.372
35.369
35.361
35.347
35.327
35.303
35.274
35.241
35.203
35.163
35.12
35.075
35.026
34.974
34.919
34.86
34.798
34.732
34.662
34.59
34.516
34.443
34.371
34.299
34.226
34.153
34.081
34.009
33.94
33.871
33.802
33.734
33.665
33.596
33.527
33.46
33.395
33.333
33.273
33.218
33.168
33.123
33.082
33.045
33.011
32.981
32.953
32.928
32.905
32.884
32.864
32.846
32.83
32.816
32.804
32.793
32.782
32.77
32.756
32.739
32.718
32.693
32.665
32.633
32.597
32.558
32.518
32.479
32.444
32.414
32.392
32.38
32.382
32.403
32.446
32.516
32.615
32.748
32.917
33.123
33.367
33.648
33.962
34.303
34.663
35.035
35.411
35.783
36.143
36.483
36.797
37.082
37.335
37.552
37.734
37.882
37.998
38.085
38.143
38.178
38.193
38.19
38.174
38.148
38.113
38.072
38.026
37.976
37.925
37.873
37.822
37.773
37.726
37.683
37.643
37.607
37.573
37.541
37.511
37.482
37.453
37.422
37.389
37.353
37.315
37.275
37.234
37.191
37.148
37.104
37.06
37.015
36.97
36.925
36.877
36.828
36.776
36.721
36.662
36.598
36.527
36.452
36.372
36.288
36.202
36.115
36.029
35.945
35.865
35.789
35.718
35.651
35.591
35.538
35.493
35.456
35.428
35.409
35.399
35.397
35.402
35.413
35.429
35.447
35.465
35.484
35.5
35.512
35.519
35.519
35.511
35.495
35.47
35.435
35.39
35.336
35.275
35.209
35.139
35.066
34.992
34.916
34.84
34.764
34.69
34.615
34.541
34.466
34.39
34.315
34.241
34.167
34.095
34.022
33.948
33.874
33.802
33.73
33.661
33.594
33.529
33.467
33.409
33.354
33.302
33.254
33.208
33.166
33.126
33.089
33.055
33.023
32.992
32.961
32.929
32.896
32.861
32.825
32.79
32.754
32.721
32.691
32.664
32.642
32.622
32.605
32.591
32.581
32.574
32.571
32.571
32.571
32.569
32.566
32.561
32.555
32.547
32.537
32.523
32.504
32.479
32.45
32.417
32.381
32.342
32.303
32.264
32.229
32.203
32.189
32.193
32.221
32.281
32.377
32.514
32.695
32.922
33.193
33.507
33.857
34.236
34.636
35.046
35.458
35.863
36.251
36.616
36.951
37.253
37.518
37.744
37.931
38.081
38.197
38.279
38.333
38.363
38.373
38.365
38.343
38.31
38.271
38.227
38.183
38.14
38.098
38.057
38.019
37.982
37.947
37.911
37.876
37.839
37.801
37.762
37.723
37.684
37.647
37.611
37.578
37.547
37.517
37.487
37.457
37.426
37.393
37.356
37.314
37.266
37.213
37.154
37.091
37.022
36.948
36.868
36.783
36.696
36.606
36.517
36.427
36.338
36.25
36.165
36.082
36.002
35.925
35.85
35.778
35.709
35.645
35.586
35.533
35.486
35.446
35.414
