Trial 3:3back
34.161
34.15
34.149
34.158
34.18
34.214
34.263
34.327
34.404
34.496
34.6
34.716
34.842
34.976
35.116
35.26
35.406
35.554
35.701
35.845
35.986
36.123
36.255
36.382
36.503
36.619
36.73
36.833
36.928
37.016
37.095
37.166
37.23
37.285
37.331
37.368
37.396
37.416
37.427
37.431
37.428
37.418
37.404
37.385
37.364
37.342
37.318
37.293
37.266
37.24
37.215
37.19
37.166
37.141
37.116
37.091
37.066
37.04
37.014
36.987
36.96
36.932
36.903
36.872
36.84
36.804
36.765
36.723
36.675
36.624
36.57
36.513
36.456
36.4
36.346
36.296
36.251
36.214
36.185
36.165
36.153
36.148
36.149
36.156
36.168
36.183
36.199
36.214
36.229
36.241
36.249
36.253
36.252
36.247
36.236
36.219
36.196
36.169
36.138
36.105
36.07
36.034
35.999
35.965
35.933
35.903
35.874
35.846
35.818
35.786
35.748
35.705
35.656
35.603
35.547
35.49
35.435
35.385
35.339
35.3
35.269
35.244
35.225
35.211
35.201
35.195
35.189
35.184
35.176
35.165
35.149
35.128
35.102
35.068
35.028
34.983
34.934
34.883
34.833
34.786
34.742
34.703
34.67
34.646
34.628
34.619
34.615
34.616
34.62
34.626
34.631
34.635
34.636
34.634
34.627
34.616
34.599
34.577
34.551
34.522
34.491
34.458
34.424
34.391
34.359
34.329
34.302
34.277
34.255
34.236
34.22
34.209
34.2
34.193
34.186
34.181
34.176
34.171
34.166
34.162
34.16
34.159
34.16
34.167
34.179
34.199
34.226
34.261
34.305
34.357
34.418
34.488
34.567
34.654
34.749
34.852
34.963
35.08
35.204
35.331
35.462
35.595
35.729
35.862
35.993
36.12
36.241
36.354
36.459
36.555
36.643
36.722
36.792
36.853
36.904
36.946
36.979
37.003
37.017
37.024
37.022
37.013
36.998
36.976
36.949
36.918
36.884
36.848
36.811
36.774
36.737
36.702
36.667
36.634
36.603
36.573
36.545
36.517
36.491
36.463
36.434
36.402
36.368
36.332
36.292
36.25
36.207
36.161
36.116
36.071
36.029
35.989
35.953
35.92
35.89
35.862
35.838
35.819
35.804
35.793
35.787
35.782
35.779
35.776
35.772
35.767
35.761
35.753
35.744
35.732
35.719
35.704
35.688
35.672
35.657
35.642
35.628
35.616
35.605
35.595
35.583
35.57
35.556
35.54
35.523
35.505
35.486
35.464
35.439
35.41
35.377
35.341
35.303
35.262
35.22
35.177
35.134
35.091
35.049
35.008
34.969
34.932
34.897
34.863
34.829
34.797
34.764
34.732
34.699
34.667
34.634
34.603
34.573
34.543
34.514
34.486
34.459
34.435
34.412
34.391
34.371
34.351
34.331
34.311
34.292
34.272
34.251
34.229
34.205
34.179
34.151
34.123
34.094
34.067
34.042
34.021
34.002
33.987
33.976
33.968
33.964
33.963
33.964
33.967
33.971
33.974
33.974
33.97
33.962
33.949
33.932
33.911
33.888
33.863
33.838
33.812
33.786
33.762
33.74
33.719
33.701
33.687
33.678
33.675
33.679
33.691
33.709
33.736
33.773
33.819
33.875
33.943
34.019
34.105
34.198
34.297
34.402
34.511
34.622
34.735
34.848
34.96
35.07
35.176
35.28
35.38
35.477
35.571
35.662
35.749
35.834
35.916
35.994
36.066
36.134
36.194
36.247
36.292
36.328
36.354
36.371
36.378
36.377
36.367
36.35
36.326
36.297
36.264
36.228
36.193
36.159
36.128
36.1
36.075
36.051
36.029
36.008
35.987
35.965
35.943
35.919
35.893
35.865
35.835
35.803
35.77
35.736
35.702
35.668
35.635
35.603
35.573
35.545
35.52
35.496
35.474
35.455
35.439
35.424
35.411
35.398
35.386
35.374
35.362
35.349
35.336
35.323
35.31
35.297
35.284
35.272
35.261
35.252
35.243
35.235
35.23
35.225
35.223
35.222
35.221
35.221
35.219
35.217
35.213
35.207
35.199
35.189
35.175
35.158
35.139
35.116
35.091
35.063
35.032
35.0
34.966
34.931
34.896
34.862
34.827
34.793
34.76
34.728
34.697
34.667
34.635
34.603
34.568
34.533
34.498
34.465
34.435
34.409
34.387
34.37
34.357
34.348
34.343
34.339
34.337
34.334
34.329
34.322
34.312
34.299
34.28
34.257
34.229
34.197
34.164
34.129
34.095
34.061
34.031
34.003
33.978
33.958
33.943
33.934
33.928
33.926
33.925
33.926
33.927
33.928
33.928
33.925
33.921
33.914
33.905
33.895
33.882
33.869
33.857
33.846
33.84
33.84
33.847
33.861
33.885
33.917
33.959
34.01
34.071
34.142
34.223
34.313
34.411
34.516
34.627
34.742
34.861
34.981
35.1
35.218
35.331
35.439
35.539
35.63
35.709
35.777
35.834
35.881
35.919
35.948
35.969
35.984
35.993
35.999
36.002
36.004
36.004
36.004
36.003
36.001
35.999
35.996
35.991
35.986
35.979
35.971
35.96
35.947
35.933
35.916
35.897
35.873
35.844
35.812
35.777
35.738
35.697
35.655
35.611
35.566
35.522
35.479
35.437
35.396
35.357
35.32
35.287
35.256
35.229
35.206
35.186
35.17
35.159
35.152
35.149
35.151
35.156
35.163
35.172
35.181
35.189
35.198
35.206
35.212
35.216
35.217
35.214
35.208
35.197
35.183
35.165
35.144
35.123
35.101
35.08
35.061
35.045
35.03
35.018
35.007
34.999
34.992
34.986
34.98
34.973
34.963
34.951
34.936
34.917
34.896
34.871
34.842
34.811
34.777
34.74
34.701
34.661
34.619
34.578
34.538
34.5
34.463
34.429
34.399
34.371
34.348
34.328
34.312
34.299
34.289
34.28
34.272
34.265
34.259
34.253
34.245
34.236
34.225
34.21
34.192
34.169
34.144
34.116
34.086
34.056
34.027
34.0
33.976
33.955
33.938
33.926
33.918
33.914
33.915
33.919
33.925
33.932
33.939
33.944
33.947
33.947
33.943
33.937
33.927
33.913
33.896
33.878
33.857
33.837
33.819
33.804
33.793
33.788
33.79
33.801
33.82
33.847
33.885
33.933
33.993
34.064
34.145
34.237
34.337
34.444
34.556
34.672
34.79
34.909
35.025
35.136
35.243
35.344
35.44
35.53
35.613
35.691
35.761
35.824
35.881
35.932
35.978
36.02
36.056
36.087
36.114
36.136
36.153
36.167
36.177
36.185
36.19
36.193
36.194
36.193
36.19
36.185
36.177
36.166
36.153
36.137
36.118
36.097
36.073
36.046
36.016
35.985
35.954
35.923
35.892
35.861
35.83
35.799
35.77
35.741
35.712
35.683
35.655
35.628
35.603
35.578
35.554
35.533
35.513
35.496
35.482
35.47
35.462
35.456
35.453
35.451
35.451
35.45
35.45
35.449
35.445
35.438
35.429
35.416
35.402
35.387
35.373
35.358
35.343
35.328
35.315
35.304
35.295
35.29
35.288
35.289
35.292
35.296
35.3
35.302
35.302
35.299
35.292
35.281
35.264
35.241
35.214
35.181
35.145
35.106
35.066
35.027
34.989
34.953
34.92
34.888
34.859
34.831
34.806
34.783
34.762
34.742
34.723
34.704
34.686
34.668
34.65
34.632
34.614
34.595
34.576
34.557
34.537
34.517
34.498
34.48
34.463
34.447
34.432
34.416
34.4
34.384
34.367
34.351
34.337
34.324
34.312
34.301
34.289
34.277
34.264
34.252
34.239
34.225
34.21
34.193
34.175
34.155
34.133
34.11
34.087
34.064
34.043
34.023
34.006
33.991
33.977
33.965
33.955
33.946
33.94
33.937
33.937
33.939
33.945
33.953
33.966
33.986
34.012
34.047
34.09
34.141
34.2
34.266
34.34
34.421
34.511
34.607
34.71
34.818
34.931
35.045
35.161
35.275
35.388
35.497
35.603
35.703
35.796
35.883
35.963
36.034
36.098
36.155
36.206
36.251
36.29
36.324
36.353
36.377
36.397
36.413
36.425
36.433
36.438
36.438
36.435
36.428
36.418
36.404
36.387
36.366
36.341
36.314
36.283
36.251
36.218
36.183
36.148
36.114
36.08
36.048
36.017
35.989
35.961
35.934
35.906
35.876
35.846
35.815
35.783
35.751
35.72
35.69
35.663
35.638
35.615
35.595
35.575
35.558
35.543
35.531
35.523
35.517
35.513
35.51
35.508
35.506
35.503
35.499
35.495
35.49
35.487
35.484
35.481
35.48
35.478
35.477
35.476
35.476
35.477
35.477
35.477
35.476
35.473
35.468
35.46
35.45
35.438
35.423
35.404
35.38
35.353
35.322
35.289
35.254
35.217
35.179
35.141
35.102
35.064
35.027
34.992
34.958
34.927
34.898
34.872
34.849
34.827
34.808
34.791
34.775
34.762
34.75
34.738
34.727
34.716
34.702
34.687
34.669
34.65
34.629
34.607
34.584
34.558
34.529
34.494
34.453
34.41
34.365
34.321
34.279
34.243
34.212
34.189
34.174
34.166
34.165
34.17
34.179
34.191
34.204
34.216
34.226
34.234
34.238
34.237
34.232
34.222
34.207
34.187
34.163
34.137
34.11
34.084
34.06
34.039
34.021
34.006
33.995
33.988
33.987
33.991
34.0
34.015
34.035
34.063
34.096
34.137
34.183
34.237
34.298
34.367
34.444
34.528
34.619
34.715
34.815
34.918
35.024
35.13
35.237
35.342
35.445
35.544
35.641
35.733
35.821
35.905
35.982
36.054
36.118
36.175
36.225
36.269
36.307
36.339
36.366
36.388
36.406
36.42
36.431
36.438
36.44
36.439
36.433
36.423
36.408
36.39
36.368
36.343
36.314
36.283
36.25
36.216
36.181
36.146
36.111
36.077
36.043
36.011
35.98
35.95
35.921
35.894
35.87
35.848
35.829
35.811
35.795
35.779
35.764
35.749
35.735
35.722
35.711
35.702
35.694
35.685
35.677
35.668
35.66
35.653
35.645
35.637
35.628
35.617
35.605
35.591
35.576
35.561
35.546
35.532
35.52
35.51
35.501
35.493
35.488
35.483
35.481
35.479
35.478
35.477
35.475
35.469
35.46
35.447
35.43
35.411
35.389
35.364
35.337
35.307
35.276
35.243
35.208
35.173
35.137
35.101
35.067
35.035
35.006
34.979
34.954
34.93
34.908
34.886
34.866
34.847
34.828
34.809
34.791
34.774
34.758
34.742
34.727
34.711
34.695
34.679
34.66
34.64
34.617
34.593
34.566
34.537
34.505
34.472
34.437
34.4
34.363
34.326
34.291
34.259
34.232
34.212
34.197
34.188
34.185
34.187
34.193
34.203
34.215
34.226
34.234
34.237
34.235
34.227
34.213
34.194
34.17
34.144
34.116
34.088
34.061
34.036
34.016
34.001
33.992
33.99
33.997
34.012
34.034
34.064
34.103
34.15
34.206
34.27
34.343
34.424
34.511
34.603
34.698
34.796
34.898
35.001
35.104
35.205
35.304
35.399
35.489
35.576
35.657
35.733
35.802
35.865
35.919
35.966
36.004
36.036
36.062
36.084
36.1
36.114
36.124
36.133
36.14
36.145
36.148
36.15
36.15
36.15
36.148
36.144
36.137
36.128
36.116
36.102
36.086
36.066
36.044
36.017
35.987
35.952
35.913
35.871
35.827
35.781
35.735
35.688
35.642
35.599
35.557
35.52
35.486
35.455
35.427
35.404
35.385
35.371
35.36
35.353
35.347
35.344
35.343
35.343
35.342
35.341
35.34
35.338
35.336
35.334
35.332
35.328
35.323
35.317
35.309
35.3
35.291
35.283
35.275
35.269
35.264
35.261
35.259
35.258
35.258
35.255
35.249
35.241
35.229
35.213
35.195
35.174
35.151
35.127
35.103
35.079
35.056
35.032
35.009
34.986
34.963
34.94
34.916
34.893
34.87
34.848
34.826
34.806
34.786
34.768
34.752
34.737
34.723
34.709
34.696
34.682
34.668
34.653
34.636
34.618
34.599
34.578
34.556
34.533
34.51
34.488
34.466
34.445
34.426
34.409
34.393
34.377
34.361
34.344
34.326
34.307
34.286
34.265
34.243
34.221
34.199
34.177
34.155
34.135
34.115
34.097
34.081
34.068
34.057
34.049
34.042
34.038
34.035
34.034
34.035
34.041
34.05
34.063
34.081
34.105
34.134
34.172
34.219
34.275
34.338
34.411
34.491
34.579
34.673
34.774
34.88
34.99
35.102
35.215
35.329
35.441
35.551
35.656
35.756
35.849
35.933
36.007
36.071
36.123
36.165
36.195
36.216
36.228
36.233
36.232
36.227
36.217
36.204
36.189
36.174
36.16
36.146
36.132
36.118
36.103
36.087
36.071
36.056
36.042
36.029
36.015
36.0
35.983
35.965
35.944
35.921
35.897
35.872
35.846
35.818
35.79
35.76
35.729
35.698
35.667
35.636
35.605
35.575
35.543
35.511
35.478
35.445
35.413
35.383
35.355
35.33
35.309
35.291
35.279
35.272
35.272
35.278
35.289
35.305
35.325
35.347
35.37
35.393
35.414
35.434
35.451
35.463
35.471
35.473
35.471
35.465
35.455
35.444
35.43
35.416
35.4
35.383
35.365
35.344
35.322
35.297
35.272
35.247
35.22
35.194
35.167
35.141
35.115
35.091
35.068
35.047
35.027
35.007
34.987
34.967
34.946
34.925
34.903
34.88
34.855
34.828
34.8
34.771
34.741
34.709
34.676
34.643
34.61
34.579
34.55
34.523
34.499
34.479
34.463
34.452
34.445
34.44
34.436
34.432
34.427
34.419
34.409
34.396
34.379
34.361
34.34
34.317
34.293
34.267
34.24
34.213
34.186
34.161
34.138
34.117
34.1
34.086
34.074
34.064
34.056
34.051
34.048
34.046
34.044
34.043
34.041
34.041
34.041
34.042
34.044
34.048
34.054
34.062
34.073
34.088
34.107
34.132
34.163
34.202
34.251
34.309
34.377
34.456
34.545
34.643
34.75
34.864
34.984
35.108
35.234
35.359
35.482
35.6
35.714
35.822
35.923
36.015
36.097
36.169
36.229
36.277
36.315
36.343
36.362
36.373
36.378
36.378
36.374
36.368
36.359
36.35
36.339
36.328
36.317
36.306
36.296
36.286
36.274
36.261
36.247
36.232
36.218
36.203
36.188
36.174
36.16
36.146
36.133
36.12
36.107
36.093
36.076
36.055
36.03
36.002
35.968
35.931
35.89
35.846
35.801
35.754
35.704
35.654
35.606
35.563
35.526
35.496
35.475
35.464
35.46
35.465
35.477
35.493
35.513
35.535
35.557
35.577
35.594
35.607
35.615
35.618
35.617
35.611
35.601
35.585
35.567
35.546
35.524
35.503
35.483
35.465
35.447
35.432
35.418
35.405
35.394
35.385
35.376
35.368
35.36
35.349
35.336
35.319
35.299
35.275
35.248
35.217
35.183
35.145
35.105
35.063
35.018
34.975
34.932
34.892
34.856
34.822
34.79
34.761
34.734
34.711
34.692
34.676
34.662
34.649
34.637
34.625
34.611
34.596
34.58
34.564
34.547
34.529
34.511
34.492
34.472
34.45
34.428
34.406
34.383
34.362
34.341
34.322
34.305
34.293
34.289
34.291
34.299
34.312
34.327
34.343
34.356
34.366
34.369
34.366
34.355
34.337
34.312
34.282
34.248
34.212
34.177
34.142
34.11
34.08
34.054
34.032
34.013
33.996
33.982
33.971
33.963
33.959
33.96
33.966
33.977
33.995
34.021
34.055
34.097
34.149
34.211
34.281
34.359
34.445
34.537
34.634
34.735
34.838
34.943
35.047
35.151
35.253
35.353
35.451
35.545
35.635
35.72
35.8
35.874
35.942
36.004
36.058
36.105
36.144
36.176
36.201
36.22
36.235
36.245
36.251
36.255
36.255
36.252
36.247
36.24
36.23
36.217
36.202
36.184
36.164
36.142
36.118
36.094
36.07
36.046
36.021
35.997
35.971
35.946
35.919
35.891
35.863
35.836
35.809
35.783
35.758
35.734
35.711
35.691
35.673
35.656
35.642
35.629
35.617
35.605
35.593
35.579
35.565
35.549
35.532
35.514
35.496
35.478
35.459
35.442
35.424
35.409
35.394
35.382
35.372
35.364
35.358
35.352
35.348
35.343
35.338
35.333
35.327
35.318
35.307
35.294
35.28
35.265
35.249
35.234
35.219
35.204
35.189
35.174
35.159
35.144
35.129
35.112
35.094
35.074
35.051
35.026
34.999
34.969
34.939
34.908
34.879
34.852
34.829
34.808
34.789
34.773
34.756
34.735
34.708
34.675
34.639
34.6
34.56
34.522
34.485
34.453
34.426
34.404
34.388
34.377
34.372
34.372
34.374
34.378
34.383
34.389
34.395
34.399
34.402
34.402
34.398
34.389
34.376
34.358
34.338
34.316
34.292
34.266
34.241
34.215
34.191
34.168
34.148
34.131
34.117
34.105
34.097
34.09
34.084
34.079
34.075
34.072
34.072
34.074
34.081
34.092
34.108
34.131
34.16
34.197
34.242
34.296
34.358
34.427
34.502
34.582
34.666
34.755
34.846
34.939
35.031
35.122
35.212
35.299
35.384
35.466
35.545
35.621
35.695
35.765
35.831
35.891
35.946
35.996
36.039
36.075
36.104
36.127
36.142
36.147
36.14
36.12
36.09
36.051
36.007
35.961
35.915
35.873
35.834
35.802
35.777
35.759
35.746
35.737
35.731
35.727
35.724
35.72
35.714
35.705
35.693
35.678
35.661
35.64
35.617
35.592
35.566
35.538
35.51
35.481
35.453
35.424
35.396
35.369
35.341
35.314
35.288
35.263
35.241
35.221
35.204
35.19
35.181
35.178
35.179
35.185
35.196
35.209
35.225
35.243
35.262
35.281
35.297
35.311
35.32
35.326
35.328
35.325
35.318
35.307
35.291
35.271
35.247
35.219
35.189
35.158
35.127
35.096
35.067
35.039
35.015
34.994
34.976
34.96
34.947
34.935
34.923
34.91
34.895
34.878
34.859
34.838
34.817
34.794
34.77
34.745
34.718
34.691
34.664
34.638
34.615
34.593
34.574
34.558
34.544
34.531
34.521
34.513
34.506
34.5
34.494
34.486
34.479
34.47
34.459
34.447
34.433
34.418
34.402
34.386
34.369
34.352
34.333
34.313
34.291
34.267
34.241
34.215
34.189
34.165
34.142
34.123
34.107
34.095
34.087
34.082
34.082
34.084
34.091
34.1
34.113
34.127
34.143
34.16
34.178
34.199
34.223
34.251
34.284
34.321
34.363
34.413
34.469
34.534
34.607
34.688
34.777
34.874
34.976
35.083
35.193
35.305
35.415
35.521
35.62
35.712
35.794
35.867
35.93
35.983
36.027
36.061
36.088
36.106
36.118
36.124
36.125
36.123
36.118
36.113
36.106
36.099
36.092
36.085
36.077
36.069
36.06
36.051
36.04
36.026
36.01
35.991
35.97
35.946
35.92
35.893
35.865
35.836
35.807
35.778
35.75
35.722
35.693
35.664
35.635
35.605
35.576
35.546
35.515
35.483
35.451
35.419
35.389
35.36
35.333
35.309
35.289
35.274
35.264
35.26
35.262
35.27
35.284
35.301
35.321
35.341
35.362
35.381
35.397
35.409
35.415
35.415
35.41
35.399
35.383
35.363
35.338
35.312
35.286
35.262
35.239
35.219
35.201
35.187
35.176
35.168
35.162
35.159
35.157
35.156
35.153
35.146
35.135
35.119
35.098
35.073
35.046
35.016
34.984
34.951
34.916
34.881
34.845
34.809
34.774
34.739
34.707
34.677
34.648
34.621
34.597
34.576
34.56
34.549
34.542
34.539
34.538
34.54
34.543
34.546
34.548
34.548
34.545
34.539
34.53
34.515
34.496
34.473
34.447
34.419
34.391
34.363
34.338
34.314
34.293
34.276
34.262
34.251
34.246
34.245
34.248
34.256
34.268
34.284
34.303
34.327
34.356
34.39
34.43
34.475
34.527
34.584
34.647
34.715
34.788
34.866
34.948
35.035
35.127
35.222
35.319
35.416
35.513
35.609
35.703
35.795
35.885
35.971
36.052
36.127
36.194
36.253
36.303
36.344
36.375
36.397
36.408
36.41
36.403
36.39
36.37
36.345
36.316
36.286
36.254
36.222
36.191
36.162
36.136
36.112
36.092
36.075
36.061
36.049
36.038
36.026
36.014
36.0
35.984
35.966
35.944
35.918
35.887
35.853
35.815
35.776
35.737
35.698
35.66
35.624
35.59
35.558
35.528
35.5
35.474
35.452
35.433
35.418
35.405
35.395
35.388
35.383
35.379
35.378
35.379
35.383
35.389
35.398
35.408
35.42
35.432
35.446
35.459
35.473
35.485
35.495
35.503
35.507
35.509
35.507
35.502
35.492
35.479
35.462
35.438
35.406
35.368
35.325
35.28
35.236
35.194
35.157
35.126
35.101
35.084
35.073
35.067
35.066
35.067
35.069
35.07
35.069
35.063
35.053
35.037
35.017
34.991
34.96
34.925
34.886
34.847
34.807
34.769
34.732
34.697
34.663
34.633
34.606
34.582
34.563
34.548
34.537
34.529
34.523
34.52
34.518
34.516
34.514
34.509
34.501
34.49
34.475
34.457
34.435
34.41
34.383
34.355
34.327
34.299
34.274
34.252
34.236
34.225
34.222
34.225
34.238
34.258
34.287
34.324
34.369
34.422
34.482
34.55
34.623
34.701
34.784
34.87
34.96
35.053
35.148
35.245
35.342
35.438
35.534
35.629
35.721
35.81
35.895
35.979
36.064
36.152
36.241
36.328
36.411
36.485
36.547
36.597
36.633
36.656
36.665
36.662
36.646
36.621
36.588
36.549
36.505
36.46
36.414
36.367
36.321
36.277
36.236
36.197
36.161
36.126
36.093
36.061
36.03
35.999
35.968
35.938
35.907
35.876
35.846
35.815
35.784
35.755
35.728
35.702
35.68
35.66
35.643
35.629
35.617
35.608
35.599
35.592
35.585
35.58
35.574
35.568
35.56
35.551
35.54
35.528
35.515
35.502
35.488
35.474
35.461
35.448
35.436
35.427
35.42
35.416
35.414
35.413
35.414
35.415
35.415
35.415
35.412
35.407
35.4
35.39
35.376
35.36
35.34
35.317
35.29
35.261
35.232
35.202
35.174
35.147
35.123
35.103
35.086
35.072
35.06
35.049
35.038
35.026
35.013
34.999
34.983
34.966
34.947
34.928
34.909
34.891
34.872
34.853
34.833
34.812
34.789
34.766
