Trial 3:3back
35.096
35.059
35.023
34.988
34.955
34.923
34.894
34.865
34.839
34.814
34.79
34.769
34.748
34.729
34.71
34.691
34.674
34.657
34.641
34.625
34.611
34.597
34.583
34.57
34.557
34.544
34.53
34.517
34.504
34.492
34.48
34.468
34.454
34.437
34.419
34.4
34.382
34.366
34.353
34.342
34.334
34.328
34.322
34.318
34.314
34.31
34.306
34.298
34.289
34.275
34.259
34.239
34.217
34.193
34.169
34.144
34.119
34.094
34.071
34.049
34.029
34.013
34.001
33.995
33.996
34.005
34.022
34.048
34.084
34.131
34.189
34.259
34.343
34.44
34.55
34.672
34.806
34.951
35.103
35.262
35.425
35.59
35.754
35.917
36.076
36.231
36.38
36.523
36.657
36.782
36.897
37.002
37.094
37.175
37.245
37.304
37.353
37.392
37.421
37.44
37.451
37.452
37.445
37.432
37.414
37.393
37.369
37.343
37.316
37.289
37.261
37.233
37.206
37.178
37.151
37.123
37.095
37.064
37.032
36.998
36.962
36.924
36.885
36.845
36.803
36.761
36.718
36.675
36.631
36.589
36.548
36.509
36.472
36.436
36.401
36.367
36.336
36.306
36.279
36.254
36.232
36.212
36.195
36.18
36.168
36.16
36.154
36.151
36.15
36.152
36.155
36.159
36.164
36.17
36.177
36.185
36.192
36.199
36.204
36.208
36.211
36.211
36.21
36.207
36.202
36.194
36.183
36.17
36.154
36.135
36.114
36.091
36.066
36.039
36.01
35.978
35.944
35.907
35.868
35.827
35.785
35.742
35.698
35.655
35.612
35.571
35.53
35.491
35.452
35.414
35.377
35.34
35.303
35.267
35.231
35.197
35.164
35.132
35.101
35.07
35.039
35.009
34.979
34.949
34.921
34.894
34.869
34.845
34.822
34.8
34.779
34.76
34.742
34.724
34.708
34.691
34.675
34.658
34.64
34.622
34.604
34.587
34.57
34.554
34.539
34.524
34.509
34.494
34.48
34.467
34.454
34.441
34.427
34.414
34.399
34.385
34.37
34.356
34.344
34.332
34.321
34.311
34.3
34.289
34.278
34.267
34.256
34.245
34.232
34.218
34.201
34.18
34.156
34.13
34.102
34.074
34.045
34.017
33.989
33.961
33.934
33.909
33.887
33.869
33.857
33.853
33.856
33.869
33.892
33.927
33.974
34.035
34.109
34.197
34.298
34.412
34.536
34.67
34.812
34.963
35.12
35.282
35.447
35.613
35.778
35.94
36.098
36.251
36.396
36.533
36.661
36.777
36.883
36.975
37.055
37.123
37.177
37.22
37.251
37.272
37.283
37.285
37.28
37.268
37.251
37.228
37.202
37.173
37.143
37.112
37.08
37.049
37.017
36.984
36.949
36.911
36.871
36.829
36.785
36.74
36.695
36.649
36.603
36.557
36.512
36.468
36.424
36.381
36.338
36.297
36.256
36.216
36.177
36.14
36.104
36.069
36.036
36.006
35.978
35.955
35.935
35.919
35.908
35.9
35.896
35.895
35.898
35.905
35.916
35.929
35.945
35.963
35.981
35.999
36.017
36.035
36.054
36.072
36.09
36.104
36.114
36.12
36.122
36.12
36.115
36.108
36.098
36.085
36.068
36.046
36.021
35.993
35.964
35.934
35.902
35.867
35.828
35.786
35.741
35.694
35.647
35.601
35.557
35.515
35.475
35.438
35.403
35.37
35.338
35.309
35.279
35.25
35.219
35.186
35.152
35.117
35.082
35.048
35.016
34.987
34.961
34.938
34.917
34.9
34.885
34.872
34.859
34.847
34.834
34.82
34.804
34.788
34.77
34.752
34.734
34.715
34.695
34.674
34.653
34.631
34.608
34.587
34.567
34.549
34.533
34.519
34.505
34.492
34.479
34.468
34.457
34.447
34.436
34.424
34.411
34.397
34.382
34.367
34.351
34.335
34.318
34.301
34.282
34.262
34.239
34.215
34.19
34.165
34.141
34.117
34.096
34.077
34.062
34.052
34.049
34.053
34.066
34.089
34.122
34.168
34.225
34.295
34.378
34.475
34.584
34.704
34.835
34.975
35.123
35.275
35.432
35.59
35.749
35.907
36.061
36.211
36.354
36.49
36.618
36.736
36.843
36.935
37.013
37.075
37.123
37.158
37.18
37.191
37.193
37.187
37.174
37.157
37.135
37.109
37.08
37.049
37.016
36.981
36.945
36.907
36.867
36.824
36.78
36.732
36.683
36.632
36.578
36.524
36.467
36.41
36.351
36.291
36.23
36.169
36.107
36.046
35.987
35.93
35.876
35.825
35.776
35.731
35.69
35.652
35.619
35.591
35.567
35.549
35.535
35.526
35.521
35.521
35.526
35.535
35.55
35.568
35.59
35.613
35.637
35.661
35.686
35.711
35.735
35.759
35.781
35.799
35.813
35.822
35.828
35.831
35.831
35.829
35.825
35.82
35.815
35.808
35.8
35.792
35.783
35.772
35.759
35.743
35.723
35.7
35.674
35.645
35.615
35.585
35.553
35.52
35.486
35.451
35.416
35.382
35.348
35.316
35.285
35.255
35.225
35.196
35.167
35.14
35.115
35.093
35.073
35.056
35.039
35.022
35.006
34.989
34.972
34.955
34.938
34.92
34.901
34.881
34.86
34.84
34.822
34.806
34.792
34.779
34.766
34.752
34.737
34.72
34.701
34.681
34.66
34.637
34.613
34.588
34.562
34.536
34.512
34.488
34.466
34.446
34.425
34.404
34.382
34.358
34.332
34.305
34.278
34.252
34.23
34.212
34.201
34.198
34.203
34.22
34.248
34.289
34.343
34.412
34.495
34.591
34.698
34.816
34.942
35.076
35.217
35.364
35.514
35.667
35.819
35.971
36.12
36.265
36.404
36.538
36.664
36.782
36.89
36.987
37.074
37.149
37.213
37.266
37.308
37.34
37.363
37.377
37.383
37.381
37.372
37.357
37.336
37.309
37.275
37.237
37.192
37.144
37.093
37.04
36.986
36.931
36.876
36.82
36.763
36.706
36.648
36.59
36.532
36.474
36.416
36.359
36.301
36.243
36.185
36.129
36.074
36.022
35.971
35.924
35.881
35.841
35.805
35.773
35.746
35.724
35.707
35.695
35.688
35.685
35.687
35.693
35.704
35.718
35.735
35.754
35.774
35.795
35.816
35.836
35.856
35.875
35.894
35.911
35.926
35.938
35.948
35.955
35.961
35.965
35.967
35.967
35.964
35.959
35.952
35.941
35.927
35.909
35.889
35.865
35.837
35.805
35.77
35.731
35.689
35.645
35.599
35.552
35.504
35.456
35.406
35.357
35.308
35.259
35.212
35.166
35.122
35.079
35.039
35.0
34.963
34.926
34.892
34.859
34.827
34.797
34.767
34.737
34.707
34.677
34.648
34.619
34.59
34.562
34.536
34.51
34.485
34.461
34.438
34.417
34.397
34.379
34.362
34.347
34.332
34.318
34.304
34.292
34.279
34.267
34.256
34.246
34.238
34.23
34.223
34.217
34.211
34.205
34.199
34.192
34.183
34.173
34.162
34.149
34.136
34.123
34.11
34.098
34.089
34.083
34.082
34.087
34.102
34.126
34.162
34.211
34.275
34.353
34.449
34.564
34.702
34.861
35.039
35.232
35.436
35.645
35.855
36.062
36.262
36.452
36.63
36.796
36.949
37.087
37.212
37.321
37.416
37.498
37.567
37.627
37.678
37.72
37.755
37.781
37.798
37.807
37.809
37.806
37.797
37.784
37.767
37.744
37.718
37.689
37.657
37.624
37.59
37.555
37.518
37.481
37.441
37.4
37.357
37.313
37.267
37.22
37.171
37.12
37.068
37.014
36.959
36.905
36.85
36.797
36.746
36.697
36.651
36.607
36.566
36.527
36.492
36.459
36.43
36.403
36.38
36.361
36.344
36.331
36.321
36.314
36.308
36.305
36.303
36.304
36.307
36.312
36.318
36.327
36.335
36.344
36.352
36.36
36.366
36.371
36.374
36.375
36.373
36.369
36.363
36.354
36.341
36.326
36.307
36.285
36.26
36.231
36.199
36.163
36.125
36.084
36.04
35.995
35.95
35.905
35.86
35.815
35.77
35.724
35.678
35.632
35.586
35.54
35.496
35.452
35.409
35.367
35.326
35.286
35.247
35.21
35.175
35.142
35.111
35.082
35.052
35.022
34.992
34.963
34.934
34.905
34.878
34.852
34.827
34.802
34.777
34.754
34.733
34.714
34.698
34.685
34.674
34.664
34.655
34.646
34.638
34.63
34.622
34.614
34.604
34.593
34.579
34.562
34.543
34.522
34.499
34.476
34.451
34.425
34.399
34.373
34.347
34.324
34.302
34.282
34.265
34.249
34.235
34.221
34.206
34.192
34.177
34.162
34.145
34.128
34.108
34.086
34.06
34.033
34.004
33.975
33.946
33.918
33.89
33.863
33.838
33.814
33.794
33.779
33.771
33.772
33.782
33.803
33.834
33.876
33.93
33.997
34.078
34.173
34.283
34.408
34.546
34.698
34.862
35.037
35.223
35.417
35.617
35.821
36.026
36.229
36.426
36.616
36.797
36.966
37.123
37.265
37.392
37.504
37.601
37.682
37.749
37.804
37.847
37.879
37.9
37.91
37.911
37.905
37.892
37.874
37.852
37.827
37.799
37.768
37.734
37.698
37.661
37.624
37.588
37.554
37.521
37.49
37.459
37.428
37.396
37.362
37.326
37.288
37.247
37.204
37.157
37.107
37.056
37.003
36.95
36.897
36.845
36.793
36.742
36.693
36.645
36.599
36.555
36.515
36.477
36.443
36.413
36.388
36.367
36.352
36.343
36.34
36.345
36.355
36.371
36.39
36.41
36.431
36.451
36.469
36.485
36.498
36.508
36.515
36.517
36.516
36.51
36.5
36.487
36.47
36.448
36.423
36.395
36.363
36.329
36.293
36.256
36.219
36.18
36.142
36.103
36.064
36.024
35.984
35.944
35.906
35.868
35.83
35.792
35.75
35.701
35.642
35.574
35.499
35.422
35.345
35.271
35.202
35.14
35.084
35.036
34.996
34.965
34.942
34.927
34.916
34.91
34.907
34.906
34.905
34.904
34.903
34.899
34.893
34.885
34.873
34.858
34.841
34.822
34.801
34.778
34.756
34.733
34.709
34.685
34.661
34.638
34.615
34.594
34.575
34.557
34.539
34.523
34.507
34.491
34.475
34.46
34.446
34.431
34.416
34.401
34.385
34.368
34.351
34.334
34.317
34.299
34.281
34.262
34.24
34.217
34.19
34.163
34.134
34.105
34.075
34.045
34.014
33.981
33.946
33.91
33.874
33.838
33.802
33.768
33.733
33.699
33.664
33.631
33.598
33.566
33.536
33.507
33.48
33.453
33.427
33.402
33.38
33.361
33.347
33.339
33.337
33.342
33.356
33.379
33.414
33.463
33.528
33.609
33.709
33.826
33.96
34.111
34.276
34.456
34.647
34.847
35.054
35.265
35.477
35.686
35.891
36.087
36.275
36.451
36.615
36.767
36.904
37.027
37.135
37.228
37.308
37.373
37.425
37.464
37.49
37.504
37.508
37.502
37.487
37.465
37.437
37.404
37.368
37.33
37.289
37.248
37.205
37.162
37.118
37.072
37.027
36.981
36.934
36.886
36.837
36.787
36.735
36.683
36.629
36.575
36.52
36.466
36.411
36.358
36.307
36.257
36.209
36.163
36.118
36.076
36.035
35.998
35.963
35.931
35.904
35.88
35.859
35.841
35.826
35.813
35.802
35.794
35.785
35.773
35.758
35.74
35.721
35.703
35.687
35.675
35.668
35.667
35.672
35.681
35.694
35.71
35.727
35.743
35.758
35.77
35.778
35.783
35.782
35.777
35.767
35.752
35.733
35.711
35.687
35.66
35.631
35.599
35.566
35.53
35.493
35.456
35.42
35.385
35.351
35.318
35.287
35.256
35.226
35.197
35.17
35.144
35.119
35.096
35.074
35.053
35.032
35.011
34.99
34.97
34.949
34.929
34.909
34.888
34.867
34.845
34.823
34.802
34.781
34.759
34.737
34.715
34.692
34.67
34.648
34.628
34.609
34.592
34.577
34.564
34.552
34.542
34.532
34.523
34.515
34.507
34.499
34.491
34.482
34.472
34.462
34.45
34.437
34.422
34.407
34.389
34.369
34.348
34.324
34.3
34.274
34.248
34.222
34.195
34.168
34.141
34.113
34.084
34.052
34.019
33.984
33.949
33.914
33.879
33.845
33.811
33.779
33.747
33.716
33.686
33.657
33.629
33.602
33.577
33.554
33.532
33.511
33.491
33.472
33.453
33.435
33.416
33.397
33.378
33.36
33.346
33.338
33.337
33.346
33.366
33.401
33.451
33.517
33.601
33.703
33.823
33.959
34.111
34.276
34.453
34.639
34.831
35.028
35.225
35.421
35.613
35.799
35.978
36.148
36.309
36.457
36.593
36.713
36.818
36.909
36.984
37.045
37.094
37.132
37.161
37.179
37.189
37.188
37.178
37.158
37.131
37.098
37.06
37.018
36.974
36.926
36.876
36.823
36.766
36.707
36.646
36.584
36.521
36.458
36.395
36.331
36.266
36.199
36.133
36.066
36.0
35.935
35.871
35.808
35.747
35.687
35.629
35.574
35.524
35.478
35.439
35.406
35.378
35.357
35.342
35.334
35.333
35.338
35.35
35.368
35.392
35.42
35.452
35.486
35.521
35.558
35.594
35.629
35.662
35.692
35.72
35.744
35.765
35.784
35.8
35.813
35.822
35.829
35.832
35.832
35.829
35.824
35.817
35.808
35.796
35.78
35.76
35.735
35.707
35.675
35.641
35.606
35.57
35.532
35.494
35.454
35.414
35.373
35.333
35.293
35.254
35.214
35.174
35.133
35.091
35.048
35.004
34.961
34.917
34.874
34.83
34.787
34.743
34.699
34.655
34.613
34.574
34.538
34.506
34.476
34.448
34.422
34.398
34.375
34.354
34.335
34.316
34.297
34.278
34.259
34.241
34.222
34.205
34.189
34.174
34.16
34.147
34.135
34.125
34.114
34.103
34.093
34.083
34.074
34.065
34.057
34.05
34.044
34.039
34.034
34.031
34.029
34.027
34.026
34.024
34.021
34.017
34.012
34.006
33.999
33.99
33.98
33.968
33.956
33.944
33.936
33.931
33.928
33.926
33.923
33.918
33.908
33.892
33.871
33.843
33.809
33.771
33.731
33.69
33.649
33.611
33.575
33.545
33.522
33.509
33.506
33.516
33.54
33.58
33.638
33.713
33.806
33.918
34.049
34.197
34.361
34.54
34.73
34.929
35.134
35.342
35.551
35.758
35.96
36.154
36.339
36.512
36.672
36.818
36.948
37.064
37.163
37.248
37.317
37.373
37.415
37.446
37.468
37.481
37.486
37.485
37.477
37.464
37.446
37.424
37.397
37.368
37.336
37.302
37.266
37.23
37.193
37.156
37.119
37.08
37.041
37.0
36.958
36.913
36.867
36.819
36.77
36.72
36.669
36.617
36.564
36.511
36.457
36.404
36.351
36.3
36.252
36.206
36.164
36.126
36.092
36.062
36.036
36.016
36.002
35.994
35.992
35.996
36.005
36.019
36.037
36.059
36.083
36.111
36.14
36.171
36.202
36.231
36.258
36.282
36.303
36.321
36.335
36.345
36.353
36.356
36.355
36.35
36.341
36.328
36.312
36.293
36.271
36.246
36.218
36.188
36.157
36.124
36.09
36.057
36.025
35.993
35.961
35.927
35.891
35.853
35.811
35.767
35.721
35.674
35.625
35.575
35.524
35.473
35.421
35.37
35.321
35.274
35.228
35.185
35.144
35.105
35.067
35.03
34.995
34.961
34.929
34.898
34.868
34.84
34.812
34.785
34.759
34.734
34.709
34.685
34.662
34.639
34.618
34.599
34.583
34.57
34.559
34.549
34.539
34.528
34.517
34.504
34.49
34.475
34.46
34.444
34.428
34.411
34.395
34.378
34.361
34.344
34.327
34.31
34.293
34.276
34.26
34.243
34.227
34.211
34.196
34.18
34.165
34.149
34.133
34.116
34.099
34.081
34.063
34.046
34.029
34.012
33.995
33.977
33.959
33.94
33.92
33.899
33.878
33.855
33.831
33.805
33.776
33.746
33.714
33.682
33.65
33.62
33.594
33.571
33.554
33.545
33.545
33.555
33.578
33.614
33.665
33.731
33.814
33.914
34.03
34.162
34.31
34.474
34.651
34.839
35.038
35.244
35.455
35.67
35.885
36.099
36.308
36.51
36.702
36.883
37.05
37.204
37.342
37.464
37.57
37.659
37.732
37.789
37.832
37.861
37.877
37.882
37.877
37.864
37.843
37.817
37.785
37.749
37.71
37.668
37.625
37.581
37.534
37.486
37.436
37.385
37.333
37.28
37.226
37.171
37.117
37.064
37.011
36.958
36.905
36.852
36.796
36.739
36.682
36.623
36.564
36.505
36.446
36.386
36.327
36.269
36.213
36.161
36.113
36.072
36.037
36.01
35.989
35.976
35.969
35.969
35.975
35.987
36.003
36.021
36.039
36.055
36.069
36.08
36.089
36.096
36.099
36.1
36.098
36.092
36.083
36.072
36.059
36.045
36.031
36.017
36.003
35.988
35.973
35.956
35.938
35.92
35.9
35.878
35.852
35.821
35.785
35.743
35.698
35.648
35.597
35.544
35.49
35.435
35.38
35.326
35.271
35.218
35.165
35.115
35.066
35.019
34.973
34.931
34.893
34.859
34.828
34.801
34.775
34.751
34.727
34.702
34.677
34.65
34.622
34.594
34.566
34.537
34.508
34.479
34.449
34.418
34.387
34.358
34.33
34.304
34.282
34.261
34.243
34.225
34.208
34.192
34.176
34.161
34.146
34.131
34.115
34.097
34.077
34.055
34.032
34.008
33.985
33.963
33.94
33.918
33.895
33.873
33.851
33.83
33.811
33.794
33.777
33.762
33.748
33.734
33.721
33.708
33.695
33.682
33.668
33.654
33.639
33.622
33.604
33.584
33.564
33.542
33.52
33.498
33.474
33.45
33.426
33.401
33.376
33.351
33.326
33.3
33.274
33.248
33.221
33.195
33.168
33.14
33.114
33.088
33.065
33.047
33.033
33.026
33.026
33.037
33.059
33.096
33.147
33.213
33.293
33.387
33.496
33.618
33.752
33.898
34.054
34.219
34.393
34.574
34.76
34.949
35.137
35.323
35.504
35.677
35.841
35.994
36.133
36.259
36.371
36.469
36.552
36.622
36.677
36.72
36.752
36.771
36.78
36.778
36.765
36.742
36.711
36.674
36.631
36.584
36.533
36.48
36.427
36.372
36.317
36.263
36.208
36.153
36.097
36.041
35.984
35.927
35.869
35.811
35.753
35.694
35.634
35.574
35.514
35.455
35.397
35.341
35.287
35.235
35.187
35.143
35.102
35.066
35.034
35.006
34.984
34.966
34.952
34.941
34.935
34.932
34.933
34.938
34.947
34.959
34.974
34.99
35.009
35.029
35.05
35.072
35.095
35.119
35.142
35.163
35.182
35.197
35.209
35.218
35.223
35.225
35.224
35.22
35.213
35.203
35.189
35.173
35.155
35.134
35.111
35.085
35.057
35.026
34.992
34.955
34.917
34.877
34.835
34.791
34.747
34.702
34.657
34.611
34.567
34.524
34.482
34.441
34.4
34.361
34.322
34.283
34.245
34.208
34.172
34.139
34.107
34.076
34.047
34.02
33.994
33.97
33.948
33.927
33.909
33.891
33.876
33.862
33.849
33.838
33.827
33.819
33.811
33.806
33.801
33.798
33.795
33.792
33.79
33.788
33.787
33.787
33.786
33.786
33.784
33.78
33.775
33.768
33.76
33.752
33.744
33.737
33.729
33.72
33.711
33.7
33.688
33.674
33.659
33.643
33.627
33.61
33.594
33.579
33.565
33.551
33.537
33.523
33.508
33.493
33.475
33.456
33.435
33.412
33.388
33.363
33.339
33.316
33.295
33.278
33.265
33.258
33.259
33.267
33.284
33.31
33.347
33.395
33.456
33.53
33.616
33.715
33.827
33.95
34.083
34.225
34.375
34.532
34.692
34.854
35.014
35.172
35.324
35.469
35.605
35.732
35.848
35.951
36.043
36.121
36.187
36.241
36.282
36.313
36.332
36.343
36.345
36.339
36.326
36.307
36.282
36.252
36.218
36.18
36.138
36.092
36.044
35.993
35.941
35.887
35.832
35.776
35.719
35.661
35.6
35.538
35.474
35.408
35.343
35.278
35.214
35.152
35.093
35.036
34.982
34.931
34.883
34.839
34.799
34.763
34.731
34.704
34.682
34.664
34.652
34.644
34.642
34.645
34.652
34.662
34.676
34.691
34.709
34.73
34.753
34.778
34.806
34.836
34.868
34.9
34.932
34.964
34.994
35.021
35.047
35.069
35.089
35.104
35.115
35.122
35.125
35.124
35.119
35.112
35.101
35.087
35.07
35.051
35.028
35.003
34.976
34.946
34.914
34.881
34.846
34.811
34.774
34.737
34.699
34.661
34.622
34.584
34.546
34.508
34.47
34.432
34.394
34.357
34.319
34.283
34.247
34.211
34.174
34.138
34.101
34.065
34.031
33.998
33.968
33.94
33.916
33.893
33.874
33.856
33.841
33.827
33.815
33.804
33.794
33.785
33.776
33.768
33.762
33.757
33.755
33.754
33.756
33.759
33.763
33.767
33.77
33.772
33.773
33.772
33.77
33.766
33.76
33.753
33.744
33.733
33.72
33.707
33.695
33.685
33.678
33.674
33.673
33.673
33.674
33.675
33.675
33.675
33.675
33.674
33.672
33.669
33.664
33.657
33.645
33.631
33.614
33.597
33.58
33.563
33.546
33.531
33.517
33.506
33.501
33.503
33.514
33.539
33.577
33.631
33.701
33.786
33.887
34.003
34.132
34.275
34.429
34.593
34.763
34.937
35.113
35.289
35.463
35.633
35.797
35.953
36.1
36.236
36.36
36.472
36.572
36.661
36.737
36.801
36.853
36.893
36.921
36.936
36.941
36.936
36.923
36.901
36.874
36.84
36.8
36.757
36.709
36.66
36.61
36.561
36.513
36.467
36.423
36.379
36.336
36.297
36.26
36.226
36.194
36.161
36.125
36.087
36.045
36.001
35.955
35.909
35.864
35.82
35.778
35.739
35.701
35.666
35.633
35.602
35.576
35.552
35.532
35.515
35.501
35.489
35.481
35.475
35.473
35.475
35.479
35.487
35.497
35.51
35.524
35.541
35.559
35.58
35.601
35.622
35.641
35.657
35.671
35.681
35.689
35.695
35.699
35.702
35.703
35.702
35.699
35.693
35.684
35.672
35.658
35.642
35.624
35.601
35.575
35.545
35.512
35.476
35.439
