Trial 3:3back
36.822
36.796
36.775
36.759
36.748
36.743
36.743
36.748
36.759
36.773
36.791
36.813
36.836
36.861
36.887
36.912
36.937
36.961
36.983
37.003
37.019
37.032
37.04
37.046
37.047
37.045
37.039
37.031
37.021
37.009
36.996
36.981
36.966
36.949
36.93
36.908
36.884
36.857
36.827
36.795
36.759
36.722
36.684
36.645
36.606
36.568
36.531
36.496
36.463
36.432
36.404
36.377
36.353
36.329
36.307
36.286
36.265
36.243
36.221
36.196
36.17
36.143
36.113
36.082
36.05
36.016
35.981
35.945
35.907
35.87
35.832
35.795
35.759
35.724
35.692
35.663
35.635
35.61
35.587
35.565
35.545
35.527
35.51
35.493
35.477
35.461
35.445
35.43
35.416
35.401
35.388
35.375
35.362
35.35
35.337
35.325
35.312
35.299
35.285
35.27
35.254
35.238
35.222
35.207
35.192
35.177
35.162
35.146
35.13
35.114
35.097
35.081
35.066
35.051
35.036
35.022
35.007
34.993
34.977
34.96
34.942
34.923
34.904
34.885
34.866
34.847
34.828
34.81
34.791
34.773
34.754
34.734
34.713
34.691
34.667
34.64
34.61
34.579
34.546
34.512
34.478
34.443
34.409
34.376
34.345
34.316
34.29
34.269
34.253
34.243
34.241
34.248
34.264
34.291
34.328
34.378
34.439
34.515
34.603
34.706
34.824
34.955
35.1
35.256
35.422
35.597
35.779
35.967
36.157
36.348
36.537
36.723
36.904
37.079
37.244
37.401
37.547
37.682
37.806
37.918
38.019
38.109
38.187
38.253
38.309
38.354
38.39
38.416
38.435
38.445
38.45
38.449
38.443
38.434
38.423
38.41
38.397
38.384
38.372
38.362
38.352
38.343
38.334
38.324
38.313
38.301
38.287
38.271
38.254
38.235
38.215
38.193
38.17
38.144
38.116
38.085
38.052
38.017
37.979
37.938
37.895
37.849
37.802
37.754
37.706
37.659
37.613
37.569
37.529
37.492
37.46
37.432
37.409
37.39
37.375
37.365
37.357
37.353
37.352
37.352
37.355
37.359
37.365
37.373
37.382
37.392
37.403
37.413
37.423
37.433
37.441
37.449
37.454
37.457
37.456
37.451
37.441
37.427
37.408
37.384
37.356
37.325
37.292
37.257
37.221
37.184
37.148
37.111
37.076
37.04
37.005
36.971
36.937
36.903
36.869
36.834
36.798
36.76
36.721
36.68
36.637
36.593
36.548
36.503
36.459
36.417
36.376
36.338
36.302
36.269
36.238
36.209
36.182
36.156
36.131
36.105
36.077
36.048
36.016
35.982
35.946
35.907
35.866
35.825
35.783
35.741
35.7
35.659
35.62
35.582
35.547
35.513
35.483
35.455
35.43
35.408
35.389
35.373
35.359
35.348
35.337
35.328
35.318
35.307
35.295
35.28
35.263
35.243
35.22
35.194
35.167
35.139
35.11
35.081
35.052
35.023
34.995
34.968
34.942
34.917
34.894
34.873
34.853
34.835
34.818
34.803
34.789
34.775
34.762
34.747
34.732
34.716
34.699
34.681
34.663
34.644
34.625
34.605
34.585
34.565
34.544
34.524
34.504
34.483
34.463
34.443
34.423
34.402
34.381
34.358
34.334
34.308
34.281
34.252
34.221
34.19
34.158
34.126
34.093
34.06
34.028
33.996
33.965
33.934
33.905
33.877
33.85
33.827
33.806
33.79
33.78
33.777
33.783
33.798
33.825
33.863
33.916
33.983
34.067
34.166
34.28
34.41
34.553
34.71
34.877
35.055
35.24
35.43
35.625
35.82
36.014
36.204
36.388
36.563
36.728
36.879
37.017
37.141
37.251
37.346
37.426
37.494
37.548
37.59
37.621
37.642
37.653
37.656
37.652
37.642
37.627
37.607
37.585
37.56
37.533
37.506
37.478
37.45
37.424
37.398
37.373
37.35
37.329
37.309
37.29
37.272
37.254
37.237
37.219
37.201
37.18
37.158
37.132
37.104
37.072
37.037
36.998
36.955
36.909
36.86
36.808
36.755
36.699
36.644
36.588
36.534
36.482
36.434
36.389
36.35
36.317
36.288
36.263
36.244
36.229
36.218
36.211
36.207
36.206
36.209
36.215
36.224
36.237
36.252
36.271
36.291
36.314
36.336
36.357
36.376
36.391
36.402
36.407
36.406
36.398
36.384
36.364
36.338
36.307
36.274
36.238
36.202
36.165
36.13
36.095
36.061
36.029
35.998
35.969
35.941
35.915
35.891
35.867
35.844
35.819
35.793
35.765
35.734
35.701
35.665
35.626
35.587
35.546
35.505
35.464
35.424
35.385
35.348
35.314
35.281
35.25
35.221
35.194
35.169
35.144
35.12
35.097
35.073
35.048
35.022
34.994
34.965
34.933
34.899
34.864
34.828
34.791
34.754
34.718
34.683
34.65
34.62
34.593
34.569
34.548
34.529
34.511
34.496
34.482
34.469
34.457
34.446
34.436
34.425
34.414
34.402
34.388
34.372
34.354
34.334
34.312
34.289
34.264
34.238
34.212
34.185
34.159
34.133
34.109
34.086
34.065
34.045
34.026
34.008
33.991
33.975
33.959
33.944
33.931
33.918
33.907
33.896
33.886
33.876
33.867
33.858
33.849
33.84
33.832
33.824
33.816
33.808
33.8
33.791
33.781
33.769
33.755
33.74
33.722
33.703
33.682
33.659
33.635
33.609
33.582
33.553
33.523
33.492
33.459
33.426
33.393
33.36
33.328
33.298
33.269
33.242
33.218
33.196
33.177
33.162
33.149
33.141
33.138
33.142
33.153
33.173
33.203
33.246
33.302
33.372
33.457
33.558
33.674
33.804
33.947
34.103
34.268
34.441
34.62
34.802
34.985
35.166
35.342
35.511
35.671
35.821
35.958
36.081
36.192
36.289
36.373
36.444
36.504
36.553
36.593
36.625
36.649
36.666
36.675
36.678
36.675
36.666
36.652
36.634
36.612
36.587
36.56
36.532
36.503
36.475
36.447
36.42
36.395
36.37
36.347
36.324
36.303
36.281
36.26
36.238
36.216
36.193
36.169
36.142
36.113
36.081
36.046
36.008
35.966
35.921
35.873
35.823
35.771
35.718
35.665
35.613
35.563
35.517
35.474
35.435
35.401
35.371
35.347
35.327
35.312
35.303
35.3
35.302
35.309
35.32
35.335
35.353
35.374
35.396
35.419
35.443
35.466
35.487
35.506
35.523
35.537
35.549
35.558
35.564
35.568
35.568
35.565
35.558
35.547
35.533
35.516
35.495
35.471
35.446
35.419
35.391
35.363
35.334
35.305
35.276
35.244
35.212
35.177
35.141
35.104
35.065
35.025
34.986
34.948
34.911
34.876
34.844
34.815
34.789
34.764
34.742
34.72
34.698
34.676
34.652
34.627
34.601
34.574
34.545
34.516
34.485
34.455
34.424
34.393
34.362
34.331
34.301
34.272
34.244
34.22
34.198
34.179
34.164
34.152
34.143
34.135
34.129
34.123
34.117
34.112
34.105
34.098
34.09
34.081
34.072
34.061
34.05
34.039
34.027
34.015
34.002
33.989
33.976
33.962
33.948
33.934
33.92
33.906
33.892
33.879
33.866
33.853
33.84
33.827
33.814
33.8
33.787
33.774
33.761
33.748
33.735
33.723
33.71
33.699
33.687
33.676
33.665
33.654
33.641
33.628
33.613
33.597
33.579
33.558
33.536
33.512
33.486
33.459
33.431
33.402
33.374
33.345
33.316
33.288
33.26
33.233
33.206
33.181
33.157
33.135
33.115
33.098
33.085
33.074
33.069
33.069
33.075
33.09
33.113
33.147
33.192
33.25
33.32
33.403
33.5
33.609
33.73
33.862
34.003
34.152
34.307
34.465
34.625
34.784
34.941
35.095
35.243
35.384
35.516
35.639
35.751
35.852
35.941
36.018
36.084
36.138
36.181
36.215
36.24
36.258
36.269
36.275
36.277
36.275
36.271
36.263
36.253
36.24
36.224
36.207
36.187
36.166
36.143
36.118
36.093
36.067
36.04
36.013
35.987
35.96
35.934
35.909
35.883
35.858
35.832
35.805
35.777
35.748
35.717
35.685
35.651
35.615
35.577
35.538
35.496
35.453
35.408
35.363
35.317
35.272
35.23
35.191
35.156
35.126
35.1
35.08
35.065
35.056
35.052
35.053
35.059
35.07
35.085
35.103
35.124
35.147
35.172
35.198
35.225
35.251
35.276
35.3
35.323
35.343
35.36
35.374
35.383
35.389
35.39
35.388
35.383
35.375
35.364
35.351
35.335
35.317
35.297
35.275
35.251
35.225
35.198
35.171
35.142
35.114
35.086
35.059
35.033
35.007
34.981
34.956
34.93
34.903
34.877
34.849
34.821
34.793
34.763
34.733
34.703
34.672
34.642
34.613
34.583
34.554
34.526
34.498
34.47
34.442
34.415
34.388
34.361
34.335
34.31
34.286
34.263
34.242
34.222
34.203
34.185
34.167
34.149
34.131
34.114
34.097
34.081
34.065
34.05
34.037
34.024
34.012
34.002
33.992
33.983
33.974
33.967
33.96
33.954
33.948
33.943
33.938
33.934
33.93
33.926
33.921
33.914
33.906
33.896
33.884
33.87
33.855
33.839
33.823
33.805
33.787
33.77
33.753
33.737
33.723
33.711
33.7
33.691
33.682
33.674
33.667
33.661
33.654
33.648
33.641
33.633
33.625
33.617
33.608
33.599
33.59
33.583
33.575
33.568
33.561
33.554
33.546
33.536
33.524
33.51
33.494
33.475
33.454
33.431
33.406
33.38
33.353
33.326
33.298
33.271
33.245
33.221
33.199
33.18
33.165
33.154
33.147
33.144
33.147
33.155
33.168
33.188
33.217
33.254
33.303
33.364
33.439
33.526
33.628
33.744
33.874
34.016
34.169
34.332
34.503
34.68
34.86
35.041
35.22
35.395
35.564
35.725
35.877
36.018
36.147
36.265
36.371
36.464
36.544
36.611
36.665
36.707
36.738
36.758
36.768
36.77
36.766
36.755
36.741
36.724
36.704
36.684
36.663
36.642
36.621
36.601
36.582
36.564
36.546
36.529
36.512
36.495
36.478
36.461
36.444
36.426
36.408
36.389
36.369
36.349
36.327
36.304
36.279
36.252
36.223
36.191
36.158
36.122
36.084
36.045
36.003
35.961
35.917
35.873
35.83
35.788
35.749
35.713
35.682
35.656
35.635
35.62
35.611
35.607
35.609
35.616
35.628
35.644
35.663
35.685
35.709
35.734
35.759
35.783
35.808
35.831
35.853
35.873
35.891
35.906
35.918
35.927
35.932
35.934
35.931
35.925
35.915
35.902
35.886
35.867
35.845
35.821
35.796
35.77
35.742
35.713
35.683
35.653
35.621
35.59
35.558
35.527
35.497
35.469
35.441
35.415
35.391
35.367
35.344
35.321
35.298
35.275
35.253
35.23
35.207
35.183
35.159
35.135
35.11
35.084
35.057
35.029
35.0
34.972
34.942
34.913
34.883
34.853
34.824
34.795
34.767
34.74
34.713
34.687
34.662
34.638
34.615
34.593
34.574
34.556
34.54
34.527
34.515
34.505
34.497
34.489
34.481
34.472
34.464
34.455
34.447
34.438
34.43
34.421
34.412
34.401
34.39
34.376
34.359
34.341
34.32
34.298
34.275
34.251
34.228
34.207
34.186
34.167
34.151
34.136
34.123
34.113
34.104
34.095
34.088
34.08
34.072
34.064
34.056
34.047
34.039
34.031
34.023
34.015
34.007
33.998
33.988
33.977
33.964
33.951
33.937
33.922
33.908
33.894
33.881
33.869
33.859
33.851
33.844
33.839
33.835
33.831
33.827
33.824
33.82
33.815
33.81
33.803
33.794
33.784
33.771
33.757
33.741
33.723
33.704
33.684
33.663
33.641
33.618
33.595
33.573
33.55
33.528
33.507
33.487
33.469
33.454
33.442
33.434
33.43
33.432
33.441
33.457
33.483
33.519
33.567
33.628
33.702
33.791
33.895
34.014
34.147
34.294
34.453
34.623
34.801
34.985
35.172
35.36
35.546
35.727
35.903
36.071
36.23
36.38
36.52
36.648
36.766
36.872
36.966
37.048
37.117
37.175
37.221
37.257
37.283
37.3
37.308
37.308
37.301
37.288
37.27
37.247
37.223
37.197
37.172
37.147
37.124
37.103
37.085
37.068
37.054
37.041
37.028
37.017
37.006
36.996
36.984
36.972
36.957
36.94
36.921
36.899
36.873
36.845
36.813
36.778
36.739
36.698
36.654
36.608
36.561
36.514
36.467
36.423
36.382
36.345
36.313
36.287
36.267
36.252
36.243
36.238
36.238
36.242
36.249
36.258
36.27
36.283
36.297
36.312
36.327
36.342
36.358
36.374
36.391
36.408
36.426
36.444
36.461
36.478
36.493
36.505
36.516
36.522
36.525
36.523
36.517
36.507
36.492
36.473
36.451
36.426
36.399
36.37
36.341
36.311
36.282
36.253
36.224
36.195
36.165
36.134
36.102
36.069
36.035
36.001
35.967
35.933
35.9
35.867
35.836
35.805
35.776
35.747
35.719
35.692
35.664
35.636
35.607
35.578
35.548
35.517
35.486
35.455
35.425
35.395
35.367
35.339
35.312
35.286
35.261
35.237
35.213
35.189
35.166
35.143
35.121
35.1
35.079
35.059
35.039
35.021
35.004
34.988
34.974
34.961
34.949
34.938
34.928
34.918
34.91
34.901
34.892
34.882
34.871
34.858
34.843
34.827
34.81
34.793
34.776
34.76
34.744
34.729
34.715
34.702
34.689
34.676
34.661
34.644
34.626
34.606
34.583
34.559
34.534
34.509
34.485
34.461
34.438
34.417
34.398
34.382
34.368
34.357
34.348
34.342
34.338
34.335
34.333
34.331
34.328
34.323
34.317
34.308
34.296
34.282
34.265
34.246
34.223
34.199
34.173
34.146
34.118
34.089
34.059
34.03
34.0
33.971
33.943
33.914
33.885
33.857
33.83
33.803
33.777
33.752
33.728
33.705
33.685
33.667
33.653
33.642
33.635
33.634
33.639
33.651
33.672
33.701
33.74
33.791
33.852
33.925
34.011
34.109
34.22
34.344
34.481
34.629
34.788
34.956
35.131
35.311
35.494
35.678
35.862
36.042
36.219
36.388
36.551
36.704
36.847
36.978
37.098
37.205
37.3
37.383
37.453
37.512
37.559
37.597
37.624
37.642
37.652
37.654
37.65
37.641
37.627
37.61
37.589
37.565
37.539
37.511
37.481
37.449
37.416
37.38
37.344
37.306
37.267
37.228
37.188
37.148
37.109
37.071
37.033
36.997
36.963
36.929
36.896
36.862
36.827
36.79
36.752
36.71
36.666
36.619
36.57
36.519
36.468
36.417
36.368
36.322
36.28
36.243
36.212
36.187
36.17
36.16
36.156
36.159
36.168
36.182
36.2
36.222
36.246
36.271
36.296
36.321
36.345
36.367
36.387
36.405
36.42
36.431
36.44
36.447
36.451
36.453
36.453
36.451
36.446
36.438
36.427
36.414
36.397
36.378
36.356
36.331
36.305
36.278
36.25
36.221
36.193
36.165
36.137
36.11
36.083
36.056
36.029
36.002
35.975
35.948
35.92
35.892
35.864
35.835
35.806
35.776
35.746
35.715
35.684
35.651
35.617
35.583
35.547
35.512
35.476
35.44
35.403
35.368
35.332
35.298
35.264
35.231
35.198
35.166
35.134
35.104
35.074
35.046
35.02
34.995
34.973
34.953
34.935
34.918
34.902
34.887
34.871
34.856
34.84
34.825
34.809
34.794
34.779
34.764
34.75
34.736
34.723
34.709
34.696
34.682
34.669
34.655
34.64
34.625
34.609
34.593
34.578
34.562
34.547
34.533
34.52
34.507
34.494
34.482
34.47
34.458
34.444
34.43
34.415
34.398
34.38
34.362
34.344
34.325
34.306
34.286
34.267
34.246
34.226
34.206
34.187
34.169
34.152
34.137
34.124
34.111
34.1
34.089
34.079
34.068
34.056
34.044
34.032
34.019
34.004
33.989
33.973
33.956
33.937
33.916
33.893
33.869
33.843
33.815
33.787
33.758
33.728
33.699
33.671
33.644
33.62
33.6
33.583
33.571
33.564
33.565
33.573
33.591
33.62
33.661
33.715
33.783
33.865
33.964
34.078
34.209
34.355
34.516
34.689
34.875
35.069
35.27
35.475
35.683
35.889
36.092
36.289
36.48
36.661
36.833
36.993
37.142
37.278
37.402
37.513
37.612
37.697
37.77
37.831
37.881
37.92
37.95
37.971
37.985
37.992
37.994
37.99
37.982
37.971
37.957
37.941
37.922
37.902
37.879
37.854
37.827
37.798
37.767
37.733
37.699
37.664
37.628
37.594
37.56
37.529
37.499
37.47
37.444
37.419
37.394
37.369
37.342
37.314
37.283
37.249
37.213
37.174
37.133
37.089
37.045
37.0
36.954
36.91
36.867
36.827
36.789
36.755
36.724
36.697
36.674
36.656
36.643
36.634
36.631
36.633
36.64
36.65
36.665
36.683
36.703
36.725
36.748
36.771
36.794
36.815
36.835
36.853
36.868
36.881
36.891
36.897
36.899
36.897
36.89
36.878
36.861
36.839
36.812
36.781
36.747
36.71
36.67
36.629
36.589
36.549
36.51
36.474
36.44
36.407
36.377
36.348
36.321
36.295
36.269
36.242
36.216
36.189
36.16
36.131
36.1
36.068
36.034
36.0
35.964
35.927
35.89
35.851
35.811
35.77
35.729
35.689
35.648
35.609
35.571
35.534
35.499
35.466
35.436
35.408
35.383
35.361
35.342
35.324
35.309
35.294
35.28
35.265
35.25
35.234
35.217
35.198
35.177
35.155
35.132
35.108
35.085
35.062
35.041
35.021
35.003
34.986
34.971
34.956
34.941
34.926
34.911
34.895
34.879
34.863
34.846
34.829
34.811
34.793
34.775
34.757
34.739
34.722
34.705
34.688
34.671
34.653
34.635
34.616
34.597
34.578
34.559
34.539
34.518
34.496
34.475
34.454
34.434
34.415
34.398
34.383
34.369
34.357
34.346
34.336
34.326
34.316
34.307
34.297
34.287
34.276
34.266
34.254
34.243
34.23
34.217
34.203
34.187
34.169
34.151
34.131
34.11
34.088
34.066
34.045
34.024
34.004
33.984
33.964
33.944
33.924
33.902
33.88
33.856
33.831
33.805
33.779
33.754
33.729
33.706
33.684
33.664
33.647
33.633
33.623
33.617
33.616
33.621
33.632
33.65
33.677
33.714
33.761
33.821
33.895
33.984
34.09
34.213
34.355
34.514
34.69
34.882
35.088
35.306
35.532
35.765
36.0
36.236
36.469
36.696
36.916
37.125
37.324
37.509
37.682
37.839
37.983
38.111
38.224
38.321
38.404
38.473
38.528
38.572
38.605
38.627
38.641
38.646
38.645
38.639
38.629
38.617
38.602
38.586
38.57
38.554
38.538
38.521
38.504
38.485
38.464
38.441
38.416
38.388
38.358
38.326
38.293
38.259
38.225
38.19
38.156
38.12
38.084
38.047
38.008
37.966
37.922
37.875
37.825
37.774
37.722
37.669
37.617
37.567
37.519
37.475
37.435
37.4
37.37
37.344
37.323
37.307
37.295
37.288
37.286
37.288
37.293
37.301
37.312
37.326
37.342
37.36
37.379
37.399
37.419
37.438
37.456
37.473
37.487
37.499
37.508
37.514
37.515
37.513
37.508
37.5
37.489
37.475
37.46
37.441
37.421
37.398
37.374
37.347
37.32
37.292
37.262
37.232
37.201
37.168
37.135
37.099
37.062
37.023
36.982
36.939
36.894
36.848
36.801
36.754
36.706
36.659
36.612
36.566
36.521
36.477
36.435
36.395
36.356
36.318
36.282
36.246
36.21
36.175
36.139
36.104
36.068
36.032
35.997
35.961
35.926
35.891
35.855
35.82
35.785
35.75
35.717
35.684
35.653
35.623
35.596
35.571
35.548
35.527
35.506
35.487
35.468
35.449
35.432
35.414
35.396
35.378
35.358
35.336
35.313
35.287
35.261
35.234
35.206
35.178
35.151
35.126
35.101
35.079
35.058
35.039
35.021
35.004
34.989
34.974
34.96
34.946
34.931
34.916
34.899
34.88
34.861
34.841
34.821
34.802
34.784
34.767
34.751
34.737
34.724
34.712
34.7
34.689
34.676
34.663
34.648
34.631
34.613
34.593
34.572
34.551
34.529
34.507
34.485
34.465
34.444
34.425
34.405
34.386
34.366
34.347
34.328
34.309
34.291
34.274
34.256
34.239
34.221
34.202
34.183
34.162
34.139
34.115
34.088
34.06
34.03
33.998
33.966
33.933
33.901
33.869
33.839
33.811
33.785
33.762
33.743
33.728
33.717
33.711
33.71
33.714
33.725
33.745
33.775
33.818
33.874
33.947
34.037
34.147
34.275
34.424
34.591
34.777
34.98
35.198
35.428
35.668
35.914
36.163
36.412
36.658
36.899
37.131
37.354
37.566
37.766
37.953
38.126
38.285
38.431
38.562
38.679
38.782
38.872
38.948
39.013
39.065
39.106
39.137
39.159
39.172
39.178
39.178
39.171
39.161
39.146
39.127
39.106
39.083
39.058
39.031
39.004
38.975
38.947
38.918
38.889
38.86
38.831
38.802
38.771
38.74
38.706
38.671
38.633
38.592
38.549
38.504
38.455
38.404
38.35
38.295
38.239
38.183
38.129
38.075
38.024
37.975
37.929
37.887
37.848
37.812
37.78
37.752
37.728
37.708
37.692
37.681
37.673
37.67
37.67
37.674
37.681
37.693
37.707
37.724
37.742
37.762
37.782
37.801
37.818
37.834
37.846
37.855
37.859
37.86
37.856
37.849
37.837
37.821
37.801
37.778
37.753
37.724
37.694
37.663
37.631
37.599
37.566
37.533
37.501
37.467
37.433
37.399
37.364
37.327
37.289
37.249
37.207
37.163
37.116
37.068
37.02
36.97
36.921
36.872
36.823
36.775
36.729
36.683
36.638
36.594
36.551
36.509
36.468
36.429
36.39
36.352
36.314
36.277
36.239
36.201
36.161
36.12
36.077
36.034
35.989
35.944
35.901
35.859
35.821
35.786
35.755
35.729
35.706
35.688
35.672
35.659
35.647
35.634
35.621
35.606
35.59
35.573
35.554
35.535
35.514
35.493
35.472
35.449
35.426
35.401
35.376
35.35
35.324
35.297
35.269
35.242
35.215
35.189
35.163
35.139
35.117
35.095
35.075
35.055
35.036
35.017
34.999
34.981
34.963
34.944
34.926
34.906
34.887
34.867
34.846
34.825
34.803
34.782
34.761
