Trial 3:3back
35.514
35.526
35.541
35.556
35.571
35.585
35.597
35.606
35.612
35.615
35.613
35.608
35.6
35.588
35.573
35.556
35.537
35.517
35.496
35.475
35.453
35.433
35.414
35.396
35.38
35.365
35.351
35.338
35.326
35.314
35.303
35.291
35.279
35.266
35.251
35.236
35.219
35.201
35.182
35.162
35.142
35.122
35.103
35.084
35.066
35.049
35.032
35.016
35.002
34.989
34.976
34.965
34.953
34.942
34.929
34.916
34.901
34.885
34.869
34.852
34.836
34.821
34.806
34.793
34.781
34.771
34.761
34.752
34.744
34.736
34.728
34.721
34.712
34.702
34.691
34.679
34.666
34.653
34.64
34.627
34.615
34.604
34.594
34.586
34.578
34.572
34.567
34.562
34.557
34.551
34.544
34.535
34.524
34.512
34.498
34.484
34.468
34.452
34.436
34.419
34.403
34.388
34.373
34.36
34.349
34.34
34.333
34.33
34.332
34.34
34.354
34.377
34.408
34.45
34.503
34.567
34.641
34.726
34.821
34.923
35.033
35.148
35.267
35.388
35.508
35.626
35.739
35.846
35.946
36.036
36.117
36.187
36.245
36.292
36.328
36.354
36.369
36.375
36.374
36.366
36.353
36.336
36.316
36.295
36.273
36.251
36.231
36.212
36.195
36.179
36.165
36.153
36.141
36.13
36.119
36.107
36.096
36.085
36.075
36.066
36.057
36.05
36.044
36.038
36.033
36.027
36.02
36.014
36.006
35.998
35.988
35.977
35.964
35.949
35.933
35.915
35.897
35.879
35.86
35.843
35.827
35.813
35.802
35.793
35.786
35.783
35.782
35.783
35.787
35.792
35.799
35.806
35.813
35.82
35.827
35.833
35.837
35.841
35.842
35.842
35.84
35.836
35.83
35.822
35.814
35.804
35.793
35.781
35.768
35.754
35.739
35.722
35.704
35.685
35.665
35.645
35.626
35.607
35.589
35.571
35.553
35.535
35.517
35.498
35.479
35.46
35.441
35.421
35.401
35.38
35.359
35.338
35.318
35.298
35.279
35.261
35.244
35.228
35.213
35.199
35.186
35.173
35.161
35.15
35.139
35.129
35.119
35.108
35.098
35.087
35.076
35.064
35.051
35.038
35.024
35.009
34.993
34.978
34.962
34.946
34.931
34.917
34.904
34.891
34.88
34.869
34.86
34.851
34.844
34.837
34.832
34.828
34.824
34.821
34.817
34.812
34.805
34.797
34.787
34.774
34.758
34.741
34.722
34.702
34.681
34.66
34.64
34.62
34.603
34.587
34.574
34.563
34.555
34.551
34.55
34.553
34.562
34.576
34.597
34.625
34.662
34.707
34.763
34.83
34.909
34.998
35.098
35.206
35.32
35.44
35.562
35.685
35.806
35.924
36.036
36.14
36.236
36.322
36.396
36.458
36.508
36.546
36.573
36.589
36.597
36.596
36.59
36.578
36.562
36.543
36.522
36.499
36.476
36.453
36.431
36.409
36.39
36.371
36.353
36.337
36.322
36.309
36.298
36.288
36.281
36.275
36.271
36.268
36.267
36.266
36.265
36.264
36.261
36.258
36.253
36.246
36.238
36.227
36.214
36.198
36.181
36.161
36.14
36.118
36.096
36.073
36.052
36.032
36.014
36.0
35.988
35.981
35.977
35.978
35.981
35.989
35.998
36.011
36.025
36.04
36.055
36.069
36.082
36.092
36.099
36.102
36.102
36.098
36.09
36.079
36.065
36.049
36.032
36.013
35.995
35.976
35.957
35.938
35.921
35.904
35.887
35.872
35.856
35.842
35.827
35.812
35.798
35.783
35.767
35.751
35.734
35.716
35.698
35.678
35.658
35.637
35.615
35.591
35.567
35.541
35.516
35.49
35.466
35.442
35.421
35.4
35.382
35.364
35.348
35.332
35.316
35.301
35.285
35.27
35.255
35.24
35.225
35.21
35.195
35.18
35.166
35.152
35.139
35.127
35.115
35.104
35.094
35.086
35.08
35.074
35.069
35.064
35.058
35.051
35.044
35.036
35.028
35.019
35.01
35.001
34.992
34.982
34.972
34.961
34.95
34.939
34.927
34.916
34.905
34.894
34.884
34.875
34.868
34.863
34.86
34.859
34.86
34.864
34.871
34.883
34.9
34.924
34.956
34.996
35.046
35.105
35.174
35.253
35.343
35.441
35.549
35.663
35.784
35.907
36.032
36.156
36.276
36.39
36.497
36.595
36.684
36.763
36.83
36.886
36.931
36.965
36.988
37.002
37.007
37.006
37.0
36.989
36.974
36.956
36.937
36.915
36.892
36.867
36.843
36.818
36.793
36.77
36.748
36.728
36.709
36.691
36.674
36.659
36.645
36.634
36.624
36.616
36.609
36.603
36.598
36.592
36.585
36.576
36.566
36.554
36.539
36.522
36.503
36.482
36.459
36.437
36.414
36.393
36.372
36.355
36.34
36.328
36.32
36.316
36.314
36.316
36.321
36.329
36.339
36.351
36.365
36.378
36.392
36.405
36.416
36.426
36.434
36.439
36.443
36.445
36.445
36.443
36.44
36.434
36.427
36.417
36.405
36.39
36.373
36.355
36.335
36.314
36.293
36.271
36.249
36.226
36.203
36.181
36.16
36.14
36.12
36.102
36.083
36.065
36.046
36.028
36.009
35.991
35.973
35.955
35.937
35.919
35.901
35.883
35.865
35.847
35.83
35.813
35.797
35.78
35.764
35.747
35.73
35.712
35.694
35.675
35.656
35.638
35.62
35.604
35.59
35.577
35.567
35.558
35.551
35.544
35.538
35.532
35.525
35.516
35.505
35.492
35.477
35.459
35.44
35.419
35.398
35.376
35.354
35.331
35.308
35.285
35.263
35.243
35.226
35.212
35.203
35.198
35.2
35.208
35.222
35.245
35.276
35.316
35.366
35.427
35.498
35.58
35.671
35.771
35.879
35.992
36.111
36.233
36.356
36.479
36.599
36.715
36.824
36.925
37.017
37.1
37.172
37.234
37.285
37.327
37.358
37.38
37.392
37.397
37.394
37.386
37.373
37.358
37.34
37.321
37.302
37.283
37.263
37.245
37.227
37.209
37.193
37.179
37.165
37.152
37.139
37.126
37.112
37.098
37.083
37.068
37.052
37.035
37.018
37.0
36.98
36.96
36.937
36.912
36.885
36.857
36.829
36.799
36.77
36.741
36.713
36.688
36.666
36.648
36.634
36.624
36.619
36.618
36.621
36.626
36.633
36.64
36.648
36.656
36.663
36.67
36.675
36.68
36.682
36.684
36.683
36.681
36.678
36.672
36.665
36.657
36.648
36.638
36.626
36.614
36.601
36.586
36.57
36.553
36.534
36.515
36.495
36.474
36.452
36.428
36.403
36.377
36.349
36.321
36.292
36.263
36.235
36.207
36.179
36.153
36.127
36.104
36.082
36.062
36.044
36.027
36.012
35.998
35.984
35.971
35.956
35.942
35.927
35.912
35.897
35.883
35.868
35.854
35.84
35.826
35.812
35.798
35.784
35.77
35.756
35.74
35.724
35.706
35.686
35.664
35.642
35.618
35.593
35.567
35.541
35.515
35.49
35.465
35.441
35.418
35.397
35.376
35.358
35.343
35.33
35.322
35.32
35.323
35.334
35.354
35.383
35.422
35.472
35.532
35.603
35.685
35.777
35.879
35.989
36.105
36.227
36.353
36.479
36.603
36.725
36.841
36.951
37.053
37.147
37.231
37.305
37.368
37.419
37.459
37.489
37.509
37.52
37.523
37.52
37.511
37.499
37.483
37.465
37.445
37.424
37.404
37.384
37.364
37.346
37.33
37.315
37.301
37.289
37.278
37.269
37.259
37.25
37.242
37.233
37.225
37.216
37.205
37.193
37.178
37.162
37.143
37.123
37.101
37.077
37.053
37.027
37.001
36.974
36.948
36.923
36.899
36.876
36.856
36.838
36.823
36.812
36.803
36.797
36.794
36.793
36.794
36.796
36.8
36.804
36.809
36.814
36.818
36.82
36.822
36.821
36.819
36.814
36.807
36.797
36.785
36.771
36.754
36.736
36.716
36.695
36.673
36.651
36.629
36.607
36.585
36.562
36.539
36.516
36.493
36.469
36.444
36.42
36.395
36.37
36.344
36.317
36.289
36.261
36.233
36.206
36.179
36.154
36.129
36.105
36.082
36.06
36.037
36.015
35.993
35.971
35.948
35.925
35.901
35.878
35.855
35.832
35.81
35.789
35.768
35.747
35.726
35.705
35.684
35.662
35.64
35.618
35.595
35.572
35.549
35.526
35.502
35.478
35.454
35.43
35.406
35.383
35.361
35.341
35.322
35.305
35.291
35.28
35.272
35.268
35.27
35.277
35.292
35.315
35.347
35.39
35.443
35.507
35.583
35.671
35.771
35.882
36.003
36.132
36.265
36.402
36.54
36.676
36.807
36.933
37.049
37.156
37.251
37.335
37.406
37.464
37.51
37.544
37.567
37.58
37.584
37.581
37.571
37.555
37.535
37.512
37.486
37.459
37.431
37.403
37.377
37.352
37.33
37.311
37.294
37.279
37.268
37.258
37.25
37.244
37.24
37.236
37.233
37.229
37.224
37.216
37.206
37.192
37.175
37.155
37.132
37.107
37.079
37.049
37.017
36.984
36.95
36.917
36.884
36.853
36.823
36.796
36.77
36.747
36.726
36.708
36.693
36.68
36.67
36.663
36.658
36.655
36.653
36.652
36.652
36.652
36.651
36.649
36.646
36.642
36.635
36.625
36.613
36.598
36.581
36.561
36.54
36.518
36.494
36.47
36.446
36.421
36.395
36.37
36.344
36.319
36.294
36.269
36.244
36.22
36.197
36.173
36.149
36.126
36.102
36.078
36.054
36.03
36.005
35.98
35.953
35.926
35.898
35.87
35.841
35.813
35.784
35.755
35.725
35.695
35.666
35.637
35.609
35.582
35.556
35.532
35.508
35.485
35.463
35.442
35.422
35.402
35.384
35.366
35.348
35.33
35.312
35.294
35.275
35.256
35.237
35.217
35.197
35.177
35.156
35.134
35.111
35.086
35.061
35.034
35.008
34.981
34.955
34.93
34.905
34.883
34.862
34.845
34.832
34.824
34.821
34.824
34.835
34.855
34.885
34.925
34.977
35.041
35.117
35.204
35.302
35.41
35.526
35.648
35.775
35.904
36.034
36.162
36.285
36.401
36.509
36.606
36.692
36.767
36.831
36.883
36.924
36.955
36.976
36.987
36.99
36.985
36.974
36.957
36.936
36.913
36.888
36.862
36.835
36.808
36.782
36.758
36.735
36.715
36.696
36.679
36.664
36.65
36.638
36.626
36.615
36.605
36.594
36.584
36.573
36.561
36.548
36.533
36.517
36.5
36.481
36.461
36.439
36.416
36.391
36.366
36.339
36.311
36.283
36.256
36.229
36.204
36.18
36.157
36.136
36.117
36.098
36.082
36.066
36.053
36.043
36.035
36.029
36.025
36.022
36.021
36.02
36.019
36.017
36.014
36.009
36.003
35.994
35.983
35.97
35.953
35.934
35.913
35.89
35.866
35.842
35.817
35.792
35.766
35.74
35.713
35.686
35.659
35.632
35.605
35.576
35.548
35.518
35.489
35.459
35.43
35.4
35.371
35.343
35.315
35.287
35.259
35.231
35.203
35.176
35.149
35.123
35.098
35.073
35.048
35.023
34.998
34.973
34.947
34.92
34.894
34.868
34.842
34.817
34.793
34.77
34.748
34.728
34.709
34.69
34.672
34.653
34.634
34.614
34.594
34.574
34.554
34.534
34.515
34.497
34.479
34.463
34.448
34.433
34.42
34.406
34.391
34.376
34.358
34.339
34.319
34.298
34.276
34.253
34.229
34.205
34.18
34.156
34.133
34.111
34.091
34.072
34.056
34.043
34.032
34.026
34.025
34.03
34.043
34.064
34.094
34.135
34.187
34.251
34.326
34.413
34.509
34.613
34.725
34.84
34.959
35.077
35.194
35.308
35.415
35.515
35.607
35.688
35.758
35.817
35.863
35.897
35.92
35.933
35.937
35.933
35.922
35.906
35.887
35.865
35.841
35.817
35.792
35.768
35.745
35.723
35.704
35.686
35.669
35.654
35.64
35.628
35.616
35.606
35.596
35.587
35.577
35.569
35.56
35.551
35.543
35.536
35.529
35.521
35.512
35.502
35.49
35.476
35.459
35.44
35.418
35.395
35.369
35.342
35.314
35.285
35.256
35.23
35.205
35.184
35.166
35.152
35.141
35.133
35.129
35.129
35.132
35.137
35.145
35.153
35.161
35.169
35.174
35.178
35.178
35.175
35.169
35.158
35.145
35.128
35.108
35.085
35.061
35.035
35.009
34.982
34.955
34.928
34.902
34.876
34.851
34.827
34.805
34.784
34.764
34.746
34.729
34.712
34.695
34.677
34.659
34.641
34.623
34.605
34.586
34.567
34.548
34.529
34.51
34.491
34.473
34.454
34.436
34.417
34.398
34.378
34.358
34.337
34.316
34.294
34.272
34.249
34.227
34.206
34.186
34.168
34.151
34.137
34.123
34.111
34.101
34.091
34.083
34.075
34.068
34.061
34.054
34.047
34.039
34.031
34.022
34.014
34.005
33.996
33.988
33.979
33.971
33.964
33.956
33.948
33.94
33.931
33.921
33.91
33.898
33.885
33.872
33.857
33.841
33.824
33.806
33.788
33.77
33.753
33.737
33.723
33.71
33.7
33.693
33.69
33.692
33.699
33.713
33.734
33.762
33.799
33.844
33.898
33.96
34.031
34.109
34.196
34.29
34.39
34.496
34.605
34.717
34.828
34.938
35.043
35.142
35.235
35.318
35.393
35.456
35.51
35.553
35.586
35.609
35.625
35.632
35.633
35.627
35.616
35.601
35.582
35.561
35.538
35.514
35.491
35.469
35.449
35.431
35.415
35.402
35.391
35.382
35.376
35.371
35.368
35.366
35.365
35.364
35.363
35.361
35.36
35.358
35.355
35.351
35.344
35.336
35.325
35.312
35.296
35.279
35.26
35.239
35.217
35.194
35.172
35.15
35.129
35.11
35.094
35.081
35.07
35.063
35.059
35.059
35.062
35.068
35.077
35.088
35.101
35.115
35.128
35.142
35.154
35.165
35.174
35.18
35.182
35.182
35.178
35.17
35.16
35.148
35.133
35.117
35.099
35.08
35.061
35.043
35.025
35.008
34.992
34.977
34.964
34.951
34.938
34.926
34.912
34.898
34.884
34.868
34.852
34.835
34.818
34.799
34.78
34.759
34.738
34.717
34.697
34.676
34.656
34.636
34.617
34.598
34.58
34.564
34.549
34.536
34.525
34.515
34.508
34.5
34.493
34.486
34.48
34.473
34.467
34.462
34.456
34.449
34.443
34.436
34.428
34.421
34.413
34.406
34.398
34.39
34.382
34.373
34.364
34.355
34.346
34.336
34.326
34.314
34.302
34.289
34.276
34.262
34.247
34.232
34.216
34.2
34.182
34.164
34.145
34.128
34.111
34.096
34.083
34.073
34.067
34.065
34.067
34.075
34.088
34.109
34.137
34.173
34.217
34.269
34.331
34.401
34.479
34.564
34.656
34.752
34.852
34.952
35.053
35.151
35.245
35.334
35.415
35.488
35.55
35.603
35.644
35.675
35.697
35.71
35.714
35.712
35.704
35.691
35.674
35.654
35.632
35.609
35.586
35.564
35.544
35.525
35.508
35.494
35.481
35.47
35.461
35.454
35.448
35.442
35.437
35.432
35.427
35.421
35.415
35.409
35.402
35.393
35.384
35.374
35.362
35.348
35.333
35.316
35.299
35.281
35.261
35.242
35.222
35.203
35.184
35.167
35.15
35.135
35.123
35.113
35.106
35.102
35.101
35.103
35.108
35.115
35.125
35.136
35.149
35.16
35.171
35.18
35.186
35.19
35.192
35.19
35.185
35.177
35.165
35.15
35.132
35.112
35.091
35.068
35.044
35.019
34.995
34.971
34.948
34.927
34.907
34.888
34.87
34.852
34.835
34.818
34.801
34.783
34.765
34.745
34.724
34.702
34.679
34.654
34.629
34.603
34.576
34.55
34.524
34.499
34.475
34.453
34.431
34.41
34.39
34.372
34.356
34.341
34.328
34.315
34.302
34.29
34.277
34.264
34.252
34.24
34.228
34.218
34.208
34.2
34.193
34.187
34.183
34.18
34.179
34.177
34.175
34.173
34.168
34.162
34.154
34.143
34.132
34.118
34.102
34.084
34.066
34.047
34.028
34.01
33.992
33.975
33.96
33.945
33.931
33.92
33.91
33.904
33.9
33.9
33.904
33.912
33.925
33.943
33.968
34.001
34.042
34.091
34.149
34.215
34.289
34.371
34.46
34.555
34.654
34.756
34.86
34.966
35.07
35.173
35.272
35.366
35.452
35.529
35.596
35.651
35.694
35.726
35.747
35.757
35.759
35.753
35.741
35.724
35.704
35.682
35.659
35.636
35.613
35.592
35.573
35.555
35.539
35.525
35.512
35.5
35.49
35.481
35.472
35.464
35.456
35.448
35.441
35.435
35.429
35.423
35.417
35.411
35.404
35.395
35.386
35.375
35.363
35.349
35.334
35.317
35.299
35.281
35.261
35.24
35.219
35.199
35.179
35.16
35.144
35.129
35.116
35.105
35.097
35.091
35.088
35.087
35.089
35.092
35.095
35.099
35.103
35.106
35.108
35.109
35.109
35.107
35.103
35.096
35.087
35.077
35.064
35.05
35.035
35.019
35.002
34.984
34.966
34.949
34.931
34.914
34.898
34.881
34.865
34.849
34.832
34.816
34.799
34.782
34.765
34.748
34.731
34.712
34.693
34.674
34.655
34.636
34.618
34.6
34.583
34.567
34.551
34.535
34.52
34.506
34.492
34.478
34.465
34.452
34.439
34.425
34.41
34.396
34.381
34.366
34.352
34.339
34.326
34.314
34.302
34.291
34.28
34.269
34.258
34.247
34.236
34.226
34.217
34.209
34.202
34.197
34.193
34.19
34.188
34.187
34.186
34.184
34.182
34.178
34.173
34.166
34.157
34.146
34.134
34.121
34.106
34.09
34.074
34.058
34.042
34.026
34.01
33.995
33.981
33.969
33.96
33.956
33.956
33.963
33.977
33.999
34.029
34.069
34.118
34.177
34.246
34.324
34.411
34.504
34.604
34.71
34.819
34.931
35.044
35.155
35.262
35.364
35.458
35.545
35.622
35.69
35.747
35.792
35.825
35.848
35.86
35.863
35.859
35.848
35.834
35.816
35.797
35.776
35.755
35.734
35.713
35.693
35.673
35.654
35.635
35.619
35.604
35.59
35.577
35.565
35.555
35.546
35.537
35.53
35.524
35.519
35.516
35.513
35.512
35.51
35.509
35.506
35.502
35.496
35.487
35.475
35.46
35.442
35.422
35.399
35.376
35.351
35.326
35.302
35.279
35.258
35.24
35.224
35.212
35.203
35.198
35.195
35.196
35.199
35.203
35.209
35.216
35.223
35.23
35.236
35.241
35.243
35.244
35.242
35.237
35.23
35.22
35.208
35.195
35.18
35.163
35.145
35.127
35.107
35.086
35.065
35.044
35.023
35.003
34.984
34.964
34.946
34.927
34.907
34.888
34.868
34.849
34.829
34.808
34.787
34.765
34.743
34.72
34.698
34.676
34.655
34.634
34.615
34.596
34.578
34.561
34.544
34.527
34.511
34.496
34.481
34.467
34.453
34.439
34.425
34.411
34.397
34.383
34.369
34.355
34.341
34.327
34.313
34.299
34.285
34.271
34.257
34.244
34.23
34.216
34.203
34.19
34.178
34.167
34.156
34.145
34.135
34.125
34.115
34.105
34.097
34.09
34.084
34.079
34.075
34.07
34.065
34.059
34.054
34.048
34.043
34.037
34.031
34.025
34.017
34.008
33.996
33.984
33.969
33.954
33.938
33.922
33.905
33.888
33.873
33.858
33.845
33.835
33.828
33.825
33.827
33.836
33.852
33.877
33.912
33.956
34.012
34.079
34.158
34.247
34.346
34.455
34.57
34.691
34.815
34.939
35.06
35.176
35.286
35.386
35.475
35.552
35.616
35.666
35.702
35.724
35.735
35.735
35.726
35.709
35.688
35.663
35.636
35.608
35.58
35.554
35.529
35.507
35.487
35.469
35.453
35.438
35.425
35.413
35.402
35.391
35.381
35.372
35.362
35.352
35.342
35.331
35.321
35.311
35.301
35.291
35.282
35.273
35.265
35.256
35.246
35.236
35.225
35.212
35.198
35.181
35.162
35.141
35.119
35.097
35.074
35.053
35.033
35.016
35.003
34.992
34.986
34.982
34.981
34.984
34.988
34.995
35.002
35.01
35.019
35.027
35.033
35.038
35.041
35.042
35.041
35.037
35.03
35.022
35.01
34.997
34.981
34.964
34.944
34.923
34.901
34.877
34.853
34.829
34.805
34.782
34.76
34.739
34.72
34.701
34.683
34.666
34.65
34.634
34.618
34.602
34.586
34.568
34.55
34.532
34.513
34.494
34.475
34.457
34.439
34.422
34.404
34.387
34.37
34.353
34.336
34.32
34.304
34.29
34.275
34.262
34.25
34.238
34.228
34.217
34.207
34.196
34.185
34.174
34.162
34.151
34.141
34.132
34.125
34.118
34.112
34.107
34.103
34.099
34.095
34.092
34.088
34.083
34.077
34.069
34.06
34.051
34.042
34.032
34.022
34.012
34.001
33.991
33.98
33.971
33.962
33.955
33.949
33.945
33.942
33.94
33.937
33.934
33.931
33.928
33.923
33.918
33.911
33.902
33.892
33.881
33.868
33.854
33.839
33.823
33.807
33.789
33.773
33.759
33.746
33.737
33.732
33.731
33.736
33.746
33.762
33.786
33.819
33.862
33.915
33.979
34.053
34.137
34.231
34.333
34.442
34.556
34.675
34.797
34.918
35.037
35.151
35.26
35.359
35.449
35.526
35.591
35.643
35.682
35.708
35.721
35.723
35.716
35.7
35.678
35.65
35.619
35.585
35.551
35.517
35.484
35.453
35.425
35.4
35.377
35.357
35.34
35.325
35.313
35.302
35.292
35.282
35.274
35.266
35.258
35.251
35.244
35.238
35.232
35.227
35.222
35.217
35.211
35.203
35.193
35.182
35.17
35.157
35.142
35.126
35.109
35.092
35.075
35.058
35.042
35.029
35.018
35.009
35.004
35.001
35.001
35.004
35.009
35.016
35.024
35.034
35.045
35.056
35.067
35.077
35.085
35.092
35.098
35.101
35.103
35.103
35.1
35.095
35.088
35.078
35.067
35.054
35.04
35.024
35.006
34.987
34.967
34.946
34.924
34.902
34.88
34.858
34.837
34.816
34.797
34.778
34.761
34.746
34.732
34.719
34.707
34.695
34.683
34.671
34.657
34.644
34.629
