Trial 3:3back
32.78
32.747
32.72
32.699
32.683
32.671
32.66
32.651
32.643
32.635
32.627
32.618
32.607
32.595
32.581
32.564
32.545
32.522
32.497
32.469
32.439
32.407
32.376
32.346
32.322
32.308
32.307
32.325
32.367
32.436
32.538
32.677
32.857
33.079
33.342
33.643
33.977
34.338
34.719
35.109
35.498
35.879
36.243
36.582
36.892
37.168
37.406
37.605
37.765
37.886
37.972
38.025
38.048
38.047
38.023
37.981
37.924
37.857
37.781
37.701
37.618
37.536
37.456
37.38
37.308
37.24
37.177
37.118
37.064
37.014
36.966
36.919
36.872
36.826
36.78
36.733
36.687
36.643
36.6
36.559
36.52
36.482
36.443
36.401
36.358
36.312
36.261
36.205
36.144
36.077
36.005
35.928
35.847
35.764
35.679
35.592
35.505
35.417
35.33
35.246
35.165
35.087
35.014
34.947
34.887
34.836
34.793
34.76
34.738
34.727
34.727
34.735
34.751
34.772
34.797
34.825
34.854
34.882
34.908
34.932
34.952
34.967
34.978
34.983
34.983
34.977
34.965
34.946
34.92
34.888
34.85
34.807
34.758
34.703
34.642
34.575
34.503
34.427
34.348
34.267
34.184
34.101
34.019
33.938
33.859
33.781
33.706
33.631
33.559
33.488
33.419
33.35
33.284
33.221
33.162
33.105
33.051
33.001
32.955
32.912
32.871
32.832
32.794
32.757
32.721
32.685
32.647
32.609
32.57
32.53
32.49
32.45
32.411
32.373
32.337
32.303
32.27
32.238
32.208
32.18
32.155
32.136
32.128
32.132
32.156
32.205
32.286
32.405
32.567
32.773
33.024
33.315
33.643
34.001
34.381
34.773
35.168
35.557
35.932
36.285
36.608
36.897
37.15
37.364
37.539
37.677
37.779
37.847
37.884
37.893
37.879
37.848
37.804
37.75
37.689
37.623
37.555
37.487
37.422
37.36
37.302
37.25
37.202
37.156
37.112
37.067
37.022
36.975
36.927
36.878
36.827
36.776
36.724
36.672
36.621
36.57
36.521
36.472
36.423
36.374
36.321
36.264
36.203
36.138
36.067
35.99
35.907
35.818
35.725
35.629
35.532
35.435
35.342
35.252
35.168
35.09
35.016
34.948
34.886
34.83
34.78
34.736
34.698
34.666
34.642
34.626
34.617
34.617
34.625
34.64
34.66
34.685
34.711
34.738
34.764
34.789
34.81
34.827
34.838
34.845
34.847
34.845
34.838
34.826
34.81
34.789
34.764
34.733
34.695
34.649
34.597
34.538
34.471
34.397
34.317
34.233
34.146
34.058
33.969
33.88
33.793
33.709
33.628
33.552
33.48
33.41
33.343
33.277
33.214
33.154
33.096
33.04
32.987
32.937
32.891
32.849
32.812
32.779
32.75
32.726
32.704
32.683
32.662
32.64
32.617
32.592
32.567
32.541
32.516
32.493
32.476
32.468
32.472
32.494
32.54
32.615
32.724
32.87
33.057
33.284
33.553
33.859
34.197
34.56
34.941
35.329
35.717
36.097
36.458
36.795
37.101
37.37
37.601
37.791
37.941
38.051
38.124
38.163
38.172
38.156
38.118
38.063
37.996
37.92
37.841
37.761
37.683
37.61
37.541
37.477
37.419
37.365
37.315
37.266
37.218
37.17
37.123
37.075
37.027
36.98
36.934
36.889
36.846
36.806
36.767
36.729
36.693
36.656
36.618
36.579
36.535
36.487
36.434
36.374
36.308
36.235
36.157
36.073
35.983
35.89
35.794
35.697
35.601
35.507
35.412
35.32
35.23
35.144
35.064
34.992
34.927
34.873
34.829
34.796
34.774
34.763
34.762
34.772
34.79
34.813
34.842
34.873
34.907
34.939
34.969
34.994
35.015
35.03
35.039
35.042
35.038
35.029
35.015
34.996
34.972
34.941
34.903
34.859
34.808
34.752
34.689
34.621
34.548
34.471
34.392
34.312
34.233
34.156
34.081
34.008
33.937
33.868
33.8
33.735
33.67
33.605
33.54
33.474
33.409
33.344
33.282
33.223
33.166
33.112
33.061
33.013
32.967
32.923
32.88
32.837
32.795
32.753
32.713
32.675
32.639
32.606
32.577
32.555
32.543
32.544
32.564
32.607
32.679
32.787
32.933
33.121
33.353
33.628
33.94
34.286
34.66
35.051
35.452
35.851
36.241
36.61
36.953
37.263
37.535
37.766
37.956
38.104
38.212
38.283
38.319
38.326
38.308
38.271
38.22
38.161
38.098
38.033
37.969
37.909
37.853
37.801
37.753
37.708
37.666
37.625
37.584
37.544
37.503
37.461
37.418
37.375
37.334
37.294
37.255
37.218
37.183
37.151
37.119
37.089
37.057
37.024
36.988
36.949
36.905
36.856
36.802
36.74
36.673
36.6
36.521
36.438
36.35
36.258
36.162
36.063
35.963
35.864
35.765
35.67
35.578
35.491
35.412
35.342
35.281
35.23
35.191
35.162
35.145
35.137
35.136
35.142
35.152
35.166
35.182
35.197
35.212
35.223
35.231
35.237
35.239
35.239
35.236
35.231
35.222
35.209
35.192
35.172
35.147
35.116
35.079
35.036
34.986
34.93
34.868
34.803
34.734
34.663
34.592
34.522
34.452
34.381
34.31
34.238
34.166
34.094
34.019
33.943
33.865
33.787
33.71
33.634
33.561
33.493
33.43
33.372
33.319
33.273
33.232
33.198
33.168
33.141
33.116
33.091
33.065
33.038
33.01
32.98
32.948
32.913
32.876
32.839
32.804
32.773
32.747
32.73
32.723
32.731
32.759
32.812
32.897
33.02
33.184
33.393
33.644
33.937
34.266
34.624
35.004
35.396
35.79
36.178
36.55
36.899
37.216
37.496
37.737
37.939
38.101
38.225
38.316
38.375
38.408
38.419
38.413
38.394
38.366
38.332
38.294
38.252
38.21
38.166
38.123
38.081
38.039
38.0
37.962
37.925
37.889
37.853
37.819
37.784
37.749
37.713
37.675
37.636
37.595
37.551
37.503
37.45
37.392
37.332
37.269
37.205
37.139
37.071
37.001
36.929
36.854
36.777
36.697
36.615
36.529
36.44
36.348
36.251
36.153
36.052
35.95
35.849
35.751
35.659
35.575
35.5
35.437
35.386
35.349
35.324
35.31
35.305
35.308
35.317
35.33
35.345
35.36
35.376
35.392
35.408
35.423
35.436
35.447
35.455
35.461
35.462
35.46
35.453
35.441
35.422
35.395
35.361
35.32
35.273
35.222
35.168
35.111
35.052
34.992
34.931
34.869
34.808
34.745
34.682
34.616
34.548
34.478
34.405
34.33
34.252
34.173
34.093
34.013
33.935
33.861
33.791
33.728
33.672
33.62
33.573
33.53
33.489
33.449
33.41
33.37
33.33
33.291
33.251
33.211
33.171
33.132
33.094
33.058
33.024
32.99
32.957
32.925
32.892
32.86
32.83
32.802
32.777
32.759
32.751
32.758
32.783
32.833
32.913
33.029
33.183
33.379
33.618
33.896
34.213
34.56
34.93
35.312
35.699
36.081
36.452
36.805
37.134
37.436
37.708
37.947
38.152
38.321
38.456
38.558
38.63
38.673
38.692
38.689
38.671
38.638
38.595
38.544
38.487
38.426
38.364
38.3
38.237
38.174
38.111
38.049
37.986
37.923
37.858
37.794
37.729
37.663
37.599
37.537
37.477
37.419
37.364
37.313
37.265
37.221
37.181
37.144
37.109
37.074
37.036
36.994
36.947
36.895
36.838
36.775
36.705
36.63
36.55
36.465
36.378
36.29
36.203
36.117
36.033
35.954
35.88
35.812
35.751
35.698
35.653
35.616
35.587
35.567
35.554
35.55
35.553
35.562
35.577
35.597
35.621
35.647
35.673
35.696
35.714
35.727
35.734
35.734
35.727
35.713
35.694
35.668
35.636
35.599
35.557
35.513
35.464
35.412
35.355
35.295
35.231
35.163
35.093
35.019
34.943
34.865
34.785
34.705
34.624
34.543
34.465
34.388
34.313
34.239
34.166
34.095
34.026
33.96
33.896
33.835
33.776
33.72
33.666
33.616
33.57
33.528
33.489
33.453
33.418
33.384
33.352
33.319
33.286
33.252
33.217
33.181
33.143
33.104
33.066
33.03
32.995
32.964
32.938
32.921
32.915
32.924
32.953
33.006
33.086
33.2
33.351
33.541
33.77
34.038
34.341
34.674
35.031
35.403
35.782
36.159
36.523
36.869
37.188
37.476
37.727
37.94
38.113
38.245
38.339
38.398
38.424
38.423
38.399
38.356
38.3
38.233
38.156
38.071
37.979
37.882
37.781
37.68
37.581
37.487
37.399
37.32
37.251
37.19
37.138
37.095
37.061
37.033
37.012
36.996
36.983
36.972
36.96
36.947
36.932
36.912
36.886
36.853
36.813
36.765
36.71
36.647
36.576
36.5
36.419
36.333
36.244
36.152
36.058
35.964
35.871
35.78
35.692
35.606
35.525
35.45
35.382
35.323
35.273
35.234
35.205
35.184
35.174
35.172
35.178
35.192
35.212
35.235
35.259
35.284
35.307
35.328
35.345
35.359
35.368
35.374
35.376
35.374
35.367
35.354
35.336
35.312
35.282
35.246
35.203
35.153
35.097
35.037
34.972
34.904
34.833
34.759
34.681
34.602
34.52
34.438
34.355
34.272
34.189
34.106
34.023
33.942
33.862
33.784
33.709
33.636
33.566
33.499
33.437
33.378
33.323
33.272
33.224
33.181
33.141
33.105
33.073
33.043
33.014
32.988
32.962
32.937
32.912
32.886
32.86
32.834
32.805
32.776
32.744
32.711
32.678
32.645
32.613
32.584
32.56
32.545
32.545
32.562
32.603
32.675
32.784
32.934
33.128
33.365
33.644
33.959
34.307
34.679
35.067
35.461
35.854
36.236
36.6
36.939
37.247
37.52
37.757
37.957
38.121
38.251
38.349
38.418
38.46
38.479
38.478
38.461
38.431
38.39
38.342
38.287
38.23
38.172
38.114
38.055
37.999
37.946
37.895
37.846
37.798
37.749
37.7
37.649
37.595
37.54
37.482
37.421
37.357
37.292
37.224
37.155
37.087
37.02
36.957
36.897
36.842
36.788
36.733
36.677
36.617
36.552
36.483
36.407
36.326
36.241
36.153
36.063
35.972
35.882
35.795
35.713
35.639
35.572
35.514
35.463
35.419
35.382
35.353
35.33
35.313
35.303
35.299
35.299
35.304
35.313
35.327
35.344
35.364
35.385
35.406
35.425
35.442
35.455
35.463
35.466
35.464
35.457
35.446
35.43
35.408
35.382
35.351
35.316
35.277
35.233
35.182
35.126
35.064
34.997
34.924
34.846
34.764
34.679
34.594
34.508
34.422
34.337
34.255
34.177
34.102
34.029
33.959
33.891
33.826
33.764
33.704
33.645
33.588
33.533
33.482
33.434
33.39
33.351
33.315
33.284
33.256
33.232
33.208
33.185
33.162
33.136
33.106
33.073
33.034
32.99
32.942
32.892
32.841
32.79
32.743
32.702
32.669
32.65
32.646
32.664
32.707
32.78
32.887
33.033
33.22
33.447
33.715
34.02
34.358
34.722
35.105
35.498
35.893
36.28
36.651
36.998
37.315
37.598
37.844
38.05
38.216
38.342
38.431
38.487
38.512
38.513
38.493
38.457
38.407
38.348
38.283
38.214
38.141
38.068
37.994
37.921
37.85
37.781
37.713
37.647
37.584
37.523
37.466
37.411
37.358
37.309
37.263
37.219
37.176
37.135
37.094
37.055
37.015
36.974
36.933
36.889
36.843
36.794
36.742
36.687
36.628
36.567
36.504
36.437
36.368
36.296
36.223
36.147
36.067
35.985
35.903
35.82
35.739
35.659
35.583
35.512
35.449
35.395
35.35
35.314
35.287
35.268
35.256
35.25
35.25
35.254
35.262
35.272
35.284
35.299
35.316
35.332
35.345
35.355
35.361
35.362
35.359
35.351
35.338
35.321
35.299
35.271
35.237
35.198
35.153
35.102
35.045
34.983
34.916
34.845
34.77
34.692
34.613
34.534
34.454
34.375
34.296
34.219
34.142
34.065
33.988
33.911
33.836
33.763
33.693
33.625
33.562
33.502
33.446
33.393
33.344
33.298
33.254
33.213
33.173
33.136
33.099
33.065
33.031
32.999
32.967
32.934
32.902
32.869
32.836
32.804
32.772
32.74
32.708
32.676
32.646
32.621
32.603
32.595
32.604
32.633
32.688
32.774
32.895
33.055
33.254
33.494
33.771
34.081
34.417
34.771
35.135
35.502
35.865
36.214
36.545
36.852
37.129
37.372
37.578
37.746
37.876
37.971
38.033
38.066
38.073
38.06
38.028
37.982
37.926
37.864
37.8
37.735
37.673
37.613
37.556
37.503
37.453
37.406
37.361
37.317
37.275
37.234
37.193
37.154
37.114
37.075
37.036
36.996
36.958
36.92
36.883
36.847
36.811
36.775
36.739
36.703
36.664
36.623
36.579
36.531
36.477
36.416
36.348
36.271
36.187
36.098
36.004
35.906
35.807
35.709
35.614
35.526
35.444
35.371
35.308
35.254
35.209
35.172
35.142
35.12
35.104
35.094
35.09
35.09
35.096
35.106
35.12
35.135
35.152
35.17
35.188
35.204
35.216
35.222
35.221
35.214
35.202
35.185
35.163
35.136
35.105
35.07
35.03
34.984
34.933
34.877
34.816
34.75
34.681
34.608
34.534
34.458
34.381
34.305
34.228
34.153
34.079
34.007
33.935
33.866
33.8
33.738
33.678
33.621
33.564
33.508
33.452
33.397
33.342
33.288
33.233
33.18
33.128
33.077
33.028
32.982
32.94
32.901
32.865
32.829
32.795
32.76
32.725
32.69
32.655
32.621
32.59
32.564
32.55
32.552
32.575
32.624
32.704
32.819
32.973
33.167
33.398
33.664
33.962
34.285
34.628
34.982
35.337
35.688
36.027
36.347
36.645
36.917
37.157
37.365
37.54
37.68
37.788
37.866
37.915
37.939
37.94
37.922
37.888
37.841
37.784
37.72
37.652
37.582
37.512
37.444
37.378
37.315
37.253
37.192
37.132
37.07
37.007
36.943
36.879
36.817
36.755
36.693
36.632
36.572
36.514
36.459
36.408
36.358
36.31
36.261
36.212
36.161
36.107
36.047
35.982
35.913
35.838
35.758
35.672
35.58
35.482
35.381
35.277
35.174
35.072
34.974
34.882
34.796
34.719
34.651
34.595
34.55
34.516
34.492
34.477
34.471
34.473
34.482
34.497
34.518
34.541
34.567
34.594
34.623
34.65
34.675
34.696
34.716
34.732
34.744
34.751
34.753
34.751
34.744
34.733
34.716
34.692
34.66
34.622
34.576
34.523
34.463
34.398
34.328
34.254
34.177
34.098
34.018
33.94
33.863
33.788
33.717
33.649
33.583
33.519
33.455
33.39
33.324
33.257
33.192
33.13
33.071
33.014
32.961
32.912
32.866
32.823
32.784
32.746
32.709
32.672
32.636
32.599
32.56
32.52
32.479
32.438
32.401
32.37
32.352
32.353
32.379
32.435
32.526
32.658
32.833
33.053
33.316
33.617
33.949
34.305
34.676
35.054
35.43
35.797
36.147
36.475
36.775
37.044
37.278
37.478
37.642
37.77
37.865
37.93
37.965
37.976
37.965
37.936
37.892
37.837
37.775
37.707
37.636
37.563
37.49
37.419
37.349
37.279
37.211
37.145
37.08
37.015
36.951
36.889
36.828
36.769
36.712
36.658
36.608
36.56
36.515
36.473
36.431
36.391
36.351
36.309
36.266
36.221
36.173
36.121
36.064
36.001
35.931
35.856
35.775
35.688
35.598
35.506
35.414
35.323
35.234
35.149
35.068
34.993
34.925
34.865
34.812
34.768
34.732
34.705
34.688
34.679
34.68
34.689
34.705
34.727
34.754
34.784
34.816
34.848
34.878
34.906
34.928
34.945
34.955
34.959
34.955
34.946
34.93
34.909
34.883
34.851
34.815
34.773
34.726
34.674
34.617
34.555
34.487
34.414
34.336
34.254
34.169
34.082
33.996
33.91
33.825
33.742
33.66
33.581
33.506
33.433
33.362
33.292
33.224
33.159
33.097
33.039
32.983
32.93
32.878
32.829
32.781
32.735
32.691
32.648
32.608
32.569
32.531
32.494
32.458
32.423
32.39
32.363
32.343
32.333
32.337
32.361
32.409
32.488
32.601
32.754
32.947
33.182
33.457
33.766
34.104
34.463
34.841
35.231
35.628
36.022
36.402
36.759
37.081
37.363
37.6
37.791
37.935
38.037
38.097
38.121
38.113
38.079
38.024
37.954
37.876
37.794
37.714
37.637
37.566
37.502
37.446
37.396
37.353
37.313
37.277
37.244
37.211
37.177
37.142
37.103
37.06
37.015
36.966
36.916
36.865
36.815
36.767
36.72
36.674
36.628
36.582
36.535
36.484
36.428
36.366
36.298
36.223
36.14
36.05
35.955
35.855
35.753
35.65
35.55
35.452
35.359
35.269
35.183
35.102
35.026
34.956
34.89
34.829
34.774
34.726
34.686
34.656
34.634
34.622
34.618
34.622
34.634
34.651
34.671
34.694
34.718
34.741
34.762
34.78
34.795
34.805
34.811
34.814
34.811
34.804
34.792
34.776
34.755
34.728
34.695
34.657
34.612
34.56
34.502
34.437
34.367
34.291
34.212
34.131
34.049
33.969
33.89
33.813
33.738
33.664
33.592
33.523
33.457
33.395
33.337
33.282
33.229
33.179
33.131
33.086
33.044
33.005
32.969
32.936
32.904
32.875
32.847
32.82
32.793
32.764
32.732
32.697
32.658
32.617
32.575
32.533
32.494
32.46
32.433
32.418
32.42
32.442
32.491
32.573
32.692
32.853
33.055
33.297
33.578
33.894
34.238
34.604
34.983
35.367
35.746
36.113
36.461
36.784
37.078
37.338
37.563
37.751
37.903
38.02
38.103
38.154
38.176
38.173
38.15
38.11
38.056
37.994
37.926
37.855
37.782
37.71
37.638
37.57
37.506
37.448
37.394
37.344
37.296
37.249
37.203
37.157
37.112
37.068
37.025
36.983
36.942
36.904
36.869
36.835
36.802
36.769
36.736
36.702
36.665
36.623
36.576
36.523
36.464
36.399
36.329
36.254
36.176
36.095
36.012
35.928
35.843
35.757
35.671
35.585
35.501
35.42
35.343
35.27
35.202
35.14
35.085
35.037
34.999
34.97
34.949
34.937
34.933
34.935
34.941
34.951
34.961
34.972
34.983
34.992
35.0
35.005
35.007
35.007
35.005
35.001
34.996
34.989
34.978
34.963
34.943
34.917
34.886
34.849
34.805
34.754
34.696
34.633
34.564
34.491
34.415
34.338
34.261
34.186
34.115
34.046
33.98
33.916
33.854
33.794
33.735
33.677
33.618
33.558
33.498
33.439
33.38
33.324
33.269
33.216
33.164
33.115
33.067
33.022
32.98
32.94
32.901
32.862
32.824
32.787
32.752
32.719
32.69
32.664
32.644
32.632
32.631
32.644
32.674
32.725
32.803
32.912
33.056
33.235
33.451
33.703
33.988
34.301
34.639
34.993
35.357
35.722
36.081
36.425
36.75
37.049
37.319
37.555
37.757
37.924
38.057
38.157
38.228
38.273
38.297
38.302
38.292
38.271
38.239
38.2
38.156
38.106
38.052
37.996
37.937
37.877
37.817
37.756
37.695
37.634
37.572
37.512
37.452
37.395
37.34
37.289
37.243
37.201
37.162
37.127
37.094
37.063
37.033
37.003
36.973
36.94
36.902
36.859
36.81
36.754
36.692
36.622
36.548
36.469
36.387
36.301
36.212
36.121
36.028
35.934
35.842
35.752
35.667
35.589
35.517
35.454
35.399
35.354
35.319
35.293
35.276
35.266
35.262
35.263
35.267
35.271
35.274
35.276
35.278
35.279
35.28
35.28
35.278
35.275
35.272
35.268
35.263
35.257
35.248
35.235
35.217
35.192
35.159
35.119
35.071
35.015
34.954
34.887
34.818
34.745
34.67
34.592
34.514
34.436
34.358
34.278
34.199
34.119
34.041
33.963
33.885
33.808
33.733
33.659
33.588
33.52
33.455
33.393
33.335
33.28
33.229
33.18
33.134
33.089
33.045
33.002
32.959
32.917
32.874
32.832
32.789
32.747
32.705
32.663
32.622
32.582
32.544
32.508
32.477
32.453
32.439
32.439
32.459
32.503
32.576
32.685
32.835
33.03
33.27
33.555
33.882
34.245
34.634
35.04
35.452
35.862
36.257
36.628
36.969
37.275
37.541
37.767
37.951
38.098
38.207
38.283
38.329
38.35
38.348
38.328
38.293
38.245
38.188
38.123
38.053
37.978
37.903
37.826
37.751
37.677
37.607
37.54
37.476
37.415
37.359
37.306
37.259
37.216
37.179
37.146
37.115
37.085
37.055
37.025
36.993
36.96
36.925
36.888
36.848
36.805
36.76
36.71
36.656
36.598
36.534
36.464
36.386
36.3
36.207
36.107
36.0
35.889
35.778
35.668
35.56
35.458
35.363
35.279
35.206
35.145
35.096
35.058
35.03
35.01
34.998
34.992
34.991
34.995
35.005
35.018
35.034
35.053
35.072
35.093
35.112
35.13
35.145
35.152
35.148
35.129
35.096
35.051
34.996
34.935
34.873
34.812
34.754
34.699
34.648
34.6
34.554
34.51
34.467
34.423
34.378
34.329
34.277
34.219
34.156
34.089
34.02
33.949
33.877
33.805
33.735
33.665
33.597
33.531
33.469
33.411
33.356
33.305
33.257
33.212
33.168
33.125
33.082
33.038
32.993
32.947
32.9
32.852
32.803
32.755
32.708
32.663
32.62
32.579
32.541
32.507
32.476
32.453
32.439
32.439
32.459
32.505
32.583
32.7
32.86
33.065
33.315
33.61
33.943
34.308
34.695
35.096
35.502
35.902
36.288
36.652
36.988
37.291
37.555
37.78
37.963
38.106
38.21
38.277
38.313
38.321
38.305
38.271
38.221
38.16
38.092
38.018
37.941
37.864
37.789
37.718
37.65
37.586
37.528
37.474
37.425
37.381
37.341
37.304
37.27
37.237
37.204
37.17
37.133
37.093
37.052
37.008
36.96
36.911
36.858
36.801
36.74
36.674
36.603
36.526
36.442
36.351
36.253
36.149
36.038
35.923
35.805
35.687
35.568
35.454
35.345
35.241
35.145
35.057
34.98
34.913
34.858
34.814
34.783
34.762
34.751
34.749
34.753
34.763
34.778
34.797
34.82
34.847
34.876
34.908
34.94
34.971
35.001
35.028
35.051
35.071
35.085
35.092
35.091
