Trial 3:3back
35.56
35.536
35.512
35.488
35.464
35.44
35.417
35.393
35.369
35.345
35.321
35.297
35.272
35.246
35.22
35.193
35.166
35.137
35.108
35.078
35.05
35.022
34.996
34.97
34.947
34.923
34.901
34.879
34.858
34.837
34.817
34.796
34.776
34.756
34.737
34.717
34.698
34.679
34.659
34.64
34.622
34.604
34.585
34.567
34.549
34.53
34.51
34.491
34.471
34.452
34.434
34.416
34.399
34.383
34.367
34.353
34.339
34.325
34.311
34.298
34.285
34.273
34.26
34.249
34.237
34.226
34.215
34.204
34.191
34.178
34.163
34.148
34.131
34.114
34.097
34.079
34.061
34.043
34.025
34.005
33.986
33.965
33.945
33.924
33.903
33.882
33.862
33.842
33.825
33.809
33.796
33.786
33.779
33.777
33.781
33.79
33.807
33.832
33.866
33.912
33.969
34.04
34.125
34.226
34.343
34.476
34.625
34.788
34.963
35.148
35.34
35.537
35.737
35.938
36.136
36.331
36.519
36.699
36.869
37.028
37.174
37.307
37.426
37.531
37.623
37.701
37.765
37.818
37.859
37.891
37.913
37.929
37.938
37.943
37.943
37.94
37.934
37.926
37.917
37.906
37.895
37.882
37.869
37.854
37.838
37.82
37.799
37.776
37.751
37.724
37.696
37.666
37.635
37.603
37.57
37.536
37.501
37.464
37.425
37.385
37.342
37.296
37.247
37.196
37.142
37.086
37.028
36.971
36.914
36.859
36.806
36.757
36.713
36.672
36.638
36.609
36.587
36.572
36.564
36.562
36.566
36.576
36.591
36.609
36.631
36.655
36.682
36.709
36.736
36.763
36.79
36.814
36.837
36.856
36.872
36.884
36.893
36.898
36.899
36.898
36.893
36.885
36.875
36.863
36.85
36.836
36.821
36.806
36.79
36.773
36.755
36.736
36.715
36.692
36.669
36.644
36.618
36.592
36.565
36.538
36.509
36.48
36.45
36.419
36.387
36.355
36.321
36.287
36.253
36.217
36.181
36.145
36.107
36.069
36.029
35.989
35.948
35.906
35.864
35.821
35.779
35.737
35.696
35.657
35.619
35.583
35.548
35.515
35.484
35.454
35.426
35.4
35.377
35.355
35.336
35.319
35.304
35.291
35.279
35.267
35.255
35.242
35.228
35.212
35.196
35.178
35.159
35.14
35.12
35.099
35.077
35.056
35.034
35.012
34.99
34.968
34.946
34.925
34.904
34.883
34.863
34.843
34.824
34.805
34.788
34.771
34.754
34.737
34.719
34.701
34.682
34.661
34.64
34.617
34.594
34.569
34.544
34.517
34.489
34.461
34.431
34.401
34.37
34.339
34.309
34.28
34.253
34.228
34.205
34.185
34.168
34.153
34.141
34.13
34.122
34.116
34.113
34.115
34.123
34.138
34.163
34.199
34.249
34.313
34.394
34.492
34.606
34.737
34.884
35.045
35.218
35.403
35.595
35.793
35.996
36.199
36.401
36.6
36.793
36.979
37.155
37.321
37.474
37.615
37.742
37.855
37.955
38.04
38.112
38.172
38.219
38.257
38.285
38.306
38.32
38.329
38.333
38.331
38.326
38.318
38.306
38.292
38.275
38.257
38.236
38.214
38.191
38.167
38.141
38.114
38.086
38.055
38.023
37.989
37.952
37.912
37.87
37.826
37.779
37.73
37.68
37.628
37.574
37.52
37.464
37.408
37.351
37.295
37.24
37.186
37.135
37.085
37.039
36.996
36.958
36.924
36.894
36.869
36.848
36.832
36.82
36.813
36.809
36.809
36.813
36.819
36.829
36.842
36.858
36.877
36.898
36.92
36.944
36.967
36.991
37.013
37.034
37.053
37.069
37.081
37.09
37.094
37.094
37.088
37.078
37.064
37.046
37.024
37.0
36.972
36.942
36.911
36.879
36.847
36.814
36.781
36.747
36.712
36.677
36.641
36.604
36.567
36.528
36.49
36.452
36.414
36.377
36.341
36.306
36.272
36.239
36.206
36.174
36.142
36.11
36.078
36.045
36.011
35.976
35.938
35.899
35.857
35.813
35.767
35.72
35.671
35.621
35.57
35.519
35.467
35.417
35.368
35.321
35.276
35.233
35.191
35.152
35.115
35.081
35.049
35.021
34.995
34.973
34.954
34.937
34.923
34.91
34.898
34.885
34.873
34.861
34.848
34.834
34.82
34.806
34.79
34.773
34.754
34.733
34.711
34.688
34.663
34.638
34.611
34.585
34.558
34.532
34.506
34.481
34.457
34.434
34.412
34.389
34.367
34.343
34.319
34.292
34.262
34.229
34.193
34.151
34.106
34.057
34.004
33.95
33.896
33.843
33.795
33.754
33.721
33.702
33.698
33.713
33.748
33.805
33.885
33.988
34.114
34.26
34.426
34.608
34.803
35.01
35.224
35.441
35.659
35.875
36.085
36.287
36.479
36.66
36.827
36.981
37.119
37.243
37.351
37.446
37.527
37.595
37.653
37.702
37.742
37.775
37.802
37.825
37.844
37.861
37.874
37.886
37.896
37.905
37.913
37.92
37.926
37.931
37.934
37.935
37.932
37.927
37.918
37.905
37.889
37.869
37.846
37.818
37.787
37.751
37.711
37.666
37.616
37.562
37.503
37.441
37.376
37.308
37.24
37.171
37.103
37.037
36.973
36.912
36.855
36.803
36.756
36.716
36.682
36.655
36.634
36.621
36.614
36.614
36.62
36.63
36.646
36.665
36.687
36.711
36.737
36.764
36.791
36.818
36.844
36.867
36.888
36.905
36.919
36.928
36.933
36.933
36.929
36.92
36.907
36.889
36.867
36.841
36.812
36.78
36.744
36.706
36.666
36.624
36.58
36.535
36.489
36.442
36.395
36.348
36.3
36.253
36.206
36.158
36.11
36.061
36.012
35.962
35.911
35.861
35.809
35.758
35.706
35.654
35.603
35.552
35.502
35.453
35.405
35.358
35.312
35.268
35.225
35.185
35.147
35.112
35.08
35.05
35.023
34.999
34.976
34.955
34.935
34.916
34.897
34.879
34.861
34.844
34.827
34.811
34.795
34.78
34.766
34.752
34.738
34.724
34.71
34.696
34.681
34.668
34.654
34.642
34.63
34.618
34.606
34.593
34.58
34.565
34.549
34.531
34.512
34.491
34.468
34.444
34.417
34.389
34.359
34.33
34.299
34.269
34.239
34.209
34.179
34.148
34.117
34.086
34.054
34.023
33.992
33.962
33.932
33.904
33.878
33.854
33.832
33.811
33.791
33.773
33.756
33.739
33.724
33.71
33.7
33.693
33.692
33.699
33.715
33.743
33.785
33.843
33.919
34.014
34.127
34.26
34.412
34.58
34.764
34.961
35.17
35.387
35.61
35.836
36.062
36.285
36.503
36.711
36.91
37.095
37.267
37.423
37.564
37.688
37.796
37.888
37.964
38.026
38.073
38.107
38.13
38.142
38.146
38.141
38.131
38.117
38.099
38.08
38.06
38.039
38.018
37.996
37.974
37.951
37.927
37.902
37.875
37.846
37.814
37.78
37.744
37.705
37.665
37.623
37.58
37.536
37.491
37.446
37.398
37.349
37.296
37.242
37.185
37.126
37.066
37.006
36.946
36.886
36.828
36.771
36.717
36.666
36.618
36.574
36.534
36.5
36.472
36.449
36.432
36.421
36.415
36.414
36.418
36.426
36.437
36.452
36.47
36.49
36.513
36.538
36.564
36.592
36.62
36.647
36.673
36.697
36.718
36.736
36.749
36.758
36.762
36.761
36.755
36.744
36.729
36.71
36.687
36.66
36.63
36.598
36.564
36.528
36.491
36.452
36.414
36.375
36.336
36.297
36.259
36.221
36.183
36.146
36.109
36.073
36.037
36.003
35.97
35.938
35.907
35.877
35.848
35.818
35.789
35.758
35.727
35.695
35.663
35.63
35.596
35.562
35.528
35.492
35.456
35.42
35.382
35.344
35.305
35.267
35.229
35.193
35.16
35.13
35.102
35.079
35.058
35.041
35.027
35.014
35.002
34.991
34.98
34.97
34.959
34.948
34.936
34.924
34.911
34.898
34.884
34.869
34.854
34.838
34.822
34.804
34.785
34.764
34.742
34.718
34.693
34.668
34.641
34.615
34.589
34.564
34.54
34.517
34.496
34.475
34.455
34.436
34.417
34.398
34.379
34.358
34.337
34.315
34.291
34.266
34.238
34.209
34.179
34.148
34.117
34.086
34.055
34.025
33.997
33.97
33.945
33.922
33.903
33.888
33.879
33.876
33.88
33.892
33.915
33.949
33.995
34.056
34.133
34.225
34.335
34.463
34.608
34.769
34.946
35.136
35.337
35.548
35.765
35.986
36.208
36.429
36.646
36.857
37.059
37.251
37.431
37.597
37.748
37.882
38.0
38.101
38.186
38.256
38.311
38.353
38.383
38.403
38.414
38.417
38.413
38.404
38.39
38.373
38.353
38.332
38.31
38.287
38.264
38.241
38.218
38.194
38.17
38.145
38.119
38.092
38.063
38.033
38.0
37.965
37.928
37.887
37.843
37.796
37.746
37.692
37.636
37.577
37.515
37.451
37.385
37.317
37.249
37.182
37.117
37.054
36.996
36.942
36.894
36.851
36.816
36.788
36.766
36.752
36.744
36.743
36.748
36.757
36.772
36.79
36.811
36.834
36.858
36.882
36.906
36.929
36.951
36.972
36.99
37.005
37.018
37.028
37.034
37.037
37.036
37.033
37.026
37.017
37.006
36.993
36.978
36.962
36.943
36.922
36.899
36.874
36.847
36.819
36.79
36.76
36.729
36.697
36.664
36.631
36.596
36.561
36.524
36.486
36.446
36.404
36.361
36.317
36.271
36.225
36.178
36.13
36.083
36.037
35.991
35.946
35.902
35.859
35.817
35.775
35.735
35.696
35.658
35.622
35.586
35.551
35.517
35.484
35.452
35.42
35.39
35.36
35.33
35.301
35.273
35.245
35.216
35.188
35.16
35.131
35.102
35.074
35.046
35.019
34.993
34.968
34.946
34.926
34.908
34.893
34.88
34.868
34.858
34.849
34.84
34.831
34.821
34.812
34.802
34.792
34.782
34.772
34.762
34.752
34.741
34.731
34.719
34.707
34.693
34.679
34.663
34.646
34.627
34.607
34.586
34.563
34.538
34.511
34.483
34.454
34.423
34.392
34.36
34.329
34.298
34.269
34.242
34.217
34.196
34.179
34.168
34.163
34.165
34.175
34.194
34.224
34.267
34.323
34.394
34.481
34.583
34.702
34.837
34.985
35.147
35.321
35.503
35.693
35.887
36.084
36.281
36.476
36.668
36.854
37.033
37.202
37.361
37.508
37.642
37.762
37.869
37.961
38.04
38.105
38.158
38.198
38.227
38.246
38.255
38.257
38.252
38.241
38.227
38.208
38.186
38.162
38.135
38.107
38.077
38.047
38.016
37.984
37.95
37.915
37.877
37.839
37.798
37.756
37.712
37.668
37.622
37.575
37.526
37.476
37.425
37.371
37.315
37.258
37.198
37.136
37.073
37.009
36.946
36.884
36.825
36.77
36.719
36.673
36.632
36.597
36.568
36.545
36.529
36.519
36.516
36.519
36.527
36.54
36.557
36.577
36.6
36.623
36.647
36.671
36.694
36.715
36.734
36.752
36.766
36.778
36.787
36.793
36.797
36.797
36.795
36.791
36.785
36.778
36.769
36.758
36.746
36.733
36.719
36.703
36.686
36.666
36.643
36.618
36.59
36.56
36.527
36.493
36.456
36.417
36.376
36.332
36.287
36.24
36.192
36.144
36.097
36.05
36.004
35.96
35.917
35.877
35.838
35.8
35.763
35.725
35.687
35.648
35.607
35.565
35.522
35.478
35.432
35.386
35.339
35.293
35.246
35.201
35.156
35.111
35.068
35.026
34.986
34.947
34.91
34.875
34.841
34.809
34.779
34.752
34.726
34.703
34.681
34.661
34.641
34.623
34.604
34.586
34.568
34.549
34.531
34.513
34.495
34.476
34.458
34.439
34.42
34.4
34.38
34.361
34.341
34.323
34.307
34.291
34.278
34.266
34.256
34.247
34.239
34.231
34.222
34.213
34.202
34.187
34.17
34.15
34.126
34.1
34.072
34.042
34.01
33.979
33.947
33.917
33.889
33.864
33.843
33.828
33.821
33.823
33.836
33.863
33.906
33.967
34.047
34.146
34.266
34.405
34.564
34.74
34.933
35.14
35.358
35.585
35.819
36.055
36.291
36.523
36.75
36.968
37.175
37.371
37.552
37.718
37.869
38.004
38.123
38.227
38.315
38.389
38.45
38.497
38.531
38.555
38.568
38.572
38.567
38.556
38.539
38.516
38.489
38.459
38.426
38.39
38.352
38.312
38.271
38.228
38.183
38.137
38.089
38.039
37.988
37.936
37.883
37.83
37.777
37.724
37.671
37.617
37.562
37.506
37.449
37.39
37.329
37.266
37.203
37.139
37.075
37.011
36.95
36.892
36.838
36.788
36.744
36.706
36.675
36.649
36.63
36.617
36.61
36.607
36.61
36.617
36.627
36.64
36.655
36.671
36.689
36.708
36.728
36.749
36.77
36.791
36.812
36.831
36.848
36.862
36.873
36.88
36.883
36.883
36.879
36.872
36.861
36.846
36.828
36.805
36.779
36.75
36.718
36.683
36.646
36.607
36.566
36.524
36.481
36.436
36.391
36.345
36.3
36.255
36.211
36.167
36.125
36.084
36.044
36.005
35.967
35.931
35.895
35.86
35.825
35.79
35.754
35.718
35.681
35.644
35.606
35.569
35.532
35.494
35.457
35.42
35.383
35.345
35.307
35.269
35.231
35.194
35.158
35.124
35.093
35.063
35.035
35.009
34.985
34.961
34.938
34.916
34.895
34.874
34.854
34.834
34.815
34.797
34.78
34.762
34.745
34.727
34.708
34.689
34.67
34.65
34.63
34.609
34.588
34.567
34.545
34.524
34.503
34.483
34.462
34.442
34.422
34.402
34.381
34.36
34.337
34.314
34.29
34.266
34.241
34.217
34.192
34.167
34.142
34.117
34.091
34.064
34.035
34.005
33.973
33.94
33.905
33.869
33.833
33.797
33.762
33.728
33.695
33.665
33.639
33.617
33.6
33.589
33.586
33.592
33.608
33.635
33.676
33.733
33.806
33.898
34.009
34.139
34.289
34.456
34.64
34.837
35.047
35.266
35.492
35.723
35.956
36.187
36.414
36.635
36.846
37.047
37.235
37.41
37.571
37.716
37.846
37.96
38.058
38.14
38.206
38.258
38.297
38.323
38.339
38.345
38.344
38.336
38.322
38.304
38.283
38.258
38.23
38.201
38.17
38.137
38.102
38.066
38.028
37.989
37.948
37.906
37.864
37.82
37.776
37.732
37.687
37.642
37.597
37.551
37.504
37.456
37.406
37.354
37.3
37.242
37.182
37.119
37.054
36.987
36.92
36.853
36.788
36.725
36.665
36.61
36.56
36.517
36.48
36.451
36.428
36.414
36.406
36.404
36.408
36.416
36.429
36.445
36.464
36.486
36.509
36.533
36.556
36.579
36.599
36.617
36.631
36.641
36.647
36.648
36.645
36.637
36.626
36.611
36.593
36.573
36.55
36.524
36.497
36.467
36.435
36.4
36.363
36.324
36.284
36.243
36.202
36.16
36.118
36.076
36.035
35.993
35.951
35.909
35.867
35.825
35.784
35.744
35.705
35.666
35.628
35.59
35.551
35.513
35.473
35.433
35.392
35.35
35.307
35.264
35.219
35.174
35.128
35.082
35.037
34.991
34.946
34.901
34.859
34.817
34.778
34.739
34.703
34.669
34.636
34.606
34.578
34.551
34.526
34.502
34.479
34.457
34.435
34.414
34.393
34.372
34.351
34.33
34.309
34.289
34.268
34.248
34.228
34.209
34.19
34.171
34.153
34.134
34.115
34.095
34.074
34.053
34.031
34.007
33.984
33.959
33.933
33.906
33.878
33.849
33.818
33.785
33.752
33.718
33.684
33.651
33.618
33.586
33.556
33.528
33.501
33.477
33.456
33.437
33.421
33.409
33.401
33.398
33.401
33.411
33.429
33.458
33.498
33.551
33.62
33.703
33.803
33.917
34.048
34.192
34.349
34.517
34.693
34.876
35.062
35.25
35.437
35.621
35.801
35.973
36.136
36.29
36.432
36.561
36.678
36.78
36.869
36.944
37.006
37.054
37.091
37.117
37.134
37.141
37.142
37.135
37.122
37.104
37.082
37.055
37.026
36.994
36.96
36.924
36.887
36.849
36.81
36.771
36.731
36.689
36.645
36.6
36.552
36.503
36.453
36.402
36.349
36.296
36.242
36.187
36.131
36.073
36.013
35.951
35.887
35.822
35.755
35.687
35.62
35.555
35.492
35.432
35.376
35.326
35.281
35.242
35.208
35.181
35.16
35.145
35.136
35.134
35.136
35.143
35.153
35.165
35.179
35.194
35.208
35.223
35.237
35.25
35.262
35.273
35.282
35.29
35.296
35.3
35.303
35.304
35.302
35.297
35.291
35.282
35.271
35.258
35.242
35.224
35.203
35.18
35.154
35.124
35.091
35.056
35.019
34.981
34.941
34.9
34.858
34.817
34.776
34.735
34.696
34.658
34.621
34.585
34.551
34.517
34.484
34.452
34.421
34.391
34.361
34.332
34.305
34.279
34.255
34.231
34.208
34.185
34.161
34.136
34.11
34.083
34.055
34.026
33.997
33.967
33.936
33.906
33.874
33.843
33.811
33.778
33.744
33.71
33.676
33.641
33.607
33.572
33.538
33.505
33.473
33.441
33.412
33.383
33.357
33.332
33.308
33.286
33.264
33.242
33.22
33.198
33.176
33.154
33.132
33.11
33.087
33.064
33.041
33.016
32.991
32.963
32.934
32.904
32.873
32.84
32.806
32.771
32.735
32.699
32.661
32.624
32.587
32.55
32.513
32.477
32.442
32.408
32.375
32.345
32.316
32.29
32.267
32.247
32.232
32.22
32.213
32.212
32.218
32.23
32.251
32.282
32.324
32.377
32.444
32.523
32.616
32.723
32.843
32.975
33.119
33.273
33.436
33.606
33.781
33.959
34.138
34.317
34.494
34.667
34.834
34.992
35.142
35.282
35.411
35.529
35.635
35.729
35.811
35.882
35.943
35.993
36.034
36.067
36.092
36.11
36.122
36.129
36.131
36.131
36.127
36.122
36.114
36.105
36.094
36.082
36.069
36.053
36.037
36.018
35.998
35.977
35.953
35.927
35.899
35.868
35.835
35.799
35.761
35.72
35.675
35.628
35.577
35.523
35.467
35.407
35.345
35.281
35.214
35.146
35.075
35.003
34.931
34.858
34.787
34.719
34.654
34.593
34.538
34.489
34.446
34.41
34.381
34.359
34.344
34.337
34.336
34.341
34.351
34.366
34.385
34.408
34.434
34.463
34.493
34.524
34.555
34.584
34.612
34.636
34.657
34.674
34.686
34.694
34.697
34.696
34.691
34.683
34.673
34.659
34.644
34.626
34.606
34.585
34.562
34.538
34.512
34.486
34.459
34.431
34.402
34.372
34.341
34.31
34.277
34.244
34.21
34.175
34.141
34.106
34.072
34.039
34.006
33.974
33.942
33.911
33.88
33.849
33.819
33.788
33.756
33.724
33.691
33.656
33.621
33.586
33.551
33.516
33.483
33.45
33.42
33.39
33.362
33.335
33.309
33.284
33.26
33.238
33.216
33.196
33.176
33.158
33.141
33.124
33.108
33.093
33.078
33.064
33.051
33.038
33.026
33.014
33.002
32.99
32.978
32.967
32.955
32.944
32.934
32.924
32.915
32.907
32.9
32.894
32.889
32.883
32.877
32.87
32.863
32.854
32.846
32.838
32.83
32.822
32.815
32.808
32.802
32.796
32.79
32.783
32.775
32.766
32.756
32.745
32.733
32.72
32.706
32.691
32.676
32.66
32.644
32.627
32.611
32.595
32.578
32.562
32.546
32.531
32.517
32.503
32.492
32.484
32.479
32.48
32.488
32.505
32.532
32.569
32.619
32.682
32.759
32.85
32.955
33.073
33.206
33.35
33.506
33.67
33.842
34.019
34.199
34.381
34.561
34.737
34.908
35.07
35.222
35.363
35.491
35.606
35.708
35.796
35.871
35.934
35.984
36.023
36.052
36.072
36.084
36.09
36.09
36.087
36.08
36.071
36.061
36.049
36.037
36.025
36.013
36.001
35.989
35.977
35.965
35.953
35.939
35.925
35.91
35.894
35.877
35.858
35.837
35.812
35.785
35.756
35.724
35.69
35.653
35.615
35.575
35.533
35.489
35.445
35.401
35.356
35.312
35.269
35.227
35.187
35.15
35.116
35.086
35.059
35.038
35.021
35.01
35.003
35.001
35.002
35.007
35.014
35.022
35.032
35.043
35.056
35.07
35.085
35.101
35.119
35.138
35.157
35.176
35.194
35.211
35.226
35.239
35.249
35.257
35.261
35.263
35.262
35.258
35.251
35.241
35.228
35.213
35.194
35.173
35.149
35.122
35.093
35.061
35.028
34.993
34.957
34.921
34.884
34.847
34.811
34.775
34.739
34.704
34.671
34.639
34.61
34.583
34.558
34.536
34.516
34.497
34.48
34.463
34.446
34.429
34.411
34.392
34.372
34.351
34.328
34.303
34.277
34.25
34.221
34.191
34.161
34.13
34.1
34.07
34.042
34.015
33.989
33.966
33.944
33.924
33.905
33.888
33.872
33.857
33.843
33.829
33.815
33.8
33.786
33.772
33.758
33.744
33.732
33.72
33.709
33.699
33.69
33.681
33.672
33.663
33.653
33.642
33.631
33.618
33.603
33.589
33.574
33.56
33.545
33.53
33.515
33.501
33.486
33.472
33.458
33.445
33.43
33.415
33.399
33.382
33.364
33.345
33.325
33.304
33.282
33.261
33.239
33.218
33.196
33.174
33.152
33.13
33.108
33.086
33.064
33.042
33.022
33.002
32.983
32.967
32.953
32.942
32.935
32.932
32.936
32.946
32.963
32.99
33.027
33.076
33.137
33.212
33.302
33.405
33.522
33.652
33.793
33.944
34.103
34.267
34.435
34.604
34.771
34.935
35.094
35.247
35.392
35.53
35.657
35.775
35.882
35.979
36.064
36.139
36.204
36.258
36.302
36.338
36.366
36.386
36.4
36.408
36.411
36.411
36.406
36.399
36.39
36.379
36.367
36.355
36.342
36.329
36.315
36.301
36.285
36.267
36.248
36.227
36.204
36.179
36.151
36.122
36.089
36.053
36.014
35.972
35.927
35.88
35.832
35.782
35.73
35.678
35.626
35.573
35.522
35.472
35.424
35.379
35.338
35.301
35.269
35.242
35.219
35.202
35.188
35.179
35.174
35.172
35.173
35.177
35.184
35.192
