Trial 3:3back
31.931
31.893
31.855
31.819
31.783
31.748
31.714
31.679
31.645
31.611
31.58
31.551
31.528
31.511
31.505
31.512
31.537
31.584
31.657
31.76
31.897
32.07
32.281
32.531
32.82
33.146
33.506
33.899
34.318
34.759
35.216
35.682
36.15
36.616
37.072
37.513
37.934
38.332
38.702
39.043
39.35
39.624
39.863
40.066
40.233
40.366
40.464
40.529
40.563
40.569
40.548
40.503
40.438
40.355
40.257
40.145
40.023
39.892
39.754
39.611
39.464
39.313
39.16
39.006
38.851
38.696
38.542
38.39
38.24
38.093
37.949
37.809
37.671
37.537
37.406
37.277
37.15
37.025
36.901
36.78
36.659
36.54
36.421
36.304
36.189
36.077
35.968
35.864
35.764
35.671
35.585
35.505
35.433
35.368
35.312
35.263
35.223
35.191
35.167
35.151
35.141
35.137
35.138
35.143
35.152
35.163
35.177
35.192
35.208
35.224
35.239
35.254
35.267
35.277
35.286
35.291
35.293
35.291
35.285
35.275
35.261
35.241
35.218
35.189
35.157
35.12
35.079
35.034
34.985
34.933
34.878
34.82
34.76
34.697
34.633
34.567
34.5
34.432
34.363
34.293
34.222
34.15
34.077
34.005
33.933
33.861
33.791
33.721
33.653
33.586
33.519
33.453
33.387
33.321
33.255
33.189
33.123
33.058
32.994
32.931
32.87
32.81
32.753
32.697
32.644
32.592
32.542
32.493
32.445
32.397
32.35
32.303
32.257
32.211
32.165
32.12
32.075
32.03
31.986
31.941
31.897
31.853
31.809
31.767
31.727
31.69
31.657
31.63
31.613
31.607
31.616
31.645
31.696
31.775
31.885
32.029
32.209
32.425
32.679
32.97
33.293
33.648
34.027
34.427
34.842
35.265
35.69
36.111
36.524
36.922
37.301
37.658
37.989
38.292
38.564
38.804
39.01
39.183
39.324
39.432
39.509
39.558
39.58
39.576
39.551
39.505
39.44
39.36
39.266
39.161
39.045
38.922
38.792
38.657
38.518
38.377
38.233
38.089
37.944
37.799
37.654
37.51
37.367
37.225
37.086
36.948
36.812
36.677
36.543
36.409
36.276
36.142
36.008
35.874
35.741
35.609
35.478
35.35
35.226
35.106
34.991
34.883
34.783
34.691
34.608
34.535
34.472
34.419
34.376
34.342
34.316
34.299
34.288
34.283
34.282
34.285
34.292
34.302
34.314
34.328
34.344
34.362
34.38
34.399
34.417
34.433
34.447
34.459
34.467
34.472
34.473
34.471
34.465
34.455
34.441
34.424
34.401
34.375
34.344
34.309
34.269
34.226
34.18
34.13
34.076
34.021
33.962
33.902
33.839
33.774
33.707
33.639
33.571
33.503
33.436
33.368
33.301
33.234
33.167
33.1
33.033
32.967
32.901
32.835
32.77
32.706
32.642
32.579
32.517
32.456
32.396
32.337
32.28
32.226
32.172
32.121
32.071
32.022
31.973
31.925
31.876
31.827
31.778
31.729
31.68
31.631
31.582
31.534
31.486
31.438
31.392
31.346
31.302
31.26
31.22
31.183
31.15
31.123
31.105
31.099
31.109
31.139
31.192
31.273
31.384
31.529
31.71
31.927
32.181
32.471
32.793
33.144
33.521
33.919
34.331
34.754
35.181
35.607
36.026
36.434
36.826
37.197
37.544
37.863
38.154
38.413
38.64
38.835
38.998
39.129
39.231
39.304
39.351
39.374
39.375
39.356
39.318
39.263
39.194
39.112
39.02
38.918
38.809
38.694
38.575
38.451
38.325
38.196
38.067
37.936
37.807
37.678
37.55
37.424
37.3
37.178
37.057
36.938
36.821
36.705
36.59
36.476
36.362
36.248
36.135
36.021
35.908
35.796
35.684
35.573
35.465
35.359
35.257
35.159
35.067
34.98
34.901
34.828
34.763
34.706
34.657
34.615
34.581
34.554
34.532
34.517
34.506
34.5
34.498
34.5
34.506
34.513
34.522
34.532
34.542
34.551
34.559
34.564
34.567
34.566
34.563
34.556
34.546
34.533
34.516
34.496
34.472
34.444
34.413
34.379
34.341
34.3
34.256
34.209
34.161
34.11
34.057
34.002
33.946
33.888
33.829
33.77
33.709
33.648
33.588
33.527
33.466
33.406
33.346
33.286
33.225
33.165
33.103
33.041
32.979
32.917
32.856
32.797
32.738
32.681
32.625
32.57
32.516
32.463
32.411
32.36
32.309
32.259
32.209
32.159
32.109
32.059
32.01
31.961
31.912
31.865
31.819
31.774
31.73
31.687
31.645
31.603
31.562
31.521
31.481
31.441
31.402
31.364
31.328
31.296
31.269
31.25
31.242
31.248
31.273
31.32
31.393
31.495
31.628
31.796
31.998
32.234
32.503
32.803
33.13
33.481
33.85
34.234
34.626
35.022
35.417
35.806
36.184
36.547
36.892
37.215
37.514
37.786
38.029
38.244
38.428
38.581
38.704
38.799
38.867
38.909
38.928
38.926
38.905
38.866
38.813
38.746
38.668
38.58
38.484
38.381
38.273
38.162
38.048
37.933
37.818
37.703
37.589
37.476
37.365
37.255
37.148
37.041
36.937
36.834
36.732
36.631
36.53
36.43
36.331
36.231
36.131
36.03
35.929
35.827
35.725
35.624
35.524
35.426
35.331
35.24
35.153
35.069
34.991
34.918
34.851
34.79
34.735
34.686
34.645
34.609
34.579
34.555
34.536
34.521
34.51
34.504
34.501
34.501
34.504
34.509
34.515
34.521
34.526
34.531
34.533
34.534
34.533
34.529
34.522
34.512
34.498
34.482
34.462
34.438
34.411
34.381
34.347
34.311
34.272
34.231
34.188
34.143
34.097
34.049
34.0
33.949
33.897
33.843
33.787
33.731
33.674
33.617
33.559
33.501
33.443
33.386
33.328
33.271
33.214
33.156
33.099
33.042
32.985
32.928
32.872
32.815
32.758
32.702
32.646
32.592
32.538
32.485
32.434
32.383
32.333
32.285
32.237
32.192
32.148
32.107
32.066
32.027
31.989
31.952
31.917
31.882
31.848
31.815
31.782
31.749
31.715
31.681
31.647
31.613
31.579
31.544
31.51
31.477
31.444
31.412
31.382
31.352
31.326
31.303
31.286
31.279
31.283
31.302
31.34
31.4
31.485
31.599
31.744
31.92
32.129
32.371
32.643
32.942
33.267
33.611
33.971
34.341
34.716
35.09
35.46
35.82
36.167
36.497
36.807
37.095
37.358
37.595
37.806
37.989
38.145
38.275
38.379
38.458
38.514
38.548
38.561
38.556
38.533
38.496
38.446
38.384
38.312
38.231
38.144
38.051
37.954
37.853
37.75
37.644
37.537
37.428
37.319
37.21
37.102
36.994
36.887
36.782
36.678
36.575
36.475
36.375
36.277
36.179
36.082
35.984
35.886
35.788
35.69
35.593
35.497
35.401
35.308
35.216
35.128
35.044
34.964
34.89
34.821
34.759
34.703
34.654
34.612
34.576
34.546
34.522
34.503
34.488
34.477
34.47
34.465
34.462
34.463
34.465
34.47
34.478
34.486
34.497
34.508
34.52
34.532
34.543
34.551
34.557
34.561
34.561
34.557
34.551
34.541
34.527
34.511
34.492
34.469
34.444
34.416
34.384
34.35
34.313
34.273
34.23
34.186
34.139
34.091
34.041
33.991
33.939
33.886
33.833
33.779
33.726
33.672
33.618
33.564
33.51
33.456
33.402
33.348
33.293
33.239
33.185
33.133
33.082
33.032
32.984
32.937
32.891
32.847
32.804
32.762
32.721
32.68
32.639
32.599
32.558
32.517
32.476
32.434
32.393
32.352
32.31
32.269
32.228
32.186
32.146
32.106
32.067
32.03
31.994
31.959
31.926
31.895
31.867
31.843
31.824
31.813
31.812
31.825
31.854
31.902
31.974
32.071
32.196
32.35
32.534
32.747
32.989
33.256
33.545
33.854
34.177
34.51
34.848
35.187
35.521
35.847
36.161
36.46
36.742
37.004
37.246
37.465
37.661
37.833
37.982
38.106
38.206
38.283
38.338
38.372
38.386
38.382
38.361
38.326
38.277
38.217
38.148
38.07
37.985
37.895
37.801
37.703
37.602
37.499
37.395
37.29
37.185
37.08
36.976
36.873
36.77
36.668
36.567
36.466
36.367
36.268
36.169
36.07
35.973
35.876
35.779
35.684
35.59
35.497
35.405
35.316
35.228
35.144
35.063
34.986
34.915
34.848
34.788
34.735
34.689
34.651
34.623
34.603
34.592
34.589
34.594
34.605
34.622
34.643
34.668
34.695
34.723
34.752
34.781
34.809
34.836
34.86
34.88
34.897
34.909
34.917
34.92
34.919
34.913
34.903
34.89
34.874
34.853
34.829
34.802
34.772
34.738
34.702
34.663
34.621
34.578
34.532
34.484
34.434
34.383
34.33
34.276
34.221
34.165
34.109
34.053
33.997
33.941
33.885
33.829
33.774
33.72
33.668
33.617
33.568
33.519
33.471
33.423
33.374
33.326
33.277
33.229
33.181
33.132
33.084
33.035
32.987
32.938
32.889
32.841
32.792
32.743
32.694
32.645
32.597
32.551
32.506
32.463
32.423
32.385
32.349
32.316
32.284
32.255
32.229
32.206
32.188
32.177
32.175
32.186
32.213
32.259
32.328
32.423
32.545
32.697
32.879
33.091
33.331
33.598
33.887
34.195
34.518
34.851
35.189
35.528
35.864
36.191
36.507
36.808
37.091
37.354
37.595
37.813
38.008
38.179
38.325
38.448
38.547
38.624
38.68
38.715
38.732
38.731
38.713
38.68
38.634
38.577
38.508
38.431
38.347
38.257
38.163
38.065
37.965
37.863
37.76
37.656
37.553
37.449
37.346
37.244
37.142
37.041
36.94
36.839
36.739
36.639
36.54
36.44
36.341
36.242
36.145
36.048
35.953
35.86
35.768
35.679
35.593
35.51
35.431
35.357
35.288
35.224
35.167
35.115
35.069
35.028
34.994
34.964
34.94
34.922
34.909
34.901
34.897
34.897
34.901
34.907
34.915
34.925
34.935
34.946
34.956
34.965
34.972
34.977
34.98
34.98
34.978
34.972
34.965
34.954
34.941
34.926
34.908
34.887
34.864
34.838
34.809
34.777
34.742
34.703
34.662
34.617
34.57
34.521
34.471
34.42
34.368
34.315
34.262
34.208
34.154
34.1
34.045
33.991
33.936
33.881
33.826
33.772
33.719
33.666
33.615
33.564
33.516
33.469
33.423
33.378
33.333
33.289
33.244
33.2
33.156
33.113
33.07
33.028
32.988
32.947
32.908
32.868
32.829
32.789
32.749
32.709
32.669
32.629
32.59
32.551
32.513
32.475
32.439
32.403
32.369
32.336
32.306
32.28
32.26
32.248
32.247
32.26
32.291
32.343
32.419
32.523
32.657
32.822
33.019
33.246
33.502
33.786
34.093
34.421
34.765
35.121
35.484
35.849
36.211
36.567
36.911
37.241
37.553
37.845
38.116
38.363
38.585
38.783
38.956
39.104
39.229
39.33
39.407
39.463
39.499
39.514
39.512
39.492
39.457
39.409
39.348
39.278
39.2
39.115
39.025
38.932
38.835
38.736
38.636
38.536
38.436
38.336
38.237
38.14
38.044
37.949
37.857
37.766
37.676
37.588
37.5
37.412
37.324
37.236
37.147
37.059
36.97
36.881
36.792
36.705
36.618
36.533
36.45
36.37
36.293
36.219
36.149
36.084
36.024
35.969
35.919
35.874
35.835
35.801
35.772
35.748
35.729
35.713
35.702
35.694
35.69
35.687
35.687
35.688
35.689
35.69
35.691
35.69
35.688
35.684
35.679
35.671
35.661
35.648
35.633
35.615
35.594
35.57
35.544
35.515
35.483
35.449
35.412
35.373
35.332
35.289
35.243
35.194
35.144
35.091
35.037
34.981
34.923
34.864
34.804
34.742
34.68
34.618
34.555
34.493
34.432
34.372
34.313
34.255
34.198
34.141
34.086
34.03
33.975
33.921
33.867
33.813
33.761
33.708
33.657
33.606
33.555
33.505
33.456
33.408
33.361
33.315
33.27
33.226
33.182
33.139
33.097
33.056
33.015
32.975
32.936
32.896
32.857
32.818
32.779
32.742
32.705
32.671
32.639
32.612
32.591
32.579
32.581
32.598
32.635
32.696
32.783
32.899
33.045
33.223
33.432
33.671
33.938
34.231
34.545
34.877
35.223
35.578
35.936
36.293
36.645
36.988
37.318
37.631
37.925
38.198
38.447
38.672
38.87
39.043
39.189
39.309
39.405
39.476
39.524
39.552
39.559
39.549
39.524
39.484
39.432
39.369
39.297
39.218
39.133
39.042
38.947
38.849
38.748
38.645
38.541
38.436
38.332
38.228
38.124
38.022
37.921
37.822
37.724
37.627
37.531
37.435
37.34
37.245
37.15
37.055
36.961
36.866
36.771
36.677
36.583
36.491
36.401
36.313
36.227
36.146
36.069
35.997
35.93
35.87
35.816
35.768
35.727
35.692
35.663
35.64
35.622
35.608
35.598
35.591
35.586
35.583
35.582
35.581
35.581
35.582
35.583
35.583
35.582
35.581
35.577
35.571
35.564
35.554
35.543
35.53
35.515
35.497
35.477
35.454
35.428
35.398
35.366
35.329
35.29
35.248
35.203
35.155
35.105
35.053
34.999
34.944
34.887
34.829
34.77
34.71
34.649
34.588
34.526
34.465
34.403
34.342
34.281
34.221
34.161
34.102
34.045
33.989
33.934
33.881
33.829
33.778
33.728
33.679
33.631
33.583
33.536
33.489
33.441
33.393
33.345
33.296
33.246
33.197
33.148
33.1
33.052
33.007
32.962
32.919
32.878
32.838
32.799
32.762
32.727
32.694
32.661
32.63
32.599
32.567
32.536
32.505
32.474
32.445
32.417
32.393
32.373
32.36
32.355
32.361
32.382
32.421
32.481
32.566
32.676
32.816
32.986
33.186
33.416
33.675
33.959
34.266
34.592
34.932
35.283
35.638
35.994
36.344
36.686
37.014
37.326
37.617
37.887
38.132
38.352
38.545
38.711
38.851
38.965
39.054
39.118
39.16
39.181
39.181
39.163
39.129
39.08
39.018
38.944
38.861
38.769
38.669
38.565
38.455
38.343
38.228
38.111
37.993
37.875
37.757
37.64
37.526
37.414
37.305
37.198
37.093
36.99
36.889
36.789
36.689
36.59
36.492
36.395
36.298
36.204
36.11
36.019
35.93
35.844
35.762
35.683
35.608
35.539
35.475
35.417
35.365
35.32
35.282
35.25
35.224
35.204
35.19
35.182
35.178
35.179
35.184
35.193
35.205
35.218
35.234
35.25
35.267
35.283
35.3
35.315
35.328
35.34
35.349
35.355
35.357
35.356
35.35
35.339
35.324
35.305
35.281
35.254
35.222
35.187
35.149
35.109
35.065
35.02
34.972
34.923
34.873
34.822
34.77
34.717
34.664
34.609
34.554
34.497
34.439
34.38
34.321
34.262
34.203
34.144
34.086
34.029
33.973
33.918
33.865
33.812
33.76
33.709
33.658
33.607
33.556
33.506
33.456
33.407
33.359
33.312
33.266
33.221
33.176
33.133
33.09
33.048
33.005
32.962
32.92
32.878
32.837
32.796
32.757
32.718
32.681
32.645
32.61
32.576
32.543
32.511
32.478
32.444
32.411
32.379
32.348
32.322
32.302
32.291
32.293
32.312
32.351
32.414
32.504
32.623
32.773
32.953
33.163
33.401
33.666
33.953
34.259
34.58
34.91
35.245
35.581
35.913
36.236
36.547
36.843
37.12
37.376
37.609
37.817
37.999
38.155
38.286
38.39
38.47
38.527
38.561
38.575
38.571
38.549
38.512
38.462
38.4
38.327
38.244
38.154
38.057
37.955
37.848
37.737
37.624
37.51
37.394
37.279
37.164
37.05
36.938
36.828
36.719
36.611
36.506
36.401
36.297
36.194
36.091
35.988
35.886
35.783
35.682
35.581
35.482
35.386
35.292
35.201
35.115
35.033
34.958
34.888
34.824
34.766
34.714
34.669
34.63
34.596
34.569
34.548
34.533
34.523
34.519
34.519
34.523
34.531
34.542
34.555
34.569
34.583
34.598
34.611
34.623
34.634
34.643
34.651
34.656
34.66
34.661
34.66
34.656
34.649
34.638
34.624
34.605
34.583
34.556
34.524
34.489
34.449
34.406
34.359
34.309
34.256
34.202
34.146
34.09
34.034
33.979
33.924
33.869
33.815
33.762
33.71
33.658
33.607
33.557
33.507
33.456
33.406
33.356
33.306
33.257
33.21
33.163
33.117
33.072
33.027
32.983
32.94
32.897
32.855
32.814
32.772
32.731
32.691
32.651
32.612
32.573
32.536
32.499
32.462
32.426
32.39
32.353
32.316
32.279
32.242
32.206
32.17
32.135
32.102
32.07
32.039
32.009
31.98
31.952
31.926
31.904
31.885
31.872
31.867
31.873
31.891
31.925
31.979
32.055
32.157
32.287
32.446
32.635
32.854
33.101
33.375
33.672
33.99
34.323
34.668
35.019
35.372
35.723
36.067
36.401
36.721
37.024
37.307
37.568
37.805
38.018
38.206
38.367
38.504
38.615
38.703
38.767
38.809
38.832
38.836
38.823
38.795
38.752
38.698
38.633
38.558
38.476
38.388
38.296
38.199
38.099
37.997
37.894
37.791
37.687
37.585
37.485
37.387
37.291
37.199
37.109
37.021
36.935
36.849
36.765
36.68
36.596
36.511
36.427
36.343
36.259
36.177
36.096
36.016
35.939
35.863
35.789
35.718
35.651
35.587
35.527
35.472
35.421
35.374
35.331
35.293
35.259
35.23
35.204
35.183
35.166
35.153
35.143
35.136
35.132
35.128
35.125
35.123
35.121
35.118
35.115
35.112
35.108
35.104
35.1
35.096
35.091
35.086
35.08
35.072
35.061
35.048
35.032
35.011
34.987
34.959
34.927
34.891
34.852
34.809
34.764
34.716
34.666
34.615
34.563
34.51
34.458
34.406
34.354
34.303
34.252
34.2
34.148
34.096
34.041
33.986
33.93
33.872
33.814
33.756
33.698
33.64
33.583
33.527
33.473
33.42
33.369
33.32
33.274
33.229
33.185
33.142
33.1
33.058
33.016
32.974
32.932
32.89
32.85
32.811
32.772
32.736
32.7
32.664
32.63
32.597
32.564
32.532
32.501
32.469
32.438
32.408
32.377
32.347
32.319
32.291
32.266
32.244
32.226
32.214
32.21
32.216
32.237
32.275
32.332
32.413
32.519
32.653
32.816
33.008
33.229
33.478
33.752
34.049
34.365
34.694
35.034
35.378
35.723
36.063
36.396
36.716
37.022
37.31
37.577
37.823
38.045
38.243
38.416
38.566
38.691
38.792
38.871
38.928
38.965
38.983
38.983
38.967
38.937
38.894
38.84
38.776
38.704
38.624
38.538
38.446
38.349
38.249
38.148
38.045
37.941
37.838
37.736
37.634
37.534
37.435
37.338
37.243
37.15
37.059
36.97
36.883
36.798
36.714
36.632
36.55
36.468
36.387
36.306
36.225
36.144
36.064
35.985
35.907
35.831
35.757
35.685
35.617
35.552
35.49
35.433
35.381
35.334
35.291
35.253
35.221
35.193
35.169
35.149
35.133
35.121
35.111
35.105
35.102
35.101
35.103
35.106
35.111
35.116
35.121
35.124
35.126
35.125
35.121
35.113
35.103
35.089
35.071
35.05
35.026
34.999
34.97
34.938
34.904
34.868
34.83
34.79
34.749
34.707
34.664
34.621
34.578
34.533
34.487
34.44
34.391
34.34
34.288
34.234
34.18
34.125
34.071
34.016
33.961
33.907
33.853
33.8
33.749
33.698
33.649
33.6
33.553
33.507
33.462
33.417
33.373
33.331
33.289
33.248
33.208
33.169
33.131
33.093
33.056
33.019
32.982
32.945
32.907
32.869
32.831
32.792
32.752
32.712
32.672
32.632
32.591
32.552
32.514
32.477
32.442
32.41
32.38
32.352
32.327
32.305
32.287
32.273
32.266
32.266
32.277
32.301
32.341
32.399
32.48
32.586
32.719
32.88
33.069
33.287
33.532
33.803
34.096
34.407
34.734
35.072
35.416
35.763
36.107
36.444
36.77
37.083
37.379
37.656
37.911
38.144
38.353
38.537
38.697
38.831
38.942
39.03
39.095
39.139
39.162
39.166
39.152
39.121
39.075
39.016
38.945
38.862
38.771
38.672
38.566
38.457
38.344
38.23
38.116
38.002
37.89
37.779
37.671
37.565
37.462
37.36
37.261
37.163
37.066
36.97
36.875
36.781
36.687
36.594
36.502
36.41
36.318
36.227
36.137
36.049
35.963
35.88
35.801
35.726
35.656
35.591
35.531
35.476
35.427
35.383
35.345
35.312
35.285
35.263
35.247
35.237
35.231
35.229
35.232
35.238
35.247
35.258
35.27
35.284
35.297
35.31
35.322
35.332
35.339
35.344
35.347
35.348
35.345
35.34
35.332
35.321
35.307
35.289
35.268
35.244
35.218
35.188
35.156
35.122
35.086
35.048
35.008
34.965
34.922
34.877
34.832
34.786
34.74
34.694
34.648
34.601
34.555
34.508
34.46
34.411
34.361
34.309
34.257
34.205
34.153
34.101
34.049
33.997
33.946
33.895
33.846
33.797
33.749
33.701
33.653
33.606
33.559
33.513
33.467
33.422
33.379
33.336
33.294
33.253
33.214
33.175
33.137
33.1
33.063
33.027
32.991
32.956
32.921
32.887
32.854
32.822
32.792
32.766
32.745
32.732
32.73
32.741
32.77
32.819
32.891
32.99
33.117
33.274
33.461
33.677
33.921
34.19
34.481
34.791
35.115
35.448
35.787
36.126
36.462
36.789
37.105
37.405
37.688
37.95
38.191
38.409
38.602
38.771
38.914
39.032
39.127
39.199
39.248
39.277
39.287
39.279
39.255
39.215
39.163
39.098
39.023
38.939
38.849
38.752
38.65
38.543
38.434
38.322
38.209
38.095
37.98
37.866
37.751
37.636
37.522
37.407
37.294
37.18
37.066
36.952
36.837
36.722
36.606
36.49
36.376
36.262
36.15
36.04
35.932
35.828
35.726
35.63
35.539
35.455
35.378
35.309
35.248
35.194
35.149
35.111
35.08
35.055
35.036
35.023
35.014
35.009
35.007
35.008
35.012
35.018
35.026
35.035
35.045
35.055
35.066
35.076
35.085
35.093
35.098
35.101
35.101
35.097
35.091
35.082
35.069
35.053
35.033
35.009
34.981
34.949
34.912
34.871
34.826
34.778
34.727
34.675
34.623
