Trial 3:3back
34.017
33.995
33.973
33.952
33.931
33.91
33.89
33.866
33.837
33.803
33.767
33.731
33.696
33.665
33.638
33.614
33.595
33.578
33.564
33.552
33.541
33.531
33.522
33.513
33.504
33.495
33.485
33.474
33.462
33.449
33.435
33.42
33.405
33.39
33.375
33.36
33.346
33.332
33.318
33.304
33.289
33.274
33.257
33.24
33.222
33.204
33.186
33.166
33.147
33.127
33.107
33.089
33.071
33.056
33.045
33.039
33.04
33.049
33.069
33.099
33.144
33.204
33.282
33.379
33.496
33.63
33.782
33.95
34.131
34.323
34.524
34.73
34.94
35.149
35.356
35.559
35.756
35.945
36.125
36.293
36.449
36.592
36.722
36.838
36.941
37.031
37.11
37.179
37.238
37.289
37.332
37.369
37.402
37.43
37.455
37.477
37.498
37.516
37.532
37.546
37.557
37.566
37.573
37.578
37.582
37.585
37.586
37.585
37.583
37.579
37.575
37.569
37.562
37.552
37.538
37.519
37.495
37.465
37.431
37.392
37.35
37.305
37.259
37.213
37.166
37.119
37.071
37.025
36.98
36.938
36.897
36.859
36.824
36.792
36.763
36.737
36.714
36.693
36.676
36.661
36.647
36.636
36.624
36.613
36.6
36.585
36.568
36.547
36.523
36.497
36.469
36.438
36.405
36.37
36.333
36.295
36.255
36.214
36.172
36.128
36.084
36.038
35.991
35.942
35.893
35.843
35.792
35.741
35.691
35.641
35.592
35.544
35.496
35.449
35.402
35.356
35.312
35.27
35.229
35.191
35.155
35.121
35.09
35.06
35.031
35.004
34.976
34.949
34.922
34.895
34.869
34.843
34.819
34.794
34.771
34.747
34.723
34.699
34.676
34.654
34.632
34.611
34.59
34.568
34.546
34.525
34.503
34.48
34.457
34.435
34.412
34.388
34.362
34.334
34.304
34.273
34.241
34.21
34.18
34.152
34.125
34.101
34.078
34.058
34.04
34.023
34.005
33.987
33.967
33.946
33.925
33.904
33.884
33.865
33.847
33.829
33.811
33.794
33.776
33.757
33.738
33.72
33.701
33.684
33.668
33.651
33.634
33.616
33.595
33.571
33.546
33.52
33.492
33.462
33.432
33.401
33.369
33.338
33.307
33.277
33.248
33.223
33.202
33.185
33.174
33.17
33.173
33.185
33.207
33.239
33.283
33.34
33.411
33.498
33.601
33.721
33.858
34.011
34.179
34.36
34.553
34.754
34.96
35.169
35.378
35.585
35.788
35.985
36.173
36.351
36.517
36.67
36.808
36.932
37.041
37.134
37.212
37.276
37.326
37.364
37.39
37.407
37.415
37.416
37.412
37.404
37.392
37.378
37.361
37.343
37.323
37.303
37.282
37.261
37.243
37.227
37.214
37.205
37.198
37.193
37.19
37.187
37.183
37.176
37.165
37.151
37.132
37.109
37.08
37.047
37.009
36.967
36.923
36.876
36.828
36.779
36.729
36.68
36.632
36.586
36.544
36.504
36.468
36.436
36.407
36.381
36.357
36.336
36.318
36.302
36.288
36.276
36.265
36.256
36.247
36.239
36.231
36.222
36.213
36.204
36.193
36.181
36.168
36.153
36.135
36.116
36.093
36.067
36.039
36.008
35.974
35.938
35.9
35.861
35.82
35.778
35.734
35.688
35.64
35.591
35.539
35.486
35.43
35.373
35.315
35.257
35.199
35.143
35.088
35.037
34.988
34.943
34.9
34.86
34.821
34.782
34.744
34.705
34.666
34.626
34.586
34.547
34.509
34.472
34.438
34.406
34.376
34.349
34.325
34.303
34.283
34.265
34.249
34.232
34.215
34.196
34.175
34.153
34.13
34.107
34.084
34.06
34.037
34.015
33.994
33.975
33.957
33.941
33.926
33.912
33.901
33.89
33.881
33.874
33.867
33.86
33.854
33.846
33.836
33.824
33.81
33.793
33.775
33.755
33.733
33.711
33.688
33.665
33.642
33.62
33.599
33.58
33.561
33.545
33.53
33.516
33.503
33.491
33.479
33.466
33.452
33.435
33.416
33.393
33.367
33.338
33.308
33.278
33.248
33.22
33.193
33.167
33.143
33.121
33.1
33.082
33.068
33.06
33.062
33.075
33.102
33.145
33.206
33.286
33.385
33.503
33.64
33.795
33.966
34.151
34.349
34.556
34.77
34.988
35.207
35.424
35.637
35.845
36.046
36.238
36.419
36.59
36.749
36.894
37.027
37.147
37.254
37.35
37.433
37.507
37.571
37.625
37.67
37.708
37.74
37.765
37.785
37.8
37.811
37.818
37.821
37.82
37.815
37.809
37.801
37.793
37.785
37.779
37.775
37.774
37.775
37.78
37.789
37.8
37.814
37.828
37.84
37.849
37.854
37.852
37.843
37.826
37.802
37.77
37.732
37.69
37.643
37.593
37.541
37.489
37.436
37.385
37.335
37.288
37.242
37.198
37.155
37.113
37.073
37.035
36.999
36.966
36.935
36.905
36.878
36.851
36.823
36.795
36.765
36.734
36.702
36.669
36.635
36.6
36.565
36.53
36.495
36.46
36.426
36.393
36.36
36.329
36.297
36.264
36.23
36.195
36.156
36.115
36.07
36.023
35.975
35.925
35.876
35.826
35.776
35.727
35.678
35.629
35.583
35.537
35.493
35.45
35.408
35.367
35.324
35.281
35.237
35.191
35.145
35.098
35.053
35.008
34.965
34.925
34.888
34.854
34.824
34.798
34.775
34.754
34.735
34.716
34.697
34.675
34.651
34.623
34.592
34.558
34.521
34.482
34.442
34.402
34.365
34.33
34.299
34.272
34.25
34.23
34.213
34.198
34.185
34.172
34.158
34.144
34.128
34.11
34.09
34.067
34.042
34.015
33.986
33.958
33.93
33.903
33.878
33.855
33.834
33.814
33.796
33.779
33.763
33.748
33.733
33.718
33.703
33.687
33.67
33.651
33.629
33.604
33.577
33.547
33.515
33.482
33.448
33.414
33.381
33.349
33.319
33.29
33.262
33.238
33.216
33.197
33.18
33.167
33.156
33.147
33.142
33.14
33.143
33.152
33.17
33.2
33.245
33.306
33.387
33.486
33.605
33.743
33.898
34.069
34.253
34.449
34.653
34.863
35.077
35.291
35.502
35.709
35.908
36.097
36.275
36.44
36.594
36.735
36.864
36.98
37.084
37.176
37.258
37.33
37.394
37.452
37.503
37.55
37.591
37.627
37.658
37.683
37.703
37.718
37.73
37.737
37.742
37.745
37.745
37.743
37.739
37.732
37.724
37.713
37.7
37.686
37.67
37.653
37.634
37.614
37.593
37.572
37.551
37.53
37.508
37.486
37.463
37.438
37.411
37.381
37.348
37.311
37.271
37.229
37.185
37.139
37.093
37.047
37.002
36.96
36.92
36.885
36.853
36.824
36.797
36.771
36.744
36.715
36.683
36.647
36.61
36.57
36.529
36.488
36.447
36.406
36.367
36.33
36.294
36.26
36.227
36.196
36.165
36.134
36.103
36.072
36.039
36.003
35.966
35.925
35.884
35.841
35.797
35.754
35.711
35.668
35.625
35.582
35.539
35.495
35.451
35.405
35.359
35.312
35.264
35.215
35.165
35.115
35.064
35.013
34.964
34.916
34.871
34.829
34.79
34.754
34.721
34.69
34.66
34.632
34.604
34.576
34.548
34.521
34.495
34.47
34.445
34.421
34.398
34.375
34.353
34.333
34.315
34.299
34.285
34.272
34.26
34.248
34.234
34.22
34.203
34.184
34.163
34.14
34.115
34.09
34.064
34.039
34.014
33.991
33.97
33.951
33.934
33.919
33.906
33.894
33.883
33.873
33.861
33.847
33.832
33.816
33.798
33.781
33.763
33.745
33.727
33.708
33.69
33.671
33.652
33.632
33.611
33.588
33.565
33.541
33.517
33.492
33.467
33.442
33.416
33.39
33.363
33.335
33.306
33.277
33.248
33.218
33.189
33.159
33.131
33.104
33.081
33.064
33.053
33.053
33.065
33.092
33.136
33.199
33.282
33.386
33.509
33.652
33.812
33.986
34.171
34.366
34.567
34.772
34.977
35.181
35.382
35.576
35.764
35.942
36.111
36.27
36.419
36.558
36.686
36.802
36.906
36.998
37.08
37.151
37.212
37.265
37.311
37.351
37.385
37.412
37.434
37.451
37.463
37.471
37.475
37.476
37.475
37.471
37.466
37.46
37.453
37.446
37.438
37.432
37.425
37.42
37.413
37.405
37.395
37.38
37.36
37.333
37.301
37.264
37.22
37.172
37.12
37.063
37.004
36.944
36.883
36.824
36.767
36.714
36.667
36.623
36.583
36.545
36.51
36.478
36.448
36.421
36.398
36.378
36.362
36.349
36.339
36.331
36.326
36.321
36.318
36.314
36.31
36.305
36.298
36.289
36.278
36.264
36.247
36.229
36.208
36.186
36.161
36.135
36.107
36.076
36.043
36.008
35.97
35.93
35.888
35.842
35.795
35.746
35.696
35.644
35.592
35.541
35.491
35.442
35.396
35.35
35.305
35.261
35.218
35.176
35.134
35.094
35.054
35.016
34.979
34.943
34.909
34.875
34.841
34.806
34.772
34.738
34.706
34.677
34.649
34.624
34.6
34.576
34.553
34.528
34.502
34.476
34.45
34.423
34.398
34.374
34.35
34.329
34.308
34.289
34.272
34.256
34.243
34.231
34.221
34.213
34.207
34.201
34.195
34.189
34.181
34.17
34.158
34.142
34.125
34.105
34.083
34.059
34.033
34.006
33.978
33.949
33.92
33.892
33.865
33.84
33.816
33.795
33.775
33.756
33.738
33.72
33.701
33.68
33.657
33.633
33.608
33.582
33.558
33.535
33.515
33.499
33.488
33.483
33.486
33.499
33.524
33.563
33.619
33.692
33.783
33.892
34.019
34.161
34.318
34.486
34.665
34.852
35.043
35.236
35.431
35.624
35.812
35.995
36.169
36.334
36.488
36.63
36.759
36.874
36.975
37.063
37.138
37.2
37.252
37.294
37.327
37.352
37.37
37.382
37.388
37.389
37.386
37.38
37.372
37.364
37.356
37.348
37.341
37.333
37.325
37.317
37.309
37.3
37.291
37.28
37.269
37.255
37.24
37.222
37.2
37.174
37.144
37.109
37.07
37.028
36.982
36.933
36.882
36.828
36.775
36.722
36.671
36.623
36.577
36.534
36.494
36.457
36.422
36.39
36.36
36.331
36.304
36.278
36.254
36.232
36.212
36.194
36.179
36.166
36.155
36.146
36.138
36.13
36.121
36.111
36.098
36.082
36.063
36.042
36.019
35.993
35.966
35.938
35.909
35.878
35.846
35.812
35.776
35.739
35.701
35.663
35.624
35.584
35.544
35.503
35.461
35.418
35.375
35.333
35.292
35.252
35.213
35.176
35.139
35.103
35.068
35.033
34.999
34.964
34.93
34.897
34.866
34.836
34.808
34.782
34.757
34.733
34.709
34.685
34.659
34.631
34.603
34.573
34.542
34.511
34.478
34.445
34.411
34.377
34.342
34.308
34.274
34.242
34.21
34.181
34.152
34.125
34.099
34.075
34.053
34.033
34.016
34.002
33.989
33.977
33.965
33.952
33.939
33.924
33.907
33.89
33.872
33.855
33.838
33.821
33.805
33.788
33.771
33.754
33.736
33.717
33.698
33.68
33.662
33.645
33.629
33.611
33.591
33.566
33.538
33.505
33.468
33.43
33.391
33.354
33.319
33.288
33.262
33.24
33.222
33.207
33.195
33.183
33.174
33.166
33.164
33.167
33.178
33.198
33.231
33.277
33.339
33.419
33.517
33.635
33.774
33.933
34.111
34.306
34.514
34.733
34.959
35.189
35.419
35.647
35.868
36.081
36.282
36.471
36.647
36.808
36.957
37.092
37.215
37.325
37.421
37.505
37.577
37.637
37.689
37.732
37.769
37.8
37.827
37.851
37.872
37.89
37.906
37.921
37.933
37.944
37.953
37.96
37.966
37.968
37.969
37.966
37.962
37.956
37.948
37.939
37.928
37.914
37.899
37.88
37.86
37.837
37.812
37.785
37.755
37.722
37.686
37.646
37.603
37.558
37.509
37.459
37.407
37.356
37.304
37.252
37.201
37.151
37.102
37.055
37.01
36.966
36.925
36.884
36.846
36.809
36.776
36.747
36.72
36.697
36.678
36.661
36.646
36.631
36.616
36.6
36.583
36.564
36.544
36.523
36.501
36.478
36.453
36.426
36.397
36.365
36.331
36.294
36.256
36.217
36.175
36.132
36.088
36.043
35.996
35.947
35.897
35.847
35.796
35.745
35.694
35.644
35.596
35.548
35.502
35.457
35.412
35.368
35.325
35.282
35.239
35.195
35.151
35.106
35.061
35.017
34.975
34.934
34.896
34.86
34.826
34.795
34.765
34.737
34.709
34.683
34.658
34.635
34.613
34.593
34.573
34.554
34.535
34.515
34.494
34.471
34.446
34.421
34.396
34.37
34.345
34.321
34.296
34.272
34.248
34.224
34.2
34.176
34.152
34.128
34.104
34.079
34.054
34.028
34.002
33.974
33.947
33.919
33.892
33.864
33.837
33.809
33.783
33.757
33.734
33.712
33.692
33.674
33.657
33.641
33.627
33.612
33.598
33.582
33.567
33.55
33.531
33.513
33.494
33.474
33.454
33.435
33.417
33.398
33.38
33.362
33.343
33.324
33.305
33.286
33.27
33.256
33.248
33.247
33.257
33.28
33.318
33.374
33.449
33.545
33.662
33.801
33.96
34.138
34.333
34.543
34.762
34.989
35.218
35.446
35.67
35.888
36.097
36.296
36.484
36.659
36.82
36.967
37.1
37.22
37.327
37.422
37.505
37.578
37.641
37.694
37.738
37.773
37.801
37.823
37.84
37.853
37.862
37.868
37.871
37.87
37.867
37.859
37.849
37.837
37.822
37.806
37.789
37.773
37.757
37.742
37.729
37.718
37.707
37.698
37.686
37.672
37.654
37.632
37.604
37.571
37.532
37.489
37.441
37.389
37.334
37.277
37.219
37.162
37.107
37.053
37.001
36.952
36.903
36.855
36.809
36.762
36.717
36.672
36.629
36.589
36.552
36.518
36.487
36.458
36.432
36.407
36.384
36.361
36.338
36.315
36.291
36.266
36.237
36.206
36.171
36.134
36.096
36.059
36.023
35.989
35.957
35.927
35.898
35.868
35.838
35.807
35.775
35.74
35.704
35.668
35.63
35.593
35.554
35.516
35.476
35.436
35.394
35.352
35.31
35.267
35.223
35.179
35.134
35.087
35.04
34.992
34.944
34.897
34.852
34.809
34.768
34.729
34.692
34.657
34.624
34.593
34.563
34.535
34.509
34.484
34.46
34.437
34.414
34.39
34.365
34.34
34.314
34.287
34.259
34.232
34.204
34.177
34.15
34.123
34.096
34.068
34.04
34.011
33.982
33.952
33.922
33.891
33.861
33.831
33.802
33.772
33.744
33.717
33.692
33.669
33.649
33.632
33.618
33.606
33.595
33.584
33.573
33.561
33.546
33.529
33.512
33.493
33.474
33.454
33.434
33.413
33.389
33.364
33.336
33.308
33.28
33.252
33.225
33.199
33.174
33.15
33.128
33.105
33.083
33.062
33.042
33.023
33.005
32.989
32.974
32.96
32.947
32.933
32.92
32.909
32.901
32.898
32.902
32.916
32.942
32.981
33.038
33.112
33.206
33.32
33.452
33.603
33.771
33.953
34.147
34.351
34.56
34.773
34.986
35.196
35.401
35.597
35.784
35.96
36.125
36.278
36.419
36.547
36.662
36.765
36.855
36.932
36.997
37.051
37.096
37.132
37.16
37.182
37.199
37.211
37.22
37.226
37.228
37.227
37.222
37.215
37.205
37.193
37.181
37.169
37.158
37.15
37.144
37.14
37.138
37.137
37.136
37.134
37.13
37.123
37.111
37.094
37.072
37.043
37.008
36.967
36.92
36.87
36.816
36.761
36.704
36.646
36.587
36.527
36.468
36.41
36.354
36.299
36.247
36.199
36.155
36.116
36.083
36.057
36.037
36.025
36.018
36.016
36.019
36.024
36.03
36.036
36.04
36.042
36.042
36.04
36.034
36.024
36.01
35.993
35.972
35.948
35.922
35.892
35.859
35.824
35.786
35.744
35.699
35.652
35.604
35.554
35.504
35.454
35.406
35.358
35.312
35.265
35.219
35.172
35.125
35.078
35.031
34.986
34.942
34.9
34.859
34.822
34.786
34.751
34.718
34.686
34.656
34.627
34.599
34.571
34.544
34.517
34.49
34.464
34.437
34.41
34.384
34.357
34.331
34.306
34.281
34.257
34.233
34.211
34.192
34.175
34.161
34.152
34.145
34.14
34.136
34.131
34.124
34.114
34.102
34.086
34.068
34.046
34.023
33.999
33.974
33.949
33.924
33.9
33.877
33.855
33.835
33.815
33.796
33.778
33.762
33.745
33.728
33.71
33.689
33.666
33.642
33.616
33.589
33.562
33.534
33.508
33.483
33.46
33.438
33.417
33.397
33.378
33.36
33.344
33.329
33.312
33.295
33.277
33.257
33.236
33.215
33.194
33.174
33.159
33.15
33.15
33.16
33.183
33.22
33.272
33.341
33.427
33.529
33.648
33.783
33.932
34.094
34.266
34.447
34.632
34.82
35.007
35.191
35.37
35.541
35.702
35.854
35.993
36.119
36.234
36.336
36.424
36.501
36.565
36.619
36.662
36.696
36.722
36.741
36.754
36.761
36.764
36.763
36.761
36.758
36.755
36.754
36.754
36.757
36.761
36.767
36.774
36.782
36.789
36.794
36.798
36.799
36.797
36.79
36.779
36.765
36.747
36.726
36.702
36.675
36.644
36.609
36.57
36.527
36.479
36.429
36.377
36.324
36.272
36.222
36.174
36.129
36.088
36.052
36.021
35.993
35.97
35.95
35.932
35.918
35.904
35.892
35.88
35.868
35.855
35.841
35.828
35.814
35.801
35.79
35.779
35.768
35.756
35.742
35.723
35.701
35.676
35.646
35.613
35.577
35.538
35.496
35.451
35.406
35.361
35.317
35.274
35.232
35.192
35.152
35.114
35.077
35.041
35.006
34.972
34.94
34.908
34.878
34.848
34.819
34.789
34.759
34.727
34.695
34.663
34.63
34.598
34.567
34.537
34.508
34.481
34.454
34.428
34.403
34.377
34.352
34.326
34.299
34.272
34.246
34.22
34.195
34.17
34.146
34.121
34.097
34.073
34.049
34.026
34.002
33.977
33.951
33.925
33.898
33.87
33.842
33.813
33.783
33.753
33.722
33.69
33.657
33.624
33.59
33.558
33.526
33.497
33.471
33.447
33.426
33.408
33.391
33.375
33.358
33.343
33.328
33.314
33.301
33.288
33.277
33.266
33.255
33.243
33.227
33.208
33.187
33.165
33.143
33.121
33.1
33.081
33.065
33.05
33.037
33.025
33.014
33.005
32.996
32.989
32.983
32.977
32.97
32.961
32.95
32.936
32.919
32.902
32.884
32.867
32.853
32.844
32.841
32.846
32.861
32.888
32.927
32.981
33.051
33.139
33.244
33.367
33.507
33.662
33.831
34.012
34.202
34.398
34.598
34.798
34.997
35.193
35.383
35.568
35.745
35.912
36.069
36.213
36.345
36.464
36.57
36.664
36.747
36.821
36.886
36.943
36.994
37.041
37.083
37.121
37.156
37.188
37.218
37.245
37.269
37.289
37.307
37.322
37.335
37.347
37.357
37.366
37.372
37.376
37.378
37.377
37.373
37.367
37.358
37.346
37.331
37.315
37.297
37.279
37.261
37.242
37.222
37.202
37.18
37.155
37.127
37.094
37.059
37.02
36.979
36.938
36.896
36.854
36.813
36.772
36.733
36.694
36.656
36.619
36.581
36.543
36.503
36.461
36.417
36.373
36.329
36.286
36.245
36.207
36.171
36.138
36.108
36.081
36.055
36.031
36.009
35.988
35.968
35.95
35.932
35.913
35.894
35.874
35.853
35.831
35.808
35.783
35.757
35.73
35.7
35.667
35.631
35.592
35.551
35.508
35.464
35.42
35.375
35.329
35.283
35.237
35.19
35.143
35.095
35.048
35.001
34.954
34.909
34.865
34.821
34.778
34.736
34.695
34.653
34.614
34.576
34.54
34.506
34.476
34.447
34.421
34.397
34.375
34.355
34.337
34.321
34.306
34.291
34.275
34.258
34.24
34.221
34.201
34.181
34.162
34.143
34.125
34.107
34.089
34.07
34.05
34.027
34.004
33.978
33.952
33.925
33.897
33.868
33.84
33.812
33.784
33.755
33.726
33.698
33.669
33.641
33.614
33.588
33.563
33.54
33.518
33.498
33.48
33.462
33.446
33.43
33.414
33.398
33.382
33.364
33.346
33.326
33.306
33.287
33.268
33.25
33.234
33.219
33.205
33.193
33.181
33.17
33.16
33.152
33.145
33.139
33.133
33.128
33.123
33.117
33.109
33.098
33.084
33.068
33.051
33.033
33.017
33.003
32.994
32.993
33.002
33.025
33.062
33.115
33.186
33.275
33.381
33.504
33.643
33.795
33.958
34.129
34.306
34.486
34.667
34.847
35.023
35.195
35.36
35.518
35.666
35.804
35.932
36.049
36.156
36.253
36.34
36.417
36.486
36.546
36.599
36.646
36.689
36.728
36.764
36.797
36.828
36.858
36.884
36.908
36.928
36.945
36.958
36.968
36.974
36.977
36.976
36.973
36.968
36.961
36.954
36.948
36.941
36.934
36.925
36.913
36.897
36.877
36.855
36.83
36.803
36.773
36.742
36.709
36.675
36.64
36.606
36.573
36.541
36.509
36.478
36.446
36.414
36.381
36.346
36.31
36.273
36.235
36.196
36.158
36.122
36.087
36.054
36.024
35.997
35.973
35.953
35.937
35.924
35.914
35.905
35.898
35.889
35.88
35.869
35.855
35.839
35.82
35.798
35.775
35.75
35.723
35.694
35.664
35.633
35.601
35.569
35.535
35.5
35.463
35.425
35.385
35.344
35.301
35.257
35.212
35.166
35.118
35.07
35.02
34.969
34.917
34.863
34.808
34.754
34.7
34.649
34.6
34.554
34.511
34.471
34.434
34.401
34.372
34.345
34.321
34.299
34.279
34.26
34.243
34.226
34.208
34.188
34.167
34.145
34.12
34.095
34.07
34.045
34.02
33.997
33.976
33.956
33.939
33.922
33.907
33.893
33.88
33.867
33.853
33.839
33.824
33.809
33.793
33.778
33.762
33.747
33.731
33.715
33.698
33.681
33.663
33.644
33.624
33.604
33.583
33.562
33.54
33.518
33.495
33.472
33.447
33.42
33.392
33.362
33.332
33.301
33.272
33.244
33.217
33.191
