Trial 3:3back
36.739
36.692
36.648
36.606
36.568
36.535
36.51
36.491
36.48
36.477
36.48
36.489
36.503
36.52
36.539
36.558
36.574
36.586
36.593
36.596
36.595
36.589
36.58
36.566
36.548
36.528
36.505
36.479
36.451
36.419
36.384
36.345
36.304
36.262
36.22
36.179
36.142
36.108
36.079
36.055
36.036
36.02
36.008
35.999
35.991
35.985
35.981
35.978
35.977
35.979
35.983
35.989
35.997
36.006
36.017
36.029
36.041
36.051
36.059
36.063
36.064
36.06
36.053
36.041
36.025
36.006
35.984
35.96
35.936
35.912
35.888
35.865
35.842
35.82
35.799
35.778
35.757
35.737
35.716
35.695
35.673
35.649
35.625
35.599
35.573
35.546
35.519
35.492
35.466
35.442
35.42
35.401
35.386
35.374
35.365
35.359
35.355
35.353
35.351
35.349
35.346
35.341
35.335
35.327
35.317
35.305
35.291
35.275
35.259
35.242
35.224
35.208
35.192
35.177
35.162
35.149
35.136
35.124
35.114
35.104
35.096
35.087
35.079
35.072
35.064
35.057
35.05
35.043
35.035
35.028
35.021
35.015
35.009
35.002
34.995
34.987
34.978
34.97
34.961
34.954
34.948
34.943
34.939
34.937
34.934
34.931
34.925
34.916
34.904
34.89
34.874
34.857
34.838
34.819
34.801
34.785
34.771
34.761
34.753
34.748
34.746
34.746
34.747
34.749
34.751
34.753
34.753
34.751
34.748
34.741
34.732
34.721
34.709
34.697
34.686
34.677
34.668
34.661
34.655
34.65
34.646
34.643
34.64
34.638
34.636
34.633
34.631
34.628
34.624
34.62
34.614
34.608
34.601
34.593
34.586
34.578
34.571
34.563
34.555
34.547
34.539
34.531
34.521
34.512
34.502
34.493
34.484
34.477
34.47
34.465
34.461
34.457
34.454
34.451
34.448
34.445
34.443
34.441
34.44
34.44
34.442
34.445
34.45
34.458
34.47
34.488
34.511
34.542
34.581
34.628
34.685
34.753
34.833
34.925
35.028
35.142
35.264
35.394
35.528
35.663
35.797
35.927
36.05
36.164
36.27
36.366
36.451
36.526
36.589
36.64
36.68
36.71
36.73
36.74
36.741
36.734
36.719
36.699
36.674
36.647
36.62
36.592
36.563
36.535
36.507
36.479
36.452
36.426
36.399
36.373
36.347
36.322
36.299
36.279
36.262
36.247
36.236
36.229
36.225
36.224
36.222
36.22
36.215
36.207
36.193
36.172
36.145
36.113
36.077
36.04
36.002
35.967
35.934
35.905
35.881
35.86
35.841
35.826
35.813
35.802
35.793
35.785
35.78
35.777
35.777
35.779
35.784
35.793
35.804
35.818
35.834
35.85
35.866
35.882
35.895
35.906
35.915
35.922
35.926
35.927
35.925
35.92
35.911
35.899
35.885
35.868
35.85
35.831
35.811
35.791
35.772
35.752
35.734
35.716
35.7
35.683
35.666
35.648
35.63
35.61
35.59
35.567
35.543
35.518
35.492
35.467
35.441
35.415
35.39
35.366
35.342
35.32
35.299
35.279
35.26
35.242
35.225
35.209
35.196
35.184
35.174
35.165
35.158
35.152
35.145
35.138
35.128
35.116
35.104
35.091
35.078
35.066
35.055
35.045
35.037
35.032
35.029
35.028
35.028
35.029
35.028
35.025
35.02
35.012
35.002
34.989
34.974
34.957
34.94
34.923
34.907
34.893
34.88
34.868
34.858
34.849
34.841
34.833
34.823
34.812
34.799
34.784
34.77
34.755
34.741
34.726
34.713
34.701
34.691
34.684
34.68
34.68
34.682
34.686
34.692
34.7
34.707
34.714
34.72
34.723
34.725
34.724
34.721
34.716
34.707
34.697
34.685
34.674
34.663
34.652
34.642
34.631
34.62
34.609
34.597
34.585
34.573
34.561
34.55
34.54
34.532
34.525
34.519
34.513
34.509
34.505
34.503
34.501
34.5
34.498
34.496
34.494
34.491
34.486
34.482
34.476
34.47
34.464
34.458
34.451
34.443
34.435
34.427
34.418
34.408
34.398
34.389
34.38
34.372
34.365
34.36
34.356
34.356
34.359
34.366
34.376
34.391
34.41
34.435
34.467
34.508
34.559
34.621
34.695
34.783
34.884
34.997
35.12
35.252
35.391
35.535
35.681
35.828
35.973
36.114
36.248
36.375
36.492
36.598
36.692
36.773
36.838
36.887
36.922
36.942
36.948
36.942
36.924
36.898
36.865
36.828
36.788
36.748
36.708
36.669
36.633
36.6
36.569
36.54
36.514
36.49
36.469
36.45
36.436
36.424
36.417
36.413
36.414
36.418
36.425
36.434
36.443
36.452
36.457
36.458
36.452
36.442
36.426
36.405
36.379
36.35
36.317
36.282
36.247
36.211
36.176
36.142
36.108
36.075
36.044
36.015
35.988
35.963
35.941
35.923
35.908
35.897
35.889
35.885
35.885
35.888
35.893
35.903
35.922
35.95
35.986
36.026
36.066
36.103
36.132
36.153
36.162
36.159
36.144
36.118
36.084
36.042
35.996
35.948
35.9
35.853
35.808
35.767
35.73
35.697
35.668
35.643
35.619
35.598
35.578
35.56
35.542
35.524
35.506
35.487
35.47
35.452
35.435
35.417
35.398
35.376
35.348
35.313
35.273
35.231
35.188
35.147
35.111
35.081
35.058
35.043
35.035
35.033
35.037
35.045
35.056
35.068
35.079
35.088
35.094
35.096
35.096
35.092
35.086
35.078
35.068
35.057
35.046
35.035
35.026
35.018
35.011
35.005
34.999
34.993
34.987
34.979
34.969
34.958
34.945
34.93
34.915
34.9
34.885
34.873
34.862
34.853
34.848
34.844
34.842
34.841
34.839
34.835
34.83
34.824
34.816
34.808
34.798
34.788
34.778
34.769
34.762
34.756
34.751
34.745
34.739
34.732
34.725
34.717
34.707
34.696
34.684
34.67
34.656
34.642
34.629
34.616
34.604
34.593
34.584
34.576
34.569
34.561
34.553
34.542
34.53
34.518
34.505
34.494
34.484
34.477
34.472
34.469
34.469
34.47
34.471
34.474
34.476
34.478
34.48
34.483
34.487
34.49
34.493
34.494
34.495
34.494
34.492
34.489
34.484
34.478
34.47
34.461
34.451
34.44
34.427
34.415
34.403
34.392
34.383
34.376
34.369
34.362
34.354
34.345
34.335
34.325
34.314
34.303
34.292
34.282
34.274
34.268
34.264
34.261
34.261
34.263
34.267
34.271
34.275
34.279
34.282
34.286
34.292
34.299
34.31
34.326
34.349
34.38
34.421
34.474
34.54
34.618
34.709
34.814
34.931
35.059
35.196
35.34
35.488
35.637
35.785
35.93
36.069
36.203
36.33
36.448
36.556
36.654
36.739
36.812
36.871
36.917
36.948
36.964
36.967
36.958
36.939
36.911
36.876
36.834
36.788
36.74
36.691
36.643
36.598
36.555
36.515
36.479
36.446
36.417
36.391
36.37
36.352
36.338
36.328
36.321
36.317
36.315
36.314
36.313
36.313
36.311
36.309
36.305
36.299
36.291
36.28
36.266
36.249
36.23
36.207
36.18
36.15
36.119
36.086
36.054
36.023
35.993
35.966
35.941
35.919
35.901
35.887
35.877
35.871
35.869
35.87
35.875
35.883
35.892
35.901
35.911
35.919
35.925
35.929
35.93
35.929
35.925
35.918
35.908
35.897
35.885
35.873
35.861
35.851
35.84
35.829
35.817
35.804
35.789
35.772
35.753
35.73
35.706
35.681
35.656
35.632
35.608
35.586
35.566
35.548
35.532
35.519
35.505
35.492
35.478
35.462
35.443
35.421
35.396
35.367
35.336
35.303
35.27
35.237
35.207
35.179
35.156
35.136
35.12
35.108
35.1
35.092
35.077
35.052
35.017
34.974
34.926
34.878
34.831
34.79
34.756
34.732
34.718
34.715
34.722
34.739
34.763
34.792
34.826
34.86
34.894
34.926
34.952
34.973
34.987
34.995
34.998
34.998
34.993
34.987
34.979
34.971
34.964
34.958
34.952
34.947
34.943
34.939
34.935
34.933
34.931
34.93
34.929
34.929
34.927
34.922
34.915
34.905
34.891
34.873
34.852
34.828
34.802
34.774
34.744
34.713
34.683
34.654
34.625
34.596
34.569
34.543
34.519
34.497
34.478
34.462
34.449
34.439
34.431
34.426
34.424
34.424
34.426
34.43
34.436
34.442
34.45
34.454
34.453
34.446
34.433
34.417
34.401
34.388
34.379
34.376
34.378
34.386
34.399
34.416
34.435
34.456
34.476
34.495
34.511
34.523
34.532
34.536
34.536
34.533
34.527
34.52
34.513
34.507
34.502
34.499
34.496
34.493
34.49
34.487
34.481
34.472
34.46
34.446
34.429
34.411
34.391
34.372
34.353
34.337
34.323
34.313
34.306
34.303
34.304
34.309
34.316
34.325
34.335
34.345
34.355
34.364
34.372
34.379
34.383
34.387
34.388
34.387
34.386
34.383
34.38
34.376
34.373
34.37
34.367
34.366
34.365
34.363
34.361
34.36
34.358
34.356
34.352
34.348
34.343
34.337
34.329
34.322
34.314
34.306
34.297
34.288
34.28
34.272
34.265
34.259
34.253
34.248
34.244
34.24
34.238
34.235
34.233
34.232
34.231
34.23
34.23
34.228
34.226
34.223
34.22
34.216
34.213
34.209
34.204
34.2
34.195
34.192
34.19
34.189
34.189
34.189
34.19
34.192
34.193
34.194
34.194
34.193
34.192
34.191
34.19
34.19
34.19
34.19
34.191
34.191
34.191
34.19
34.189
34.186
34.183
34.18
34.177
34.173
34.17
34.167
34.164
34.16
34.156
34.152
34.146
34.139
34.132
34.125
34.117
34.109
34.101
34.093
34.087
34.082
34.079
34.079
34.082
34.088
34.097
34.107
34.118
34.124
34.122
34.113
34.098
34.081
34.063
34.046
34.031
34.02
34.012
34.008
34.008
34.012
34.02
34.031
34.045
34.061
34.079
34.098
34.119
34.14
34.163
34.188
34.217
34.251
34.293
34.344
34.407
34.484
34.575
34.681
34.803
34.941
35.093
35.258
35.435
35.623
35.818
36.018
36.221
36.422
36.619
36.808
36.985
37.148
37.293
37.418
37.522
37.605
37.665
37.704
37.723
37.723
37.706
37.675
37.631
37.578
37.518
37.452
37.383
37.312
37.241
37.172
37.105
37.041
36.982
36.927
36.878
36.834
36.796
36.763
36.734
36.707
36.684
36.663
36.646
36.63
36.616
36.603
36.59
36.576
36.561
36.544
36.525
36.502
36.477
36.449
36.42
36.39
36.36
36.331
36.305
36.282
36.263
36.247
36.233
36.223
36.214
36.206
36.199
36.193
36.188
36.184
36.18
36.177
36.174
36.173
36.174
36.175
36.177
36.178
36.179
36.178
36.175
36.169
36.161
36.15
36.136
36.121
36.105
36.089
36.073
36.058
36.045
36.033
36.024
36.016
36.009
36.002
35.994
35.984
35.973
35.96
35.944
35.926
35.906
35.885
35.862
35.837
35.812
35.786
35.759
35.73
35.699
35.667
35.634
35.599
35.565
35.53
35.497
35.464
35.434
35.406
35.381
35.357
35.335
35.316
35.298
35.282
35.269
35.257
35.248
35.24
35.233
35.226
35.22
35.214
35.207
35.199
35.191
35.182
35.172
35.163
35.153
35.143
35.133
35.122
35.112
35.103
35.094
35.085
35.078
35.07
35.063
35.055
35.047
35.037
35.026
35.014
35.001
34.989
34.976
34.963
34.952
34.942
34.934
34.927
34.922
34.916
34.911
34.905
34.899
34.892
34.884
34.875
34.866
34.858
34.851
34.844
34.838
34.832
34.826
34.821
34.814
34.807
34.799
34.789
34.777
34.763
34.749
34.735
34.721
34.709
34.698
34.689
34.683
34.68
34.679
34.679
34.681
34.683
34.684
34.684
34.68
34.672
34.659
34.643
34.624
34.605
34.586
34.568
34.554
34.542
34.535
34.531
34.53
34.531
34.534
34.538
34.541
34.543
34.544
34.543
34.539
34.534
34.527
34.52
34.512
34.506
34.5
34.496
34.493
34.491
34.491
34.491
34.491
34.492
34.493
34.492
34.49
34.487
34.483
34.476
34.468
34.459
34.448
34.436
34.422
34.407
34.391
34.374
34.357
34.341
34.327
34.316
34.307
34.302
34.301
34.306
34.317
34.335
34.363
34.4
34.449
34.51
34.585
34.673
34.774
34.889
35.018
35.16
35.313
35.476
35.645
35.818
35.991
36.162
36.329
36.488
36.637
36.773
36.895
37.001
37.091
37.164
37.222
37.263
37.287
37.298
37.294
37.279
37.254
37.219
37.178
37.132
37.084
37.036
36.989
36.944
36.901
36.861
36.825
36.792
36.762
36.735
36.71
36.689
36.67
36.655
36.643
36.634
36.629
36.626
36.626
36.626
36.626
36.625
36.622
36.615
36.603
36.586
36.565
36.54
36.512
36.484
36.455
36.427
36.4
36.374
36.349
36.324
36.298
36.271
36.243
36.214
36.185
36.156
36.129
36.104
36.083
36.067
36.056
36.049
36.048
36.05
36.056
36.064
36.075
36.088
36.101
36.112
36.123
36.131
36.135
36.133
36.126
36.114
36.098
36.079
36.059
36.037
36.016
35.997
35.979
35.962
35.948
35.935
35.924
35.913
35.901
35.889
35.875
35.858
35.839
35.819
35.798
35.776
35.754
35.731
35.708
35.685
35.663
35.642
35.62
35.599
35.576
35.554
35.531
35.508
35.484
35.461
35.439
35.418
35.4
35.383
35.369
35.356
35.344
35.333
35.321
35.31
35.298
35.286
35.274
35.263
35.253
35.243
35.234
35.224
35.215
35.206
35.197
35.186
35.174
35.159
35.142
35.122
35.102
35.081
35.061
35.041
35.023
35.007
34.995
34.987
34.982
34.98
34.981
34.982
34.983
34.984
34.982
34.978
34.972
34.962
34.95
34.937
34.922
34.908
34.895
34.883
34.874
34.867
34.862
34.859
34.856
34.852
34.848
34.842
34.835
34.826
34.816
34.804
34.791
34.777
34.764
34.751
34.739
34.728
34.718
34.709
34.701
34.694
34.687
34.68
34.672
34.663
34.654
34.645
34.634
34.622
34.608
34.593
34.578
34.565
34.553
34.542
34.534
34.527
34.523
34.52
34.519
34.52
34.522
34.525
34.529
34.532
34.535
34.536
34.535
34.532
34.529
34.524
34.519
34.513
34.507
34.501
34.495
34.488
34.482
34.476
34.471
34.466
34.461
34.456
34.45
34.442
34.434
34.423
34.412
34.4
34.388
34.377
34.367
34.357
34.35
34.344
34.339
34.336
34.333
34.33
34.327
34.324
34.32
34.315
34.308
34.301
34.295
34.29
34.289
34.293
34.304
34.323
34.352
34.392
34.443
34.505
34.579
34.664
34.761
34.869
34.988
35.118
35.257
35.406
35.563
35.728
35.899
36.076
36.255
36.432
36.601
36.758
36.899
37.021
37.122
37.2
37.255
37.289
37.302
37.298
37.279
37.248
37.207
37.161
37.111
37.058
37.005
36.953
36.903
36.854
36.809
36.768
36.732
36.701
36.675
36.655
36.639
36.628
36.621
36.615
36.612
36.608
36.605
36.601
36.595
36.587
36.576
36.563
36.547
36.529
36.508
36.486
36.463
36.438
36.413
36.388
36.363
36.338
36.312
36.287
36.261
36.236
36.211
36.186
36.162
36.139
36.116
36.095
36.075
36.058
36.045
36.036
36.031
36.03
36.033
36.041
36.051
36.065
36.08
36.096
36.11
36.123
36.133
36.14
36.145
36.147
36.146
36.143
36.137
36.128
36.117
36.104
36.088
36.07
36.051
36.031
36.01
35.987
35.965
35.942
35.92
35.897
35.876
35.854
35.832
35.81
35.787
35.764
35.739
35.713
35.686
35.659
35.633
35.609
35.587
35.567
35.549
35.534
35.521
35.511
35.501
35.492
35.483
35.472
35.46
35.446
35.431
35.414
35.396
35.376
35.355
35.336
35.32
35.306
35.294
35.286
35.28
35.276
35.273
35.269
35.264
35.257
35.249
35.239
35.228
35.216
35.203
35.191
35.179
35.168
35.157
35.147
35.137
35.129
35.122
35.116
35.112
35.108
35.105
35.102
35.098
35.094
35.089
35.083
35.077
35.069
35.06
35.05
35.04
35.029
35.017
35.007
34.996
34.987
34.978
34.969
34.961
34.953
34.945
34.938
34.932
34.926
34.92
34.913
34.907
34.901
34.894
34.887
34.879
34.872
34.865
34.859
34.852
34.845
34.835
34.822
34.807
34.791
34.774
34.758
34.743
34.73
34.719
34.71
34.704
34.7
34.697
34.696
34.697
34.698
34.699
34.7
34.7
34.699
34.696
34.691
34.685
34.677
34.667
34.656
34.645
34.636
34.627
34.62
34.614
34.609
34.604
34.599
34.594
34.588
34.58
34.571
34.56
34.547
34.533
34.518
34.503
34.488
34.475
34.463
34.454
34.448
34.447
34.45
34.458
34.47
34.487
34.51
34.538
34.574
34.618
34.67
34.733
34.805
34.887
34.981
35.085
35.202
35.329
35.465
35.608
35.755
35.905
36.055
36.202
36.343
36.475
36.597
36.706
36.802
36.883
36.951
37.005
37.048
37.078
37.099
37.11
37.114
37.11
37.101
37.085
37.065
37.04
37.011
36.979
36.945
36.909
36.872
36.834
36.798
36.764
36.732
36.703
36.677
36.654
36.635
36.619
36.607
36.597
36.589
36.582
36.576
36.569
36.562
36.554
36.544
36.531
36.517
36.5
36.482
36.46
36.435
36.408
36.378
36.345
36.311
36.277
36.243
36.21
36.179
36.151
36.126
36.105
36.087
36.072
36.06
36.05
36.042
36.037
36.034
36.033
36.034
36.037
36.043
36.052
36.064
36.078
36.092
36.107
36.12
36.132
36.141
36.146
36.148
36.146
36.14
36.131
36.121
36.108
36.095
36.081
36.067
36.052
36.037
36.019
35.999
35.977
35.951
35.923
35.894
35.863
35.833
35.804
35.775
35.746
35.719
35.693
35.667
35.643
35.62
35.598
35.577
35.558
35.54
35.523
35.507
35.49
35.474
35.458
35.441
35.424
35.406
35.387
35.368
35.349
35.33
35.312
35.294
35.276
35.258
35.241
35.225
35.211
35.198
35.188
35.179
35.171
35.165
35.16
35.157
35.155
35.155
35.156
35.159
35.163
35.169
35.174
35.177
35.179
35.178
35.175
35.169
35.159
35.145
35.127
35.108
35.087
35.066
35.046
35.026
35.009
34.995
34.984
34.976
34.971
34.969
34.968
34.968
34.967
34.966
34.964
34.96
34.954
34.947
34.939
34.931
34.923
34.915
34.907
34.898
34.89
34.88
34.87
34.859
34.847
34.834
34.821
34.808
34.795
34.782
34.77
34.759
34.75
34.743
34.738
34.735
34.732
34.73
34.727
34.723
34.726
34.738
34.758
34.784
34.813
34.842
34.867
34.886
34.897
34.898
34.891
34.876
34.854
34.829
34.799
34.767
34.734
34.701
34.668
34.637
34.608
34.581
34.557
34.536
34.519
34.506
34.497
34.489
34.484
34.48
34.478
34.476
34.475
34.474
34.473
34.471
34.467
34.461
34.452
34.443
34.433
34.423
34.416
34.411
34.408
34.408
34.411
34.417
34.428
34.442
34.462
34.488
34.522
34.565
34.618
34.682
34.757
34.842
34.938
35.045
35.161
35.286
35.42
35.56
35.705
35.854
36.003
36.152
36.297
36.437
36.568
36.69
36.8
36.899
36.987
37.064
37.129
37.182
37.221
37.248
37.262
37.265
37.255
37.235
37.206
37.168
37.125
37.076
37.025
36.973
36.92
36.87
36.823
36.782
36.747
36.718
36.697
36.682
36.672
36.667
36.664
36.664
36.664
36.664
36.663
36.66
36.656
36.652
36.647
36.64
36.633
36.623
36.612
36.599
36.587
36.574
36.561
36.546
36.53
36.512
36.492
36.469
36.445
36.42
36.394
36.369
36.344
36.32
36.296
36.273
36.251
36.231
36.213
36.197
36.182
36.169
36.158
36.15
36.143
36.139
36.137
36.137
36.138
36.14
36.143
36.145
36.148
36.15
36.151
36.145
36.133
36.113
36.086
36.054
36.019
35.982
35.946
35.912
35.881
35.855
35.833
35.816
35.804
35.795
35.79
35.787
35.785
35.782
35.777
35.769
35.758
35.744
35.727
35.707
35.684
35.659
35.632
35.605
35.578
35.552
35.527
35.504
35.484
35.467
35.453
35.441
35.431
35.421
35.41
35.399
35.388
35.378
35.368
35.358
35.35
35.341
35.331
35.322
35.311
35.301
35.29
35.278
35.265
35.251
35.236
35.221
35.207
35.193
35.18
35.167
35.156
35.146
35.137
35.13
35.124
35.117
35.11
35.102
35.093
35.084
35.075
35.066
35.059
35.052
35.048
35.045
35.044
35.044
35.045
35.046
35.045
35.043
35.039
35.031
35.021
35.008
34.992
34.973
34.953
34.931
34.911
34.891
34.874
34.858
34.844
34.832
34.821
34.812
34.804
34.796
34.788
34.78
34.772
34.763
34.755
34.747
34.741
34.735
34.73
34.726
34.723
34.72
34.718
34.716
34.714
34.712
34.711
34.709
34.708
34.706
34.703
34.698
34.693
34.686
34.677
34.667
34.655
34.643
34.63
34.618
34.607
34.597
34.587
34.58
34.574
34.57
34.568
34.566
34.565
34.565
34.566
34.568
34.57
34.571
34.572
34.571
34.568
34.563
34.557
34.549
34.539
34.527
34.513
34.498
34.482
34.465
34.448
34.432
34.417
34.405
34.396
34.391
34.39
34.393
34.401
34.415
34.435
34.463
34.498
34.541
34.594
34.656
34.728
34.812
34.906
35.013
35.132
35.263
35.403
35.553
35.708
35.867
36.026
36.181
36.331
36.473
36.603
36.719
36.82
36.904
36.973
37.027
37.066
37.092
37.106
37.107
37.098
37.08
37.054
37.021
36.983
36.941
36.895
36.848
36.802
36.757
36.716
36.679
36.647
36.621
36.6
36.584
36.573
36.565
36.559
36.555
36.551
36.547
36.543
36.539
36.535
36.529
36.522
36.513
36.502
36.488
36.472
36.451
36.428
36.401
36.372
36.342
36.309
36.275
36.24
36.203
36.168
36.133
36.101
36.071
36.046
36.024
36.007
35.994
35.986
35.982
35.982
35.986
35.994
36.004
36.016
36.029
36.043
36.056
36.068
36.08
36.092
36.102
36.112
36.12
