Trial 3:3back
36.038
36.012
35.983
35.954
35.925
35.896
35.87
35.846
35.824
35.804
35.787
35.772
35.759
35.748
35.74
35.733
35.728
35.724
35.72
35.717
35.713
35.709
35.704
35.698
35.69
35.679
35.666
35.65
35.631
35.609
35.585
35.559
35.53
35.5
35.47
35.439
35.408
35.378
35.35
35.324
35.301
35.281
35.263
35.249
35.238
35.231
35.226
35.224
35.224
35.226
35.229
35.233
35.238
35.244
35.249
35.253
35.257
35.259
35.259
35.256
35.251
35.243
35.233
35.222
35.208
35.194
35.178
35.162
35.146
35.129
35.113
35.097
35.081
35.065
35.049
35.031
35.013
34.994
34.973
34.953
34.932
34.91
34.889
34.868
34.847
34.826
34.806
34.786
34.767
34.749
34.732
34.717
34.702
34.689
34.677
34.667
34.658
34.651
34.645
34.641
34.639
34.636
34.633
34.63
34.625
34.618
34.609
34.599
34.586
34.572
34.557
34.54
34.521
34.503
34.484
34.467
34.451
34.437
34.425
34.416
34.409
34.405
34.406
34.41
34.42
34.436
34.459
34.49
34.53
34.579
34.637
34.705
34.782
34.867
34.959
35.056
35.157
35.26
35.364
35.467
35.568
35.664
35.756
35.841
35.917
35.985
36.042
36.089
36.125
36.152
36.17
36.179
36.18
36.175
36.164
36.149
36.13
36.109
36.086
36.063
36.04
36.019
35.999
35.982
35.966
35.952
35.941
35.931
35.923
35.916
35.909
35.902
35.895
35.887
35.879
35.869
35.858
35.846
35.833
35.818
35.802
35.785
35.767
35.747
35.727
35.707
35.685
35.662
35.639
35.615
35.589
35.564
35.538
35.513
35.489
35.466
35.446
35.428
35.412
35.4
35.39
35.384
35.381
35.38
35.381
35.384
35.387
35.391
35.394
35.397
35.399
35.4
35.399
35.396
35.391
35.384
35.374
35.362
35.347
35.332
35.315
35.297
35.279
35.261
35.243
35.225
35.209
35.193
35.177
35.162
35.148
35.133
35.119
35.104
35.091
35.077
35.064
35.052
35.041
35.03
35.02
35.01
35.002
34.993
34.986
34.978
34.971
34.963
34.955
34.946
34.937
34.928
34.918
34.908
34.898
34.887
34.876
34.866
34.855
34.844
34.833
34.822
34.812
34.801
34.79
34.78
34.769
34.759
34.748
34.737
34.726
34.714
34.702
34.691
34.68
34.67
34.662
34.655
34.65
34.647
34.647
34.651
34.658
34.669
34.686
34.709
34.739
34.776
34.822
34.876
34.938
35.008
35.086
35.17
35.26
35.355
35.452
35.552
35.651
35.749
35.843
35.931
36.012
36.085
36.149
36.203
36.246
36.279
36.302
36.314
36.317
36.311
36.299
36.281
36.259
36.235
36.21
36.185
36.162
36.141
36.123
36.107
36.093
36.081
36.07
36.061
36.052
36.044
36.035
36.025
36.015
36.004
35.992
35.978
35.963
35.946
35.928
35.908
35.887
35.865
35.843
35.82
35.796
35.772
35.746
35.72
35.694
35.668
35.643
35.618
35.595
35.574
35.555
35.538
35.523
35.511
35.501
35.494
35.489
35.485
35.484
35.484
35.486
35.488
35.491
35.494
35.496
35.496
35.495
35.493
35.488
35.482
35.472
35.46
35.446
35.429
35.411
35.391
35.371
35.35
35.33
35.31
35.291
35.274
35.257
35.242
35.228
35.215
35.202
35.189
35.176
35.162
35.149
35.136
35.122
35.108
35.094
35.079
35.065
35.049
35.033
35.017
35.001
34.986
34.972
34.958
34.945
34.933
34.922
34.911
34.9
34.89
34.879
34.867
34.855
34.842
34.828
34.812
34.796
34.778
34.76
34.741
34.722
34.704
34.686
34.669
34.653
34.638
34.625
34.614
34.605
34.597
34.591
34.587
34.583
34.58
34.575
34.57
34.564
34.555
34.544
34.53
34.513
34.494
34.473
34.451
34.428
34.406
34.385
34.367
34.353
34.344
34.34
34.342
34.352
34.371
34.398
34.435
34.482
34.539
34.605
34.681
34.765
34.856
34.954
35.056
35.162
35.27
35.376
35.479
35.575
35.664
35.744
35.813
35.87
35.916
35.949
35.97
35.981
35.981
35.971
35.955
35.932
35.904
35.873
35.839
35.804
35.769
35.734
35.701
35.67
35.641
35.616
35.594
35.574
35.557
35.542
35.529
35.517
35.507
35.498
35.489
35.481
35.473
35.464
35.455
35.445
35.433
35.418
35.402
35.384
35.365
35.345
35.323
35.301
35.279
35.255
35.231
35.208
35.184
35.161
35.14
35.119
35.101
35.085
35.072
35.062
35.056
35.052
35.051
35.054
35.059
35.066
35.076
35.087
35.098
35.109
35.118
35.126
35.132
35.136
35.138
35.137
35.135
35.13
35.124
35.116
35.107
35.096
35.084
35.071
35.057
35.043
35.029
35.015
35.0
34.986
34.971
34.956
34.941
34.926
34.911
34.896
34.881
34.866
34.851
34.835
34.819
34.803
34.788
34.772
34.757
34.743
34.729
34.717
34.704
34.692
34.681
34.669
34.658
34.647
34.636
34.625
34.614
34.604
34.594
34.583
34.572
34.561
34.549
34.536
34.523
34.509
34.495
34.482
34.469
34.457
34.445
34.434
34.424
34.414
34.404
34.395
34.386
34.377
34.369
34.36
34.352
34.345
34.339
34.333
34.329
34.326
34.324
34.323
34.324
34.326
34.329
34.332
34.335
34.337
34.338
34.338
34.339
34.339
34.339
34.34
34.341
34.342
34.344
34.346
34.349
34.354
34.362
34.374
34.391
34.415
34.447
34.487
34.535
34.592
34.658
34.732
34.813
34.9
34.993
35.089
35.188
35.286
35.383
35.476
35.563
35.643
35.715
35.776
35.826
35.864
35.89
35.904
35.907
35.899
35.882
35.857
35.824
35.784
35.739
35.689
35.635
35.579
35.522
35.464
35.408
35.354
35.304
35.258
35.218
35.183
35.155
35.131
35.113
35.099
35.089
35.081
35.075
35.07
35.064
35.057
35.047
35.035
35.019
34.999
34.974
34.946
34.915
34.881
34.845
34.808
34.771
34.735
34.7
34.666
34.636
34.61
34.588
34.57
34.557
34.55
34.546
34.548
34.554
34.563
34.577
34.593
34.611
34.631
34.652
34.673
34.693
34.712
34.728
34.743
34.755
34.764
34.77
34.773
34.774
34.772
34.768
34.762
34.754
34.745
34.734
34.722
34.71
34.697
34.684
34.672
34.66
34.648
34.638
34.628
34.621
34.614
34.608
34.602
34.597
34.592
34.587
34.583
34.579
34.575
34.573
34.57
34.568
34.565
34.562
34.558
34.554
34.55
34.545
34.54
34.535
34.53
34.525
34.52
34.515
34.51
34.505
34.5
34.494
34.487
34.478
34.469
34.458
34.445
34.433
34.42
34.409
34.398
34.389
34.383
34.378
34.376
34.375
34.376
34.378
34.381
34.383
34.385
34.386
34.385
34.383
34.379
34.373
34.365
34.357
34.348
34.339
34.329
34.321
34.314
34.31
34.309
34.314
34.325
34.343
34.369
34.404
34.447
34.499
34.56
34.629
34.705
34.786
34.872
34.96
35.048
35.135
35.218
35.297
35.371
35.438
35.498
35.548
35.59
35.622
35.644
35.656
35.659
35.653
35.639
35.619
35.592
35.561
35.528
35.493
35.457
35.422
35.388
35.356
35.326
35.298
35.272
35.249
35.227
35.206
35.186
35.167
35.148
35.13
35.112
35.094
35.077
35.06
35.043
35.026
35.009
34.991
34.973
34.953
34.933
34.911
34.888
34.865
34.842
34.819
34.796
34.774
34.754
34.735
34.719
34.706
34.696
34.69
34.687
34.688
34.693
34.7
34.71
34.721
34.734
34.747
34.76
34.774
34.787
34.8
34.811
34.821
34.83
34.836
34.84
34.842
34.842
34.841
34.837
34.833
34.827
34.82
34.813
34.806
34.799
34.792
34.786
34.78
34.772
34.764
34.754
34.742
34.728
34.713
34.695
34.677
34.659
34.64
34.622
34.604
34.586
34.569
34.552
34.536
34.521
34.507
34.494
34.482
34.471
34.46
34.451
34.441
34.432
34.422
34.412
34.402
34.391
34.38
34.368
34.355
34.342
34.328
34.313
34.298
34.282
34.266
34.25
34.235
34.219
34.204
34.19
34.177
34.165
34.154
34.145
34.138
34.134
34.133
34.134
34.138
34.145
34.155
34.17
34.189
34.214
34.245
34.283
34.328
34.381
34.441
34.509
34.583
34.663
34.748
34.835
34.924
35.012
35.098
35.18
35.256
35.325
35.387
35.439
35.481
35.514
35.538
35.552
35.559
35.557
35.55
35.538
35.522
35.503
35.483
35.462
35.442
35.422
35.403
35.386
35.371
35.357
35.344
35.332
35.32
35.308
35.297
35.285
35.274
35.262
35.249
35.234
35.219
35.202
35.184
35.166
35.147
35.127
35.107
35.086
35.064
35.041
35.016
34.991
34.965
34.939
34.914
34.891
34.87
34.851
34.834
34.82
34.808
34.799
34.792
34.787
34.784
34.782
34.782
34.782
34.784
34.786
34.788
34.79
34.791
34.791
34.789
34.785
34.78
34.771
34.761
34.749
34.735
34.72
34.703
34.686
34.668
34.652
34.636
34.623
34.611
34.6
34.591
34.584
34.577
34.572
34.566
34.561
34.556
34.551
34.545
34.538
34.531
34.523
34.513
34.504
34.494
34.483
34.473
34.463
34.453
34.443
34.433
34.424
34.415
34.405
34.396
34.387
34.378
34.369
34.361
34.353
34.345
34.338
34.331
34.324
34.317
34.31
34.302
34.293
34.284
34.275
34.265
34.255
34.246
34.238
34.23
34.224
34.22
34.217
34.216
34.216
34.218
34.223
34.231
34.243
34.26
34.283
34.313
34.351
34.397
34.453
34.518
34.593
34.676
34.766
34.862
34.962
35.065
35.167
35.266
35.361
35.449
35.528
35.597
35.656
35.704
35.741
35.767
35.784
35.791
35.79
35.782
35.767
35.746
35.721
35.694
35.665
35.634
35.605
35.576
35.548
35.522
35.499
35.478
35.458
35.441
35.424
35.409
35.394
35.379
35.364
35.35
35.335
35.319
35.304
35.288
35.272
35.255
35.238
35.219
35.2
35.18
35.159
35.137
35.114
35.091
35.068
35.044
35.021
35.0
34.98
34.962
34.947
34.935
34.924
34.916
34.91
34.905
34.901
34.898
34.896
34.894
34.892
34.89
34.888
34.886
34.883
34.88
34.877
34.873
34.869
34.866
34.862
34.858
34.853
34.849
34.844
34.838
34.832
34.825
34.817
34.809
34.801
34.792
34.782
34.773
34.763
34.753
34.743
34.733
34.723
34.713
34.702
34.692
34.682
34.672
34.662
34.652
34.641
34.631
34.62
34.61
34.6
34.59
34.581
34.572
34.565
34.56
34.556
34.555
34.554
34.555
34.557
34.558
34.557
34.556
34.552
34.545
34.535
34.522
34.507
34.489
34.471
34.45
34.43
34.409
34.389
34.37
34.353
34.338
34.327
34.318
34.315
34.316
34.323
34.337
34.359
34.388
34.426
34.473
34.529
34.593
34.665
34.745
34.83
34.922
35.017
35.115
35.214
35.311
35.407
35.498
35.583
35.661
35.73
35.789
35.838
35.877
35.906
35.925
35.936
35.938
35.934
35.923
35.906
35.885
35.862
35.836
35.809
35.782
35.755
35.729
35.705
35.683
35.663
35.646
35.63
35.617
35.604
35.593
35.582
35.57
35.558
35.545
35.531
35.516
35.501
35.485
35.469
35.453
35.436
35.418
35.4
35.381
35.361
35.34
35.319
35.297
35.275
35.253
35.232
35.212
35.193
35.176
35.161
35.148
35.137
35.128
35.123
35.12
35.12
35.122
35.127
35.134
35.142
35.15
35.159
35.166
35.172
35.177
35.181
35.183
35.184
35.184
35.182
35.179
35.175
35.169
35.163
35.155
35.145
35.133
35.119
35.104
35.087
35.07
35.051
35.032
35.012
34.993
34.974
34.956
34.939
34.922
34.907
34.893
34.88
34.868
34.858
34.848
34.839
34.831
34.823
34.816
34.809
34.802
34.796
34.79
34.784
34.78
34.775
34.771
34.767
34.763
34.757
34.751
34.743
34.734
34.723
34.711
34.697
34.682
34.667
34.651
34.635
34.618
34.602
34.586
34.571
34.556
34.542
34.529
34.517
34.508
34.501
34.497
34.497
34.502
34.513
34.531
34.556
34.591
34.636
34.691
34.756
34.831
34.917
35.011
35.112
35.218
35.327
35.437
35.544
35.647
35.745
35.835
35.916
35.987
36.048
36.097
36.135
36.162
36.178
36.185
36.182
36.171
36.154
36.132
36.106
36.078
36.049
36.019
35.99
35.962
35.937
35.914
35.894
35.877
35.862
35.85
35.838
35.829
35.819
35.81
35.8
35.789
35.778
35.765
35.752
35.739
35.724
35.709
35.693
35.675
35.656
35.635
35.613
35.59
35.566
35.54
35.515
35.489
35.464
35.44
35.417
35.397
35.38
35.365
35.353
35.343
35.336
35.332
35.33
35.33
35.332
35.335
35.34
35.345
35.352
35.359
35.366
35.373
35.379
35.384
35.386
35.385
35.383
35.377
35.369
35.359
35.346
35.331
35.315
35.298
35.28
35.262
35.244
35.227
35.21
35.193
35.178
35.162
35.148
35.134
35.121
35.108
35.095
35.082
35.069
35.055
35.041
35.026
35.012
34.997
34.982
34.968
34.955
34.943
34.933
34.924
34.916
34.909
34.903
34.897
34.891
34.886
34.881
34.876
34.873
34.869
34.866
34.863
34.859
34.854
34.849
34.842
34.833
34.822
34.81
34.795
34.779
34.761
34.742
34.723
34.704
34.685
34.667
34.65
34.636
34.624
34.616
34.614
34.617
34.627
34.646
34.672
34.708
34.753
34.808
34.873
34.946
35.028
35.117
35.214
35.316
35.422
35.531
35.64
35.748
35.852
35.951
36.042
36.124
36.196
36.256
36.305
36.343
36.369
36.385
36.391
36.388
36.376
36.358
36.333
36.305
36.274
36.241
36.209
36.177
36.148
36.121
36.099
36.079
36.063
36.049
36.037
36.027
36.018
36.009
36.0
35.991
35.981
35.971
35.961
35.949
35.936
35.922
35.906
35.888
35.868
35.847
35.825
35.801
35.778
35.754
35.731
35.708
35.686
35.665
35.646
35.628
35.611
35.597
35.586
35.576
35.569
35.565
35.564
35.564
35.567
35.571
35.576
35.581
35.587
35.592
35.598
35.603
35.608
35.613
35.618
35.623
35.627
35.63
35.632
35.632
35.631
35.629
35.624
35.618
35.611
35.601
35.59
35.578
35.564
35.549
35.533
35.517
35.501
35.485
35.468
35.452
35.436
35.419
35.404
35.388
35.374
35.36
35.347
35.335
35.323
35.311
35.3
35.289
35.279
35.269
35.26
35.252
35.244
35.237
35.23
35.224
35.218
35.212
35.205
35.198
35.189
35.179
35.168
35.154
35.137
35.119
35.1
35.079
35.058
35.037
35.017
34.996
34.976
34.958
34.94
34.924
34.91
34.9
34.894
34.892
34.897
34.909
34.928
34.955
34.991
35.036
35.092
35.157
35.232
35.316
35.409
35.509
35.615
35.724
35.834
35.944
36.052
36.154
36.25
36.337
36.415
36.482
36.537
36.581
36.613
36.635
36.646
36.648
36.642
36.629
36.61
36.588
36.562
36.536
36.508
36.481
36.455
36.43
36.406
36.384
36.363
36.344
36.326
36.311
36.297
36.284
36.271
36.259
36.247
36.234
36.22
36.206
36.191
36.175
36.157
36.139
36.119
36.099
36.079
36.059
36.039
36.02
36.001
35.982
35.965
35.948
35.933
35.919
35.907
35.896
35.886
35.879
35.873
35.869
35.866
35.865
35.866
35.869
35.872
35.876
35.881
35.885
35.889
35.893
35.895
35.897
35.898
35.897
35.895
35.891
35.886
35.88
35.873
35.865
35.856
35.847
35.838
35.828
35.818
35.807
35.795
35.783
35.771
35.759
35.746
35.732
35.717
35.701
35.685
35.667
35.649
35.63
35.612
35.595
35.578
35.562
35.546
35.531
35.517
35.504
35.491
35.479
35.466
35.454
35.441
35.427
35.413
35.399
35.384
35.368
35.351
35.334
35.315
35.297
35.279
35.263
35.247
35.233
35.221
35.21
35.202
35.195
35.19
35.187
35.187
35.19
35.196
35.208
35.224
35.247
35.276
35.312
35.357
35.409
35.47
35.539
35.614
35.696
35.783
35.874
35.967
36.062
36.157
36.249
36.337
36.421
36.498
36.567
36.629
36.681
36.725
36.758
36.783
36.799
36.806
36.805
36.797
36.783
36.765
36.744
36.721
36.697
36.673
36.649
36.627
36.606
36.586
36.566
36.548
36.53
36.513
36.497
36.481
36.465
36.45
36.435
36.419
36.403
36.386
36.367
36.347
36.325
36.301
36.274
36.246
36.217
36.186
36.155
36.124
36.095
36.067
36.042
36.019
35.998
35.981
35.966
35.955
35.946
35.94
35.937
35.936
35.938
35.942
35.948
35.955
35.963
35.97
35.978
35.984
35.988
35.991
35.991
35.988
35.982
35.973
35.961
35.946
35.93
35.911
35.891
35.869
35.846
35.823
35.799
35.775
35.752
35.729
35.708
35.688
35.669
35.652
35.636
35.622
35.609
35.596
35.583
35.571
35.558
35.545
35.531
35.517
35.503
35.489
35.474
35.459
35.444
35.428
35.412
35.395
35.379
35.362
35.344
35.326
35.307
35.288
35.269
35.251
35.232
35.214
35.196
35.178
35.16
35.142
35.124
35.107
35.09
35.075
35.063
35.053
35.046
35.042
35.043
35.049
35.06
35.078
35.103
35.137
35.179
35.232
35.293
35.364
35.443
35.529
35.62
35.715
35.813
35.912
36.01
36.106
36.199
36.287
36.369
36.443
36.51
36.567
36.616
36.655
36.686
36.708
36.722
36.73
36.732
36.728
36.719
36.707
36.692
36.676
36.658
36.64
36.622
36.606
36.59
36.576
36.562
36.549
36.537
36.525
36.514
36.502
36.491
36.479
36.467
36.454
36.441
36.428
36.414
36.4
36.385
36.369
36.351
36.332
36.311
36.289
36.267
36.244
36.22
36.197
36.175
36.153
36.133
36.113
36.096
36.081
36.067
36.056
36.048
36.043
36.04
36.039
36.04
36.043
36.047
36.052
36.056
36.06
36.062
36.063
36.062
36.059
36.053
36.044
36.033
36.019
36.003
35.984
35.964
35.942
35.921
35.899
35.878
35.858
35.839
35.821
35.804
35.787
35.773
35.759
35.745
35.732
35.719
35.704
35.689
35.672
35.654
35.635
35.615
35.594
35.571
35.548
35.524
35.501
35.478
35.457
35.436
35.417
35.399
35.383
35.367
35.353
35.339
35.325
35.312
35.298
35.284
35.269
35.254
35.237
35.22
35.201
35.182
35.163
35.145
35.127
35.111
35.097
35.085
35.076
35.071
35.068
35.07
35.077
35.09
35.109
35.135
35.17
35.213
35.266
35.328
35.399
35.479
35.566
35.66
35.758
35.86
35.963
36.066
36.168
36.267
36.361
36.449
36.53
36.604
36.668
36.721
36.765
36.799
36.823
36.838
36.846
36.847
36.841
36.831
36.816
36.799
36.781
36.761
36.741
36.72
36.701
36.683
36.666
36.651
36.638
36.626
36.616
36.607
36.598
36.589
36.579
36.568
36.556
36.542
36.527
36.51
36.492
36.472
36.452
36.431
36.408
36.383
36.357
36.328
36.299
36.268
36.239
36.21
36.183
36.157
36.134
36.113
36.094
36.078
36.063
36.05
36.039
36.03
36.022
36.017
36.013
36.01
36.008
36.007
36.005
36.004
36.002
35.999
35.996
35.991
35.986
35.98
35.973
35.965
35.955
35.944
35.931
35.917
35.9
35.882
35.862
35.841
35.819
35.797
35.775
35.752
35.729
35.707
35.685
35.663
35.641
35.62
35.6
35.58
35.561
35.543
35.524
35.505
35.486
35.467
35.446
35.425
35.404
35.383
35.362
35.343
35.325
35.308
35.292
35.278
35.265
35.253
35.241
35.229
35.216
35.204
35.191
35.177
35.162
35.148
35.133
35.117
35.101
35.084
35.068
35.051
35.034
35.018
35.002
34.987
34.972
34.958
34.943
34.929
34.915
34.903
34.891
34.882
34.876
34.875
34.878
34.888
34.906
34.933
34.969
35.016
35.073
35.142
35.221
35.309
35.404
35.506
35.611
35.719
35.827
35.933
36.034
36.13
36.218
36.297
36.366
36.424
36.471
36.505
36.529
36.541
36.542
36.535
36.519
36.497
36.47
36.439
36.405
36.371
36.337
36.305
36.275
36.248
36.223
36.202
36.182
36.165
36.15
36.136
36.124
36.113
36.103
36.094
36.085
36.076
36.067
36.058
36.048
36.036
36.024
36.009
35.992
35.972
35.951
35.927
35.901
35.874
35.845
35.815
35.784
35.752
35.72
35.689
35.659
35.631
35.606
35.583
35.563
35.546
35.532
35.52
35.512
35.507
35.504
35.504
35.505
35.507
35.51
35.513
35.516
35.519
35.522
35.523
35.522
35.519
35.514
35.507
35.497
35.486
35.472
35.458
35.443
35.426
35.409
35.39
35.37
35.349
35.328
35.305
35.282
35.258
35.233
35.208
35.182
35.156
35.13
35.105
35.08
35.056
35.034
35.014
34.996
34.979
34.963
34.949
34.935
34.922
34.909
34.897
34.884
34.871
34.858
34.845
34.831
34.817
34.802
34.788
34.773
34.758
34.742
34.726
34.709
34.692
34.674
34.657
34.64
34.624
34.609
34.595
34.582
34.571
34.562
34.555
34.548
34.543
34.539
34.535
34.53
34.525
34.517
34.508
34.498
34.485
34.47
34.454
34.435
34.415
34.395
34.374
34.354
34.336
34.321
34.31
34.305
34.307
34.317
34.334
34.361
34.396
34.441
34.495
34.558
34.63
34.709
34.795
34.885
34.978
35.072
35.166
35.257
35.344
35.425
35.499
35.565
35.621
35.666
35.702
35.727
35.742
35.748
35.745
35.734
35.716
35.694
35.668
35.64
35.612
35.584
35.558
35.533
35.512
35.493
35.477
35.463
35.453
35.444
35.437
35.432
35.429
35.426
35.423
35.42
35.415
35.41
35.402
35.392
35.38
35.366
35.35
35.331
35.311
35.29
35.266
35.242
35.217
35.192
35.167
35.143
35.119
35.096
35.074
35.053
35.035
35.018
35.004
34.993
