Trial 3:3back
37.359
37.755
38.122
38.454
38.747
38.999
39.207
39.37
39.488
39.562
39.595
39.589
39.548
39.476
39.378
39.257
39.117
38.964
38.799
38.627
38.45
38.271
38.092
37.915
37.74
37.568
37.4
37.237
37.077
36.921
36.767
36.615
36.465
36.317
36.172
36.029
35.889
35.75
35.614
35.478
35.343
35.208
35.073
34.938
34.805
34.675
34.547
34.424
34.306
34.193
34.087
33.988
33.897
33.816
33.745
33.686
33.639
33.606
33.587
33.582
33.591
33.614
33.65
33.697
33.755
33.823
33.899
33.982
34.071
34.166
34.264
34.365
34.467
34.569
34.669
34.766
34.859
34.946
35.026
35.097
35.159
35.212
35.255
35.287
35.311
35.326
35.333
35.332
35.324
35.309
35.288
35.261
35.226
35.185
35.137
35.082
35.022
34.956
34.886
34.813
34.736
34.656
34.575
34.494
34.412
34.333
34.255
34.18
34.109
34.04
33.974
33.911
33.85
33.79
33.733
33.677
33.62
33.564
33.508
33.451
33.393
33.337
33.281
33.225
33.17
33.115
33.062
33.009
32.959
32.91
32.864
32.82
32.78
32.742
32.706
32.671
32.638
32.606
32.574
32.544
32.514
32.485
32.457
32.43
32.405
32.383
32.365
32.353
32.351
32.36
32.384
32.425
32.488
32.576
32.693
32.843
33.03
33.256
33.522
33.827
34.169
34.544
34.947
35.372
35.81
36.256
36.698
37.131
37.544
37.931
38.285
38.6
38.871
39.096
39.275
39.407
39.494
39.538
39.542
39.511
39.448
39.357
39.244
39.112
38.966
38.809
38.644
38.475
38.302
38.128
37.954
37.781
37.611
37.445
37.283
37.125
36.972
36.823
36.678
36.536
36.397
36.26
36.123
35.988
35.853
35.719
35.585
35.452
35.319
35.186
35.054
34.923
34.792
34.662
34.535
34.411
34.291
34.177
34.07
33.971
33.882
33.805
33.74
33.688
33.651
33.629
33.621
33.628
33.648
33.682
33.728
33.786
33.855
33.932
34.018
34.11
34.207
34.308
34.41
34.511
34.609
34.704
34.794
34.879
34.958
35.03
35.094
35.152
35.201
35.243
35.278
35.304
35.323
35.333
35.335
35.329
35.316
35.296
35.268
35.235
35.195
35.151
35.102
35.05
34.993
34.934
34.872
34.809
34.744
34.679
34.613
34.547
34.482
34.418
34.352
34.286
34.22
34.152
34.084
34.016
33.949
33.883
33.819
33.757
33.697
33.638
33.581
33.526
33.471
33.418
33.364
33.311
33.258
33.204
33.149
33.094
33.038
32.983
32.929
32.877
32.827
32.779
32.734
32.692
32.654
32.622
32.598
32.582
32.578
32.589
32.618
32.67
32.748
32.856
32.998
33.176
33.391
33.645
33.937
34.264
34.623
35.01
35.418
35.84
36.267
36.692
37.106
37.5
37.868
38.202
38.499
38.755
38.967
39.133
39.256
39.336
39.375
39.378
39.347
39.289
39.206
39.104
38.986
38.856
38.716
38.569
38.418
38.263
38.106
37.949
37.792
37.637
37.482
37.33
37.179
37.029
36.881
36.733
36.586
36.44
36.295
36.149
36.004
35.858
35.712
35.563
35.412
35.258
35.101
34.942
34.78
34.617
34.454
34.292
34.132
33.976
33.825
33.681
33.543
33.414
33.295
33.187
33.092
33.01
32.943
32.891
32.854
32.833
32.827
32.838
32.863
32.903
32.954
33.017
33.089
33.17
33.258
33.35
33.446
33.542
33.635
33.721
33.801
33.876
33.947
34.014
34.081
34.146
34.212
34.278
34.345
34.41
34.472
34.531
34.585
34.633
34.674
34.707
34.731
34.746
34.751
34.747
34.733
34.711
34.681
34.644
34.6
34.55
34.495
34.436
34.373
34.308
34.243
34.178
34.113
34.049
33.988
33.927
33.867
33.809
33.75
33.693
33.637
33.583
33.529
33.477
33.425
33.375
33.325
33.276
33.231
33.192
33.16
33.134
33.112
33.091
33.07
33.047
33.021
32.989
32.952
32.91
32.863
32.814
32.762
32.71
32.659
32.61
32.566
32.528
32.498
32.48
32.476
32.488
32.521
32.577
32.66
32.774
32.922
33.105
33.327
33.589
33.89
34.228
34.6
35.003
35.429
35.873
36.325
36.779
37.225
37.657
38.066
38.445
38.79
39.095
39.357
39.573
39.743
39.866
39.945
39.982
39.981
39.946
39.881
39.79
39.678
39.548
39.403
39.249
39.088
38.923
38.756
38.588
38.422
38.257
38.093
37.931
37.772
37.615
37.459
37.304
37.15
36.997
36.844
36.69
36.537
36.383
36.229
36.076
35.922
35.77
35.618
35.467
35.318
35.172
35.03
34.894
34.763
34.639
34.523
34.417
34.322
34.237
34.164
34.104
34.058
34.026
34.009
34.005
34.016
34.039
34.076
34.124
34.184
34.254
34.333
34.422
34.518
34.621
34.727
34.834
34.94
35.043
35.142
35.235
35.322
35.402
35.474
35.539
35.597
35.648
35.692
35.729
35.758
35.779
35.792
35.798
35.796
35.787
35.771
35.749
35.721
35.688
35.649
35.605
35.556
35.503
35.447
35.388
35.327
35.265
35.202
35.139
35.074
35.008
34.941
34.873
34.803
34.732
34.66
34.589
34.519
34.45
34.383
34.316
34.251
34.187
34.124
34.061
33.998
33.931
33.862
33.792
33.721
33.651
33.583
33.52
33.46
33.405
33.356
33.312
33.274
33.241
33.211
33.185
33.161
33.139
33.119
33.101
33.088
33.081
33.084
33.101
33.135
33.192
33.276
33.391
33.539
33.724
33.948
34.21
34.509
34.842
35.204
35.59
35.995
36.41
36.829
37.243
37.644
38.025
38.379
38.7
38.984
39.228
39.43
39.591
39.71
39.789
39.83
39.837
39.811
39.758
39.68
39.583
39.47
39.345
39.21
39.069
38.922
38.773
38.623
38.473
38.323
38.175
38.028
37.884
37.741
37.6
37.461
37.324
37.188
37.054
36.92
36.787
36.656
36.524
36.393
36.261
36.128
35.995
35.862
35.729
35.598
35.469
35.344
35.224
35.109
35.0
34.895
34.798
34.707
34.625
34.553
34.492
34.444
34.408
34.386
34.38
34.388
34.41
34.446
34.494
34.552
34.621
34.699
34.785
34.877
34.972
35.069
35.166
35.264
35.358
35.449
35.534
35.612
35.683
35.745
35.799
35.845
35.881
35.908
35.926
35.935
35.934
35.926
35.909
35.885
35.854
35.817
35.776
35.731
35.683
35.631
35.578
35.523
35.467
35.409
35.351
35.293
35.234
35.176
35.118
35.062
35.005
34.948
34.89
34.831
34.77
34.709
34.647
34.584
34.52
34.457
34.393
34.331
34.269
34.21
34.152
34.096
34.043
33.991
33.942
33.893
33.846
33.799
33.75
33.7
33.649
33.598
33.547
33.497
33.449
33.402
33.358
33.318
33.282
33.251
33.228
33.213
33.21
33.222
33.251
33.303
33.381
33.489
33.632
33.812
34.032
34.291
34.589
34.924
35.292
35.688
36.105
36.536
36.972
37.406
37.828
38.232
38.611
38.958
39.269
39.54
39.768
39.953
40.094
40.192
40.251
40.274
40.263
40.221
40.154
40.065
39.959
39.841
39.712
39.578
39.439
39.296
39.152
39.007
38.862
38.716
38.571
38.425
38.281
38.138
37.998
37.859
37.723
37.59
37.461
37.336
37.215
37.098
36.984
36.873
36.763
36.653
36.542
36.431
36.318
36.205
36.091
35.979
35.868
35.76
35.656
35.557
35.462
35.375
35.295
35.223
35.159
35.105
35.061
35.028
35.006
34.995
34.994
35.004
35.025
35.056
35.096
35.145
35.201
35.263
35.329
35.399
35.471
35.543
35.615
35.686
35.754
35.819
35.879
35.934
35.983
36.026
36.062
36.092
36.115
36.13
36.137
36.136
36.127
36.111
36.087
36.056
36.019
35.976
35.928
35.875
35.819
35.759
35.696
35.629
35.561
35.491
35.42
35.349
35.278
35.205
35.133
35.06
34.988
34.917
34.848
34.781
34.716
34.653
34.591
34.531
34.472
34.415
34.359
34.304
34.25
34.198
34.146
34.096
34.047
34.0
33.955
33.911
33.869
33.828
33.787
33.747
33.707
33.669
33.631
33.594
33.556
33.52
33.483
33.448
33.415
33.383
33.353
33.326
33.302
33.284
33.271
33.266
33.271
33.289
33.325
33.381
33.464
33.575
33.719
33.899
34.117
34.376
34.673
35.007
35.374
35.769
36.183
36.611
37.042
37.47
37.886
38.282
38.65
38.987
39.286
39.545
39.762
39.935
40.066
40.156
40.207
40.224
40.209
40.166
40.098
40.008
39.902
39.782
39.652
39.515
39.371
39.224
39.074
38.924
38.774
38.626
38.481
38.339
38.2
38.065
37.934
37.806
37.683
37.564
37.447
37.333
37.221
37.109
36.997
36.885
36.772
36.66
36.547
36.433
36.32
36.207
36.094
35.983
35.875
35.77
35.668
35.57
35.476
35.387
35.306
35.231
35.164
35.106
35.057
35.018
34.99
34.974
34.968
34.973
34.988
35.014
35.049
35.093
35.145
35.203
35.266
35.332
35.4
35.469
35.538
35.607
35.674
35.739
35.8
35.857
35.908
35.953
35.99
36.019
36.041
36.054
36.059
36.056
36.045
36.025
35.999
35.965
35.924
35.877
35.826
35.769
35.709
35.646
35.581
35.515
35.446
35.375
35.303
35.229
35.155
35.082
35.008
34.935
34.863
34.791
34.722
34.654
34.589
34.525
34.462
34.4
34.34
34.281
34.222
34.164
34.105
34.046
33.989
33.934
33.88
33.829
33.78
33.733
33.688
33.644
33.601
33.56
33.52
33.481
33.445
33.41
33.377
33.347
33.319
33.294
33.271
33.251
33.232
33.216
33.202
33.189
33.178
33.168
33.159
33.15
33.142
33.135
33.128
33.122
33.115
33.107
33.098
33.089
33.079
33.07
33.063
33.058
33.059
33.068
33.089
33.126
33.182
33.263
33.372
33.515
33.694
33.911
34.169
34.466
34.8
35.167
35.562
35.977
36.404
36.835
37.262
37.677
38.072
38.442
38.781
39.083
39.346
39.568
39.747
39.883
39.978
40.034
40.052
40.037
39.991
39.917
39.819
39.703
39.571
39.428
39.277
39.122
38.964
38.806
38.65
38.496
38.346
38.201
38.061
37.927
37.797
37.672
37.55
37.431
37.315
37.201
37.088
36.976
36.863
36.75
36.635
36.52
36.404
36.287
36.169
36.051
35.935
35.821
35.71
35.601
35.497
35.396
35.3
35.208
35.122
35.042
34.969
34.903
34.847
34.801
34.767
34.745
34.735
34.738
34.754
34.781
34.82
34.869
34.925
34.987
35.055
35.126
35.199
35.271
35.342
35.411
35.477
35.54
35.6
35.656
35.707
35.752
35.791
35.822
35.846
35.862
35.869
35.868
35.858
35.841
35.817
35.787
35.753
35.713
35.668
35.62
35.567
35.511
35.451
35.389
35.323
35.255
35.185
35.112
35.039
34.966
34.894
34.823
34.755
34.689
34.624
34.562
34.501
34.442
34.382
34.322
34.262
34.201
34.138
34.075
34.011
33.947
33.884
33.821
33.758
33.696
33.635
33.575
33.517
33.461
33.407
33.356
33.309
33.265
33.224
33.187
33.153
33.121
33.093
33.066
33.043
33.023
33.005
32.989
32.976
32.964
32.954
32.944
32.935
32.927
32.92
32.913
32.908
32.903
32.899
32.894
32.891
32.889
32.888
32.886
32.885
32.885
32.886
32.887
32.889
32.891
32.892
32.892
32.891
32.889
32.885
32.88
32.874
32.869
32.867
32.87
32.88
32.901
32.937
32.992
33.069
33.174
33.309
33.479
33.684
33.927
34.206
34.519
34.862
35.232
35.621
36.023
36.429
36.832
37.225
37.601
37.953
38.277
38.567
38.82
39.033
39.206
39.337
39.427
39.479
39.494
39.477
39.431
39.359
39.267
39.157
39.033
38.899
38.759
38.613
38.466
38.319
38.174
38.032
37.894
37.76
37.631
37.506
37.385
37.267
37.149
37.032
36.916
36.8
36.685
36.569
36.453
36.337
36.221
36.105
35.99
35.876
35.765
35.655
35.547
35.442
35.34
35.24
35.144
35.051
34.962
34.878
34.8
34.728
34.664
34.608
34.561
34.524
34.498
34.484
34.48
34.488
34.506
34.532
34.568
34.611
34.662
34.72
34.783
34.851
34.922
34.995
35.068
35.14
35.21
35.277
35.34
35.397
35.447
35.49
35.525
35.552
35.57
35.58
35.583
35.578
35.567
35.551
35.529
35.504
35.476
35.446
35.414
35.38
35.343
35.302
35.258
35.21
35.158
35.104
35.045
34.984
34.921
34.858
34.794
34.729
34.665
34.6
34.536
34.473
34.411
34.349
34.289
34.228
34.166
34.104
34.042
33.98
33.917
33.856
33.795
33.736
33.678
33.624
33.572
33.523
33.477
33.432
33.39
33.35
33.311
33.275
33.24
33.207
33.175
33.142
33.109
33.076
33.045
33.014
32.985
32.957
32.931
32.908
32.888
32.871
32.857
32.848
32.842
32.841
32.842
32.845
32.849
32.854
32.86
32.865
32.871
32.876
32.881
32.886
32.89
32.893
32.893
32.892
32.888
32.882
32.874
32.863
32.85
32.837
32.823
32.81
32.799
32.79
32.786
32.786
32.794
32.811
32.841
32.885
32.947
33.031
33.14
33.278
33.447
33.651
33.89
34.164
34.471
34.807
35.17
35.551
35.945
36.343
36.738
37.121
37.486
37.827
38.139
38.417
38.66
38.864
39.027
39.151
39.236
39.284
39.297
39.281
39.237
39.169
39.083
38.98
38.865
38.741
38.61
38.474
38.334
38.192
38.049
37.906
37.764
37.624
37.487
37.353
37.222
37.096
36.974
36.856
36.741
36.629
36.519
36.411
36.303
36.194
36.084
35.971
35.857
35.742
35.625
35.507
35.388
35.27
35.154
35.04
34.93
34.824
34.724
34.631
34.547
34.473
34.411
34.361
34.323
34.298
34.284
34.283
34.294
34.317
34.351
34.394
34.447
34.508
34.575
34.648
34.724
34.803
34.885
34.966
35.047
35.125
35.2
35.272
35.338
35.4
35.455
35.505
35.548
35.584
35.612
35.632
35.644
35.649
35.645
35.634
35.616
35.591
35.56
35.524
35.482
35.436
35.386
35.333
35.276
35.218
35.157
35.095
35.032
34.967
34.903
34.838
34.774
34.71
34.647
34.585
34.524
34.463
34.401
34.34
34.28
34.22
34.161
34.101
34.041
33.981
33.92
33.858
33.797
33.736
33.676
33.617
33.559
33.503
33.449
33.398
33.349
33.302
33.256
33.211
33.169
33.13
33.093
33.059
33.028
32.999
32.973
32.95
32.929
32.911
32.895
32.883
32.873
32.866
32.862
32.859
32.859
32.86
32.862
32.866
32.871
32.877
32.883
32.89
32.896
32.902
32.907
32.91
32.913
32.914
32.912
32.907
32.9
32.891
32.882
32.872
32.864
32.857
32.851
32.846
32.843
32.842
32.845
32.851
32.862
32.88
32.905
32.941
32.989
33.055
33.142
33.255
33.398
33.574
33.784
34.03
34.31
34.622
34.963
35.328
35.709
36.101
36.497
36.888
37.266
37.625
37.959
38.263
38.534
38.768
38.963
39.119
39.236
39.317
39.363
39.377
39.362
39.321
39.258
39.176
39.077
38.965
38.844
38.715
38.581
38.446
38.309
38.171
38.035
37.9
37.767
37.635
37.504
37.374
37.245
37.116
36.989
36.863
36.739
36.615
36.492
36.37
36.247
36.125
36.004
35.883
35.761
35.639
35.518
35.398
35.282
35.169
35.061
34.958
34.861
34.771
34.689
34.614
34.546
34.487
34.437
34.396
34.366
34.345
34.335
34.335
34.345
34.366
34.398
34.44
34.491
34.552
34.62
34.695
34.776
34.861
34.948
35.035
35.125
35.218
35.315
35.413
35.51
35.602
35.685
35.758
35.817
35.861
35.891
35.905
35.903
35.888
35.86
35.822
35.776
35.723
35.665
35.603
35.54
35.476
35.412
35.349
35.287
35.225
35.163
35.103
35.042
34.982
34.922
34.862
34.803
34.744
34.686
34.627
34.569
34.511
34.452
34.391
34.329
34.266
34.2
34.134
34.068
34.002
33.936
33.872
33.808
33.746
33.686
33.629
33.573
33.52
33.47
33.422
33.377
33.334
33.293
33.254
33.218
33.186
33.157
33.131
33.107
33.085
33.064
33.043
33.024
33.006
32.991
32.979
32.969
32.961
32.955
32.951
32.948
32.948
32.949
32.953
32.957
32.964
32.972
32.981
32.99
32.998
33.004
33.009
33.012
33.014
33.013
33.009
33.004
32.996
32.986
32.974
32.962
32.95
32.939
32.93
32.923
32.921
32.924
32.934
32.955
32.988
33.038
33.106
33.199
33.319
33.472
33.659
33.884
34.145
34.442
34.771
35.128
35.509
35.907
36.317
36.73
37.14
37.538
37.919
38.276
38.603
38.895
39.148
39.362
39.534
39.664
39.755
39.808
39.825
39.812
39.771
39.706
39.621
39.519
39.404
39.278
39.143
39.002
38.856
38.708
38.558
38.408
38.259
38.111
37.965
37.821
37.679
37.539
37.401
37.265
37.132
37.001
36.872
36.743
36.616
36.49
36.364
36.24
36.116
35.994
35.872
35.752
35.632
35.514
35.398
35.285
35.175
35.068
34.967
34.871
34.783
34.702
34.631
34.568
34.516
34.474
34.444
34.426
34.42
34.425
34.443
34.472
34.512
34.564
34.626
34.698
34.778
34.864
34.957
35.052
35.149
35.246
35.34
35.429
35.513
35.59
35.66
35.723
35.778
35.825
35.863
35.893
35.913
35.924
35.926
35.918
35.9
35.876
35.845
35.809
35.769
35.724
35.677
35.625
35.572
35.517
35.459
35.4
35.338
35.275
35.21
35.143
35.075
35.006
34.935
34.865
34.795
34.725
34.658
34.592
34.528
34.465
34.404
34.344
34.286
34.228
34.17
34.113
34.054
33.996
33.938
33.882
33.828
33.776
33.725
33.676
33.63
33.584
33.541
33.5
33.462
33.425
33.392
33.361
33.332
33.305
33.28
33.257
33.235
33.215
33.195
33.178
33.162
33.147
33.135
33.126
33.118
33.112
33.107
33.104
33.101
33.097
33.092
33.085
33.076
33.067
33.057
33.049
33.042
33.036
33.032
33.03
33.031
33.035
33.044
33.059
33.08
33.111
33.155
33.214
33.294
33.398
33.531
33.697
33.898
34.137
34.415
34.73
35.08
35.46
35.863
36.283
36.712
37.143
37.566
37.976
38.365
38.727
39.057
39.351
39.606
39.82
39.992
40.123
40.214
40.266
40.284
40.269
40.225
40.156
40.065
39.957
39.834
39.7
39.557
39.407
39.253
39.098
38.942
38.788
38.635
38.485
38.338
38.194
38.054
37.916
37.783
37.651
37.521
37.392
37.263
37.135
37.007
36.88
36.754
36.626
36.499
36.371
36.243
36.115
35.988
35.863
35.74
35.62
35.504
35.393
35.287
35.187
35.096
35.013
34.94
34.878
34.826
34.785
34.754
34.734
34.725
34.728
34.741
34.765
34.798
34.841
34.894
34.954
35.021
35.094
35.171
35.252
35.334
35.417
35.501
35.584
35.665
35.743
35.818
35.888
35.951
36.008
36.056
36.096
36.127
36.148
36.16
36.163
36.156
36.141
36.118
36.089
36.053
36.012
35.967
35.917
35.863
35.805
35.744
35.68
35.613
35.546
35.477
35.409
35.341
35.275
35.209
35.144
35.08
35.016
34.953
34.889
34.823
34.756
34.686
34.616
34.545
34.474
34.404
34.335
34.266
34.199
34.134
34.071
34.01
33.952
33.895
33.84
33.787
33.735
33.685
33.636
33.588
33.542
33.497
33.453
33.409
33.366
33.321
33.277
33.234
33.191
33.147
33.104
33.06
33.018
32.976
32.934
32.892
32.85
32.809
32.769
32.729
32.691
32.654
32.618
32.583
32.55
32.517
32.485
32.452
32.421
32.39
32.358
32.326
32.293
32.26
32.23
32.205
32.187
32.18
32.187
32.21
32.255
32.326
32.426
32.558
32.727
32.936
33.187
33.481
33.818
34.196
34.611
35.058
35.529
36.016
36.51
37.0
37.477
37.932
38.357
38.744
39.088
39.386
39.634
39.831
39.978
40.078
40.132
40.144
40.118
40.06
39.975
39.868
39.744
39.608
39.462
39.31
39.153
38.995
38.836
38.677
38.518
38.36
38.204
38.05
37.898
37.747
37.6
37.454
37.311
37.171
37.033
36.897
36.765
36.635
36.507
36.38
36.256
36.132
36.009
35.886
35.766
35.647
35.53
35.416
35.305
35.198
35.097
35.002
34.915
34.838
34.77
34.712
34.666
34.631
34.608
34.597
34.599
34.614
34.642
34.683
34.736
34.801
34.878
34.964
35.06
35.162
35.27
35.381
35.493
35.605
35.716
35.824
35.927
36.024
36.115
36.2
36.276
36.345
36.404
36.454
36.494
36.524
36.543
36.55
36.547
36.532
36.508
36.474
36.432
36.381
36.325
36.263
36.198
36.129
36.059
35.988
35.918
35.847
35.777
35.709
35.642
35.575
35.509
35.443
35.377
35.31
35.243
35.175
35.107
35.04
34.973
34.908
34.844
34.783
34.723
34.665
34.609
34.556
34.506
34.458
34.411
34.366
34.322
34.278
34.234
34.189
34.143
34.096
34.048
33.999
33.95
33.901
33.852
33.805
33.759
33.714
33.67
33.629
33.59
33.554
33.52
33.49
33.462
33.438
33.418
33.404
33.395
33.394
33.404
33.429
33.474
33.542
33.637
33.763
33.924
34.122
34.359
34.634
34.947
35.293
35.667
36.065
36.479
36.901
37.322
37.736
38.135
38.512
38.862
39.179
39.461
39.706
39.911
40.078
40.208
40.302
40.361
40.389
40.387
40.358
40.305
40.231
40.141
40.036
39.92
39.793
39.656
39.507
39.351
39.189
39.027
38.867
38.71
38.56
38.416
38.279
38.151
38.031
37.918
37.81
37.706
37.604
37.502
37.399
37.293
37.182
37.066
36.947
36.824
36.697
36.569
36.44
36.313
36.187
36.067
35.953
35.846
35.747
35.659
35.579
35.511
35.454
35.408
35.375
35.355
35.345
35.348
35.362
35.388
35.424
35.47
35.526
35.59
35.66
35.737
35.819
35.905
35.994
36.083
36.173
