Trial 3:3back
35.459
35.288
35.124
34.968
34.82
34.68
34.549
34.427
34.314
34.209
34.112
34.025
33.947
33.879
33.821
33.774
33.737
33.711
33.694
33.686
33.686
33.694
33.707
33.726
33.75
33.778
33.809
33.844
33.882
33.921
33.961
34.001
34.039
34.076
34.109
34.139
34.165
34.186
34.202
34.212
34.216
34.213
34.205
34.191
34.17
34.144
34.113
34.079
34.042
34.002
33.961
33.919
33.877
33.836
33.794
33.752
33.71
33.668
33.626
33.583
33.539
33.493
33.447
33.399
33.35
33.3
33.25
33.201
33.153
33.106
33.06
33.016
32.974
32.932
32.893
32.855
32.82
32.786
32.755
32.726
32.699
32.675
32.653
32.632
32.612
32.593
32.574
32.555
32.536
32.516
32.496
32.477
32.459
32.443
32.432
32.427
32.432
32.448
32.478
32.527
32.598
32.696
32.824
32.985
33.183
33.418
33.692
34.005
34.355
34.74
35.156
35.598
36.06
36.536
37.018
37.498
37.971
38.427
38.861
39.265
39.634
39.963
40.247
40.485
40.675
40.819
40.918
40.976
40.996
40.979
40.93
40.853
40.749
40.623
40.478
40.316
40.139
39.951
39.753
39.548
39.336
39.12
38.902
38.683
38.464
38.247
38.031
37.818
37.607
37.399
37.194
36.993
36.794
36.599
36.406
36.216
36.029
35.847
35.669
35.497
35.33
35.17
35.016
34.869
34.73
34.598
34.475
34.362
34.259
34.167
34.085
34.013
33.952
33.901
33.86
33.828
33.806
33.792
33.787
33.791
33.805
33.828
33.859
33.897
33.94
33.985
34.032
34.077
34.119
34.157
34.191
34.218
34.241
34.259
34.273
34.283
34.29
34.295
34.298
34.299
34.299
34.296
34.29
34.28
34.266
34.248
34.225
34.199
34.168
34.132
34.094
34.051
34.006
33.958
33.907
33.853
33.798
33.74
33.681
33.62
33.56
33.501
33.444
33.39
33.339
33.292
33.25
33.211
33.176
33.144
33.113
33.083
33.052
33.021
32.99
32.958
32.928
32.898
32.87
32.844
32.818
32.793
32.767
32.741
32.714
32.687
32.659
32.634
32.611
32.594
32.584
32.583
32.592
32.614
32.651
32.705
32.78
32.88
33.007
33.166
33.36
33.592
33.863
34.175
34.525
34.911
35.328
35.77
36.232
36.706
37.185
37.662
38.129
38.579
39.004
39.397
39.753
40.068
40.339
40.565
40.745
40.882
40.976
41.03
41.045
41.023
40.969
40.884
40.774
40.641
40.489
40.322
40.144
39.957
39.765
39.57
39.372
39.175
38.978
38.783
38.588
38.393
38.198
38.004
37.811
37.62
37.43
37.242
37.057
36.875
36.694
36.516
36.341
36.167
35.997
35.829
35.664
35.502
35.346
35.195
35.051
34.916
34.789
34.67
34.56
34.458
34.366
34.284
34.212
34.152
34.102
34.062
34.033
34.013
34.002
34.0
34.005
34.017
34.036
34.059
34.086
34.117
34.149
34.183
34.218
34.251
34.283
34.312
34.338
34.36
34.378
34.393
34.404
34.413
34.42
34.423
34.424
34.422
34.416
34.405
34.388
34.364
34.333
34.294
34.249
34.198
34.143
34.086
34.027
33.967
33.906
33.846
33.787
33.728
33.67
33.612
33.554
33.497
33.441
33.387
33.335
33.287
33.241
33.198
33.157
33.117
33.078
33.039
33.0
32.96
32.919
32.878
32.837
32.797
32.759
32.723
32.688
32.655
32.624
32.595
32.568
32.543
32.521
32.501
32.484
32.47
32.46
32.454
32.455
32.464
32.483
32.515
32.563
32.631
32.724
32.845
32.998
33.189
33.42
33.692
34.007
34.365
34.762
35.195
35.658
36.145
36.649
37.16
37.669
38.165
38.638
39.084
39.496
39.87
40.203
40.493
40.739
40.943
41.104
41.223
41.301
41.34
41.343
41.313
41.253
41.166
41.055
40.926
40.782
40.625
40.457
40.282
40.1
39.912
39.72
39.523
39.322
39.117
38.911
38.703
38.496
38.289
38.086
37.887
37.694
37.506
37.323
37.146
36.973
36.804
36.637
36.472
36.308
36.145
35.983
35.822
35.663
35.509
35.358
35.214
35.076
34.947
34.826
34.716
34.617
34.528
34.451
34.383
34.326
34.279
34.242
34.214
34.195
34.184
34.182
34.186
34.195
34.21
34.23
34.253
34.279
34.306
34.334
34.361
34.387
34.411
34.434
34.457
34.479
34.5
34.519
34.533
34.543
34.547
34.544
34.535
34.517
34.491
34.458
34.419
34.373
34.324
34.271
34.215
34.158
34.099
34.039
33.979
33.917
33.857
33.796
33.737
33.68
33.624
33.571
33.52
33.472
33.426
33.382
33.34
33.298
33.256
33.214
33.173
33.133
33.094
33.055
33.016
32.977
32.937
32.896
32.855
32.813
32.771
32.728
32.686
32.645
32.608
32.574
32.544
32.518
32.497
32.48
32.469
32.462
32.462
32.469
32.485
32.511
32.551
32.607
32.684
32.785
32.916
33.08
33.281
33.522
33.804
34.129
34.494
34.897
35.333
35.796
36.279
36.776
37.278
37.776
38.264
38.732
39.173
39.58
39.949
40.273
40.552
40.784
40.967
41.103
41.194
41.244
41.253
41.227
41.168
41.081
40.969
40.835
40.684
40.518
40.34
40.153
39.96
39.761
39.56
39.356
39.152
38.948
38.745
38.542
38.341
38.142
37.944
37.749
37.556
37.366
37.178
36.994
36.814
36.638
36.466
36.298
36.134
35.973
35.815
35.66
35.506
35.356
35.208
35.064
34.926
34.796
34.674
34.563
34.462
34.374
34.296
34.231
34.176
34.131
34.096
34.069
34.05
34.04
34.037
34.042
34.055
34.074
34.1
34.13
34.162
34.196
34.23
34.262
34.291
34.318
34.342
34.361
34.377
34.388
34.395
34.396
34.394
34.387
34.375
34.359
34.339
34.316
34.287
34.255
34.217
34.176
34.132
34.086
34.037
33.988
33.938
33.889
33.841
33.794
33.748
33.702
33.657
33.611
33.564
33.518
33.47
33.424
33.377
33.332
33.287
33.244
33.203
33.163
33.122
33.081
33.038
32.995
32.951
32.908
32.867
32.828
32.791
32.756
32.722
32.69
32.659
32.63
32.603
32.577
32.553
32.531
32.511
32.494
32.48
32.469
32.463
32.463
32.468
32.48
32.503
32.538
32.588
32.658
32.752
32.873
33.026
33.214
33.441
33.707
34.012
34.357
34.737
35.149
35.587
36.046
36.52
37.0
37.48
37.952
38.407
38.839
39.241
39.609
39.938
40.225
40.468
40.665
40.815
40.919
40.978
40.995
40.973
40.917
40.83
40.716
40.581
40.427
40.258
40.077
39.886
39.69
39.489
39.285
39.08
38.873
38.667
38.461
38.256
38.054
37.856
37.661
37.47
37.283
37.099
36.917
36.736
36.556
36.378
36.201
36.027
35.855
35.688
35.525
35.369
35.22
35.078
34.946
34.821
34.705
34.597
34.496
34.405
34.323
34.25
34.188
34.136
34.095
34.066
34.048
34.04
34.041
34.051
34.068
34.091
34.119
34.152
34.187
34.225
34.265
34.304
34.343
34.381
34.417
34.452
34.484
34.514
34.541
34.565
34.584
34.597
34.604
34.605
34.599
34.587
34.567
34.542
34.51
34.474
34.432
34.386
34.338
34.287
34.235
34.182
34.128
34.074
34.02
33.966
33.911
33.855
33.8
33.744
33.69
33.637
33.585
33.536
33.49
33.446
33.404
33.363
33.322
33.28
33.237
33.192
33.147
33.101
33.056
33.013
32.971
32.933
32.897
32.863
32.833
32.804
32.777
32.753
32.73
32.709
32.689
32.671
32.654
32.64
32.629
32.621
32.618
32.621
32.632
32.652
32.685
32.733
32.801
32.894
33.016
33.171
33.363
33.596
33.872
34.191
34.552
34.949
35.379
35.834
36.307
36.788
37.27
37.744
38.205
38.644
39.054
39.432
39.772
40.073
40.333
40.551
40.728
40.863
40.959
41.018
41.041
41.03
40.988
40.919
40.823
40.704
40.566
40.409
40.238
40.054
39.86
39.658
39.45
39.239
39.026
38.814
38.604
38.397
38.196
37.999
37.809
37.624
37.446
37.273
37.104
36.938
36.775
36.612
36.45
36.288
36.125
35.962
35.801
35.641
35.484
35.332
35.185
35.046
34.916
34.796
34.686
34.587
34.501
34.426
34.364
34.314
34.275
34.249
34.233
34.229
34.233
34.246
34.264
34.288
34.315
34.341
34.359
34.367
34.367
34.361
34.352
34.342
34.336
34.335
34.341
34.353
34.37
34.392
34.417
34.442
34.467
34.489
34.506
34.518
34.524
34.522
34.512
34.494
34.468
34.436
34.397
34.351
34.3
34.244
34.185
34.123
34.059
33.995
33.931
33.866
33.803
33.741
33.68
33.622
33.567
33.514
33.465
33.418
33.374
33.333
33.293
33.253
33.214
33.174
33.134
33.093
33.052
33.011
32.971
32.933
32.897
32.863
32.831
32.803
32.778
32.755
32.734
32.713
32.694
32.676
32.658
32.642
32.626
32.613
32.602
32.595
32.593
32.6
32.617
32.649
32.7
32.773
32.873
33.005
33.172
33.379
33.627
33.917
34.249
34.619
35.025
35.461
35.92
36.397
36.884
37.373
37.858
38.331
38.784
39.212
39.609
39.969
40.287
40.561
40.789
40.97
41.103
41.191
41.236
41.242
41.214
41.154
41.067
40.957
40.828
40.684
40.527
40.359
40.185
40.004
39.818
39.629
39.437
39.245
39.054
38.864
38.677
38.494
38.316
38.143
37.975
37.81
37.649
37.49
37.332
37.175
37.018
36.86
36.699
36.538
36.375
36.212
36.051
35.894
35.742
35.595
35.456
35.324
35.199
35.083
34.974
34.874
34.782
34.698
34.624
34.558
34.501
34.454
34.417
34.39
34.373
34.365
34.365
34.371
34.383
34.399
34.417
34.437
34.458
34.48
34.502
34.523
34.544
34.563
34.582
34.598
34.612
34.623
34.63
34.632
34.629
34.619
34.601
34.576
34.543
34.504
34.459
34.411
34.359
34.305
34.249
34.194
34.138
34.081
34.025
33.969
33.912
33.856
33.799
33.744
33.69
33.636
33.584
33.534
33.486
33.44
33.394
33.349
33.303
33.258
33.212
33.167
33.123
33.081
33.041
33.004
32.967
32.93
32.894
32.859
32.824
32.789
32.756
32.723
32.691
32.662
32.634
32.608
32.582
32.557
32.531
32.505
32.479
32.454
32.432
32.411
32.394
32.38
32.372
32.372
32.382
32.406
32.445
32.503
32.583
32.689
32.823
32.99
33.193
33.433
33.711
34.026
34.379
34.765
35.183
35.627
36.092
36.571
37.057
37.543
38.022
38.486
38.927
39.341
39.721
40.063
40.363
40.617
40.825
40.986
41.102
41.174
41.205
41.198
41.157
41.087
40.991
40.873
40.737
40.587
40.425
40.255
40.079
39.899
39.716
39.531
39.346
39.16
38.976
38.794
38.615
38.44
38.267
38.097
37.929
37.763
37.599
37.436
37.273
37.112
36.951
36.792
36.633
36.475
36.319
36.165
36.014
35.866
35.721
35.579
35.441
35.309
35.183
35.064
34.955
34.857
34.769
34.692
34.626
34.571
34.525
34.49
34.462
34.442
34.428
34.419
34.415
34.416
34.421
34.43
34.443
34.459
34.476
34.493
34.51
34.526
34.541
34.554
34.564
34.573
34.579
34.582
34.584
34.582
34.578
34.569
34.557
34.54
34.516
34.486
34.449
34.406
34.357
34.304
34.248
34.189
34.128
34.067
34.005
33.943
33.882
33.823
33.765
33.709
33.654
33.599
33.546
33.492
33.439
33.386
33.334
33.283
33.234
33.187
33.141
33.096
33.052
33.009
32.965
32.922
32.879
32.838
32.798
32.76
32.724
32.691
32.661
32.634
32.608
32.585
32.562
32.539
32.517
32.495
32.473
32.453
32.434
32.416
32.401
32.388
32.377
32.368
32.36
32.354
32.349
32.346
32.346
32.348
32.354
32.366
32.386
32.416
32.458
32.514
32.589
32.685
32.805
32.954
33.136
33.355
33.611
33.907
34.241
34.612
35.016
35.448
35.903
36.372
36.85
37.327
37.796
38.25
38.68
39.083
39.451
39.782
40.072
40.319
40.523
40.681
40.796
40.869
40.902
40.898
40.862
40.796
40.706
40.594
40.464
40.319
40.162
39.997
39.825
39.647
39.466
39.283
39.098
38.912
38.725
38.538
38.352
38.165
37.98
37.795
37.611
37.431
37.254
37.081
36.912
36.745
36.582
36.421
36.262
36.106
35.952
35.8
35.652
35.507
35.367
35.233
35.106
34.988
34.878
34.777
34.686
34.604
34.532
34.468
34.413
34.367
34.329
34.301
34.28
34.267
34.26
34.261
34.268
34.281
34.299
34.321
34.347
34.375
34.404
34.433
34.462
34.491
34.519
34.545
34.568
34.587
34.603
34.614
34.619
34.62
34.615
34.604
34.588
34.566
34.538
34.505
34.468
34.427
34.382
34.335
34.285
34.233
34.18
34.126
34.072
34.018
33.964
33.911
33.858
33.805
33.754
33.704
33.656
33.608
33.562
33.516
33.47
33.426
33.383
33.34
33.298
33.257
33.216
33.176
33.137
33.1
33.066
33.033
33.001
32.971
32.941
32.913
32.885
32.856
32.828
32.801
32.774
32.748
32.723
32.699
32.676
32.655
32.634
32.614
32.595
32.579
32.566
32.558
32.555
32.559
32.569
32.589
32.619
32.662
32.721
32.8
32.902
33.032
33.192
33.385
33.614
33.88
34.182
34.519
34.889
35.285
35.703
36.136
36.579
37.024
37.465
37.898
38.316
38.714
39.086
39.428
39.737
40.008
40.24
40.432
40.581
40.689
40.756
40.784
40.774
40.729
40.652
40.548
40.419
40.27
40.105
39.928
39.741
39.548
39.352
39.156
38.962
38.769
38.58
38.393
38.21
38.029
37.851
37.675
37.499
37.324
37.15
36.977
36.804
36.632
36.461
36.291
36.123
35.958
35.796
35.637
35.483
35.334
35.193
35.058
34.931
34.813
34.704
34.605
34.516
34.435
34.365
34.305
34.255
34.215
34.187
34.168
34.159
34.158
34.164
34.175
34.189
34.207
34.226
34.247
34.27
34.295
34.322
34.351
34.383
34.414
34.447
34.478
34.507
34.531
34.549
34.561
34.565
34.562
34.552
34.535
34.512
34.485
34.454
34.421
34.385
34.346
34.305
34.261
34.214
34.166
34.116
34.066
34.017
33.967
33.918
33.869
33.822
33.774
33.727
33.685
33.653
33.629
33.611
33.597
33.585
33.571
33.553
33.529
33.498
33.459
33.414
33.362
33.306
33.246
33.185
33.124
33.065
33.009
32.956
32.908
32.865
32.827
32.793
32.763
32.737
32.713
32.693
32.674
32.657
32.641
32.627
32.615
32.607
32.602
32.603
32.612
32.63
32.659
32.703
32.765
32.849
32.956
33.09
33.253
33.449
33.679
33.944
34.244
34.579
34.944
35.337
35.752
36.182
36.621
37.063
37.5
37.925
38.334
38.718
39.074
39.398
39.685
39.933
40.141
40.308
40.435
40.524
40.577
40.597
40.585
40.546
40.481
40.395
40.289
40.166
40.029
39.88
39.718
39.546
39.365
39.176
38.982
38.784
38.586
38.388
38.192
38.0
37.812
37.629
37.45
37.276
37.106
36.94
36.778
36.618
36.461
36.306
36.153
36.002
35.853
35.707
35.563
35.424
35.287
35.156
35.03
34.91
34.798
34.694
34.6
34.517
34.445
34.385
34.334
34.294
34.262
34.238
34.221
34.211
34.207
34.21
34.219
34.236
34.258
34.286
34.318
34.354
34.393
34.432
34.47
34.506
34.539
34.568
34.592
34.612
34.628
34.638
34.644
34.644
34.638
34.627
34.61
34.587
34.559
34.525
34.487
34.444
34.398
34.349
34.298
34.246
34.194
34.143
34.092
34.041
33.991
33.942
33.892
33.842
33.79
33.738
33.686
33.633
33.579
33.525
33.471
33.417
33.365
33.313
33.262
33.213
33.166
33.121
33.078
33.037
32.998
32.961
32.927
32.894
32.864
32.837
32.812
32.788
32.765
32.742
32.717
32.692
32.666
32.638
32.61
32.583
32.558
32.534
32.511
32.491
32.473
32.458
32.446
32.438
32.435
32.441
32.457
32.485
32.53
32.593
32.679
32.79
32.931
33.103
33.309
33.552
33.835
34.155
34.513
34.905
35.327
35.773
36.237
36.711
37.19
37.665
38.13
38.577
39.0
39.393
39.752
40.073
40.354
40.592
40.786
40.937
41.046
41.114
41.144
41.139
41.102
41.037
40.946
40.832
40.696
40.543
40.374
40.194
40.005
39.811
39.614
39.417
39.221
39.029
38.841
38.657
38.479
38.307
38.14
37.976
37.814
37.654
37.495
37.334
37.172
37.009
36.846
36.684
36.523
36.363
36.205
36.05
35.898
35.751
35.608
35.47
35.338
35.213
35.094
34.984
34.882
34.789
34.707
34.633
34.567
34.509
34.458
34.416
34.38
34.353
34.334
34.322
34.318
34.322
34.333
34.349
34.37
34.394
34.421
34.447
34.471
34.492
34.51
34.524
34.534
34.54
34.542
34.541
34.537
34.529
34.519
34.506
34.49
34.472
34.45
34.426
34.399
34.369
34.336
34.3
34.261
34.22
34.175
34.128
34.078
34.025
33.97
33.914
33.856
33.798
33.74
33.682
33.626
33.571
33.517
33.464
33.411
33.36
33.309
33.261
33.216
33.175
33.137
33.104
33.073
33.045
33.017
32.99
32.962
32.933
32.904
32.875
32.846
32.819
32.792
32.766
32.741
32.715
32.69
32.665
32.64
32.617
32.595
32.575
32.557
32.543
32.533
32.528
32.53
32.541
32.562
32.596
32.646
32.713
32.801
32.915
33.058
33.233
33.443
33.69
33.975
34.297
34.654
35.042
35.457
35.893
36.343
36.801
37.257
37.705
38.139
38.551
38.934
39.285
39.6
39.876
40.112
40.305
40.456
40.567
40.638
40.674
40.677
40.651
40.598
40.523
40.427
40.315
40.188
40.048
39.897
39.736
39.568
39.393
39.212
39.026
38.838
38.649
38.459
38.27
38.083
37.899
37.718
37.541
37.368
37.198
37.032
36.869
36.71
36.553
36.398
36.246
36.096
35.948
35.801
35.656
35.514
35.376
35.243
35.115
34.992
34.876
34.767
34.665
34.57
34.482
34.401
34.327
34.261
34.203
34.153
34.113
34.081
34.059
34.046
34.04
34.044
34.054
34.072
34.094
34.119
34.146
34.174
34.202
34.23
34.257
34.283
34.306
34.324
34.339
34.348
34.353
34.353
34.348
34.338
34.323
34.303
34.28
34.253
34.223
34.191
34.157
34.122
34.084
34.045
34.003
33.96
33.916
33.87
33.823
33.776
33.728
33.679
33.628
33.577
33.524
33.47
33.415
33.359
33.303
33.249
33.199
33.152
33.11
33.072
33.038
33.008
32.981
32.957
32.935
32.913
32.892
32.871
32.849
32.826
32.802
32.777
32.75
32.721
32.69
32.658
32.626
32.595
32.565
32.537
32.512
32.49
32.471
32.455
32.443
32.435
32.431
32.432
32.439
32.452
32.472
32.502
32.543
32.598
32.669
32.758
32.869
33.006
33.178
33.391
33.648
33.949
34.291
34.669
35.075
35.503
35.946
36.397
36.848
37.292
37.723
38.136
38.524
38.884
39.21
39.501
39.755
39.971
40.147
40.285
40.385
40.449
40.479
40.478
40.448
40.392
40.312
40.211
40.092
39.956
39.806
39.645
39.474
39.296
39.113
38.927
38.737
38.547
38.357
38.167
37.978
37.791
37.606
37.422
37.242
37.064
36.89
36.721
36.555
36.392
36.233
36.077
35.923
35.772
35.621
35.473
35.329
35.188
35.052
34.923
34.802
34.69
34.587
34.495
34.411
34.336
34.27
34.213
34.164
34.124
34.093
34.072
34.061
34.06
34.068
34.086
34.112
34.144
34.181
34.221
34.262
34.303
34.343
34.381
34.416
34.446
34.473
34.496
34.514
34.527
34.534
34.536
34.533
34.524
34.509
34.49
34.466
34.439
34.41
34.38
34.348
34.315
34.281
34.247
34.213
34.177
34.141
34.103
34.062
34.019
33.972
33.923
33.872
33.819
33.765
33.711
33.658
33.606
33.556
33.507
33.461
33.417
33.374
33.333
33.293
33.255
33.219
33.186
33.155
33.126
33.099
33.073
33.047
33.021
32.995
32.967
32.938
32.909
32.88
32.852
32.825
32.8
32.776
32.755
32.735
32.716
32.699
32.685
32.673
32.666
32.663
32.667
32.679
32.702
32.737
32.787
32.856
32.946
33.059
33.2
33.371
33.576
33.816
34.091
34.401
34.744
35.116
35.515
35.933
36.367
36.808
37.251
37.688
38.112
38.518
38.899
39.251
39.571
39.854
40.099
40.302
40.465
40.586
40.667
40.71
40.717
40.69
40.635
40.554
40.45
40.326
40.186
40.031
39.866
39.693
39.513
39.329
39.142
38.953
38.763
38.573
38.385
38.199
38.017
37.837
37.661
37.487
37.314
37.143
36.973
36.805
36.638
36.472
36.308
36.145
35.985
35.829
35.679
35.535
35.397
35.265
35.14
35.022
34.911
34.806
34.709
34.619
34.537
34.463
34.397
34.34
34.289
34.242
34.199
34.162
34.132
34.11
34.098
34.096
34.104
34.122
34.149
34.184
34.225
34.27
34.317
34.363
34.407
34.447
34.48
34.507
34.527
34.54
34.547
34.548
34.543
34.532
34.516
34.494
34.468
34.437
34.403
34.365
34.324
34.28
34.234
34.187
34.139
34.092
34.046
33.999
33.953
33.907
33.861
33.814
33.766
33.718
33.668
33.619
33.569
33.52
33.472
33.426
33.382
33.34
33.302
33.266
33.234
33.203
33.174
33.145
33.117
33.09
33.063
33.037
33.011
32.986
32.962
32.938
32.914
32.89
32.865
32.84
32.814
32.787
32.76
32.733
32.707
32.683
32.662
32.645
32.634
32.629
32.632
32.644
32.666
32.7
32.75
32.819
32.913
33.034
33.188
33.377
33.605
33.871
34.177
34.521
34.898
35.304
35.732
36.177
36.631
37.089
37.542
37.983
38.408
38.81
39.184
39.527
39.836
40.108
40.343
40.539
40.697
40.816
40.897
40.941
40.952
40.93
40.88
40.804
40.705
40.586
40.449
