Trial 3:3back
30.56
30.735
30.965
31.256
31.613
32.036
32.527
33.081
33.693
34.352
35.048
35.768
36.5
37.232
37.952
38.648
39.31
39.93
40.501
41.018
41.475
41.871
42.205
42.479
42.696
42.857
42.968
43.034
43.06
43.05
43.009
42.943
42.855
42.751
42.636
42.512
42.381
42.247
42.111
41.973
41.836
41.698
41.561
41.426
41.292
41.161
41.031
40.904
40.779
40.658
40.54
40.425
40.314
40.205
40.097
39.99
39.883
39.773
39.661
39.546
39.427
39.303
39.175
39.042
38.905
38.765
38.622
38.479
38.335
38.193
38.053
37.917
37.785
37.659
37.54
37.428
37.325
37.232
37.148
37.074
37.01
36.956
36.912
36.877
36.852
36.835
36.827
36.825
36.828
36.833
36.84
36.848
36.856
36.862
36.865
36.862
36.855
36.842
36.821
36.792
36.755
36.711
36.661
36.604
36.542
36.474
36.402
36.325
36.244
36.16
36.074
35.985
35.894
35.801
35.705
35.606
35.503
35.397
35.29
35.182
35.073
34.965
34.858
34.751
34.645
34.54
34.435
34.331
34.227
34.124
34.021
33.918
33.816
33.714
33.614
33.516
33.42
33.327
33.237
33.151
33.068
32.989
32.914
32.843
32.775
32.71
32.648
32.587
32.529
32.473
32.418
32.365
32.313
32.263
32.213
32.163
32.114
32.064
32.016
31.968
31.921
31.874
31.828
31.782
31.738
31.695
31.654
31.617
31.583
31.553
31.525
31.499
31.476
31.455
31.437
31.421
31.406
31.392
31.378
31.365
31.352
31.339
31.327
31.315
31.304
31.295
31.285
31.276
31.266
31.257
31.245
31.232
31.217
31.201
31.182
31.162
31.142
31.123
31.106
31.091
31.079
31.069
31.06
31.051
31.043
31.033
31.02
31.006
30.988
30.969
30.947
30.924
30.901
30.877
30.854
30.83
30.806
30.782
30.759
30.736
30.712
30.688
30.665
30.642
30.622
30.605
30.593
30.588
30.595
30.615
30.657
30.724
30.825
30.968
31.159
31.404
31.71
32.079
32.513
33.01
33.566
34.174
34.824
35.506
36.208
36.919
37.626
38.317
38.983
39.615
40.203
40.742
41.228
41.656
42.025
42.336
42.591
42.791
42.94
43.044
43.107
43.131
43.122
43.084
43.02
42.936
42.833
42.715
42.586
42.448
42.304
42.155
42.001
41.844
41.685
41.526
41.366
41.206
41.048
40.893
40.74
40.592
40.448
40.307
40.171
40.039
39.911
39.785
39.662
39.541
39.421
39.301
39.18
39.057
38.93
38.801
38.668
38.533
38.394
38.253
38.11
37.967
37.825
37.688
37.555
37.43
37.313
37.204
37.104
37.012
36.93
36.856
36.792
36.737
36.691
36.653
36.624
36.602
36.586
36.574
36.565
36.56
36.557
36.554
36.551
36.545
36.535
36.52
36.499
36.473
36.441
36.404
36.362
36.313
36.259
36.198
36.131
36.059
35.982
35.901
35.816
35.728
35.636
35.543
35.447
35.349
35.249
35.149
35.048
34.947
34.845
34.744
34.643
34.544
34.447
34.351
34.256
34.162
34.07
33.978
33.887
33.797
33.707
33.619
33.531
33.445
33.36
33.277
33.195
33.114
33.034
32.955
32.876
32.799
32.724
32.65
32.579
32.511
32.447
32.385
32.326
32.27
32.215
32.163
32.111
32.061
32.012
31.965
31.919
31.874
31.831
31.791
31.754
31.721
31.69
31.663
31.637
31.613
31.59
31.566
31.542
31.517
31.493
31.47
31.45
31.432
31.418
31.406
31.398
31.392
31.387
31.382
31.377
31.371
31.362
31.351
31.337
31.322
31.307
31.292
31.279
31.267
31.259
31.255
31.254
31.256
31.261
31.267
31.275
31.282
31.288
31.292
31.295
31.296
31.295
31.292
31.288
31.284
31.279
31.273
31.266
31.258
31.249
31.238
31.226
31.211
31.194
31.176
31.158
31.141
31.127
31.117
31.115
31.122
31.144
31.185
31.251
31.348
31.484
31.666
31.901
32.194
32.549
32.968
33.448
33.987
34.577
35.21
35.874
36.559
37.25
37.935
38.601
39.239
39.839
40.395
40.899
41.348
41.738
42.067
42.335
42.543
42.694
42.792
42.842
42.85
42.82
42.759
42.672
42.563
42.437
42.297
42.147
41.988
41.824
41.656
41.485
41.312
41.136
40.96
40.782
40.605
40.427
40.251
40.077
39.908
39.741
39.579
39.422
39.268
39.118
38.971
38.828
38.688
38.551
38.416
38.283
38.151
38.017
37.882
37.745
37.605
37.464
37.321
37.179
37.039
36.903
36.772
36.65
36.537
36.435
36.347
36.271
36.209
36.158
36.119
36.091
36.074
36.065
36.064
36.07
36.083
36.1
36.119
36.141
36.163
36.186
36.208
36.228
36.246
36.261
36.272
36.277
36.275
36.265
36.247
36.22
36.184
36.141
36.089
36.028
35.96
35.885
35.805
35.721
35.635
35.548
35.462
35.377
35.294
35.213
35.134
35.056
34.977
34.897
34.815
34.73
34.641
34.548
34.45
34.348
34.243
34.135
34.027
33.92
33.814
33.712
33.614
33.52
33.431
33.346
33.264
33.186
33.111
33.037
32.963
32.89
32.815
32.74
32.663
32.585
32.506
32.426
32.345
32.262
32.178
32.092
32.005
31.918
31.83
31.743
31.657
31.573
31.493
31.416
31.344
31.278
31.218
31.166
31.12
31.081
31.048
31.02
30.997
30.977
30.959
30.943
30.928
30.913
30.899
30.885
30.872
30.86
30.849
30.841
30.834
30.829
30.827
30.826
30.827
30.828
30.83
30.832
30.833
30.834
30.835
30.836
30.836
30.838
30.839
30.841
30.842
30.844
30.845
30.845
30.841
30.835
30.827
30.817
30.805
30.793
30.783
30.775
30.771
30.774
30.789
30.818
30.867
30.942
31.05
31.196
31.389
31.636
31.942
32.312
32.746
33.243
33.798
34.406
35.057
35.742
36.447
37.163
37.876
38.576
39.25
39.89
40.487
41.034
41.526
41.959
42.331
42.644
42.898
43.097
43.244
43.344
43.401
43.422
43.412
43.375
43.315
43.236
43.142
43.036
42.921
42.799
42.672
42.541
42.409
42.274
42.138
42.001
41.862
41.723
41.584
41.446
41.308
41.172
41.039
40.907
40.779
40.654
40.532
40.413
40.295
40.178
40.06
39.94
39.818
39.693
39.564
39.432
39.297
39.159
39.02
38.879
38.737
38.595
38.453
38.313
38.176
38.042
37.914
37.792
37.679
37.574
37.48
37.396
37.322
37.26
37.209
37.166
37.132
37.104
37.083
37.066
37.052
37.041
37.03
37.02
37.01
36.998
36.983
36.966
36.946
36.924
36.901
36.876
36.849
36.821
36.792
36.76
36.725
36.688
36.645
36.597
36.543
36.481
36.412
36.335
36.25
36.159
36.062
35.96
35.854
35.747
35.641
35.535
35.43
35.328
35.228
35.13
35.033
34.938
34.843
34.75
34.659
34.571
34.485
34.402
34.322
34.242
34.164
34.085
34.006
33.926
33.845
33.761
33.676
33.59
33.502
33.416
33.333
33.253
33.178
33.109
33.046
32.989
32.937
32.888
32.841
32.795
32.75
32.703
32.656
32.607
32.557
32.507
32.457
32.406
32.355
32.305
32.255
32.206
32.157
32.111
32.068
32.027
31.991
31.958
31.929
31.903
31.881
31.86
31.842
31.826
31.81
31.795
31.779
31.764
31.748
31.733
31.719
31.704
31.689
31.672
31.653
31.633
31.613
31.593
31.573
31.554
31.536
31.519
31.503
31.487
31.471
31.456
31.441
31.425
31.408
31.389
31.369
31.346
31.322
31.295
31.267
31.239
31.21
31.183
31.16
31.144
31.139
31.147
31.173
31.222
31.301
31.417
31.578
31.792
32.064
32.4
32.801
33.269
33.799
34.387
35.025
35.705
36.413
37.139
37.867
38.587
39.285
39.95
40.573
41.145
41.662
42.12
42.516
42.852
43.129
43.347
43.512
43.627
43.697
43.725
43.718
43.68
43.617
43.534
43.433
43.319
43.195
43.065
42.93
42.792
42.652
42.511
42.371
42.232
42.094
41.959
41.826
41.697
41.571
41.447
41.327
41.209
41.092
40.978
40.864
40.751
40.638
40.525
40.411
40.295
40.176
40.054
39.931
39.804
39.674
39.541
39.406
39.268
39.13
38.99
38.852
38.714
38.578
38.445
38.316
38.192
38.072
37.956
37.847
37.745
37.651
37.564
37.487
37.418
37.358
37.308
37.266
37.232
37.205
37.183
37.166
37.152
37.139
37.127
37.115
37.102
37.088
37.073
37.057
37.039
37.017
36.989
36.955
36.913
36.861
36.801
36.73
36.651
36.562
36.466
36.364
36.255
36.143
36.027
35.91
35.793
35.677
35.563
35.452
35.345
35.241
35.14
35.042
34.946
34.851
34.757
34.663
34.568
34.471
34.373
34.274
34.173
34.073
33.972
33.872
33.775
33.679
33.585
33.494
33.406
33.322
33.24
33.162
33.086
33.013
32.943
32.874
32.808
32.743
32.68
32.617
32.555
32.493
32.432
32.373
32.315
32.262
32.211
32.165
32.121
32.08
32.04
32.002
31.965
31.928
31.892
31.856
31.819
31.783
31.746
31.71
31.674
31.64
31.608
31.576
31.546
31.517
31.491
31.468
31.448
31.433
31.421
31.413
31.406
31.402
31.4
31.398
31.396
31.395
31.392
31.389
31.385
31.378
31.37
31.36
31.348
31.333
31.315
31.294
31.269
31.242
31.214
31.184
31.153
31.123
31.093
31.063
31.032
31.002
30.97
30.938
30.906
30.873
30.839
30.806
30.775
30.746
30.722
30.705
30.699
30.708
30.738
30.795
30.884
31.013
31.19
31.421
31.713
32.068
32.488
32.972
33.516
34.114
34.757
35.435
36.138
36.852
37.567
38.271
38.95
39.596
40.198
40.75
41.246
41.683
42.059
42.374
42.631
42.833
42.984
43.089
43.153
43.181
43.178
43.147
43.094
43.021
42.932
42.829
42.714
42.588
42.452
42.308
42.158
42.002
41.843
41.682
41.52
41.359
41.201
41.045
40.894
40.746
40.604
40.466
40.334
40.208
40.087
39.972
39.861
39.753
39.645
39.535
39.421
39.303
39.179
39.049
38.914
38.774
38.63
38.481
38.331
38.179
38.029
37.88
37.736
37.596
37.463
37.338
37.22
37.111
37.009
36.916
36.833
36.758
36.693
36.637
36.59
36.552
36.523
36.502
36.488
36.481
36.477
36.477
36.477
36.476
36.472
36.463
36.45
36.43
36.405
36.373
36.335
36.289
36.237
36.18
36.116
36.047
35.973
35.895
35.814
35.729
35.64
35.55
35.457
35.364
35.27
35.175
35.08
34.986
34.893
34.801
34.708
34.615
34.522
34.429
34.336
34.243
34.151
34.058
33.966
33.873
33.78
33.688
33.597
33.508
33.422
33.338
33.257
33.18
33.105
33.033
32.962
32.892
32.823
32.756
32.689
32.623
32.559
32.496
32.435
32.377
32.32
32.266
32.214
32.165
32.117
32.069
32.023
31.977
31.932
31.887
31.843
31.8
31.757
31.714
31.672
31.631
31.591
31.554
31.52
31.488
31.459
31.43
31.404
31.38
31.358
31.337
31.319
31.302
31.288
31.276
31.266
31.259
31.253
31.25
31.246
31.241
31.235
31.228
31.219
31.209
31.2
31.191
31.183
31.176
31.169
31.163
31.157
31.151
31.145
31.138
31.131
31.123
31.114
31.103
31.09
31.077
31.062
31.048
31.032
31.016
30.998
30.98
30.961
30.942
30.923
30.907
30.897
30.896
30.911
30.949
31.016
31.123
31.278
31.488
31.758
32.094
32.497
32.965
33.494
34.078
34.707
35.371
36.059
36.759
37.457
38.142
38.801
39.426
40.008
40.539
41.015
41.432
41.788
42.084
42.321
42.502
42.632
42.716
42.759
42.767
42.744
42.695
42.624
42.535
42.432
42.318
42.194
42.061
41.921
41.777
41.629
41.478
41.324
41.168
41.013
40.858
40.705
40.555
40.408
40.266
40.128
39.994
39.864
39.737
39.613
39.49
39.368
39.245
39.119
38.991
38.859
38.722
38.58
38.434
38.283
38.129
37.972
37.814
37.657
37.504
37.356
37.215
37.081
36.957
36.842
36.74
36.649
36.57
36.504
36.448
36.404
36.371
36.347
36.332
36.324
36.322
36.327
36.336
36.347
36.359
36.371
36.382
36.391
36.397
36.397
36.392
36.38
36.361
36.334
36.3
36.259
36.212
36.159
36.101
36.038
35.97
35.897
35.819
35.736
35.65
35.56
35.468
35.373
35.277
35.178
35.079
34.978
34.878
34.777
34.677
34.578
34.481
34.385
34.291
34.196
34.102
34.009
33.917
33.825
33.735
33.648
33.562
33.48
33.4
33.323
33.249
33.177
33.107
33.037
32.969
32.9
32.832
32.764
32.697
32.631
32.568
32.506
32.447
32.389
32.333
32.278
32.225
32.173
32.123
32.075
32.03
31.988
31.95
31.914
31.882
31.852
31.824
31.799
31.774
31.749
31.725
31.701
31.677
31.655
31.634
31.615
31.6
31.587
31.577
31.569
31.563
31.558
31.554
31.548
31.541
31.533
31.522
31.51
31.495
31.479
31.462
31.444
31.426
31.408
31.39
31.372
31.353
31.333
31.311
31.287
31.26
31.23
31.197
31.163
31.127
31.094
31.064
31.04
31.024
31.019
31.029
31.058
31.113
31.201
31.328
31.503
31.732
32.02
32.37
32.784
33.26
33.796
34.383
35.014
35.677
36.361
37.053
37.741
38.413
39.059
39.67
40.237
40.754
41.217
41.622
41.97
42.261
42.497
42.682
42.819
42.912
42.965
42.983
42.97
42.929
42.866
42.784
42.687
42.578
42.461
42.337
42.208
42.076
41.94
41.802
41.662
41.519
41.374
41.23
41.085
40.94
40.795
40.651
40.508
40.367
40.228
40.092
39.958
39.826
39.697
39.571
39.446
39.322
39.198
39.073
38.947
38.818
38.686
38.551
38.412
38.27
38.127
37.982
37.839
37.699
37.563
37.435
37.315
37.205
37.105
37.016
36.938
36.871
36.814
36.769
36.734
36.71
36.694
36.685
36.683
36.686
36.691
36.697
36.703
36.707
36.709
36.707
36.701
36.691
36.674
36.652
36.624
36.59
36.548
36.5
36.444
36.382
36.313
36.239
36.159
36.076
35.989
35.898
35.803
35.705
35.604
35.502
35.398
35.293
35.187
35.08
34.972
34.864
34.755
34.646
34.537
34.428
34.32
34.211
34.103
33.995
33.889
33.785
33.683
33.585
33.491
33.402
33.316
33.234
33.156
33.08
33.007
32.936
32.865
32.795
32.724
32.653
32.583
32.513
32.445
32.379
32.315
32.253
32.194
32.137
32.082
32.03
31.979
31.93
31.882
31.835
31.789
31.743
31.698
31.654
31.61
31.568
31.529
31.492
31.458
31.428
31.402
31.381
31.363
31.347
31.333
31.321
31.31
31.3
31.292
31.285
31.282
31.28
31.28
31.281
31.282
31.283
31.283
31.279
31.271
31.26
31.246
31.23
31.214
31.2
31.187
31.177
31.17
31.164
31.16
31.155
31.149
31.141
31.129
31.113
31.094
31.071
31.044
31.013
30.981
30.948
30.917
30.891
30.874
30.869
30.881
30.917
30.981
31.08
31.222
31.415
31.664
31.975
32.349
32.786
33.284
33.839
34.443
35.088
35.763
36.456
37.155
37.848
38.524
39.171
39.781
40.345
40.859
41.318
41.719
42.063
42.35
42.581
42.759
42.886
42.967
43.006
43.008
42.98
42.925
42.848
42.753
42.643
42.521
42.391
42.255
42.115
41.972
41.829
41.688
41.55
41.415
41.284
41.158
41.036
40.918
40.802
40.69
40.582
40.477
40.375
40.274
40.173
40.073
39.971
39.867
39.761
39.652
39.539
39.422
39.301
39.176
39.045
38.911
38.773
38.632
38.489
38.345
38.201
38.056
37.913
37.772
37.636
37.504
37.377
37.257
37.145
37.042
36.948
36.866
36.795
36.734
36.684
36.644
36.611
36.587
36.567
36.552
36.54
36.529
36.519
36.507
36.495
36.481
36.466
36.449
36.427
36.401
36.368
36.328
36.279
36.221
36.154
36.077
35.991
35.898
35.799
35.695
35.589
35.482
35.375
35.269
35.165
35.063
34.964
34.867
34.772
34.678
34.584
34.49
34.395
34.299
34.202
34.104
34.005
33.906
33.807
33.708
33.609
33.513
33.418
33.327
33.238
33.153
33.071
32.993
32.917
32.844
32.771
32.7
32.629
32.559
32.488
32.419
32.35
32.284
32.222
32.162
32.107
32.054
32.005
31.959
31.914
31.869
31.824
31.779
31.733
31.686
31.64
31.594
31.55
31.507
31.466
31.427
31.39
31.354
31.32
31.288
31.257
31.227
31.199
31.173
31.15
31.129
31.112
31.098
31.087
31.079
31.072
31.067
31.064
31.062
31.06
31.056
31.051
31.044
31.035
31.024
31.011
30.999
30.987
30.975
30.965
30.955
30.947
30.939
30.93
30.919
30.905
30.888
30.869
30.846
30.821
30.794
30.766
30.736
30.705
30.673
30.642
30.612
30.58
30.547
30.514
30.485
30.467
30.467
30.493
30.555
30.66
30.816
31.031
31.31
31.657
32.072
32.554
33.097
33.697
34.342
35.023
35.727
36.441
37.154
37.85
38.521
39.155
39.746
40.288
40.776
41.207
41.579
41.894
42.151
42.354
42.506
42.611
42.675
42.703
42.699
42.666
42.611
42.536
42.447
42.345
42.233
42.113
41.988
41.858
41.725
41.59
41.452
41.312
41.171
41.029
40.887
40.745
40.603
40.463
40.325
40.188
40.054
39.923
39.795
39.67
39.549
39.43
39.313
39.196
39.077
38.956
38.832
38.705
38.572
38.436
38.295
38.15
38.002
37.852
37.703
37.554
37.409
37.269
37.136
37.01
36.895
36.789
36.694
36.61
36.537
36.475
36.423
36.379
36.342
36.311
36.285
36.262
36.242
36.222
36.203
36.185
36.168
36.149
36.131
36.11
36.089
36.067
36.043
36.016
35.985
35.951
35.912
35.869
35.819
35.763
35.701
35.632
35.555
35.472
35.382
35.286
35.185
35.08
34.972
34.861
34.75
34.638
34.527
34.417
34.308
34.201
34.097
33.995
33.895
33.798
33.702
33.607
33.513
33.42
33.327
33.235
33.144
33.056
32.971
32.889
32.81
32.734
32.661
32.591
32.522
32.454
32.387
32.322
32.258
32.195
32.133
32.072
32.012
31.954
31.896
31.841
31.789
31.739
31.693
31.65
31.609
31.57
31.533
31.496
31.459
31.423
31.386
31.349
31.312
31.276
31.241
31.206
31.171
31.135
31.097
31.059
31.02
30.981
30.942
30.905
30.87
30.839
30.811
30.788
30.77
30.756
30.743
30.732
30.721
30.709
30.697
30.684
30.671
30.657
30.642
30.627
30.612
30.596
30.58
30.564
30.548
30.533
30.517
30.501
30.485
30.468
30.451
30.434
30.418
30.402
30.386
30.372
30.36
30.349
30.339
30.33
30.322
30.313
30.303
30.293
30.281
30.268
30.252
30.233
30.212
30.188
30.163
30.138
30.116
30.097
30.086
30.086
30.101
30.137
30.199
30.295
30.431
30.615
30.854
31.153
31.516
31.944
32.438
32.993
33.603
34.258
34.946
35.655
36.373
37.087
37.782
38.449
39.076
39.655
40.179
40.642
41.043
41.38
41.655
41.871
42.031
42.141
42.206
42.231
42.221
42.182
42.118
42.034
41.935
41.824
41.705
41.579
41.449
41.316
41.18
41.043
40.904
40.763
40.621
40.479
40.337
40.197
40.058
39.922
39.789
39.658
39.531
39.407
39.287
39.169
39.054
38.941
38.829
38.718
38.605
38.49
38.372
38.249
38.123
37.992
37.856
37.717
37.576
37.435
37.296
37.161
37.031
36.906
36.79
36.683
36.587
36.503
36.43
36.368
36.318
36.279
36.247
36.224
36.207
36.196
36.19
36.188
36.189
36.193
36.198
36.204
36.209
36.212
36.212
36.21
36.204
36.194
36.179
36.16
36.136
36.107
36.072
36.032
35.986
35.934
35.877
35.813
35.743
35.667
35.584
35.496
35.402
35.304
35.203
35.099
34.994
34.888
34.783
34.68
34.579
34.48
34.384
34.29
34.197
34.105
34.014
33.929
33.852
33.785
33.726
33.671
33.619
33.565
33.508
33.446
33.377
33.299
33.213
33.12
33.021
32.918
32.814
32.71
32.608
32.51
32.419
32.335
32.259
32.191
32.132
32.079
32.033
31.99
31.951
31.914
31.878
31.844
31.811
31.778
31.745
31.713
31.682
31.652
31.624
31.598
31.573
31.549
31.526
31.501
31.474
31.445
31.414
31.379
31.34
31.297
31.251
31.204
31.155
31.107
31.061
31.018
30.979
30.944
30.912
30.885
30.862
30.844
30.828
30.815
30.803
30.792
30.782
30.772
30.764
30.758
30.754
30.751
30.75
30.75
30.75
30.752
30.753
30.754
30.754
30.754
30.753
30.752
30.751
30.751
30.753
30.756
30.759
30.762
30.765
30.766
30.766
30.764
30.759
30.752
30.743
30.732
30.72
30.706
30.691
30.676
30.661
30.646
30.631
30.619
30.608
30.603
30.602
30.611
30.631
30.667
30.724
30.809
30.929
31.092
31.306
31.579
31.914
32.315
32.781
33.308
33.891
34.52
35.186
35.877
36.578
37.277
37.962
38.617
39.233
39.799
40.31
40.76
41.146
41.469
41.73
41.931
42.077
42.172
42.222
42.233
42.21
42.16
42.086
41.994
41.887
41.77
41.646
41.517
41.382
41.243
41.102
40.959
40.815
40.671
40.527
40.384
40.242
40.101
39.962
39.825
39.691
39.56
39.432
39.308
39.188
39.07
38.955
38.842
38.731
38.619
38.505
38.389
38.271
38.15
38.026
37.9
37.773
37.645
37.518
37.393
37.272
37.156
37.046
36.944
36.85
36.763
36.684
36.614
36.552
36.5
36.456
36.421
36.396
36.38
36.373
36.375
36.384
36.4
36.422
36.448
36.476
36.503
36.528
36.549
36.564
36.574
36.576
36.573
36.562
36.545
36.52
36.488
36.449
36.405
36.354
36.298
36.237
36.172
36.102
36.029
35.951
35.869
35.783
35.695
35.605
35.512
35.418
35.324
35.23
35.138
35.046
34.954
