Trial 3:3back
36.083
36.031
35.974
35.913
35.85
35.785
35.72
35.657
35.596
35.537
35.479
35.422
35.366
35.308
35.249
35.189
35.128
35.066
35.002
34.939
34.875
34.812
34.75
34.691
34.633
34.579
34.527
34.476
34.427
34.378
34.33
34.282
34.235
34.188
34.142
34.095
34.049
34.002
33.955
33.909
33.863
33.818
33.774
33.73
33.687
33.646
33.607
33.569
33.533
33.5
33.468
33.438
33.408
33.379
33.351
33.323
33.296
33.271
33.247
33.226
33.206
33.187
33.168
33.149
33.129
33.108
33.084
33.057
33.029
32.998
32.966
32.934
32.902
32.871
32.841
32.811
32.783
32.758
32.734
32.713
32.695
32.678
32.663
32.647
32.63
32.61
32.588
32.563
32.534
32.502
32.466
32.428
32.389
32.349
32.311
32.276
32.246
32.222
32.205
32.197
32.201
32.219
32.257
32.316
32.4
32.511
32.651
32.82
33.017
33.241
33.49
33.761
34.05
34.353
34.667
34.987
35.311
35.633
35.95
36.26
36.559
36.844
37.112
37.361
37.588
37.793
37.974
38.13
38.262
38.371
38.456
38.521
38.567
38.598
38.616
38.622
38.622
38.617
38.611
38.606
38.603
38.602
38.604
38.609
38.616
38.624
38.631
38.638
38.643
38.646
38.646
38.644
38.638
38.629
38.614
38.592
38.563
38.526
38.481
38.427
38.364
38.293
38.215
38.131
38.043
37.951
37.857
37.762
37.67
37.579
37.491
37.406
37.325
37.249
37.178
37.112
37.05
36.991
36.936
36.883
36.833
36.785
36.738
36.691
36.646
36.601
36.557
36.514
36.472
36.431
36.391
36.352
36.314
36.276
36.239
36.203
36.166
36.128
36.089
36.049
36.008
35.964
35.918
35.87
35.82
35.769
35.717
35.663
35.608
35.553
35.497
35.44
35.383
35.325
35.267
35.208
35.151
35.093
35.038
34.983
34.93
34.877
34.824
34.77
34.716
34.662
34.608
34.553
34.497
34.441
34.386
34.332
34.278
34.225
34.172
34.119
34.067
34.015
33.964
33.916
33.87
33.827
33.787
33.749
33.713
33.679
33.646
33.614
33.583
33.553
33.523
33.494
33.466
33.44
33.417
33.397
33.38
33.365
33.35
33.335
33.32
33.304
33.287
33.268
33.249
33.228
33.205
33.182
33.158
33.132
33.106
33.08
33.053
33.025
32.998
32.972
32.947
32.923
32.901
32.881
32.863
32.846
32.829
32.814
32.798
32.782
32.765
32.744
32.721
32.694
32.664
32.631
32.597
32.563
32.53
32.5
32.471
32.446
32.425
32.409
32.4
32.4
32.412
32.436
32.478
32.539
32.623
32.732
32.867
33.03
33.221
33.44
33.685
33.953
34.242
34.548
34.867
35.193
35.521
35.848
36.168
36.477
36.773
37.051
37.309
37.546
37.76
37.949
38.114
38.255
38.371
38.465
38.539
38.595
38.635
38.663
38.68
38.69
38.695
38.696
38.696
38.694
38.691
38.688
38.684
38.679
38.672
38.665
38.658
38.649
38.638
38.627
38.614
38.6
38.582
38.56
38.534
38.503
38.465
38.419
38.363
38.294
38.213
38.122
38.025
37.923
37.822
37.723
37.628
37.54
37.46
37.389
37.327
37.272
37.226
37.187
37.155
37.128
37.103
37.078
37.052
37.024
36.994
36.961
36.927
36.891
36.855
36.82
36.785
36.752
36.721
36.692
36.663
36.635
36.606
36.575
36.541
36.505
36.465
36.423
36.378
36.332
36.283
36.233
36.181
36.128
36.073
36.018
35.961
35.904
35.847
35.789
35.731
35.672
35.612
35.552
35.492
35.43
35.366
35.301
35.234
35.166
35.096
35.025
34.954
34.882
34.811
34.742
34.676
34.612
34.552
34.495
34.442
34.39
34.341
34.292
34.245
34.198
34.152
34.107
34.064
34.021
33.979
33.938
33.897
33.857
33.817
33.78
33.743
33.709
33.676
33.645
33.615
33.587
33.559
33.531
33.503
33.474
33.444
33.412
33.38
33.347
33.315
33.283
33.251
33.22
33.189
33.159
33.129
33.1
33.072
33.045
33.02
32.996
32.974
32.954
32.937
32.922
32.908
32.896
32.883
32.868
32.849
32.828
32.802
32.772
32.739
32.702
32.664
32.625
32.585
32.547
32.51
32.475
32.441
32.408
32.376
32.346
32.316
32.288
32.262
32.237
32.212
32.188
32.164
32.141
32.118
32.096
32.076
32.057
32.042
32.031
32.028
32.035
32.057
32.095
32.155
32.238
32.35
32.49
32.661
32.862
33.092
33.352
33.637
33.946
34.273
34.615
34.966
35.322
35.676
36.024
36.362
36.685
36.991
37.276
37.537
37.774
37.985
38.17
38.33
38.465
38.577
38.667
38.736
38.787
38.821
38.84
38.846
38.842
38.83
38.811
38.787
38.761
38.733
38.706
38.679
38.653
38.629
38.608
38.59
38.576
38.564
38.555
38.547
38.54
38.533
38.524
38.512
38.495
38.472
38.442
38.403
38.354
38.297
38.229
38.153
38.069
37.98
37.889
37.797
37.704
37.612
37.522
37.435
37.352
37.273
37.197
37.126
37.059
36.996
36.938
36.883
36.832
36.783
36.737
36.695
36.655
36.619
36.584
36.551
36.519
36.488
36.455
36.42
36.382
36.34
36.297
36.251
36.204
36.157
36.11
36.063
36.017
35.971
35.925
35.878
35.83
35.779
35.725
35.668
35.609
35.548
35.487
35.425
35.363
35.3
35.238
35.176
35.113
35.05
34.987
34.922
34.858
34.793
34.728
34.665
34.603
34.543
34.484
34.427
34.372
34.318
34.265
34.213
34.16
34.107
34.053
33.999
33.943
33.887
33.83
33.775
33.721
33.67
33.621
33.575
33.531
33.491
33.454
33.42
33.388
33.359
33.332
33.304
33.277
33.249
33.22
33.191
33.16
33.129
33.096
33.063
33.028
32.992
32.957
32.922
32.888
32.857
32.826
32.797
32.769
32.742
32.718
32.695
32.673
32.652
32.633
32.614
32.594
32.575
32.554
32.533
32.51
32.485
32.459
32.431
32.402
32.373
32.345
32.317
32.289
32.261
32.233
32.203
32.172
32.14
32.107
32.074
32.04
32.006
31.974
31.944
31.917
31.892
31.87
31.849
31.831
31.814
31.802
31.795
31.797
31.811
31.841
31.887
31.955
32.047
32.167
32.316
32.495
32.704
32.94
33.201
33.484
33.786
34.102
34.429
34.761
35.094
35.424
35.746
36.057
36.353
36.631
36.888
37.123
37.334
37.521
37.684
37.824
37.942
38.04
38.121
38.187
38.239
38.28
38.31
38.331
38.343
38.348
38.346
38.336
38.32
38.299
38.274
38.245
38.215
38.185
38.155
38.127
38.101
38.077
38.056
38.035
38.015
37.995
37.973
37.95
37.924
37.894
37.861
37.821
37.776
37.725
37.667
37.603
37.533
37.458
37.38
37.298
37.213
37.126
37.039
36.953
36.869
36.788
36.712
36.639
36.571
36.509
36.454
36.406
36.367
36.335
36.312
36.295
36.284
36.277
36.271
36.266
36.26
36.251
36.238
36.22
36.197
36.168
36.135
36.097
36.056
36.014
35.971
35.927
35.882
35.837
35.791
35.746
35.7
35.654
35.607
35.559
35.509
35.457
35.401
35.343
35.283
35.22
35.156
35.089
35.021
34.952
34.884
34.818
34.753
34.691
34.631
34.572
34.515
34.459
34.403
34.346
34.288
34.23
34.17
34.111
34.052
33.995
33.94
33.887
33.836
33.786
33.737
33.691
33.646
33.603
33.562
33.523
33.486
33.453
33.425
33.4
33.378
33.357
33.336
33.314
33.29
33.263
33.231
33.196
33.156
33.114
33.069
33.022
32.976
32.93
32.886
32.843
32.803
32.766
32.734
32.707
32.685
32.668
32.654
32.642
32.632
32.623
32.613
32.602
32.589
32.574
32.557
32.538
32.516
32.493
32.467
32.44
32.411
32.379
32.345
32.308
32.271
32.232
32.194
32.156
32.121
32.088
32.059
32.033
32.011
31.993
31.978
31.966
31.957
31.951
31.951
31.959
31.978
32.009
32.057
32.124
32.212
32.325
32.464
32.631
32.826
33.049
33.298
33.569
33.861
34.168
34.488
34.824
35.169
35.519
35.868
36.208
36.531
36.832
37.106
37.349
37.56
37.74
37.89
38.011
38.105
38.176
38.226
38.259
38.276
38.282
38.279
38.268
38.251
38.231
38.209
38.186
38.163
38.14
38.118
38.096
38.075
38.053
38.031
38.008
37.982
37.954
37.924
37.891
37.853
37.809
37.76
37.705
37.645
37.582
37.516
37.449
37.382
37.315
37.25
37.187
37.125
37.065
37.006
36.948
36.891
36.833
36.775
36.716
36.657
36.599
36.543
36.491
36.442
36.399
36.362
36.33
36.306
36.289
36.279
36.275
36.277
36.284
36.295
36.309
36.325
36.339
36.351
36.358
36.359
36.352
36.336
36.31
36.276
36.233
36.182
36.127
36.069
36.01
35.952
35.897
35.846
35.8
35.757
35.718
35.681
35.647
35.615
35.583
35.55
35.516
35.479
35.438
35.393
35.345
35.292
35.236
35.178
35.119
35.06
35.002
34.945
34.889
34.835
34.783
34.733
34.686
34.64
34.596
34.554
34.511
34.468
34.425
34.38
34.335
34.29
34.244
34.2
34.158
34.119
34.085
34.055
34.029
34.007
33.989
33.972
33.956
33.939
33.921
33.901
33.879
33.854
33.829
33.802
33.775
33.75
33.725
33.703
33.683
33.665
33.649
33.634
33.619
33.605
33.589
33.573
33.555
33.536
33.514
33.491
33.467
33.441
33.414
33.385
33.354
33.322
33.288
33.253
33.218
33.183
33.15
33.117
33.086
33.055
33.026
32.999
32.975
32.957
32.946
32.945
32.958
32.986
33.033
33.102
33.196
33.317
33.465
33.639
33.84
34.065
34.312
34.578
34.861
35.158
35.465
35.779
36.094
36.408
36.716
37.013
37.296
37.563
37.81
38.036
38.238
38.416
38.569
38.699
38.805
38.891
38.956
39.004
39.036
39.054
39.061
39.057
39.045
39.027
39.003
38.975
38.945
38.913
38.881
38.847
38.814
38.78
38.748
38.716
38.685
38.655
38.625
38.595
38.563
38.529
38.493
38.454
38.411
38.363
38.309
38.248
38.181
38.108
38.029
37.946
37.859
37.772
37.685
37.601
37.52
37.443
37.37
37.303
37.242
37.185
37.135
37.089
37.049
37.013
36.981
36.952
36.926
36.904
36.884
36.866
36.849
36.833
36.816
36.799
36.779
36.756
36.731
36.703
36.674
36.642
36.608
36.573
36.536
36.498
36.461
36.423
36.385
36.346
36.304
36.259
36.209
36.155
36.097
36.034
35.966
35.896
35.822
35.747
35.672
35.597
35.524
35.452
35.383
35.315
35.25
35.186
35.122
35.059
34.995
34.931
34.867
34.802
34.737
34.671
34.603
34.535
34.468
34.403
34.341
34.282
34.228
34.178
34.131
34.088
34.047
34.008
33.971
33.934
33.897
33.859
33.821
33.781
33.74
33.699
33.657
33.617
33.577
33.539
33.502
33.467
33.434
33.402
33.371
33.341
33.312
33.284
33.256
33.23
33.204
33.181
33.159
33.138
33.119
33.102
33.085
33.069
33.053
33.037
33.02
33.001
32.979
32.955
32.929
32.901
32.871
32.84
32.808
32.775
32.743
32.71
32.677
32.643
32.61
32.577
32.546
32.516
32.487
32.46
32.435
32.413
32.396
32.384
32.379
32.382
32.396
32.423
32.467
32.532
32.621
32.737
32.883
33.058
33.263
33.497
33.759
34.047
34.357
34.684
35.025
35.375
35.727
36.077
36.421
36.754
37.073
37.376
37.659
37.921
38.159
38.374
38.564
38.73
38.871
38.99
39.089
39.168
39.228
39.273
39.302
39.318
39.323
39.319
39.308
39.291
39.271
39.25
39.228
39.206
39.186
39.168
39.153
39.142
39.133
39.127
39.12
39.114
39.106
39.095
39.082
39.064
39.042
39.015
38.983
38.945
38.9
38.85
38.793
38.73
38.66
38.586
38.507
38.424
38.338
38.25
38.161
38.073
37.988
37.905
37.828
37.754
37.686
37.623
37.565
37.514
37.467
37.423
37.383
37.345
37.309
37.274
37.24
37.206
37.172
37.138
37.104
37.069
37.035
37.001
36.967
36.935
36.904
36.874
36.844
36.814
36.782
36.748
36.711
36.67
36.625
36.575
36.521
36.464
36.404
36.341
36.276
36.211
36.145
36.078
36.013
35.948
35.883
35.82
35.757
35.694
35.631
35.567
35.504
35.44
35.376
35.309
35.242
35.173
35.103
35.034
34.964
34.896
34.829
34.766
34.705
34.648
34.596
34.547
34.502
34.46
34.419
34.379
34.338
34.296
34.252
34.206
34.157
34.108
34.058
34.008
33.961
33.916
33.876
33.841
33.809
33.781
33.755
33.73
33.707
33.684
33.66
33.635
33.609
33.583
33.555
33.526
33.496
33.466
33.436
33.407
33.379
33.352
33.327
33.304
33.281
33.259
33.237
33.213
33.189
33.163
33.135
33.106
33.075
33.044
33.011
32.977
32.943
32.908
32.872
32.836
32.798
32.759
32.718
32.676
32.634
32.59
32.547
32.505
32.464
32.426
32.39
32.358
32.331
32.31
32.297
32.294
32.304
32.329
32.372
32.436
32.525
32.641
32.786
32.961
33.167
33.402
33.666
33.955
34.267
34.598
34.943
35.297
35.657
36.018
36.374
36.721
37.054
37.369
37.663
37.935
38.181
38.401
38.596
38.766
38.913
39.037
39.142
39.227
39.296
39.348
39.387
39.413
39.427
39.431
39.426
39.414
39.396
39.374
39.349
39.322
39.295
39.267
39.24
39.213
39.189
39.166
39.145
39.125
39.105
39.085
39.064
39.039
39.011
38.977
38.937
38.891
38.837
38.777
38.71
38.637
38.558
38.474
38.387
38.297
38.204
38.111
38.019
37.928
37.84
37.755
37.674
37.597
37.524
37.454
37.389
37.329
37.273
37.222
37.175
37.131
37.091
37.054
37.018
36.984
36.95
36.916
36.883
36.849
36.816
36.781
36.746
36.709
36.67
36.63
36.589
36.545
36.499
36.449
36.396
36.338
36.277
36.212
36.145
36.077
36.007
35.939
35.872
35.808
35.746
35.686
35.629
35.574
35.519
35.464
35.408
35.349
35.287
35.221
35.152
35.081
35.008
34.935
34.861
34.789
34.718
34.648
34.582
34.517
34.454
34.392
34.332
34.272
34.213
34.155
34.098
34.043
33.99
33.938
33.889
33.842
33.797
33.755
33.714
33.674
33.635
33.596
33.557
33.517
33.478
33.437
33.396
33.356
33.315
33.276
33.238
33.203
33.171
33.144
33.12
33.099
33.081
33.065
33.049
33.034
33.018
33.002
32.983
32.964
32.942
32.92
32.898
32.876
32.853
32.83
32.805
32.778
32.748
32.717
32.683
32.646
32.608
32.568
32.528
32.487
32.447
32.408
32.371
32.336
32.302
32.271
32.24
32.211
32.183
32.156
32.128
32.101
32.074
32.048
32.026
32.009
32.001
32.008
32.032
32.079
32.152
32.254
32.388
32.556
32.756
32.988
33.251
33.541
33.856
34.192
34.544
34.908
35.278
35.651
36.019
36.379
36.726
37.056
37.365
37.65
37.91
38.143
38.349
38.528
38.681
38.809
38.914
38.997
39.061
39.109
39.142
39.162
39.17
39.17
39.163
39.151
39.134
39.115
39.093
39.07
39.045
39.018
38.99
38.961
38.931
38.9
38.867
38.833
38.798
38.761
38.722
38.682
38.64
38.595
38.547
38.496
38.439
38.377
38.31
38.238
38.161
38.081
37.997
37.91
37.823
37.736
37.65
37.565
37.484
37.407
37.335
37.269
37.209
37.155
37.107
37.064
37.027
36.995
36.968
36.948
36.932
36.92
36.912
36.906
36.9
36.895
36.888
36.881
36.871
36.858
36.842
36.822
36.798
36.77
36.738
36.702
36.663
36.62
36.572
36.521
36.466
36.407
36.346
36.283
36.22
36.157
36.094
36.033
35.974
35.917
35.862
35.808
35.755
35.7
35.643
35.584
35.522
35.457
35.391
35.324
35.257
35.187
35.112
35.035
34.956
34.878
34.803
34.731
34.665
34.605
34.551
34.502
34.459
34.42
34.384
34.35
34.318
34.285
34.251
34.214
34.177
34.139
34.102
34.066
34.032
34.0
33.971
33.943
33.917
33.892
33.867
33.841
33.816
33.791
33.765
33.74
33.715
33.69
33.665
33.642
33.62
33.597
33.573
33.548
33.52
33.489
33.455
33.418
33.378
33.336
33.291
33.244
33.197
33.151
33.106
33.066
33.03
32.998
32.972
32.952
32.937
32.927
32.922
32.921
32.927
32.941
32.966
33.008
33.069
33.153
33.263
33.401
33.567
33.761
33.982
34.228
34.495
34.779
35.077
35.38
35.68
35.976
36.265
36.547
36.821
37.089
37.348
37.599
37.839
38.067
38.281
38.481
38.664
38.829
38.975
39.1
39.206
39.291
39.357
39.405
39.434
39.449
39.449
39.438
39.418
39.391
39.359
39.322
39.283
39.241
39.198
39.155
39.112
39.069
39.026
38.984
38.942
38.899
38.855
38.81
38.762
38.711
38.658
38.6
38.539
38.473
38.402
38.325
38.243
38.156
38.065
37.971
37.876
37.78
37.686
37.595
37.507
37.425
37.347
37.275
37.209
37.149
37.094
37.046
37.003
36.965
36.932
36.903
36.878
36.855
36.834
36.812
36.79
36.765
36.737
36.705
36.669
36.63
36.588
36.543
36.495
36.445
36.393
36.341
36.289
36.236
36.184
36.131
36.078
36.023
35.966
35.906
35.844
35.78
35.713
35.644
35.571
35.497
35.42
35.342
35.265
35.187
35.11
35.034
34.958
34.883
34.81
34.738
34.668
34.599
34.531
34.465
34.4
34.336
34.275
34.214
34.155
34.096
34.038
33.981
33.925
33.869
33.815
33.763
33.711
33.66
33.609
33.559
33.511
33.463
33.418
33.375
33.335
33.298
33.264
33.233
33.205
33.179
33.155
33.131
33.108
33.085
33.061
33.036
33.011
32.985
32.96
32.934
32.909
32.885
32.86
32.835
32.812
32.789
32.766
32.743
32.719
32.694
32.669
32.642
32.613
32.583
32.552
32.519
32.486
32.452
32.418
32.384
32.35
32.316
32.281
32.247
32.212
32.177
32.142
32.11
32.083
32.063
32.052
32.054
32.072
32.109
32.167
32.251
32.362
32.501
32.67
32.87
33.099
33.357
33.642
33.95
34.278
34.622
34.977
35.339
35.701
36.059
36.409
36.746
37.068
37.371
37.652
37.912
38.148
38.361
38.55
38.714
38.854
38.97
39.065
39.139
39.194
39.232
39.256
39.267
39.269
39.265
39.257
39.248
39.238
39.231
39.226
39.224
39.225
39.229
39.234
39.238
39.24
39.239
39.233
39.222
39.206
39.183
39.155
39.121
39.079
39.031
38.976
38.913
38.842
38.765
38.68
38.589
38.492
38.39
38.285
38.179
38.073
37.97
37.87
37.775
37.687
37.605
37.53
37.462
37.4
37.343
37.289
37.238
37.189
37.141
37.093
37.045
36.999
36.954
36.912
36.872
36.833
36.797
36.763
36.73
36.698
36.667
36.635
36.602
36.567
36.528
36.486
36.439
36.389
36.335
36.276
36.214
36.147
36.079
36.01
35.94
35.871
35.803
35.736
35.669
35.603
35.537
35.471
35.407
35.343
35.278
35.212
35.146
35.077
35.007
34.935
34.863
34.79
34.717
34.645
34.572
34.5
34.428
34.358
34.288
34.221
34.155
34.092
34.031
33.972
33.916
33.861
33.81
33.76
33.713
33.668
33.624
33.582
33.541
33.502
33.465
33.429
33.394
33.361
33.329
33.298
33.268
33.238
33.208
33.179
33.149
33.119
33.088
33.058
33.027
32.997
32.968
32.938
32.91
32.882
32.854
32.827
32.799
32.772
32.744
32.716
32.688
32.659
32.629
32.598
32.566
32.531
32.494
32.455
32.414
32.373
32.332
32.292
32.254
32.216
32.181
32.146
32.114
32.084
32.058
32.037
32.023
32.018
32.025
32.048
32.09
32.155
32.245
32.364
32.514
32.695
32.906
33.147
33.417
33.711
34.027
34.36
34.704
35.056
35.411
35.764
36.111
36.446
36.769
37.074
37.36
37.624
37.865
38.083
38.278
38.451
38.602
38.732
38.842
38.932
39.004
39.059
39.099
39.124
39.136
39.137
39.129
39.113
39.091
39.064
39.034
39.001
38.968
38.934
38.901
38.868
38.837
38.807
38.78
38.755
38.73
38.706
38.68
38.652
38.618
38.579
38.531
38.475
38.41
38.335
38.251
38.158
38.058
37.95
37.838
37.722
37.605
37.489
37.374
37.264
37.159
37.062
36.974
36.895
36.826
36.766
36.716
36.675
36.641
36.614
36.593
36.574
36.557
36.538
36.517
36.494
36.467
36.437
36.404
36.369
36.332
36.294
36.256
36.217
36.178
36.138
36.097
36.055
36.011
35.965
35.916
35.863
35.807
35.746
35.683
35.616
35.547
35.476
35.403
35.329
35.255
35.183
35.112
35.044
34.979
34.916
34.854
34.794
34.733
34.673
34.611
34.548
34.483
34.416
34.346
34.274
34.203
34.132
34.063
33.996
33.932
33.87
33.811
33.755
33.701
33.651
33.603
33.559
33.517
33.477
33.439
33.403
33.369
33.337
33.308
33.279
33.251
33.223
33.193
33.164
33.135
33.107
33.08
33.053
33.027
33.0
32.972
32.944
32.914
32.885
32.855
32.825
32.795
32.764
32.734
32.705
32.676
32.648
32.62
32.592
32.565
32.539
32.515
32.491
32.468
32.446
32.422
32.398
32.373
32.347
32.321
32.296
32.274
32.255
32.241
32.235
32.238
32.254
32.286
32.338
32.412
32.512
32.639
32.795
32.982
33.199
33.445
33.718
34.015
34.33
34.66
34.999
35.343
35.687
36.027
36.359
36.68
36.987
37.274
37.541
37.786
38.006
38.201
38.373
38.521
38.645
38.748
38.831
38.895
38.941
38.973
38.992
39.001
39.001
38.994
38.982
38.967
38.949
38.93
38.91
38.889
38.864
38.831
38.793
38.751
38.707
38.662
38.617
38.573
38.531
38.489
38.448
38.407
38.364
38.319
38.27
38.216
38.157
38.092
38.021
37.945
37.864
