Trial 3:3back
34.557
34.549
34.543
34.539
34.537
34.535
34.533
34.531
34.529
34.526
34.522
34.517
34.512
34.506
34.5
34.495
34.489
34.482
34.475
34.468
34.46
34.452
34.445
34.438
34.431
34.425
34.42
34.415
34.411
34.407
34.404
34.4
34.396
34.391
34.387
34.382
34.376
34.371
34.366
34.361
34.358
34.355
34.353
34.352
34.35
34.349
34.347
34.344
34.339
34.331
34.322
34.31
34.295
34.279
34.26
34.241
34.222
34.203
34.186
34.17
34.156
34.144
34.135
34.129
34.127
34.128
34.133
34.142
34.156
34.176
34.203
34.238
34.28
34.332
34.392
34.462
34.54
34.627
34.722
34.824
34.932
35.044
35.158
35.273
35.384
35.492
35.592
35.685
35.767
35.839
35.899
35.946
35.981
36.004
36.016
36.017
36.009
35.993
35.97
35.942
35.911
35.879
35.846
35.813
35.782
35.753
35.728
35.707
35.689
35.674
35.662
35.652
35.643
35.636
35.629
35.623
35.618
35.613
35.609
35.606
35.603
35.599
35.596
35.591
35.586
35.58
35.573
35.565
35.554
35.541
35.526
35.509
35.49
35.47
35.45
35.431
35.413
35.397
35.384
35.376
35.371
35.371
35.375
35.383
35.395
35.41
35.428
35.447
35.466
35.485
35.504
35.52
35.535
35.549
35.559
35.568
35.574
35.578
35.579
35.577
35.572
35.565
35.556
35.545
35.531
35.516
35.5
35.483
35.465
35.446
35.427
35.408
35.388
35.367
35.346
35.325
35.303
35.282
35.26
35.238
35.216
35.194
35.171
35.148
35.125
35.102
35.078
35.055
35.032
35.01
34.989
34.968
34.948
34.929
34.911
34.895
34.879
34.863
34.848
34.834
34.82
34.806
34.793
34.78
34.769
34.758
34.749
34.741
34.734
34.728
34.723
34.717
34.712
34.706
34.7
34.695
34.689
34.683
34.676
34.669
34.662
34.655
34.647
34.639
34.631
34.624
34.616
34.609
34.601
34.592
34.583
34.571
34.558
34.543
34.526
34.508
34.487
34.465
34.441
34.416
34.39
34.363
34.337
34.312
34.289
34.268
34.249
34.234
34.222
34.214
34.21
34.211
34.218
34.232
34.253
34.282
34.321
34.368
34.425
34.49
34.565
34.648
34.738
34.835
34.935
35.039
35.144
35.248
35.35
35.447
35.538
35.622
35.696
35.76
35.813
35.855
35.886
35.906
35.915
35.913
35.902
35.882
35.857
35.827
35.794
35.76
35.725
35.692
35.66
35.629
35.6
35.574
35.551
35.53
35.512
35.497
35.485
35.475
35.468
35.462
35.457
35.452
35.449
35.446
35.443
35.441
35.439
35.437
35.434
35.429
35.422
35.411
35.398
35.382
35.363
35.342
35.319
35.295
35.27
35.245
35.221
35.197
35.175
35.154
35.136
35.121
35.109
35.1
35.096
35.094
35.095
35.099
35.106
35.114
35.123
35.132
35.141
35.148
35.154
35.156
35.157
35.154
35.148
35.14
35.128
35.115
35.099
35.082
35.063
35.043
35.022
35.002
34.981
34.961
34.941
34.922
34.903
34.885
34.867
34.85
34.833
34.816
34.8
34.784
34.769
34.754
34.739
34.724
34.709
34.694
34.679
34.663
34.646
34.629
34.611
34.593
34.575
34.558
34.541
34.525
34.51
34.495
34.481
34.467
34.453
34.44
34.429
34.418
34.407
34.398
34.389
34.38
34.373
34.366
34.36
34.355
34.35
34.346
34.341
34.335
34.329
34.322
34.314
34.305
34.296
34.286
34.276
34.266
34.256
34.246
34.237
34.228
34.219
34.211
34.202
34.193
34.185
34.176
34.166
34.155
34.144
34.132
34.12
34.107
34.094
34.08
34.066
34.052
34.039
34.026
34.013
34.003
33.994
33.988
33.985
33.986
33.992
34.004
34.024
34.052
34.09
34.137
34.194
34.26
34.336
34.42
34.512
34.611
34.715
34.823
34.933
35.044
35.153
35.258
35.358
35.451
35.536
35.611
35.676
35.729
35.769
35.798
35.815
35.821
35.818
35.807
35.791
35.769
35.744
35.717
35.689
35.661
35.633
35.606
35.58
35.556
35.534
35.514
35.496
35.48
35.467
35.455
35.445
35.439
35.434
35.432
35.432
35.433
35.436
35.44
35.443
35.447
35.448
35.449
35.448
35.444
35.438
35.429
35.417
35.403
35.387
35.369
35.35
35.331
35.311
35.291
35.272
35.254
35.24
35.228
35.219
35.214
35.213
35.216
35.221
35.229
35.239
35.251
35.263
35.277
35.29
35.304
35.316
35.327
35.337
35.344
35.349
35.351
35.35
35.346
35.339
35.33
35.318
35.304
35.289
35.272
35.254
35.236
35.217
35.197
35.179
35.161
35.145
35.129
35.115
35.101
35.087
35.074
35.061
35.047
35.034
35.019
35.004
34.988
34.972
34.955
34.938
34.92
34.903
34.887
34.872
34.856
34.841
34.825
34.811
34.796
34.781
34.767
34.753
34.74
34.726
34.712
34.698
34.684
34.671
34.658
34.645
34.633
34.622
34.612
34.602
34.594
34.587
34.582
34.577
34.571
34.565
34.557
34.548
34.537
34.525
34.512
34.499
34.486
34.474
34.462
34.45
34.439
34.43
34.422
34.416
34.412
34.408
34.405
34.401
34.397
34.392
34.387
34.38
34.372
34.363
34.352
34.339
34.324
34.307
34.29
34.272
34.254
34.238
34.223
34.209
34.197
34.187
34.18
34.176
34.176
34.181
34.193
34.213
34.241
34.28
34.328
34.387
34.457
34.537
34.625
34.723
34.828
34.939
35.055
35.175
35.296
35.416
35.532
35.643
35.746
35.84
35.922
35.991
36.047
36.089
36.118
36.134
36.137
36.131
36.116
36.094
36.067
36.036
36.002
35.968
35.933
35.899
35.867
35.838
35.812
35.788
35.768
35.752
35.738
35.727
35.718
35.712
35.707
35.704
35.702
35.702
35.702
35.703
35.704
35.705
35.706
35.706
35.705
35.702
35.697
35.69
35.68
35.668
35.653
35.637
35.621
35.604
35.586
35.568
35.551
35.535
35.521
35.509
35.498
35.49
35.484
35.481
35.48
35.482
35.487
35.494
35.504
35.516
35.528
35.542
35.554
35.565
35.574
35.58
35.583
35.582
35.578
35.571
35.561
35.548
35.532
35.514
35.493
35.471
35.448
35.423
35.398
35.373
35.348
35.324
35.3
35.278
35.257
35.238
35.22
35.204
35.188
35.174
35.16
35.146
35.131
35.115
35.098
35.081
35.064
35.047
35.029
35.011
34.994
34.976
34.958
34.94
34.923
34.906
34.888
34.87
34.852
34.834
34.815
34.796
34.778
34.761
34.746
34.732
34.719
34.708
34.697
34.688
34.68
34.672
34.666
34.659
34.654
34.648
34.643
34.639
34.635
34.631
34.627
34.622
34.617
34.611
34.605
34.597
34.587
34.576
34.564
34.55
34.536
34.522
34.508
34.494
34.482
34.47
34.46
34.451
34.442
34.434
34.427
34.421
34.413
34.405
34.396
34.385
34.372
34.358
34.342
34.325
34.307
34.287
34.268
34.248
34.228
34.209
34.189
34.171
34.154
34.139
34.127
34.118
34.115
34.117
34.126
34.143
34.169
34.205
34.251
34.31
34.381
34.464
34.559
34.666
34.783
34.907
35.038
35.172
35.308
35.441
35.57
35.691
35.802
35.902
35.988
36.062
36.121
36.166
36.197
36.216
36.222
36.218
36.206
36.185
36.159
36.128
36.094
36.06
36.025
35.991
35.959
35.929
35.9
35.875
35.852
35.832
35.814
35.799
35.786
35.775
35.766
35.758
35.752
35.746
35.742
35.738
35.736
35.734
35.733
35.731
35.73
35.727
35.724
35.719
35.713
35.704
35.694
35.682
35.668
35.653
35.638
35.622
35.607
35.593
35.581
35.572
35.567
35.565
35.567
35.571
35.578
35.586
35.595
35.605
35.614
35.623
35.632
35.639
35.645
35.65
35.653
35.654
35.652
35.649
35.643
35.634
35.622
35.607
35.59
35.57
35.548
35.525
35.501
35.476
35.452
35.428
35.405
35.382
35.36
35.34
35.32
35.302
35.285
35.27
35.254
35.239
35.224
35.209
35.194
35.18
35.166
35.152
35.14
35.128
35.117
35.106
35.095
35.083
35.07
35.056
35.041
35.025
35.007
34.988
34.969
34.951
34.933
34.916
34.9
34.886
34.872
34.86
34.849
34.838
34.827
34.817
34.807
34.798
34.789
34.78
34.773
34.765
34.758
34.752
34.746
34.74
34.735
34.73
34.726
34.721
34.715
34.709
34.702
34.694
34.685
34.676
34.666
34.657
34.647
34.637
34.628
34.619
34.612
34.605
34.598
34.592
34.585
34.577
34.569
34.56
34.549
34.537
34.523
34.509
34.493
34.476
34.459
34.441
34.424
34.408
34.394
34.382
34.374
34.369
34.369
34.374
34.385
34.404
34.43
34.465
34.509
34.564
34.629
34.705
34.793
34.89
34.997
35.112
35.233
35.357
35.482
35.606
35.726
35.841
35.948
36.045
36.132
36.206
36.268
36.317
36.352
36.375
36.385
36.384
36.372
36.352
36.324
36.291
36.254
36.214
36.175
36.136
36.098
36.062
36.028
35.997
35.969
35.944
35.922
35.903
35.887
35.872
35.86
35.85
35.842
35.835
35.83
35.825
35.821
35.817
35.814
35.81
35.806
35.801
35.795
35.787
35.778
35.767
35.754
35.739
35.723
35.707
35.69
35.674
35.66
35.646
35.636
35.628
35.623
35.621
35.622
35.627
35.635
35.646
35.659
35.674
35.691
35.708
35.725
35.74
35.754
35.764
35.771
35.773
35.771
35.766
35.756
35.744
35.729
35.711
35.692
35.671
35.65
35.628
35.606
35.584
35.563
35.541
35.518
35.496
35.473
35.45
35.426
35.403
35.379
35.355
35.332
35.308
35.284
35.26
35.237
35.213
35.189
35.166
35.143
35.12
35.098
35.076
35.054
35.032
35.011
34.991
34.971
34.953
34.937
34.921
34.907
34.894
34.881
34.869
34.857
34.846
34.836
34.825
34.815
34.804
34.794
34.783
34.774
34.764
34.755
34.745
34.737
34.728
34.72
34.713
34.707
34.702
34.696
34.692
34.687
34.681
34.675
34.667
34.657
34.646
34.632
34.615
34.598
34.579
34.559
34.54
34.521
34.502
34.485
34.469
34.456
34.444
34.436
34.43
34.429
34.432
34.44
34.454
34.475
34.505
34.544
34.593
34.652
34.723
34.805
34.896
34.997
35.105
35.219
35.336
35.456
35.575
35.691
35.804
35.91
36.007
36.095
36.171
36.234
36.285
36.324
36.349
36.363
36.366
36.359
36.344
36.322
36.294
36.263
36.23
36.195
36.161
36.127
36.095
36.066
36.039
36.015
35.993
35.973
35.954
35.937
35.92
35.905
35.89
35.876
35.862
35.85
35.839
35.828
35.818
35.808
35.798
35.787
35.775
35.762
35.748
35.732
35.715
35.698
35.681
35.663
35.647
35.632
35.618
35.606
35.596
35.589
35.584
35.581
35.582
35.585
35.591
35.6
35.611
35.625
35.64
35.657
35.673
35.689
35.704
35.717
35.729
35.737
35.742
35.744
35.742
35.738
35.732
35.723
35.713
35.702
35.688
35.674
35.658
35.641
35.624
35.605
35.586
35.565
35.543
35.52
35.496
35.471
35.447
35.423
35.399
35.376
35.353
35.331
35.308
35.287
35.266
35.246
35.227
35.209
35.191
35.175
35.158
35.142
35.127
35.112
35.098
35.084
35.072
35.06
35.048
35.037
35.026
35.016
35.006
34.996
34.987
34.976
34.966
34.954
34.942
34.929
34.916
34.903
34.889
34.876
34.863
34.852
34.841
34.833
34.825
34.819
34.813
34.806
34.799
34.791
34.781
34.77
34.757
34.743
34.727
34.711
34.695
34.679
34.664
34.65
34.637
34.625
34.614
34.604
34.596
34.59
34.586
34.586
34.59
34.6
34.617
34.643
34.679
34.725
34.784
34.855
34.938
35.033
35.139
35.254
35.378
35.508
35.642
35.778
35.913
36.044
36.168
36.284
36.39
36.485
36.567
36.637
36.694
36.738
36.77
36.791
36.801
36.802
36.795
36.781
36.761
36.737
36.711
36.683
36.655
36.628
36.601
36.577
36.554
36.533
36.514
36.497
36.482
36.47
36.459
36.451
36.444
36.439
36.436
36.435
36.434
36.433
36.432
36.43
36.427
36.422
36.415
36.407
36.396
36.385
36.373
36.36
36.348
36.336
36.324
36.313
36.302
36.293
36.286
36.281
36.279
36.281
36.286
36.294
36.307
36.323
36.342
36.364
36.387
36.412
36.437
36.463
36.487
36.509
36.528
36.544
36.556
36.564
36.568
36.568
36.564
36.556
36.546
36.532
36.517
36.501
36.484
36.468
36.452
36.438
36.425
36.413
36.401
36.39
36.378
36.365
36.351
36.336
36.318
36.299
36.276
36.25
36.221
36.186
36.145
36.098
36.044
35.984
35.918
35.847
35.772
35.695
35.617
35.539
35.463
35.391
35.325
35.264
35.211
35.166
35.128
35.098
35.076
35.061
35.051
35.046
35.045
35.046
35.047
35.047
35.045
35.04
35.032
35.021
35.008
34.992
34.974
34.955
34.935
34.915
34.895
34.875
34.855
34.835
34.815
34.796
34.776
34.757
34.739
34.72
34.702
34.684
34.666
34.65
34.635
34.622
34.611
34.605
34.603
34.605
34.613
34.628
34.651
34.682
34.724
34.776
34.84
34.916
35.004
35.104
35.216
35.337
35.467
35.603
35.744
35.887
36.03
36.171
36.307
36.438
36.561
36.674
36.776
36.867
36.944
37.009
37.061
37.1
37.128
37.145
37.153
37.153
37.146
37.135
37.119
37.101
37.081
37.061
37.041
37.023
37.006
36.992
36.979
36.969
36.96
36.951
36.943
36.935
36.926
36.918
36.909
36.901
36.892
36.885
36.877
36.871
36.865
36.858
36.851
36.843
36.833
36.821
36.807
36.791
36.773
36.753
36.732
36.71
36.689
36.668
36.649
36.633
36.62
36.611
36.605
36.604
36.606
36.612
36.619
36.628
36.638
36.648
36.659
36.669
36.677
36.684
36.688
36.689
36.687
36.68
36.671
36.658
36.642
36.623
36.603
36.581
36.558
36.533
36.507
36.48
36.453
36.425
36.396
36.367
36.339
36.311
36.283
36.256
36.23
36.204
36.178
36.153
36.127
36.101
36.075
36.047
36.019
35.99
35.962
35.933
35.904
35.876
35.848
35.821
35.795
35.769
35.744
35.719
35.693
35.668
35.642
35.617
35.592
35.567
35.543
35.519
35.497
35.475
35.454
35.434
35.415
35.397
35.38
35.365
35.35
35.337
35.325
35.314
35.305
35.296
35.289
35.282
35.277
35.273
35.269
35.266
35.262
35.257
35.252
35.244
35.235
35.224
35.21
35.195
35.177
35.157
35.136
35.113
35.089
35.066
35.042
35.02
35.0
34.981
34.966
34.954
34.945
34.941
34.942
34.948
34.961
34.982
35.012
35.053
35.105
35.169
35.246
35.335
35.437
35.55
35.671
35.801
35.936
36.074
36.213
36.351
36.484
36.611
36.728
36.835
36.928
37.008
37.073
37.123
37.159
37.181
37.19
37.188
37.177
37.157
37.13
37.099
37.065
37.029
36.994
36.959
36.927
36.897
36.87
36.846
36.826
36.809
36.795
36.784
36.776
36.769
36.763
36.758
36.753
36.748
36.741
36.733
36.724
36.711
36.697
36.679
36.66
36.638
36.615
36.592
36.567
36.541
36.514
36.487
36.46
36.432
36.406
36.38
36.357
36.336
36.319
36.305
36.295
36.29
36.289
36.293
36.301
36.312
36.327
36.343
36.362
36.381
36.4
36.419
36.437
36.453
36.465
36.474
36.478
36.477
36.472
36.461
36.447
36.43
36.409
36.386
36.362
36.335
36.308
36.28
36.251
36.222
36.193
36.164
36.136
36.108
36.082
36.058
36.035
36.014
35.993
35.972
35.951
35.93
35.909
35.887
35.863
35.839
35.815
35.789
35.762
35.735
35.708
35.68
35.652
35.624
35.596
35.569
35.543
35.518
35.493
35.469
35.446
35.424
35.402
35.381
35.361
35.341
35.322
35.302
35.284
35.266
35.25
35.234
35.22
35.207
35.196
35.186
35.177
35.168
35.159
35.15
35.14
35.129
35.117
35.105
35.092
35.079
35.065
35.05
35.035
35.019
35.002
34.984
34.964
34.944
34.923
34.901
34.879
34.856
34.834
34.813
34.793
34.774
34.758
34.745
34.735
34.73
34.73
34.736
34.748
34.768
34.797
34.835
34.884
34.943
35.015
35.099
35.193
35.298
35.411
35.532
35.657
35.785
35.914
36.041
36.165
36.282
36.391
36.491
36.58
36.656
36.72
36.771
36.809
36.835
36.85
36.854
36.849
36.836
36.817
36.793
36.766
36.736
36.706
36.674
36.643
36.612
36.581
36.551
36.523
36.496
36.47
36.447
36.425
36.405
36.386
36.369
36.353
36.338
36.325
36.313
36.301
36.289
36.277
36.264
36.25
36.234
36.215
36.195
36.173
36.148
36.123
36.097
36.071
36.046
36.022
36.001
35.981
35.964
35.949
35.938
35.93
35.926
35.925
35.927
35.932
35.939
35.948
35.957
35.967
35.977
35.985
35.992
35.996
35.998
35.997
35.992
35.984
35.972
35.957
35.94
35.92
35.898
35.875
35.85
35.825
35.799
35.773
35.747
35.721
35.695
35.668
35.642
35.615
35.589
35.562
35.535
35.509
35.482
35.455
35.429
35.403
35.377
35.351
35.326
35.301
35.276
35.252
35.229
35.206
35.183
35.162
35.141
35.12
35.101
35.081
35.063
35.045
35.029
35.013
34.997
34.982
34.967
34.952
34.939
34.925
34.912
34.9
34.888
34.877
34.867
34.857
34.848
34.838
34.829
34.82
34.811
34.803
34.794
34.786
34.778
34.769
34.761
34.751
34.741
34.728
34.715
34.699
34.682
34.663
34.642
34.62
34.597
34.574
34.55
34.525
34.501
34.478
34.457
34.437
34.419
34.404
34.391
34.382
34.377
34.377
34.382
34.394
34.414
34.442
34.48
34.528
34.587
34.657
34.737
34.826
34.925
35.03
35.141
35.255
35.371
35.486
35.598
35.706
35.806
35.899
35.982
36.055
36.117
36.167
36.205
36.232
36.248
36.254
36.25
36.237
36.217
36.19
36.159
36.125
36.089
36.052
36.016
35.981
35.949
35.919
35.893
35.871
35.851
35.834
35.82
35.808
35.798
35.788
35.779
35.771
35.763
35.755
35.747
35.739
35.73
35.72
35.709
35.696
35.681
35.664
35.645
35.625
35.603
35.581
35.559
35.539
35.519
35.502
35.487
35.473
35.462
35.453
35.446
35.443
35.442
35.443
35.447
35.453
35.461
35.47
35.48
35.491
35.502
35.514
35.525
35.535
35.543
35.55
35.553
35.552
35.547
35.538
35.524
35.507
35.486
35.462
35.435
35.408
35.38
35.353
35.327
35.302
35.278
35.255
35.233
35.212
35.191
35.17
35.15
35.131
35.111
35.09
35.069
35.047
35.023
34.999
34.973
34.947
34.921
34.895
34.87
34.846
34.824
34.804
34.785
34.768
34.752
34.737
34.723
34.709
34.694
34.679
34.663
34.646
34.628
34.61
34.591
34.573
34.555
34.538
34.523
34.511
34.499
34.49
34.481
34.474
34.467
34.46
34.454
34.447
34.44
34.433
34.425
34.417
34.408
34.398
34.387
34.375
34.363
34.35
34.337
34.323
34.309
34.293
34.277
34.26
34.242
34.224
34.206
34.188
34.17
34.152
34.134
34.117
34.102
34.087
34.075
34.065
34.058
34.055
34.055
34.061
34.072
34.089
34.114
34.147
34.189
34.241
34.304
34.378
34.462
34.556
34.659
34.77
34.888
35.01
35.136
35.262
35.386
35.505
35.617
35.721
35.813
35.894
35.961
36.016
36.057
36.086
36.102
36.108
36.103
36.091
36.071
36.048
36.021
35.992
35.963
35.934
35.906
35.879
35.854
35.832
35.813
35.797
35.785
35.776
35.77
35.767
35.767
35.768
35.77
35.773
35.775
35.777
35.778
35.778
35.776
35.773
35.768
35.761
35.753
35.742
35.73
35.715
35.699
35.682
35.663
35.643
35.622
35.602
35.581
35.563
35.546
35.531
35.518
35.508
35.499
35.493
35.488
35.486
35.486
35.49
35.495
35.502
35.509
35.516
35.523
35.529
35.532
35.534
35.533
35.53
35.524
35.516
35.506
35.494
35.481
35.466
35.449
35.43
35.411
35.392
35.372
35.352
35.333
35.315
35.297
35.28
35.263
35.245
35.227
35.209
35.189
35.17
35.15
35.13
35.11
35.092
35.074
35.057
35.04
35.023
35.007
34.99
34.973
34.956
34.939
34.921
34.904
34.886
34.869
34.85
34.83
34.809
34.788
34.767
34.745
34.723
34.702
34.682
34.663
34.646
34.631
34.619
34.609
34.601
34.593
34.587
34.581
34.574
34.567
34.559
34.551
34.542
34.532
34.522
34.512
34.502
34.491
34.481
34.471
34.461
34.451
34.441
34.432
34.424
34.415
34.407
34.398
34.389
34.379
34.368
34.356
34.342
34.327
34.31
34.292
34.272
34.252
34.231
34.21
34.189
34.169
34.15
34.133
34.118
34.105
34.095
34.089
34.087
34.088
34.095
34.107
34.125
34.151
34.185
34.229
34.283
34.347
34.422
34.509
34.606
34.713
34.829
34.951
35.077
35.206
35.334
35.459
35.58
35.693
35.797
35.89
35.971
36.039
36.095
36.137
36.167
36.184
36.19
36.185
36.172
36.151
36.125
36.095
36.063
36.03
35.998
35.967
35.938
35.911
35.887
35.867
35.85
35.836
35.826
35.818
35.812
35.809
35.808
35.808
35.809
35.811
35.812
35.814
35.814
35.814
35.813
35.81
35.805
35.799
35.791
35.78
35.767
35.752
35.736
35.718
35.7
35.681
35.662
35.644
35.627
35.61
35.596
35.583
35.574
35.568
35.565
35.566
35.571
35.578
35.588
35.598
35.609
35.619
35.627
35.634
35.638
35.639
35.637
35.632
35.624
35.613
35.599
35.584
35.566
35.546
35.524
35.5
35.477
35.453
35.43
35.408
35.386
35.365
35.345
35.325
35.306
35.288
35.271
35.253
35.236
35.218
35.2
35.181
35.162
35.143
