Trial 3:3back
36.696
36.988
37.268
37.535
37.786
38.018
38.228
38.416
38.58
38.72
38.836
38.928
38.996
39.041
39.062
39.061
39.039
38.997
38.939
38.867
38.785
38.692
38.591
38.48
38.361
38.235
38.103
37.967
37.828
37.688
37.548
37.409
37.273
37.141
37.013
36.889
36.77
36.654
36.541
36.43
36.322
36.215
36.111
36.011
35.915
35.825
35.741
35.663
35.592
35.529
35.474
35.427
35.388
35.357
35.334
35.317
35.306
35.301
35.302
35.31
35.325
35.347
35.376
35.412
35.452
35.498
35.549
35.604
35.661
35.719
35.777
35.832
35.883
35.928
35.968
36.0
36.025
36.042
36.051
36.051
36.043
36.025
35.998
35.963
35.921
35.872
35.817
35.758
35.695
35.629
35.56
35.488
35.415
35.341
35.266
35.192
35.117
35.042
34.968
34.894
34.822
34.751
34.683
34.618
34.556
34.498
34.442
34.388
34.336
34.287
34.24
34.195
34.155
34.117
34.082
34.05
34.019
33.988
33.958
33.928
33.901
33.875
33.851
33.829
33.809
33.79
33.771
33.753
33.736
33.722
33.71
33.7
33.692
33.687
33.682
33.678
33.674
33.67
33.666
33.661
33.654
33.646
33.637
33.629
33.62
33.61
33.598
33.584
33.568
33.552
33.534
33.514
33.493
33.472
33.45
33.429
33.409
33.39
33.374
33.359
33.348
33.341
33.339
33.342
33.353
33.373
33.405
33.452
33.517
33.602
33.71
33.843
34.002
34.187
34.398
34.632
34.886
35.157
35.441
35.733
36.031
36.33
36.628
36.92
37.203
37.474
37.73
37.969
38.19
38.39
38.568
38.723
38.854
38.961
39.043
39.1
39.133
39.143
39.131
39.099
39.049
38.981
38.898
38.802
38.696
38.581
38.459
38.331
38.198
38.062
37.924
37.786
37.648
37.512
37.378
37.248
37.122
36.998
36.879
36.763
36.651
36.542
36.436
36.333
36.232
36.133
36.038
35.945
35.856
35.77
35.69
35.615
35.546
35.484
35.428
35.379
35.338
35.305
35.28
35.264
35.258
35.262
35.275
35.298
35.33
35.37
35.417
35.47
35.527
35.586
35.647
35.707
35.765
35.82
35.87
35.915
35.954
35.985
36.01
36.027
36.037
36.038
36.031
36.017
35.994
35.965
35.929
35.888
35.84
35.787
35.728
35.666
35.599
35.529
35.456
35.381
35.305
35.229
35.153
35.076
35.0
34.925
34.852
34.781
34.712
34.646
34.582
34.521
34.462
34.406
34.351
34.299
34.248
34.199
34.153
34.109
34.069
34.033
33.999
33.968
33.939
33.912
33.887
33.863
33.841
33.82
33.799
33.779
33.759
33.74
33.721
33.704
33.687
33.67
33.655
33.64
33.625
33.61
33.596
33.583
33.571
33.559
33.546
33.534
33.52
33.505
33.489
33.472
33.455
33.437
33.42
33.404
33.387
33.371
33.354
33.336
33.317
33.299
33.281
33.264
33.251
33.241
33.237
33.239
33.252
33.275
33.313
33.368
33.443
33.543
33.668
33.821
34.001
34.209
34.443
34.701
34.981
35.279
35.59
35.909
36.231
36.552
36.866
37.171
37.464
37.742
38.001
38.239
38.455
38.647
38.814
38.957
39.075
39.169
39.239
39.286
39.31
39.311
39.29
39.25
39.191
39.114
39.022
38.916
38.799
38.673
38.54
38.402
38.261
38.119
37.977
37.836
37.697
37.562
37.43
37.303
37.182
37.066
36.955
36.847
36.742
36.64
36.54
36.443
36.347
36.251
36.156
36.062
35.97
35.879
35.792
35.709
35.634
35.565
35.505
35.454
35.412
35.38
35.358
35.347
35.346
35.354
35.371
35.395
35.427
35.465
35.507
35.553
35.601
35.652
35.704
35.757
35.809
35.859
35.906
35.949
35.986
36.018
36.043
36.061
36.072
36.074
36.069
36.056
36.034
36.005
35.969
35.927
35.879
35.825
35.766
35.702
35.633
35.56
35.485
35.406
35.326
35.245
35.163
35.081
34.998
34.917
34.837
34.76
34.686
34.616
34.548
34.484
34.423
34.365
34.309
34.255
34.204
34.154
34.105
34.058
34.013
33.971
33.931
33.893
33.856
33.822
33.789
33.758
33.73
33.705
33.684
33.667
33.655
33.645
33.637
33.631
33.626
33.621
33.614
33.605
33.594
33.581
33.565
33.547
33.526
33.504
33.481
33.458
33.436
33.414
33.393
33.372
33.35
33.327
33.303
33.28
33.257
33.237
33.218
33.2
33.185
33.172
33.161
33.155
33.152
33.155
33.163
33.179
33.205
33.244
33.298
33.369
33.462
33.579
33.723
33.895
34.096
34.325
34.581
34.86
35.16
35.475
35.802
36.136
36.472
36.804
37.128
37.44
37.736
38.012
38.267
38.497
38.701
38.877
39.025
39.145
39.238
39.302
39.341
39.356
39.348
39.319
39.272
39.206
39.125
39.031
38.925
38.81
38.687
38.558
38.424
38.286
38.148
38.01
37.873
37.738
37.606
37.476
37.349
37.225
37.103
36.984
36.869
36.757
36.648
36.543
36.439
36.339
36.241
36.146
36.055
35.966
35.881
35.799
35.721
35.648
35.579
35.518
35.466
35.422
35.386
35.36
35.342
35.333
35.333
35.341
35.358
35.383
35.416
35.455
35.5
35.549
35.6
35.652
35.705
35.757
35.808
35.856
35.9
35.938
35.971
35.998
36.018
36.03
36.036
36.035
36.026
36.009
35.985
35.953
35.913
35.867
35.815
35.758
35.697
35.632
35.564
35.493
35.42
35.346
35.271
35.196
35.12
35.045
34.971
34.896
34.822
34.747
34.671
34.596
34.52
34.446
34.375
34.307
34.242
34.182
34.126
34.075
34.027
33.985
33.946
33.912
33.881
33.851
33.823
33.795
33.768
33.742
33.716
33.692
33.668
33.644
33.62
33.596
33.573
33.55
33.528
33.505
33.483
33.461
33.44
33.422
33.406
33.394
33.384
33.376
33.368
33.36
33.351
33.341
33.33
33.316
33.302
33.285
33.268
33.248
33.227
33.205
33.182
33.159
33.138
33.118
33.101
33.086
33.076
33.069
33.068
33.075
33.093
33.123
33.17
33.236
33.323
33.434
33.572
33.738
33.933
34.155
34.406
34.683
34.982
35.299
35.628
35.965
36.303
36.639
36.969
37.287
37.59
37.874
38.137
38.375
38.588
38.775
38.936
39.07
39.176
39.255
39.308
39.336
39.34
39.321
39.283
39.225
39.151
39.061
38.958
38.843
38.72
38.588
38.451
38.311
38.168
38.024
37.882
37.742
37.606
37.475
37.349
37.229
37.114
37.003
36.895
36.788
36.683
36.578
36.474
36.37
36.265
36.162
36.059
35.958
35.86
35.767
35.679
35.598
35.524
35.457
35.398
35.347
35.307
35.277
35.258
35.25
35.253
35.265
35.287
35.317
35.355
35.4
35.452
35.508
35.567
35.628
35.688
35.747
35.802
35.854
35.901
35.943
35.98
36.011
36.034
36.051
36.059
36.059
36.051
36.036
36.012
35.981
35.942
35.895
35.842
35.784
35.72
35.651
35.58
35.505
35.427
35.347
35.265
35.181
35.096
35.01
34.926
34.842
34.76
34.68
34.602
34.526
34.453
34.383
34.316
34.254
34.196
34.143
34.093
34.046
34.001
33.957
33.915
33.874
33.836
33.8
33.766
33.735
33.706
33.678
33.653
33.631
33.61
33.59
33.572
33.555
33.537
33.519
33.5
33.48
33.46
33.441
33.423
33.406
33.391
33.377
33.363
33.351
33.34
33.329
33.32
33.311
33.302
33.294
33.285
33.275
33.265
33.254
33.242
33.229
33.215
33.198
33.18
33.161
33.142
33.122
33.103
33.085
33.069
33.058
33.053
33.056
33.071
33.099
33.144
33.209
33.296
33.409
33.551
33.723
33.928
34.163
34.43
34.723
35.037
35.369
35.711
36.059
36.407
36.75
37.084
37.404
37.705
37.985
38.24
38.468
38.668
38.837
38.977
39.089
39.174
39.233
39.27
39.284
39.278
39.253
39.211
39.154
39.082
38.999
38.904
38.8
38.688
38.569
38.444
38.316
38.186
38.055
37.924
37.794
37.666
37.539
37.413
37.287
37.163
37.04
36.917
36.793
36.67
36.547
36.426
36.307
36.191
36.079
35.973
35.874
35.781
35.695
35.615
35.544
35.481
35.426
35.381
35.344
35.318
35.301
35.292
35.293
35.302
35.318
35.342
35.373
35.409
35.449
35.494
35.544
35.596
35.65
35.705
35.76
35.813
35.863
35.91
35.951
35.985
36.01
36.027
36.035
36.035
36.025
36.007
35.981
35.946
35.906
35.859
35.806
35.749
35.686
35.618
35.548
35.474
35.399
35.321
35.242
35.16
35.078
34.996
34.914
34.833
34.752
34.672
34.593
34.516
34.439
34.364
34.29
34.218
34.147
34.08
34.017
33.958
33.904
33.854
33.807
33.764
33.723
33.684
33.648
33.613
33.581
33.549
33.519
33.488
33.459
33.429
33.401
33.373
33.347
33.322
33.299
33.279
33.262
33.247
33.235
33.225
33.218
33.213
33.21
33.208
33.205
33.2
33.193
33.183
33.17
33.154
33.136
33.117
33.097
33.076
33.054
33.032
33.01
32.989
32.968
32.947
32.927
32.91
32.894
32.88
32.87
32.863
32.861
32.863
32.872
32.889
32.916
32.958
33.017
33.096
33.2
33.331
33.489
33.677
33.894
34.139
34.409
34.703
35.016
35.342
35.676
36.013
36.346
36.67
36.981
37.273
37.544
37.789
38.008
38.2
38.364
38.502
38.613
38.699
38.762
38.801
38.819
38.817
38.796
38.757
38.701
38.63
38.546
38.45
38.343
38.227
38.103
37.973
37.839
37.702
37.565
37.428
37.293
37.161
37.033
36.91
36.791
36.678
36.568
36.461
36.357
36.255
36.155
36.055
35.957
35.86
35.766
35.675
35.587
35.504
35.426
35.353
35.285
35.223
35.168
35.121
35.084
35.059
35.044
35.04
35.048
35.064
35.089
35.122
35.163
35.211
35.264
35.323
35.386
35.452
35.52
35.589
35.656
35.723
35.786
35.846
35.901
35.949
35.99
36.022
36.045
36.059
36.062
36.056
36.039
36.011
35.974
35.928
35.874
35.814
35.748
35.677
35.604
35.527
35.45
35.371
35.291
35.211
35.131
35.048
34.965
34.881
34.797
34.715
34.634
34.555
34.479
34.407
34.339
34.275
34.217
34.164
34.116
34.072
34.032
33.996
33.962
33.932
33.903
33.876
33.85
33.825
33.8
33.773
33.746
33.716
33.686
33.656
33.627
33.598
33.57
33.543
33.517
33.492
33.469
33.449
33.432
33.418
33.407
33.399
33.392
33.386
33.382
33.378
33.373
33.367
33.359
33.349
33.337
33.322
33.304
33.285
33.264
33.243
33.223
33.204
33.187
33.175
33.169
33.169
33.179
33.2
33.236
33.289
33.361
33.455
33.574
33.72
33.894
34.097
34.328
34.586
34.868
35.17
35.488
35.816
36.151
36.484
36.813
37.13
37.433
37.716
37.977
38.214
38.425
38.61
38.767
38.898
39.003
39.081
39.131
39.155
39.154
39.131
39.089
39.03
38.958
38.875
38.782
38.681
38.575
38.464
38.349
38.231
38.111
37.988
37.863
37.738
37.613
37.487
37.362
37.238
37.114
36.991
36.868
36.747
36.628
36.511
36.396
36.282
36.169
36.058
35.948
35.841
35.738
35.639
35.546
35.46
35.382
35.312
35.253
35.204
35.166
35.139
35.124
35.119
35.125
35.142
35.167
35.201
35.243
35.291
35.346
35.406
35.469
35.535
35.602
35.667
35.73
35.79
35.847
35.899
35.947
35.988
36.022
36.048
36.065
36.073
36.073
36.066
36.049
36.024
35.99
35.948
35.898
35.842
35.78
35.713
35.641
35.565
35.487
35.405
35.321
35.234
35.146
35.058
34.972
34.888
34.807
34.731
34.657
34.585
34.513
34.441
34.369
34.299
34.232
34.17
34.112
34.06
34.013
33.971
33.933
33.899
33.869
33.841
33.817
33.795
33.774
33.753
33.732
33.711
33.688
33.665
33.643
33.622
33.602
33.583
33.565
33.549
33.534
33.523
33.514
33.507
33.501
33.495
33.488
33.479
33.467
33.452
33.435
33.415
33.394
33.37
33.344
33.316
33.288
33.26
33.231
33.203
33.177
33.156
33.14
33.129
33.127
33.134
33.153
33.187
33.238
33.31
33.406
33.528
33.679
33.861
34.073
34.317
34.591
34.891
35.212
35.551
35.902
36.259
36.617
36.969
37.311
37.637
37.944
38.227
38.486
38.719
38.925
39.103
39.254
39.377
39.473
39.542
39.587
39.609
39.61
39.591
39.553
39.499
39.427
39.333
39.216
39.079
38.928
38.767
38.602
38.439
38.281
38.132
37.994
37.866
37.749
37.642
37.541
37.446
37.356
37.268
37.181
37.094
37.006
36.915
36.822
36.727
36.631
36.534
36.437
36.342
36.249
36.16
36.075
35.995
35.922
35.856
35.799
35.752
35.714
35.686
35.669
35.661
35.662
35.673
35.692
35.718
35.75
35.787
35.83
35.876
35.926
35.979
36.031
36.083
36.133
36.181
36.226
36.268
36.305
36.336
36.36
36.377
36.385
36.385
36.375
36.354
36.324
36.285
36.237
36.182
36.122
36.056
35.986
35.913
35.837
35.76
35.682
35.603
35.525
35.447
35.369
35.292
35.215
35.14
35.066
34.993
34.923
34.855
34.789
34.726
34.664
34.605
34.548
34.494
34.443
34.394
34.349
34.307
34.266
34.228
34.192
34.157
34.123
34.09
34.058
34.026
33.993
33.962
33.931
33.901
33.872
33.844
33.818
33.793
33.769
33.746
33.723
33.702
33.682
33.663
33.645
33.628
33.611
33.595
33.579
33.564
33.55
33.536
33.522
33.507
33.49
33.471
33.45
33.428
33.405
33.383
33.363
33.344
33.329
33.319
33.314
33.317
33.33
33.356
33.398
33.459
33.541
33.648
33.783
33.945
34.138
34.36
34.613
34.892
35.194
35.51
35.833
36.157
36.48
36.799
37.111
37.415
37.709
37.989
38.254
38.502
38.732
38.942
39.13
39.295
39.436
39.552
39.641
39.705
39.743
39.755
39.742
39.707
39.65
39.574
39.481
39.373
39.254
39.126
38.992
38.855
38.716
38.577
38.439
38.302
38.168
38.037
37.909
37.786
37.666
37.549
37.433
37.319
37.207
37.097
36.99
36.884
36.781
36.679
36.58
36.483
36.39
36.301
36.217
36.139
36.067
36.003
35.945
35.896
35.855
35.823
35.802
35.79
35.789
35.798
35.815
35.841
35.874
35.914
35.96
36.012
36.068
36.125
36.182
36.236
36.287
36.334
36.375
36.41
36.439
36.46
36.474
36.481
36.479
36.47
36.454
36.43
36.4
36.364
36.321
36.273
36.219
36.16
36.096
36.028
35.957
35.883
35.806
35.728
35.649
35.568
35.488
35.408
35.328
35.249
35.17
35.092
35.015
34.939
34.863
34.79
34.719
34.65
34.585
34.523
34.466
34.412
34.363
34.317
34.275
34.235
34.198
34.165
34.134
34.106
34.08
34.056
34.035
34.014
33.995
33.976
33.957
33.938
33.917
33.896
33.874
33.852
33.83
33.807
33.785
33.763
33.741
33.72
33.699
33.679
33.659
33.639
33.62
33.6
33.581
33.561
33.542
33.523
33.503
33.483
33.463
33.444
33.425
33.407
33.391
33.377
33.367
33.362
33.366
33.38
33.407
33.449
33.508
33.588
33.69
33.819
33.976
34.162
34.377
34.621
34.89
35.181
35.491
35.814
36.148
36.487
36.827
37.162
37.489
37.803
38.1
38.378
38.632
38.862
39.064
39.238
39.382
39.497
39.583
39.641
39.673
39.68
39.663
39.626
39.57
39.498
39.412
39.313
39.205
39.088
38.965
38.837
38.705
38.571
38.437
38.302
38.167
38.035
37.903
37.774
37.646
37.52
37.395
37.271
37.147
37.025
36.904
36.787
36.673
36.562
36.455
36.353
36.255
36.163
36.077
35.997
35.924
35.858
35.799
35.748
35.706
35.673
35.651
35.639
35.637
35.644
35.662
35.688
35.723
35.765
35.813
35.865
35.919
35.972
36.024
36.074
36.121
36.166
36.208
36.247
36.282
36.312
36.335
36.351
36.36
36.362
36.356
36.344
36.324
36.296
36.261
36.219
36.169
36.114
36.053
35.989
35.922
35.851
35.778
35.702
35.625
35.546
35.461
35.368
35.269
35.165
35.06
34.957
34.857
34.764
34.678
34.602
34.535
34.479
34.433
34.395
34.365
34.339
34.317
34.296
34.276
34.254
34.231
34.206
34.178
34.148
34.117
34.084
34.05
34.017
33.983
33.95
33.918
33.887
33.859
33.834
33.81
33.789
33.77
33.753
33.737
33.724
33.712
33.703
33.696
33.689
33.682
33.675
33.666
33.655
33.641
33.625
33.607
33.587
33.566
33.544
33.521
33.498
33.474
33.449
33.423
33.397
33.372
33.348
33.325
33.306
33.29
33.278
33.271
33.27
33.278
33.297
33.331
33.384
33.46
33.561
33.689
33.846
34.033
34.25
34.496
34.769
35.067
35.384
35.717
36.059
36.407
36.754
37.097
37.43
37.749
38.049
38.328
38.582
38.809
39.009
39.182
39.326
39.442
39.53
39.591
39.625
39.635
39.621
39.586
39.532
39.46
39.372
39.271
39.159
39.037
38.908
38.774
38.636
38.496
38.354
38.215
38.078
37.945
37.816
37.692
37.572
37.456
37.344
37.236
37.131
37.028
36.927
36.828
36.73
36.634
36.538
36.443
36.348
36.254
36.162
36.074
35.991
35.914
35.844
35.783
35.73
35.687
35.654
35.632
35.622
35.623
35.634
35.655
35.685
35.72
35.761
35.807
35.858
35.911
35.967
36.023
36.077
36.129
36.177
36.22
36.258
36.291
36.316
36.335
36.346
36.348
36.343
36.331
36.311
36.283
36.248
36.206
36.159
36.105
36.047
35.984
35.918
35.85
35.78
35.707
35.631
35.553
35.471
35.388
35.302
35.216
35.131
35.046
34.964
34.883
34.804
34.728
34.656
34.588
34.524
34.464
34.408
34.356
34.307
34.261
34.217
34.176
34.136
34.097
34.059
34.024
33.99
33.958
33.929
33.901
33.875
33.851
33.829
33.81
33.792
33.776
33.762
33.749
33.738
33.726
33.716
33.706
33.696
33.686
33.677
33.667
33.657
33.645
33.631
33.614
33.594
33.571
33.547
33.522
33.497
33.473
33.449
33.426
33.404
33.384
33.365
33.346
33.328
33.308
33.288
33.267
33.246
33.226
33.209
33.194
33.186
33.186
33.196
33.221
33.262
33.324
33.408
33.518
33.656
33.824
34.024
34.255
34.516
34.806
35.121
35.457
35.806
36.163
36.521
36.874
37.218
37.547
37.859
38.148
38.414
38.651
38.86
39.04
39.192
39.316
39.411
39.479
39.52
39.536
39.527
39.496
39.444
39.373
39.285
39.183
39.068
38.944
38.812
38.673
38.531
38.386
38.24
38.094
37.948
37.806
37.668
37.536
37.409
37.287
37.17
37.057
36.947
36.84
36.735
36.632
36.529
36.427
36.326
36.226
36.128
36.033
35.942
35.856
35.776
35.703
35.637
35.579
35.53
35.491
35.46
35.44
35.429
35.43
35.441
35.463
35.495
35.536
35.584
35.638
35.697
35.759
35.823
35.887
35.949
36.009
36.063
36.113
36.155
36.189
36.213
36.227
36.232
36.228
36.215
36.194
36.166
36.132
36.092
36.047
35.998
35.945
35.887
35.826
35.761
35.692
35.62
35.546
35.47
35.392
35.312
35.23
35.147
35.064
34.981
34.901
34.823
34.748
34.677
34.609
34.544
34.484
34.427
34.374
34.325
34.279
34.235
34.193
34.153
34.113
34.074
34.035
33.998
33.96
33.925
33.89
33.855
33.822
33.789
33.758
33.727
33.697
33.667
33.64
33.613
33.589
33.566
33.545
33.526
33.509
33.493
33.479
33.466
33.455
33.445
33.436
33.426
33.415
33.403
33.39
33.375
33.359
33.342
33.323
33.304
33.283
33.261
33.239
33.216
33.194
33.174
33.155
33.139
33.124
33.11
33.098
33.088
33.081
33.078
33.079
33.088
33.104
33.132
33.173
33.231
33.308
33.41
33.538
33.697
33.887
34.108
34.36
34.64
34.945
35.27
35.611
35.963
36.319
36.675
37.023
37.36
37.68
37.979
38.256
38.507
38.729
38.922
39.085
39.218
39.321
39.396
39.444
39.467
39.465
39.438
39.389
39.32
39.233
39.131
39.017
38.894
38.764
38.628
38.489
38.348
38.206
38.064
37.923
37.784
37.648
37.515
37.386
37.261
37.14
37.022
36.906
36.793
36.683
36.573
36.465
36.357
36.25
36.143
36.038
35.935
35.835
35.739
35.648
35.564
35.488
35.419
35.361
35.312
35.276
35.251
35.239
35.24
35.252
35.275
35.308
35.35
35.4
35.456
35.519
35.587
35.659
35.734
35.81
35.885
35.959
36.029
36.094
36.151
36.198
36.235
36.26
36.274
36.276
36.268
36.248
36.22
36.182
36.135
36.081
36.02
35.955
35.886
35.813
35.738
35.659
35.579
35.496
35.41
35.323
35.235
35.147
35.059
34.972
34.887
34.803
34.72
34.639
34.561
34.485
34.412
34.342
34.276
34.213
34.153
34.097
34.044
33.994
33.947
33.902
33.859
33.82
33.784
33.751
33.721
33.694
33.669
33.647
33.626
33.607
33.589
33.573
33.558
33.544
33.529
33.514
33.498
33.481
33.463
33.444
33.423
33.401
33.379
33.355
33.33
33.306
33.281
33.257
33.235
33.216
33.199
33.184
33.172
33.162
33.155
33.148
33.141
33.134
33.126
33.117
33.107
33.095
33.082
33.068
33.054
33.042
33.032
33.027
33.029
33.04
33.062
33.101
33.159
33.239
33.346
33.482
33.649
33.848
34.081
34.346
34.641
34.962
35.302
35.657
36.02
36.385
36.745
37.095
37.43
37.745
38.035
38.298
38.53
38.73
38.899
39.035
39.141
39.218
39.265
39.285
39.28
39.251
39.202
39.135
39.053
38.957
38.85
38.734
38.61
38.481
38.348
38.212
38.072
37.931
37.788
37.646
37.504
37.363
37.225
37.089
36.957
36.829
36.704
36.583
36.466
36.353
36.244
36.137
