Trial 3:3back
32.827
32.959
33.113
33.288
33.483
33.698
33.931
34.179
34.439
34.708
34.979
35.25
35.515
35.77
36.012
36.237
36.443
36.628
36.791
36.933
37.055
37.16
37.248
37.321
37.379
37.423
37.454
37.472
37.479
37.474
37.46
37.438
37.409
37.374
37.336
37.296
37.256
37.216
37.178
37.142
37.11
37.081
37.056
37.033
37.013
36.996
36.981
36.968
36.956
36.944
36.931
36.917
36.901
36.88
36.856
36.827
36.793
36.755
36.714
36.669
36.621
36.57
36.516
36.462
36.407
36.354
36.302
36.252
36.206
36.165
36.128
36.096
36.07
36.05
36.036
36.028
36.026
36.028
36.033
36.041
36.05
36.059
36.069
36.077
36.084
36.089
36.091
36.09
36.087
36.083
36.079
36.077
36.077
36.08
36.085
36.091
36.097
36.101
36.103
36.102
36.096
36.085
36.07
36.051
36.028
36.001
35.97
35.936
35.9
35.861
35.82
35.778
35.736
35.695
35.655
35.617
35.579
35.541
35.502
35.461
35.419
35.375
35.33
35.283
35.236
35.19
35.144
35.1
35.057
35.016
34.976
34.938
34.9
34.863
34.826
34.789
34.753
34.717
34.682
34.647
34.613
34.579
34.545
34.514
34.484
34.454
34.426
34.397
34.37
34.342
34.314
34.285
34.256
34.226
34.196
34.167
34.138
34.11
34.084
34.059
34.035
34.012
33.99
33.969
33.949
33.929
33.911
33.894
33.879
33.865
33.854
33.845
33.838
33.832
33.825
33.817
33.807
33.795
33.782
33.768
33.752
33.736
33.72
33.706
33.693
33.681
33.67
33.66
33.652
33.644
33.636
33.628
33.62
33.611
33.6
33.587
33.572
33.555
33.537
33.515
33.491
33.464
33.433
33.399
33.363
33.325
33.286
33.246
33.208
33.17
33.134
33.1
33.067
33.035
33.005
32.975
32.946
32.917
32.888
32.859
32.831
32.805
32.783
32.765
32.754
32.753
32.765
32.794
32.841
32.911
33.004
33.124
33.272
33.448
33.652
33.881
34.136
34.412
34.706
35.013
35.329
35.649
35.967
36.28
36.582
36.869
37.14
37.391
37.62
37.827
38.01
38.17
38.309
38.427
38.528
38.612
38.681
38.738
38.783
38.818
38.844
38.862
38.871
38.874
38.87
38.861
38.849
38.835
38.821
38.808
38.798
38.792
38.792
38.797
38.806
38.82
38.837
38.856
38.877
38.897
38.916
38.933
38.948
38.963
38.977
38.989
38.998
39.002
39.0
38.992
38.977
38.953
38.921
38.88
38.83
38.773
38.712
38.647
38.579
38.509
38.439
38.37
38.303
38.239
38.179
38.123
38.073
38.028
37.987
37.95
37.917
37.886
37.857
37.83
37.804
37.779
37.754
37.73
37.708
37.687
37.668
37.65
37.635
37.62
37.606
37.591
37.573
37.553
37.528
37.5
37.466
37.428
37.383
37.333
37.277
37.217
37.153
37.085
37.014
36.942
36.869
36.796
36.723
36.649
36.576
36.503
36.431
36.36
36.29
36.222
36.154
36.086
36.02
35.955
35.892
35.83
35.77
35.712
35.654
35.597
35.54
35.482
35.425
35.367
35.309
35.253
35.199
35.146
35.096
35.048
35.003
34.961
34.92
34.881
34.843
34.808
34.773
34.74
34.71
34.687
34.67
34.66
34.653
34.649
34.644
34.637
34.626
34.611
34.591
34.564
34.532
34.494
34.452
34.406
34.358
34.308
34.26
34.212
34.166
34.121
34.08
34.042
34.007
33.976
33.949
33.925
33.903
33.883
33.864
33.845
33.826
33.806
33.786
33.764
33.74
33.714
33.685
33.654
33.62
33.584
33.548
33.512
33.476
33.441
33.408
33.378
33.35
33.327
33.306
33.288
33.273
33.261
33.251
33.244
33.239
33.234
33.231
33.226
33.221
33.214
33.205
33.193
33.178
33.159
33.138
33.113
33.086
33.057
33.028
33.0
32.973
32.946
32.921
32.898
32.878
32.86
32.844
32.831
32.82
32.812
32.807
32.806
32.808
32.815
32.828
32.848
32.878
32.918
32.973
33.046
33.139
33.256
33.398
33.566
33.762
33.984
34.232
34.502
34.792
35.098
35.415
35.738
36.063
36.384
36.698
36.998
37.282
37.547
37.789
38.009
38.204
38.377
38.528
38.658
38.77
38.864
38.943
39.008
39.061
39.106
39.143
39.173
39.197
39.216
39.231
39.242
39.25
39.257
39.263
39.268
39.274
39.281
39.289
39.297
39.307
39.319
39.334
39.35
39.368
39.386
39.403
39.419
39.433
39.444
39.451
39.455
39.453
39.445
39.432
39.412
39.385
39.353
39.314
39.27
39.22
39.163
39.1
39.032
38.959
38.885
38.809
38.733
38.655
38.579
38.503
38.43
38.358
38.29
38.225
38.165
38.109
38.059
38.014
37.974
37.938
37.907
37.881
37.858
37.837
37.818
37.799
37.781
37.762
37.743
37.723
37.702
37.679
37.654
37.628
37.6
37.57
37.537
37.501
37.463
37.422
37.378
37.332
37.284
37.235
37.185
37.134
37.081
37.026
36.969
36.91
36.849
36.786
36.722
36.656
36.588
36.52
36.451
36.382
36.314
36.246
36.181
36.118
36.057
36.0
35.945
35.893
35.843
35.794
35.747
35.699
35.65
35.6
35.548
35.495
35.438
35.38
35.321
35.26
35.201
35.142
35.086
35.033
34.983
34.938
34.896
34.857
34.821
34.786
34.752
34.718
34.682
34.646
34.608
34.569
34.53
34.489
34.448
34.406
34.365
34.325
34.287
34.25
34.215
34.182
34.15
34.12
34.093
34.067
34.043
34.021
34.0
33.981
33.963
33.946
33.929
33.912
33.895
33.877
33.858
33.836
33.811
33.784
33.754
33.723
33.69
33.656
33.62
33.583
33.547
33.511
33.477
33.444
33.413
33.384
33.356
33.331
33.308
33.286
33.267
33.25
33.235
33.221
33.209
33.198
33.189
33.181
33.175
33.167
33.156
33.144
33.128
33.109
33.087
33.063
33.037
33.01
32.982
32.956
32.93
32.905
32.88
32.856
32.833
32.811
32.788
32.766
32.745
32.724
32.704
32.685
32.666
32.649
32.633
32.618
32.603
32.589
32.574
32.559
32.542
32.524
32.504
32.482
32.459
32.434
32.408
32.383
32.357
32.331
32.305
32.28
32.256
32.232
32.209
32.189
32.173
32.163
32.16
32.168
32.19
32.228
32.286
32.365
32.469
32.599
32.757
32.942
33.154
33.392
33.655
33.938
34.24
34.555
34.881
35.212
35.543
35.872
36.193
36.503
36.8
37.079
37.338
37.575
37.788
37.978
38.145
38.287
38.407
38.507
38.588
38.653
38.704
38.744
38.774
38.799
38.82
38.839
38.856
38.872
38.885
38.896
38.906
38.914
38.919
38.923
38.926
38.926
38.926
38.925
38.924
38.923
38.922
38.922
38.924
38.926
38.927
38.927
38.925
38.92
38.91
38.895
38.874
38.846
38.811
38.77
38.723
38.671
38.614
38.553
38.487
38.418
38.345
38.27
38.194
38.117
38.04
37.965
37.892
37.823
37.757
37.695
37.637
37.584
37.537
37.496
37.461
37.432
37.41
37.394
37.382
37.373
37.365
37.356
37.346
37.334
37.321
37.305
37.287
37.267
37.245
37.222
37.197
37.171
37.143
37.115
37.086
37.056
37.025
36.992
36.958
36.923
36.885
36.844
36.799
36.752
36.701
36.649
36.593
36.536
36.476
36.415
36.354
36.293
36.232
36.171
36.111
36.053
35.996
35.941
35.887
35.835
35.782
35.73
35.679
35.628
35.577
35.527
35.478
35.431
35.386
35.342
35.299
35.256
35.213
35.17
35.126
35.08
35.033
34.986
34.94
34.894
34.85
34.807
34.765
34.726
34.689
34.655
34.623
34.592
34.562
34.533
34.504
34.476
34.447
34.418
34.389
34.36
34.332
34.304
34.278
34.252
34.227
34.203
34.179
34.154
34.129
34.103
34.077
34.05
34.024
33.998
33.972
33.946
33.92
33.895
33.869
33.844
33.818
33.792
33.767
33.741
33.715
33.689
33.662
33.635
33.609
33.583
33.559
33.537
33.518
33.502
33.487
33.472
33.456
33.438
33.417
33.394
33.367
33.338
33.305
33.271
33.235
33.198
33.16
33.121
33.082
33.043
33.006
32.971
32.938
32.908
32.882
32.858
32.839
32.822
32.807
32.795
32.785
32.776
32.767
32.759
32.749
32.739
32.727
32.713
32.698
32.681
32.663
32.643
32.622
32.601
32.579
32.558
32.537
32.517
32.498
32.482
32.466
32.453
32.442
32.433
32.427
32.423
32.421
32.421
32.422
32.424
32.426
32.427
32.428
32.428
32.428
32.427
32.426
32.425
32.423
32.42
32.417
32.412
32.406
32.399
32.391
32.383
32.376
32.371
32.371
32.379
32.398
32.432
32.483
32.556
32.653
32.777
32.93
33.113
33.327
33.568
33.837
34.128
34.439
34.763
35.096
35.432
35.766
36.093
36.41
36.712
36.996
37.26
37.502
37.72
37.912
38.078
38.22
38.339
38.437
38.514
38.574
38.619
38.652
38.674
38.689
38.697
38.7
38.699
38.696
38.69
38.684
38.677
38.669
38.662
38.653
38.644
38.633
38.621
38.606
38.59
38.571
38.549
38.525
38.497
38.466
38.431
38.393
38.353
38.309
38.262
38.212
38.159
38.102
38.042
37.979
37.912
37.843
37.772
37.699
37.626
37.552
37.479
37.407
37.338
37.272
37.21
37.154
37.104
37.06
37.024
36.994
36.97
36.947
36.926
36.905
36.884
36.866
36.849
36.834
36.822
36.813
36.808
36.807
36.81
36.816
36.826
36.838
36.851
36.864
36.874
36.881
36.882
36.877
36.865
36.847
36.823
36.792
36.754
36.712
36.664
36.613
36.56
36.504
36.447
36.391
36.338
36.286
36.239
36.197
36.16
36.128
36.1
36.075
36.05
36.026
35.999
35.968
35.933
35.892
35.845
35.793
35.736
35.675
35.611
35.546
35.48
35.417
35.356
35.3
35.247
35.2
35.158
35.122
35.091
35.065
35.041
35.018
34.996
34.972
34.946
34.917
34.884
34.847
34.808
34.767
34.723
34.679
34.633
34.588
34.546
34.505
34.467
34.433
34.401
34.373
34.348
34.325
34.305
34.286
34.267
34.248
34.228
34.207
34.185
34.162
34.136
34.108
34.08
34.049
34.017
33.984
33.951
33.919
33.889
33.859
33.832
33.806
33.783
33.762
33.742
33.724
33.707
33.69
33.675
33.66
33.645
33.628
33.61
33.59
33.567
33.543
33.517
33.489
33.459
33.428
33.398
33.366
33.335
33.304
33.273
33.244
33.215
33.188
33.162
33.138
33.117
33.099
33.083
33.068
33.054
33.041
33.027
33.012
32.997
32.981
32.964
32.947
32.929
32.912
32.895
32.878
32.863
32.849
32.835
32.821
32.806
32.791
32.774
32.757
32.738
32.717
32.695
32.673
32.65
32.627
32.605
32.583
32.563
32.546
32.533
32.524
32.522
32.527
32.544
32.577
32.628
32.701
32.798
32.921
33.072
33.253
33.463
33.701
33.966
34.254
34.563
34.889
35.227
35.572
35.918
36.261
36.596
36.919
37.226
37.514
37.782
38.025
38.245
38.439
38.607
38.75
38.868
38.965
39.042
39.102
39.146
39.179
39.201
39.216
39.226
39.232
39.235
39.236
39.235
39.233
39.23
39.226
39.221
39.218
39.215
39.213
39.212
39.214
39.216
39.219
39.222
39.226
39.229
39.231
39.232
39.23
39.224
39.215
39.201
39.181
39.155
39.124
39.086
39.044
38.996
38.943
38.885
38.822
38.756
38.69
38.628
38.57
38.514
38.46
38.406
38.35
38.29
38.226
38.159
38.09
38.018
37.946
37.873
37.802
37.732
37.665
37.603
37.544
37.489
37.438
37.391
37.348
37.31
37.274
37.24
37.21
37.182
37.156
37.132
37.11
37.09
37.07
37.051
37.032
37.011
36.988
36.961
36.929
36.892
36.849
36.801
36.748
36.69
36.63
36.567
36.503
36.438
36.373
36.306
36.239
36.172
36.103
36.032
35.961
35.888
35.816
35.744
35.672
35.602
35.535
35.471
35.411
35.355
35.304
35.256
35.212
35.17
35.13
35.089
35.046
35.002
34.955
34.904
34.849
34.792
34.732
34.671
34.61
34.551
34.493
34.437
34.384
34.334
34.288
34.245
34.207
34.173
34.142
34.114
34.089
34.065
34.042
34.019
33.996
33.973
33.949
33.925
33.9
33.875
33.849
33.823
33.798
33.775
33.755
33.737
33.72
33.705
33.689
33.672
33.653
33.631
33.607
33.579
33.548
33.516
33.483
33.451
33.422
33.396
33.372
33.351
33.332
33.315
33.298
33.28
33.262
33.243
33.222
33.199
33.175
33.15
33.123
33.095
33.066
33.035
33.004
32.973
32.944
32.916
32.892
32.869
32.848
32.828
32.808
32.79
32.772
32.754
32.737
32.721
32.705
32.69
32.675
32.661
32.647
32.633
32.619
32.605
32.589
32.573
32.557
32.54
32.522
32.504
32.484
32.464
32.443
32.421
32.4
32.378
32.356
32.334
32.312
32.29
32.268
32.245
32.223
32.2
32.179
32.159
32.141
32.125
32.112
32.102
32.094
32.088
32.084
32.081
32.081
32.084
32.094
32.113
32.143
32.186
32.247
32.327
32.43
32.558
32.713
32.896
33.107
33.346
33.611
33.899
34.207
34.533
34.873
35.222
35.577
35.932
36.285
36.63
36.963
37.279
37.575
37.847
38.093
38.312
38.503
38.666
38.804
38.917
39.008
39.079
39.134
39.176
39.206
39.228
39.244
39.255
39.264
39.271
39.277
39.282
39.285
39.288
39.288
39.284
39.277
39.267
39.256
39.244
39.233
39.222
39.214
39.207
39.203
39.201
39.202
39.203
39.205
39.205
39.202
39.196
39.185
39.167
39.142
39.11
39.069
39.022
38.967
38.906
38.839
38.768
38.693
38.616
38.537
38.459
38.38
38.301
38.224
38.149
38.076
38.006
37.94
37.879
37.824
37.773
37.728
37.688
37.654
37.627
37.605
37.589
37.576
37.566
37.558
37.551
37.543
37.534
37.523
37.509
37.491
37.47
37.446
37.419
37.388
37.354
37.318
37.281
37.242
37.201
37.159
37.114
37.067
37.019
36.968
36.915
36.86
36.804
36.748
36.691
36.633
36.575
36.517
36.459
36.4
36.341
36.282
36.221
36.159
36.096
36.033
35.968
35.904
35.84
35.778
35.718
35.661
35.606
35.555
35.506
35.46
35.416
35.373
35.329
35.285
35.238
35.189
35.137
35.083
35.027
34.968
34.908
34.848
34.788
34.729
34.673
34.619
34.569
34.524
34.483
34.446
34.413
34.384
34.358
34.335
34.314
34.295
34.275
34.256
34.237
34.216
34.194
34.168
34.14
34.108
34.075
34.039
34.003
33.965
33.928
33.892
33.857
33.824
33.794
33.766
33.742
33.721
33.702
33.684
33.669
33.655
33.642
33.63
33.616
33.602
33.585
33.567
33.547
33.526
33.502
33.476
33.449
33.42
33.39
33.359
33.326
33.291
33.256
33.22
33.185
33.151
33.118
33.088
33.06
33.035
33.013
32.993
32.975
32.958
32.943
32.928
32.913
32.896
32.877
32.858
32.837
32.816
32.795
32.773
32.751
32.731
32.711
32.694
32.678
32.663
32.649
32.635
32.617
32.597
32.575
32.551
32.526
32.501
32.478
32.456
32.436
32.418
32.401
32.386
32.371
32.357
32.344
32.331
32.32
32.309
32.3
32.292
32.285
32.28
32.274
32.269
32.262
32.254
32.245
32.236
32.227
32.218
32.21
32.204
32.199
32.195
32.194
32.193
32.193
32.193
32.194
32.194
32.196
32.2
32.209
32.224
32.249
32.287
32.341
32.415
32.512
32.636
32.788
32.971
33.184
33.429
33.703
34.004
34.329
34.675
35.037
35.412
35.795
36.181
36.564
36.939
37.302
37.649
37.974
38.273
38.545
38.787
38.996
39.174
39.322
39.439
39.528
39.591
39.631
39.65
39.652
39.64
39.616
39.583
39.545
39.503
39.459
39.414
39.37
39.328
39.288
39.251
39.219
39.192
39.171
39.155
39.145
39.141
39.142
39.146
39.154
39.163
39.173
39.183
39.19
39.195
39.195
39.191
39.182
39.168
39.148
39.124
39.095
39.061
39.022
38.976
38.922
38.86
38.79
38.713
38.631
38.544
38.454
38.364
38.274
38.186
38.103
38.026
37.954
37.891
37.836
37.79
37.752
37.721
37.696
37.677
37.662
37.65
37.639
37.627
37.615
37.601
37.586
37.569
37.55
37.53
37.508
37.484
37.459
37.433
37.404
37.372
37.336
37.297
37.254
37.208
37.157
37.103
37.045
36.986
36.926
36.865
36.804
36.743
36.682
36.622
36.563
36.503
36.444
36.384
36.326
36.268
36.211
36.155
36.098
36.042
35.985
35.928
35.87
35.81
35.749
35.687
35.623
35.557
35.488
35.416
35.343
35.27
35.199
35.132
35.07
35.015
34.967
34.926
34.891
34.862
34.836
34.814
34.795
34.778
34.762
34.747
34.732
34.717
34.701
34.684
34.666
34.646
34.624
34.598
34.57
34.539
34.505
34.467
34.428
34.387
34.346
34.306
34.268
34.231
34.198
34.169
34.142
34.119
34.097
34.078
34.061
34.045
34.029
34.014
34.0
33.984
33.968
33.951
33.936
33.92
33.905
33.889
33.874
33.858
33.841
33.824
33.806
33.787
33.768
33.748
33.727
33.705
33.683
33.661
33.638
33.616
33.594
33.572
33.551
33.529
33.507
33.485
33.461
33.437
33.411
33.385
33.358
33.33
33.302
33.273
33.244
33.213
33.182
33.149
33.116
33.082
33.047
33.013
32.978
32.943
32.908
32.873
32.837
32.8
32.76
32.719
32.676
32.63
32.582
32.533
32.482
32.43
32.379
32.329
32.283
32.24
32.201
32.168
32.147
32.138
32.142
32.155
32.173
32.193
32.211
32.222
32.223
32.213
32.191
32.157
32.113
32.061
32.004
31.942
31.879
31.815
31.752
31.691
31.635
31.583
31.539
31.503
31.475
31.455
31.445
31.447
31.461
31.49
31.535
31.599
31.683
31.79
31.921
32.079
32.263
32.474
32.712
32.976
33.264
33.574
33.902
34.245
34.599
34.959
35.32
35.679
36.029
36.369
36.693
36.999
37.285
37.549
37.788
38.003
38.193
38.357
38.496
38.611
38.704
38.778
38.836
38.878
38.908
38.927
38.937
38.939
38.935
38.925
38.91
38.891
38.869
38.845
38.82
38.795
38.771
38.747
38.726
38.706
38.688
38.671
38.654
38.636
38.618
38.598
38.575
38.55
38.522
38.49
38.455
38.418
38.377
38.333
38.285
38.234
38.18
38.122
38.062
37.998
37.932
37.863
37.792
37.719
37.645
37.571
37.498
37.428
37.362
37.301
37.245
37.196
37.154
37.118
37.09
37.068
37.051
37.039
37.031
37.026
37.023
37.02
37.018
37.015
37.012
37.01
37.008
37.005
37.0
36.994
36.985
36.974
36.959
36.942
36.922
36.899
36.873
36.844
36.814
36.78
36.745
36.707
36.666
36.624
36.578
36.53
36.479
36.427
36.373
36.317
36.26
36.201
36.141
36.081
36.021
35.962
35.904
35.848
35.795
35.745
35.698
35.654
35.612
35.574
35.538
35.504
35.471
35.437
35.402
35.365
35.326
35.285
35.241
35.195
35.149
35.101
35.053
35.005
34.958
34.912
34.867
34.82
34.769
34.714
34.657
34.599
34.543
34.489
34.44
34.394
34.353
34.316
34.282
34.251
34.221
34.193
34.165
34.14
34.116
34.094
34.075
34.057
34.041
34.026
34.012
33.998
33.986
33.974
33.962
33.951
33.94
33.929
33.917
33.904
33.888
33.87
33.848
33.824
33.796
33.765
33.73
33.693
33.653
33.612
33.57
33.528
33.489
33.451
33.416
33.383
33.353
33.325
33.299
33.276
33.254
33.233
33.214
33.196
33.178
33.16
33.143
33.126
33.109
33.093
33.075
33.057
33.038
33.017
32.994
32.969
32.942
32.914
32.885
32.855
32.826
32.796
32.767
32.737
32.708
32.678
32.648
32.618
32.586
32.555
32.523
32.492
32.463
32.437
32.414
32.397
32.386
32.382
32.388
32.403
32.432
32.475
32.538
32.62
32.726
32.857
33.014
33.2
33.414
33.656
33.923
34.214
34.525
34.852
35.192
35.537
35.884
36.228
36.564
36.887
37.194
37.482
37.747
37.989
38.205
38.395
38.56
38.7
38.818
38.913
38.99
39.049
39.092
39.122
39.138
39.144
39.14
39.128
39.111
39.088
39.062
39.035
39.006
38.978
38.951
38.924
38.9
38.877
38.855
38.832
38.809
38.784
38.758
38.73
38.702
38.672
38.641
38.609
38.574
38.537
38.497
38.454
38.407
38.356
38.302
38.245
38.185
38.122
38.055
37.984
37.91
37.833
37.753
37.67
37.587
37.504
37.424
37.347
37.275
37.208
37.149
37.097
37.054
37.018
36.989
36.966
36.948
36.935
36.926
36.918
36.91
36.9
36.889
36.877
36.862
36.847
36.831
36.813
36.796
36.778
36.759
36.739
36.719
36.697
36.674
36.649
36.622
36.592
36.559
36.523
36.484
36.441
36.393
36.341
36.284
36.224
36.161
36.095
36.027
35.959
35.892
35.827
35.764
35.704
35.647
35.592
35.539
35.488
35.438
35.387
35.336
35.283
35.229
35.174
35.118
35.062
35.006
34.95
34.895
34.841
34.789
34.739
34.691
34.645
34.601
34.557
34.513
34.468
34.422
34.375
34.328
34.281
34.235
34.189
34.145
34.102
34.062
34.025
33.99
33.958
33.928
33.9
33.876
33.854
33.834
33.815
33.796
33.777
33.756
33.733
33.708
33.68
33.652
33.622
33.592
33.564
33.537
33.513
33.491
33.473
33.457
33.443
33.43
33.419
33.408
33.398
33.387
33.376
33.365
33.354
33.343
33.33
33.317
33.303
33.287
33.271
33.252
33.233
33.212
33.191
33.17
33.149
33.13
33.111
33.094
33.079
33.066
33.055
33.044
33.033
33.022
33.009
32.996
32.98
32.961
32.941
32.919
32.895
32.869
32.842
32.814
32.785
32.755
32.725
32.695
32.666
32.637
32.609
32.583
32.559
