Trial 3:3back
36.009
35.939
35.87
35.803
35.739
35.677
35.618
35.563
35.511
35.464
35.421
35.384
35.351
35.322
35.298
35.276
35.257
35.238
35.22
35.203
35.185
35.167
35.149
35.13
35.111
35.092
35.073
35.056
35.04
35.025
35.013
35.004
34.997
34.994
34.996
35.002
35.013
35.028
35.049
35.073
35.1
35.13
35.162
35.195
35.23
35.264
35.297
35.329
35.359
35.387
35.412
35.433
35.451
35.466
35.477
35.485
35.489
35.49
35.487
35.481
35.472
35.46
35.444
35.425
35.404
35.38
35.354
35.327
35.299
35.27
35.241
35.212
35.184
35.156
35.129
35.103
35.077
35.053
35.03
35.008
34.989
34.972
34.957
34.943
34.931
34.919
34.908
34.899
34.89
34.882
34.875
34.869
34.862
34.856
34.85
34.846
34.842
34.839
34.836
34.833
34.83
34.829
34.828
34.828
34.829
34.831
34.834
34.836
34.839
34.843
34.846
34.849
34.852
34.856
34.859
34.864
34.868
34.873
34.879
34.884
34.889
34.893
34.897
34.899
34.9
34.9
34.899
34.897
34.893
34.888
34.881
34.873
34.863
34.852
34.841
34.83
34.818
34.808
34.798
34.79
34.784
34.781
34.78
34.783
34.789
34.801
34.818
34.843
34.875
34.918
34.971
35.035
35.11
35.196
35.291
35.394
35.503
35.616
35.73
35.844
35.954
36.057
36.153
36.237
36.31
36.369
36.414
36.444
36.46
36.462
36.451
36.428
36.394
36.351
36.3
36.242
36.18
36.114
36.046
35.978
35.912
35.847
35.785
35.726
35.672
35.621
35.576
35.534
35.496
35.463
35.434
35.408
35.386
35.368
35.352
35.338
35.327
35.316
35.306
35.295
35.283
35.269
35.253
35.236
35.217
35.198
35.179
35.161
35.144
35.129
35.116
35.107
35.101
35.099
35.102
35.109
35.12
35.135
35.153
35.174
35.198
35.223
35.249
35.276
35.304
35.331
35.356
35.381
35.405
35.427
35.447
35.464
35.48
35.492
35.5
35.505
35.507
35.505
35.5
35.49
35.477
35.46
35.441
35.419
35.397
35.373
35.349
35.326
35.303
35.281
35.26
35.239
35.219
35.199
35.18
35.161
35.142
35.124
35.107
35.089
35.072
35.056
35.041
35.026
35.013
35.001
34.989
34.977
34.967
34.958
34.949
34.942
34.936
34.93
34.926
34.922
34.919
34.917
34.915
34.914
34.912
34.911
34.911
34.91
34.911
34.912
34.914
34.916
34.919
34.923
34.926
34.929
34.931
34.934
34.935
34.937
34.939
34.941
34.943
34.944
34.945
34.945
34.944
34.942
34.94
34.938
34.935
34.933
34.93
34.926
34.923
34.919
34.916
34.912
34.908
34.903
34.898
34.894
34.89
34.887
34.886
34.887
34.89
34.895
34.903
34.914
34.931
34.954
34.986
35.027
35.079
35.141
35.215
35.299
35.392
35.493
35.599
35.709
35.821
35.933
36.041
36.144
36.237
36.319
36.388
36.442
36.482
36.506
36.516
36.511
36.493
36.463
36.423
36.374
36.317
36.256
36.191
36.125
36.057
35.989
35.923
35.859
35.798
35.742
35.69
35.642
35.6
35.562
35.528
35.497
35.47
35.446
35.425
35.405
35.388
35.371
35.355
35.34
35.324
35.308
35.29
35.271
35.251
35.229
35.206
35.183
35.16
35.138
35.118
35.101
35.088
35.08
35.076
35.077
35.083
35.094
35.109
35.128
35.151
35.177
35.206
35.237
35.27
35.303
35.336
35.367
35.398
35.426
35.452
35.476
35.497
35.515
35.529
35.538
35.543
35.544
35.541
35.533
35.522
35.508
35.492
35.474
35.455
35.434
35.413
35.391
35.367
35.343
35.319
35.295
35.271
35.248
35.226
35.204
35.184
35.165
35.146
35.127
35.108
35.09
35.072
35.055
35.039
35.024
35.011
34.997
34.985
34.973
34.961
34.949
34.938
34.928
34.919
34.912
34.907
34.903
34.901
34.9
34.899
34.899
34.899
34.899
34.899
34.899
34.899
34.899
34.899
34.899
34.899
34.899
34.899
34.898
34.898
34.898
34.898
34.899
34.9
34.902
34.904
34.906
34.909
34.912
34.915
34.917
34.92
34.923
34.925
34.927
34.928
34.928
34.926
34.923
34.92
34.915
34.909
34.903
34.896
34.889
34.881
34.874
34.867
34.861
34.855
34.851
34.847
34.844
34.843
34.842
34.843
34.845
34.85
34.857
34.868
34.883
34.904
34.934
34.972
35.021
35.08
35.152
35.234
35.328
35.431
35.54
35.656
35.774
35.891
36.006
36.114
36.215
36.305
36.383
36.447
36.496
36.529
36.547
36.551
36.541
36.518
36.483
36.438
36.384
36.323
36.258
36.19
36.121
36.053
35.987
35.923
35.862
35.804
35.749
35.699
35.652
35.609
35.57
35.535
35.502
35.473
35.446
35.422
35.4
35.379
35.36
35.342
35.324
35.306
35.288
35.269
35.25
35.231
35.211
35.191
35.172
35.154
35.138
35.125
35.115
35.109
35.107
35.108
35.114
35.123
35.136
35.153
35.172
35.195
35.222
35.25
35.281
35.312
35.344
35.376
35.406
35.435
35.462
35.486
35.508
35.526
35.541
35.551
35.558
35.561
35.56
35.556
35.549
35.539
35.526
35.511
35.495
35.476
35.457
35.435
35.412
35.388
35.361
35.333
35.303
35.271
35.24
35.208
35.177
35.147
35.119
35.093
35.069
35.048
35.028
35.011
34.997
34.984
34.973
34.963
34.956
34.949
34.943
34.939
34.935
34.933
34.93
34.928
34.926
34.924
34.923
34.922
34.921
34.921
34.92
34.919
34.917
34.914
34.911
34.908
34.904
34.901
34.899
34.897
34.896
34.897
34.899
34.902
34.907
34.912
34.918
34.924
34.93
34.935
34.94
34.945
34.95
34.953
34.956
34.958
34.959
34.959
34.958
34.955
34.952
34.948
34.943
34.938
34.933
34.93
34.927
34.924
34.923
34.921
34.92
34.919
34.918
34.916
34.914
34.911
34.908
34.904
34.899
34.893
34.885
34.877
34.868
34.857
34.846
34.834
34.823
34.813
34.804
34.797
34.791
34.786
34.784
34.783
34.783
34.786
34.791
34.801
34.816
34.839
34.872
34.914
34.969
35.036
35.116
35.208
35.311
35.424
35.545
35.671
35.799
35.927
36.051
36.169
36.277
36.372
36.454
36.522
36.575
36.612
36.633
36.639
36.631
36.609
36.574
36.529
36.474
36.411
36.342
36.267
36.189
36.109
36.03
35.953
35.88
35.811
35.748
35.69
35.637
35.59
35.549
35.513
35.482
35.455
35.432
35.413
35.397
35.382
35.369
35.356
35.342
35.328
35.312
35.296
35.278
35.261
35.243
35.226
35.209
35.195
35.183
35.174
35.169
35.168
35.172
35.179
35.191
35.208
35.227
35.251
35.278
35.307
35.338
35.37
35.403
35.436
35.469
35.5
35.531
35.56
35.588
35.612
35.634
35.652
35.667
35.678
35.685
35.688
35.688
35.684
35.676
35.664
35.65
35.633
35.613
35.592
35.568
35.542
35.515
35.488
35.46
35.432
35.404
35.376
35.35
35.324
35.298
35.273
35.249
35.225
35.202
35.181
35.161
35.143
35.127
35.113
35.101
35.089
35.078
35.068
35.058
35.05
35.042
35.034
35.026
35.019
35.013
35.007
35.001
34.995
34.991
34.986
34.983
34.979
34.976
34.973
34.971
34.968
34.966
34.965
34.963
34.962
34.96
34.96
34.961
34.962
34.966
34.97
34.976
34.981
34.987
34.993
34.998
35.003
35.009
35.014
35.018
35.022
35.024
35.025
35.024
35.022
35.018
35.015
35.01
35.006
35.002
34.997
34.993
34.989
34.985
34.981
34.977
34.973
34.968
34.964
34.96
34.956
34.952
34.948
34.945
34.942
34.939
34.935
34.93
34.925
34.918
34.911
34.903
34.895
34.887
34.878
34.871
34.863
34.857
34.851
34.848
34.848
34.854
34.867
34.889
34.923
34.969
35.029
35.104
35.193
35.296
35.41
35.534
35.665
35.8
35.937
36.071
36.2
36.321
36.43
36.526
36.607
36.673
36.722
36.756
36.774
36.777
36.767
36.744
36.709
36.665
36.612
36.552
36.487
36.419
36.348
36.277
36.207
36.138
36.071
36.008
35.947
35.891
35.84
35.793
35.75
35.712
35.678
35.649
35.624
35.602
35.582
35.565
35.548
35.532
35.516
35.5
35.483
35.466
35.448
35.428
35.408
35.387
35.365
35.343
35.321
35.3
35.28
35.264
35.251
35.242
35.238
35.239
35.245
35.256
35.271
35.29
35.313
35.34
35.37
35.403
35.436
35.469
35.502
35.534
35.563
35.59
35.614
35.635
35.653
35.668
35.68
35.689
35.695
35.698
35.699
35.696
35.69
35.681
35.668
35.652
35.633
35.611
35.588
35.563
35.536
35.508
35.48
35.451
35.423
35.396
35.37
35.345
35.322
35.299
35.278
35.258
35.24
35.223
35.206
35.19
35.175
35.161
35.148
35.137
35.126
35.116
35.107
35.098
35.09
35.082
35.075
35.068
35.061
35.056
35.051
35.046
35.043
35.039
35.037
35.035
35.034
35.033
35.032
35.032
35.033
35.035
35.037
35.041
35.045
35.05
35.055
35.059
35.063
35.067
35.07
35.073
35.075
35.077
35.079
35.081
35.082
35.083
35.084
35.086
35.088
35.09
35.093
35.095
35.097
35.097
35.096
35.094
35.09
35.085
35.079
35.073
35.066
35.06
35.054
35.049
35.044
35.039
35.035
35.031
35.028
35.026
35.025
35.024
35.024
35.025
35.025
35.024
35.023
35.021
35.018
35.013
35.007
35.0
34.993
34.985
34.976
34.968
34.96
34.953
34.947
34.942
34.941
34.943
34.95
34.965
34.989
35.023
35.07
35.13
35.204
35.29
35.389
35.499
35.618
35.745
35.875
36.007
36.137
36.262
36.378
36.484
36.576
36.655
36.718
36.766
36.798
36.815
36.819
36.809
36.787
36.755
36.713
36.663
36.607
36.545
36.48
36.413
36.344
36.275
36.208
36.144
36.082
36.023
35.968
35.916
35.867
35.823
35.783
35.747
35.714
35.686
35.661
35.64
35.622
35.606
35.592
35.58
35.568
35.556
35.543
35.53
35.516
35.501
35.486
35.47
35.454
35.438
35.423
35.408
35.396
35.386
35.379
35.377
35.378
35.385
35.394
35.408
35.424
35.443
35.464
35.486
35.509
35.534
35.56
35.586
35.614
35.642
35.669
35.696
35.72
35.742
35.762
35.778
35.79
35.799
35.803
35.803
35.798
35.789
35.776
35.76
35.739
35.716
35.691
35.664
35.636
35.609
35.582
35.557
35.531
35.507
35.483
35.458
35.434
35.41
35.387
35.363
35.34
35.317
35.295
35.273
35.251
35.23
35.211
35.194
35.178
35.166
35.155
35.147
35.141
35.136
35.132
35.129
35.126
35.124
35.122
35.12
35.119
35.118
35.117
35.117
35.118
35.118
35.119
35.119
35.12
35.121
35.122
35.123
35.124
35.125
35.126
35.126
35.126
35.125
35.124
35.122
35.12
35.118
35.116
35.114
35.112
35.111
35.109
35.108
35.107
35.106
35.106
35.106
35.106
35.106
35.106
35.107
35.107
35.108
35.108
35.108
35.107
35.105
35.103
35.1
35.096
35.09
35.083
35.075
35.067
35.059
35.052
35.044
35.037
35.03
35.023
35.017
35.01
35.003
34.996
34.988
34.979
34.97
34.96
34.95
34.94
34.931
34.923
34.915
34.909
34.904
34.901
34.902
34.907
34.917
34.935
34.961
34.998
35.044
35.103
35.174
35.258
35.354
35.46
35.576
35.699
35.826
35.955
36.084
36.208
36.325
36.433
36.529
36.611
36.679
36.731
36.768
36.789
36.796
36.789
36.77
36.739
36.699
36.651
36.597
36.537
36.474
36.409
36.343
36.277
36.213
36.151
36.091
36.035
35.982
35.934
35.889
35.848
35.812
35.779
35.75
35.724
35.701
35.679
35.66
35.642
35.626
35.611
35.597
35.582
35.567
35.55
35.533
35.515
35.496
35.475
35.453
35.432
35.411
35.392
35.377
35.366
35.36
35.358
35.362
35.37
35.382
35.398
35.417
35.44
35.464
35.491
35.52
35.55
35.581
35.611
35.641
35.67
35.696
35.72
35.74
35.758
35.773
35.785
35.794
35.8
35.802
35.8
35.794
35.784
35.77
35.753
35.732
35.71
35.686
35.662
35.637
35.612
35.586
35.561
35.534
35.507
35.48
35.453
35.426
35.401
35.378
35.355
35.335
35.316
35.298
35.281
35.264
35.248
35.233
35.218
35.204
35.191
35.178
35.166
35.155
35.146
35.138
35.131
35.126
35.121
35.117
35.113
35.111
35.109
35.107
35.106
35.105
35.104
35.103
35.102
35.1
35.098
35.095
35.094
35.092
35.091
35.09
35.09
35.09
35.091
35.092
35.093
35.095
35.097
35.099
35.101
35.104
35.106
35.109
35.111
35.113
35.115
35.116
35.117
35.117
35.117
35.116
35.115
35.114
35.112
35.11
35.106
35.102
35.096
35.09
35.082
35.074
35.065
35.056
35.047
35.039
35.031
35.024
35.018
35.011
35.005
35.0
34.994
34.989
34.983
34.978
34.973
34.969
34.965
34.961
34.956
34.95
34.943
34.936
34.928
34.921
34.914
34.909
34.906
34.905
34.908
34.916
34.931
34.954
34.988
35.033
35.089
35.157
35.238
35.329
35.43
35.54
35.656
35.776
35.898
36.019
36.136
36.246
36.348
36.439
36.518
36.583
36.634
36.67
36.69
36.697
36.69
36.671
36.64
36.601
36.555
36.502
36.446
36.386
36.326
36.266
36.206
36.147
36.09
36.035
35.983
35.934
35.888
35.846
35.807
35.772
35.741
35.713
35.687
35.665
35.644
35.625
35.606
35.588
35.571
35.555
35.538
35.521
35.504
35.486
35.467
35.448
35.429
35.411
35.393
35.377
35.364
35.353
35.345
35.342
35.343
35.348
35.357
35.372
35.39
35.411
35.436
35.463
35.49
35.519
35.547
35.575
35.602
35.628
35.652
35.674
35.694
35.712
35.727
35.739
35.747
35.752
35.754
35.754
35.751
35.745
35.736
35.726
35.712
35.697
35.678
35.657
35.634
35.609
35.582
35.555
35.527
35.499
35.471
35.444
35.418
35.394
35.371
35.349
35.329
35.31
35.292
35.277
35.262
35.25
35.238
35.227
35.217
35.208
35.198
35.189
35.181
35.172
35.165
35.157
35.15
35.143
35.136
35.129
35.122
35.116
35.111
35.106
35.102
35.099
35.096
35.094
35.092
35.092
35.093
35.094
35.095
35.097
35.099
35.101
35.104
35.105
35.106
35.107
35.107
35.107
35.107
35.107
35.106
35.104
35.101
35.098
35.095
35.093
35.091
35.09
35.09
35.09
35.092
35.094
35.097
35.101
35.105
35.11
35.114
35.118
35.12
35.12
35.118
35.114
35.108
35.101
35.093
35.084
35.074
35.064
35.054
35.043
35.032
35.02
35.008
34.996
34.984
34.973
34.964
34.955
34.949
34.944
34.941
34.939
34.94
34.944
34.951
34.964
34.984
35.012
35.049
35.096
35.155
35.225
35.306
35.397
35.497
35.605
35.718
35.833
35.949
36.063
36.173
36.276
36.369
36.452
36.521
36.576
36.617
36.644
36.657
36.657
36.646
36.624
36.592
36.553
36.506
36.454
36.397
36.338
36.277
36.217
36.157
36.1
36.046
35.996
35.949
35.905
35.865
35.827
35.792
35.76
35.73
35.703
35.678
35.656
35.637
35.62
35.605
35.592
35.579
35.566
35.552
35.538
35.524
35.508
35.493
35.478
35.464
35.45
35.436
35.424
35.412
35.402
35.394
35.388
35.385
35.385
35.389
35.397
35.408
35.423
35.442
35.463
35.487
35.513
35.539
35.566
35.592
35.618
35.643
35.665
35.685
35.701
35.713
35.722
35.726
35.727
35.724
35.718
35.709
35.697
35.683
35.667
35.65
35.632
35.613
35.593
35.572
35.551
35.529
35.508
35.487
35.467
35.447
35.427
35.407
35.386
35.365
35.344
35.322
35.302
35.281
35.262
35.244
35.228
35.212
35.199
35.187
35.176
35.166
35.157
35.149
35.141
35.133
35.126
35.118
35.111
35.104
35.097
35.089
35.082
35.075
35.07
35.065
35.063
35.063
35.064
35.068
35.072
35.078
35.084
35.09
35.096
35.101
35.105
35.109
35.111
35.112
35.112
35.11
35.108
35.106
35.103
35.099
35.096
35.092
35.088
35.084
35.08
35.076
35.071
35.066
35.061
35.056
35.05
35.045
35.039
35.034
35.03
35.026
35.022
35.019
35.016
35.014
35.012
35.01
35.007
35.005
35.001
34.997
34.993
34.987
34.982
34.975
34.968
34.961
34.954
34.948
34.942
34.936
34.932
34.928
34.924
34.92
34.917
34.915
34.913
34.914
34.917
34.923
34.935
34.952
34.977
35.012
35.057
35.114
35.183
35.265
35.358
35.462
35.574
35.693
35.815
35.938
36.057
36.171
36.277
36.373
36.458
36.531
36.589
36.634
36.665
36.683
36.687
36.68
36.662
36.633
36.597
36.554
36.505
36.453
36.398
36.343
36.288
36.235
36.183
36.135
36.088
36.045
36.006
35.97
35.938
35.911
35.887
35.866
35.849
35.834
35.821
35.81
35.801
35.793
35.785
35.777
35.769
35.761
35.752
35.741
35.728
35.712
35.693
35.672
35.649
35.626
35.602
35.579
35.557
35.538
35.522
35.509
35.501
35.496
35.495
35.498
35.504
35.513
35.526
35.54
35.557
35.575
35.594
35.613
35.632
35.65
35.667
35.683
35.697
35.709
35.719
35.727
35.732
35.735
35.735
35.733
35.728
35.72
35.709
35.695
35.679
35.661
35.641
35.619
35.596
35.572
35.546
35.521
35.495
35.47
35.446
35.424
35.403
35.384
35.367
35.351
35.335
35.32
35.306
35.293
35.279
35.267
35.254
35.242
35.231
35.22
35.21
35.201
35.192
35.183
35.175
35.166
35.158
35.151
35.144
35.137
35.131
35.126
35.12
35.115
35.11
35.105
35.101
35.097
35.094
35.092
35.091
35.09
35.09
35.089
35.088
35.087
35.085
35.082
35.079
35.075
35.072
35.07
35.068
35.066
35.066
35.067
35.068
35.069
35.071
35.074
35.076
35.079
35.08
35.081
35.081
35.079
35.075
35.071
35.065
35.058
35.051
35.043
35.037
35.03
35.025
35.02
35.015
35.011
35.007
35.002
34.998
34.992
34.986
34.979
34.971
34.963
34.954
34.945
34.935
34.926
34.916
34.907
34.899
34.891
34.885
34.879
34.874
34.87
34.867
34.865
34.864
34.864
34.865
34.868
34.874
34.882
34.893
34.91
34.932
34.963
35.003
35.055
35.118
35.193
35.281
35.379
35.487
35.602
35.721
35.844
35.965
36.083
36.194
36.296
36.388
36.467
36.533
36.584
36.621
36.645
36.655
36.652
36.639
36.615
36.583
36.544
36.499
36.45
36.399
36.346
36.294
36.242
36.193
36.147
36.103
36.063
36.027
35.993
35.963
35.936
35.911
35.888
35.868
35.849
35.832
35.817
35.802
35.789
35.775
35.762
35.749
35.736
35.724
35.711
35.698
35.683
35.668
35.652
35.634
35.614
35.595
35.575
35.557
35.541
35.527
35.516
35.509
35.505
35.504
35.508
35.514
35.523
35.534
35.547
35.562
35.578
35.595
35.612
35.63
35.647
35.662
35.676
35.688
35.699
35.707
35.714
35.718
35.719
35.718
35.714
35.707
35.698
35.687
35.675
35.661
35.646
35.63
35.613
35.595
35.576
35.557
35.537
35.517
35.497
35.477
35.456
35.434
35.412
35.39
35.368
35.345
35.323
35.302
35.282
35.263
35.245
35.228
35.213
35.2
35.188
35.177
35.167
35.159
35.153
35.148
35.146
35.145
35.144
35.144
35.144
35.143
35.141
35.138
35.134
35.13
35.126
35.121
35.117
35.113
35.109
35.106
35.103
35.1
35.099
35.099
35.099
35.1
35.102
35.103
35.104
35.105
35.105
35.104
35.102
35.099
35.096
35.092
35.088
35.085
35.083
35.08
35.078
35.077
35.075
35.073
35.071
35.069
35.066
35.062
35.058
35.053
35.047
35.041
35.036
35.03
35.024
35.019
35.013
35.007
35.002
34.996
34.991
34.986
34.982
34.979
34.975
34.972
34.968
34.964
34.959
34.953
34.946
34.939
34.93
34.922
34.913
34.903
34.894
34.885
34.875
34.864
34.853
34.841
34.829
34.818
34.808
34.8
34.793
34.788
34.786
34.785
34.788
34.795
34.807
34.824
34.849
34.882
34.924
34.977
35.042
35.118
35.205
35.303
35.409
35.522
35.638
35.757
35.876
35.991
36.1
36.202
36.293
36.372
36.438
36.49
36.528
36.551
36.561
36.557
36.542
36.516
36.481
36.438
36.39
36.336
36.279
36.221
36.162
36.104
36.047
35.994
35.943
35.896
35.852
35.811
35.774
35.741
35.711
35.685
35.663
35.644
35.628
35.616
35.606
35.599
35.593
35.587
35.582
35.576
35.569
35.56
35.549
35.537
35.523
35.508
35.493
35.477
35.461
35.447
35.435
35.425
35.417
35.413
35.412
35.414
35.42
35.43
35.442
35.457
35.474
35.493
35.512
35.532
35.553
35.573
35.593
35.611
35.628
35.643
35.656
35.666
35.674
35.679
35.682
35.682
35.679
35.674
35.667
35.657
35.646
35.632
35.616
35.598
35.578
35.557
35.535
35.51
35.485
35.459
35.432
35.405
35.378
35.353
35.33
35.309
35.289
35.272
35.256
35.243
35.23
35.218
35.207
35.195
35.183
35.17
35.158
35.146
35.134
35.124
35.114
35.105
35.096
35.089
35.082
35.077
35.073
35.071
35.07
35.07
35.071
35.073
35.076
35.078
35.079
35.081
35.083
35.084
35.086
35.089
35.091
35.094
35.096
35.099
35.101
35.102
35.102
35.101
35.099
35.096
35.092
35.088
35.083
35.079
35.074
35.068
35.063
35.058
35.053
35.048
35.044
35.04
35.036
35.031
35.027
35.022
35.017
35.011
35.005
34.999
34.993
34.987
34.982
34.977
34.973
34.969
34.966
34.962
34.958
34.954
34.949
34.945
34.94
34.935
