Trial 3:3back
35.821
35.878
35.924
35.959
35.984
35.999
36.004
36.001
35.992
35.977
35.958
35.937
35.914
35.89
35.865
35.841
35.816
35.793
35.771
35.75
35.73
35.708
35.686
35.662
35.636
35.606
35.573
35.538
35.501
35.463
35.423
35.384
35.345
35.308
35.273
35.241
35.213
35.189
35.171
35.158
35.15
35.149
35.154
35.164
35.177
35.193
35.21
35.227
35.243
35.258
35.272
35.284
35.295
35.304
35.311
35.316
35.32
35.322
35.324
35.326
35.329
35.333
35.337
35.341
35.346
35.35
35.354
35.357
35.36
35.362
35.364
35.365
35.365
35.361
35.355
35.345
35.33
35.312
35.289
35.264
35.237
35.208
35.178
35.147
35.116
35.084
35.053
35.023
34.993
34.965
34.939
34.915
34.891
34.87
34.85
34.832
34.815
34.799
34.785
34.77
34.755
34.74
34.723
34.706
34.687
34.668
34.648
34.627
34.606
34.584
34.563
34.544
34.525
34.51
34.497
34.487
34.48
34.474
34.471
34.47
34.473
34.479
34.491
34.508
34.531
34.561
34.599
34.645
34.699
34.762
34.833
34.912
35.0
35.095
35.197
35.303
35.413
35.525
35.638
35.75
35.86
35.967
36.07
36.167
36.256
36.335
36.404
36.462
36.507
36.54
36.562
36.572
36.57
36.558
36.536
36.506
36.468
36.426
36.38
36.333
36.285
36.237
36.193
36.151
36.112
36.079
36.05
36.025
36.004
35.985
35.969
35.954
35.939
35.923
35.906
35.887
35.866
35.842
35.817
35.79
35.762
35.733
35.705
35.679
35.654
35.631
35.61
35.593
35.58
35.57
35.565
35.566
35.571
35.581
35.593
35.607
35.624
35.642
35.662
35.682
35.703
35.724
35.743
35.759
35.772
35.78
35.784
35.784
35.781
35.774
35.764
35.752
35.736
35.719
35.7
35.679
35.657
35.635
35.614
35.593
35.572
35.552
35.531
35.51
35.488
35.464
35.439
35.413
35.386
35.357
35.327
35.296
35.264
35.231
35.197
35.163
35.129
35.095
35.063
35.033
35.005
34.98
34.959
34.94
34.924
34.91
34.898
34.887
34.879
34.871
34.863
34.856
34.847
34.836
34.822
34.806
34.787
34.765
34.741
34.716
34.69
34.663
34.637
34.612
34.589
34.568
34.551
34.538
34.532
34.534
34.545
34.567
34.598
34.641
34.694
34.759
34.834
34.919
35.014
35.117
35.228
35.344
35.465
35.589
35.713
35.836
35.958
36.075
36.188
36.293
36.39
36.479
36.558
36.626
36.685
36.732
36.771
36.8
36.821
36.834
36.838
36.834
36.821
36.801
36.774
36.74
36.702
36.66
36.617
36.573
36.528
36.485
36.443
36.404
36.367
36.333
36.302
36.274
36.249
36.228
36.208
36.189
36.171
36.153
36.135
36.116
36.097
36.078
36.059
36.04
36.021
36.001
35.982
35.962
35.942
35.922
35.903
35.885
35.87
35.857
35.847
35.839
35.834
35.831
35.832
35.836
35.845
35.858
35.875
35.893
35.912
35.931
35.949
35.965
35.978
35.987
35.992
35.992
35.986
35.974
35.956
35.932
35.903
35.87
35.835
35.798
35.761
35.724
35.689
35.656
35.625
35.598
35.573
35.552
35.534
35.519
35.506
35.496
35.486
35.476
35.465
35.451
35.435
35.414
35.389
35.359
35.325
35.288
35.249
35.207
35.166
35.125
35.084
35.046
35.011
34.979
34.953
34.931
34.915
34.904
34.896
34.892
34.889
34.887
34.884
34.881
34.878
34.872
34.865
34.856
34.843
34.828
34.809
34.787
34.763
34.737
34.711
34.686
34.663
34.643
34.626
34.616
34.612
34.616
34.629
34.652
34.685
34.729
34.784
34.85
34.927
35.014
35.111
35.215
35.327
35.443
35.564
35.686
35.808
35.928
36.045
36.158
36.266
36.365
36.456
36.537
36.609
36.671
36.723
36.767
36.802
36.828
36.845
36.855
36.857
36.853
36.842
36.825
36.804
36.777
36.746
36.711
36.672
36.63
36.585
36.538
36.491
36.444
36.398
36.354
36.311
36.27
36.231
36.195
36.162
36.132
36.107
36.085
36.067
36.051
36.036
36.024
36.011
35.999
35.986
35.973
35.958
35.943
35.926
35.909
35.891
35.873
35.857
35.842
35.83
35.821
35.815
35.813
35.814
35.82
35.83
35.842
35.857
35.873
35.888
35.903
35.917
35.929
35.938
35.944
35.946
35.944
35.936
35.923
35.904
35.879
35.849
35.815
35.779
35.741
35.703
35.664
35.626
35.589
35.554
35.522
35.493
35.466
35.443
35.422
35.403
35.383
35.362
35.34
35.317
35.292
35.266
35.24
35.214
35.187
35.158
35.125
35.089
35.05
35.01
34.969
34.929
34.891
34.855
34.822
34.793
34.768
34.746
34.728
34.713
34.699
34.688
34.677
34.666
34.654
34.642
34.628
34.613
34.595
34.575
34.552
34.526
34.498
34.469
34.44
34.411
34.384
34.359
34.336
34.315
34.297
34.281
34.268
34.257
34.248
34.242
34.24
34.24
34.244
34.251
34.261
34.275
34.292
34.315
34.343
34.379
34.424
34.479
34.546
34.625
34.714
34.813
34.921
35.036
35.157
35.282
35.409
35.536
35.66
35.777
35.887
35.985
36.071
36.143
36.201
36.245
36.274
36.288
36.289
36.276
36.251
36.216
36.173
36.124
36.072
36.02
35.968
35.919
35.873
35.832
35.796
35.766
35.74
35.718
35.7
35.684
35.67
35.656
35.641
35.625
35.607
35.586
35.56
35.53
35.496
35.459
35.418
35.376
35.334
35.294
35.257
35.224
35.196
35.174
35.157
35.147
35.144
35.148
35.157
35.172
35.191
35.213
35.235
35.257
35.278
35.297
35.313
35.326
35.335
35.338
35.337
35.331
35.321
35.306
35.289
35.27
35.251
35.232
35.214
35.196
35.179
35.164
35.149
35.136
35.123
35.11
35.097
35.083
35.067
35.049
35.029
35.007
34.982
34.954
34.923
34.89
34.854
34.817
34.78
34.742
34.706
34.671
34.638
34.606
34.575
34.546
34.519
34.494
34.471
34.45
34.431
34.414
34.399
34.383
34.368
34.352
34.335
34.316
34.296
34.275
34.252
34.23
34.207
34.185
34.164
34.145
34.127
34.111
34.096
34.084
34.076
34.071
34.069
34.071
34.076
34.083
34.092
34.1
34.108
34.114
34.118
34.12
34.119
34.115
34.11
34.102
34.093
34.083
34.073
34.064
34.057
34.056
34.062
34.078
34.105
34.145
34.198
34.264
34.342
34.433
34.533
34.643
34.759
34.88
35.004
35.13
35.253
35.371
35.482
35.584
35.675
35.754
35.821
35.876
35.92
35.954
35.977
35.99
35.995
35.993
35.985
35.971
35.954
35.935
35.913
35.89
35.866
35.839
35.811
35.782
35.752
35.721
35.689
35.655
35.62
35.584
35.546
35.508
35.47
35.431
35.392
35.354
35.318
35.285
35.256
35.23
35.21
35.194
35.182
35.173
35.168
35.166
35.166
35.167
35.17
35.173
35.176
35.179
35.18
35.18
35.178
35.176
35.173
35.172
35.171
35.172
35.176
35.183
35.193
35.206
35.219
35.235
35.251
35.268
35.286
35.306
35.332
35.365
35.404
35.448
35.491
35.529
35.557
35.573
35.574
35.561
35.533
35.49
35.434
35.368
35.293
35.214
35.133
35.055
34.981
34.915
34.858
34.81
34.77
34.741
34.72
34.708
34.704
34.704
34.708
34.713
34.719
34.722
34.721
34.715
34.704
34.687
34.666
34.641
34.613
34.584
34.555
34.527
34.502
34.479
34.459
34.443
34.43
34.422
34.418
34.417
34.419
34.423
34.427
34.431
34.434
34.434
34.432
34.427
34.418
34.405
34.388
34.369
34.347
34.323
34.298
34.272
34.247
34.224
34.204
34.187
34.176
34.171
34.174
34.186
34.207
34.237
34.277
34.326
34.384
34.451
34.529
34.616
34.713
34.817
34.929
35.045
35.164
35.284
35.403
35.52
35.635
35.746
35.852
35.951
36.042
36.123
36.194
36.254
36.303
36.343
36.372
36.393
36.405
36.407
36.401
36.388
36.367
36.341
36.309
36.274
36.236
36.195
36.152
36.107
36.06
36.012
35.965
35.918
35.874
35.832
35.794
35.76
35.729
35.701
35.676
35.654
35.635
35.617
35.602
35.588
35.576
35.565
35.555
35.545
35.534
35.522
35.511
35.499
35.486
35.474
35.463
35.453
35.446
35.44
35.437
35.437
35.439
35.444
35.452
35.463
35.478
35.496
35.516
35.536
35.555
35.572
35.586
35.596
35.602
35.603
35.602
35.597
35.588
35.577
35.562
35.544
35.523
35.5
35.474
35.447
35.42
35.392
35.364
35.336
35.308
35.28
35.251
35.222
35.194
35.166
35.139
35.113
35.087
35.06
35.032
35.004
34.974
34.943
34.912
34.88
34.85
34.821
34.794
34.771
34.75
34.733
34.718
34.706
34.697
34.689
34.683
34.679
34.676
34.674
34.671
34.667
34.66
34.65
34.636
34.618
34.597
34.573
34.547
34.521
34.495
34.47
34.447
34.425
34.405
34.387
34.372
34.36
34.352
34.348
34.347
34.348
34.352
34.357
34.363
34.37
34.378
34.387
34.4
34.417
34.44
34.468
34.503
34.546
34.598
34.659
34.73
34.809
34.898
34.996
35.102
35.214
35.332
35.451
35.572
35.69
35.805
35.913
36.014
36.106
36.186
36.25
36.292
36.312
36.31
36.29
36.256
36.213
36.166
36.118
36.073
36.033
36.0
35.974
35.954
35.941
35.934
35.931
35.932
35.936
35.942
35.949
35.955
35.959
35.96
35.958
35.951
35.94
35.926
35.907
35.885
35.859
35.828
35.795
35.759
35.722
35.685
35.65
35.618
35.59
35.567
35.549
35.537
35.53
35.528
35.532
35.541
35.555
35.573
35.593
35.616
35.639
35.662
35.683
35.701
35.717
35.73
35.738
35.743
35.744
35.741
35.735
35.725
35.714
35.7
35.685
35.669
35.652
35.635
35.618
35.602
35.587
35.572
35.558
35.544
35.528
35.512
35.494
35.475
35.455
35.433
35.409
35.383
35.353
35.321
35.285
35.246
35.206
35.166
35.127
35.089
35.053
35.019
34.988
34.959
34.933
34.91
34.889
34.871
34.856
34.842
34.829
34.816
34.802
34.786
34.769
34.75
34.728
34.704
34.679
34.652
34.624
34.596
34.568
34.54
34.513
34.486
34.462
34.441
34.422
34.407
34.395
34.386
34.38
34.376
34.372
34.369
34.366
34.363
34.359
34.355
34.351
34.347
34.343
34.34
34.34
34.343
34.35
34.363
34.384
34.414
34.455
34.509
34.574
34.652
34.742
34.843
34.953
35.071
35.194
35.32
35.447
35.572
35.693
35.808
35.913
36.007
36.088
36.156
36.21
36.25
36.279
36.296
36.304
36.302
36.293
36.277
36.256
36.231
36.203
36.174
36.143
36.111
36.078
36.043
36.006
35.969
35.931
35.893
35.855
35.818
35.78
35.741
35.702
35.662
35.622
35.581
35.542
35.504
35.469
35.436
35.406
35.381
35.359
35.34
35.326
35.317
35.311
35.309
35.311
35.316
35.323
35.333
35.343
35.355
35.366
35.377
35.387
35.394
35.4
35.403
35.404
35.404
35.404
35.403
35.403
35.404
35.406
35.409
35.412
35.417
35.422
35.428
35.434
35.44
35.444
35.447
35.447
35.444
35.437
35.427
35.413
35.395
35.373
35.346
35.317
35.284
35.248
35.21
35.172
35.134
35.098
35.063
35.032
35.004
34.98
34.959
34.942
34.928
34.916
34.907
34.898
34.89
34.881
34.871
34.859
34.845
34.827
34.807
34.784
34.758
34.731
34.703
34.675
34.646
34.617
34.591
34.566
34.546
34.531
34.52
34.514
34.513
34.517
34.525
34.535
34.547
34.558
34.568
34.575
34.579
34.578
34.573
34.565
34.553
34.541
34.527
34.515
34.504
34.496
34.493
34.497
34.509
34.532
34.568
34.616
34.677
34.751
34.837
34.934
35.04
35.155
35.275
35.4
35.528
35.655
35.78
35.901
36.015
36.12
36.216
36.301
36.375
36.438
36.49
36.532
36.562
36.583
36.594
36.597
36.591
36.58
36.563
36.541
36.515
36.486
36.455
36.422
36.389
36.355
36.32
36.286
36.252
36.217
36.181
36.145
36.108
36.07
36.031
35.992
35.952
35.912
35.873
35.836
35.801
35.769
35.741
35.716
35.694
35.676
35.662
35.651
35.645
35.643
35.644
35.647
35.652
35.658
35.664
35.669
35.672
35.675
35.678
35.681
35.686
35.692
35.7
35.71
35.721
35.733
35.746
35.759
35.774
35.79
35.805
35.819
35.832
35.843
35.849
35.851
35.848
35.84
35.828
35.811
35.79
35.764
35.735
35.701
35.665
35.626
35.586
35.545
35.505
35.466
35.43
35.396
35.366
35.339
35.316
35.295
35.276
35.26
35.245
35.231
35.217
35.202
35.185
35.166
35.144
35.118
35.088
35.054
35.018
34.978
34.938
34.899
34.862
34.828
34.797
34.77
34.748
34.73
34.716
34.706
34.701
34.699
34.7
34.702
34.704
34.705
34.704
34.7
34.694
34.685
34.676
34.665
34.656
34.647
34.64
34.635
34.636
34.643
34.659
34.686
34.726
34.78
34.848
34.932
35.031
35.142
35.266
35.4
35.542
35.688
35.835
35.98
36.121
36.254
36.377
36.489
36.586
36.67
36.739
36.792
36.832
36.858
36.872
36.877
36.872
36.859
36.84
36.816
36.788
36.757
36.724
36.69
36.657
36.624
36.591
36.559
36.525
36.489
36.453
36.415
36.378
36.34
36.302
36.263
36.224
36.183
36.141
36.098
36.055
36.012
35.971
35.933
35.899
35.869
35.843
35.821
35.804
35.79
35.781
35.777
35.777
35.78
35.786
35.795
35.805
35.816
35.825
35.833
35.841
35.846
35.851
35.855
35.858
35.86
35.863
35.866
35.87
35.874
35.88
35.887
35.894
35.901
35.908
35.915
35.921
35.926
35.927
35.925
35.917
35.904
35.885
35.861
35.832
35.799
35.761
35.72
35.675
35.628
35.579
35.53
35.482
35.436
35.393
35.355
35.321
35.291
35.265
35.241
35.218
35.198
35.179
35.16
35.141
35.122
35.103
35.082
35.059
35.034
35.006
34.976
34.944
34.909
34.872
34.832
34.792
34.753
34.718
34.688
34.662
34.642
34.627
34.618
34.615
34.616
34.622
34.63
34.64
34.65
34.658
34.664
34.665
34.66
34.649
34.633
34.611
34.585
34.558
34.529
34.502
34.478
34.46
34.449
34.447
34.456
34.477
34.511
34.561
34.626
34.708
34.804
34.913
35.034
35.163
35.298
35.438
35.58
35.721
35.861
35.996
36.124
36.242
36.35
36.445
36.528
36.6
36.66
36.71
36.749
36.779
36.798
36.809
36.812
36.808
36.798
36.784
36.766
36.744
36.719
36.692
36.663
36.632
36.599
36.564
36.526
36.487
36.445
36.401
36.356
36.309
36.261
36.213
36.166
36.12
36.077
36.037
36.002
35.971
35.947
35.927
35.913
35.903
35.897
35.893
35.891
35.892
35.894
35.896
35.9
35.902
35.905
35.906
35.905
35.902
35.898
35.894
35.891
35.889
35.889
35.891
35.895
35.901
35.909
35.919
35.93
35.944
35.959
35.974
35.988
35.999
36.007
36.01
36.008
36.0
35.987
35.967
35.941
35.911
35.875
35.834
35.79
35.743
35.694
35.644
35.595
35.546
35.498
35.453
35.41
35.37
35.333
35.299
35.269
35.241
35.214
35.189
35.164
35.139
35.115
35.09
35.065
35.039
35.012
34.983
34.952
34.919
34.884
34.849
34.814
34.781
34.75
34.723
34.7
34.679
34.662
34.647
34.634
34.623
34.613
34.604
34.595
34.586
34.577
34.566
34.553
34.538
34.52
34.499
34.477
34.453
34.429
34.406
34.385
34.367
34.353
34.343
34.338
34.339
34.347
34.363
34.389
34.425
34.471
34.529
34.597
34.675
34.761
34.855
34.957
35.065
35.178
35.297
35.418
35.541
35.664
35.785
35.903
36.015
36.121
36.22
36.31
36.392
36.463
36.524
36.574
36.611
36.637
36.651
36.655
36.648
36.633
36.61
36.581
36.545
36.506
36.462
36.415
36.366
36.314
36.262
36.211
36.162
36.115
36.072
36.032
35.996
35.963
35.932
35.905
35.881
35.858
35.837
35.817
35.798
35.778
35.757
35.737
35.719
35.707
35.703
35.704
35.707
35.71
35.71
35.705
35.695
35.682
35.665
35.648
35.63
35.615
35.601
35.591
35.583
35.579
35.579
35.583
35.59
35.6
35.612
35.625
35.639
35.652
35.664
35.672
35.676
35.676
35.67
35.66
35.644
35.624
35.601
35.575
35.547
35.518
35.487
35.456
35.425
35.394
35.365
35.336
35.308
35.282
35.257
35.232
35.208
35.183
35.157
35.129
35.099
35.067
35.034
35.001
34.967
34.933
34.9
34.868
34.837
34.807
34.779
34.753
34.73
34.709
34.693
34.68
34.67
34.661
34.653
34.644
34.634
34.622
34.608
34.593
34.575
34.555
34.534
34.511
34.487
34.46
34.433
34.405
34.378
34.352
34.33
34.311
34.297
34.288
34.283
34.284
34.291
34.306
34.327
34.356
34.394
34.439
34.494
34.558
34.63
34.711
34.8
34.896
34.999
35.108
35.222
35.339
35.459
35.58
35.701
35.819
35.935
36.045
36.148
36.244
36.332
36.41
36.479
36.537
36.583
36.617
36.639
36.649
36.645
36.63
36.604
36.569
36.528
36.481
36.432
36.379
36.326
36.273
36.222
36.172
36.125
36.081
36.041
36.004
35.971
35.941
35.913
35.887
35.862
35.838
35.815
35.791
35.766
35.739
35.711
35.68
35.648
35.614
35.579
35.544
35.51
35.478
35.449
35.425
35.406
35.393
35.386
35.386
35.392
35.404
35.421
35.444
35.469
35.497
35.526
35.554
35.58
35.603
35.623
35.639
35.65
35.657
35.659
35.656
35.649
35.637
35.622
35.603
35.581
35.556
35.53
35.503
35.476
35.45
35.424
35.4
35.376
35.354
35.333
35.311
35.289
35.266
35.243
35.219
35.194
35.169
35.141
35.112
35.08
35.047
35.011
34.975
34.938
34.903
34.869
34.837
34.809
34.783
34.76
34.74
34.723
34.709
34.698
34.69
34.683
34.677
34.671
34.663
34.652
34.639
34.622
34.603
34.581
34.557
34.531
34.504
34.477
34.451
34.427
34.406
34.388
34.376
34.37
34.372
34.384
34.405
34.438
34.482
34.538
34.605
34.683
34.771
34.867
34.97
35.079
35.189
35.294
35.393
35.483
35.567
35.645
35.721
35.795
35.869
35.942
36.016
36.089
36.162
36.232
36.298
36.36
36.416
36.464
36.504
36.533
36.552
36.56
36.557
36.544
36.522
36.489
36.448
36.399
36.343
36.283
36.221
36.157
36.095
36.036
35.979
35.927
35.878
35.834
35.794
35.759
35.729
35.703
35.683
35.665
35.65
35.636
35.623
35.61
35.596
35.581
35.565
35.55
35.535
35.52
35.508
35.497
35.489
35.484
35.484
35.487
35.494
35.505
35.521
35.541
35.564
35.591
35.621
35.653
35.683
35.711
35.736
35.756
35.77
35.777
35.776
35.766
35.749
35.724
35.691
35.652
35.607
35.559
35.51
35.462
35.417
35.376
35.339
35.308
35.28
35.257
35.237
35.22
35.206
35.194
35.184
35.174
35.162
35.147
35.129
35.107
35.079
35.047
35.01
34.97
34.928
34.884
34.841
34.798
34.757
34.719
34.684
34.652
34.624
34.599
34.578
34.561
34.547
34.536
34.527
34.519
34.511
34.502
34.492
34.481
34.469
34.455
34.44
34.427
34.415
34.406
34.402
34.405
34.417
34.44
34.474
34.522
34.584
34.661
34.753
34.859
34.979
35.11
35.25
35.396
35.543
35.691
35.836
35.975
36.106
36.226
36.333
36.425
36.501
36.561
36.605
36.635
36.651
36.655
36.65
36.636
36.615
36.588
36.557
36.524
36.49
36.456
36.425
36.396
36.369
36.344
36.32
36.296
36.272
36.248
36.223
36.197
36.168
36.138
36.106
36.072
36.035
35.996
35.955
35.915
35.874
35.835
35.797
35.763
35.733
35.707
35.685
35.667
35.653
35.643
35.636
35.63
35.628
35.627
35.627
35.629
35.631
35.633
35.634
35.636
35.637
35.638
35.638
35.639
35.639
35.64
35.641
35.642
35.643
35.645
35.646
35.647
35.648
35.648
35.648
35.645
35.64
35.632
35.621
35.605
35.586
35.561
35.533
35.5
35.465
35.427
35.387
35.346
35.306
35.267
35.228
35.192
35.157
35.125
35.095
35.068
35.044
35.022
35.002
34.984
34.967
34.952
34.937
34.921
34.905
34.887
34.867
34.845
34.822
34.797
34.77
34.741
34.711
34.681
34.65
34.619
34.589
34.561
34.537
34.517
34.5
34.488
34.478
34.471
34.466
34.462
34.459
34.457
34.458
34.463
34.473
34.491
34.515
34.549
34.59
34.642
34.704
34.778
34.865
34.964
35.075
35.196
35.329
35.469
35.615
35.765
35.914
36.061
36.203
36.335
36.456
36.565
36.658
36.737
36.799
36.845
36.874
36.889
36.89
36.88
36.859
36.832
36.798
36.761
36.723
36.683
36.643
36.605
36.569
36.537
36.509
36.484
36.464
36.446
36.431
36.415
36.4
36.385
36.368
36.349
36.327
36.302
36.272
36.238
36.201
36.16
36.118
36.074
36.031
35.99
35.951
35.916
35.885
35.859
35.837
35.819
35.805
35.795
35.789
35.785
35.784
35.785
35.786
35.786
35.786
35.783
35.778
35.769
35.758
35.745
35.729
35.712
35.694
35.677
35.66
35.646
35.633
35.621
35.611
35.602
35.593
35.584
35.574
35.562
35.548
35.531
35.511
35.487
35.46
35.429
35.393
35.355
35.313
35.27
35.224
35.177
35.128
35.078
35.028
34.979
34.932
34.888
34.849
34.814
34.785
34.76
34.738
34.719
34.702
34.688
34.673
34.66
34.646
34.631
34.614
34.595
34.573
34.549
34.522
34.493
34.463
34.432
34.401
34.37
34.341
34.314
34.29
34.27
34.252
34.238
