Trial 3:3back
35.501
35.458
35.417
35.378
35.34
35.305
35.271
35.239
35.209
35.181
35.153
35.125
35.097
35.068
35.038
35.008
34.977
34.947
34.917
34.886
34.857
34.827
34.798
34.77
34.742
34.714
34.688
34.661
34.636
34.611
34.587
34.564
34.543
34.523
34.504
34.487
34.472
34.458
34.444
34.432
34.421
34.411
34.401
34.392
34.382
34.371
34.36
34.346
34.332
34.316
34.299
34.281
34.263
34.243
34.224
34.205
34.187
34.169
34.151
34.135
34.119
34.104
34.089
34.073
34.058
34.042
34.026
34.01
33.993
33.975
33.957
33.939
33.919
33.898
33.876
33.853
33.828
33.802
33.775
33.747
33.718
33.688
33.657
33.626
33.595
33.564
33.534
33.504
33.476
33.449
33.424
33.401
33.38
33.363
33.35
33.341
33.338
33.34
33.35
33.368
33.395
33.433
33.481
33.543
33.617
33.704
33.805
33.918
34.045
34.183
34.333
34.491
34.656
34.827
35.001
35.177
35.353
35.527
35.698
35.865
36.025
36.179
36.323
36.457
36.58
36.689
36.786
36.868
36.937
36.993
37.036
37.067
37.089
37.101
37.106
37.105
37.098
37.088
37.076
37.062
37.048
37.036
37.025
37.015
37.008
37.004
37.001
37.0
37.001
37.002
37.003
37.004
37.004
37.002
36.998
36.992
36.982
36.969
36.952
36.93
36.904
36.872
36.836
36.795
36.748
36.698
36.643
36.584
36.523
36.46
36.395
36.331
36.267
36.205
36.146
36.091
36.04
35.994
35.954
35.921
35.896
35.878
35.866
35.861
35.86
35.863
35.87
35.878
35.888
35.9
35.911
35.923
35.934
35.946
35.956
35.966
35.974
35.979
35.981
35.979
35.973
35.961
35.944
35.922
35.895
35.865
35.832
35.796
35.759
35.72
35.68
35.639
35.598
35.556
35.515
35.475
35.436
35.399
35.364
35.33
35.297
35.266
35.235
35.204
35.174
35.144
35.114
35.085
35.056
35.028
35.001
34.974
34.948
34.922
34.897
34.871
34.844
34.817
34.788
34.759
34.729
34.698
34.666
34.632
34.598
34.564
34.53
34.497
34.465
34.434
34.406
34.38
34.355
34.333
34.311
34.291
34.271
34.252
34.233
34.215
34.198
34.182
34.167
34.153
34.14
34.128
34.116
34.104
34.092
34.08
34.068
34.055
34.041
34.025
34.008
33.99
33.97
33.949
33.927
33.905
33.881
33.858
33.833
33.808
33.783
33.756
33.73
33.703
33.676
33.649
33.624
33.599
33.575
33.553
33.531
33.51
33.489
33.468
33.447
33.427
33.408
33.389
33.371
33.354
33.336
33.318
33.3
33.28
33.26
33.24
33.22
33.199
33.179
33.158
33.136
33.114
33.09
33.065
33.04
33.015
32.99
32.965
32.941
32.917
32.895
32.874
32.853
32.834
32.816
32.799
32.785
32.772
32.761
32.754
32.75
32.751
32.758
32.772
32.795
32.827
32.868
32.92
32.982
33.054
33.136
33.228
33.33
33.44
33.559
33.684
33.816
33.952
34.09
34.229
34.366
34.501
34.632
34.756
34.873
34.982
35.082
35.172
35.251
35.321
35.381
35.431
35.472
35.505
35.53
35.549
35.561
35.568
35.571
35.57
35.565
35.558
35.549
35.539
35.528
35.517
35.507
35.496
35.487
35.477
35.469
35.46
35.452
35.444
35.435
35.425
35.414
35.401
35.386
35.368
35.348
35.326
35.3
35.271
35.239
35.203
35.164
35.122
35.079
35.033
34.987
34.942
34.896
34.852
34.81
34.769
34.731
34.694
34.662
34.633
34.609
34.591
34.578
34.571
34.57
34.575
34.585
34.599
34.616
34.636
34.657
34.679
34.702
34.725
34.747
34.768
34.787
34.804
34.819
34.831
34.84
34.846
34.849
34.849
34.845
34.839
34.829
34.815
34.798
34.777
34.753
34.726
34.696
34.665
34.632
34.598
34.563
34.526
34.489
34.45
34.41
34.371
34.331
34.291
34.251
34.212
34.175
34.139
34.105
34.073
34.044
34.017
33.992
33.969
33.947
33.927
33.907
33.888
33.869
33.849
33.827
33.804
33.78
33.753
33.725
33.695
33.664
33.633
33.601
33.57
33.539
33.509
33.479
33.451
33.424
33.398
33.376
33.356
33.339
33.325
33.313
33.304
33.297
33.291
33.287
33.284
33.282
33.28
33.279
33.278
33.277
33.276
33.274
33.272
33.269
33.265
33.261
33.256
33.25
33.244
33.236
33.228
33.218
33.206
33.192
33.177
33.161
33.144
33.126
33.108
33.089
33.071
33.053
33.036
33.019
33.003
32.987
32.971
32.956
32.94
32.923
32.906
32.886
32.866
32.844
32.822
32.798
32.774
32.75
32.726
32.701
32.677
32.653
32.629
32.606
32.584
32.564
32.547
32.533
32.523
32.518
32.518
32.524
32.537
32.557
32.585
32.621
32.667
32.723
32.789
32.865
32.951
33.048
33.154
33.269
33.391
33.518
33.649
33.781
33.913
34.043
34.169
34.29
34.405
34.512
34.612
34.702
34.782
34.852
34.913
34.964
35.007
35.041
35.068
35.089
35.104
35.115
35.122
35.125
35.124
35.121
35.116
35.108
35.098
35.088
35.077
35.068
35.06
35.055
35.052
35.051
35.053
35.057
35.062
35.067
35.071
35.073
35.074
35.071
35.064
35.053
35.037
35.016
34.991
34.961
34.928
34.891
34.852
34.811
34.767
34.723
34.677
34.631
34.586
34.541
34.498
34.458
34.42
34.385
34.355
34.328
34.305
34.286
34.271
34.26
34.253
34.25
34.25
34.254
34.261
34.27
34.281
34.293
34.306
34.32
34.333
34.345
34.357
34.368
34.378
34.388
34.397
34.406
34.413
34.419
34.422
34.423
34.42
34.414
34.404
34.391
34.375
34.356
34.336
34.314
34.292
34.268
34.245
34.221
34.197
34.174
34.15
34.127
34.104
34.081
34.059
34.037
34.016
33.996
33.978
33.961
33.945
33.93
33.915
33.899
33.883
33.866
33.847
33.827
33.805
33.782
33.759
33.736
33.712
33.689
33.667
33.646
33.626
33.607
33.589
33.572
33.556
33.54
33.525
33.511
33.498
33.484
33.471
33.458
33.445
33.432
33.419
33.407
33.396
33.386
33.376
33.366
33.357
33.347
33.337
33.327
33.317
33.306
33.294
33.283
33.272
33.261
33.251
33.243
33.236
33.231
33.228
33.226
33.226
33.225
33.225
33.224
33.222
33.219
33.214
33.209
33.203
33.196
33.19
33.183
33.176
33.168
33.16
33.15
33.141
33.131
33.121
33.11
33.099
33.088
33.077
33.066
33.054
33.042
33.031
33.018
33.006
32.993
32.978
32.963
32.947
32.93
32.912
32.893
32.873
32.853
32.833
32.814
32.794
32.776
32.757
32.74
32.723
32.708
32.694
32.683
32.674
32.669
32.669
32.674
32.685
32.703
32.73
32.766
32.813
32.871
32.94
33.02
33.112
33.214
33.325
33.444
33.569
33.701
33.836
33.974
34.114
34.254
34.391
34.525
34.653
34.773
34.885
34.987
35.077
35.156
35.223
35.278
35.323
35.358
35.384
35.404
35.417
35.425
35.429
35.43
35.429
35.427
35.425
35.423
35.421
35.419
35.419
35.419
35.42
35.421
35.422
35.423
35.425
35.426
35.427
35.426
35.425
35.423
35.42
35.414
35.407
35.398
35.386
35.373
35.357
35.338
35.317
35.293
35.265
35.235
35.201
35.165
35.127
35.089
35.051
35.014
34.979
34.946
34.916
34.889
34.865
34.844
34.826
34.812
34.801
34.795
34.792
34.795
34.801
34.813
34.828
34.847
34.868
34.893
34.919
34.946
34.972
34.998
35.021
35.042
35.059
35.072
35.081
35.087
35.088
35.086
35.08
35.071
35.058
35.041
35.021
34.997
34.97
34.94
34.908
34.875
34.841
34.807
34.775
34.743
34.714
34.686
34.661
34.638
34.618
34.6
34.585
34.572
34.56
34.549
34.54
34.531
34.522
34.512
34.503
34.493
34.483
34.472
34.46
34.448
34.434
34.418
34.401
34.381
34.361
34.338
34.315
34.29
34.265
34.24
34.216
34.194
34.173
34.153
34.136
34.121
34.109
34.098
34.09
34.083
34.077
34.073
34.07
34.067
34.065
34.063
34.062
34.06
34.059
34.058
34.056
34.055
34.052
34.047
34.04
34.031
34.02
34.007
33.993
33.979
33.965
33.952
33.94
33.929
33.918
33.908
33.898
33.888
33.877
33.866
33.854
33.842
33.828
33.814
33.8
33.785
33.771
33.758
33.746
33.735
33.725
33.715
33.706
33.697
33.688
33.679
33.67
33.661
33.653
33.645
33.637
33.63
33.624
33.618
33.612
33.607
33.602
33.598
33.594
33.59
33.587
33.584
33.582
33.578
33.575
33.57
33.565
33.558
33.551
33.543
33.535
33.527
33.519
33.511
33.503
33.494
33.484
33.472
33.459
33.443
33.426
33.408
33.388
33.368
33.347
33.326
33.305
33.284
33.263
33.243
33.223
33.203
33.184
33.166
33.149
33.134
33.122
33.114
33.109
33.109
33.113
33.123
33.14
33.163
33.194
33.234
33.283
33.342
33.413
33.495
33.588
33.693
33.809
33.934
34.068
34.21
34.356
34.506
34.658
34.808
34.956
35.099
35.237
35.366
35.488
35.601
35.705
35.798
35.882
35.955
36.019
36.073
36.118
36.154
36.182
36.202
36.216
36.223
36.225
36.223
36.218
36.21
36.202
36.193
36.184
36.175
36.167
36.16
36.153
36.147
36.142
36.138
36.136
36.136
36.137
36.139
36.142
36.144
36.146
36.146
36.145
36.141
36.134
36.123
36.108
36.09
36.068
36.043
36.015
35.985
35.953
35.919
35.885
35.85
35.814
35.778
35.742
35.707
35.673
35.642
35.613
35.588
35.566
35.549
35.536
35.528
35.525
35.527
35.534
35.545
35.561
35.58
35.602
35.627
35.652
35.678
35.704
35.729
35.752
35.773
35.791
35.805
35.815
35.822
35.824
35.821
35.815
35.804
35.79
35.773
35.753
35.731
35.708
35.684
35.659
35.632
35.606
35.578
35.549
35.52
35.49
35.461
35.433
35.405
35.378
35.353
35.328
35.305
35.282
35.259
35.236
35.214
35.19
35.167
35.143
35.119
35.095
35.071
35.048
35.024
35.0
34.977
34.954
34.931
34.909
34.889
34.869
34.851
34.833
34.817
34.8
34.784
34.767
34.75
34.733
34.716
34.7
34.685
34.671
34.659
34.648
34.638
34.629
34.621
34.612
34.604
34.596
34.588
34.579
34.57
34.561
34.551
34.541
34.53
34.519
34.507
34.495
34.482
34.469
34.456
34.443
34.431
34.419
34.408
34.396
34.385
34.373
34.362
34.35
34.338
34.327
34.314
34.302
34.289
34.277
34.264
34.251
34.238
34.225
34.211
34.197
34.181
34.164
34.146
34.128
34.109
34.091
34.074
34.058
34.042
34.027
34.012
33.996
33.98
33.963
33.944
33.924
33.902
33.878
33.853
33.827
33.801
33.775
33.747
33.719
33.691
33.662
33.634
33.607
33.581
33.557
33.536
33.517
33.501
33.488
33.479
33.475
33.476
33.483
33.498
33.52
33.55
33.59
33.639
33.698
33.767
33.847
33.937
34.037
34.146
34.263
34.388
34.518
34.653
34.79
34.929
35.066
35.202
35.334
35.462
35.584
35.699
35.805
35.903
35.992
36.07
36.138
36.196
36.244
36.282
36.313
36.336
36.352
36.362
36.368
36.369
36.368
36.364
36.357
36.349
36.339
36.328
36.318
36.307
36.296
36.285
36.275
36.264
36.253
36.24
36.227
36.212
36.196
36.177
36.157
36.136
36.112
36.087
36.059
36.028
35.995
35.959
35.92
35.878
35.834
35.789
35.744
35.698
35.654
35.612
35.572
35.534
35.499
35.467
35.438
35.412
35.39
35.371
35.355
35.342
35.333
35.328
35.327
35.329
35.336
35.347
35.361
35.38
35.401
35.425
35.449
35.475
35.5
35.523
35.545
35.563
35.579
35.592
35.601
35.607
35.61
35.61
35.609
35.605
35.599
35.59
35.579
35.564
35.548
35.529
35.51
35.489
35.468
35.446
35.423
35.4
35.376
35.351
35.326
35.3
35.274
35.248
35.223
35.197
35.171
35.146
35.12
35.094
35.066
35.038
35.009
34.98
34.95
34.919
34.889
34.859
34.829
34.8
34.772
34.745
34.72
34.697
34.676
34.655
34.636
34.618
34.6
34.582
34.563
34.544
34.525
34.506
34.488
34.47
34.453
34.437
34.422
34.409
34.397
34.386
34.375
34.364
34.354
34.344
34.334
34.324
34.315
34.307
34.298
34.29
34.282
34.273
34.263
34.253
34.243
34.233
34.222
34.21
34.199
34.188
34.178
34.168
34.16
34.153
34.148
34.144
34.141
34.139
34.138
34.135
34.131
34.126
34.119
34.109
34.098
34.084
34.069
34.052
34.033
34.013
33.992
33.97
33.947
33.923
33.898
33.874
33.85
33.827
33.804
33.782
33.761
33.74
33.72
33.702
33.685
33.672
33.661
33.653
33.65
33.651
33.657
33.667
33.684
33.707
33.737
33.775
33.822
33.879
33.946
34.024
34.112
34.211
34.32
34.439
34.568
34.705
34.849
34.998
35.15
35.303
35.453
35.6
35.74
35.873
35.996
36.109
36.211
36.301
36.381
36.45
36.509
36.559
36.6
36.633
36.659
36.678
36.691
36.699
36.703
36.704
36.703
36.701
36.697
36.692
36.685
36.677
36.669
36.66
36.651
36.642
36.633
36.626
36.619
36.613
36.608
36.603
36.596
36.589
36.58
36.568
36.553
36.536
36.515
36.491
36.464
36.434
36.401
36.364
36.325
36.283
36.24
36.197
36.154
36.113
36.074
36.038
36.006
35.978
35.954
35.934
35.918
35.905
35.897
35.892
35.89
35.89
35.894
35.9
35.908
35.919
35.932
35.947
35.963
35.98
35.996
36.011
36.024
36.036
36.045
36.052
36.057
36.058
36.058
36.054
36.048
36.04
36.029
36.016
36.001
35.984
35.967
35.947
35.927
35.905
35.882
35.858
35.834
35.809
35.783
35.757
35.731
35.705
35.679
35.653
35.627
35.601
35.575
35.548
35.52
35.491
35.462
35.431
35.401
35.37
35.34
35.309
35.278
35.246
35.214
35.182
35.15
35.118
35.087
35.057
35.031
35.006
34.985
34.965
34.949
34.934
34.921
34.909
34.897
34.886
34.875
34.864
34.853
34.841
34.828
34.816
34.803
34.791
34.779
34.769
34.76
34.752
34.745
34.74
34.734
34.729
34.724
34.72
34.715
34.71
34.705
34.7
34.694
34.688
34.682
34.673
34.663
34.651
34.637
34.622
34.604
34.586
34.566
34.545
34.523
34.499
34.474
34.448
34.422
34.396
34.372
34.35
34.33
34.313
34.298
34.286
34.276
34.268
34.261
34.255
34.249
34.243
34.237
34.23
34.221
34.211
34.201
34.189
34.175
34.16
34.143
34.124
34.104
34.084
34.063
34.041
34.019
33.997
33.974
33.95
33.926
33.902
33.878
33.854
33.831
33.808
33.786
33.765
33.744
33.725
33.708
33.693
33.683
33.677
33.678
33.687
33.706
33.735
33.776
33.83
33.897
33.978
34.073
34.182
34.304
34.438
34.583
34.736
34.896
35.062
35.229
35.397
35.564
35.726
35.882
36.03
36.17
36.3
36.42
36.528
36.623
36.705
36.774
36.831
36.877
36.912
36.939
36.959
36.973
36.982
36.986
36.987
36.985
36.98
36.973
36.964
36.954
36.944
36.933
36.922
36.912
36.902
36.894
36.887
36.881
36.875
36.87
36.864
36.858
36.85
36.841
36.83
36.817
36.803
36.788
36.771
36.752
36.731
36.706
36.679
36.648
36.613
36.576
36.537
36.495
36.454
36.413
36.373
36.335
36.3
36.268
36.24
36.216
36.195
36.178
36.164
36.154
36.147
36.142
36.14
36.139
36.139
36.141
36.144
36.149
36.154
36.161
36.169
36.177
36.185
36.194
36.201
36.206
36.209
36.209
36.206
36.199
36.188
36.174
36.156
36.135
36.112
36.086
36.059
36.03
36.001
35.972
35.943
35.913
35.884
35.856
35.828
35.802
35.776
35.751
35.726
35.702
35.679
35.655
35.631
35.607
35.582
35.556
35.53
35.504
35.477
35.449
35.421
35.392
35.363
35.333
35.304
35.274
35.245
35.216
35.187
35.158
35.13
35.101
35.073
35.046
35.018
34.991
34.965
34.94
34.916
34.894
34.872
34.853
34.835
34.818
34.802
34.787
34.773
34.759
34.748
34.737
34.727
34.719
34.711
34.704
34.698
34.692
34.687
34.682
34.677
34.671
34.664
34.655
34.644
34.632
34.617
34.6
34.582
34.561
34.539
34.516
34.493
34.469
34.445
34.421
34.397
34.374
34.352
34.331
34.312
34.293
34.277
34.263
34.251
34.24
34.231
34.222
34.214
34.205
34.196
34.186
34.175
34.164
34.152
34.139
34.127
34.116
34.104
34.093
34.083
34.072
34.062
34.053
34.044
34.035
34.026
34.016
34.005
33.992
33.978
33.962
33.944
33.924
33.902
33.88
33.856
33.832
33.808
33.784
33.761
33.737
33.714
33.691
33.669
33.646
33.623
33.599
33.577
33.555
33.536
33.519
33.506
33.496
33.491
33.49
33.495
33.506
33.524
33.551
33.587
33.633
33.692
33.762
33.846
33.944
34.054
34.177
34.31
34.452
34.601
34.755
34.911
35.068
35.222
35.373
35.518
35.656
35.785
35.904
36.012
36.109
36.193
36.265
36.325
36.372
36.408
36.434
36.449
36.455
36.454
36.446
36.433
36.416
36.395
36.373
36.35
36.327
36.305
36.284
36.266
36.25
36.236
36.224
36.214
36.206
36.198
36.19
36.183
36.175
36.166
36.157
36.145
36.133
36.118
36.101
36.081
36.058
36.034
36.007
35.977
35.946
35.913
35.878
35.843
35.806
35.768
35.73
35.691
35.652
35.614
35.576
35.541
35.509
35.48
35.454
35.433
35.416
35.403
35.396
35.393
35.395
35.401
35.411
35.424
35.44
35.457
35.476
35.495
35.514
35.533
35.552
35.57
35.587
35.603
35.616
35.627
35.635
35.639
35.64
35.636
35.627
35.613
35.595
35.573
35.547
35.519
35.488
35.457
35.425
35.393
35.361
35.33
35.3
35.272
35.245
35.22
35.197
35.174
35.152
35.13
35.107
35.084
35.061
35.038
35.015
34.992
34.969
34.947
34.924
34.901
34.877
34.852
34.825
34.797
34.767
34.735
34.702
34.668
34.634
34.6
34.566
34.533
34.502
34.472
34.443
34.416
34.391
34.369
34.348
34.328
34.31
34.293
34.277
34.261
34.245
34.231
34.217
34.204
34.192
34.182
34.174
34.166
34.159
34.153
34.147
34.142
34.135
34.128
34.12
34.112
34.104
34.095
34.086
34.076
34.065
34.053
34.039
34.024
34.007
33.989
33.97
33.949
33.929
33.908
33.888
33.869
33.851
33.835
33.821
33.809
33.799
33.79
33.783
33.775
33.768
33.761
33.753
33.744
33.734
33.723
33.711
33.699
33.686
33.672
33.658
33.643
33.627
33.61
33.592
33.572
33.551
33.528
33.503
33.477
33.449
33.42
33.392
33.363
33.335
33.308
33.283
33.26
33.238
33.218
33.2
33.184
33.17
33.16
33.153
33.15
33.152
33.16
33.173
33.192
33.219
33.252
33.293
33.343
33.402
33.47
33.548
33.636
33.734
33.842
33.958
34.081
34.21
34.344
34.479
34.616
34.751
34.884
35.012
35.132
35.245
35.348
35.441
35.523
35.595
35.656
35.706
35.747
35.778
35.801
35.817
35.825
35.827
35.824
35.815
35.803
35.787
35.77
35.751
35.732
35.713
35.694
35.677
35.661
35.646
35.632
35.619
35.607
35.595
35.584
35.572
35.559
35.545
35.53
35.512
35.492
35.469
35.443
35.415
35.383
35.35
35.314
35.276
35.238
35.199
35.16
35.121
35.082
35.043
35.004
34.965
34.928
34.893
34.86
34.829
34.802
34.779
34.759
34.745
34.735
34.732
34.734
34.742
34.755
34.774
34.796
34.821
34.848
34.877
34.905
34.934
34.961
34.988
35.013
35.037
35.059
35.078
35.093
35.103
35.109
35.111
35.107
35.098
35.085
35.067
35.047
35.024
34.999
34.973
34.946
34.918
34.891
34.864
34.838
34.813
34.789
34.767
34.746
34.725
34.705
34.685
34.665
34.644
34.623
34.602
34.58
34.558
34.535
34.513
34.49
34.468
34.447
34.426
34.406
34.387
34.369
34.353
34.337
34.322
34.307
34.291
34.275
34.259
34.243
34.227
34.213
34.2
34.188
34.178
34.168
34.159
34.152
34.145
34.139
34.133
34.129
34.125
34.122
34.119
34.117
34.116
34.116
34.116
34.117
34.118
34.118
34.118
34.117
34.114
34.111
34.106
34.101
34.095
34.09
34.086
34.082
34.078
34.075
34.072
34.07
34.068
34.066
34.064
34.062
34.06
34.057
34.053
34.049
34.043
34.036
34.027
34.016
34.003
33.987
33.971
33.953
33.933
33.913
33.892
33.871
33.851
33.831
33.812
33.794
33.777
33.76
33.745
33.73
33.715
33.7
33.686
33.671
33.657
33.644
33.631
33.619
33.61
33.604
33.601
33.603
33.61
33.623
33.642
33.667
33.7
33.742
33.793
33.854
33.926
34.009
34.103
34.207
34.321
34.443
34.573
34.707
34.846
34.986
35.127
35.265
35.398
35.525
35.643
35.751
35.849
35.935
36.01
36.074
36.127
36.171
36.205
36.231
36.25
36.261
36.267
36.266
36.261
36.25
36.235
36.218
36.197
36.175
36.153
36.132
36.111
36.093
36.078
36.064
36.053
36.045
36.038
36.032
36.027
36.022
36.016
36.009
35.999
35.987
35.972
35.955
35.936
35.915
35.893
35.868
35.842
35.813
35.783
35.749
35.713
35.674
35.634
35.593
35.551
35.51
35.471
35.434
35.4
35.369
35.344
35.324
35.31
35.302
35.302
35.307
35.318
35.334
35.355
35.38
35.407
35.436
35.466
35.497
35.527
35.557
35.584
35.609
35.63
35.648
35.663
35.674
35.681
35.685
35.686
35.683
35.678
35.669
35.659
35.646
35.63
35.612
35.592
