Trial 3:3back
36.865
36.876
36.89
36.904
36.918
36.932
36.946
36.957
36.966
36.973
36.976
36.977
36.974
36.969
36.96
36.947
36.932
36.913
36.891
36.867
36.839
36.81
36.78
36.749
36.718
36.686
36.654
36.622
36.591
36.559
36.528
36.497
36.466
36.435
36.403
36.371
36.339
36.305
36.272
36.237
36.203
36.167
36.132
36.098
36.064
36.031
35.999
35.966
35.935
35.904
35.874
35.844
35.815
35.786
35.759
35.733
35.708
35.684
35.661
35.639
35.618
35.598
35.578
35.56
35.541
35.523
35.504
35.484
35.464
35.444
35.424
35.405
35.387
35.37
35.355
35.342
35.33
35.319
35.309
35.298
35.286
35.273
35.258
35.241
35.222
35.2
35.176
35.149
35.121
35.091
35.061
35.03
35.0
34.97
34.942
34.916
34.892
34.87
34.852
34.839
34.831
34.829
34.836
34.854
34.883
34.925
34.983
35.057
35.148
35.257
35.384
35.528
35.688
35.861
36.047
36.242
36.444
36.648
36.853
37.055
37.251
37.438
37.614
37.777
37.925
38.055
38.169
38.264
38.341
38.4
38.444
38.473
38.489
38.493
38.487
38.473
38.453
38.43
38.403
38.376
38.348
38.322
38.296
38.273
38.252
38.234
38.218
38.205
38.195
38.186
38.18
38.175
38.172
38.17
38.169
38.168
38.166
38.164
38.16
38.154
38.145
38.134
38.119
38.101
38.079
38.054
38.026
37.996
37.966
37.936
37.907
37.88
37.855
37.833
37.814
37.799
37.787
37.778
37.774
37.773
37.775
37.781
37.79
37.801
37.814
37.827
37.84
37.852
37.862
37.869
37.873
37.874
37.87
37.864
37.853
37.839
37.82
37.798
37.771
37.741
37.708
37.672
37.635
37.596
37.557
37.518
37.48
37.443
37.407
37.372
37.338
37.304
37.271
37.237
37.202
37.166
37.128
37.09
37.052
37.013
36.974
36.936
36.897
36.859
36.82
36.782
36.744
36.706
36.669
36.633
36.597
36.561
36.526
36.492
36.457
36.423
36.388
36.353
36.318
36.282
36.246
36.211
36.178
36.146
36.116
36.088
36.061
36.035
36.011
35.986
35.963
35.939
35.916
35.894
35.872
35.849
35.828
35.807
35.787
35.766
35.746
35.724
35.701
35.676
35.649
35.62
35.588
35.555
35.519
35.483
35.446
35.409
35.372
35.336
35.302
35.269
35.238
35.211
35.188
35.169
35.157
35.153
35.16
35.179
35.212
35.26
35.324
35.407
35.507
35.623
35.757
35.906
36.068
36.243
36.428
36.619
36.814
37.009
37.201
37.387
37.563
37.727
37.876
38.008
38.122
38.217
38.293
38.351
38.391
38.416
38.427
38.424
38.411
38.388
38.359
38.325
38.287
38.247
38.206
38.166
38.127
38.089
38.054
38.023
37.995
37.971
37.951
37.935
37.923
37.913
37.905
37.898
37.892
37.887
37.882
37.877
37.87
37.861
37.849
37.835
37.819
37.8
37.778
37.753
37.725
37.696
37.664
37.631
37.597
37.563
37.529
37.497
37.467
37.439
37.414
37.392
37.373
37.358
37.346
37.337
37.331
37.327
37.323
37.319
37.315
37.309
37.302
37.292
37.28
37.265
37.248
37.228
37.206
37.182
37.156
37.128
37.099
37.069
37.037
37.005
36.971
36.937
36.901
36.863
36.824
36.784
36.742
36.699
36.654
36.61
36.565
36.521
36.477
36.433
36.39
36.347
36.304
36.261
36.218
36.175
36.131
36.088
36.044
36.001
35.958
35.916
35.874
35.833
35.792
35.752
35.712
35.673
35.634
35.595
35.556
35.517
35.478
35.44
35.402
35.365
35.328
35.292
35.256
35.221
35.186
35.152
35.12
35.088
35.058
35.03
35.002
34.976
34.951
34.927
34.904
34.882
34.861
34.841
34.821
34.8
34.778
34.756
34.733
34.709
34.685
34.66
34.634
34.608
34.581
34.553
34.524
34.495
34.465
34.434
34.403
34.37
34.336
34.301
34.265
34.229
34.193
34.159
34.127
34.098
34.072
34.052
34.038
34.03
34.031
34.042
34.064
34.099
34.148
34.212
34.291
34.385
34.495
34.62
34.758
34.908
35.068
35.236
35.41
35.586
35.762
35.935
36.101
36.258
36.403
36.534
36.65
36.75
36.834
36.9
36.951
36.985
37.005
37.011
37.005
36.989
36.965
36.934
36.899
36.86
36.82
36.779
36.738
36.699
36.663
36.631
36.602
36.577
36.556
36.539
36.526
36.516
36.509
36.503
36.499
36.496
36.494
36.491
36.487
36.482
36.475
36.465
36.452
36.435
36.415
36.392
36.366
36.338
36.309
36.278
36.248
36.218
36.191
36.166
36.144
36.126
36.111
36.099
36.091
36.086
36.085
36.087
36.091
36.096
36.103
36.109
36.115
36.12
36.122
36.121
36.118
36.11
36.101
36.088
36.073
36.056
36.037
36.017
35.995
35.971
35.945
35.918
35.889
35.858
35.825
35.79
35.754
35.716
35.678
35.638
35.598
35.559
35.52
35.481
35.443
35.407
35.371
35.335
35.3
35.266
35.231
35.196
35.161
35.125
35.089
35.054
35.02
34.986
34.955
34.925
34.896
34.869
34.842
34.817
34.791
34.766
34.742
34.717
34.694
34.67
34.647
34.624
34.602
34.579
34.556
34.534
34.512
34.49
34.468
34.447
34.427
34.407
34.389
34.371
34.353
34.336
34.32
34.305
34.29
34.274
34.258
34.241
34.222
34.203
34.183
34.161
34.139
34.116
34.093
34.07
34.047
34.024
34.003
33.981
33.96
33.938
33.916
33.892
33.868
33.842
33.815
33.788
33.76
33.732
33.704
33.677
33.652
33.63
33.612
33.601
33.596
33.599
33.612
33.636
33.672
33.722
33.785
33.862
33.954
34.059
34.177
34.306
34.446
34.593
34.746
34.901
35.056
35.208
35.354
35.491
35.619
35.734
35.836
35.924
35.997
36.056
36.102
36.133
36.153
36.162
36.16
36.151
36.134
36.111
36.084
36.055
36.023
35.991
35.958
35.925
35.893
35.864
35.836
35.812
35.791
35.773
35.758
35.746
35.735
35.726
35.718
35.71
35.702
35.693
35.683
35.672
35.659
35.645
35.629
35.611
35.591
35.57
35.548
35.525
35.501
35.478
35.454
35.431
35.409
35.389
35.371
35.356
35.344
35.335
35.329
35.327
35.328
35.331
35.336
35.343
35.351
35.358
35.365
35.37
35.372
35.372
35.368
35.361
35.349
35.335
35.317
35.296
35.273
35.248
35.221
35.192
35.163
35.134
35.104
35.074
35.044
35.014
34.983
34.953
34.922
34.891
34.859
34.828
34.797
34.765
34.733
34.701
34.669
34.637
34.605
34.573
34.542
34.51
34.479
34.447
34.417
34.387
34.358
34.331
34.304
34.278
34.252
34.228
34.203
34.179
34.154
34.129
34.104
34.079
34.053
34.027
34.001
33.975
33.951
33.928
33.908
33.889
33.871
33.855
33.839
33.825
33.81
33.796
33.781
33.767
33.752
33.738
33.725
33.711
33.698
33.684
33.67
33.655
33.641
33.625
33.609
33.593
33.576
33.56
33.544
33.529
33.513
33.498
33.483
33.467
33.451
33.434
33.415
33.395
33.374
33.351
33.327
33.302
33.276
33.25
33.225
33.2
33.177
33.155
33.135
33.117
33.103
33.093
33.088
33.089
33.096
33.11
33.132
33.163
33.203
33.254
33.317
33.391
33.478
33.577
33.687
33.808
33.937
34.074
34.215
34.359
34.502
34.642
34.778
34.906
35.025
35.134
35.231
35.316
35.387
35.446
35.491
35.523
35.544
35.554
35.554
35.545
35.529
35.508
35.483
35.456
35.428
35.4
35.374
35.351
35.33
35.312
35.298
35.286
35.276
35.269
35.264
35.26
35.258
35.257
35.256
35.256
35.257
35.259
35.261
35.262
35.264
35.265
35.264
35.262
35.257
35.249
35.238
35.224
35.208
35.19
35.171
35.151
35.131
35.112
35.094
35.078
35.065
35.054
35.045
35.04
35.037
35.037
35.039
35.043
35.049
35.057
35.067
35.077
35.087
35.097
35.106
35.114
35.12
35.122
35.121
35.117
35.108
35.096
35.08
35.06
35.038
35.014
34.988
34.96
34.931
34.901
34.872
34.843
34.815
34.787
34.761
34.736
34.711
34.686
34.662
34.637
34.614
34.591
34.569
34.548
34.528
34.508
34.489
34.47
34.452
34.434
34.415
34.397
34.377
34.357
34.335
34.313
34.29
34.266
34.243
34.22
34.199
34.179
34.162
34.146
34.133
34.121
34.112
34.105
34.099
34.093
34.088
34.083
34.077
34.069
34.06
34.05
34.038
34.024
34.009
33.993
33.976
33.96
33.945
33.93
33.916
33.904
33.893
33.884
33.875
33.867
33.86
33.853
33.846
33.839
33.832
33.824
33.814
33.803
33.791
33.776
33.76
33.743
33.724
33.704
33.685
33.665
33.646
33.628
33.61
33.593
33.577
33.563
33.549
33.536
33.524
33.511
33.498
33.485
33.47
33.454
33.436
33.418
33.4
33.382
33.364
33.347
33.33
33.315
33.302
33.292
33.285
33.282
33.286
33.297
33.317
33.347
33.388
33.441
33.507
33.587
33.68
33.786
33.903
34.032
34.169
34.313
34.462
34.614
34.764
34.912
35.054
35.187
35.31
35.42
35.518
35.601
35.669
35.723
35.762
35.789
35.804
35.809
35.806
35.796
35.78
35.76
35.736
35.711
35.684
35.657
35.631
35.607
35.585
35.565
35.548
35.533
35.522
35.514
35.509
35.507
35.508
35.511
35.516
35.524
35.532
35.541
35.55
35.559
35.567
35.574
35.579
35.583
35.584
35.583
35.579
35.572
35.563
35.551
35.537
35.522
35.507
35.49
35.474
35.458
35.443
35.43
35.418
35.408
35.4
35.395
35.392
35.393
35.396
35.403
35.412
35.424
35.437
35.452
35.466
35.479
35.491
35.501
35.509
35.513
35.515
35.513
35.507
35.498
35.486
35.47
35.452
35.431
35.408
35.384
35.358
35.332
35.305
35.278
35.25
35.223
35.196
35.169
35.142
35.116
35.09
35.065
35.04
35.016
34.992
34.968
34.943
34.92
34.896
34.873
34.85
34.828
34.805
34.783
34.762
34.741
34.721
34.701
34.682
34.664
34.646
34.629
34.612
34.595
34.579
34.563
34.547
34.532
34.516
34.501
34.485
34.469
34.453
34.438
34.422
34.407
34.393
34.379
34.367
34.354
34.342
34.33
34.317
34.303
34.289
34.274
34.258
34.241
34.224
34.207
34.19
34.174
34.158
34.143
34.127
34.112
34.097
34.082
34.066
34.049
34.032
34.015
33.999
33.983
33.967
33.953
33.939
33.926
33.913
33.901
33.888
33.876
33.864
33.852
33.838
33.823
33.806
33.788
33.769
33.749
33.729
33.708
33.686
33.664
33.643
33.621
33.601
33.583
33.567
33.555
33.546
33.542
33.544
33.554
33.572
33.599
33.636
33.685
33.745
33.817
33.901
33.997
34.105
34.222
34.349
34.483
34.622
34.764
34.907
35.049
35.185
35.315
35.436
35.545
35.643
35.727
35.797
35.853
35.895
35.925
35.942
35.948
35.945
35.934
35.918
35.897
35.874
35.849
35.824
35.799
35.775
35.752
35.73
35.71
35.693
35.679
35.667
35.658
35.65
35.645
35.641
35.639
35.64
35.642
35.645
35.649
35.653
35.658
35.662
35.665
35.668
35.669
35.668
35.666
35.661
35.653
35.642
35.628
35.611
35.592
35.572
35.551
35.53
35.51
35.493
35.478
35.466
35.457
35.451
35.448
35.448
35.45
35.454
35.46
35.467
35.475
35.484
35.492
35.499
35.505
35.509
35.51
35.509
35.505
35.497
35.486
35.472
35.456
35.437
35.417
35.395
35.372
35.348
35.322
35.297
35.27
35.244
35.216
35.189
35.161
35.133
35.106
35.079
35.052
35.027
35.001
34.975
34.949
34.922
34.896
34.869
34.843
34.818
34.794
34.771
34.75
34.729
34.708
34.689
34.67
34.651
34.633
34.616
34.599
34.582
34.567
34.551
34.537
34.523
34.51
34.497
34.483
34.469
34.455
34.441
34.426
34.412
34.397
34.383
34.368
34.355
34.342
34.329
34.317
34.305
34.292
34.279
34.266
34.252
34.237
34.223
34.208
34.193
34.178
34.164
34.15
34.137
34.124
34.112
34.101
34.09
34.081
34.071
34.062
34.053
34.044
34.035
34.025
34.015
34.006
33.996
33.987
33.978
33.97
33.962
33.954
33.946
33.937
33.928
33.917
33.905
33.891
33.875
33.858
33.838
33.816
33.792
33.767
33.742
33.716
33.69
33.666
33.643
33.622
33.604
33.59
33.58
33.575
33.575
33.582
33.595
33.616
33.646
33.685
33.735
33.796
33.87
33.955
34.052
34.16
34.279
34.406
34.539
34.677
34.816
34.955
35.091
35.222
35.345
35.459
35.563
35.655
35.735
35.801
35.854
35.894
35.921
35.936
35.94
35.936
35.923
35.905
35.883
35.857
35.829
35.801
35.772
35.745
35.72
35.696
35.675
35.656
35.64
35.626
35.615
35.604
35.595
35.588
35.581
35.577
35.574
35.572
35.572
35.573
35.574
35.575
35.576
35.576
35.575
35.572
35.568
35.561
35.552
35.541
35.528
35.513
35.499
35.484
35.47
35.457
35.446
35.437
35.429
35.423
35.419
35.418
35.42
35.423
35.429
35.438
35.447
35.458
35.47
35.481
35.492
35.502
35.51
35.517
35.521
35.522
35.52
35.515
35.505
35.493
35.477
35.457
35.435
35.411
35.385
35.358
35.331
35.303
35.277
35.251
35.229
35.208
35.19
35.173
35.157
35.142
35.126
35.111
35.096
35.079
35.061
35.041
35.02
34.997
34.972
34.945
34.918
34.89
34.863
34.837
34.812
34.789
34.767
34.746
34.727
34.708
34.69
34.673
34.656
34.641
34.625
34.609
34.593
34.577
34.561
34.545
34.529
34.513
34.497
34.482
34.467
34.452
34.438
34.425
34.413
34.403
34.393
34.385
34.378
34.372
34.366
34.36
34.354
34.347
34.338
34.328
34.316
34.303
34.29
34.276
34.262
34.249
34.235
34.222
34.209
34.197
34.185
34.174
34.164
34.155
34.146
34.136
34.126
34.114
34.101
34.086
34.07
34.053
34.035
34.015
33.995
33.974
33.952
33.93
33.908
33.886
33.865
33.846
33.829
33.815
33.803
33.795
33.791
33.792
33.8
33.814
33.837
33.867
33.908
33.959
34.02
34.093
34.177
34.272
34.377
34.491
34.613
34.74
34.87
35.002
35.131
35.257
35.376
35.486
35.585
35.672
35.746
35.808
35.857
35.894
35.92
35.936
35.941
35.938
35.928
35.912
35.892
35.868
35.843
35.818
35.793
35.771
35.75
35.733
35.719
35.707
35.698
35.691
35.686
35.68
35.675
35.67
35.664
35.656
35.648
35.638
35.627
35.615
35.603
35.59
35.577
35.563
35.548
35.532
35.515
35.497
35.479
35.46
35.44
35.421
35.403
35.386
35.371
35.358
35.347
35.339
35.333
35.33
35.33
35.332
35.337
35.345
35.354
35.366
35.378
35.39
35.402
35.413
35.422
35.429
35.435
35.438
35.439
35.437
35.432
35.424
35.414
35.4
35.383
35.364
35.343
35.32
35.297
35.274
35.25
35.226
35.203
35.18
35.158
35.136
35.115
35.094
35.075
35.056
35.038
35.019
34.999
34.979
34.957
34.934
34.91
34.885
34.859
34.834
34.809
34.786
34.762
34.74
34.718
34.698
34.678
34.66
34.644
34.628
34.615
34.602
34.589
34.577
34.565
34.552
34.538
34.523
34.507
34.491
34.474
34.457
34.44
34.423
34.407
34.392
34.377
34.362
34.347
34.333
34.32
34.307
34.295
34.282
34.27
34.258
34.245
34.233
34.222
34.21
34.199
34.187
34.174
34.16
34.144
34.126
34.106
34.083
34.059
34.034
34.007
33.98
33.952
33.926
33.901
33.879
33.859
33.844
33.833
33.826
33.824
33.827
33.835
33.849
33.869
33.896
33.932
33.976
34.03
34.095
34.169
34.254
34.347
34.449
34.557
34.671
34.79
34.912
35.036
35.159
35.279
35.395
35.505
35.607
35.7
35.783
35.854
35.913
35.96
35.995
36.02
36.035
36.042
36.042
36.035
36.024
36.009
35.992
35.973
35.955
35.936
35.919
35.902
35.886
35.872
35.859
35.847
35.837
35.828
35.822
35.817
35.814
35.812
35.811
35.811
35.81
35.809
35.807
35.803
35.797
35.79
35.781
35.769
35.756
35.74
35.723
35.703
35.682
35.66
35.636
35.612
35.588
35.566
35.546
35.528
35.515
35.505
35.499
35.498
35.501
35.508
35.519
35.532
35.546
35.561
35.576
35.589
35.6
35.609
35.615
35.618
35.617
35.613
35.606
35.596
35.584
35.57
35.555
35.538
35.521
35.502
35.482
35.463
35.443
35.424
35.405
35.388
35.37
35.354
35.337
35.319
35.3
35.28
35.258
35.235
35.21
35.185
35.158
35.131
35.103
35.075
35.048
35.021
34.994
34.968
34.943
34.918
34.895
34.872
34.85
34.829
34.808
34.789
34.77
34.751
34.733
34.715
34.697
34.679
34.661
34.643
34.625
34.606
34.588
34.571
34.554
34.538
34.523
34.509
34.496
34.485
34.474
34.464
34.455
34.447
34.44
34.433
34.427
34.421
34.414
34.407
34.399
34.39
34.381
34.37
34.357
34.343
34.327
34.309
34.29
34.269
34.248
34.226
34.205
34.184
34.163
34.144
34.126
34.11
34.096
34.086
34.079
34.078
34.083
34.096
34.118
34.151
34.195
34.251
34.32
34.399
34.491
34.592
34.702
34.82
34.944
35.072
35.203
35.334
35.465
35.592
35.714
35.829
35.936
36.033
36.119
36.194
36.257
36.308
36.347
36.374
36.392
36.399
36.399
36.391
36.378
36.359
36.338
36.314
36.288
36.262
36.236
36.211
36.188
36.168
36.15
36.135
36.123
36.114
36.108
36.105
36.103
36.103
36.104
36.106
36.107
36.108
36.107
36.105
36.1
36.092
36.082
36.069
36.054
36.037
36.018
35.997
35.975
35.952
35.929
35.904
35.88
35.856
35.835
35.816
35.799
35.787
35.777
35.771
35.768
35.768
35.77
35.774
35.779
35.786
35.793
35.799
35.805
35.81
35.814
35.815
35.814
35.811
35.806
35.798
35.788
35.776
35.76
35.742
35.722
35.7
35.677
35.653
35.63
35.607
35.585
35.564
35.544
35.525
35.506
35.488
35.47
35.451
35.431
35.411
35.389
35.366
35.342
35.317
35.291
35.263
35.235
35.206
35.178
35.149
35.12
35.092
35.064
35.036
35.007
34.978
34.949
34.92
34.891
34.862
34.834
34.807
34.78
34.754
34.729
34.705
34.683
34.663
34.644
34.626
34.609
34.592
34.576
34.559
34.541
34.522
34.501
34.479
34.456
34.432
34.408
34.386
34.365
34.347
34.33
34.315
34.301
34.287
34.275
34.262
34.248
34.233
34.217
34.199
34.18
34.158
34.133
34.107
34.081
34.053
34.027
34.0
33.975
33.952
33.93
33.911
33.895
33.882
33.872
33.867
33.866
33.872
33.885
33.907
33.938
33.979
34.031
34.095
34.169
34.255
34.35
34.454
34.565
34.681
34.801
34.922
35.042
35.159
35.271
35.376
35.472
35.558
35.632
35.695
35.746
35.785
35.813
35.83
35.837
35.834
35.825
35.809
35.789
35.765
35.739
35.711
35.683
35.656
35.629
35.604
35.582
35.562
35.545
35.532
35.52
35.512
35.505
35.501
35.497
35.493
35.49
35.487
35.483
35.478
35.473
35.465
35.457
35.446
35.435
35.421
35.407
35.391
35.373
35.355
35.336
35.315
35.295
35.274
35.254
35.235
35.216
35.199
35.184
35.171
35.159
35.151
35.145
35.142
35.14
35.141
35.144
35.148
35.152
35.157
35.16
35.163
35.164
35.163
35.161
35.157
35.15
35.142
35.131
35.119
35.104
35.088
35.07
35.051
35.031
35.01
34.987
34.962
34.937
34.911
34.884
34.858
34.832
34.807
34.783
34.759
34.735
34.712
34.688
34.664
34.641
34.617
34.594
34.571
34.547
34.524
34.5
34.476
34.452
34.429
34.405
34.382
34.358
34.335
34.313
34.29
34.269
34.247
34.226
34.205
34.184
34.163
34.142
34.121
34.101
34.081
34.062
34.043
34.025
34.007
33.992
33.977
33.964
33.951
33.939
33.926
33.913
33.899
33.884
33.869
33.853
33.838
33.822
33.807
33.792
33.778
33.765
33.753
33.742
33.731
33.72
33.71
33.699
33.689
33.678
33.667
33.656
33.643
33.63
33.616
33.602
33.587
33.572
33.558
33.544
33.531
33.52
33.511
33.505
33.501
33.5
33.501
33.506
33.513
33.524
33.54
33.562
33.591
33.629
33.676
33.732
33.798
33.873
33.958
34.051
34.152
34.259
34.371
34.485
34.6
34.715
34.826
34.932
35.031
35.122
35.202
35.271
35.329
35.375
35.409
35.431
35.442
35.443
35.433
35.414
35.387
35.353
35.314
35.269
35.22
35.168
35.114
35.057
34.999
34.941
34.882
34.825
34.77
34.718
34.67
34.627
34.589
34.557
34.532
34.514
34.503
34.498
34.5
34.506
34.517
34.531
34.546
34.561
34.576
34.587
34.596
34.6
34.6
34.595
34.586
34.573
34.556
34.536
34.514
34.491
34.469
34.448
34.429
34.415
34.405
34.399
34.399
34.403
34.411
34.422
34.436
34.451
34.467
34.483
34.498
34.512
34.524
34.534
34.542
34.547
34.548
34.547
34.542
34.534
34.523
34.509
34.493
34.475
34.455
34.434
34.412
34.391
34.37
34.349
34.329
34.309
34.29
34.272
34.255
34.238
34.222
34.206
34.191
34.176
34.161
34.146
34.132
34.119
34.106
34.094
34.083
34.072
34.061
34.049
34.038
34.027
34.016
34.004
33.992
33.98
33.968
33.956
33.944
33.932
33.921
33.911
33.902
33.895
33.888
33.884
33.88
33.879
33.878
33.877
33.875
33.874
33.871
33.869
33.866
33.862
33.858
33.853
33.848
33.842
33.837
33.832
33.827
33.822
33.816
33.811
33.805
33.799
33.793
33.786
33.778
33.77
33.761
33.751
