Trial 3:3back
36.251
36.239
36.229
36.221
36.214
36.209
36.206
36.204
36.202
36.202
36.202
36.202
36.201
36.201
36.2
36.199
36.198
36.195
36.191
36.185
36.177
36.167
36.155
36.141
36.125
36.109
36.091
36.074
36.057
36.041
36.026
36.012
35.998
35.984
35.97
35.956
35.941
35.924
35.905
35.884
35.861
35.836
35.81
35.782
35.753
35.723
35.694
35.666
35.639
35.614
35.591
35.571
35.552
35.534
35.518
35.502
35.486
35.47
35.453
35.436
35.419
35.402
35.386
35.369
35.353
35.338
35.323
35.309
35.296
35.283
35.272
35.261
35.251
35.242
35.232
35.223
35.213
35.203
35.191
35.178
35.165
35.151
35.138
35.126
35.114
35.103
35.094
35.086
35.078
35.071
35.062
35.052
35.04
35.026
35.009
34.991
34.971
34.951
34.93
34.91
34.891
34.873
34.859
34.848
34.841
34.838
34.841
34.85
34.866
34.889
34.92
34.962
35.013
35.074
35.147
35.23
35.324
35.426
35.536
35.651
35.771
35.894
36.017
36.139
36.258
36.372
36.48
36.58
36.671
36.751
36.822
36.88
36.927
36.963
36.987
37.0
37.004
36.999
36.987
36.969
36.947
36.923
36.898
36.872
36.848
36.825
36.804
36.785
36.768
36.753
36.739
36.727
36.714
36.702
36.689
36.676
36.662
36.648
36.633
36.617
36.601
36.585
36.568
36.55
36.53
36.51
36.489
36.468
36.445
36.422
36.399
36.375
36.351
36.327
36.304
36.282
36.263
36.247
36.233
36.222
36.213
36.207
36.204
36.203
36.205
36.208
36.213
36.218
36.225
36.231
36.237
36.243
36.248
36.252
36.253
36.252
36.249
36.243
36.234
36.223
36.209
36.192
36.174
36.156
36.136
36.117
36.098
36.078
36.059
36.04
36.022
36.002
35.983
35.963
35.943
35.923
35.902
35.881
35.859
35.838
35.817
35.796
35.776
35.756
35.737
35.718
35.699
35.68
35.662
35.644
35.626
35.609
35.592
35.575
35.558
35.541
35.524
35.507
35.491
35.475
35.459
35.444
35.43
35.417
35.404
35.392
35.38
35.369
35.357
35.345
35.333
35.319
35.304
35.288
35.271
35.255
35.238
35.222
35.207
35.193
35.181
35.169
35.159
35.149
35.138
35.127
35.114
35.1
35.085
35.068
35.05
35.032
35.012
34.993
34.973
34.955
34.937
34.922
34.91
34.9
34.895
34.893
34.896
34.904
34.919
34.941
34.971
35.01
35.058
35.117
35.186
35.265
35.354
35.452
35.556
35.666
35.779
35.893
36.007
36.118
36.223
36.321
36.411
36.49
36.559
36.616
36.662
36.696
36.719
36.731
36.733
36.728
36.715
36.697
36.676
36.652
36.628
36.603
36.58
36.557
36.535
36.514
36.493
36.472
36.451
36.428
36.406
36.383
36.359
36.336
36.313
36.289
36.266
36.244
36.224
36.204
36.186
36.169
36.153
36.137
36.121
36.104
36.087
36.067
36.046
36.022
35.996
35.968
35.939
35.909
35.88
35.853
35.828
35.806
35.789
35.777
35.771
35.771
35.776
35.785
35.798
35.813
35.829
35.844
35.858
35.869
35.877
35.882
35.883
35.881
35.875
35.868
35.858
35.846
35.833
35.82
35.805
35.79
35.775
35.759
35.742
35.724
35.706
35.686
35.666
35.646
35.624
35.603
35.582
35.56
35.539
35.517
35.496
35.474
35.451
35.428
35.405
35.381
35.356
35.331
35.305
35.279
35.253
35.226
35.2
35.174
35.149
35.125
35.102
35.081
35.061
35.042
35.024
35.007
34.991
34.976
34.961
34.946
34.93
34.914
34.898
34.88
34.863
34.845
34.828
34.811
34.794
34.778
34.763
34.749
34.736
34.724
34.712
34.7
34.687
34.672
34.656
34.638
34.619
34.597
34.574
34.552
34.529
34.507
34.487
34.469
34.454
34.442
34.434
34.429
34.428
34.431
34.439
34.452
34.471
34.496
34.528
34.568
34.617
34.674
34.74
34.815
34.9
34.992
35.092
35.198
35.308
35.421
35.534
35.645
35.754
35.857
35.954
36.043
36.122
36.192
36.252
36.301
36.34
36.369
36.387
36.397
36.4
36.395
36.386
36.373
36.357
36.339
36.319
36.3
36.28
36.261
36.243
36.227
36.212
36.199
36.188
36.179
36.172
36.167
36.162
36.158
36.154
36.149
36.144
36.137
36.129
36.119
36.107
36.093
36.076
36.057
36.036
36.013
35.989
35.964
35.938
35.913
35.888
35.864
35.842
35.822
35.803
35.787
35.773
35.762
35.752
35.745
35.74
35.738
35.737
35.738
35.741
35.745
35.749
35.755
35.759
35.764
35.767
35.769
35.768
35.765
35.758
35.748
35.734
35.717
35.698
35.676
35.652
35.628
35.603
35.578
35.553
35.529
35.506
35.485
35.466
35.448
35.431
35.414
35.398
35.382
35.365
35.347
35.328
35.308
35.288
35.266
35.245
35.224
35.204
35.183
35.163
35.143
35.124
35.105
35.086
35.069
35.052
35.035
35.018
35.001
34.984
34.968
34.951
34.936
34.92
34.905
34.89
34.876
34.863
34.851
34.84
34.829
34.816
34.803
34.788
34.772
34.755
34.739
34.722
34.706
34.692
34.679
34.668
34.659
34.652
34.646
34.64
34.635
34.629
34.623
34.614
34.604
34.591
34.577
34.561
34.544
34.527
34.512
34.498
34.486
34.477
34.471
34.468
34.469
34.473
34.481
34.494
34.512
34.538
34.572
34.614
34.666
34.726
34.797
34.878
34.968
35.067
35.174
35.287
35.406
35.527
35.65
35.77
35.887
35.997
36.098
36.189
36.269
36.337
36.394
36.438
36.471
36.494
36.507
36.514
36.514
36.509
36.501
36.489
36.475
36.46
36.444
36.427
36.41
36.393
36.376
36.36
36.345
36.329
36.315
36.301
36.288
36.276
36.265
36.255
36.247
36.239
36.231
36.224
36.217
36.209
36.201
36.191
36.18
36.168
36.153
36.135
36.115
36.093
36.069
36.043
36.016
35.989
35.964
35.94
35.918
35.899
35.882
35.869
35.858
35.85
35.844
35.841
35.839
35.838
35.838
35.839
35.841
35.842
35.844
35.844
35.845
35.846
35.846
35.846
35.845
35.843
35.84
35.836
35.83
35.822
35.811
35.797
35.781
35.762
35.741
35.719
35.696
35.673
35.65
35.629
35.608
35.589
35.572
35.556
35.541
35.526
35.511
35.495
35.478
35.46
35.441
35.421
35.399
35.377
35.354
35.331
35.308
35.285
35.263
35.242
35.222
35.203
35.184
35.165
35.146
35.128
35.109
35.091
35.073
35.054
35.035
35.017
34.998
34.979
34.962
34.945
34.929
34.915
34.901
34.888
34.876
34.864
34.852
34.84
34.828
34.815
34.801
34.788
34.774
34.76
34.746
34.732
34.718
34.704
34.691
34.677
34.663
34.647
34.631
34.614
34.597
34.579
34.561
34.544
34.528
34.513
34.5
34.49
34.482
34.479
34.479
34.486
34.499
34.52
34.552
34.594
34.648
34.713
34.791
34.878
34.976
35.082
35.195
35.313
35.433
35.555
35.676
35.794
35.906
36.011
36.106
36.192
36.266
36.328
36.379
36.417
36.445
36.463
36.471
36.472
36.466
36.456
36.441
36.424
36.406
36.387
36.368
36.35
36.334
36.319
36.306
36.295
36.284
36.276
36.268
36.261
36.255
36.249
36.243
36.236
36.23
36.222
36.214
36.205
36.196
36.185
36.173
36.159
36.143
36.126
36.106
36.084
36.06
36.035
36.009
35.982
35.955
35.928
35.903
35.879
35.858
35.839
35.822
35.809
35.798
35.79
35.783
35.779
35.775
35.773
35.772
35.771
35.771
35.772
35.773
35.774
35.775
35.777
35.778
35.778
35.777
35.775
35.769
35.762
35.751
35.737
35.721
35.702
35.68
35.657
35.633
35.607
35.582
35.557
35.533
35.509
35.487
35.466
35.446
35.427
35.408
35.388
35.369
35.348
35.326
35.304
35.281
35.258
35.236
35.213
35.191
35.171
35.151
35.134
35.118
35.103
35.09
35.077
35.064
35.051
35.036
35.02
35.003
34.984
34.964
34.942
34.92
34.896
34.872
34.848
34.824
34.802
34.78
34.758
34.738
34.718
34.699
34.682
34.666
34.652
34.638
34.626
34.614
34.604
34.595
34.586
34.578
34.57
34.561
34.553
34.544
34.535
34.525
34.516
34.506
34.498
34.489
34.481
34.473
34.465
34.456
34.448
34.438
34.427
34.415
34.402
34.387
34.371
34.354
34.336
34.318
34.301
34.285
34.272
34.262
34.254
34.251
34.254
34.262
34.278
34.303
34.337
34.382
34.437
34.504
34.581
34.67
34.77
34.879
34.997
35.12
35.249
35.38
35.512
35.643
35.772
35.896
36.015
36.125
36.227
36.319
36.4
36.469
36.526
36.573
36.609
36.635
36.653
36.662
36.664
36.661
36.655
36.646
36.637
36.627
36.618
36.61
36.602
36.595
36.588
36.581
36.572
36.562
36.551
36.539
36.525
36.511
36.496
36.481
36.465
36.448
36.429
36.41
36.389
36.367
36.343
36.318
36.29
36.26
36.227
36.191
36.153
36.112
36.069
36.025
35.98
35.934
35.889
35.845
35.803
35.764
35.73
35.7
35.676
35.658
35.646
35.639
35.637
35.638
35.644
35.651
35.66
35.67
35.679
35.686
35.691
35.694
35.692
35.687
35.678
35.664
35.648
35.628
35.605
35.579
35.552
35.525
35.497
35.47
35.444
35.419
35.395
35.374
35.354
35.335
35.317
35.301
35.286
35.27
35.255
35.239
35.223
35.207
35.191
35.175
35.16
35.146
35.132
35.12
35.11
35.102
35.095
35.088
35.082
35.075
35.068
35.059
35.048
35.035
35.02
35.002
34.983
34.963
34.942
34.921
34.901
34.883
34.868
34.855
34.844
34.835
34.828
34.823
34.819
34.816
34.813
34.811
34.809
34.807
34.805
34.803
34.801
34.799
34.797
34.796
34.796
34.797
34.799
34.801
34.803
34.803
34.802
34.8
34.795
34.788
34.778
34.767
34.754
34.739
34.723
34.707
34.69
34.674
34.658
34.644
34.631
34.62
34.611
34.604
34.6
34.601
34.606
34.618
34.636
34.663
34.699
34.745
34.802
34.869
34.948
35.036
35.135
35.241
35.354
35.472
35.593
35.714
35.835
35.952
36.065
36.17
36.266
36.352
36.427
36.489
36.539
36.578
36.606
36.624
36.632
36.633
36.628
36.617
36.602
36.584
36.565
36.544
36.523
36.502
36.481
36.46
36.439
36.417
36.394
36.37
36.345
36.32
36.294
36.268
36.242
36.216
36.19
36.164
36.14
36.116
36.094
36.072
36.05
36.029
36.006
35.983
35.958
35.932
35.905
35.877
35.848
35.819
35.79
35.764
35.739
35.717
35.699
35.683
35.672
35.663
35.656
35.652
35.651
35.651
35.653
35.658
35.663
35.67
35.678
35.687
35.696
35.704
35.712
35.719
35.724
35.728
35.73
35.731
35.729
35.726
35.72
35.711
35.701
35.689
35.675
35.661
35.646
35.63
35.614
35.599
35.583
35.568
35.552
35.537
35.52
35.503
35.485
35.465
35.445
35.423
35.4
35.378
35.355
35.332
35.309
35.286
35.264
35.243
35.222
35.201
35.181
35.162
35.143
35.125
35.107
35.089
35.071
35.053
35.034
35.016
34.998
34.98
34.963
34.946
34.93
34.914
34.897
34.881
34.864
34.846
34.829
34.812
34.795
34.778
34.762
34.746
34.73
34.714
34.697
34.68
34.661
34.642
34.622
34.6
34.578
34.555
34.532
34.508
34.484
34.459
34.434
34.411
34.388
34.366
34.346
34.327
34.311
34.297
34.286
34.279
34.275
34.275
34.281
34.292
34.311
34.336
34.371
34.414
34.467
34.53
34.603
34.686
34.779
34.879
34.987
35.1
35.216
35.334
35.451
35.566
35.677
35.781
35.878
35.965
36.041
36.106
36.159
36.202
36.234
36.258
36.273
36.281
36.282
36.279
36.272
36.261
36.248
36.233
36.217
36.2
36.183
36.164
36.145
36.126
36.107
36.089
36.072
36.055
36.039
36.024
36.01
35.996
35.984
35.971
35.957
35.943
35.928
35.912
35.895
35.876
35.856
35.834
35.812
35.789
35.766
35.744
35.721
35.698
35.675
35.652
35.629
35.607
35.586
35.566
35.549
35.534
35.522
35.513
35.506
35.503
35.502
35.504
35.509
35.514
35.521
35.529
35.536
35.543
35.549
35.553
35.556
35.556
35.554
35.55
35.543
35.533
35.522
35.508
35.491
35.473
35.452
35.429
35.405
35.38
35.354
35.327
35.3
35.273
35.247
35.222
35.198
35.176
35.154
35.133
35.112
35.091
35.069
35.048
35.025
35.003
34.979
34.956
34.932
34.909
34.886
34.864
34.843
34.823
34.804
34.785
34.765
34.746
34.726
34.705
34.684
34.663
34.642
34.621
34.6
34.581
34.562
34.544
34.529
34.516
34.505
34.495
34.488
34.481
34.476
34.47
34.464
34.458
34.45
34.442
34.434
34.424
34.413
34.402
34.391
34.379
34.366
34.352
34.338
34.323
34.306
34.289
34.272
34.253
34.236
34.218
34.203
34.188
34.175
34.163
34.154
34.146
34.139
34.133
34.129
34.128
34.129
34.134
34.143
34.157
34.178
34.207
34.245
34.294
34.354
34.425
34.508
34.602
34.705
34.816
34.934
35.056
35.181
35.306
35.431
35.552
35.668
35.776
35.875
35.963
36.041
36.107
36.161
36.204
36.236
36.257
36.268
36.271
36.268
36.26
36.247
36.233
36.218
36.201
36.185
36.168
36.152
36.136
36.12
36.103
36.086
36.069
36.052
36.035
36.019
36.004
35.99
35.978
35.967
35.956
35.946
35.935
35.924
35.911
35.897
35.882
35.866
35.848
35.829
35.808
35.787
35.765
35.743
35.721
35.7
35.68
35.66
35.64
35.62
35.601
35.583
35.565
35.55
35.536
35.525
35.516
35.51
35.506
35.504
35.505
35.508
35.514
35.521
35.529
35.537
35.545
35.551
35.555
35.557
35.557
35.554
35.549
35.542
35.532
35.52
35.507
35.492
35.477
35.462
35.445
35.429
35.412
35.394
35.376
35.357
35.339
35.32
35.302
35.284
35.266
35.249
35.232
35.214
35.196
35.176
35.156
35.135
35.112
35.089
35.066
35.041
35.017
34.992
34.968
34.945
34.923
34.901
34.88
34.859
34.839
34.82
34.8
34.781
34.762
34.743
34.725
34.707
34.689
34.673
34.656
34.641
34.625
34.61
34.595
34.58
34.566
34.551
34.537
34.523
34.509
34.497
34.486
34.476
34.467
34.457
34.448
34.438
34.427
34.415
34.403
34.39
34.378
34.365
34.353
34.342
34.331
34.32
34.31
34.299
34.289
34.277
34.265
34.251
34.237
34.221
34.203
34.186
34.168
34.151
34.134
34.119
34.105
34.092
34.08
34.068
34.058
34.049
34.044
34.044
34.049
34.063
34.085
34.117
34.16
34.214
34.28
34.357
34.446
34.544
34.652
34.768
34.891
35.018
35.148
35.278
35.405
35.528
35.644
35.751
35.849
35.935
36.01
36.074
36.124
36.163
36.191
36.208
36.216
36.216
36.209
36.196
36.179
36.158
36.135
36.11
36.084
36.058
36.033
36.007
35.983
35.959
35.936
35.913
35.891
35.87
35.85
35.83
35.811
35.792
35.774
35.756
35.739
35.723
35.708
35.693
35.679
35.666
35.652
35.639
35.625
35.612
35.597
35.582
35.566
35.548
35.53
35.51
35.49
35.469
35.448
35.428
35.409
35.392
35.378
35.367
35.359
35.355
35.355
35.358
35.364
35.372
35.381
35.389
35.397
35.404
35.408
35.411
35.413
35.412
35.41
35.407
35.403
35.397
35.391
35.384
35.376
35.366
35.355
35.343
35.329
35.314
35.297
35.279
35.26
35.24
35.22
35.199
35.179
35.158
35.137
35.117
35.097
35.076
35.055
35.034
35.012
34.99
34.968
34.946
34.925
34.905
34.885
34.866
34.847
34.828
34.81
34.79
34.771
34.751
34.731
34.711
34.691
34.671
34.653
34.634
34.617
34.6
34.583
34.567
34.551
34.536
34.522
34.508
34.495
34.483
34.471
34.459
34.448
34.438
34.428
34.419
34.41
34.401
34.393
34.385
34.377
34.368
34.359
34.35
34.34
34.33
34.319
34.309
34.299
34.29
34.282
34.274
34.266
34.258
34.25
34.242
34.232
34.222
34.211
34.199
34.186
34.173
34.16
34.147
34.135
34.123
34.112
34.103
34.095
34.09
34.086
34.084
34.084
34.087
34.093
34.104
34.12
34.142
34.172
34.21
34.256
34.312
34.378
34.455
34.54
34.635
34.739
34.849
34.965
35.085
35.207
35.328
35.447
35.562
35.67
35.769
35.858
35.935
36.0
36.052
36.092
36.12
36.138
36.146
36.146
36.14
36.128
36.113
36.094
36.074
36.053
36.031
36.008
35.985
35.962
35.94
35.918
35.896
35.876
35.857
35.839
35.822
35.807
35.794
35.784
35.775
35.77
35.767
35.766
35.767
35.77
35.774
35.778
35.781
35.784
35.784
35.783
35.778
35.772
35.763
35.753
35.742
35.731
35.72
35.71
35.701
35.694
35.688
35.685
35.684
35.686
35.69
35.696
35.704
35.714
35.726
35.739
35.752
35.764
35.776
35.786
35.794
35.799
35.8
35.798
35.79
35.778
35.761
35.738
35.711
35.679
35.644
35.605
35.564
35.522
35.479
35.435
35.393
35.35
35.309
35.269
35.231
35.195
35.161
35.13
35.101
35.076
35.055
35.036
35.02
35.006
34.993
34.981
34.97
34.958
34.944
34.929
34.911
34.891
34.868
34.843
34.816
34.788
34.761
34.733
34.707
34.681
34.658
34.636
34.616
34.597
34.579
34.563
34.549
34.535
34.523
34.513
34.504
34.497
34.492
34.488
34.485
34.483
34.481
34.479
34.476
34.474
34.472
34.47
34.468
34.468
34.468
34.469
34.471
34.473
34.475
34.475
34.474
34.47
34.465
34.457
34.446
34.434
34.42
34.406
34.39
34.375
34.36
34.346
34.334
34.324
34.315
34.31
34.308
34.31
34.316
34.329
34.347
34.371
34.403
34.443
34.492
34.548
34.614
34.689
34.773
34.865
34.965
35.072
35.185
35.302
35.423
35.544
35.665
35.782
35.896
36.003
36.103
36.193
36.275
36.346
36.407
36.458
36.498
36.529
36.551
36.564
36.57
36.57
36.564
36.553
36.537
36.519
36.498
36.476
36.453
36.431
36.409
36.388
36.369
36.351
36.335
36.319
36.304
36.289
36.274
36.258
36.241
36.223
36.205
36.185
36.164
36.141
36.118
36.092
36.066
36.038
36.01
35.981
35.952
35.922
35.892
35.863
35.834
35.807
35.78
35.754
35.731
35.709
35.69
35.674
35.661
35.651
35.644
35.64
35.637
35.636
35.637
35.637
35.639
35.64
35.641
35.642
35.642
35.641
35.64
35.637
35.633
35.628
35.621
35.612
35.601
35.587
35.572
35.556
35.537
35.519
35.499
35.48
35.462
35.444
35.428
35.411
35.395
35.378
35.361
35.343
35.324
35.305
35.285
35.265
35.246
35.227
35.21
35.193
35.177
35.162
35.148
35.134
35.121
35.108
35.095
35.082
35.069
35.055
35.041
35.028
35.014
35.001
34.989
34.976
34.963
34.95
34.937
34.924
34.91
34.898
34.886
34.875
34.865
34.856
34.847
34.838
34.83
34.821
34.812
34.802
34.79
34.777
34.761
34.744
34.724
34.703
34.681
34.659
34.637
34.617
34.598
34.581
34.567
34.555
34.545
34.538
34.534
34.535
34.542
34.554
34.574
34.601
34.638
34.683
34.738
34.803
34.878
34.961
35.054
35.154
35.261
35.375
35.492
35.611
35.731
35.849
35.963
36.071
36.173
36.266
36.349
36.42
36.48
36.527
36.562
36.587
36.601
36.606
36.603
36.595
36.583
36.569
36.552
36.534
36.517
36.499
36.482
36.466
36.449
36.432
36.414
36.396
36.377
36.358
36.339
36.32
36.302
36.284
36.265
36.248
36.231
36.215
36.2
36.184
36.169
36.153
36.137
36.119
36.101
36.081
36.059
36.036
36.013
35.99
35.968
35.945
35.924
35.905
35.888
35.873
35.862
35.855
35.851
35.85
35.853
35.859
35.867
35.877
35.89
35.904
35.919
35.936
35.951
35.966
35.98
35.99
35.998
36.003
36.005
36.003
35.999
35.991
35.982
35.971
35.958
35.945
35.931
35.916
35.9
35.883
35.866
35.848
35.83
35.811
35.793
35.776
35.759
35.743
35.727
35.71
35.693
35.675
35.655
35.634
35.611
35.587
35.561
35.534
35.507
35.48
35.454
35.429
35.405
35.382
35.36
35.338
35.316
35.294
35.271
35.248
35.224
35.2
35.177
35.155
35.134
35.114
35.096
35.079
35.063
35.048
35.033
35.017
35.001
34.984
34.966
34.948
34.929
34.909
34.89
34.871
34.853
34.835
34.817
34.801
34.785
34.769
34.754
34.741
34.73
34.722
34.72
34.723
34.733
34.751
34.778
34.815
34.863
34.921
34.99
35.071
35.162
35.264
35.375
35.494
35.621
35.753
35.889
36.026
36.163
36.296
36.423
36.543
36.653
36.753
36.84
36.916
36.981
37.034
37.077
37.11
37.134
37.15
37.161
37.165
37.166
37.163
37.158
37.15
37.141
37.13
37.118
37.105
37.092
37.079
37.066
37.054
37.043
37.032
37.021
37.011
37.0
36.989
36.977
36.965
36.952
36.938
36.923
36.907
36.89
36.872
36.854
36.836
36.817
36.799
36.78
36.761
36.741
36.721
36.7
36.679
36.657
36.636
36.615
36.596
36.579
36.563
36.551
36.542
36.535
36.531
36.529
36.528
36.528
36.529
36.53
36.531
36.532
36.533
36.534
36.534
36.533
36.531
36.528
36.524
36.518
36.511
36.502
36.491
36.478
36.462
36.444
36.424
36.402
36.38
36.357
36.335
36.313
36.292
36.271
36.251
36.232
36.213
36.193
36.173
36.152
36.129
36.104
36.078
36.05
36.02
35.991
35.961
35.932
35.904
35.877
35.85
35.825
35.801
35.777
35.754
35.731
35.708
35.685
35.662
35.64
35.617
