Trial 3:3back
35.973
35.985
35.998
36.012
36.027
36.041
36.055
36.068
36.081
36.092
36.103
36.114
36.123
36.131
36.136
36.14
36.142
36.142
36.14
36.137
36.13
36.122
36.111
36.098
36.082
36.064
36.043
36.019
35.994
35.967
35.941
35.915
35.893
35.874
35.858
35.847
35.84
35.837
35.838
35.841
35.845
35.848
35.852
35.853
35.852
35.85
35.846
35.84
35.833
35.826
35.818
35.81
35.8
35.79
35.779
35.768
35.757
35.747
35.738
35.729
35.719
35.71
35.699
35.688
35.677
35.664
35.65
35.634
35.618
35.599
35.58
35.56
35.54
35.519
35.497
35.474
35.449
35.422
35.395
35.368
35.341
35.316
35.292
35.272
35.255
35.242
35.232
35.225
35.22
35.216
35.213
35.211
35.21
35.209
35.208
35.207
35.206
35.203
35.198
35.192
35.185
35.178
35.17
35.162
35.152
35.142
35.133
35.123
35.114
35.106
35.1
35.094
35.089
35.084
35.077
35.07
35.06
35.049
35.035
35.019
35.001
34.983
34.965
34.949
34.935
34.923
34.915
34.909
34.905
34.903
34.903
34.904
34.907
34.91
34.913
34.917
34.92
34.922
34.923
34.922
34.919
34.914
34.905
34.894
34.879
34.862
34.843
34.822
34.802
34.781
34.761
34.744
34.727
34.712
34.697
34.683
34.668
34.654
34.639
34.626
34.614
34.603
34.594
34.588
34.583
34.579
34.578
34.579
34.582
34.586
34.593
34.6
34.608
34.616
34.624
34.631
34.638
34.645
34.65
34.655
34.659
34.662
34.665
34.669
34.675
34.685
34.698
34.716
34.739
34.767
34.801
34.843
34.893
34.951
35.017
35.091
35.172
35.257
35.347
35.439
35.531
35.621
35.707
35.789
35.864
35.931
35.989
36.037
36.074
36.099
36.113
36.116
36.11
36.097
36.078
36.055
36.03
36.005
35.981
35.958
35.936
35.916
35.897
35.88
35.864
35.851
35.84
35.831
35.826
35.824
35.826
35.832
35.84
35.852
35.866
35.882
35.897
35.911
35.924
35.933
35.939
35.941
35.939
35.934
35.926
35.916
35.906
35.897
35.889
35.882
35.876
35.873
35.87
35.869
35.869
35.87
35.871
35.871
35.868
35.863
35.855
35.844
35.831
35.815
35.796
35.776
35.755
35.733
35.711
35.689
35.668
35.648
35.63
35.614
35.601
35.591
35.584
35.581
35.579
35.58
35.583
35.588
35.594
35.601
35.608
35.615
35.621
35.624
35.623
35.619
35.611
35.598
35.58
35.557
35.529
35.497
35.461
35.423
35.385
35.349
35.316
35.287
35.264
35.247
35.237
35.232
35.233
35.238
35.245
35.253
35.262
35.271
35.279
35.286
35.292
35.295
35.296
35.294
35.289
35.281
35.269
35.252
35.233
35.211
35.186
35.159
35.13
35.1
35.069
35.039
35.009
34.982
34.957
34.934
34.915
34.898
34.884
34.872
34.863
34.857
34.853
34.85
34.848
34.845
34.843
34.839
34.836
34.831
34.827
34.823
34.818
34.814
34.811
34.809
34.808
34.81
34.813
34.817
34.822
34.828
34.834
34.84
34.845
34.849
34.851
34.852
34.85
34.847
34.842
34.835
34.826
34.816
34.805
34.795
34.784
34.773
34.763
34.753
34.744
34.737
34.732
34.729
34.727
34.726
34.728
34.73
34.733
34.736
34.739
34.742
34.745
34.747
34.748
34.75
34.75
34.751
34.751
34.751
34.75
34.747
34.744
34.741
34.742
34.748
34.76
34.78
34.81
34.85
34.899
34.958
35.026
35.1
35.181
35.264
35.349
35.433
35.514
35.588
35.655
35.711
35.758
35.794
35.82
35.837
35.846
35.849
35.848
35.843
35.837
35.829
35.82
35.811
35.802
35.794
35.787
35.781
35.775
35.77
35.765
35.76
35.755
35.752
35.75
35.75
35.754
35.761
35.77
35.782
35.795
35.81
35.825
35.842
35.859
35.877
35.896
35.914
35.931
35.947
35.96
35.97
35.977
35.979
35.977
35.971
35.96
35.945
35.926
35.903
35.877
35.848
35.817
35.784
35.75
35.715
35.681
35.649
35.62
35.596
35.576
35.562
35.554
35.551
35.555
35.563
35.574
35.588
35.605
35.622
35.64
35.658
35.677
35.695
35.712
35.729
35.746
35.762
35.777
35.791
35.803
35.81
35.813
35.812
35.806
35.796
35.785
35.773
35.759
35.745
35.73
35.714
35.697
35.677
35.656
35.631
35.603
35.572
35.538
35.501
35.462
35.422
35.381
35.34
35.301
35.264
35.229
35.199
35.174
35.153
35.138
35.128
35.123
35.122
35.125
35.129
35.133
35.138
35.141
35.144
35.146
35.148
35.148
35.147
35.145
35.142
35.138
35.133
35.126
35.117
35.107
35.095
35.081
35.066
35.049
35.033
35.018
35.005
34.993
34.983
34.976
34.971
34.969
34.97
34.972
34.976
34.981
34.985
34.988
34.989
34.987
34.983
34.977
34.966
34.952
34.934
34.913
34.89
34.865
34.84
34.817
34.796
34.777
34.761
34.749
34.74
34.734
34.73
34.727
34.725
34.724
34.722
34.721
34.718
34.715
34.71
34.704
34.696
34.686
34.674
34.658
34.64
34.617
34.592
34.565
34.536
34.508
34.482
34.458
34.437
34.418
34.401
34.387
34.376
34.369
34.364
34.363
34.366
34.375
34.389
34.411
34.441
34.478
34.524
34.577
34.638
34.706
34.781
34.862
34.949
35.039
35.132
35.226
35.32
35.412
35.5
35.584
35.662
35.733
35.795
35.849
35.894
35.929
35.955
35.972
35.982
35.985
35.982
35.974
35.962
35.946
35.927
35.905
35.881
35.856
35.831
35.805
35.781
35.757
35.735
35.716
35.7
35.688
35.68
35.676
35.674
35.675
35.678
35.682
35.688
35.696
35.705
35.713
35.721
35.726
35.729
35.729
35.726
35.719
35.709
35.697
35.682
35.667
35.65
35.634
35.618
35.602
35.586
35.572
35.558
35.545
35.533
35.522
35.512
35.502
35.495
35.489
35.487
35.487
35.489
35.494
35.499
35.503
35.506
35.506
35.504
35.498
35.488
35.475
35.46
35.442
35.422
35.4
35.378
35.355
35.333
35.312
35.293
35.278
35.266
35.258
35.253
35.251
35.25
35.249
35.249
35.247
35.244
35.24
35.233
35.225
35.215
35.204
35.191
35.178
35.163
35.148
35.131
35.114
35.097
35.079
35.061
35.044
35.027
35.011
34.995
34.981
34.967
34.956
34.946
34.939
34.933
34.93
34.928
34.928
34.93
34.933
34.935
34.937
34.936
34.934
34.93
34.924
34.917
34.909
34.899
34.888
34.877
34.865
34.853
34.842
34.831
34.822
34.814
34.806
34.798
34.791
34.784
34.778
34.772
34.767
34.763
34.759
34.754
34.749
34.745
34.741
34.737
34.733
34.729
34.725
34.72
34.715
34.709
34.703
34.694
34.684
34.671
34.654
34.635
34.613
34.588
34.562
34.535
34.508
34.481
34.457
34.436
34.418
34.404
34.395
34.39
34.391
34.398
34.409
34.423
34.437
34.452
34.466
34.479
34.489
34.495
34.499
34.499
34.496
34.49
34.485
34.482
34.481
34.486
34.498
34.517
34.544
34.581
34.628
34.683
34.747
34.818
34.895
34.976
35.059
35.143
35.226
35.307
35.386
35.459
35.525
35.585
35.636
35.677
35.711
35.736
35.754
35.765
35.77
35.77
35.765
35.756
35.746
35.734
35.722
35.711
35.701
35.692
35.686
35.68
35.673
35.665
35.656
35.647
35.638
35.628
35.619
35.61
35.601
35.595
35.59
35.588
35.587
35.589
35.592
35.596
35.6
35.605
35.61
35.614
35.616
35.615
35.611
35.604
35.596
35.586
35.575
35.563
35.55
35.536
35.523
35.509
35.495
35.481
35.466
35.449
35.431
35.41
35.388
35.364
35.34
35.315
35.292
35.27
35.251
35.235
35.225
35.22
35.221
35.228
35.239
35.254
35.271
35.29
35.309
35.329
35.348
35.365
35.38
35.393
35.402
35.408
35.409
35.408
35.402
35.394
35.383
35.368
35.35
35.329
35.305
35.278
35.249
35.218
35.186
35.155
35.125
35.097
35.07
35.047
35.026
35.009
34.996
34.986
34.98
34.976
34.975
34.976
34.979
34.983
34.987
34.991
34.994
34.996
34.996
34.995
34.993
34.992
34.99
34.988
34.987
34.986
34.985
34.983
34.978
34.97
34.96
34.946
34.929
34.91
34.888
34.864
34.839
34.813
34.787
34.762
34.737
34.714
34.695
34.679
34.667
34.659
34.654
34.651
34.65
34.651
34.652
34.654
34.656
34.657
34.658
34.658
34.658
34.659
34.659
34.66
34.662
34.663
34.663
34.662
34.66
34.658
34.654
34.648
34.641
34.631
34.619
34.605
34.59
34.574
34.558
34.543
34.529
34.517
34.507
34.5
34.497
34.496
34.497
34.5
34.503
34.506
34.51
34.513
34.515
34.516
34.516
34.516
34.516
34.515
34.514
34.515
34.52
34.529
34.546
34.57
34.603
34.646
34.697
34.758
34.826
34.901
34.983
35.068
35.154
35.24
35.325
35.406
35.483
35.554
35.619
35.676
35.725
35.766
35.797
35.821
35.837
35.846
35.851
35.852
35.853
35.852
35.849
35.845
35.841
35.836
35.83
35.825
35.82
35.816
35.811
35.807
35.801
35.794
35.785
35.773
35.761
35.748
35.735
35.724
35.714
35.706
35.701
35.699
35.699
35.701
35.705
35.708
35.712
35.716
35.718
35.721
35.722
35.723
35.722
35.72
35.717
35.714
35.709
35.704
35.698
35.692
35.686
35.678
35.67
35.659
35.647
35.633
35.617
35.6
35.58
35.56
35.54
35.52
35.501
35.484
35.47
35.457
35.445
35.436
35.428
35.421
35.415
35.411
35.407
35.403
35.401
35.4
35.399
35.4
35.402
35.405
35.407
35.41
35.412
35.413
35.413
35.411
35.407
35.4
35.391
35.379
35.364
35.347
35.328
35.309
35.29
35.271
35.253
35.236
35.22
35.205
35.192
35.181
35.171
35.161
35.152
35.144
35.135
35.126
35.116
35.107
35.098
35.094
35.093
35.095
35.1
35.106
35.112
35.118
35.121
35.122
35.119
35.112
35.1
35.085
35.066
35.045
35.024
35.002
34.981
34.962
34.946
34.934
34.926
34.92
34.917
34.916
34.916
34.916
34.915
34.912
34.907
34.9
34.89
34.877
34.862
34.847
34.831
34.817
34.804
34.793
34.785
34.778
34.775
34.773
34.771
34.771
34.77
34.77
34.77
34.77
34.771
34.773
34.775
34.778
34.78
34.781
34.782
34.781
34.779
34.775
34.77
34.762
34.751
34.737
34.719
34.699
34.677
34.653
34.629
34.606
34.584
34.563
34.546
34.531
34.519
34.51
34.502
34.496
34.49
34.485
34.48
34.475
34.47
34.468
34.468
34.473
34.484
34.503
34.53
34.567
34.615
34.674
34.744
34.823
34.91
35.003
35.099
35.196
35.293
35.387
35.476
35.561
35.639
35.709
35.773
35.828
35.876
35.915
35.947
35.971
35.987
35.996
35.998
35.994
35.984
35.969
35.951
35.929
35.907
35.884
35.863
35.844
35.828
35.816
35.807
35.802
35.801
35.804
35.811
35.82
35.831
35.842
35.853
35.864
35.875
35.885
35.894
35.903
35.911
35.917
35.921
35.923
35.923
35.921
35.916
35.908
35.898
35.885
35.871
35.857
35.842
35.83
35.819
35.811
35.806
35.805
35.807
35.81
35.812
35.814
35.814
35.811
35.806
35.798
35.786
35.772
35.756
35.74
35.722
35.705
35.69
35.677
35.668
35.66
35.655
35.652
35.649
35.646
35.642
35.637
35.631
35.624
35.616
35.607
35.598
35.588
35.578
35.568
35.557
35.545
35.532
35.517
35.501
35.483
35.463
35.442
35.42
35.397
35.375
35.354
35.336
35.32
35.306
35.294
35.284
35.275
35.268
35.263
35.26
35.261
35.264
35.269
35.277
35.287
35.299
35.311
35.324
35.336
35.346
35.354
35.357
35.356
35.35
35.337
35.318
35.292
35.261
35.225
35.186
35.146
35.106
35.068
35.032
35.001
34.974
34.953
34.937
34.925
34.919
34.916
34.917
34.92
34.926
34.933
34.94
34.947
34.955
34.961
34.967
34.972
34.976
34.979
34.982
34.984
34.986
34.988
34.988
34.987
34.985
34.98
34.973
34.964
34.952
34.938
34.922
34.904
34.885
34.866
34.845
34.823
34.799
34.775
34.749
34.724
34.699
34.676
34.655
34.635
34.618
34.603
34.592
34.584
34.581
34.581
34.586
34.593
34.603
34.614
34.626
34.638
34.649
34.659
34.665
34.669
34.669
34.666
34.659
34.65
34.64
34.629
34.618
34.607
34.599
34.592
34.587
34.587
34.591
34.601
34.618
34.641
34.672
34.71
34.756
34.807
34.865
34.928
34.996
35.067
35.141
35.217
35.292
35.367
35.44
35.51
35.575
35.636
35.69
35.737
35.777
35.811
35.839
35.862
35.88
35.895
35.906
35.915
35.923
35.93
35.937
35.943
35.949
35.954
35.958
35.961
35.963
35.966
35.968
35.971
35.974
35.977
35.981
35.985
35.99
35.993
35.996
35.997
35.998
35.999
35.999
36.0
36.001
36.001
36.0
35.999
35.998
35.997
35.995
35.992
35.989
35.983
35.976
35.967
35.956
35.943
35.927
35.909
35.89
35.87
35.85
35.83
35.812
35.794
35.778
35.762
35.747
35.732
35.716
35.698
35.68
35.661
35.641
35.622
35.606
35.592
35.581
35.573
35.568
35.567
35.568
35.572
35.577
35.583
35.589
35.595
35.604
35.619
35.639
35.664
35.691
35.717
35.74
35.757
35.768
35.772
35.767
35.754
35.733
35.704
35.668
35.628
35.584
35.537
35.49
35.443
35.399
35.358
35.322
35.293
35.269
35.253
35.243
35.238
35.236
35.236
35.238
35.24
35.24
35.239
35.236
35.232
35.226
35.217
35.206
35.193
35.178
35.161
35.142
35.123
35.104
35.085
35.067
35.052
35.041
35.033
35.029
35.028
35.03
35.033
35.039
35.045
35.053
35.06
35.068
35.076
35.083
35.089
35.093
35.094
35.092
35.086
35.074
35.059
35.039
35.017
34.993
34.969
34.945
34.921
34.899
34.878
34.859
34.841
34.827
34.814
34.803
34.792
34.782
34.771
34.759
34.748
34.738
34.728
34.719
34.71
34.703
34.698
34.693
34.689
34.686
34.684
34.681
34.678
34.673
34.668
34.662
34.657
34.652
34.647
34.644
34.643
34.643
34.646
34.651
34.656
34.663
34.668
34.673
34.677
34.68
34.681
34.68
34.677
34.672
34.664
34.654
34.643
34.63
34.618
34.607
34.598
34.592
34.591
34.597
34.611
34.633
34.664
34.703
34.749
34.801
34.859
34.923
34.991
35.063
35.138
35.216
35.295
35.374
35.453
35.529
35.602
35.669
35.731
35.785
35.833
35.874
35.908
35.935
35.956
35.973
35.986
35.996
36.006
36.015
36.024
36.034
36.045
36.057
36.07
36.083
36.096
36.108
36.117
36.125
36.13
36.133
36.133
36.13
36.125
36.117
36.11
36.102
36.095
36.087
36.08
36.072
36.064
36.056
36.048
36.041
36.034
36.027
36.022
36.017
36.012
36.007
36.001
35.992
35.98
35.966
35.949
35.928
35.905
35.88
35.854
35.827
35.802
35.779
35.759
35.743
35.729
35.723
35.728
35.745
35.773
35.809
35.849
35.889
35.927
35.958
35.98
35.993
35.995
35.989
35.974
35.954
35.929
35.903
35.875
35.849
35.823
35.799
35.777
35.756
35.737
35.719
35.702
35.686
35.671
35.656
35.641
35.627
35.613
35.599
35.586
35.572
35.558
35.543
35.529
35.515
35.501
35.487
35.472
35.457
35.442
35.429
35.417
35.407
35.398
35.391
35.385
35.379
35.375
35.37
35.366
35.361
35.356
35.349
35.34
35.331
35.321
35.309
35.297
35.284
35.27
35.255
35.239
35.222
35.204
35.184
35.163
35.142
35.121
35.1
35.079
35.061
35.044
35.029
35.017
35.007
35.0
34.996
34.994
34.993
34.994
34.995
34.997
34.999
35.001
35.002
35.004
35.005
35.008
35.011
35.016
35.021
35.027
35.032
35.037
35.039
35.04
35.039
35.035
35.028
35.018
35.007
34.993
34.978
34.962
34.946
34.931
34.916
34.902
34.889
34.876
34.863
34.849
34.834
34.817
34.799
34.781
34.765
34.749
34.734
34.721
34.71
34.699
34.691
34.684
34.679
34.675
34.672
34.669
34.666
34.664
34.663
34.663
34.664
34.667
34.671
34.676
34.682
34.687
34.693
34.698
34.703
34.707
34.711
34.716
34.722
34.732
34.746
34.765
34.792
34.828
34.876
34.936
35.009
35.094
35.187
35.286
35.389
35.493
35.595
35.694
35.786
35.871
35.947
36.014
36.071
36.119
36.159
36.192
36.217
36.237
36.252
36.261
36.265
36.266
36.264
36.258
36.251
36.243
36.234
36.226
36.218
36.211
36.206
36.203
36.202
36.201
36.2
36.199
36.198
36.197
36.196
36.194
36.193
36.192
36.193
36.194
36.197
36.2
36.204
36.207
36.21
36.211
36.21
36.207
36.203
36.198
36.192
36.185
36.177
36.169
36.159
36.149
36.137
36.124
36.111
36.096
36.081
36.065
36.048
36.031
36.014
35.997
35.983
35.971
35.962
35.958
35.958
35.962
35.97
35.981
35.993
36.006
36.019
36.03
36.039
36.046
36.051
36.054
36.055
36.054
36.051
36.046
36.039
36.03
36.019
36.006
35.991
35.974
35.954
35.932
35.907
35.881
35.853
35.824
35.795
35.766
35.74
35.716
35.695
35.677
35.66
35.645
35.63
35.615
35.6
35.585
35.57
35.556
35.543
35.532
35.523
35.516
35.512
35.509
35.507
35.507
35.507
35.509
35.51
35.51
35.509
35.507
35.502
35.495
35.487
35.476
35.464
35.45
35.435
35.419
35.403
35.385
35.366
35.345
35.322
35.299
35.275
35.251
35.229
35.209
35.192
35.178
35.167
35.16
35.156
35.155
35.156
35.159
35.162
35.166
35.169
35.17
35.17
35.167
35.162
35.155
35.145
35.134
35.122
35.109
35.096
35.084
35.073
35.062
35.051
35.04
35.029
35.017
35.004
34.991
34.978
34.966
34.955
34.944
34.936
34.929
34.922
34.917
34.912
34.907
34.901
34.893
34.884
34.874
34.861
34.847
34.831
34.815
34.798
34.782
34.767
34.754
34.743
34.735
34.726
34.714
34.699
34.682
34.665
34.65
34.638
34.63
34.628
34.633
34.646
34.667
34.697
34.736
34.784
34.84
34.902
34.97
35.042
35.117
35.193
35.27
35.347
35.423
35.499
35.573
35.647
35.72
35.79
35.858
35.924
35.986
36.043
36.094
36.141
36.181
36.217
36.249
36.277
36.302
36.325
36.346
36.364
36.379
36.391
36.4
36.407
36.413
36.417
36.419
36.421
36.421
36.422
36.423
36.425
36.426
36.428
36.429
36.431
36.434
36.437
36.44
36.444
36.447
36.449
36.45
36.448
36.446
36.441
36.435
36.43
36.425
36.421
36.418
36.416
36.413
36.409
36.404
36.397
36.389
36.38
36.369
36.357
36.344
36.331
36.319
36.307
36.297
36.288
36.28
36.273
36.265
36.256
36.246
36.236
36.225
36.213
36.202
36.191
36.182
36.174
36.167
36.162
36.157
36.153
36.148
36.141
36.13
36.116
36.101
36.086
36.071
36.059
36.05
36.043
36.039
36.038
36.038
36.04
36.042
36.044
36.045
36.044
36.041
36.035
36.026
36.014
35.999
35.981
35.961
35.94
35.919
35.897
35.876
35.855
35.834
35.813
35.793
35.772
35.752
35.732
35.713
35.695
35.677
35.662
35.647
35.634
35.622
35.61
35.598
35.585
35.571
35.556
35.541
35.525
35.509
35.495
35.481
35.469
35.459
35.451
35.445
35.44
35.436
35.432
35.427
35.42
35.411
35.4
35.388
35.373
35.358
35.342
35.326
35.311
35.297
35.284
35.273
35.264
35.257
35.252
35.249
35.245
35.242
35.238
35.233
35.228
35.221
35.213
35.204
35.194
35.182
35.169
35.156
35.143
35.129
35.115
35.098
35.08
35.059
35.036
35.01
34.984
34.956
34.93
34.904
34.88
34.859
34.841
34.826
34.815
34.808
34.804
34.802
34.803
34.806
34.809
34.813
34.817
34.82
34.823
34.826
34.828
34.831
34.834
34.836
34.839
34.844
34.852
34.865
34.884
34.91
34.944
34.987
35.038
35.099
35.169
35.248
35.335
35.429
35.528
35.631
35.735
35.839
35.938
36.031
36.117
36.194
36.261
36.32
36.37
36.412
36.445
36.472
36.492
36.508
36.52
36.529
36.536
36.541
36.545
36.547
36.548
36.547
36.546
36.545
36.545
36.546
36.55
36.555
36.562
36.57
36.579
36.588
36.596
36.603
36.61
36.615
36.62
36.624
36.628
36.631
36.634
36.636
36.637
36.636
36.634
36.63
36.624
36.616
36.606
36.594
36.579
36.564
36.549
36.534
36.519
36.503
36.488
36.471
36.454
36.435
36.415
36.395
36.373
36.352
36.332
36.314
36.298
36.287
36.28
36.277
36.277
36.28
36.285
36.292
36.3
36.307
36.315
36.321
36.326
36.33
36.334
36.336
36.336
36.337
36.336
36.333
36.328
36.319
36.307
36.293
36.274
36.254
36.232
36.209
36.186
36.163
36.141
36.119
36.098
36.078
36.058
36.038
36.018
35.997
35.977
35.957
35.938
35.92
35.904
35.89
35.877
35.866
35.855
35.845
35.833
35.821
35.807
35.792
35.775
35.758
35.738
35.716
35.691
35.664
35.636
35.609
35.582
35.555
35.531
35.508
35.487
35.469
35.454
35.441
35.428
35.417
35.406
35.397
35.39
35.384
35.379
35.376
35.373
35.37
35.366
35.358
35.347
35.331
35.311
35.286
35.26
35.232
35.205
35.18
35.158
35.139
35.125
35.115
35.11
35.108
35.109
35.112
35.115
35.118
35.121
35.121
35.121
35.119
35.116
35.112
35.106
35.1
35.094
35.086
35.078
35.069
35.058
35.046
35.033
35.018
35.002
34.986
34.968
34.951
