Trial 3:3back
33.058
33.011
32.966
32.922
32.88
32.839
32.798
32.755
32.71
32.664
32.618
32.572
32.527
32.485
32.445
32.408
32.377
32.351
32.334
32.326
32.328
32.344
32.376
32.427
32.505
32.614
32.759
32.945
33.176
33.454
33.781
34.158
34.583
35.053
35.562
36.104
36.672
37.255
37.843
38.426
38.993
39.533
40.036
40.494
40.903
41.257
41.553
41.791
41.971
42.093
42.164
42.185
42.163
42.103
42.01
41.89
41.747
41.586
41.411
41.225
41.031
40.832
40.63
40.428
40.227
40.027
39.829
39.633
39.44
39.248
39.059
38.872
38.689
38.509
38.331
38.153
37.975
37.797
37.62
37.442
37.264
37.086
36.908
36.729
36.55
36.372
36.195
36.018
35.844
35.673
35.507
35.347
35.194
35.05
34.915
34.792
34.68
34.581
34.496
34.426
34.371
34.33
34.304
34.291
34.292
34.305
34.331
34.369
34.419
34.48
34.55
34.629
34.715
34.807
34.905
35.006
35.109
35.211
35.312
35.409
35.501
35.588
35.667
35.737
35.799
35.849
35.889
35.917
35.933
35.939
35.933
35.918
35.893
35.86
35.82
35.771
35.715
35.65
35.579
35.501
35.419
35.332
35.242
35.149
35.054
34.958
34.86
34.762
34.665
34.568
34.473
34.38
34.29
34.201
34.115
34.031
33.949
33.869
33.791
33.714
33.639
33.564
33.489
33.417
33.346
33.276
33.208
33.141
33.076
33.012
32.95
32.891
32.833
32.779
32.726
32.677
32.631
32.589
32.549
32.513
32.48
32.45
32.421
32.395
32.37
32.345
32.32
32.293
32.264
32.234
32.204
32.173
32.143
32.114
32.087
32.065
32.048
32.039
32.041
32.057
32.092
32.15
32.236
32.357
32.517
32.721
32.974
33.277
33.632
34.039
34.496
35.0
35.543
36.119
36.719
37.333
37.951
38.561
39.153
39.715
40.24
40.718
41.143
41.512
41.821
42.07
42.26
42.393
42.472
42.499
42.481
42.423
42.33
42.209
42.064
41.901
41.725
41.542
41.353
41.162
40.971
40.783
40.596
40.413
40.233
40.056
39.881
39.707
39.533
39.361
39.188
39.017
38.847
38.679
38.513
38.348
38.186
38.025
37.866
37.709
37.552
37.396
37.241
37.086
36.932
36.779
36.628
36.478
36.33
36.186
36.044
35.906
35.773
35.645
35.523
35.408
35.301
35.202
35.114
35.037
34.971
34.918
34.877
34.848
34.832
34.828
34.836
34.856
34.886
34.927
34.978
35.037
35.105
35.179
35.258
35.339
35.42
35.5
35.578
35.651
35.719
35.781
35.836
35.882
35.919
35.946
35.964
35.973
35.973
35.965
35.949
35.923
35.889
35.846
35.795
35.736
35.67
35.597
35.518
35.434
35.346
35.255
35.163
35.071
34.979
34.888
34.798
34.707
34.616
34.523
34.431
34.338
34.246
34.156
34.066
33.977
33.889
33.802
33.717
33.634
33.552
33.473
33.396
33.32
33.247
33.176
33.107
33.042
32.979
32.919
32.861
32.805
32.751
32.698
32.648
32.599
32.553
32.508
32.466
32.424
32.384
32.346
32.309
32.275
32.245
32.217
32.193
32.172
32.154
32.139
32.127
32.117
32.109
32.101
32.092
32.081
32.068
32.053
32.036
32.02
32.003
31.987
31.972
31.96
31.951
31.949
31.955
31.972
32.004
32.055
32.129
32.23
32.364
32.537
32.752
33.013
33.324
33.684
34.093
34.549
35.048
35.583
36.148
36.733
37.33
37.928
38.518
39.087
39.628
40.131
40.588
40.992
41.339
41.626
41.856
42.027
42.142
42.205
42.219
42.19
42.124
42.027
41.904
41.759
41.598
41.425
41.243
41.056
40.866
40.676
40.486
40.299
40.114
39.93
39.749
39.568
39.39
39.213
39.039
38.867
38.699
38.533
38.37
38.21
38.053
37.898
37.745
37.592
37.439
37.285
37.13
36.975
36.818
36.662
36.505
36.351
36.199
36.049
35.903
35.76
35.622
35.489
35.363
35.245
35.135
35.036
34.947
34.87
34.804
34.751
34.708
34.676
34.656
34.646
34.649
34.664
34.691
34.73
34.78
34.84
34.908
34.981
35.059
35.14
35.223
35.306
35.388
35.466
35.542
35.612
35.677
35.735
35.783
35.822
35.85
35.867
35.873
35.868
35.852
35.828
35.795
35.754
35.707
35.653
35.593
35.528
35.459
35.385
35.307
35.225
35.141
35.054
34.967
34.88
34.792
34.704
34.615
34.526
34.438
34.349
34.261
34.175
34.088
34.003
33.918
33.834
33.75
33.666
33.582
33.498
33.413
33.33
33.247
33.167
33.088
33.011
32.937
32.865
32.797
32.732
32.671
32.613
32.559
32.508
32.463
32.423
32.388
32.356
32.327
32.3
32.272
32.245
32.219
32.194
32.169
32.146
32.124
32.103
32.084
32.067
32.052
32.04
32.031
32.024
32.018
32.013
32.008
32.005
32.003
32.0
31.998
31.995
31.994
31.992
31.991
31.989
31.986
31.983
31.978
31.972
31.966
31.96
31.955
31.952
31.951
31.953
31.96
31.975
32.002
32.044
32.106
32.192
32.307
32.457
32.645
32.876
33.153
33.479
33.851
34.272
34.736
35.241
35.78
36.344
36.925
37.514
38.099
38.671
39.22
39.735
40.208
40.634
41.005
41.319
41.574
41.772
41.913
42.002
42.042
42.037
41.993
41.917
41.812
41.684
41.536
41.374
41.2
41.017
40.828
40.636
40.442
40.247
40.053
39.86
39.667
39.476
39.286
39.098
38.913
38.73
38.549
38.372
38.197
38.025
37.853
37.683
37.514
37.346
37.179
37.013
36.847
36.681
36.514
36.348
36.184
36.021
35.861
35.705
35.553
35.407
35.268
35.137
35.014
34.9
34.796
34.701
34.615
34.539
34.475
34.422
34.384
34.36
34.351
34.357
34.378
34.412
34.458
34.514
34.579
34.652
34.732
34.816
34.904
34.995
35.087
35.178
35.267
35.351
35.429
35.499
35.56
35.614
35.658
35.694
35.722
35.739
35.746
35.744
35.73
35.708
35.675
35.634
35.585
35.529
35.466
35.398
35.325
35.247
35.167
35.085
35.0
34.914
34.826
34.736
34.645
34.554
34.464
34.377
34.291
34.207
34.124
34.043
33.962
33.883
33.804
33.726
33.649
33.572
33.496
33.42
33.345
33.271
33.198
33.127
33.057
32.987
32.918
32.851
32.785
32.721
32.659
32.599
32.54
32.484
32.429
32.377
32.327
32.28
32.237
32.198
32.163
32.133
32.107
32.085
32.065
32.047
32.032
32.02
32.011
32.005
32.001
32.0
32.0
32.0
32.002
32.004
32.008
32.012
32.017
32.022
32.028
32.033
32.039
32.045
32.052
32.058
32.064
32.069
32.073
32.074
32.073
32.068
32.06
32.049
32.037
32.025
32.015
32.006
31.999
31.995
31.995
32.0
32.012
32.035
32.07
32.121
32.192
32.287
32.411
32.569
32.766
33.006
33.291
33.623
34.003
34.429
34.899
35.407
35.946
36.509
37.087
37.67
38.248
38.811
39.351
39.857
40.322
40.738
41.101
41.409
41.659
41.851
41.988
42.071
42.105
42.094
42.043
41.957
41.842
41.703
41.544
41.369
41.184
40.989
40.789
40.585
40.379
40.173
39.968
39.767
39.574
39.391
39.216
39.047
38.882
38.718
38.552
38.384
38.21
38.031
37.846
37.654
37.458
37.258
37.056
36.854
36.652
36.454
36.259
36.069
35.884
35.705
35.532
35.365
35.207
35.058
34.919
34.79
34.674
34.568
34.475
34.395
34.328
34.275
34.235
34.209
34.196
34.196
34.209
34.233
34.269
34.315
34.37
34.435
34.508
34.588
34.673
34.763
34.856
34.952
35.048
35.143
35.236
35.326
35.409
35.487
35.56
35.631
35.7
35.765
35.822
35.867
35.899
35.915
35.914
35.898
35.866
35.818
35.757
35.684
35.6
35.509
35.411
35.309
35.205
35.099
34.995
34.891
34.79
34.692
34.596
34.503
34.412
34.323
34.236
34.15
34.067
33.984
33.903
33.824
33.746
33.67
33.596
33.522
33.447
33.373
33.299
33.224
33.15
33.075
33.0
32.925
32.849
32.774
32.7
32.628
32.558
32.493
32.432
32.375
32.323
32.275
32.232
32.193
32.157
32.125
32.096
32.07
32.048
32.028
32.008
31.986
31.964
31.941
31.918
31.896
31.874
31.854
31.837
31.821
31.809
31.8
31.795
31.794
31.796
31.802
31.81
31.821
31.834
31.847
31.86
31.873
31.885
31.896
31.907
31.917
31.926
31.934
31.942
31.947
31.952
31.954
31.955
31.954
31.951
31.947
31.943
31.939
31.935
31.932
31.931
31.932
31.938
31.951
31.973
32.008
32.059
32.133
32.234
32.368
32.539
32.752
33.009
33.315
33.671
34.075
34.527
35.022
35.554
36.117
36.7
37.295
37.891
38.478
39.044
39.582
40.082
40.539
40.947
41.301
41.599
41.84
42.025
42.155
42.233
42.262
42.248
42.193
42.103
41.981
41.834
41.665
41.479
41.28
41.073
40.861
40.646
40.43
40.215
40.003
39.794
39.587
39.383
39.181
38.981
38.783
38.587
38.393
38.202
38.012
37.823
37.634
37.446
37.256
37.066
36.876
36.686
36.498
36.311
36.127
35.945
35.766
35.591
35.423
35.261
35.107
34.962
34.825
34.697
34.578
34.471
34.375
34.292
34.221
34.164
34.122
34.094
34.081
34.082
34.096
34.123
34.163
34.215
34.278
34.351
34.431
34.519
34.613
34.711
34.813
34.917
35.02
35.121
35.219
35.314
35.403
35.487
35.563
35.63
35.688
35.736
35.771
35.795
35.806
35.804
35.791
35.765
35.73
35.685
35.633
35.573
35.507
35.436
35.36
35.28
35.197
35.112
35.025
34.937
34.847
34.756
34.665
34.574
34.483
34.392
34.301
34.211
34.123
34.035
33.95
33.865
33.782
33.701
33.622
33.544
33.469
33.395
33.323
33.251
33.181
33.11
33.039
32.969
32.897
32.826
32.755
32.686
32.618
32.552
32.488
32.425
32.365
32.306
32.25
32.197
32.146
32.098
32.053
32.011
31.971
31.935
31.903
31.873
31.846
31.822
31.801
31.782
31.768
31.757
31.748
31.742
31.738
31.735
31.734
31.733
31.734
31.737
31.741
31.746
31.753
31.761
31.768
31.769
31.763
31.751
31.735
31.718
31.703
31.691
31.683
31.682
31.687
31.699
31.716
31.739
31.765
31.794
31.823
31.852
31.879
31.902
31.922
31.938
31.952
31.964
31.976
31.988
32.003
32.021
32.046
32.084
32.14
32.218
32.326
32.468
32.65
32.876
33.149
33.471
33.843
34.265
34.733
35.245
35.793
36.369
36.965
37.571
38.177
38.773
39.349
39.894
40.401
40.863
41.273
41.628
41.926
42.164
42.345
42.469
42.539
42.559
42.533
42.468
42.368
42.239
42.086
41.912
41.724
41.523
41.314
41.099
40.879
40.656
40.432
40.208
39.984
39.761
39.54
39.322
39.107
38.894
38.683
38.474
38.266
38.06
37.855
37.652
37.45
37.25
37.051
36.854
36.66
36.467
36.276
36.087
35.901
35.718
35.538
35.362
35.192
35.028
34.872
34.725
34.589
34.464
34.352
34.253
34.167
34.095
34.038
33.995
33.967
33.954
33.956
33.971
33.999
34.038
34.089
34.151
34.222
34.302
34.391
34.487
34.59
34.697
34.807
34.918
35.029
35.137
35.242
35.342
35.436
35.522
35.599
35.667
35.722
35.766
35.799
35.82
35.828
35.825
35.81
35.783
35.746
35.7
35.646
35.584
35.515
35.441
35.363
35.281
35.195
35.107
35.018
34.927
34.836
34.746
34.657
34.568
34.479
34.39
34.301
34.211
34.121
34.029
33.938
33.846
33.755
33.664
33.573
33.484
33.395
33.307
33.219
33.132
33.047
32.964
32.885
32.808
32.735
32.666
32.601
32.54
32.482
32.427
32.376
32.327
32.281
32.235
32.192
32.149
32.109
32.071
32.035
32.002
31.97
31.941
31.912
31.886
31.862
31.841
31.823
31.809
31.798
31.791
31.786
31.785
31.786
31.789
31.792
31.796
31.8
31.804
31.805
31.806
31.805
31.803
31.799
31.795
31.789
31.783
31.777
31.771
31.768
31.767
31.77
31.776
31.788
31.807
31.833
31.87
31.919
31.986
32.072
32.182
32.322
32.495
32.706
32.959
33.259
33.607
34.004
34.45
34.94
35.47
36.033
36.622
37.226
37.836
38.441
39.031
39.595
40.125
40.614
41.055
41.444
41.776
42.051
42.268
42.428
42.533
42.587
42.592
42.554
42.477
42.366
42.227
42.062
41.878
41.679
41.467
41.249
41.025
40.798
40.57
40.343
40.116
39.892
39.67
39.45
39.232
39.016
38.802
38.589
38.376
38.164
37.953
37.743
37.534
37.325
37.117
36.91
36.704
36.5
36.299
36.099
35.9
35.705
35.513
35.326
35.146
34.972
34.806
34.65
34.506
34.374
34.255
34.151
34.061
33.986
33.927
33.881
33.85
33.832
33.828
33.837
33.859
33.893
33.94
33.999
34.069
34.149
34.237
34.333
34.434
34.538
34.644
34.752
34.859
34.965
35.069
35.17
35.266
35.356
35.439
35.513
35.578
35.634
35.68
35.715
35.739
35.751
35.752
35.741
35.719
35.687
35.645
35.595
35.537
35.473
35.403
35.33
35.252
35.172
35.088
35.0
34.905
34.802
34.692
34.578
34.463
34.348
34.236
34.128
34.025
33.928
33.837
33.751
33.671
33.595
33.525
33.456
33.39
33.325
33.26
33.196
33.131
33.066
33.0
32.933
32.865
32.798
32.73
32.664
32.6
32.538
32.479
32.421
32.367
32.315
32.266
32.221
32.179
32.142
32.108
32.076
32.046
32.018
31.991
31.964
31.938
31.914
31.89
31.868
31.848
31.829
31.811
31.795
31.782
31.77
31.761
31.754
31.75
31.749
31.75
31.751
31.754
31.756
31.759
31.763
31.766
31.771
31.777
31.786
31.799
31.819
31.848
31.89
31.949
32.029
32.135
32.271
32.441
32.651
32.903
33.203
33.553
33.954
34.406
34.905
35.445
36.02
36.62
37.237
37.859
38.476
39.079
39.656
40.2
40.703
41.158
41.561
41.906
42.193
42.421
42.59
42.703
42.763
42.774
42.741
42.67
42.563
42.427
42.266
42.084
41.887
41.677
41.458
41.233
41.003
40.773
40.542
40.312
40.082
39.853
39.626
39.401
39.176
38.953
38.731
38.512
38.294
38.08
37.868
37.657
37.45
37.244
37.042
36.841
36.642
36.445
36.249
36.054
35.861
35.671
35.484
35.303
35.129
34.961
34.803
34.654
34.516
34.39
34.278
34.18
34.097
34.03
33.98
33.946
33.928
33.925
33.936
33.961
33.998
34.048
34.11
34.181
34.261
34.35
34.444
34.542
34.644
34.748
34.853
34.959
35.064
35.166
35.266
35.363
35.454
35.538
35.613
35.679
35.733
35.775
35.804
35.821
35.825
35.818
35.8
35.772
35.736
35.692
35.642
35.585
35.522
35.454
35.381
35.304
35.224
35.142
35.057
34.972
34.885
34.796
34.707
34.617
34.527
34.437
34.347
34.258
34.17
34.082
33.993
33.905
33.816
33.726
33.637
33.547
33.459
33.371
33.286
33.202
33.12
33.04
32.964
32.891
32.821
32.754
32.689
32.627
32.568
32.513
32.461
32.412
32.366
32.324
32.283
32.245
32.209
32.176
32.148
32.123
32.1
32.08
32.062
32.046
32.03
32.015
32.0
31.983
31.966
31.948
31.93
31.911
31.892
31.873
31.855
31.837
31.82
31.803
31.789
31.776
31.767
31.761
31.759
31.761
31.769
31.783
31.807
31.842
31.892
31.961
32.051
32.169
32.319
32.507
32.736
33.012
33.336
33.712
34.14
34.617
35.139
35.699
36.291
36.904
37.529
38.156
38.773
39.37
39.937
40.465
40.948
41.378
41.751
42.065
42.317
42.509
42.643
42.721
42.749
42.732
42.675
42.582
42.458
42.31
42.141
41.957
41.76
41.554
41.341
41.124
40.904
40.683
40.462
40.242
40.022
39.803
39.584
39.365
39.147
38.929
38.711
38.493
38.275
38.057
37.839
37.623
37.407
37.194
36.983
36.774
36.567
36.362
36.161
35.963
35.769
35.581
35.399
35.223
35.055
34.896
34.748
34.61
34.484
34.372
34.272
34.185
34.111
34.05
34.004
33.972
33.953
33.947
33.954
33.974
34.007
34.052
34.107
34.173
34.249
34.334
34.428
34.529
34.635
34.746
34.859
34.973
35.087
35.199
35.307
35.409
35.504
35.591
35.668
35.735
35.789
35.831
35.861
35.878
35.883
35.876
35.858
35.829
35.789
35.738
35.679
35.612
35.538
35.458
35.372
35.283
35.191
35.097
35.002
34.906
34.81
34.714
34.619
34.525
34.43
34.336
34.243
34.151
34.059
33.969
33.88
33.792
33.704
33.616
33.529
33.443
33.357
33.273
33.191
33.112
33.036
32.961
32.888
32.816
32.746
32.678
32.611
32.546
32.482
32.42
32.359
32.299
32.24
32.184
32.13
32.079
32.032
31.988
31.948
31.91
31.874
31.84
31.807
31.776
31.746
31.72
31.698
31.679
31.662
31.646
31.633
31.619
31.606
31.593
31.579
31.565
31.549
31.533
31.515
31.497
31.479
31.462
31.446
31.433
31.422
31.414
31.409
31.41
31.416
31.431
31.458
31.499
31.558
31.64
31.749
31.891
32.071
32.295
32.565
32.886
33.258
33.683
34.158
34.679
35.24
35.834
36.452
37.084
37.721
38.351
38.965
39.552
40.104
40.612
41.071
41.474
41.819
42.104
42.329
42.495
42.604
42.659
42.665
42.626
42.548
42.435
42.293
42.126
41.94
41.738
41.525
41.305
41.081
40.854
40.625
40.397
40.169
39.942
39.715
39.49
39.265
39.04
38.817
38.596
38.376
38.159
37.945
37.732
37.521
37.31
37.1
36.891
36.682
36.474
36.267
36.06
35.855
35.651
35.451
35.256
35.067
34.887
34.716
34.557
34.411
34.279
34.162
34.06
33.976
33.908
33.857
33.822
33.803
33.8
33.812
33.839
33.88
33.935
34.004
34.084
34.175
34.275
34.384
34.499
34.619
34.741
34.865
34.988
35.109
35.225
35.336
35.44
35.537
35.626
35.706
35.776
35.835
35.884
35.921
35.947
35.961
35.964
35.954
35.933
35.902
35.86
35.809
35.751
35.687
35.619
35.547
35.471
35.392
35.309
35.223
35.134
35.044
34.952
34.858
34.764
34.668
34.572
34.476
34.38
34.284
34.19
34.097
34.007
33.919
33.834
33.751
33.671
33.592
33.516
33.441
33.367
33.294
33.222
33.152
33.084
33.019
32.956
32.896
32.839
32.785
32.732
32.682
32.634
32.59
32.55
32.514
32.482
32.453
32.425
32.399
32.373
32.346
32.319
32.292
32.265
32.239
32.212
32.186
32.16
32.135
32.11
32.088
32.065
32.039
32.011
31.982
31.956
31.938
31.934
31.949
31.989
32.059
32.163
32.308
32.496
32.731
33.015
33.349
33.734
34.166
34.642
35.157
35.704
36.275
36.862
37.455
38.046
38.624
39.181
39.708
40.198
40.645
41.042
41.387
41.679
41.915
42.098
42.228
42.31
42.345
42.339
42.294
42.215
42.105
41.968
41.808
41.629
41.432
41.223
41.004
40.778
40.548
40.315
40.081
39.849
39.618
39.39
39.165
38.943
38.722
38.502
38.282
38.062
37.842
37.622
37.403
37.185
36.968
36.752
36.538
36.324
36.111
35.899
35.689
35.48
35.275
35.075
34.88
34.693
34.516
34.351
34.2
34.063
33.942
33.839
33.754
33.688
33.642
33.615
33.607
33.618
33.646
33.69
33.748
33.82
33.905
34.003
34.113
34.232
34.359
34.492
34.629
34.766
34.903
35.038
35.17
35.296
35.416
35.528
35.631
35.724
35.806
35.875
35.93
35.972
36.0
36.013
36.013
36.001
35.98
35.953
35.919
35.878
35.83
35.775
35.712
35.643
35.568
35.487
35.4
35.308
35.212
35.113
35.01
34.905
34.797
34.687
34.577
34.468
34.361
34.256
34.154
34.057
33.963
33.874
33.789
33.708
33.63
33.556
33.485
33.416
33.349
33.284
33.22
33.157
33.095
33.033
32.97
32.907
32.844
32.783
32.723
32.665
32.609
32.555
32.502
32.451
32.401
32.354
32.31
32.268
32.228
32.191
32.155
32.122
32.093
32.066
32.044
32.024
32.008
31.995
31.986
31.983
31.988
32.005
32.036
32.089
32.169
32.282
32.434
32.629
32.874
33.171
33.522
33.927
34.385
34.892
35.443
36.029
36.642
37.27
37.905
38.533
39.145
39.729
40.278
40.781
41.234
41.631
41.969
42.247
42.467
42.628
42.733
42.787
42.792
42.753
42.676
42.566
42.428
42.268
42.09
41.897
41.695
41.486
41.274
41.059
40.844
40.63
40.417
40.206
39.996
39.79
39.585
39.383
39.182
38.98
38.778
38.574
38.37
38.165
37.961
37.758
37.557
37.357
37.159
36.962
36.767
36.573
36.382
36.194
36.01
35.829
35.655
35.486
35.326
35.174
35.032
34.9
34.778
34.668
34.57
34.484
34.412
34.354
34.31
34.279
34.263
34.261
34.272
34.297
34.335
34.387
34.453
34.53
34.618
34.714
34.816
34.923
35.033
35.144
35.254
35.361
35.465
35.563
35.653
35.735
35.806
35.866
35.915
35.951
35.975
35.987
35.987
35.975
35.953
35.922
35.882
35.834
35.779
35.718
35.651
35.579
35.502
35.421
35.337
35.249
35.159
35.066
34.972
34.875
34.777
34.677
34.577
34.478
34.379
34.281
34.183
34.086
33.991
33.896
33.803
33.711
33.622
33.535
33.449
33.366
33.286
33.208
33.133
33.062
32.993
32.926
32.862
32.798
32.738
32.681
32.627
32.578
32.531
32.488
32.447
32.409
32.374
32.341
32.31
32.282
32.254
32.228
32.202
32.176
32.15
32.123
32.094
32.063
32.032
32.0
31.969
31.939
31.912
31.888
31.868
31.852
31.842
31.839
31.844
31.858
31.884
31.924
31.981
32.059
32.165
32.304
32.481
32.703
32.974
33.297
33.674
