Trial 3:3back
36.954
36.909
36.858
36.803
36.744
36.682
36.619
36.554
36.49
36.428
36.367
36.309
36.255
36.205
36.157
36.112
36.068
36.025
35.981
35.937
35.892
35.848
35.806
35.764
35.725
35.688
35.654
35.622
35.595
35.572
35.553
35.539
35.529
35.523
35.521
35.521
35.523
35.526
35.528
35.527
35.524
35.518
35.509
35.497
35.481
35.461
35.438
35.411
35.38
35.344
35.303
35.258
35.208
35.154
35.095
35.033
34.969
34.903
34.835
34.765
34.696
34.629
34.564
34.504
34.448
34.399
34.359
34.328
34.305
34.29
34.277
34.262
34.244
34.22
34.191
34.157
34.119
34.075
34.029
33.979
33.927
33.872
33.816
33.759
33.702
33.646
33.59
33.536
33.483
33.432
33.384
33.342
33.307
33.283
33.275
33.286
33.32
33.38
33.471
33.593
33.747
33.932
34.145
34.383
34.64
34.912
35.19
35.47
35.744
36.007
36.253
36.478
36.678
36.852
36.999
37.122
37.222
37.302
37.365
37.413
37.449
37.474
37.49
37.497
37.496
37.487
37.472
37.45
37.424
37.392
37.355
37.312
37.265
37.213
37.158
37.101
37.043
36.987
36.935
36.887
36.845
36.81
36.781
36.759
36.74
36.725
36.709
36.693
36.674
36.65
36.621
36.587
36.546
36.499
36.446
36.387
36.323
36.255
36.183
36.109
36.034
35.96
35.886
35.815
35.746
35.68
35.617
35.559
35.504
35.453
35.407
35.366
35.33
35.299
35.271
35.247
35.226
35.207
35.189
35.172
35.156
35.141
35.127
35.115
35.104
35.095
35.089
35.084
35.082
35.081
35.081
35.081
35.079
35.076
35.071
35.061
35.047
35.026
34.998
34.962
34.918
34.866
34.806
34.74
34.668
34.593
34.517
34.44
34.365
34.292
34.221
34.153
34.09
34.032
33.98
33.934
33.893
33.857
33.823
33.792
33.762
33.732
33.702
33.672
33.64
33.609
33.577
33.545
33.511
33.476
33.44
33.402
33.362
33.321
33.279
33.238
33.197
33.157
33.118
33.08
33.044
33.01
32.981
32.956
32.94
32.937
32.949
32.982
33.038
33.122
33.236
33.381
33.556
33.76
33.991
34.243
34.513
34.793
35.079
35.365
35.643
35.91
36.161
36.391
36.599
36.783
36.944
37.081
37.196
37.289
37.364
37.42
37.461
37.487
37.502
37.508
37.506
37.497
37.485
37.469
37.45
37.428
37.403
37.374
37.342
37.307
37.269
37.229
37.188
37.147
37.106
37.068
37.032
36.999
36.969
36.942
36.918
36.895
36.874
36.856
36.835
36.81
36.778
36.736
36.687
36.63
36.568
36.502
36.434
36.365
36.297
36.229
36.164
36.101
36.04
35.981
35.924
35.87
35.817
35.766
35.717
35.672
35.63
35.592
35.557
35.528
35.502
35.481
35.461
35.444
35.427
35.41
35.392
35.373
35.354
35.335
35.318
35.302
35.288
35.277
35.269
35.265
35.262
35.259
35.258
35.257
35.256
35.251
35.243
35.229
35.209
35.181
35.144
35.099
35.048
34.99
34.929
34.866
34.803
34.74
34.678
34.617
34.558
34.501
34.444
34.388
34.335
34.283
34.233
34.184
34.137
34.092
34.05
34.01
33.973
33.939
33.909
33.881
33.856
33.832
33.808
33.783
33.756
33.726
33.691
33.651
33.607
33.559
33.508
33.455
33.402
33.348
33.295
33.245
33.201
33.164
33.139
33.129
33.137
33.168
33.222
33.303
33.411
33.548
33.712
33.902
34.114
34.347
34.595
34.853
35.116
35.378
35.635
35.882
36.113
36.326
36.519
36.691
36.841
36.97
37.079
37.169
37.241
37.296
37.338
37.365
37.382
37.388
37.387
37.378
37.365
37.349
37.33
37.309
37.286
37.26
37.231
37.2
37.168
37.134
37.1
37.065
37.031
36.999
36.971
36.945
36.921
36.9
36.878
36.855
36.829
36.8
36.767
36.73
36.689
36.646
36.599
36.551
36.499
36.446
36.389
36.328
36.265
36.199
36.133
36.066
35.999
35.934
35.871
35.812
35.755
35.699
35.646
35.594
35.545
35.497
35.45
35.407
35.366
35.329
35.295
35.264
35.237
35.214
35.196
35.183
35.176
35.176
35.184
35.197
35.214
35.235
35.257
35.278
35.297
35.312
35.321
35.323
35.318
35.307
35.289
35.264
35.232
35.193
35.147
35.096
35.04
34.982
34.921
34.862
34.804
34.747
34.69
34.635
34.581
34.529
34.478
34.428
34.38
34.334
34.289
34.245
34.202
34.16
34.117
34.074
34.031
33.988
33.945
33.901
33.857
33.812
33.768
33.723
33.677
33.632
33.587
33.543
33.504
33.472
33.45
33.438
33.432
33.429
33.427
33.422
33.413
33.396
33.372
33.342
33.308
33.276
33.251
33.238
33.243
33.272
33.329
33.416
33.535
33.687
33.869
34.076
34.306
34.554
34.815
35.085
35.357
35.627
35.889
36.138
36.37
36.582
36.772
36.939
37.081
37.199
37.294
37.367
37.419
37.455
37.473
37.478
37.469
37.45
37.422
37.388
37.347
37.302
37.255
37.206
37.157
37.109
37.065
37.025
36.99
36.958
36.93
36.905
36.881
36.859
36.835
36.81
36.784
36.756
36.726
36.693
36.659
36.622
36.585
36.545
36.506
36.466
36.426
36.386
36.345
36.304
36.26
36.215
36.167
36.117
36.062
36.002
35.937
35.866
35.789
35.708
35.624
35.54
35.458
35.38
35.308
35.244
35.19
35.147
35.116
35.097
35.091
35.097
35.113
35.137
35.169
35.204
35.241
35.275
35.305
35.329
35.342
35.346
35.34
35.325
35.304
35.277
35.246
35.211
35.174
35.134
35.092
35.05
35.007
34.967
34.927
34.888
34.85
34.813
34.775
34.737
34.697
34.655
34.612
34.567
34.519
34.469
34.416
34.362
34.305
34.245
34.182
34.119
34.054
33.988
33.923
33.859
33.799
33.742
33.688
33.639
33.595
33.556
33.521
33.491
33.464
33.441
33.419
33.398
33.378
33.356
33.333
33.307
33.281
33.254
33.23
33.21
33.196
33.192
33.203
33.233
33.288
33.369
33.479
33.62
33.79
33.988
34.211
34.454
34.712
34.978
35.247
35.512
35.769
36.012
36.239
36.445
36.629
36.79
36.925
37.034
37.118
37.178
37.217
37.235
37.236
37.222
37.197
37.162
37.118
37.07
37.019
36.966
36.913
36.863
36.816
36.776
36.742
36.715
36.694
36.678
36.666
36.655
36.642
36.626
36.604
36.576
36.542
36.503
36.458
36.408
36.356
36.3
36.242
36.182
36.123
36.064
36.006
35.951
35.898
35.847
35.798
35.749
35.699
35.646
35.59
35.53
35.467
35.4
35.332
35.263
35.195
35.13
35.068
35.012
34.962
34.919
34.883
34.854
34.835
34.824
34.821
34.827
34.84
34.858
34.881
34.905
34.93
34.954
34.978
35.0
35.02
35.038
35.054
35.066
35.073
35.073
35.067
35.054
35.032
35.002
34.966
34.924
34.877
34.827
34.773
34.717
34.658
34.599
34.538
34.48
34.423
34.37
34.319
34.273
34.232
34.195
34.167
34.148
34.136
34.129
34.121
34.109
34.091
34.065
34.032
33.991
33.942
33.887
33.827
33.765
33.702
33.64
33.579
33.521
33.464
33.409
33.356
33.306
33.258
33.213
33.172
33.137
33.107
33.086
33.076
33.081
33.104
33.151
33.225
33.329
33.464
33.631
33.829
34.053
34.301
34.566
34.842
35.12
35.395
35.661
35.912
36.144
36.356
36.545
36.712
36.856
36.977
37.077
37.158
37.221
37.269
37.302
37.324
37.334
37.336
37.328
37.313
37.292
37.266
37.235
37.201
37.164
37.126
37.087
37.049
37.011
36.974
36.939
36.907
36.879
36.854
36.832
36.813
36.795
36.778
36.758
36.736
36.708
36.676
36.639
36.598
36.552
36.504
36.453
36.399
36.342
36.283
36.222
36.158
36.092
36.024
35.957
35.888
35.82
35.753
35.687
35.624
35.565
35.511
35.46
35.414
35.373
35.334
35.299
35.268
35.241
35.219
35.199
35.182
35.169
35.159
35.152
35.147
35.145
35.146
35.151
35.158
35.167
35.179
35.193
35.209
35.224
35.238
35.248
35.252
35.25
35.243
35.229
35.209
35.18
35.144
35.098
35.043
34.981
34.913
34.842
34.77
34.698
34.63
34.568
34.512
34.462
34.419
34.382
34.348
34.318
34.291
34.265
34.24
34.214
34.189
34.16
34.129
34.095
34.056
34.013
33.967
33.919
33.869
33.816
33.762
33.707
33.653
33.598
33.544
33.49
33.437
33.385
33.335
33.288
33.246
33.211
33.186
33.173
33.177
33.199
33.245
33.317
33.417
33.547
33.705
33.891
34.101
34.332
34.579
34.838
35.102
35.367
35.627
35.877
36.113
36.333
36.535
36.717
36.879
37.021
37.141
37.242
37.325
37.39
37.438
37.473
37.494
37.502
37.499
37.484
37.459
37.424
37.383
37.337
37.288
37.239
37.193
37.152
37.116
37.088
37.067
37.052
37.041
37.033
37.025
37.014
36.999
36.981
36.957
36.928
36.894
36.857
36.815
36.771
36.725
36.679
36.633
36.588
36.543
36.498
36.453
36.408
36.362
36.316
36.267
36.217
36.164
36.106
36.043
35.977
35.907
35.834
35.762
35.691
35.624
35.564
35.512
35.467
35.431
35.403
35.386
35.376
35.374
35.378
35.386
35.398
35.411
35.425
35.436
35.444
35.45
35.453
35.452
35.449
35.443
35.436
35.428
35.417
35.403
35.386
35.367
35.343
35.317
35.288
35.258
35.227
35.196
35.165
35.134
35.104
35.074
35.042
35.009
34.974
34.937
34.896
34.853
34.805
34.754
34.698
34.638
34.573
34.505
34.434
34.362
34.292
34.225
34.164
34.109
34.062
34.022
33.992
33.969
33.952
33.94
33.932
33.926
33.919
33.911
33.899
33.883
33.862
33.834
33.799
33.758
33.713
33.666
33.621
33.582
33.553
33.539
33.543
33.571
33.625
33.707
33.818
33.959
34.129
34.326
34.547
34.788
35.043
35.306
35.572
35.835
36.087
36.326
36.546
36.744
36.919
37.068
37.192
37.292
37.369
37.425
37.462
37.483
37.49
37.486
37.474
37.455
37.432
37.406
37.379
37.351
37.323
37.295
37.269
37.24
37.21
37.176
37.141
37.104
37.066
37.027
36.988
36.951
36.916
36.883
36.852
36.823
36.796
36.77
36.744
36.717
36.688
36.657
36.621
36.581
36.536
36.486
36.431
36.371
36.307
36.238
36.164
36.087
36.008
35.929
35.851
35.777
35.708
35.647
35.591
35.542
35.5
35.463
35.43
35.401
35.374
35.35
35.33
35.311
35.293
35.279
35.268
35.26
35.255
35.253
35.254
35.26
35.27
35.285
35.303
35.324
35.346
35.367
35.384
35.395
35.397
35.391
35.374
35.347
35.311
35.266
35.213
35.153
35.09
35.024
34.959
34.895
34.835
34.779
34.728
34.681
34.638
34.599
34.563
34.528
34.492
34.456
34.419
34.379
34.337
34.294
34.249
34.203
34.158
34.111
34.064
34.016
33.967
33.917
33.868
33.82
33.773
33.728
33.686
33.647
33.611
33.579
33.551
33.529
33.513
33.505
33.508
33.522
33.551
33.597
33.664
33.75
33.858
33.988
34.138
34.306
34.49
34.686
34.892
35.104
35.32
35.536
35.748
35.954
36.15
36.336
36.507
36.663
36.802
36.924
37.029
37.116
37.184
37.236
37.27
37.287
37.286
37.27
37.24
37.199
37.15
37.097
37.043
36.991
36.94
36.892
36.848
36.808
36.774
36.746
36.724
36.705
36.689
36.676
36.665
36.652
36.637
36.619
36.597
36.571
36.538
36.501
36.459
36.415
36.369
36.322
36.274
36.227
36.179
36.13
36.081
36.03
35.978
35.923
35.866
35.805
35.74
35.672
35.603
35.533
35.465
35.4
35.341
35.288
35.241
35.202
35.171
35.146
35.128
35.117
35.111
35.109
35.112
35.117
35.124
35.133
35.14
35.146
35.15
35.151
35.149
35.146
35.14
35.133
35.124
35.112
35.097
35.077
35.054
35.028
35.0
34.971
34.941
34.911
34.882
34.853
34.822
34.788
34.753
34.714
34.672
34.627
34.577
34.522
34.464
34.402
34.336
34.266
34.194
34.12
34.047
33.977
33.91
33.851
33.799
33.756
33.72
33.692
33.672
33.658
33.649
33.643
33.64
33.636
33.631
33.624
33.613
33.597
33.574
33.544
33.507
33.462
33.413
33.359
33.306
33.256
33.214
33.183
33.168
33.172
33.2
33.256
33.342
33.462
33.614
33.798
34.011
34.25
34.509
34.782
35.063
35.344
35.618
35.88
36.125
36.348
36.547
36.72
36.867
36.987
37.081
37.153
37.203
37.234
37.249
37.251
37.243
37.227
37.207
37.185
37.161
37.137
37.114
37.093
37.073
37.054
37.036
37.016
36.995
36.972
36.947
36.919
36.889
36.859
36.83
36.803
36.776
36.752
36.729
36.707
36.685
36.663
36.638
36.612
36.583
36.551
36.514
36.473
36.427
36.376
36.319
36.257
36.191
36.122
36.051
35.981
35.914
35.849
35.789
35.734
35.685
35.641
35.603
35.569
35.538
35.509
35.48
35.45
35.419
35.388
35.355
35.324
35.294
35.265
35.24
35.218
35.201
35.189
35.183
35.182
35.186
35.195
35.207
35.22
35.233
35.243
35.248
35.246
35.235
35.215
35.187
35.149
35.105
35.054
35.0
34.943
34.885
34.826
34.769
34.715
34.664
34.618
34.576
34.539
34.505
34.473
34.442
34.409
34.375
34.338
34.299
34.257
34.214
34.168
34.122
34.074
34.025
33.977
33.929
33.881
33.833
33.787
33.743
33.701
33.66
33.622
33.586
33.552
33.521
33.493
33.467
33.446
33.428
33.415
33.403
33.393
33.384
33.375
33.364
33.352
33.341
33.333
33.331
33.339
33.361
33.4
33.461
33.546
33.657
33.796
33.963
34.155
34.37
34.603
34.852
35.11
35.37
35.628
35.877
36.111
36.326
36.518
36.684
36.826
36.944
37.041
37.12
37.181
37.224
37.249
37.258
37.254
37.237
37.212
37.181
37.147
37.112
37.078
37.049
37.022
36.997
36.971
36.943
36.91
36.872
36.829
36.779
36.727
36.672
36.618
36.566
36.519
36.479
36.448
36.425
36.41
36.402
36.398
36.397
36.395
36.391
36.381
36.365
36.341
36.309
36.268
36.218
36.162
36.099
36.03
35.957
35.881
35.804
35.73
35.659
35.595
35.538
35.489
35.448
35.413
35.386
35.363
35.346
35.333
35.324
35.318
35.315
35.313
35.313
35.313
35.312
35.311
35.306
35.3
35.293
35.286
35.278
35.27
35.263
35.256
35.251
35.246
35.24
35.232
35.224
35.213
35.201
35.187
35.172
35.153
35.131
35.104
35.07
35.031
34.984
34.93
34.87
34.804
34.735
34.664
34.594
34.526
34.463
34.404
34.351
34.303
34.26
34.224
34.194
34.169
34.149
34.133
34.118
34.101
34.081
34.057
34.027
33.99
33.945
33.895
33.843
33.79
33.737
33.686
33.638
33.593
33.551
33.513
33.477
33.445
33.415
33.389
33.366
33.346
33.33
33.32
33.317
33.322
33.339
33.371
33.421
33.49
33.583
33.699
33.838
33.998
34.177
34.374
34.583
34.801
35.023
35.247
35.466
35.679
35.881
36.071
36.248
36.409
36.556
36.687
36.802
36.9
36.982
37.047
37.096
37.13
37.148
37.152
37.144
37.123
37.091
37.05
37.001
36.945
36.884
36.821
36.759
36.702
36.651
36.608
36.574
36.548
36.53
36.516
36.505
36.496
36.485
36.472
36.455
36.434
36.408
36.378
36.343
36.305
36.264
36.221
36.177
36.134
36.091
36.048
36.006
35.964
35.92
35.875
35.827
35.775
35.719
35.658
35.592
35.521
35.447
35.372
35.298
35.227
35.16
35.101
35.05
35.009
34.978
34.958
34.947
34.946
34.954
34.969
34.989
35.013
35.04
35.068
35.094
35.118
35.136
35.148
35.151
35.146
35.132
35.112
35.086
35.057
35.024
34.991
34.955
34.918
34.881
34.842
34.802
34.761
34.721
34.681
34.642
34.605
34.568
34.532
34.497
34.461
34.423
34.384
34.343
34.3
34.255
34.208
34.16
34.113
34.07
34.03
33.993
33.959
33.925
33.891
33.857
33.823
33.79
33.756
33.723
33.691
33.659
33.627
33.593
33.559
33.524
33.487
33.449
33.41
33.367
33.324
33.28
33.239
33.201
33.17
33.15
33.144
33.155
33.187
33.242
33.321
33.426
33.555
33.708
33.882
34.076
34.287
34.51
34.744
34.982
35.221
35.457
35.685
35.903
36.106
36.293
36.46
36.605
36.726
36.822
36.894
36.942
36.967
36.972
36.96
36.934
36.897
36.853
36.804
36.754
36.708
36.665
36.629
36.601
36.58
36.566
36.557
36.551
36.546
36.539
36.528
36.512
36.491
36.465
36.434
36.398
36.36
36.318
36.275
36.23
36.185
36.142
36.1
36.06
36.021
35.983
35.945
35.907
35.867
35.826
35.781
35.733
35.679
35.619
35.555
35.487
35.418
35.349
35.282
35.218
35.159
35.106
35.061
35.023
34.993
34.972
34.958
34.953
34.954
34.961
34.975
34.993
35.016
35.04
35.063
35.085
35.105
35.12
35.129
35.132
35.13
35.122
35.11
35.092
35.07
35.044
35.012
34.976
34.934
34.889
34.842
34.794
34.748
34.705
34.665
34.628
34.593
34.561
34.531
34.5
34.47
34.439
34.406
34.373
34.336
34.296
34.252
34.206
34.155
34.1
34.041
33.981
33.921
33.861
33.801
33.744
33.689
33.638
33.59
33.546
33.507
33.473
33.443
33.419
33.397
33.379
33.363
33.348
33.332
33.314
33.296
33.274
33.251
33.226
33.2
33.173
33.145
33.117
33.094
33.078
33.072
33.081
33.109
33.162
33.243
33.354
33.495
33.667
33.869
34.096
34.345
34.61
34.886
35.167
35.448
35.722
35.986
36.233
36.458
36.658
36.829
36.969
37.078
37.156
37.208
37.235
37.241
37.232
37.211
37.182
37.148
37.113
37.079
37.049
37.023
37.0
36.98
36.964
36.95
36.934
36.917
36.898
36.875
36.848
36.818
36.785
36.75
36.713
36.676
36.641
36.608
36.578
36.553
36.532
36.515
36.5
36.487
36.472
36.455
36.432
36.402
36.366
36.321
36.27
36.211
36.147
36.078
36.007
35.934
35.861
35.789
35.721
35.658
35.601
35.551
35.508
35.472
35.443
35.419
35.4
35.385
35.375
35.368
35.364
35.362
35.359
35.355
35.35
35.343
35.337
35.33
35.323
35.317
35.313
35.312
35.313
35.314
35.313
35.308
35.297
35.281
35.259
35.233
35.201
35.165
35.125
35.082
35.038
34.992
34.946
34.899
34.853
34.806
34.76
34.714
34.667
34.618
34.569
34.519
34.471
34.425
34.382
34.343
34.308
34.277
34.25
34.225
34.202
34.18
34.158
34.135
34.112
34.086
34.059
34.029
33.997
33.963
33.925
33.886
33.844
33.802
33.759
33.717
33.677
33.639
33.602
33.566
33.531
33.495
33.461
33.426
33.393
33.36
33.329
33.301
33.277
33.26
33.251
33.251
33.264
33.292
33.339
33.408
33.499
33.615
33.758
33.926
34.116
34.326
34.552
34.791
35.037
35.287
35.535
35.777
36.009
36.228
36.432
36.618
36.785
36.932
37.059
37.167
37.255
37.324
37.374
37.407
37.424
37.425
37.414
37.393
37.365
37.333
37.298
37.261
37.225
37.19
37.158
37.129
37.104
37.083
37.065
37.05
37.036
37.021
37.004
36.983
36.958
36.929
36.896
36.86
36.821
36.781
36.739
36.697
36.656
36.616
36.577
36.539
36.502
36.467
36.432
36.397
36.362
36.325
36.285
36.242
36.194
36.143
36.087
36.027
35.963
35.896
35.829
35.763
35.698
35.637
35.581
35.529
35.485
35.448
35.419
35.397
35.382
35.373
35.37
35.372
35.379
35.39
35.404
35.42
35.436
35.45
35.463
35.471
35.474
35.471
35.461
35.446
35.424
35.396
35.363
35.325
35.282
35.235
35.185
35.133
35.081
35.032
34.985
34.942
34.905
34.871
34.841
34.811
34.781
34.75
34.716
34.677
34.634
34.586
34.535
34.479
34.42
34.359
34.295
34.23
34.166
34.103
34.044
33.99
33.942
33.899
33.863
33.832
33.805
33.781
33.759
33.736
33.714
33.692
33.669
33.644
33.618
33.589
33.558
33.525
33.492
33.461
33.433
33.413
33.403
33.408
33.431
33.474
33.539
33.629
33.743
33.883
34.045
34.23
34.436
34.659
34.894
35.138
35.385
35.629
35.866
36.09
36.297
36.485
36.649
36.79
36.908
37.001
37.071
37.12
37.15
37.163
37.163
37.152
37.133
37.109
37.082
37.053
37.023
36.992
36.963
36.933
36.903
36.874
36.844
36.813
36.782
36.749
36.716
36.681
36.646
36.611
36.577
36.545
36.516
36.489
36.464
36.439
36.413
36.386
36.356
36.323
36.287
36.246
36.201
36.149
36.093
36.03
35.963
35.89
35.812
35.731
35.649
35.568
35.491
35.42
35.357
35.303
35.259
35.225
35.2
35.183
35.173
35.168
35.167
35.166
35.167
35.168
35.167
35.164
35.16
35.153
35.145
35.136
35.125
35.114
35.105
35.097
35.092
35.091
35.093
35.096
35.1
35.104
35.107
35.106
35.101
35.091
35.076
35.056
35.03
34.998
34.961
34.918
34.871
34.82
34.766
34.709
34.651
34.592
34.532
34.471
34.411
34.351
34.291
34.231
34.174
34.119
34.068
34.02
33.977
33.94
33.908
33.881
33.858
33.838
33.82
33.802
33.784
33.764
33.743
33.718
33.69
33.659
33.624
33.585
33.544
33.501
33.456
33.411
33.367
33.326
33.29
33.262
33.245
33.243
33.259
33.296
33.36
33.451
33.572
33.721
33.9
34.105
34.331
34.575
34.831
35.094
35.358
35.62
35.872
36.111
36.333
36.533
36.71
36.862
36.989
37.09
37.168
37.224
37.259
37.278
37.284
37.282
37.271
37.255
37.236
37.215
37.194
