Trial 3:3back
36.525
36.5
36.477
36.457
36.439
36.424
36.412
36.403
36.396
36.392
36.39
36.39
36.39
36.391
36.391
36.392
36.391
36.389
36.384
36.377
36.368
36.355
36.339
36.32
36.297
36.272
36.244
36.214
36.182
36.149
36.115
36.08
36.043
36.006
35.968
35.928
35.888
35.848
35.808
35.768
35.73
35.692
35.656
35.621
35.587
35.553
35.518
35.484
35.449
35.414
35.378
35.341
35.305
35.267
35.23
35.192
35.154
35.116
35.08
35.044
35.01
34.977
34.945
34.915
34.885
34.857
34.829
34.801
34.775
34.749
34.724
34.699
34.674
34.65
34.625
34.601
34.576
34.552
34.527
34.501
34.477
34.452
34.428
34.404
34.381
34.359
34.336
34.315
34.294
34.274
34.253
34.232
34.211
34.19
34.169
34.148
34.128
34.108
34.088
34.07
34.052
34.035
34.018
34.003
33.988
33.974
33.96
33.947
33.932
33.917
33.9
33.882
33.861
33.839
33.815
33.789
33.761
33.732
33.703
33.673
33.643
33.613
33.584
33.558
33.534
33.516
33.504
33.5
33.507
33.527
33.56
33.611
33.679
33.765
33.87
33.992
34.132
34.288
34.458
34.638
34.828
35.023
35.221
35.419
35.614
35.801
35.979
36.145
36.297
36.432
36.55
36.65
36.73
36.792
36.836
36.864
36.877
36.877
36.867
36.847
36.821
36.791
36.756
36.719
36.681
36.643
36.607
36.572
36.539
36.508
36.48
36.455
36.433
36.414
36.398
36.386
36.376
36.369
36.364
36.36
36.357
36.354
36.352
36.348
36.344
36.339
36.331
36.321
36.309
36.292
36.273
36.251
36.227
36.201
36.176
36.151
36.127
36.105
36.086
36.069
36.056
36.045
36.038
36.033
36.031
36.032
36.035
36.04
36.047
36.055
36.063
36.07
36.075
36.077
36.077
36.074
36.068
36.059
36.046
36.031
36.012
35.989
35.964
35.937
35.909
35.879
35.849
35.818
35.787
35.755
35.722
35.688
35.653
35.616
35.579
35.54
35.501
35.461
35.421
35.381
35.342
35.303
35.266
35.23
35.195
35.161
35.128
35.097
35.066
35.035
35.005
34.975
34.944
34.913
34.881
34.85
34.818
34.785
34.752
34.718
34.684
34.65
34.616
34.582
34.55
34.52
34.492
34.467
34.444
34.423
34.404
34.387
34.37
34.355
34.34
34.326
34.311
34.296
34.28
34.264
34.248
34.231
34.213
34.193
34.172
34.151
34.129
34.106
34.083
34.061
34.039
34.018
33.998
33.98
33.963
33.948
33.935
33.925
33.916
33.909
33.903
33.899
33.895
33.891
33.888
33.885
33.882
33.878
33.874
33.869
33.864
33.859
33.854
33.847
33.84
33.833
33.826
33.819
33.812
33.806
33.801
33.797
33.797
33.8
33.808
33.823
33.848
33.883
33.932
33.996
34.076
34.173
34.287
34.417
34.562
34.72
34.89
35.068
35.252
35.438
35.624
35.805
35.98
36.146
36.3
36.439
36.562
36.667
36.753
36.819
36.865
36.891
36.898
36.889
36.864
36.826
36.778
36.723
36.662
36.599
36.535
36.472
36.413
36.358
36.31
36.269
36.235
36.209
36.191
36.181
36.178
36.181
36.189
36.202
36.217
36.234
36.252
36.269
36.284
36.295
36.302
36.305
36.302
36.293
36.279
36.26
36.235
36.208
36.178
36.146
36.113
36.08
36.048
36.018
35.991
35.968
35.948
35.933
35.921
35.914
35.911
35.913
35.919
35.929
35.942
35.959
35.978
35.998
36.018
36.036
36.053
36.067
36.078
36.085
36.089
36.089
36.085
36.077
36.065
36.049
36.029
36.006
35.98
35.951
35.92
35.888
35.853
35.818
35.782
35.746
35.709
35.673
35.637
35.602
35.567
35.534
35.501
35.468
35.435
35.403
35.37
35.337
35.304
35.27
35.236
35.202
35.168
35.134
35.101
35.07
35.039
35.01
34.982
34.954
34.927
34.9
34.873
34.846
34.819
34.792
34.767
34.742
34.718
34.695
34.674
34.653
34.633
34.614
34.596
34.579
34.562
34.545
34.529
34.513
34.497
34.481
34.466
34.451
34.436
34.423
34.411
34.399
34.388
34.377
34.367
34.355
34.342
34.328
34.313
34.298
34.282
34.266
34.25
34.235
34.221
34.207
34.194
34.182
34.169
34.155
34.139
34.123
34.105
34.085
34.063
34.038
34.012
33.983
33.953
33.921
33.89
33.858
33.828
33.799
33.773
33.749
33.73
33.714
33.704
33.701
33.707
33.722
33.748
33.786
33.838
33.903
33.983
34.077
34.185
34.305
34.437
34.58
34.731
34.889
35.05
35.213
35.376
35.535
35.69
35.837
35.974
36.1
36.211
36.308
36.389
36.456
36.509
36.549
36.577
36.594
36.602
36.602
36.594
36.58
36.561
36.538
36.512
36.484
36.456
36.427
36.398
36.369
36.342
36.317
36.293
36.271
36.252
36.234
36.219
36.207
36.196
36.187
36.179
36.172
36.165
36.158
36.149
36.139
36.127
36.113
36.096
36.078
36.058
36.036
36.014
35.99
35.966
35.943
35.921
35.901
35.884
35.871
35.862
35.857
35.856
35.859
35.866
35.877
35.89
35.904
35.919
35.933
35.946
35.957
35.965
35.97
35.97
35.965
35.957
35.944
35.927
35.906
35.883
35.858
35.831
35.803
35.775
35.747
35.719
35.692
35.665
35.637
35.61
35.581
35.55
35.519
35.486
35.452
35.417
35.381
35.345
35.307
35.269
35.231
35.192
35.154
35.115
35.076
35.039
35.002
34.966
34.93
34.896
34.862
34.829
34.796
34.764
34.734
34.704
34.674
34.646
34.619
34.592
34.565
34.539
34.513
34.488
34.463
34.44
34.418
34.396
34.375
34.355
34.335
34.317
34.299
34.282
34.267
34.252
34.238
34.224
34.209
34.194
34.177
34.158
34.139
34.118
34.095
34.07
34.045
34.018
33.991
33.964
33.937
33.911
33.885
33.86
33.837
33.815
33.796
33.779
33.765
33.755
33.749
33.748
33.753
33.764
33.784
33.812
33.851
33.9
33.962
34.037
34.124
34.225
34.339
34.465
34.602
34.75
34.904
35.065
35.228
35.392
35.554
35.712
35.863
36.005
36.136
36.256
36.362
36.455
36.534
36.598
36.65
36.688
36.714
36.728
36.733
36.728
36.716
36.697
36.674
36.647
36.618
36.587
36.556
36.527
36.499
36.474
36.451
36.43
36.412
36.395
36.379
36.365
36.351
36.338
36.325
36.312
36.298
36.283
36.268
36.251
36.234
36.216
36.197
36.175
36.152
36.126
36.099
36.071
36.041
36.011
35.981
35.952
35.925
35.9
35.879
35.861
35.847
35.837
35.83
35.826
35.826
35.829
35.835
35.843
35.853
35.864
35.876
35.886
35.895
35.902
35.907
35.908
35.906
35.901
35.893
35.882
35.868
35.852
35.833
35.812
35.788
35.762
35.734
35.704
35.673
35.641
35.608
35.575
35.541
35.507
35.472
35.437
35.403
35.368
35.335
35.302
35.27
35.238
35.207
35.177
35.148
35.119
35.09
35.061
35.031
35.0
34.969
34.937
34.904
34.871
34.838
34.806
34.773
34.742
34.711
34.682
34.655
34.629
34.604
34.581
34.56
34.539
34.519
34.5
34.482
34.465
34.449
34.433
34.418
34.403
34.388
34.373
34.357
34.339
34.321
34.303
34.283
34.264
34.245
34.226
34.207
34.187
34.167
34.148
34.127
34.105
34.082
34.058
34.034
34.009
33.985
33.962
33.941
33.922
33.906
33.894
33.887
33.885
33.89
33.901
33.921
33.951
33.991
34.042
34.104
34.18
34.27
34.374
34.492
34.624
34.769
34.925
35.088
35.258
35.431
35.603
35.772
35.933
36.086
36.227
36.354
36.466
36.562
36.642
36.705
36.753
36.787
36.808
36.818
36.818
36.81
36.794
36.773
36.748
36.721
36.692
36.662
36.634
36.605
36.578
36.552
36.528
36.506
36.486
36.467
36.451
36.436
36.424
36.415
36.407
36.402
36.397
36.394
36.391
36.388
36.383
36.377
36.368
36.356
36.341
36.323
36.303
36.281
36.256
36.23
36.202
36.173
36.144
36.116
36.088
36.063
36.04
36.021
36.007
35.995
35.988
35.985
35.984
35.987
35.991
35.996
36.0
36.005
36.007
36.008
36.007
36.002
35.995
35.985
35.973
35.958
35.94
35.92
35.898
35.874
35.848
35.821
35.792
35.762
35.73
35.697
35.664
35.63
35.595
35.561
35.527
35.493
35.459
35.426
35.394
35.363
35.332
35.302
35.272
35.242
35.21
35.178
35.144
35.109
35.073
35.036
34.999
34.961
34.924
34.886
34.849
34.813
34.778
34.745
34.714
34.684
34.655
34.626
34.599
34.573
34.547
34.522
34.496
34.472
34.448
34.424
34.4
34.377
34.353
34.329
34.305
34.28
34.256
34.232
34.208
34.186
34.165
34.146
34.128
34.113
34.098
34.084
34.07
34.056
34.041
34.025
34.008
33.988
33.967
33.943
33.918
33.89
33.861
33.83
33.799
33.768
33.738
33.709
33.682
33.659
33.639
33.624
33.615
33.613
33.619
33.634
33.659
33.696
33.744
33.806
33.883
33.974
34.08
34.201
34.334
34.48
34.635
34.798
34.965
35.133
35.301
35.463
35.619
35.765
35.898
36.019
36.124
36.213
36.285
36.342
36.383
36.409
36.421
36.421
36.412
36.394
36.371
36.343
36.312
36.279
36.244
36.209
36.175
36.141
36.11
36.08
36.053
36.029
36.006
35.986
35.968
35.951
35.936
35.923
35.911
35.901
35.893
35.886
35.879
35.873
35.866
35.858
35.849
35.838
35.825
35.808
35.788
35.766
35.74
35.712
35.682
35.651
35.621
35.591
35.562
35.536
35.512
35.492
35.474
35.461
35.451
35.444
35.44
35.44
35.441
35.444
35.448
35.453
35.456
35.459
35.46
35.459
35.456
35.451
35.442
35.431
35.417
35.399
35.378
35.353
35.325
35.294
35.261
35.227
35.192
35.155
35.118
35.08
35.042
35.004
34.968
34.932
34.898
34.864
34.832
34.799
34.767
34.735
34.703
34.671
34.64
34.608
34.577
34.546
34.516
34.486
34.456
34.426
34.397
34.367
34.337
34.306
34.275
34.245
34.215
34.185
34.156
34.128
34.102
34.077
34.053
34.031
34.009
33.988
33.967
33.947
33.926
33.906
33.887
33.868
33.848
33.829
33.809
33.789
33.769
33.75
33.73
33.711
33.693
33.675
33.657
33.64
33.624
33.608
33.592
33.577
33.562
33.547
33.534
33.521
33.51
33.498
33.487
33.474
33.46
33.444
33.426
33.405
33.382
33.357
33.33
33.303
33.275
33.247
33.22
33.196
33.173
33.154
33.138
33.127
33.12
33.118
33.123
33.135
33.156
33.187
33.23
33.284
33.351
33.432
33.525
33.633
33.752
33.883
34.025
34.175
34.33
34.489
34.648
34.803
34.954
35.097
35.229
35.35
35.458
35.552
35.63
35.694
35.743
35.778
35.799
35.808
35.807
35.797
35.78
35.755
35.726
35.691
35.654
35.615
35.575
35.536
35.498
35.463
35.431
35.402
35.377
35.356
35.337
35.321
35.308
35.298
35.29
35.285
35.28
35.276
35.273
35.269
35.265
35.26
35.253
35.244
35.233
35.22
35.205
35.189
35.172
35.154
35.135
35.116
35.097
35.079
35.062
35.047
35.034
35.023
35.016
35.01
35.007
35.007
35.009
35.013
35.02
35.027
35.035
35.043
35.051
35.058
35.064
35.067
35.069
35.067
35.063
35.055
35.044
35.03
35.012
34.992
34.969
34.944
34.918
34.89
34.862
34.833
34.804
34.775
34.747
34.719
34.691
34.664
34.637
34.61
34.583
34.557
34.53
34.504
34.476
34.449
34.421
34.393
34.364
34.335
34.306
34.277
34.248
34.22
34.192
34.165
34.138
34.111
34.085
34.06
34.035
34.012
33.989
33.967
33.947
33.927
33.908
33.89
33.873
33.855
33.837
33.82
33.802
33.784
33.766
33.748
33.73
33.712
33.695
33.679
33.663
33.648
33.633
33.619
33.606
33.593
33.581
33.568
33.555
33.542
33.529
33.515
33.501
33.487
33.471
33.454
33.437
33.419
33.4
33.38
33.36
33.338
33.317
33.295
33.273
33.251
33.23
33.208
33.188
33.167
33.148
33.131
33.116
33.106
33.1
33.1
33.107
33.121
33.143
33.174
33.215
33.266
33.329
33.403
33.489
33.585
33.691
33.806
33.927
34.055
34.186
34.317
34.448
34.574
34.694
34.806
34.909
35.0
35.079
35.145
35.197
35.238
35.266
35.283
35.291
35.29
35.281
35.266
35.247
35.224
35.198
35.17
35.141
35.112
35.083
35.056
35.03
35.006
34.985
34.965
34.949
34.934
34.921
34.908
34.896
34.883
34.871
34.857
34.843
34.829
34.813
34.796
34.779
34.761
34.741
34.721
34.698
34.674
34.648
34.621
34.593
34.565
34.538
34.512
34.488
34.468
34.45
34.436
34.426
34.421
34.419
34.421
34.426
34.434
34.445
34.458
34.471
34.485
34.497
34.509
34.518
34.524
34.528
34.527
34.524
34.517
34.507
34.494
34.479
34.461
34.441
34.419
34.396
34.371
34.344
34.318
34.291
34.264
34.238
34.212
34.188
34.163
34.14
34.117
34.094
34.071
34.048
34.024
33.999
33.974
33.948
33.921
33.894
33.866
33.838
33.809
33.781
33.754
33.729
33.705
33.684
33.664
33.646
33.629
33.613
33.598
33.583
33.569
33.554
33.54
33.526
33.511
33.497
33.483
33.468
33.454
33.44
33.426
33.412
33.398
33.385
33.371
33.359
33.346
33.335
33.323
33.312
33.301
33.292
33.283
33.275
33.268
33.261
33.253
33.244
33.234
33.222
33.209
33.193
33.175
33.155
33.133
33.11
33.086
33.062
33.039
33.015
32.992
32.971
32.951
32.934
32.92
32.911
32.906
32.906
32.913
32.926
32.946
32.975
33.014
33.063
33.123
33.195
33.278
33.371
33.474
33.586
33.705
33.831
33.961
34.093
34.226
34.358
34.485
34.607
34.721
34.825
34.916
34.995
35.06
35.112
35.15
35.176
35.19
35.194
35.188
35.176
35.158
35.135
35.111
35.085
35.059
35.033
35.009
34.986
34.965
34.945
34.928
34.913
34.9
34.889
34.879
34.87
34.864
34.858
34.854
34.851
34.849
34.848
34.846
34.843
34.839
34.834
34.828
34.82
34.809
34.797
34.782
34.765
34.746
34.724
34.701
34.677
34.653
34.63
34.609
34.589
34.572
34.558
34.547
34.539
34.536
34.536
34.539
34.546
34.555
34.566
34.578
34.592
34.604
34.616
34.626
34.633
34.638
34.639
34.636
34.63
34.621
34.609
34.594
34.577
34.558
34.539
34.519
34.499
34.479
34.461
34.443
34.426
34.41
34.394
34.379
34.363
34.346
34.328
34.31
34.29
34.269
34.248
34.227
34.204
34.181
34.158
34.135
34.112
34.09
34.069
34.049
34.029
34.011
33.995
33.98
33.966
33.954
33.943
33.932
33.92
33.909
33.896
33.882
33.868
33.853
33.838
33.824
33.81
33.797
33.785
33.774
33.765
33.756
33.749
33.743
33.737
33.732
33.726
33.72
33.713
33.705
33.696
33.686
33.675
33.663
33.65
33.638
33.626
33.616
33.607
33.599
33.592
33.586
33.582
33.579
33.577
33.575
33.573
33.57
33.566
33.561
33.554
33.545
33.533
33.52
33.504
33.487
33.468
33.447
33.426
33.404
33.383
33.363
33.344
33.328
33.315
33.304
33.298
33.298
33.305
33.321
33.346
33.384
33.433
33.495
33.57
33.657
33.756
33.866
33.986
34.114
34.249
34.389
34.531
34.674
34.814
34.951
35.081
35.203
35.315
35.415
35.503
35.577
35.638
35.686
35.72
35.743
35.754
35.755
35.749
35.736
35.719
35.698
35.675
35.651
35.627
35.604
35.583
35.563
35.545
35.53
35.518
35.51
35.504
35.5
35.499
35.499
35.501
35.503
35.506
35.508
35.509
35.51
35.509
35.508
35.505
35.501
35.495
35.487
35.478
35.467
35.453
35.438
35.421
35.403
35.384
35.366
35.347
35.329
35.312
35.296
35.283
35.272
35.263
35.257
35.254
35.254
35.256
35.26
35.267
35.274
35.284
35.294
35.304
35.314
35.323
35.33
35.336
35.339
35.34
35.337
35.33
35.32
35.306
35.289
35.27
35.248
35.225
35.202
35.178
35.155
35.132
35.109
35.087
35.066
35.047
35.03
35.016
35.003
34.992
34.982
34.973
34.964
34.955
34.946
34.936
34.925
34.912
34.898
34.884
34.868
34.852
34.835
34.819
34.802
34.786
34.771
34.757
34.744
34.731
34.72
34.709
34.698
34.687
34.676
34.665
34.653
34.64
34.628
34.616
34.604
34.593
34.583
34.574
34.566
34.559
34.553
34.546
34.54
34.534
34.527
34.52
34.512
34.504
34.495
34.485
34.473
34.458
34.44
34.419
34.394
34.365
34.33
34.292
34.25
34.206
34.161
34.116
34.072
34.03
33.991
33.955
33.924
33.898
33.877
33.861
33.851
33.844
33.842
33.843
33.845
33.849
33.853
33.855
33.856
33.853
33.848
33.838
33.825
33.808
33.787
33.763
33.738
33.711
33.685
33.659
33.636
33.616
33.601
33.592
33.59
33.597
33.614
33.643
33.686
33.742
33.814
33.902
34.005
34.122
34.253
34.394
34.544
34.701
34.861
35.021
35.178
35.33
35.472
35.603
35.72
35.821
35.904
35.971
36.02
36.052
36.07
36.073
36.064
36.046
36.019
35.987
35.95
35.911
35.873
35.837
35.804
35.775
35.751
35.732
35.717
35.708
35.703
35.701
35.703
35.707
35.713
35.721
35.73
35.739
35.748
35.756
35.762
35.766
35.767
35.765
35.76
35.752
35.741
35.728
35.713
35.697
35.68
35.661
35.641
35.621
35.601
35.582
35.564
35.547
35.532
35.519
35.51
35.503
35.499
35.498
35.5
35.506
35.515
35.526
35.539
35.554
35.57
35.586
35.602
35.617
35.631
35.642
35.649
35.654
35.654
35.651
35.643
35.631
35.614
35.593
35.569
35.542
35.512
35.481
35.448
35.414
35.38
35.346
35.314
35.282
35.251
35.221
35.193
35.165
35.138
35.11
35.083
35.055
35.026
34.997
34.968
34.939
34.909
34.88
34.852
34.824
34.798
34.772
34.747
34.722
34.698
34.674
34.65
34.626
34.602
34.576
34.55
34.524
34.498
34.472
34.447
34.423
34.402
34.382
34.365
34.35
34.337
34.326
34.317
34.308
34.302
34.296
34.29
34.285
34.28
34.274
34.268
34.261
34.254
34.245
34.237
34.228
34.219
34.211
34.202
34.194
34.186
34.179
34.173
34.167
34.162
34.157
34.152
34.147
34.142
34.137
34.132
34.127
34.122
34.118
34.113
34.109
34.105
34.102
34.098
34.094
34.089
34.083
34.076
34.067
34.056
34.044
34.03
34.015
33.999
33.982
33.965
33.948
33.932
33.917
33.903
33.892
33.884
33.88
33.882
33.891
33.91
33.939
33.98
34.034
34.102
34.183
34.278
34.386
34.504
34.632
34.768
34.909
35.054
35.199
35.344
35.484
35.618
35.744
35.859
35.964
36.055
36.134
36.199
36.25
36.287
36.312
36.324
36.325
36.316
36.3
36.278
36.251
36.22
36.188
36.154
36.12
36.086
36.055
36.025
35.998
35.974
35.953
35.935
35.92
35.907
35.897
35.889
35.882
35.877
35.872
35.868
35.864
35.86
35.855
35.848
35.84
35.829
35.816
35.8
35.783
35.762
35.74
35.717
35.693
35.67
35.647
35.625
35.606
35.59
35.578
35.571
35.567
35.568
35.574
35.584
35.597
35.614
35.633
35.653
35.674
35.695
35.714
35.731
35.745
35.756
35.763
35.765
35.764
35.759
35.749
35.736
35.718
35.698
35.676
35.653
35.629
35.605
35.582
35.559
35.536
35.514
35.493
35.473
35.453
35.433
35.413
35.393
35.373
35.352
35.33
35.307
35.284
35.26
35.235
35.211
35.186
35.161
35.137
35.112
35.088
35.064
35.041
35.019
34.997
34.977
34.958
34.939
34.922
34.904
34.885
34.867
34.848
34.829
34.811
34.792
34.773
34.756
34.739
34.723
34.709
34.696
34.684
34.673
34.663
34.653
34.644
34.635
34.625
34.616
34.607
34.598
34.589
34.579
34.568
34.557
34.544
34.532
34.519
34.506
34.493
34.48
34.467
34.453
34.44
34.426
34.411
34.396
34.381
34.364
34.347
34.328
34.31
34.29
34.271
34.252
34.233
34.216
34.2
34.187
34.175
34.166
34.161
34.16
34.164
34.175
34.193
34.218
34.253
34.298
34.354
34.42
34.497
34.585
34.684
34.792
34.909
35.032
35.16
35.289
35.419
35.546
35.669
35.785
35.892
35.989
36.074
36.147
36.206
36.253
36.286
36.307
36.317
36.316
36.306
36.289
36.267
36.242
36.214
36.186
36.157
36.13
36.104
36.079
36.056
36.034
36.013
35.993
35.973
35.954
35.934
35.915
35.897
35.878
35.861
35.843
35.826
35.809
35.792
35.775
35.758
35.739
35.72
35.701
35.681
35.66
35.639
35.618
35.597
35.576
35.557
35.539
35.523
35.51
35.498
35.49
35.484
35.481
35.48
35.482
35.487
35.494
35.503
35.514
35.527
35.541
35.556
35.57
35.584
35.597
35.607
35.614
35.619
35.62
35.618
35.612
35.603
35.59
35.573
35.554
35.532
35.507
35.48
35.451
35.42
35.389
35.357
35.326
35.296
35.266
35.237
35.209
35.181
35.154
35.127
35.101
35.075
35.049
35.024
34.999
34.974
34.95
34.926
34.902
34.88
34.857
34.835
34.813
34.79
34.766
34.741
34.716
34.691
34.666
34.642
34.618
34.596
34.575
34.556
34.538
34.521
34.506
34.493
34.48
34.468
34.457
34.446
34.435
34.425
34.414
34.404
34.394
34.385
34.376
34.367
34.357
34.347
34.337
34.327
34.316
34.305
34.292
34.279
34.264
34.249
34.232
34.214
34.195
34.177
34.16
34.144
34.13
34.118
34.108
34.1
34.095
34.092
34.093
34.097
34.105
34.118
34.137
