Trial 3:3back
37.198
37.413
37.606
37.777
37.923
38.046
38.146
38.223
38.28
38.317
38.338
38.343
38.335
38.316
38.287
38.25
38.205
38.155
38.099
38.037
37.972
37.901
37.826
37.746
37.662
37.572
37.478
37.379
37.275
37.169
37.063
36.957
36.854
36.756
36.664
36.577
36.497
36.423
36.353
36.287
36.222
36.16
36.098
36.037
35.976
35.913
35.849
35.783
35.717
35.652
35.587
35.525
35.466
35.41
35.359
35.311
35.268
35.231
35.199
35.172
35.149
35.131
35.117
35.108
35.102
35.1
35.101
35.106
35.112
35.119
35.124
35.127
35.127
35.121
35.111
35.096
35.076
35.053
35.027
34.998
34.967
34.933
34.897
34.858
34.818
34.777
34.734
34.691
34.647
34.603
34.56
34.518
34.477
34.439
34.404
34.372
34.341
34.312
34.283
34.254
34.223
34.191
34.155
34.116
34.074
34.028
33.981
33.932
33.883
33.832
33.779
33.725
33.669
33.612
33.552
33.493
33.435
33.379
33.325
33.273
33.224
33.178
33.133
33.091
33.053
33.019
32.992
32.974
32.971
32.984
33.017
33.074
33.156
33.267
33.406
33.574
33.769
33.991
34.236
34.503
34.785
35.079
35.38
35.683
35.986
36.282
36.569
36.844
37.104
37.346
37.569
37.769
37.946
38.098
38.226
38.33
38.411
38.469
38.506
38.526
38.53
38.52
38.497
38.464
38.422
38.372
38.316
38.255
38.192
38.127
38.062
37.996
37.929
37.861
37.791
37.717
37.64
37.56
37.477
37.39
37.301
37.208
37.112
37.016
36.919
36.823
36.727
36.633
36.539
36.448
36.358
36.27
36.185
36.102
36.023
35.945
35.87
35.798
35.728
35.662
35.599
35.542
35.489
35.441
35.398
35.357
35.319
35.285
35.253
35.225
35.199
35.175
35.153
35.132
35.111
35.089
35.067
35.043
35.018
34.993
34.968
34.941
34.912
34.881
34.848
34.814
34.779
34.744
34.71
34.676
34.641
34.606
34.569
34.529
34.488
34.445
34.401
34.356
34.311
34.265
34.22
34.175
34.131
34.089
34.047
34.005
33.962
33.918
33.873
33.826
33.776
33.725
33.673
33.62
33.565
33.511
33.456
33.401
33.346
33.291
33.235
33.179
33.123
33.066
33.009
32.953
32.898
32.843
32.79
32.738
32.687
32.637
32.586
32.535
32.483
32.431
32.379
32.329
32.283
32.243
32.214
32.198
32.199
32.219
32.261
32.325
32.413
32.523
32.657
32.814
32.992
33.19
33.406
33.637
33.879
34.129
34.383
34.636
34.885
35.126
35.356
35.573
35.776
35.963
36.131
36.28
36.41
36.521
36.612
36.683
36.736
36.771
36.791
36.796
36.788
36.768
36.738
36.699
36.652
36.598
36.54
36.477
36.412
36.346
36.28
36.214
36.149
36.085
36.021
35.957
35.893
35.827
35.758
35.688
35.615
35.54
35.463
35.384
35.306
35.228
35.15
35.073
34.996
34.92
34.844
34.77
34.696
34.624
34.554
34.486
34.421
34.36
34.301
34.247
34.198
34.154
34.115
34.08
34.05
34.022
33.997
33.974
33.954
33.936
33.919
33.905
33.891
33.879
33.866
33.854
33.841
33.828
33.815
33.801
33.784
33.765
33.745
33.722
33.698
33.672
33.647
33.621
33.595
33.569
33.543
33.516
33.488
33.459
33.43
33.4
33.368
33.335
33.301
33.265
33.229
33.193
33.156
33.118
33.08
33.041
33.001
32.96
32.92
32.88
32.842
32.805
32.769
32.734
32.699
32.664
32.629
32.594
32.558
32.52
32.479
32.436
32.392
32.346
32.3
32.253
32.206
32.158
32.11
32.063
32.017
31.972
31.93
31.89
31.855
31.824
31.799
31.78
31.767
31.763
31.768
31.782
31.807
31.844
31.895
31.961
32.043
32.142
32.256
32.386
32.528
32.682
32.845
33.014
33.184
33.353
33.518
33.676
33.827
33.969
34.102
34.224
34.337
34.438
34.526
34.601
34.662
34.71
34.746
34.77
34.787
34.795
34.798
34.795
34.787
34.777
34.763
34.745
34.723
34.698
34.669
34.635
34.597
34.555
34.511
34.466
34.419
34.372
34.325
34.278
34.231
34.183
34.134
34.084
34.034
33.982
33.929
33.875
33.821
33.767
33.715
33.664
33.615
33.568
33.522
33.477
33.432
33.389
33.348
33.309
33.274
33.242
33.214
33.192
33.174
33.162
33.153
33.148
33.143
33.14
33.136
33.131
33.124
33.117
33.109
33.1
33.09
33.079
33.067
33.055
33.042
33.029
33.017
33.005
32.994
32.98
32.964
32.947
32.93
32.913
32.896
32.881
32.867
32.855
32.842
32.83
32.818
32.805
32.79
32.773
32.756
32.737
32.717
32.698
32.679
32.66
32.641
32.621
32.599
32.574
32.547
32.517
32.486
32.454
32.422
32.39
32.359
32.33
32.302
32.275
32.248
32.222
32.196
32.17
32.145
32.12
32.096
32.076
32.058
32.043
32.029
32.014
31.998
31.98
31.958
31.934
31.907
31.878
31.848
31.818
31.791
31.768
31.751
31.743
31.745
31.758
31.785
31.826
31.882
31.954
32.042
32.143
32.257
32.38
32.51
32.645
32.784
32.923
33.06
33.194
33.323
33.445
33.559
33.663
33.757
33.84
33.912
33.973
34.023
34.063
34.093
34.113
34.125
34.13
34.128
34.122
34.111
34.097
34.082
34.064
34.047
34.028
34.009
33.987
33.963
33.936
33.906
33.874
33.84
33.808
33.776
33.747
33.719
33.693
33.668
33.643
33.617
33.591
33.565
33.538
33.511
33.484
33.456
33.427
33.398
33.369
33.34
33.312
33.284
33.256
33.227
33.199
33.172
33.147
33.122
33.099
33.078
33.058
33.042
33.028
33.017
33.01
33.007
33.005
33.007
33.009
33.013
33.015
33.017
33.018
33.019
33.019
33.018
33.017
33.017
33.017
33.017
33.016
33.014
33.011
33.006
33.0
32.993
32.985
32.978
32.97
32.963
32.955
32.946
32.935
32.922
32.907
32.891
32.873
32.854
32.835
32.816
32.797
32.78
32.763
32.748
32.732
32.717
32.7
32.682
32.664
32.645
32.626
32.606
32.587
32.567
32.546
32.525
32.503
32.482
32.461
32.44
32.421
32.403
32.386
32.371
32.357
32.345
32.335
32.328
32.322
32.317
32.313
32.308
32.303
32.297
32.29
32.282
32.272
32.261
32.248
32.235
32.225
32.219
32.219
32.228
32.248
32.28
32.327
32.389
32.468
32.563
32.674
32.799
32.935
33.078
33.224
33.371
33.515
33.653
33.785
33.906
34.017
34.116
34.203
34.279
34.345
34.399
34.442
34.476
34.501
34.516
34.523
34.523
34.517
34.508
34.495
34.481
34.464
34.447
34.428
34.408
34.388
34.367
34.346
34.325
34.305
34.283
34.261
34.237
34.212
34.187
34.161
34.134
34.107
34.08
34.053
34.026
33.998
33.97
33.942
33.912
33.881
33.85
33.819
33.79
33.763
33.739
33.717
33.699
33.683
33.669
33.656
33.644
33.635
33.627
33.622
33.62
33.621
33.623
33.625
33.628
33.63
33.633
33.635
33.636
33.636
33.635
33.632
33.629
33.624
33.618
33.611
33.602
33.593
33.584
33.575
33.566
33.556
33.547
33.537
33.528
33.517
33.507
33.496
33.486
33.478
33.472
33.466
33.461
33.455
33.446
33.434
33.419
33.401
33.381
33.36
33.339
33.319
33.3
33.283
33.267
33.252
33.239
33.226
33.214
33.204
33.195
33.188
33.181
33.174
33.166
33.158
33.149
33.139
33.126
33.111
33.095
33.078
33.06
33.042
33.025
33.008
32.991
32.974
32.956
32.938
32.919
32.898
32.876
32.853
32.829
32.803
32.775
32.747
32.72
32.695
32.674
32.657
32.646
32.641
32.642
32.65
32.668
32.695
32.733
32.783
32.845
32.919
33.005
33.102
33.211
33.329
33.455
33.586
33.719
33.852
33.983
34.11
34.231
34.345
34.45
34.546
34.632
34.707
34.769
34.821
34.863
34.896
34.921
34.939
34.951
34.957
34.957
34.95
34.938
34.92
34.899
34.875
34.848
34.821
34.794
34.766
34.738
34.711
34.683
34.658
34.633
34.611
34.589
34.567
34.544
34.52
34.494
34.468
34.441
34.412
34.384
34.354
34.325
34.296
34.267
34.238
34.209
34.181
34.154
34.128
34.102
34.078
34.056
34.037
34.021
34.009
34.001
33.997
33.995
33.995
33.996
33.997
33.998
33.998
33.998
33.997
33.995
33.994
33.992
33.991
33.991
33.992
33.994
33.997
34.0
34.002
34.001
33.998
33.993
33.985
33.975
33.964
33.951
33.938
33.926
33.914
33.902
33.891
33.881
33.871
33.861
33.852
33.842
33.833
33.823
33.814
33.806
33.798
33.79
33.783
33.774
33.765
33.755
33.744
33.729
33.712
33.692
33.669
33.643
33.614
33.584
33.554
33.524
33.494
33.465
33.436
33.408
33.381
33.353
33.327
33.303
33.28
33.261
33.245
33.232
33.221
33.211
33.203
33.195
33.187
33.178
33.169
33.158
33.146
33.134
33.121
33.109
33.095
33.082
33.068
33.054
33.039
33.024
33.011
33.001
32.994
32.993
32.999
33.013
33.037
33.072
33.12
33.182
33.256
33.343
33.442
33.551
33.669
33.794
33.925
34.06
34.198
34.336
34.471
34.6
34.722
34.834
34.935
35.023
35.098
35.161
35.212
35.251
35.278
35.296
35.304
35.305
35.3
35.289
35.274
35.257
35.237
35.216
35.192
35.168
35.142
35.114
35.084
35.053
35.02
34.986
34.95
34.915
34.88
34.847
34.815
34.785
34.755
34.725
34.695
34.663
34.629
34.593
34.556
34.518
34.479
34.441
34.403
34.368
34.334
34.302
34.272
34.244
34.22
34.198
34.178
34.161
34.146
34.135
34.128
34.125
34.126
34.132
34.141
34.152
34.164
34.177
34.19
34.201
34.21
34.216
34.22
34.221
34.221
34.219
34.217
34.215
34.213
34.211
34.209
34.208
34.207
34.205
34.203
34.2
34.196
34.191
34.184
34.177
34.169
34.161
34.154
34.149
34.144
34.139
34.133
34.125
34.113
34.097
34.077
34.055
34.031
34.007
33.982
33.958
33.935
33.912
33.89
33.869
33.85
33.833
33.816
33.799
33.782
33.767
33.751
33.736
33.722
33.709
33.699
33.69
33.681
33.672
33.663
33.652
33.639
33.624
33.607
33.588
33.566
33.543
33.52
33.498
33.478
33.458
33.439
33.421
33.403
33.385
33.367
33.351
33.336
33.324
33.315
33.311
33.313
33.323
33.344
33.377
33.423
33.484
33.559
33.649
33.751
33.864
33.987
34.119
34.256
34.396
34.537
34.677
34.814
34.945
35.068
35.181
35.282
35.37
35.443
35.501
35.543
35.571
35.585
35.586
35.579
35.563
35.542
35.516
35.487
35.458
35.43
35.404
35.378
35.355
35.332
35.309
35.286
35.262
35.237
35.212
35.186
35.16
35.132
35.105
35.076
35.047
35.015
34.982
34.947
34.91
34.87
34.828
34.784
34.739
34.694
34.651
34.61
34.573
34.541
34.514
34.493
34.475
34.461
34.448
34.436
34.425
34.415
34.406
34.399
34.394
34.391
34.388
34.387
34.387
34.387
34.388
34.391
34.395
34.4
34.405
34.411
34.416
34.42
34.424
34.429
34.433
34.439
34.446
34.453
34.46
34.468
34.476
34.484
34.492
34.498
34.502
34.505
34.505
34.501
34.492
34.479
34.464
34.445
34.424
34.402
34.378
34.354
34.329
34.303
34.276
34.248
34.22
34.193
34.166
34.141
34.118
34.097
34.078
34.061
34.045
34.029
34.013
33.994
33.973
33.95
33.926
33.901
33.877
33.854
33.833
33.814
33.798
33.784
33.774
33.766
33.76
33.756
33.752
33.748
33.744
33.737
33.728
33.717
33.705
33.69
33.674
33.659
33.645
33.634
33.63
33.633
33.647
33.673
33.71
33.76
33.824
33.902
33.994
34.099
34.218
34.348
34.488
34.636
34.789
34.943
35.094
35.241
35.381
35.511
35.63
35.737
35.831
35.912
35.979
36.032
36.072
36.1
36.118
36.128
36.131
36.127
36.118
36.103
36.082
36.055
36.022
35.985
35.943
35.899
35.853
35.807
35.762
35.719
35.678
35.639
35.604
35.573
35.544
35.517
35.492
35.468
35.442
35.415
35.385
35.352
35.316
35.277
35.235
35.191
35.147
35.103
35.059
35.017
34.978
34.942
34.909
34.88
34.854
34.831
34.813
34.798
34.786
34.778
34.773
34.77
34.77
34.772
34.774
34.777
34.78
34.783
34.786
34.789
34.793
34.798
34.802
34.806
34.809
34.81
34.811
34.812
34.812
34.814
34.816
34.819
34.823
34.827
34.83
34.83
34.827
34.821
34.812
34.8
34.786
34.772
34.757
34.744
34.731
34.719
34.709
34.701
34.693
34.685
34.677
34.667
34.654
34.637
34.617
34.593
34.566
34.537
34.506
34.474
34.443
34.412
34.382
34.353
34.325
34.297
34.271
34.247
34.224
34.203
34.184
34.166
34.151
34.137
34.126
34.116
34.107
34.098
34.089
34.079
34.067
34.052
34.035
34.016
33.996
33.974
33.953
33.933
33.912
33.893
33.875
33.86
33.849
33.846
33.851
33.868
33.898
33.943
34.003
34.079
34.172
34.28
34.402
34.537
34.683
34.839
35.001
35.168
35.335
35.501
35.661
35.814
35.958
36.09
36.209
36.314
36.405
36.483
36.545
36.593
36.627
36.65
36.662
36.665
36.66
36.646
36.626
36.601
36.572
36.54
36.507
36.473
36.44
36.408
36.376
36.346
36.317
36.29
36.263
36.237
36.211
36.185
36.157
36.127
36.094
36.059
36.022
35.983
35.943
35.902
35.861
35.821
35.78
35.739
35.697
35.656
35.617
35.581
35.549
35.52
35.495
35.473
35.455
35.439
35.426
35.415
35.407
35.401
35.398
35.397
35.397
35.399
35.401
35.403
35.405
35.407
35.409
35.409
35.409
35.407
35.403
35.396
35.387
35.376
35.364
35.352
35.34
35.329
35.32
35.311
35.302
35.291
35.279
35.266
35.252
35.236
35.219
35.2
35.181
35.161
35.142
35.123
35.106
35.089
35.074
35.058
35.042
35.026
35.008
34.989
34.968
34.944
34.917
34.889
34.859
34.828
34.796
34.766
34.738
34.714
34.693
34.675
34.66
34.646
34.632
34.618
34.602
34.586
34.569
34.551
34.532
34.513
34.493
34.473
34.452
34.431
34.411
34.391
34.372
34.353
34.333
34.312
34.29
34.265
34.239
34.211
34.184
34.158
34.136
34.118
34.107
34.105
34.116
34.139
34.177
34.232
34.303
34.392
34.497
34.619
34.757
34.91
35.076
35.25
35.429
35.611
35.791
35.966
36.133
36.29
36.436
36.569
36.688
36.791
36.878
36.95
37.007
37.049
37.077
37.092
37.098
37.095
37.085
37.069
37.049
37.025
36.999
36.971
36.941
36.91
36.879
36.848
36.818
36.788
36.758
36.727
36.695
36.662
36.628
36.592
36.555
36.519
36.482
36.445
36.406
36.367
36.327
36.286
36.245
36.203
36.162
36.121
36.082
36.044
36.005
35.967
35.93
35.895
35.863
35.833
35.808
35.787
35.768
35.752
35.737
35.723
35.71
35.698
35.687
35.679
35.673
35.668
35.664
35.661
35.656
35.652
35.648
35.643
35.639
35.635
35.631
35.627
35.62
35.611
35.599
35.585
35.57
35.553
35.537
35.522
35.508
35.495
35.484
35.473
35.463
35.454
35.444
35.434
35.422
35.409
35.394
35.377
35.358
35.337
35.315
35.293
35.269
35.245
35.221
35.197
35.173
35.15
35.127
35.106
35.084
35.063
35.04
35.015
34.989
34.961
34.933
34.905
34.877
34.85
34.825
34.8
34.775
34.751
34.728
34.706
34.684
34.662
34.64
34.618
34.595
34.569
34.541
34.511
34.481
34.451
34.421
34.393
34.367
34.342
34.318
34.295
34.274
34.256
34.243
34.237
34.24
34.255
34.285
34.33
34.395
34.479
34.583
34.706
34.848
35.005
35.175
35.352
35.536
35.721
35.906
36.086
36.26
36.426
36.582
36.725
36.854
36.97
37.072
37.162
37.24
37.307
37.364
37.412
37.451
37.482
37.505
37.521
37.53
37.532
37.529
37.519
37.504
37.483
37.459
37.431
37.4
37.367
37.332
37.296
37.257
37.216
37.172
37.126
37.078
37.026
36.971
36.911
36.847
36.78
36.712
36.644
36.576
36.511
36.449
36.392
36.338
36.289
36.244
36.206
36.172
36.143
36.116
36.093
36.071
36.05
36.031
36.013
35.998
35.986
35.978
35.974
35.974
35.977
35.983
35.99
35.999
36.008
36.019
36.03
36.042
36.053
36.063
36.07
36.074
36.076
36.076
36.074
36.071
36.067
36.061
36.054
36.045
36.034
36.021
36.006
35.99
35.975
35.96
35.944
35.926
35.907
35.885
35.861
35.834
35.804
35.774
35.742
35.71
35.678
35.644
35.61
35.575
35.54
35.504
35.468
35.432
35.395
35.359
35.323
35.287
35.253
35.221
35.191
35.162
35.134
35.106
35.079
35.052
35.025
34.999
34.973
34.948
34.922
34.896
34.869
34.841
34.811
34.781
34.749
34.717
34.685
34.653
34.622
34.592
34.563
34.536
34.514
34.498
34.49
34.495
34.515
34.551
34.605
34.677
34.769
34.88
35.009
35.155
35.315
35.488
35.672
35.863
36.058
36.255
36.451
36.644
36.83
37.007
37.174
37.33
37.475
37.608
37.727
37.834
37.928
38.009
38.078
38.135
38.18
38.214
38.237
38.25
38.253
38.247
38.231
38.206
38.173
38.133
38.088
38.04
37.992
37.944
37.897
37.852
37.809
37.767
37.726
37.684
37.642
37.598
37.551
37.502
37.448
37.391
37.33
37.266
37.2
37.132
37.064
36.998
36.933
36.871
36.811
36.755
36.703
36.654
36.609
36.569
36.534
36.504
36.477
36.454
36.433
36.414
36.396
36.379
36.362
36.346
36.331
36.317
36.305
36.294
36.285
36.278
36.271
36.265
36.26
36.255
36.251
36.246
36.243
36.239
36.235
36.23
36.222
36.214
36.204
36.193
36.181
36.168
36.153
36.137
36.118
36.096
36.07
36.042
36.011
35.978
35.944
35.909
35.875
35.84
35.805
35.77
35.735
35.701
35.669
35.637
35.606
35.575
35.545
35.514
35.482
35.447
35.412
35.376
35.339
35.303
35.268
35.233
35.2
35.167
35.134
35.1
35.065
35.03
34.993
34.956
34.917
34.876
34.835
34.792
34.749
34.707
34.667
34.629
34.593
34.559
34.527
34.499
34.475
34.457
34.447
34.446
34.456
34.479
34.517
34.571
34.642
34.733
34.844
34.974
35.124
35.293
35.478
35.676
35.884
36.1
36.32
36.543
36.766
36.987
37.203
37.412
37.612
37.8
37.973
38.131
38.273
38.398
38.507
38.599
38.675
38.736
38.782
38.814
38.833
38.839
38.834
38.818
38.79
38.751
38.703
38.649
38.589
38.527
38.464
38.402
38.342
38.284
38.229
38.178
38.131
38.087
38.045
38.003
37.961
37.918
37.871
37.82
37.763
37.701
37.634
37.564
37.491
37.418
37.345
37.273
37.204
37.138
37.077
37.019
36.966
36.917
36.871
36.828
36.789
36.753
36.718
36.686
36.657
36.631
36.607
36.584
36.564
36.546
36.531
36.52
36.511
36.505
36.503
36.503
36.505
36.508
36.512
36.516
36.521
36.524
36.525
36.523
36.517
36.507
36.492
36.474
36.451
36.426
36.399
36.371
36.342
36.314
36.286
36.26
36.233
36.207
36.179
36.151
36.122
36.09
36.055
36.017
35.976
35.934
35.89
35.844
35.8
35.757
35.715
35.675
35.636
35.599
35.562
35.526
35.49
35.454
35.418
35.382
35.346
35.312
35.278
35.246
35.213
35.18
35.147
35.114
35.081
35.047
35.014
34.979
34.944
34.907
34.869
34.83
34.789
34.748
34.706
34.665
34.626
34.591
34.563
34.544
34.536
34.543
34.567
34.609
34.672
34.757
34.862
34.991
35.142
35.315
35.508
35.72
35.949
36.191
36.442
36.699
36.957
37.212
37.461
37.699
37.923
38.13
38.32
38.49
38.641
38.772
38.883
38.975
39.048
39.105
39.147
39.176
39.194
39.203
39.204
39.197
39.183
39.16
39.129
39.09
39.044
38.991
38.931
38.864
38.792
38.715
38.636
38.553
38.469
38.385
38.302
38.22
38.138
38.058
37.98
37.902
37.826
37.749
37.672
37.595
37.519
37.444
37.37
37.297
37.226
37.158
37.094
37.032
36.974
36.919
36.869
36.824
36.785
36.751
36.722
36.699
36.681
36.667
36.658
36.653
36.653
36.656
36.661
36.666
36.67
36.671
36.67
36.664
36.655
36.644
36.631
36.617
36.601
36.585
36.568
36.551
36.535
36.518
36.502
36.486
36.47
36.454
36.436
36.415
36.392
36.368
36.341
36.314
36.285
36.256
36.227
36.198
36.167
36.135
36.101
36.066
36.029
35.99
35.95
35.907
35.863
35.816
35.768
35.719
35.669
35.62
35.57
35.521
35.473
35.426
35.379
35.332
35.285
35.24
35.194
35.15
35.104
35.058
35.01
34.961
34.912
34.863
34.816
34.771
34.729
34.688
34.649
34.61
34.57
34.529
34.487
34.447
34.411
34.38
34.356
34.342
34.343
34.362
34.4
34.461
34.545
34.654
34.789
34.948
35.129
35.331
35.549
35.782
36.024
36.273
36.526
36.779
37.029
37.273
37.507
37.729
37.937
38.131
38.308
38.469
38.612
38.738
38.844
38.932
39.0
39.049
39.08
39.094
39.092
39.076
39.047
39.008
38.958
38.902
38.839
38.771
38.7
38.626
38.551
38.476
38.402
38.328
38.254
38.18
38.106
38.03
37.953
37.875
37.794
37.712
37.627
37.54
37.452
37.363
37.273
37.184
37.098
37.015
36.936
36.861
36.789
36.721
36.655
36.593
36.533
36.476
36.424
36.376
36.332
36.293
36.257
36.226
36.198
36.176
36.158
36.145
36.137
36.133
36.133
36.134
36.134
36.134
36.133
36.131
36.126
36.12
36.113
