Trial 3:3back
33.151
33.198
33.263
33.348
33.457
33.59
33.75
33.937
34.151
34.388
34.647
34.923
35.214
35.514
35.819
36.126
36.428
36.722
37.002
37.265
37.507
37.725
37.919
38.09
38.238
38.363
38.468
38.554
38.621
38.673
38.71
38.734
38.747
38.751
38.748
38.74
38.728
38.714
38.698
38.68
38.661
38.642
38.622
38.601
38.58
38.557
38.533
38.507
38.48
38.452
38.425
38.398
38.372
38.346
38.322
38.298
38.276
38.254
38.231
38.207
38.183
38.156
38.127
38.095
38.059
38.019
37.974
37.925
37.872
37.815
37.755
37.694
37.632
37.57
37.511
37.454
37.401
37.353
37.311
37.274
37.242
37.216
37.194
37.178
37.167
37.16
37.156
37.154
37.153
37.152
37.15
37.147
37.141
37.132
37.121
37.108
37.094
37.077
37.059
37.039
37.018
36.995
36.97
36.943
36.914
36.881
36.845
36.806
36.764
36.718
36.669
36.617
36.564
36.509
36.454
36.397
36.341
36.285
36.231
36.178
36.127
36.077
36.027
35.977
35.927
35.877
35.826
35.775
35.726
35.68
35.636
35.594
35.555
35.518
35.484
35.452
35.422
35.395
35.374
35.359
35.349
35.34
35.329
35.315
35.295
35.268
35.233
35.193
35.147
35.098
35.045
34.992
34.94
34.889
34.841
34.795
34.752
34.712
34.675
34.639
34.606
34.575
34.545
34.517
34.491
34.466
34.442
34.419
34.398
34.377
34.358
34.34
34.324
34.309
34.295
34.283
34.271
34.259
34.247
34.234
34.22
34.205
34.188
34.167
34.145
34.12
34.094
34.067
34.041
34.016
33.991
33.967
33.944
33.922
33.9
33.879
33.858
33.839
33.822
33.806
33.793
33.781
33.77
33.759
33.746
33.732
33.715
33.695
33.674
33.65
33.623
33.594
33.564
33.532
33.501
33.472
33.444
33.42
33.399
33.38
33.364
33.351
33.34
33.329
33.318
33.308
33.297
33.285
33.275
33.266
33.26
33.254
33.249
33.242
33.233
33.221
33.204
33.183
33.158
33.128
33.095
33.059
33.02
32.981
32.943
32.907
32.877
32.853
32.837
32.83
32.834
32.85
32.88
32.926
32.989
33.072
33.177
33.304
33.456
33.634
33.837
34.066
34.317
34.587
34.874
35.173
35.481
35.793
36.103
36.407
36.701
36.981
37.244
37.487
37.71
37.913
38.096
38.258
38.4
38.521
38.623
38.707
38.773
38.824
38.86
38.882
38.892
38.891
38.882
38.867
38.847
38.824
38.801
38.779
38.76
38.745
38.736
38.73
38.73
38.733
38.739
38.747
38.756
38.766
38.775
38.784
38.792
38.799
38.805
38.809
38.81
38.808
38.802
38.791
38.775
38.754
38.727
38.694
38.654
38.608
38.556
38.499
38.439
38.376
38.311
38.245
38.175
38.102
38.026
37.95
37.874
37.799
37.728
37.66
37.598
37.542
37.492
37.45
37.414
37.385
37.363
37.347
37.336
37.327
37.321
37.314
37.306
37.296
37.282
37.265
37.244
37.22
37.193
37.165
37.135
37.104
37.074
37.043
37.012
36.981
36.949
36.915
36.878
36.839
36.797
36.753
36.706
36.657
36.606
36.554
36.502
36.449
36.396
36.343
36.29
36.238
36.187
36.135
36.083
36.031
35.979
35.927
35.874
35.82
35.766
35.713
35.662
35.614
35.567
35.522
35.479
35.438
35.398
35.359
35.32
35.281
35.243
35.206
35.168
35.128
35.088
35.045
34.999
34.952
34.903
34.853
34.801
34.748
34.695
34.643
34.594
34.547
34.502
34.46
34.422
34.386
34.353
34.322
34.293
34.265
34.237
34.209
34.179
34.146
34.111
34.077
34.045
34.015
33.987
33.961
33.937
33.913
33.89
33.866
33.84
33.812
33.783
33.752
33.722
33.692
33.663
33.635
33.609
33.585
33.563
33.543
33.524
33.507
33.491
33.474
33.456
33.436
33.415
33.393
33.37
33.346
33.321
33.298
33.276
33.254
33.234
33.215
33.197
33.179
33.161
33.143
33.125
33.107
33.088
33.069
33.049
33.03
33.01
32.99
32.97
32.949
32.929
32.909
32.888
32.867
32.847
32.827
32.809
32.791
32.773
32.756
32.74
32.725
32.709
32.693
32.677
32.66
32.642
32.624
32.606
32.586
32.565
32.543
32.52
32.497
32.474
32.452
32.431
32.411
32.393
32.377
32.362
32.349
32.338
32.329
32.321
32.309
32.291
32.268
32.243
32.22
32.205
32.2
32.21
32.239
32.291
32.367
32.47
32.599
32.756
32.94
33.151
33.387
33.647
33.928
34.226
34.538
34.859
35.185
35.51
35.828
36.135
36.426
36.697
36.946
37.169
37.366
37.536
37.682
37.805
37.906
37.989
38.055
38.107
38.147
38.178
38.202
38.22
38.234
38.243
38.249
38.251
38.251
38.249
38.246
38.243
38.24
38.237
38.236
38.236
38.238
38.242
38.248
38.255
38.265
38.276
38.291
38.309
38.328
38.348
38.368
38.384
38.397
38.405
38.407
38.4
38.385
38.361
38.328
38.286
38.237
38.181
38.118
38.051
37.98
37.907
37.835
37.764
37.695
37.631
37.572
37.52
37.475
37.436
37.404
37.378
37.356
37.337
37.321
37.306
37.293
37.279
37.265
37.252
37.238
37.224
37.209
37.194
37.178
37.162
37.144
37.125
37.104
37.082
37.058
37.032
37.004
36.973
36.941
36.907
36.872
36.834
36.794
36.752
36.709
36.666
36.62
36.573
36.523
36.47
36.415
36.358
36.299
36.238
36.176
36.114
36.054
35.994
35.935
35.876
35.818
35.763
35.711
35.662
35.616
35.574
35.536
35.5
35.468
35.438
35.409
35.38
35.353
35.325
35.298
35.27
35.241
35.212
35.182
35.153
35.124
35.095
35.067
35.039
35.012
34.985
34.958
34.928
34.896
34.861
34.824
34.785
34.745
34.703
34.662
34.621
34.581
34.543
34.508
34.474
34.443
34.414
34.388
34.363
34.339
34.316
34.293
34.271
34.247
34.222
34.195
34.171
34.155
34.149
34.152
34.16
34.17
34.179
34.185
34.183
34.172
34.152
34.122
34.084
34.039
33.99
33.939
33.887
33.836
33.788
33.742
33.7
33.66
33.623
33.589
33.557
33.528
33.5
33.474
33.449
33.425
33.404
33.384
33.365
33.347
33.332
33.317
33.305
33.293
33.28
33.268
33.254
33.239
33.223
33.207
33.19
33.173
33.156
33.14
33.123
33.107
33.09
33.072
33.054
33.036
33.017
32.997
32.975
32.956
32.941
32.932
32.927
32.925
32.924
32.923
32.919
32.912
32.9
32.883
32.861
32.835
32.805
32.773
32.74
32.708
32.679
32.655
32.639
32.633
32.641
32.664
32.706
32.768
32.851
32.957
33.086
33.238
33.413
33.61
33.828
34.066
34.32
34.587
34.864
35.147
35.429
35.706
35.972
36.223
36.453
36.659
36.84
36.997
37.131
37.244
37.34
37.42
37.487
37.543
37.589
37.627
37.659
37.684
37.705
37.721
37.732
37.739
37.742
37.741
37.738
37.732
37.726
37.719
37.712
37.704
37.697
37.689
37.683
37.676
37.671
37.665
37.659
37.652
37.645
37.636
37.625
37.611
37.593
37.572
37.544
37.512
37.473
37.428
37.378
37.324
37.266
37.206
37.145
37.085
37.026
36.969
36.916
36.866
36.819
36.776
36.737
36.701
36.668
36.64
36.615
36.593
36.575
36.561
36.553
36.549
36.548
36.551
36.556
36.563
36.57
36.577
36.581
36.584
36.584
36.58
36.571
36.558
36.54
36.517
36.492
36.465
36.437
36.408
36.379
36.35
36.321
36.293
36.265
36.235
36.202
36.168
36.131
36.09
36.046
35.998
35.947
35.894
35.841
35.787
35.734
35.682
35.632
35.585
35.542
35.502
35.466
35.432
35.4
35.369
35.338
35.307
35.275
35.241
35.206
35.169
35.129
35.087
35.043
35.0
34.957
34.915
34.876
34.839
34.805
34.776
34.749
34.725
34.703
34.681
34.659
34.637
34.613
34.587
34.559
34.528
34.494
34.459
34.422
34.385
34.349
34.312
34.276
34.241
34.206
34.171
34.138
34.107
34.077
34.05
34.025
34.003
33.983
33.964
33.948
33.933
33.918
33.904
33.89
33.876
33.86
33.843
33.824
33.804
33.782
33.759
33.736
33.711
33.685
33.659
33.632
33.606
33.579
33.552
33.526
33.501
33.477
33.454
33.433
33.413
33.395
33.379
33.366
33.354
33.342
33.331
33.319
33.306
33.293
33.277
33.259
33.239
33.217
33.195
33.171
33.148
33.124
33.102
33.081
33.062
33.045
33.029
33.015
33.002
32.991
32.981
32.972
32.962
32.952
32.943
32.934
32.926
32.918
32.911
32.906
32.902
32.901
32.903
32.909
32.921
32.943
32.977
33.025
33.091
33.176
33.284
33.415
33.572
33.752
33.957
34.184
34.431
34.694
34.972
35.258
35.549
35.84
36.127
36.406
36.674
36.928
37.165
37.382
37.578
37.751
37.901
38.029
38.134
38.219
38.285
38.336
38.373
38.399
38.414
38.421
38.421
38.415
38.404
38.388
38.369
38.347
38.323
38.298
38.273
38.249
38.226
38.206
38.189
38.176
38.166
38.16
38.155
38.153
38.152
38.152
38.153
38.152
38.149
38.145
38.138
38.127
38.112
38.092
38.068
38.039
38.005
37.965
37.919
37.866
37.808
37.744
37.676
37.604
37.529
37.452
37.375
37.3
37.229
37.163
37.103
37.05
37.004
36.964
36.932
36.905
36.883
36.864
36.848
36.832
36.816
36.798
36.778
36.756
36.733
36.709
36.685
36.661
36.638
36.616
36.593
36.57
36.545
36.519
36.489
36.456
36.418
36.376
36.33
36.279
36.225
36.168
36.109
36.048
35.987
35.925
35.864
35.804
35.746
35.69
35.638
35.589
35.544
35.502
35.463
35.424
35.387
35.349
35.311
35.271
35.23
35.186
35.141
35.095
35.048
35.002
34.957
34.914
34.873
34.834
34.798
34.764
34.732
34.701
34.671
34.641
34.612
34.582
34.552
34.521
34.49
34.459
34.429
34.398
34.367
34.335
34.304
34.271
34.238
34.203
34.169
34.135
34.102
34.07
34.042
34.016
33.993
33.975
33.962
33.952
33.945
33.939
33.934
33.928
33.921
33.912
33.9
33.886
33.87
33.852
33.832
33.811
33.788
33.764
33.738
33.712
33.685
33.656
33.626
33.595
33.563
33.53
33.498
33.466
33.435
33.405
33.377
33.351
33.326
33.305
33.286
33.269
33.255
33.243
33.232
33.223
33.215
33.21
33.205
33.2
33.195
33.188
33.179
33.167
33.151
33.131
33.107
33.079
33.048
33.014
32.979
32.943
32.908
32.874
32.843
32.815
32.791
32.771
32.755
32.744
32.735
32.729
32.722
32.714
32.704
32.69
32.673
32.652
32.629
32.604
32.579
32.553
32.527
32.501
32.476
32.451
32.427
32.404
32.385
32.369
32.359
32.354
32.358
32.37
32.392
32.425
32.472
32.535
32.617
32.718
32.842
32.989
33.159
33.352
33.566
33.8
34.051
34.315
34.591
34.875
35.162
35.448
35.73
36.005
36.269
36.52
36.756
36.975
37.175
37.354
37.512
37.649
37.765
37.858
37.931
37.985
38.027
38.061
38.089
38.112
38.13
38.142
38.147
38.146
38.139
38.127
38.112
38.093
38.072
38.05
38.026
38.002
37.979
37.956
37.933
37.914
37.896
37.881
37.868
37.859
37.851
37.845
37.84
37.834
37.829
37.821
37.81
37.794
37.773
37.746
37.711
37.669
37.619
37.563
37.5
37.434
37.366
37.297
37.228
37.161
37.096
37.036
36.979
36.928
36.881
36.839
36.8
36.765
36.734
36.706
36.679
36.654
36.631
36.611
36.593
36.578
36.566
36.555
36.546
36.537
36.529
36.52
36.511
36.5
36.489
36.475
36.46
36.443
36.424
36.404
36.381
36.355
36.325
36.29
36.251
36.208
36.162
36.113
36.061
36.008
35.955
35.903
35.851
35.802
35.755
35.71
35.668
35.627
35.588
35.549
35.51
35.469
35.427
35.382
35.334
35.284
35.229
35.173
35.113
35.053
34.992
34.931
34.871
34.814
34.76
34.711
34.664
34.621
34.581
34.543
34.507
34.471
34.435
34.399
34.361
34.322
34.281
34.238
34.193
34.146
34.096
34.038
33.973
33.905
33.835
33.769
33.71
33.66
33.622
33.597
33.585
33.584
33.594
33.613
33.637
33.665
33.693
33.72
33.744
33.763
33.774
33.778
33.773
33.763
33.746
33.726
33.704
33.682
33.663
33.646
33.63
33.616
33.603
33.591
33.579
33.568
33.557
33.547
33.539
33.531
33.522
33.511
33.499
33.483
33.463
33.44
33.414
33.385
33.352
33.318
33.282
33.247
33.213
33.182
33.152
33.126
33.102
33.082
33.065
33.05
33.038
33.027
33.018
33.01
33.003
32.997
32.991
32.985
32.977
32.968
32.957
32.946
32.933
32.921
32.908
32.895
32.882
32.869
32.855
32.84
32.825
32.81
32.795
32.78
32.765
32.751
32.738
32.724
32.711
32.697
32.683
32.668
32.653
32.635
32.616
32.597
32.576
32.556
32.536
32.516
32.497
32.479
32.463
32.449
32.438
32.429
32.424
32.424
32.43
32.443
32.466
32.499
32.545
32.607
32.685
32.783
32.902
33.045
33.212
33.402
33.614
33.845
34.093
34.354
34.625
34.903
35.185
35.466
35.743
36.013
36.272
36.517
36.746
36.955
37.144
37.311
37.456
37.576
37.671
37.743
37.792
37.821
37.832
37.828
37.812
37.786
37.753
37.714
37.674
37.632
37.591
37.553
37.517
37.485
37.458
37.435
37.417
37.402
37.391
37.384
37.381
37.38
37.382
37.384
37.387
37.389
37.39
37.387
37.379
37.367
37.35
37.328
37.301
37.27
37.234
37.193
37.15
37.103
37.054
37.002
36.945
36.885
36.821
36.757
36.693
36.631
36.572
36.518
36.471
36.432
36.399
36.375
36.357
36.345
36.339
36.336
36.336
36.336
36.335
36.333
36.329
36.321
36.31
36.296
36.281
36.264
36.248
36.232
36.218
36.205
36.193
36.182
36.171
36.159
36.145
36.127
36.105
36.078
36.044
36.003
35.955
35.902
35.843
35.78
35.715
35.649
35.583
35.52
35.461
35.405
35.354
35.307
35.264
35.224
35.188
35.155
35.123
35.093
35.064
35.036
35.008
34.979
34.95
34.919
34.887
34.854
34.82
34.784
34.747
34.709
34.67
34.63
34.591
34.553
34.517
34.483
34.453
34.425
34.399
34.375
34.352
34.33
34.31
34.29
34.271
34.253
34.234
34.214
34.194
34.173
34.151
34.128
34.104
34.079
34.053
34.026
34.0
33.975
33.952
33.93
33.909
33.889
33.868
33.849
33.83
33.814
33.799
33.787
33.777
33.769
33.763
33.758
33.754
33.75
33.747
33.743
33.74
33.736
33.73
33.723
33.713
33.699
33.684
33.666
33.649
33.631
33.613
33.594
33.574
33.553
33.529
33.505
33.479
33.452
33.424
33.395
33.365
33.336
33.306
33.277
33.248
33.22
33.193
33.168
33.144
33.122
33.101
33.081
33.061
33.04
33.019
32.996
32.972
32.946
32.919
32.891
32.861
32.831
32.8
32.77
32.74
32.713
32.69
32.671
32.655
32.644
32.636
32.631
32.626
32.623
32.619
32.615
32.61
32.603
32.594
32.581
32.565
32.545
32.522
32.496
32.47
32.444
32.421
32.402
32.39
32.387
32.395
32.418
32.457
32.517
32.6
32.709
32.846
33.01
33.2
33.415
33.651
33.906
34.175
34.454
34.737
35.021
35.3
35.57
35.828
36.071
36.296
36.503
36.691
36.859
37.009
37.142
37.258
37.358
37.443
37.513
37.569
37.613
37.644
37.663
37.672
37.67
37.661
37.645
37.623
37.597
37.569
37.539
37.51
37.482
37.457
37.433
37.413
37.396
37.382
37.371
37.364
37.359
37.356
37.353
37.352
37.35
37.347
37.342
37.334
37.325
37.312
37.295
37.275
37.251
37.222
37.191
37.156
37.118
37.077
37.032
36.985
36.935
36.882
36.828
36.772
36.716
36.661
36.606
36.555
36.506
36.461
36.42
36.383
36.351
36.323
36.297
36.274
36.253
36.233
36.215
36.196
36.177
36.159
36.143
36.127
36.113
36.101
36.09
36.081
36.073
36.065
36.058
36.049
36.038
36.025
36.009
35.99
35.968
35.943
35.914
35.882
35.846
35.806
35.762
35.716
35.668
35.619
35.57
35.522
35.474
35.426
35.38
35.335
35.29
35.246
35.202
35.159
35.117
35.075
35.035
34.996
34.959
34.924
34.89
34.859
34.829
34.799
34.769
34.74
34.709
34.678
34.646
34.614
34.581
34.548
34.514
34.481
34.447
34.414
34.381
34.35
34.32
34.291
34.265
34.242
34.222
34.206
34.192
34.181
34.17
34.159
34.146
34.132
34.115
34.096
34.073
34.048
34.021
33.993
33.963
33.934
33.905
33.878
33.851
33.827
33.805
33.786
33.769
33.754
33.741
33.729
33.719
33.708
33.696
33.683
33.667
33.647
33.625
33.6
33.572
33.544
33.516
33.489
33.463
33.44
33.421
33.404
33.39
33.378
33.369
33.362
33.357
33.353
33.35
33.345
33.339
33.332
33.323
33.311
33.296
33.279
33.258
33.236
33.212
33.187
33.162
33.138
33.115
33.095
33.076
33.06
33.046
33.034
33.024
33.016
33.008
33.001
32.994
32.988
32.982
32.975
32.966
32.956
32.945
32.932
32.917
32.901
32.882
32.862
32.841
32.819
32.798
32.777
32.756
32.735
32.716
32.697
32.682
32.669
32.662
32.662
32.672
32.694
32.733
32.791
32.871
32.974
33.103
33.257
33.433
33.631
33.847
34.079
34.323
34.574
34.83
35.087
35.339
35.585
35.821
36.045
36.253
36.445
36.619
36.773
36.907
37.021
37.115
37.189
37.246
37.286
37.312
37.324
37.324
37.315
37.298
37.276
37.251
37.224
37.197
37.171
37.146
37.124
37.103
37.083
37.065
37.048
37.031
37.014
36.996
36.978
36.959
36.941
36.923
36.904
36.884
36.86
36.836
36.809
36.783
36.755
36.726
36.696
36.664
36.63
36.595
36.559
36.52
36.48
36.439
36.398
36.358
36.317
36.278
36.241
36.206
36.173
36.143
36.115
36.09
36.067
36.047
36.029
36.015
36.002
35.993
35.988
35.986
35.987
35.993
36.003
36.015
36.031
36.049
36.068
36.086
36.102
36.113
36.119
36.12
36.112
36.092
36.059
36.014
35.96
35.899
35.836
35.773
35.714
35.661
35.614
35.574
35.54
35.512
35.489
35.467
35.447
35.426
35.403
35.378
35.351
35.322
35.292
35.259
35.226
35.192
35.158
35.125
35.092
35.06
35.028
34.996
34.965
34.934
34.902
34.869
34.835
34.8
34.764
34.725
34.685
34.642
34.597
34.551
34.503
34.456
34.409
34.363
34.319
34.277
34.239
34.204
34.172
34.144
34.12
34.098
34.078
34.059
34.04
34.022
34.008
33.996
33.986
33.977
33.969
33.961
33.952
33.941
33.929
33.914
33.897
33.879
33.859
33.839
33.817
33.795
33.773
33.752
33.731
33.711
33.692
33.674
33.656
33.639
33.622
33.606
33.591
33.577
33.564
33.552
33.541
33.531
33.52
33.508
33.495
33.481
33.464
33.445
33.424
33.402
33.378
33.355
33.331
33.307
33.284
33.261
33.239
33.217
33.195
33.172
33.149
33.126
33.103
33.081
33.058
33.038
33.02
33.005
32.995
32.99
32.991
33.002
33.024
33.06
33.111
33.18
33.27
33.381
33.515
33.67
33.845
34.04
34.251
34.475
34.71
34.951
35.195
35.438
35.677
35.908
36.13
36.34
36.536
36.717
36.883
37.033
37.166
37.283
37.382
37.465
37.532
37.584
37.622
37.647
37.661
37.665
37.661
37.653
37.64
37.624
37.607
37.589
37.571
37.554
37.538
37.523
37.51
37.497
37.486
37.476
37.466
37.458
37.45
37.443
37.436
37.429
37.421
37.413
37.402
37.391
37.377
37.359
37.338
37.311
37.279
37.241
37.198
37.15
37.099
37.044
36.989
36.932
36.877
36.822
36.768
36.717
36.668
36.622
36.579
36.538
36.5
36.465
36.431
36.401
36.372
36.344
36.318
36.292
36.269
36.249
36.233
36.221
36.213
36.209
36.209
36.212
36.215
36.218
36.221
36.221
36.218
36.211
36.2
36.184
36.165
36.143
36.119
36.094
36.07
36.046
36.023
35.999
35.974
35.946
35.916
35.883
35.846
35.805
35.761
35.715
35.667
35.62
35.572
35.526
35.479
35.433
35.386
35.339
35.293
35.246
35.198
35.151
35.104
35.057
35.013
34.97
34.929
34.89
34.855
34.821
34.79
34.761
34.732
34.704
34.676
34.648
34.618
34.587
34.554
34.52
34.487
34.455
34.424
34.394
34.366
34.339
34.313
34.29
34.27
34.253
34.238
34.223
34.208
34.19
34.17
34.146
34.119
34.09
34.059
34.026
33.992
33.958
33.924
33.891
33.859
33.828
33.799
33.77
33.742
33.716
33.691
33.666
33.643
33.621
33.601
33.583
33.567
33.552
33.54
33.53
33.521
33.513
33.505
33.497
33.488
33.478
33.466
33.453
33.436
33.417
33.395
33.37
33.343
33.314
33.283
33.252
33.221
33.191
33.161
33.133
33.109
33.089
33.077
33.074
33.082
33.103
33.139
33.192
33.264
33.357
33.47
33.603
33.758
33.933
34.127
34.338
34.563
34.8
35.046
35.297
35.551
35.805
36.055
36.301
36.539
36.767
36.982
37.183
37.37
37.538
37.688
37.817
37.927
38.017
38.088
38.141
38.176
38.195
38.201
38.196
38.181
38.16
38.135
38.108
38.08
38.053
38.027
38.004
37.984
37.968
37.957
37.95
37.947
37.949
37.955
37.965
37.977
37.99
38.002
38.014
38.025
38.035
38.04
38.042
38.038
38.028
38.012
37.99
37.962
37.928
37.889
37.845
37.797
37.746
37.691
37.633
37.573
37.512
37.451
37.391
37.333
37.277
37.225
37.177
37.131
37.09
37.051
37.015
36.982
36.953
36.925
