Trial 3:3back
36.838
36.847
36.859
36.873
36.891
36.911
36.932
36.953
36.971
36.986
36.997
37.002
37.003
37.0
36.994
36.985
36.973
36.959
36.942
36.924
36.902
36.878
36.85
36.818
36.781
36.738
36.691
36.637
36.579
36.516
36.451
36.384
36.316
36.249
36.181
36.113
36.044
35.973
35.901
35.828
35.753
35.677
35.601
35.525
35.45
35.376
35.305
35.235
35.169
35.106
35.047
34.99
34.936
34.883
34.831
34.778
34.727
34.675
34.625
34.577
34.531
34.49
34.453
34.419
34.389
34.36
34.331
34.303
34.276
34.248
34.221
34.193
34.165
34.139
34.114
34.092
34.072
34.054
34.038
34.023
34.01
33.998
33.986
33.975
33.963
33.95
33.937
33.924
33.911
33.898
33.883
33.868
33.849
33.827
33.801
33.771
33.74
33.706
33.671
33.636
33.602
33.57
33.538
33.508
33.481
33.456
33.435
33.421
33.414
33.419
33.437
33.472
33.526
33.603
33.703
33.828
33.98
34.159
34.364
34.593
34.843
35.109
35.387
35.672
35.961
36.25
36.534
36.812
37.079
37.334
37.574
37.797
38.0
38.184
38.347
38.49
38.613
38.716
38.8
38.865
38.913
38.945
38.962
38.966
38.958
38.941
38.915
38.882
38.843
38.8
38.752
38.7
38.645
38.587
38.528
38.468
38.407
38.344
38.279
38.212
38.143
38.072
37.999
37.924
37.849
37.773
37.698
37.623
37.547
37.47
37.391
37.311
37.229
37.146
37.062
36.979
36.898
36.818
36.74
36.666
36.598
36.536
36.483
36.439
36.403
36.377
36.358
36.346
36.339
36.337
36.339
36.345
36.353
36.363
36.375
36.387
36.4
36.413
36.427
36.441
36.456
36.471
36.485
36.498
36.508
36.515
36.517
36.513
36.505
36.49
36.469
36.444
36.413
36.378
36.339
36.297
36.251
36.204
36.154
36.101
36.045
35.987
35.926
35.862
35.795
35.726
35.655
35.584
35.513
35.442
35.372
35.303
35.233
35.163
35.092
35.02
34.947
34.874
34.801
34.73
34.66
34.593
34.528
34.468
34.411
34.359
34.312
34.268
34.229
34.194
34.162
34.132
34.103
34.074
34.044
34.013
33.981
33.949
33.918
33.886
33.855
33.826
33.798
33.772
33.749
33.728
33.71
33.695
33.683
33.674
33.666
33.659
33.652
33.644
33.634
33.622
33.61
33.596
33.581
33.563
33.544
33.524
33.501
33.477
33.453
33.43
33.41
33.392
33.376
33.363
33.351
33.34
33.327
33.313
33.296
33.276
33.252
33.225
33.196
33.164
33.132
33.101
33.073
33.05
33.036
33.032
33.041
33.065
33.105
33.163
33.24
33.337
33.456
33.596
33.759
33.943
34.148
34.373
34.614
34.871
35.139
35.416
35.696
35.976
36.252
36.52
36.777
37.02
37.246
37.452
37.639
37.805
37.951
38.079
38.19
38.285
38.365
38.431
38.482
38.521
38.547
38.56
38.561
38.552
38.533
38.505
38.471
38.429
38.382
38.33
38.274
38.214
38.153
38.09
38.024
37.957
37.886
37.81
37.73
37.646
37.557
37.465
37.371
37.276
37.18
37.083
36.988
36.893
36.799
36.707
36.619
36.534
36.453
36.376
36.304
36.236
36.174
36.119
36.072
36.034
36.004
35.985
35.976
35.977
35.984
35.998
36.016
36.038
36.062
36.089
36.117
36.146
36.175
36.203
36.231
36.258
36.285
36.312
36.337
36.361
36.384
36.404
36.419
36.43
36.433
36.428
36.416
36.397
36.372
36.342
36.307
36.268
36.226
36.182
36.137
36.091
36.045
35.998
35.949
35.899
35.845
35.789
35.731
35.67
35.607
35.542
35.477
35.412
35.35
35.29
35.234
35.179
35.127
35.076
35.026
34.977
34.929
34.881
34.833
34.788
34.744
34.703
34.666
34.631
34.6
34.571
34.546
34.524
34.503
34.483
34.462
34.437
34.409
34.377
34.342
34.307
34.271
34.237
34.206
34.178
34.153
34.133
34.116
34.103
34.094
34.088
34.084
34.082
34.08
34.077
34.071
34.062
34.049
34.032
34.013
33.992
33.967
33.94
33.908
33.869
33.823
33.771
33.717
33.663
33.612
33.568
33.532
33.506
33.491
33.487
33.495
33.515
33.549
33.596
33.659
33.739
33.835
33.95
34.082
34.234
34.403
34.592
34.797
35.019
35.255
35.501
35.753
36.009
36.264
36.514
36.757
36.991
37.215
37.426
37.624
37.807
37.972
38.12
38.25
38.361
38.453
38.527
38.584
38.625
38.653
38.668
38.672
38.666
38.651
38.629
38.601
38.569
38.532
38.491
38.446
38.398
38.345
38.288
38.227
38.162
38.094
38.023
37.949
37.873
37.793
37.71
37.625
37.538
37.45
37.361
37.271
37.181
37.091
37.002
36.912
36.824
36.737
36.652
36.571
36.494
36.422
36.356
36.296
36.242
36.194
36.153
36.119
36.093
36.077
36.071
36.074
36.086
36.105
36.131
36.161
36.196
36.233
36.272
36.311
36.348
36.383
36.412
36.436
36.453
36.464
36.47
36.471
36.468
36.46
36.449
36.434
36.414
36.39
36.362
36.329
36.293
36.254
36.211
36.166
36.12
36.071
36.022
35.97
35.916
35.86
35.802
35.742
35.68
35.615
35.548
35.479
35.406
35.331
35.255
35.179
35.104
35.033
34.965
34.9
34.837
34.776
34.716
34.657
34.601
34.546
34.494
34.444
34.397
34.353
34.312
34.273
34.237
34.202
34.17
34.14
34.112
34.085
34.06
34.037
34.015
33.995
33.976
33.959
33.945
33.934
33.925
33.917
33.911
33.904
33.898
33.892
33.887
33.883
33.881
33.88
33.88
33.881
33.882
33.882
33.88
33.873
33.86
33.843
33.82
33.794
33.763
33.73
33.696
33.661
33.627
33.594
33.564
33.536
33.512
33.49
33.47
33.453
33.438
33.427
33.419
33.417
33.424
33.441
33.47
33.515
33.576
33.656
33.757
33.879
34.025
34.194
34.388
34.604
34.842
35.099
35.372
35.658
35.953
36.252
36.55
36.844
37.128
37.4
37.656
37.892
38.108
38.3
38.47
38.616
38.742
38.847
38.934
39.004
39.058
39.098
39.125
39.141
39.146
39.141
39.128
39.107
39.08
39.045
39.005
38.958
38.907
38.852
38.794
38.733
38.672
38.609
38.548
38.486
38.424
38.362
38.299
38.236
38.172
38.106
38.039
37.97
37.899
37.826
37.751
37.674
37.596
37.516
37.437
37.359
37.282
37.206
37.132
37.059
36.989
36.923
36.862
36.807
36.76
36.721
36.69
36.669
36.656
36.65
36.65
36.656
36.666
36.679
36.694
36.71
36.726
36.741
36.753
36.762
36.769
36.774
36.775
36.774
36.771
36.765
36.754
36.739
36.718
36.693
36.664
36.63
36.592
36.551
36.507
36.46
36.411
36.359
36.304
36.248
36.192
36.135
36.077
36.018
35.957
35.893
35.827
35.759
35.688
35.617
35.546
35.476
35.406
35.338
35.27
35.202
35.136
35.071
35.008
34.948
34.891
34.836
34.785
34.735
34.688
34.643
34.6
34.557
34.517
34.477
34.438
34.4
34.363
34.328
34.294
34.262
34.233
34.207
34.184
34.164
34.147
34.132
34.118
34.103
34.086
34.068
34.047
34.025
34.003
33.981
33.96
33.942
33.925
33.912
33.9
33.891
33.883
33.876
33.869
33.863
33.856
33.848
33.838
33.826
33.809
33.787
33.762
33.735
33.706
33.676
33.645
33.611
33.576
33.539
33.501
33.463
33.427
33.393
33.362
33.335
33.309
33.284
33.259
33.234
33.207
33.181
33.155
33.13
33.106
33.084
33.065
33.05
33.041
33.04
33.051
33.077
33.122
33.19
33.284
33.406
33.556
33.733
33.936
34.163
34.41
34.676
34.957
35.249
35.547
35.849
36.149
36.444
36.731
37.005
37.266
37.51
37.736
37.941
38.125
38.287
38.426
38.543
38.638
38.713
38.772
38.815
38.846
38.864
38.872
38.87
38.859
38.839
38.814
38.782
38.746
38.704
38.658
38.607
38.55
38.489
38.424
38.355
38.283
38.21
38.134
38.058
37.982
37.906
37.831
37.755
37.68
37.605
37.53
37.456
37.381
37.306
37.231
37.155
37.08
37.004
36.93
36.857
36.786
36.719
36.655
36.595
36.539
36.488
36.441
36.399
36.362
36.33
36.304
36.285
36.271
36.263
36.26
36.262
36.267
36.276
36.287
36.3
36.315
36.33
36.345
36.359
36.371
36.38
36.386
36.389
36.388
36.383
36.375
36.362
36.343
36.319
36.288
36.251
36.208
36.161
36.109
36.053
35.993
35.931
35.867
35.801
35.735
35.669
35.604
35.541
35.479
35.419
35.36
35.302
35.242
35.182
35.12
35.057
34.993
34.929
34.868
34.81
34.755
34.702
34.651
34.601
34.552
34.502
34.452
34.4
34.347
34.292
34.237
34.18
34.124
34.069
34.016
33.967
33.921
33.88
33.844
33.811
33.783
33.76
33.741
33.725
33.714
33.704
33.695
33.684
33.671
33.658
33.647
33.638
33.631
33.626
33.621
33.616
33.611
33.606
33.6
33.593
33.585
33.575
33.565
33.553
33.539
33.525
33.509
33.492
33.473
33.451
33.428
33.403
33.376
33.346
33.315
33.282
33.249
33.215
33.181
33.148
33.115
33.082
33.051
33.02
32.99
32.96
32.93
32.898
32.866
32.832
32.796
32.758
32.719
32.679
32.64
32.603
32.571
32.546
32.532
32.531
32.546
32.58
32.637
32.719
32.829
32.967
33.134
33.328
33.548
33.791
34.053
34.331
34.622
34.921
35.226
35.531
35.832
36.126
36.409
36.678
36.931
37.166
37.383
37.58
37.756
37.91
38.041
38.149
38.235
38.301
38.348
38.378
38.393
38.395
38.385
38.365
38.336
38.297
38.25
38.197
38.137
38.073
38.005
37.933
37.86
37.784
37.709
37.633
37.557
37.483
37.41
37.339
37.268
37.197
37.124
37.049
36.971
36.89
36.806
36.721
36.635
36.551
36.467
36.386
36.308
36.233
36.162
36.094
36.03
35.97
35.915
35.864
35.82
35.783
35.752
35.727
35.711
35.702
35.7
35.707
35.72
35.739
35.762
35.789
35.818
35.848
35.878
35.908
35.937
35.963
35.985
36.004
36.019
36.03
36.036
36.039
36.037
36.033
36.027
36.018
36.006
35.992
35.974
35.952
35.926
35.896
35.863
35.825
35.783
35.737
35.688
35.637
35.581
35.52
35.455
35.387
35.316
35.244
35.171
35.098
35.022
34.943
34.862
34.781
34.7
34.623
34.551
34.486
34.428
34.378
34.334
34.297
34.264
34.235
34.208
34.183
34.159
34.137
34.115
34.094
34.072
34.05
34.025
33.998
33.97
33.941
33.913
33.886
33.861
33.838
33.819
33.802
33.788
33.777
33.768
33.763
33.759
33.758
33.76
33.762
33.765
33.767
33.769
33.77
33.771
33.771
33.77
33.769
33.765
33.76
33.751
33.741
33.728
33.714
33.698
33.682
33.665
33.648
33.631
33.612
33.592
33.569
33.545
33.519
33.491
33.463
33.433
33.404
33.373
33.342
33.31
33.277
33.242
33.206
33.169
33.13
33.091
33.05
33.01
32.97
32.93
32.89
32.851
32.812
32.777
32.746
32.722
32.706
32.7
32.706
32.725
32.76
32.814
32.888
32.984
33.104
33.249
33.417
33.607
33.82
34.053
34.304
34.57
34.849
35.136
35.426
35.716
35.999
36.273
36.533
36.778
37.006
37.216
37.408
37.581
37.735
37.868
37.98
38.074
38.149
38.208
38.252
38.282
38.298
38.302
38.295
38.276
38.246
38.207
38.159
38.104
38.041
37.973
37.899
37.821
37.739
37.654
37.567
37.478
37.39
37.301
37.213
37.125
37.035
36.943
36.848
36.748
36.645
36.539
36.43
36.32
36.21
36.101
35.996
35.895
35.799
35.709
35.626
35.551
35.484
35.427
35.38
35.342
35.313
35.294
35.282
35.278
35.282
35.292
35.309
35.331
35.359
35.391
35.427
35.466
35.507
35.549
35.592
35.636
35.677
35.716
35.75
35.778
35.801
35.817
35.826
35.829
35.827
35.819
35.807
35.791
35.772
35.749
35.722
35.69
35.648
35.596
35.534
35.464
35.387
35.306
35.222
35.138
35.056
34.976
34.899
34.827
34.759
34.696
34.637
34.583
34.533
34.487
34.443
34.402
34.363
34.324
34.285
34.243
34.199
34.151
34.099
34.041
33.979
33.914
33.847
33.78
33.715
33.653
33.595
33.543
33.497
33.459
33.427
33.402
33.381
33.364
33.351
33.34
33.33
33.321
33.309
33.296
33.281
33.264
33.246
33.227
33.208
33.19
33.173
33.16
33.149
33.142
33.137
33.136
33.137
33.139
33.143
33.146
33.149
33.151
33.151
33.151
33.149
33.147
33.144
33.14
33.136
33.13
33.124
33.115
33.105
33.092
33.078
33.064
33.049
33.035
33.02
33.003
32.985
32.965
32.942
32.917
32.888
32.857
32.825
32.793
32.762
32.734
32.71
32.694
32.687
32.692
32.714
32.754
32.815
32.899
33.008
33.143
33.305
33.495
33.711
33.951
34.213
34.492
34.784
35.085
35.391
35.697
35.999
36.293
36.576
36.846
37.102
37.342
37.563
37.765
37.948
38.11
38.251
38.371
38.471
38.552
38.614
38.658
38.685
38.695
38.689
38.671
38.639
38.597
38.547
38.488
38.425
38.358
38.288
38.216
38.141
38.066
37.99
37.914
37.838
37.764
37.688
37.611
37.532
37.449
37.365
37.278
37.191
37.104
37.018
36.933
36.849
36.766
36.683
36.599
36.514
36.429
36.343
36.259
36.176
36.097
36.02
35.948
35.882
35.822
35.772
35.731
35.701
35.68
35.668
35.664
35.666
35.672
35.682
35.695
35.712
35.733
35.755
35.78
35.805
35.829
35.851
35.868
35.882
35.891
35.897
35.9
35.9
35.897
35.892
35.885
35.875
35.863
35.848
35.829
35.807
35.782
35.752
35.718
35.679
35.635
35.585
35.53
35.471
35.408
35.345
35.28
35.215
35.15
35.084
35.016
34.948
34.878
34.806
34.734
34.662
34.592
34.522
34.453
34.385
34.317
34.249
34.181
34.113
34.048
33.984
33.923
33.865
33.809
33.757
33.707
33.66
33.616
33.574
33.533
33.496
33.46
33.426
33.394
33.363
33.335
33.307
33.281
33.256
33.232
33.208
33.185
33.162
33.14
33.117
33.095
33.074
33.054
33.037
33.021
33.007
32.994
32.981
32.97
32.958
32.947
32.936
32.924
32.912
32.9
32.888
32.874
32.858
32.842
32.824
32.806
32.788
32.771
32.755
32.74
32.724
32.708
32.691
32.671
32.649
32.625
32.597
32.565
32.532
32.496
32.458
32.419
32.378
32.335
32.29
32.246
32.203
32.164
32.129
32.101
32.081
32.072
32.074
32.089
32.121
32.17
32.242
32.339
32.463
32.616
32.8
33.015
33.257
33.524
33.812
34.116
34.432
34.757
35.086
35.413
35.734
36.045
36.341
36.621
36.882
37.123
37.342
37.54
37.717
37.872
38.005
38.116
38.205
38.273
38.321
38.352
38.367
38.367
38.354
38.327
38.288
38.233
38.164
38.083
37.994
37.9
37.803
37.708
37.614
37.522
37.431
37.343
37.257
37.174
37.093
37.014
36.936
36.858
36.781
36.703
36.624
36.544
36.462
36.378
36.292
36.203
36.112
36.019
35.925
35.83
35.736
35.645
35.558
35.478
35.406
35.343
35.289
35.245
35.211
35.186
35.171
35.165
35.167
35.176
35.194
35.218
35.247
35.281
35.319
35.358
35.399
35.441
35.482
35.522
35.561
35.598
35.631
35.66
35.685
35.706
35.723
35.736
35.746
35.751
35.752
35.748
35.739
35.723
35.702
35.673
35.639
35.598
35.553
35.503
35.449
35.393
35.334
35.274
35.212
35.148
35.084
35.018
34.951
34.881
34.81
34.736
34.659
34.581
34.503
34.426
34.351
34.278
34.209
34.143
34.08
34.019
33.961
33.905
33.851
33.799
33.75
33.704
33.658
33.615
33.572
33.529
33.487
33.446
33.406
33.369
33.334
33.304
33.277
33.256
33.238
33.224
33.211
33.199
33.187
33.175
33.164
33.152
33.14
33.129
33.118
33.108
33.098
33.088
33.079
33.071
33.063
33.056
33.05
33.043
33.036
33.029
33.023
33.019
33.016
33.014
33.012
33.01
33.006
32.998
32.988
32.975
32.959
32.941
32.921
32.899
32.876
32.85
32.822
32.792
32.759
32.725
32.691
32.658
32.629
32.605
32.589
32.58
32.582
32.596
32.623
32.666
32.728
32.811
32.916
33.046
33.202
33.382
33.586
33.811
34.055
34.315
34.588
34.87
35.159
35.45
35.74
36.023
36.297
36.559
36.805
37.034
37.245
37.436
37.608
37.761
37.894
38.006
38.098
38.17
38.223
38.26
38.282
38.291
38.288
38.274
38.25
38.216
38.172
38.119
38.059
37.992
37.918
37.839
37.755
37.667
37.576
37.483
37.39
37.295
37.201
37.107
37.012
36.916
36.819
36.718
36.612
36.503
36.389
36.273
36.155
36.036
35.917
35.8
35.685
35.575
35.469
35.369
35.276
35.191
35.113
35.044
34.985
34.934
34.894
34.865
34.846
34.839
34.844
34.861
34.89
34.929
34.977
35.032
35.092
35.156
35.221
35.287
35.35
35.41
35.466
35.516
35.561
35.599
35.631
35.657
35.676
35.688
35.694
35.694
35.687
35.673
35.651
35.623
35.589
35.549
35.504
35.455
35.402
35.348
35.292
35.235
35.176
35.115
35.051
34.985
34.917
34.847
34.777
34.705
34.633
34.559
34.485
34.409
34.332
34.253
34.172
34.09
34.008
33.926
33.846
33.769
33.696
33.627
33.563
33.505
33.454
33.409
33.371
33.34
33.314
33.292
33.271
33.251
33.233
33.215
33.198
33.181
33.163
33.143
33.12
33.094
33.065
33.034
33.003
32.972
32.945
32.921
32.903
32.891
32.884
32.881
32.883
32.887
32.894
32.902
32.911
32.921
32.93
32.938
32.943
32.945
32.943
32.938
32.929
32.916
32.899
32.88
32.86
32.839
32.818
32.798
32.779
32.76
32.742
32.724
32.706
32.686
32.666
32.643
32.619
32.594
32.568
32.542
32.52
32.508
32.508
32.525
32.562
32.624
32.712
32.829
32.978
33.16
33.374
33.621
33.898
34.201
34.524
34.864
35.213
35.567
35.92
36.266
36.6
36.92
37.221
37.501
37.757
37.99
38.196
38.378
38.534
38.666
38.777
38.867
38.937
38.989
39.023
39.041
39.045
39.036
39.017
38.989
38.955
38.916
38.872
38.824
38.772
38.717
38.658
38.597
38.533
38.467
38.397
38.326
38.252
38.175
38.096
38.015
37.933
37.852
37.771
37.691
37.611
37.53
37.447
37.362
37.275
37.187
37.097
37.006
36.916
36.827
36.74
36.656
36.576
36.5
36.43
36.366
36.309
36.26
36.219
36.184
36.156
36.134
36.117
36.105
36.099
36.097
36.099
36.105
36.114
36.126
36.14
36.156
36.173
36.192
36.211
36.231
36.249
36.267
36.282
36.294
36.303
36.308
36.309
36.305
36.297
36.284
36.266
36.243
36.214
36.179
36.139
36.093
36.042
35.989
35.932
35.873
35.812
35.75
35.686
35.619
35.551
35.481
35.41
35.338
35.265
35.193
35.12
35.048
34.978
34.908
34.839
34.77
34.7
34.628
34.556
34.483
34.409
34.334
34.259
34.186
34.115
34.049
33.989
33.936
33.889
33.849
33.813
33.782
33.754
33.727
33.703
33.679
33.656
33.634
33.613
33.591
33.57
33.549
33.527
33.505
33.483
33.463
33.444
33.426
33.411
33.397
33.385
33.373
33.361
33.349
33.336
33.323
33.31
33.296
33.282
33.266
33.25
33.233
33.215
33.195
33.175
33.154
33.132
33.109
33.085
33.059
33.032
33.002
32.971
32.94
32.908
32.877
32.848
32.821
32.796
32.776
32.76
32.752
32.754
32.769
32.802
32.856
32.935
33.042
33.177
33.341
33.532
33.75
33.992
34.255
34.538
34.836
35.145
35.46
35.778
36.094
36.403
36.702
36.988
37.257
37.509
37.74
37.949
38.135
38.297
38.434
38.548
38.64
38.711
38.764
38.8
38.822
38.83
38.826
38.812
38.787
38.754
38.715
38.669
38.617
38.56
38.5
38.435
38.367
38.295
38.219
38.141
38.061
37.979
37.897
37.815
37.732
37.648
37.562
37.475
37.385
37.294
37.202
37.109
37.016
36.923
36.832
36.742
36.654
36.569
36.487
36.41
36.338
36.27
36.208
36.152
36.1
36.054
36.014
35.983
35.959
35.943
35.934
35.933
35.938
35.948
35.961
35.978
35.996
36.016
36.036
36.056
36.076
36.097
36.116
36.135
36.153
36.169
36.183
36.195
36.205
36.213
36.218
36.219
36.216
36.208
36.196
36.178
36.154
36.125
36.09
36.05
36.005
35.953
35.895
35.831
35.761
35.686
35.607
35.525
35.443
35.361
35.28
35.2
35.123
35.049
34.977
34.909
34.844
34.782
34.721
34.66
34.598
34.534
34.466
34.397
34.326
34.255
34.185
34.117
34.053
33.993
33.938
33.887
33.841
33.798
33.76
33.725
33.694
33.665
33.639
33.614
33.588
33.561
33.533
33.504
33.474
33.444
33.415
33.388
33.364
33.343
33.325
33.311
33.302
33.296
33.294
33.295
33.298
33.304
33.31
33.317
33.324
33.329
33.332
33.333
33.33
33.324
33.313
33.299
33.279
33.255
33.226
33.195
33.161
33.127
33.095
33.064
33.036
33.009
32.983
32.957
32.931
32.903
32.876
32.847
32.817
32.788
32.758
32.73
32.703
32.679
32.658
32.642
32.636
32.643
32.667
32.713
32.785
32.885
33.017
33.181
33.377
33.604
33.861
34.145
34.45
34.773
35.108
35.45
35.793
36.131
36.459
36.772
37.068
37.345
37.599
37.83
38.038
38.222
38.381
38.517
38.629
38.72
38.789
38.839
38.871
38.887
38.887
38.873
38.847
38.812
38.77
38.72
38.666
38.606
38.542
38.474
38.401
38.324
38.242
38.157
38.068
37.976
37.884
