Trial 3:3back
35.532
35.503
35.477
35.455
35.44
35.431
35.428
35.429
35.434
35.443
35.455
35.47
35.488
35.507
35.526
35.544
35.559
35.571
35.579
35.582
35.581
35.575
35.565
35.55
35.533
35.513
35.492
35.47
35.449
35.428
35.407
35.387
35.368
35.348
35.328
35.308
35.288
35.269
35.25
35.23
35.21
35.188
35.166
35.143
35.12
35.097
35.073
35.048
35.022
34.995
34.968
34.941
34.914
34.886
34.859
34.832
34.805
34.779
34.754
34.73
34.707
34.686
34.667
34.65
34.635
34.621
34.609
34.597
34.586
34.576
34.566
34.557
34.549
34.542
34.536
34.529
34.523
34.519
34.516
34.515
34.513
34.51
34.506
34.499
34.49
34.48
34.469
34.457
34.446
34.434
34.422
34.41
34.398
34.385
34.371
34.356
34.34
34.323
34.307
34.291
34.277
34.264
34.253
34.243
34.235
34.228
34.222
34.215
34.21
34.204
34.199
34.194
34.19
34.188
34.186
34.186
34.188
34.192
34.196
34.201
34.206
34.208
34.209
34.207
34.202
34.196
34.188
34.179
34.172
34.165
34.159
34.153
34.147
34.139
34.129
34.118
34.104
34.089
34.074
34.06
34.048
34.039
34.037
34.042
34.057
34.083
34.121
34.173
34.24
34.323
34.424
34.543
34.678
34.83
34.997
35.177
35.367
35.564
35.765
35.966
36.163
36.353
36.534
36.704
36.86
37.001
37.125
37.233
37.322
37.393
37.445
37.479
37.497
37.499
37.486
37.462
37.427
37.384
37.335
37.281
37.223
37.164
37.106
37.05
37.0
36.956
36.919
36.889
36.866
36.849
36.836
36.827
36.819
36.813
36.806
36.8
36.792
36.783
36.771
36.757
36.74
36.721
36.699
36.675
36.65
36.623
36.595
36.567
36.538
36.508
36.477
36.445
36.411
36.377
36.341
36.306
36.27
36.235
36.202
36.169
36.138
36.108
36.08
36.055
36.031
36.011
35.995
35.983
35.975
35.971
35.972
35.977
35.986
35.997
36.011
36.026
36.04
36.054
36.065
36.073
36.078
36.079
36.077
36.074
36.07
36.066
36.062
36.059
36.055
36.05
36.043
36.032
36.018
36.001
35.982
35.96
35.937
35.911
35.885
35.857
35.828
35.799
35.772
35.746
35.721
35.699
35.678
35.656
35.634
35.611
35.586
35.561
35.534
35.508
35.48
35.453
35.426
35.399
35.374
35.35
35.327
35.304
35.283
35.263
35.243
35.223
35.204
35.184
35.164
35.143
35.123
35.102
35.082
35.062
35.042
35.022
35.001
34.98
34.959
34.938
34.918
34.899
34.883
34.869
34.857
34.848
34.841
34.834
34.828
34.82
34.809
34.796
34.781
34.765
34.748
34.731
34.713
34.694
34.675
34.659
34.643
34.63
34.617
34.606
34.596
34.587
34.581
34.576
34.573
34.572
34.573
34.575
34.578
34.58
34.582
34.582
34.579
34.573
34.564
34.553
34.539
34.525
34.51
34.497
34.484
34.472
34.461
34.452
34.444
34.436
34.428
34.42
34.41
34.399
34.388
34.379
34.372
34.367
34.363
34.36
34.357
34.354
34.35
34.345
34.34
34.335
34.33
34.327
34.328
34.334
34.349
34.375
34.414
34.468
34.54
34.629
34.737
34.864
35.008
35.17
35.346
35.535
35.733
35.937
36.144
36.348
36.546
36.736
36.916
37.082
37.234
37.369
37.486
37.585
37.664
37.726
37.77
37.798
37.811
37.812
37.803
37.786
37.763
37.735
37.704
37.671
37.638
37.606
37.576
37.548
37.523
37.501
37.483
37.469
37.457
37.448
37.441
37.435
37.43
37.426
37.421
37.415
37.407
37.396
37.383
37.365
37.344
37.318
37.288
37.255
37.219
37.182
37.145
37.108
37.072
37.036
37.002
36.97
36.939
36.909
36.881
36.857
36.842
36.835
36.835
36.839
36.845
36.849
36.851
36.848
36.839
36.825
36.807
36.784
36.76
36.734
36.706
36.679
36.652
36.627
36.604
36.584
36.568
36.556
36.548
36.544
36.544
36.546
36.548
36.551
36.553
36.552
36.549
36.543
36.533
36.519
36.501
36.481
36.459
36.435
36.41
36.384
36.357
36.329
36.299
36.269
36.239
36.209
36.18
36.153
36.128
36.105
36.083
36.063
36.043
36.023
36.002
35.981
35.958
35.933
35.908
35.883
35.858
35.834
35.81
35.786
35.763
35.74
35.717
35.695
35.672
35.649
35.626
35.605
35.587
35.57
35.554
35.537
35.518
35.497
35.475
35.45
35.425
35.4
35.375
35.352
35.33
35.31
35.293
35.277
35.264
35.253
35.244
35.236
35.228
35.222
35.215
35.208
35.2
35.191
35.182
35.173
35.165
35.16
35.158
35.157
35.157
35.157
35.155
35.15
35.141
35.127
35.109
35.088
35.066
35.044
35.023
35.002
34.984
34.967
34.952
34.938
34.925
34.912
34.899
34.886
34.875
34.864
34.854
34.845
34.837
34.829
34.821
34.813
34.803
34.789
34.771
34.75
34.725
34.698
34.671
34.644
34.619
34.595
34.575
34.557
34.543
34.532
34.525
34.52
34.516
34.513
34.512
34.515
34.524
34.54
34.568
34.608
34.664
34.738
34.832
34.946
35.081
35.235
35.406
35.591
35.787
35.992
36.2
36.409
36.615
36.815
37.006
37.186
37.351
37.499
37.63
37.743
37.838
37.917
37.979
38.027
38.061
38.085
38.099
38.106
38.105
38.099
38.088
38.073
38.054
38.033
38.011
37.987
37.962
37.936
37.909
37.882
37.854
37.826
37.796
37.766
37.736
37.707
37.68
37.655
37.632
37.61
37.59
37.571
37.553
37.535
37.518
37.499
37.479
37.457
37.431
37.401
37.367
37.33
37.29
37.247
37.203
37.157
37.11
37.065
37.021
36.98
36.941
36.905
36.873
36.844
36.819
36.797
36.78
36.768
36.759
36.755
36.754
36.756
36.76
36.765
36.77
36.776
36.781
36.786
36.791
36.796
36.802
36.808
36.813
36.819
36.826
36.832
36.838
36.842
36.843
36.841
36.835
36.824
36.809
36.791
36.768
36.742
36.712
36.678
36.64
36.6
36.558
36.514
36.471
36.428
36.389
36.352
36.32
36.291
36.265
36.241
36.219
36.197
36.176
36.154
36.132
36.111
36.092
36.073
36.057
36.041
36.026
36.011
35.996
35.979
35.962
35.943
35.924
35.904
35.884
35.865
35.844
35.824
35.803
35.782
35.759
35.736
35.712
35.687
35.663
35.64
35.618
35.598
35.58
35.563
35.548
35.534
35.521
35.509
35.498
35.486
35.474
35.463
35.452
35.441
35.431
35.423
35.417
35.412
35.409
35.406
35.402
35.398
35.393
35.388
35.382
35.375
35.367
35.358
35.35
35.344
35.339
35.334
35.329
35.324
35.316
35.306
35.293
35.277
35.258
35.236
35.212
35.185
35.158
35.13
35.103
35.079
35.06
35.046
35.04
35.043
35.055
35.08
35.117
35.169
35.237
35.32
35.42
35.536
35.666
35.809
35.962
36.124
36.292
36.464
36.639
36.812
36.981
37.144
37.297
37.44
37.57
37.687
37.789
37.877
37.95
38.009
38.054
38.086
38.106
38.115
38.114
38.105
38.091
38.071
38.048
38.023
37.996
37.97
37.945
37.922
37.901
37.883
37.864
37.843
37.818
37.792
37.764
37.737
37.712
37.689
37.669
37.654
37.642
37.632
37.624
37.616
37.607
37.595
37.579
37.559
37.535
37.508
37.477
37.443
37.407
37.368
37.327
37.286
37.244
37.203
37.163
37.126
37.093
37.064
37.039
37.017
36.997
36.979
36.963
36.949
36.936
36.925
36.916
36.91
36.907
36.907
36.909
36.914
36.92
36.925
36.93
36.934
36.936
36.936
36.934
36.929
36.922
36.912
36.899
36.882
36.861
36.834
36.803
36.767
36.726
36.681
36.632
36.581
36.529
36.479
36.43
36.382
36.336
36.291
36.246
36.201
36.156
36.113
36.071
36.032
35.995
35.962
35.933
35.907
35.883
35.86
35.839
35.818
35.797
35.775
35.752
35.728
35.702
35.675
35.647
35.619
35.591
35.564
35.537
35.511
35.485
35.459
35.434
35.41
35.389
35.37
35.354
35.34
35.327
35.317
35.308
35.3
35.291
35.281
35.267
35.251
35.232
35.211
35.188
35.164
35.14
35.118
35.097
35.079
35.064
35.05
35.039
35.028
35.02
35.011
35.004
34.996
34.988
34.979
34.969
34.956
34.94
34.923
34.904
34.884
34.866
34.848
34.832
34.817
34.804
34.793
34.784
34.774
34.764
34.753
34.741
34.726
34.71
34.691
34.67
34.646
34.622
34.596
34.57
34.544
34.519
34.496
34.475
34.457
34.441
34.43
34.422
34.42
34.425
34.438
34.461
34.494
34.539
34.598
34.671
34.759
34.862
34.982
35.119
35.272
35.442
35.626
35.822
36.027
36.239
36.452
36.664
36.87
37.068
37.254
37.427
37.584
37.725
37.848
37.952
38.038
38.106
38.158
38.194
38.217
38.228
38.228
38.219
38.203
38.182
38.158
38.133
38.109
38.087
38.069
38.056
38.047
38.043
38.043
38.047
38.055
38.064
38.074
38.085
38.095
38.104
38.112
38.118
38.122
38.123
38.121
38.115
38.106
38.092
38.074
38.052
38.027
37.998
37.967
37.934
37.898
37.859
37.819
37.776
37.733
37.688
37.644
37.601
37.56
37.524
37.493
37.464
37.439
37.417
37.396
37.377
37.358
37.341
37.325
37.31
37.296
37.283
37.271
37.261
37.252
37.243
37.235
37.226
37.217
37.207
37.196
37.186
37.175
37.163
37.149
37.132
37.113
37.09
37.058
37.019
36.973
36.924
36.872
36.822
36.777
36.737
36.705
36.679
36.661
36.648
36.64
36.635
36.63
36.624
36.617
36.607
36.594
36.577
36.557
36.533
36.506
36.476
36.445
36.413
36.379
36.343
36.306
36.267
36.228
36.189
36.15
36.11
36.07
36.03
35.991
35.952
35.915
35.879
35.846
35.815
35.789
35.765
35.745
35.728
35.714
35.703
35.692
35.683
35.672
35.66
35.646
35.629
35.61
35.589
35.565
35.54
35.514
35.487
35.461
35.435
35.41
35.385
35.361
35.338
35.316
35.297
35.28
35.266
35.256
35.248
35.242
35.237
35.232
35.225
35.216
35.205
35.191
35.176
35.159
35.141
35.122
35.103
35.084
35.064
35.045
35.026
35.008
34.991
34.973
34.955
34.937
34.919
34.9
34.881
34.862
34.843
34.823
34.803
34.784
34.765
34.747
34.73
34.713
34.698
34.683
34.669
34.655
34.642
34.628
34.615
34.602
34.589
34.577
34.568
34.564
34.568
34.581
34.606
34.647
34.704
34.781
34.879
34.999
35.14
35.303
35.484
35.682
35.892
36.11
36.331
36.551
36.765
36.97
37.164
37.343
37.507
37.655
37.786
37.901
38.0
38.084
38.153
38.208
38.25
38.282
38.304
38.319
38.327
38.33
38.329
38.325
38.319
38.311
38.301
38.289
38.276
38.262
38.249
38.238
38.229
38.223
38.219
38.217
38.218
38.221
38.225
38.229
38.233
38.237
38.239
38.24
38.238
38.232
38.223
38.21
38.192
38.169
38.14
38.106
38.067
38.024
37.978
37.931
37.881
37.831
37.781
37.731
37.682
37.632
37.583
37.534
37.488
37.445
37.405
37.368
37.336
37.306
37.281
37.259
37.241
37.227
37.217
37.211
37.208
37.208
37.209
37.211
37.213
37.213
37.21
37.204
37.195
37.181
37.163
37.142
37.118
37.091
37.064
37.036
37.008
36.981
36.953
36.926
36.896
36.865
36.832
36.797
36.761
36.725
36.688
36.653
36.618
36.585
36.553
36.523
36.493
36.464
36.435
36.404
36.373
36.341
36.308
36.274
36.24
36.205
36.17
36.135
36.1
36.065
36.031
35.997
35.964
35.932
35.901
35.872
35.844
35.816
35.789
35.761
35.728
35.685
35.634
35.576
35.515
35.454
35.394
35.34
35.292
35.252
35.222
35.201
35.189
35.184
35.187
35.195
35.206
35.22
35.233
35.246
35.255
35.261
35.262
35.257
35.246
35.23
35.208
35.183
35.154
35.123
35.09
35.059
35.029
35.002
34.978
34.958
34.943
34.931
34.924
34.92
34.917
34.915
34.911
34.906
34.899
34.888
34.874
34.856
34.836
34.813
34.788
34.763
34.737
34.712
34.687
34.664
34.642
34.622
34.602
34.583
34.565
34.548
34.531
34.515
34.499
34.484
34.469
34.454
34.441
34.428
34.417
34.407
34.397
34.389
34.38
34.372
34.362
34.352
34.34
34.327
34.313
34.297
34.279
34.26
34.238
34.215
34.191
34.165
34.139
34.114
34.091
34.071
34.056
34.048
34.048
34.058
34.081
34.119
34.173
34.244
34.334
34.443
34.572
34.719
34.882
35.058
35.246
35.444
35.65
35.861
36.074
36.287
36.495
36.696
36.888
37.067
37.232
37.381
37.513
37.628
37.726
37.806
37.869
37.915
37.944
37.96
37.963
37.957
37.942
37.922
37.899
37.874
37.849
37.825
37.804
37.784
37.767
37.753
37.741
37.732
37.724
37.719
37.715
37.713
37.713
37.714
37.716
37.717
37.717
37.714
37.709
37.701
37.689
37.674
37.657
37.636
37.613
37.586
37.555
37.52
37.481
37.438
37.392
37.345
37.296
37.248
37.201
37.157
37.115
37.076
37.041
37.008
36.978
36.952
36.928
36.907
36.889
36.874
36.862
36.853
36.846
36.841
36.836
36.83
36.824
36.817
36.808
36.797
36.784
36.768
36.752
36.735
36.718
36.701
36.683
36.665
36.645
36.623
36.6
36.575
36.55
36.525
36.5
36.474
36.447
36.418
36.386
36.353
36.319
36.284
36.248
36.212
36.174
36.136
36.099
36.063
36.029
35.997
35.968
35.942
35.918
35.896
35.875
35.854
35.831
35.808
35.782
35.754
35.724
35.691
35.656
35.621
35.586
35.553
35.521
35.492
35.465
35.441
35.419
35.399
35.38
35.364
35.349
35.333
35.318
35.301
35.283
35.263
35.242
35.218
35.193
35.166
35.138
35.109
35.081
35.053
35.028
35.004
34.982
34.962
34.944
34.928
34.914
34.899
34.883
34.866
34.847
34.826
34.805
34.782
34.759
34.735
34.712
34.69
34.67
34.651
34.633
34.618
34.603
34.589
34.574
34.56
34.545
34.529
34.513
34.495
34.477
34.457
34.435
34.412
34.387
34.362
34.336
34.309
34.282
34.254
34.227
34.201
34.178
34.156
34.138
34.121
34.108
34.095
34.082
34.069
34.055
34.041
34.025
34.008
33.991
33.972
33.953
33.935
33.918
33.903
33.889
33.875
33.861
33.847
33.832
33.815
33.797
33.777
33.756
33.733
33.711
33.687
33.665
33.642
33.622
33.604
33.588
33.579
33.582
33.601
33.634
33.679
33.735
33.799
33.871
33.95
34.037
34.131
34.234
34.346
34.469
34.602
34.744
34.896
35.055
35.22
35.39
35.563
35.737
35.911
36.081
36.245
36.402
36.55
36.687
36.81
36.919
37.012
37.09
37.154
37.203
37.239
37.264
37.278
37.285
37.284
37.279
37.269
37.257
37.243
37.228
37.212
37.197
37.182
37.169
37.157
37.148
37.14
37.134
37.129
37.126
37.124
37.123
37.124
37.127
37.13
37.133
37.136
37.137
37.135
37.131
37.121
37.106
37.085
37.057
37.022
36.982
36.935
36.882
36.824
36.763
36.701
36.638
36.576
36.516
36.459
36.407
36.36
36.32
36.285
36.256
36.232
36.212
36.195
36.18
36.167
36.154
36.142
36.131
36.119
36.107
36.095
36.082
36.068
36.053
36.038
36.023
36.009
35.996
35.985
35.975
35.967
35.961
35.955
35.949
35.942
35.934
35.922
35.907
35.888
35.866
35.84
35.812
35.781
35.748
35.713
35.678
35.642
35.607
35.573
35.54
35.508
35.478
35.448
35.42
35.394
35.368
35.343
35.319
35.294
35.267
35.239
35.209
35.176
35.141
35.107
35.072
35.037
35.003
34.969
34.935
34.9
34.866
34.832
34.799
34.768
34.739
34.713
34.689
34.668
34.648
34.629
34.611
34.593
34.574
34.555
34.536
34.516
34.498
34.481
34.465
34.451
34.438
34.425
34.414
34.403
34.391
34.378
34.363
34.346
34.328
34.309
34.288
34.267
34.246
34.226
34.207
34.19
34.174
34.16
34.148
34.136
34.123
34.11
34.095
34.079
34.061
34.042
34.022
34.002
33.984
33.967
33.952
33.939
33.928
33.92
33.913
33.907
33.902
33.897
33.892
33.886
33.879
33.872
33.863
33.854
33.843
33.832
33.819
33.804
33.788
33.77
33.75
33.727
33.703
33.678
33.653
33.629
33.607
33.586
33.568
33.552
33.54
33.531
33.524
33.518
33.512
33.506
33.498
33.488
33.475
33.461
33.447
33.432
33.42
33.41
33.406
33.407
33.418
33.438
33.469
33.512
33.568
33.639
33.725
33.827
33.946
34.081
34.231
34.393
34.566
34.746
34.929
35.112
35.291
35.463
35.627
35.781
35.923
36.052
36.166
36.266
36.35
36.418
36.47
36.507
36.53
36.541
36.542
36.534
36.518
36.498
36.473
36.446
36.418
36.39
36.364
36.339
36.316
36.296
36.28
36.267
36.258
36.25
36.244
36.239
36.235
36.23
36.226
36.221
36.215
36.209
36.201
36.191
36.179
36.162
36.142
36.119
36.093
36.063
36.031
35.996
35.959
35.922
35.883
35.846
35.808
35.773
35.74
35.709
35.68
35.653
35.629
35.607
35.588
35.57
35.553
35.537
35.522
35.507
35.492
35.478
35.465
35.452
35.44
35.431
35.424
35.419
35.416
35.416
35.416
35.416
35.416
35.415
35.412
35.406
35.396
35.383
35.368
35.351
35.331
35.311
35.289
35.268
35.246
35.222
35.195
35.166
35.135
35.102
35.069
35.035
35.003
34.971
34.941
34.913
34.887
34.863
34.84
34.817
34.794
34.771
34.748
34.723
34.697
34.669
34.64
34.612
34.585
34.559
34.535
34.512
34.491
34.47
34.45
34.429
34.407
34.384
34.36
34.336
34.312
34.287
34.264
34.241
34.221
34.202
34.184
34.167
34.152
34.136
34.121
34.105
34.091
34.08
34.071
34.067
34.065
34.065
34.066
34.065
34.062
34.057
34.049
34.038
34.023
34.004
33.981
33.956
33.929
33.9
33.87
33.841
33.812
33.785
33.761
33.74
33.722
33.706
33.692
33.68
33.669
33.659
33.651
33.644
33.639
33.636
33.635
33.634
33.635
33.635
33.635
33.634
33.631
33.627
33.619
33.608
33.593
33.577
33.558
33.538
33.517
33.496
33.476
33.457
33.439
33.421
33.404
33.386
33.369
33.352
33.335
33.318
33.301
33.287
33.276
33.269
33.267
33.27
33.279
33.293
33.313
33.338
33.368
33.404
33.448
33.502
33.566
33.642
33.73
33.831
33.944
34.069
34.205
34.35
34.501
34.657
34.816
34.973
35.127
35.274
35.411
35.538
35.651
35.75
35.835
35.905
35.96
36.0
36.028
36.044
36.05
36.047
36.038
36.023
36.006
35.986
35.967
35.949
35.933
35.92
35.909
35.901
35.894
35.888
35.882
35.876
35.871
35.864
35.858
35.851
35.844
35.837
35.83
35.823
35.818
35.812
35.807
35.802
35.797
35.79
35.782
35.773
35.762
35.748
35.733
35.715
35.694
35.669
35.64
35.609
35.575
35.538
35.5
35.461
35.421
35.383
35.346
35.312
35.28
35.252
35.227
35.206
35.188
35.174
35.163
35.154
35.147
35.141
35.136
35.133
35.13
35.125
35.119
35.112
35.103
35.092
35.081
35.07
35.06
35.051
35.044
35.038
35.032
35.026
35.02
35.012
35.004
34.994
34.982
34.967
34.95
34.929
34.904
34.876
34.845
34.812
34.778
34.744
34.712
34.682
34.655
34.631
34.61
34.591
34.572
34.553
34.533
34.512
34.489
34.466
34.444
34.421
34.399
34.378
34.359
34.34
34.322
34.305
34.288
34.27
34.252
34.232
34.21
34.187
34.163
34.139
34.116
34.095
34.075
34.058
34.045
34.037
34.033
34.031
34.031
34.03
34.028
34.022
34.012
33.998
33.98
33.96
33.938
33.915
33.892
33.869
33.845
33.819
33.793
33.766
33.738
33.709
33.679
33.648
33.618
33.588
33.561
33.536
33.513
33.495
33.481
33.471
33.464
33.46
33.457
33.455
33.454
33.451
33.447
33.442
33.435
33.429
33.422
33.416
33.409
33.402
33.393
33.381
33.365
33.345
33.322
33.297
33.271
33.246
33.224
33.203
33.185
33.171
33.16
33.152
33.147
33.142
33.138
33.135
33.131
33.128
33.124
33.119
33.114
33.108
33.102
33.094
33.085
33.073
33.059
33.043
33.026
33.01
32.994
32.98
32.97
32.964
32.963
32.97
32.986
33.012
33.05
33.101
33.166
33.245
33.34
33.45
33.576
33.715
33.867
34.029
34.197
34.369
34.542
34.714
34.882
35.043
35.195
35.336
35.464
35.577
35.675
35.758
35.826
35.879
35.92
35.95
35.97
35.982
35.988
35.99
35.988
35.984
35.977
35.969
35.959
35.948
35.937
35.925
35.914
35.902
35.891
35.881
35.873
35.867
35.864
35.862
35.863
35.866
35.869
35.874
35.878
35.881
35.884
35.885
35.886
35.886
35.883
35.879
35.872
35.861
35.848
35.831
35.811
35.786
35.758
35.728
35.695
35.662
35.628
35.594
35.561
35.53
35.502
35.476
35.451
35.428
35.405
35.385
35.365
35.348
35.332
35.318
35.306
35.297
35.291
35.287
35.285
35.284
35.283
35.283
35.283
35.285
35.288
35.292
35.297
35.302
35.306
35.308
35.308
35.304
35.296
35.283
35.265
35.242
35.215
35.183
35.152
35.122
35.095
35.071
35.05
35.03
35.013
34.995
34.977
34.957
34.935
34.91
34.883
34.854
34.825
34.796
34.772
34.753
34.739
34.729
34.72
34.712
34.701
34.688
34.671
34.651
34.626
34.597
34.566
34.532
34.498
34.465
34.432
34.401
34.373
34.349
34.329
34.311
34.296
34.282
34.267
34.254
34.242
34.232
34.223
34.214
34.205
34.195
34.184
34.17
