Trial 3:3back
36.46
36.472
36.472
36.462
36.442
36.414
36.379
36.341
36.299
36.257
36.216
36.176
36.139
36.105
36.074
36.048
36.027
36.011
35.999
35.991
35.985
35.981
35.977
35.973
35.968
35.96
35.949
35.935
35.917
35.895
35.869
35.841
35.811
35.779
35.746
35.714
35.682
35.653
35.627
35.604
35.585
35.57
35.558
35.55
35.546
35.545
35.55
35.559
35.572
35.589
35.608
35.628
35.648
35.667
35.685
35.699
35.709
35.714
35.715
35.71
35.7
35.685
35.666
35.644
35.62
35.594
35.567
35.54
35.513
35.487
35.462
35.438
35.416
35.396
35.378
35.362
35.346
35.33
35.315
35.298
35.281
35.261
35.24
35.216
35.189
35.159
35.128
35.094
35.061
35.027
34.993
34.961
34.93
34.9
34.871
34.844
34.819
34.796
34.776
34.758
34.743
34.73
34.719
34.711
34.704
34.7
34.697
34.695
34.692
34.687
34.681
34.672
34.661
34.647
34.63
34.611
34.589
34.565
34.538
34.511
34.485
34.46
34.436
34.416
34.398
34.384
34.372
34.364
34.359
34.357
34.358
34.362
34.367
34.375
34.383
34.392
34.402
34.413
34.425
34.438
34.453
34.47
34.491
34.516
34.547
34.585
34.631
34.687
34.753
34.828
34.914
35.008
35.109
35.216
35.327
35.441
35.555
35.668
35.778
35.881
35.977
36.063
36.139
36.204
36.256
36.297
36.324
36.339
36.341
36.332
36.313
36.286
36.251
36.211
36.165
36.116
36.065
36.014
35.963
35.914
35.868
35.824
35.783
35.746
35.714
35.688
35.666
35.649
35.637
35.629
35.623
35.617
35.611
35.602
35.591
35.577
35.56
35.54
35.517
35.492
35.465
35.437
35.408
35.38
35.353
35.329
35.308
35.291
35.279
35.27
35.266
35.267
35.273
35.284
35.298
35.317
35.337
35.358
35.378
35.396
35.412
35.425
35.434
35.438
35.438
35.435
35.426
35.413
35.396
35.375
35.35
35.322
35.29
35.255
35.219
35.181
35.143
35.107
35.073
35.041
35.012
34.986
34.963
34.942
34.922
34.905
34.888
34.872
34.856
34.838
34.82
34.8
34.778
34.755
34.731
34.705
34.677
34.648
34.617
34.584
34.55
34.517
34.485
34.457
34.432
34.412
34.395
34.382
34.373
34.367
34.364
34.365
34.367
34.372
34.379
34.386
34.391
34.395
34.397
34.397
34.395
34.391
34.384
34.374
34.36
34.343
34.323
34.301
34.279
34.257
34.238
34.221
34.205
34.192
34.181
34.172
34.166
34.162
34.161
34.161
34.164
34.169
34.175
34.185
34.197
34.214
34.235
34.262
34.295
34.333
34.379
34.433
34.493
34.562
34.636
34.717
34.803
34.894
34.989
35.086
35.186
35.285
35.384
35.479
35.571
35.657
35.736
35.806
35.868
35.921
35.964
35.997
36.02
36.032
36.035
36.028
36.015
35.994
35.967
35.935
35.898
35.859
35.818
35.775
35.733
35.691
35.652
35.614
35.58
35.548
35.519
35.493
35.47
35.451
35.435
35.422
35.411
35.401
35.393
35.385
35.376
35.367
35.357
35.345
35.331
35.316
35.298
35.277
35.256
35.235
35.215
35.199
35.187
35.18
35.178
35.18
35.188
35.199
35.213
35.23
35.248
35.267
35.288
35.308
35.329
35.349
35.369
35.387
35.402
35.414
35.421
35.424
35.422
35.415
35.402
35.385
35.364
35.34
35.313
35.285
35.257
35.227
35.198
35.171
35.145
35.121
35.099
35.08
35.063
35.048
35.036
35.027
35.019
35.014
35.009
35.004
34.998
34.99
34.98
34.969
34.955
34.938
34.918
34.895
34.868
34.838
34.807
34.774
34.741
34.71
34.68
34.652
34.628
34.607
34.588
34.573
34.56
34.551
34.545
34.541
34.538
34.537
34.536
34.535
34.534
34.531
34.527
34.522
34.514
34.503
34.488
34.47
34.45
34.427
34.402
34.376
34.349
34.323
34.299
34.279
34.264
34.253
34.248
34.25
34.26
34.279
34.307
34.344
34.39
34.443
34.5
34.557
34.613
34.67
34.73
34.795
34.867
34.946
35.033
35.126
35.224
35.327
35.43
35.533
35.632
35.725
35.812
35.89
35.959
36.02
36.071
36.113
36.145
36.168
36.181
36.186
36.183
36.174
36.161
36.142
36.12
36.094
36.066
36.035
36.003
35.971
35.937
35.902
35.867
35.832
35.798
35.765
35.734
35.704
35.676
35.65
35.625
35.601
35.578
35.556
35.536
35.518
35.502
35.489
35.478
35.47
35.465
35.462
35.461
35.462
35.465
35.468
35.473
35.476
35.478
35.477
35.475
35.472
35.469
35.466
35.465
35.464
35.465
35.466
35.469
35.474
35.481
35.49
35.499
35.51
35.521
35.531
35.54
35.546
35.551
35.554
35.553
35.549
35.541
35.529
35.513
35.493
35.471
35.446
35.418
35.389
35.358
35.324
35.289
35.253
35.215
35.176
35.138
35.099
35.062
35.026
34.992
34.962
34.935
34.911
34.89
34.874
34.86
34.85
34.841
34.833
34.824
34.815
34.805
34.794
34.781
34.766
34.749
34.73
34.709
34.686
34.661
34.636
34.611
34.588
34.567
34.548
34.53
34.514
34.501
34.49
34.484
34.48
34.48
34.481
34.483
34.485
34.486
34.487
34.486
34.484
34.479
34.472
34.462
34.448
34.432
34.414
34.395
34.377
34.36
34.346
34.337
34.333
34.336
34.347
34.368
34.4
34.444
34.501
34.571
34.652
34.745
34.847
34.958
35.075
35.197
35.321
35.445
35.567
35.683
35.791
35.888
35.974
36.049
36.112
36.163
36.202
36.23
36.248
36.257
36.26
36.257
36.25
36.239
36.226
36.212
36.197
36.181
36.166
36.152
36.138
36.125
36.113
36.1
36.086
36.071
36.056
36.041
36.025
36.007
35.988
35.967
35.942
35.914
35.884
35.852
35.818
35.784
35.749
35.716
35.685
35.657
35.633
35.613
35.598
35.587
35.583
35.582
35.587
35.596
35.608
35.623
35.639
35.656
35.672
35.686
35.697
35.706
35.712
35.715
35.715
35.713
35.708
35.702
35.695
35.686
35.675
35.665
35.655
35.644
35.634
35.623
35.611
35.598
35.585
35.571
35.558
35.546
35.532
35.516
35.496
35.473
35.448
35.422
35.395
35.369
35.342
35.316
35.289
35.262
35.234
35.206
35.178
35.15
35.122
35.096
35.07
35.045
35.021
34.998
34.975
34.952
34.931
34.91
34.891
34.874
34.859
34.845
34.833
34.821
34.811
34.8
34.788
34.775
34.759
34.742
34.721
34.698
34.673
34.647
34.621
34.595
34.569
34.545
34.522
34.501
34.484
34.47
34.461
34.455
34.452
34.451
34.453
34.457
34.46
34.464
34.468
34.47
34.47
34.467
34.462
34.455
34.447
34.439
34.432
34.427
34.427
34.431
34.441
34.461
34.49
34.532
34.587
34.656
34.738
34.832
34.938
35.052
35.175
35.302
35.433
35.562
35.688
35.809
35.92
36.023
36.114
36.193
36.259
36.312
36.352
36.379
36.393
36.397
36.391
36.378
36.359
36.336
36.308
36.279
36.249
36.218
36.188
36.159
36.133
36.108
36.086
36.066
36.047
36.03
36.013
35.998
35.983
35.969
35.954
35.939
35.922
35.902
35.881
35.857
35.83
35.802
35.772
35.74
35.708
35.674
35.641
35.61
35.582
35.558
35.539
35.525
35.516
35.513
35.515
35.522
35.535
35.552
35.573
35.597
35.622
35.648
35.673
35.696
35.717
35.734
35.746
35.753
35.754
35.749
35.738
35.723
35.704
35.681
35.656
35.631
35.605
35.58
35.556
35.534
35.514
35.495
35.478
35.462
35.448
35.436
35.424
35.412
35.401
35.39
35.378
35.365
35.35
35.332
35.31
35.284
35.254
35.222
35.186
35.15
35.113
35.075
35.038
35.002
34.968
34.937
34.91
34.886
34.867
34.85
34.836
34.825
34.816
34.81
34.806
34.803
34.801
34.798
34.793
34.786
34.776
34.764
34.749
34.732
34.711
34.689
34.663
34.637
34.609
34.581
34.555
34.531
34.509
34.489
34.472
34.458
34.446
34.438
34.432
34.428
34.427
34.428
34.431
34.435
34.44
34.446
34.453
34.461
34.472
34.484
34.5
34.519
34.542
34.569
34.603
34.643
34.691
34.747
34.811
34.885
34.967
35.056
35.152
35.254
35.36
35.469
35.58
35.689
35.794
35.895
35.987
36.07
36.143
36.205
36.256
36.294
36.32
36.336
36.348
36.356
36.363
36.367
36.366
36.358
36.341
36.314
36.278
36.234
36.183
36.127
36.068
36.008
35.946
35.886
35.829
35.776
35.73
35.69
35.658
35.634
35.616
35.603
35.593
35.585
35.576
35.566
35.555
35.54
35.523
35.501
35.477
35.45
35.422
35.395
35.37
35.348
35.33
35.316
35.306
35.3
35.298
35.3
35.306
35.317
35.331
35.348
35.367
35.388
35.409
35.429
35.449
35.466
35.48
35.49
35.494
35.492
35.485
35.472
35.455
35.433
35.409
35.381
35.351
35.319
35.287
35.255
35.223
35.193
35.165
35.138
35.114
35.093
35.074
35.059
35.046
35.036
35.028
35.02
35.011
35.0
34.987
34.97
34.951
34.929
34.905
34.878
34.85
34.82
34.789
34.756
34.723
34.689
34.657
34.628
34.602
34.579
34.559
34.543
34.53
34.521
34.515
34.512
34.512
34.515
34.518
34.522
34.524
34.524
34.522
34.518
34.511
34.501
34.488
34.472
34.452
34.431
34.407
34.383
34.359
34.336
34.315
34.295
34.277
34.262
34.248
34.238
34.233
34.232
34.237
34.247
34.263
34.286
34.316
34.352
34.395
34.445
34.501
34.564
34.633
34.707
34.785
34.867
34.953
35.041
35.131
35.223
35.315
35.407
35.497
35.585
35.668
35.747
35.819
35.886
35.946
35.999
36.045
36.082
36.112
36.134
36.147
36.153
36.151
36.141
36.124
36.101
36.073
36.039
36.002
35.961
35.918
35.873
35.827
35.782
35.736
35.693
35.653
35.616
35.584
35.556
35.531
35.51
35.493
35.478
35.467
35.457
35.449
35.443
35.439
35.436
35.433
35.431
35.43
35.429
35.429
35.428
35.428
35.426
35.424
35.421
35.419
35.418
35.419
35.422
35.427
35.434
35.443
35.454
35.466
35.48
35.494
35.509
35.523
35.536
35.547
35.557
35.565
35.572
35.576
35.578
35.577
35.572
35.563
35.549
35.529
35.504
35.474
35.441
35.405
35.368
35.33
35.292
35.254
35.219
35.186
35.157
35.131
35.109
35.089
35.072
35.057
35.044
35.032
35.022
35.013
35.004
34.994
34.981
34.967
34.95
34.933
34.914
34.892
34.869
34.844
34.818
34.791
34.764
34.738
34.712
34.687
34.664
34.643
34.624
34.607
34.592
34.58
34.571
34.564
34.559
34.557
34.557
34.558
34.56
34.562
34.562
34.56
34.556
34.55
34.541
34.53
34.518
34.505
34.492
34.481
34.474
34.471
34.476
34.489
34.513
34.548
34.593
34.65
34.717
34.796
34.884
34.973
35.059
35.142
35.221
35.297
35.374
35.452
35.53
35.609
35.689
35.77
35.851
35.929
36.003
36.072
36.135
36.19
36.237
36.274
36.301
36.317
36.324
36.321
36.31
36.292
36.269
36.243
36.214
36.183
36.153
36.122
36.094
36.068
36.045
36.025
36.006
35.988
35.97
35.951
35.93
35.907
35.88
35.852
35.821
35.79
35.757
35.725
35.695
35.666
35.64
35.618
35.6
35.585
35.573
35.565
35.56
35.559
35.562
35.569
35.58
35.593
35.608
35.626
35.644
35.663
35.682
35.7
35.715
35.728
35.737
35.742
35.742
35.739
35.731
35.719
35.702
35.683
35.66
35.636
35.613
35.591
35.571
35.554
35.54
35.53
35.523
35.516
35.51
35.504
35.497
35.488
35.477
35.462
35.444
35.423
35.397
35.369
35.337
35.302
35.266
35.23
35.192
35.155
35.116
35.078
35.041
35.005
34.973
34.944
34.918
34.896
34.878
34.863
34.852
34.845
34.84
34.838
34.838
34.839
34.84
34.839
34.836
34.831
34.823
34.812
34.797
34.778
34.755
34.729
34.699
34.667
34.635
34.603
34.573
34.547
34.524
34.506
34.493
34.485
34.482
34.485
34.493
34.506
34.525
34.549
34.579
34.614
34.654
34.702
34.756
34.818
34.888
34.965
35.048
35.137
35.23
35.327
35.425
35.524
35.623
35.721
35.815
35.905
35.991
36.07
36.143
36.209
36.268
36.32
36.363
36.398
36.426
36.446
36.46
36.469
36.471
36.468
36.459
36.443
36.423
36.398
36.368
36.335
36.299
36.262
36.224
36.186
36.148
36.112
36.077
36.044
36.013
35.984
35.957
35.931
35.907
35.885
35.865
35.846
35.83
35.815
35.801
35.789
35.776
35.764
35.752
35.74
35.729
35.718
35.707
35.696
35.685
35.673
35.661
35.65
35.639
35.629
35.621
35.615
35.611
35.609
35.609
35.612
35.616
35.624
35.634
35.644
35.656
35.667
35.677
35.686
35.693
35.698
35.699
35.696
35.689
35.677
35.66
35.638
35.612
35.581
35.546
35.509
35.468
35.426
35.384
35.341
35.301
35.264
35.23
35.2
35.175
35.153
35.134
35.119
35.107
35.097
35.09
35.083
35.077
35.069
35.059
35.046
35.03
35.01
34.986
34.959
34.929
34.897
34.864
34.829
34.795
34.762
34.732
34.705
34.682
34.664
34.65
34.639
34.632
34.627
34.625
34.626
34.628
34.63
34.632
34.634
34.634
34.633
34.631
34.627
34.622
34.615
34.604
34.591
34.574
34.554
34.534
34.513
34.493
34.476
34.463
34.455
34.454
34.461
34.477
34.505
34.545
34.597
34.661
34.737
34.824
34.922
35.029
35.143
35.262
35.384
35.508
35.629
35.746
35.856
35.957
36.048
36.128
36.197
36.254
36.299
36.333
36.356
36.369
36.373
36.369
36.361
36.348
36.334
36.318
36.3
36.283
36.265
36.248
36.233
36.219
36.207
36.195
36.184
36.174
36.164
36.153
36.142
36.129
36.114
36.097
36.076
36.053
36.027
36.0
35.971
35.941
35.91
35.879
35.849
35.822
35.797
35.776
35.759
35.745
35.736
35.729
35.726
35.725
35.728
35.734
35.742
35.752
35.762
35.772
35.782
35.79
35.796
35.8
35.802
35.802
35.8
35.795
35.787
35.778
35.767
35.755
35.742
35.728
35.714
35.699
35.683
35.668
35.652
35.637
35.624
35.612
35.601
35.59
35.579
35.567
35.552
35.535
35.516
35.493
35.468
35.44
35.41
35.377
35.343
35.307
35.271
35.236
35.2
35.167
35.134
35.104
35.076
35.05
35.029
35.011
34.998
34.989
34.984
34.983
34.984
34.986
34.989
34.991
34.991
34.989
34.984
34.975
34.963
34.948
34.931
34.911
34.889
34.865
34.841
34.817
34.793
34.77
34.749
34.729
34.711
34.695
34.681
34.668
34.657
34.649
34.642
34.635
34.63
34.624
34.62
34.615
34.61
34.604
34.597
34.588
34.578
34.565
34.551
34.537
34.523
34.51
34.5
34.493
34.491
34.495
34.508
34.531
34.566
34.613
34.672
34.744
34.828
34.923
35.028
35.142
35.262
35.386
35.512
35.636
35.757
35.872
35.978
36.074
36.159
36.231
36.29
36.336
36.369
36.389
36.398
36.397
36.387
36.371
36.351
36.326
36.299
36.272
36.244
36.217
36.192
36.17
36.151
36.136
36.124
36.115
36.108
36.101
36.095
36.088
36.08
36.072
36.061
36.047
36.03
36.009
35.984
35.957
35.928
35.898
35.869
35.841
35.814
35.789
35.766
35.747
35.731
35.719
35.71
35.705
35.704
35.708
35.716
35.728
35.743
35.76
35.778
35.795
35.811
35.824
35.835
35.843
35.847
35.849
35.846
35.84
35.831
35.819
35.804
35.787
35.769
35.751
35.733
35.715
35.698
35.681
35.665
35.65
35.635
35.621
35.607
35.594
35.58
35.565
35.548
35.529
35.507
35.483
35.457
35.43
35.401
35.37
35.336
35.299
35.261
35.223
35.185
35.148
35.113
35.081
35.051
35.024
34.999
34.976
34.957
34.941
34.928
34.916
34.905
34.894
34.883
34.872
34.861
34.849
34.836
34.823
34.808
34.792
34.773
34.753
34.732
34.709
34.686
34.662
34.638
34.616
34.594
34.574
34.555
34.538
34.522
34.509
34.498
34.49
34.484
34.481
34.48
34.479
34.478
34.476
34.472
34.466
34.457
34.446
34.433
34.418
34.401
34.382
34.365
34.349
34.338
34.333
34.336
34.347
34.369
34.401
34.445
34.501
34.568
34.648
34.739
34.839
34.947
35.06
35.177
35.295
35.411
35.523
35.629
35.726
35.813
35.888
35.953
36.005
36.046
36.075
36.095
36.105
36.107
36.101
36.089
36.072
36.052
36.028
36.003
35.977
35.951
35.927
35.905
35.885
35.867
35.851
35.838
35.826
35.815
35.804
35.792
35.779
35.764
35.747
35.728
35.707
35.683
35.658
35.631
35.601
35.57
35.537
35.505
35.474
35.446
35.42
35.398
35.379
35.364
35.354
35.349
35.349
35.355
35.364
35.376
35.39
35.404
35.419
35.433
35.446
35.457
35.467
35.474
35.478
35.479
35.476
35.471
35.462
35.45
35.435
35.418
35.399
35.38
35.361
35.342
35.324
35.307
35.292
35.278
35.265
35.252
35.238
35.224
35.209
35.193
35.176
35.158
35.139
35.119
35.097
35.074
35.048
35.02
34.989
34.957
34.924
34.889
34.855
34.82
34.787
34.755
34.725
34.698
34.675
34.656
34.643
34.633
34.626
34.622
34.619
34.617
34.614
34.612
34.609
34.606
34.601
34.594
34.584
34.571
34.556
34.538
34.52
34.5
34.48
34.46
34.441
34.423
34.407
34.393
34.381
34.371
34.364
34.358
34.353
34.349
34.345
34.341
34.338
34.335
34.332
34.327
34.322
34.317
34.311
34.304
34.296
34.289
34.282
34.279
34.281
34.289
34.305
34.33
34.365
34.411
34.468
34.536
34.615
34.705
34.805
34.911
35.022
35.136
35.251
35.366
35.48
35.59
35.693
35.789
35.874
35.948
36.01
36.059
36.096
36.119
36.131
36.131
36.122
36.104
36.08
36.05
36.016
35.979
35.943
35.908
35.876
35.846
35.819
35.794
35.77
35.746
35.722
35.699
35.677
35.656
35.635
35.615
35.595
35.575
35.556
35.537
35.517
35.496
35.474
35.451
35.427
35.403
35.377
35.352
35.329
35.307
35.29
35.276
35.266
35.26
35.258
35.261
35.269
35.279
35.292
35.306
35.322
35.338
35.354
35.369
35.381
35.392
35.4
35.404
35.405
35.402
35.394
35.382
35.367
35.348
35.327
35.303
35.277
35.249
35.221
35.193
35.167
35.143
35.122
35.102
35.085
35.071
35.057
35.045
35.034
35.022
35.009
34.995
34.977
34.957
34.934
34.908
34.878
34.846
34.81
34.773
34.735
34.697
34.658
34.619
34.583
34.549
34.518
34.493
34.472
34.456
34.444
34.437
34.434
34.434
34.436
34.441
34.448
34.456
34.462
34.467
34.469
34.469
34.466
34.461
34.454
34.443
34.43
34.414
34.396
34.376
34.356
34.336
34.316
34.298
34.282
34.267
34.255
34.244
34.235
34.228
34.223
34.22
34.218
34.218
34.219
34.223
34.23
34.239
34.253
34.272
34.296
34.325
34.36
34.4
34.446
34.499
34.558
34.624
34.697
34.777
34.863
34.957
35.055
35.159
35.265
35.373
35.48
35.586
35.687
35.784
35.873
35.955
36.027
36.088
36.139
36.178
36.206
36.223
36.23
36.228
36.216
36.197
36.17
36.139
36.104
36.066
36.026
35.985
35.944
35.904
35.868
35.835
35.806
35.781
35.759
35.742
35.727
35.715
35.705
35.696
35.688
35.68
35.672
35.663
35.652
35.64
35.627
35.611
35.595
35.578
35.559
35.54
35.52
35.5
35.48
35.462
35.447
35.435
35.427
35.423
35.424
35.428
35.437
35.448
35.462
35.478
35.494
35.51
35.525
35.539
35.551
35.561
35.569
35.573
35.575
35.573
35.568
35.559
35.546
35.53
35.509
35.484
35.457
35.428
35.397
35.366
35.336
35.307
35.279
35.254
35.232
35.213
35.197
35.183
35.17
35.158
35.147
35.135
35.123
35.111
35.097
35.082
35.065
35.045
35.024
35.0
34.974
34.947
34.919
34.89
34.86
34.831
34.803
34.776
34.751
34.728
34.707
34.684
34.657
34.626
34.592
34.559
34.527
34.5
34.478
34.463
34.455
34.453
34.457
34.464
34.475
34.486
34.497
34.506
34.512
34.515
34.513
34.506
34.495
34.48
34.463
34.445
34.427
34.41
34.396
34.386
34.38
34.381
34.39
34.41
34.44
34.481
34.534
34.598
34.672
34.755
34.847
34.946
35.049
35.156
35.265
35.372
35.478
35.58
35.678
35.77
35.857
35.936
36.007
36.071
36.127
36.175
36.215
36.247
36.273
36.291
36.303
36.309
36.31
36.306
36.298
36.287
36.273
36.257
36.239
36.219
36.197
36.173
36.147
36.119
36.088
36.054
36.02
35.984
35.946
35.908
35.87
35.833
35.799
35.768
35.741
35.718
35.698
35.68
35.665
35.652
35.641
35.633
35.627
35.623
35.622
35.622
35.623
35.624
35.624
35.625
35.624
35.623
35.62
35.614
35.607
35.598
35.589
35.581
35.574
35.57
35.568
35.568
35.568
35.57
35.573
35.577
35.581
35.585
35.59
35.595
35.599
35.602
35.604
35.605
35.603
35.598
35.588
35.574
35.555
35.531
35.501
35.467
35.43
35.389
35.347
35.305
35.262
35.221
35.183
35.147
35.115
35.087
35.063
35.043
35.027
35.014
35.004
34.996
34.989
34.983
34.977
34.97
34.962
34.95
34.936
34.918
34.897
34.873
34.846
34.819
34.791
34.764
34.737
34.712
34.688
34.667
34.648
34.631
34.618
34.607
34.598
34.592
34.587
34.585
34.584
34.585
34.587
34.589
34.592
34.593
34.593
34.59
34.585
34.577
34.566
34.552
34.537
34.519
34.499
34.48
