Trial 3:3back
33.758
33.71
33.662
33.614
33.566
33.517
33.469
33.422
33.376
33.333
33.292
33.254
33.219
33.188
33.158
33.129
33.1
33.072
33.042
33.01
32.977
32.944
32.912
32.88
32.849
32.818
32.789
32.761
32.734
32.707
32.682
32.658
32.637
32.618
32.601
32.587
32.576
32.57
32.567
32.571
32.58
32.599
32.628
32.669
32.727
32.803
32.902
33.026
33.179
33.365
33.586
33.844
34.14
34.473
34.841
35.24
35.666
36.111
36.569
37.032
37.492
37.941
38.372
38.779
39.154
39.494
39.795
40.055
40.271
40.442
40.571
40.658
40.704
40.714
40.689
40.635
40.553
40.448
40.324
40.183
40.028
39.862
39.687
39.506
39.32
39.131
38.94
38.748
38.553
38.357
38.16
37.963
37.767
37.573
37.381
37.191
37.005
36.824
36.647
36.474
36.305
36.14
35.98
35.824
35.671
35.522
35.376
35.233
35.095
34.963
34.835
34.715
34.604
34.501
34.409
34.328
34.258
34.199
34.152
34.116
34.091
34.075
34.069
34.071
34.082
34.1
34.124
34.153
34.186
34.222
34.259
34.297
34.336
34.375
34.412
34.447
34.478
34.505
34.527
34.545
34.558
34.568
34.574
34.577
34.577
34.572
34.564
34.552
34.536
34.516
34.491
34.462
34.429
34.393
34.354
34.314
34.272
34.231
34.188
34.145
34.099
34.052
34.003
33.953
33.902
33.85
33.797
33.744
33.693
33.643
33.595
33.55
33.508
33.467
33.429
33.392
33.356
33.321
33.287
33.254
33.221
33.189
33.157
33.126
33.096
33.066
33.037
33.008
32.979
32.949
32.919
32.89
32.863
32.837
32.815
32.794
32.777
32.764
32.757
32.756
32.765
32.783
32.815
32.861
32.924
33.007
33.115
33.25
33.418
33.62
33.859
34.136
34.453
34.807
35.195
35.611
36.05
36.505
36.968
37.43
37.884
38.323
38.74
39.129
39.486
39.809
40.098
40.35
40.564
40.737
40.87
40.96
41.009
41.019
40.991
40.927
40.832
40.71
40.566
40.402
40.224
40.034
39.836
39.633
39.427
39.22
39.013
38.807
38.604
38.404
38.206
38.013
37.825
37.641
37.461
37.284
37.109
36.937
36.767
36.599
36.432
36.269
36.108
35.951
35.799
35.65
35.506
35.367
35.233
35.105
34.983
34.868
34.762
34.666
34.579
34.501
34.432
34.374
34.325
34.286
34.255
34.232
34.216
34.207
34.204
34.208
34.22
34.238
34.262
34.292
34.326
34.362
34.399
34.435
34.468
34.497
34.521
34.54
34.553
34.566
34.585
34.61
34.641
34.674
34.706
34.733
34.752
34.76
34.755
34.736
34.704
34.659
34.603
34.538
34.466
34.389
34.309
34.228
34.148
34.071
33.996
33.925
33.858
33.794
33.734
33.676
33.622
33.572
33.525
33.481
33.441
33.404
33.37
33.338
33.309
33.282
33.254
33.225
33.195
33.162
33.128
33.092
33.056
33.021
32.987
32.954
32.922
32.891
32.861
32.832
32.804
32.777
32.751
32.727
32.707
32.694
32.688
32.694
32.712
32.747
32.8
32.874
32.974
33.105
33.269
33.47
33.709
33.988
34.307
34.662
35.05
35.466
35.905
36.361
36.827
37.294
37.756
38.207
38.638
39.046
39.425
39.771
40.079
40.348
40.576
40.761
40.904
41.006
41.071
41.1
41.095
41.061
40.998
40.91
40.801
40.673
40.528
40.369
40.198
40.019
39.833
39.643
39.451
39.26
39.07
38.882
38.697
38.515
38.336
38.16
37.987
37.816
37.648
37.482
37.317
37.153
36.989
36.824
36.66
36.497
36.336
36.178
36.023
35.872
35.726
35.586
35.451
35.324
35.204
35.092
34.989
34.893
34.805
34.724
34.652
34.588
34.531
34.483
34.443
34.412
34.39
34.377
34.374
34.381
34.394
34.414
34.437
34.462
34.487
34.512
34.536
34.557
34.576
34.593
34.607
34.618
34.625
34.63
34.63
34.626
34.618
34.605
34.588
34.567
34.543
34.516
34.486
34.452
34.415
34.375
34.333
34.288
34.241
34.192
34.142
34.091
34.041
33.991
33.943
33.897
33.852
33.808
33.764
33.719
33.673
33.624
33.574
33.524
33.473
33.424
33.377
33.331
33.287
33.243
33.201
33.159
33.117
33.076
33.035
32.995
32.955
32.917
32.881
32.847
32.817
32.789
32.762
32.738
32.716
32.696
32.68
32.666
32.658
32.657
32.666
32.685
32.719
32.77
32.842
32.941
33.069
33.231
33.43
33.669
33.95
34.272
34.632
35.029
35.458
35.913
36.387
36.872
37.36
37.843
38.314
38.766
39.191
39.584
39.941
40.258
40.532
40.762
40.946
41.084
41.178
41.229
41.241
41.216
41.157
41.07
40.958
40.824
40.675
40.513
40.343
40.168
39.989
39.81
39.63
39.451
39.274
39.099
38.926
38.755
38.585
38.417
38.249
38.081
37.912
37.743
37.573
37.403
37.232
37.062
36.891
36.722
36.555
36.389
36.225
36.065
35.907
35.753
35.602
35.458
35.321
35.192
35.073
34.964
34.865
34.775
34.696
34.626
34.566
34.514
34.47
34.435
34.406
34.384
34.368
34.359
34.356
34.36
34.368
34.38
34.395
34.413
34.432
34.453
34.474
34.495
34.515
34.533
34.549
34.562
34.571
34.577
34.579
34.577
34.57
34.558
34.543
34.524
34.5
34.472
34.439
34.402
34.36
34.315
34.266
34.214
34.161
34.106
34.049
33.991
33.935
33.879
33.825
33.771
33.719
33.667
33.615
33.564
33.514
33.464
33.415
33.368
33.32
33.272
33.223
33.174
33.126
33.078
33.031
32.986
32.943
32.902
32.865
32.832
32.802
32.777
32.754
32.732
32.712
32.692
32.673
32.654
32.635
32.616
32.597
32.58
32.566
32.557
32.554
32.561
32.581
32.618
32.673
32.751
32.856
32.993
33.165
33.376
33.627
33.921
34.255
34.628
35.037
35.475
35.938
36.417
36.905
37.395
37.877
38.344
38.789
39.206
39.588
39.932
40.233
40.489
40.697
40.858
40.971
41.039
41.064
41.051
41.002
40.923
40.817
40.689
40.545
40.388
40.222
40.049
39.873
39.695
39.515
39.335
39.155
38.974
38.794
38.614
38.434
38.252
38.071
37.891
37.712
37.533
37.356
37.182
37.009
36.838
36.669
36.501
36.335
36.171
36.01
35.85
35.694
35.541
35.393
35.249
35.11
34.977
34.851
34.732
34.624
34.526
34.44
34.367
34.306
34.256
34.218
34.189
34.17
34.158
34.151
34.15
34.153
34.159
34.17
34.185
34.203
34.225
34.248
34.273
34.298
34.321
34.342
34.36
34.374
34.385
34.392
34.394
34.394
34.391
34.384
34.375
34.363
34.347
34.328
34.304
34.277
34.245
34.209
34.171
34.129
34.083
34.035
33.984
33.931
33.878
33.824
33.77
33.716
33.664
33.611
33.558
33.505
33.453
33.402
33.352
33.303
33.255
33.21
33.168
33.128
33.091
33.056
33.022
32.989
32.956
32.923
32.89
32.857
32.826
32.797
32.769
32.742
32.717
32.694
32.673
32.653
32.635
32.619
32.604
32.592
32.58
32.571
32.565
32.561
32.56
32.564
32.574
32.594
32.626
32.674
32.742
32.835
32.955
33.108
33.297
33.524
33.792
34.101
34.449
34.833
35.248
35.689
36.15
36.623
37.101
37.576
38.041
38.489
38.913
39.308
39.668
39.989
40.269
40.505
40.697
40.843
40.945
41.003
41.019
40.997
40.939
40.849
40.732
40.593
40.435
40.263
40.08
39.89
39.696
39.501
39.305
39.111
38.917
38.726
38.537
38.349
38.164
37.982
37.802
37.626
37.451
37.279
37.109
36.941
36.774
36.609
36.444
36.279
36.114
35.951
35.789
35.629
35.474
35.325
35.183
35.05
34.925
34.81
34.704
34.608
34.522
34.445
34.38
34.325
34.281
34.248
34.225
34.213
34.212
34.22
34.237
34.262
34.293
34.33
34.37
34.412
34.453
34.493
34.53
34.563
34.592
34.617
34.636
34.65
34.66
34.665
34.667
34.665
34.661
34.653
34.642
34.628
34.61
34.589
34.564
34.534
34.5
34.461
34.418
34.372
34.321
34.269
34.214
34.156
34.097
34.035
33.972
33.906
33.84
33.774
33.708
33.643
33.581
33.522
33.467
33.415
33.368
33.326
33.287
33.251
33.217
33.183
33.151
33.119
33.087
33.055
33.024
32.992
32.962
32.931
32.901
32.872
32.843
32.814
32.785
32.757
32.729
32.702
32.676
32.653
32.633
32.617
32.609
32.61
32.621
32.645
32.684
32.74
32.817
32.919
33.05
33.214
33.415
33.654
33.933
34.25
34.605
34.993
35.411
35.854
36.316
36.791
37.27
37.747
38.213
38.662
39.087
39.483
39.846
40.17
40.452
40.691
40.884
41.032
41.135
41.196
41.217
41.2
41.15
41.069
40.961
40.829
40.678
40.51
40.329
40.139
39.943
39.744
39.543
39.342
39.143
38.947
38.755
38.567
38.383
38.203
38.026
37.851
37.678
37.508
37.339
37.172
37.006
36.84
36.676
36.511
36.347
36.182
36.019
35.858
35.699
35.544
35.395
35.252
35.118
34.994
34.879
34.774
34.68
34.595
34.519
34.452
34.394
34.344
34.304
34.274
34.251
34.237
34.23
34.228
34.232
34.24
34.252
34.268
34.288
34.31
34.334
34.36
34.387
34.414
34.442
34.468
34.492
34.514
34.532
34.546
34.554
34.557
34.554
34.544
34.527
34.503
34.471
34.434
34.391
34.344
34.294
34.241
34.187
34.132
34.076
34.021
33.965
33.91
33.855
33.799
33.743
33.687
33.63
33.574
33.519
33.465
33.413
33.363
33.315
33.27
33.225
33.182
33.138
33.094
33.049
33.004
32.961
32.919
32.879
32.842
32.808
32.776
32.746
32.718
32.69
32.662
32.634
32.606
32.58
32.555
32.531
32.516
32.512
32.518
32.533
32.553
32.575
32.597
32.618
32.64
32.664
32.694
32.734
32.789
32.866
32.97
33.107
33.281
33.497
33.757
34.06
34.408
34.797
35.223
35.679
36.16
36.656
37.161
37.666
38.162
38.641
39.096
39.521
39.91
40.259
40.564
40.823
41.034
41.196
41.311
41.379
41.405
41.39
41.339
41.257
41.148
41.015
40.863
40.696
40.518
40.332
40.14
39.946
39.751
39.558
39.367
39.18
38.998
38.82
38.648
38.479
38.314
38.152
37.992
37.833
37.673
37.513
37.353
37.193
37.033
36.874
36.715
36.554
36.393
36.231
36.069
35.908
35.75
35.596
35.447
35.305
35.171
35.047
34.933
34.831
34.741
34.661
34.593
34.537
34.491
34.456
34.428
34.41
34.398
34.393
34.394
34.399
34.408
34.42
34.435
34.453
34.472
34.491
34.51
34.53
34.548
34.566
34.581
34.593
34.602
34.607
34.606
34.599
34.588
34.57
34.547
34.518
34.485
34.449
34.41
34.369
34.326
34.282
34.238
34.191
34.143
34.093
34.04
33.985
33.928
33.868
33.806
33.742
33.678
33.614
33.552
33.49
33.429
33.369
33.31
33.254
33.2
33.15
33.103
33.06
33.022
32.986
32.954
32.924
32.897
32.871
32.845
32.82
32.793
32.765
32.737
32.707
32.677
32.648
32.618
32.589
32.56
32.532
32.505
32.48
32.455
32.432
32.411
32.392
32.376
32.364
32.356
32.353
32.358
32.371
32.394
32.429
32.479
32.548
32.639
32.756
32.905
33.089
33.313
33.578
33.885
34.234
34.621
35.043
35.495
35.969
36.458
36.955
37.453
37.943
38.416
38.867
39.288
39.675
40.023
40.329
40.591
40.807
40.978
41.106
41.192
41.238
41.248
41.224
41.17
41.09
40.986
40.861
40.718
40.561
40.391
40.211
40.023
39.829
39.631
39.432
39.233
39.035
38.839
38.647
38.46
38.277
38.098
37.924
37.753
37.585
37.419
37.254
37.089
36.925
36.759
36.592
36.423
36.255
36.087
35.92
35.755
35.594
35.438
35.288
35.147
35.014
34.89
34.776
34.673
34.58
34.495
34.419
34.353
34.297
34.25
34.213
34.185
34.167
34.157
34.156
34.162
34.173
34.19
34.21
34.233
34.258
34.285
34.313
34.342
34.371
34.398
34.423
34.444
34.462
34.474
34.482
34.484
34.481
34.472
34.457
34.436
34.409
34.376
34.338
34.296
34.248
34.197
34.143
34.088
34.031
33.972
33.914
33.855
33.796
33.737
33.677
33.617
33.557
33.499
33.441
33.384
33.328
33.274
33.222
33.172
33.125
33.081
33.038
32.997
32.958
32.921
32.885
32.851
32.82
32.79
32.761
32.734
32.708
32.683
32.658
32.634
32.611
32.589
32.567
32.544
32.522
32.499
32.476
32.451
32.426
32.399
32.372
32.346
32.322
32.299
32.278
32.261
32.249
32.243
32.244
32.255
32.274
32.304
32.345
32.4
32.469
32.556
32.666
32.802
32.967
33.164
33.397
33.666
33.973
34.316
34.694
35.102
35.536
35.99
36.456
36.927
37.396
37.854
38.296
38.714
39.103
39.458
39.775
40.051
40.284
40.473
40.62
40.726
40.792
40.822
40.817
40.78
40.715
40.626
40.515
40.385
40.239
40.079
39.905
39.72
39.525
39.323
39.115
38.904
38.692
38.481
38.273
38.068
37.868
37.674
37.485
37.301
37.122
36.947
36.775
36.605
36.436
36.268
36.101
35.936
35.772
35.611
35.454
35.303
35.157
35.018
34.886
34.762
34.648
34.542
34.446
34.36
34.284
34.218
34.163
34.118
34.083
34.057
34.042
34.036
34.038
34.049
34.066
34.089
34.117
34.148
34.18
34.214
34.247
34.279
34.31
34.34
34.368
34.395
34.42
34.442
34.46
34.473
34.481
34.484
34.48
34.47
34.454
34.432
34.405
34.374
34.34
34.303
34.264
34.224
34.182
34.138
34.093
34.047
34.0
33.952
33.904
33.857
33.81
33.763
33.716
33.668
33.62
33.571
33.52
33.469
33.417
33.366
33.317
33.271
33.227
33.185
33.146
33.108
33.072
33.039
33.009
32.982
32.957
32.933
32.909
32.886
32.862
32.837
32.81
32.783
32.754
32.724
32.695
32.666
32.638
32.611
32.587
32.565
32.545
32.527
32.514
32.504
32.499
32.5
32.506
32.522
32.548
32.588
32.645
32.722
32.823
32.952
33.112
33.307
33.538
33.807
34.115
34.46
34.837
35.243
35.673
36.119
36.576
37.035
37.491
37.937
38.365
38.769
39.145
39.487
39.793
40.059
40.284
40.468
40.609
40.709
40.768
40.784
40.755
40.686
40.581
40.448
40.293
40.122
39.94
39.751
39.558
39.366
39.175
38.988
38.805
38.625
38.449
38.276
38.107
37.939
37.773
37.609
37.445
37.282
37.119
36.956
36.794
36.632
36.47
36.309
36.149
35.99
35.831
35.674
35.519
35.367
35.219
35.078
34.945
34.821
34.708
34.608
34.52
34.444
34.379
34.326
34.282
34.248
34.221
34.203
34.192
34.187
34.19
34.198
34.211
34.227
34.247
34.268
34.29
34.311
34.331
34.35
34.368
34.382
34.395
34.407
34.417
34.425
34.431
34.435
34.436
34.436
34.435
34.431
34.425
34.413
34.397
34.375
34.347
34.312
34.271
34.225
34.177
34.126
34.074
34.021
33.969
33.916
33.864
33.81
33.757
33.704
33.651
33.6
33.552
33.507
33.465
33.427
33.394
33.364
33.335
33.307
33.277
33.245
33.209
33.17
33.13
33.087
33.045
33.002
32.961
32.921
32.883
32.845
32.809
32.774
32.741
32.709
32.678
32.649
32.622
32.599
32.579
32.562
32.549
32.543
32.544
32.555
32.578
32.615
32.669
32.744
32.842
32.968
33.124
33.313
33.537
33.798
34.097
34.433
34.805
35.211
35.644
36.098
36.568
37.044
37.518
37.983
38.431
38.854
39.246
39.603
39.921
40.197
40.43
40.619
40.766
40.872
40.939
40.971
40.969
40.935
40.873
40.784
40.672
40.54
40.392
40.231
40.059
39.879
39.694
39.505
39.314
39.123
38.933
38.744
38.557
38.372
38.188
38.005
37.822
37.64
37.457
37.276
37.095
36.916
36.739
36.565
36.395
36.229
36.068
35.912
35.761
35.615
35.472
35.334
35.199
35.071
34.947
34.83
34.72
34.619
34.527
34.445
34.375
34.315
34.267
34.229
34.201
34.181
34.169
34.163
34.164
34.171
34.181
34.195
34.211
34.229
34.246
34.263
34.28
34.296
34.311
34.326
34.341
34.357
34.372
34.387
34.4
34.41
34.415
34.415
34.409
34.397
34.38
34.357
34.33
34.298
34.262
34.221
34.177
34.13
34.08
34.026
33.969
33.909
33.846
33.781
33.717
33.653
33.591
33.532
33.477
33.426
33.379
33.333
33.29
33.248
33.207
33.167
33.127
33.089
33.054
33.02
32.988
32.958
32.928
32.899
32.87
32.839
32.805
32.769
32.729
32.689
32.648
32.608
32.572
32.541
32.515
32.495
32.48
32.472
32.469
32.473
32.482
32.499
32.527
32.567
32.625
32.703
32.806
32.939
33.106
33.308
33.549
33.83
34.15
34.508
34.9
35.321
35.765
36.228
36.701
37.178
37.652
38.115
38.562
38.987
39.383
39.745
40.07
40.353
40.592
40.787
40.937
41.042
41.106
41.128
41.114
41.064
40.983
40.876
40.747
40.599
40.436
40.261
40.079
39.891
39.7
39.509
39.319
39.131
38.943
38.751
38.552
38.349
38.143
37.939
37.738
37.543
37.356
37.178
37.008
36.847
36.694
36.548
36.409
36.276
36.147
36.02
35.895
35.772
35.649
35.528
35.409
35.292
35.178
35.068
34.963
34.863
34.769
34.683
34.604
34.532
34.468
34.411
34.361
34.32
34.287
34.262
34.245
34.234
34.23
34.231
34.236
34.246
34.26
34.277
34.298
34.32
34.341
34.361
34.379
34.393
34.403
34.407
34.406
34.399
34.387
34.37
34.35
34.326
34.301
34.274
34.243
34.21
34.175
34.136
34.089
34.031
33.965
33.89
33.81
33.729
33.65
33.577
33.511
33.454
33.405
33.363
33.328
33.298
33.273
33.249
33.227
33.203
33.179
33.153
33.125
33.096
33.064
33.032
32.998
32.963
32.927
32.89
32.853
32.815
32.777
32.738
32.7
32.662
32.626
32.592
32.561
32.533
32.506
32.481
32.457
32.433
32.408
32.386
32.367
32.352
32.345
32.347
32.361
32.39
32.437
32.504
32.595
32.713
32.861
33.043
33.261
33.517
33.812
34.146
34.517
34.922
35.356
35.813
36.287
36.769
37.253
37.73
38.194
38.639
39.058
39.444
39.792
40.098
40.359
40.571
40.735
40.851
40.923
40.952
40.944
40.901
40.828
40.73
40.611
40.475
40.326
40.165
39.997
39.825
39.649
39.47
39.29
39.111
38.932
38.755
38.579
38.404
38.229
38.054
37.88
37.707
37.535
37.364
37.196
37.029
36.865
36.703
36.541
36.382
36.223
36.066
35.91
35.755
35.602
35.452
35.307
35.168
35.035
34.91
34.794
34.686
34.588
34.5
34.421
34.351
34.291
34.239
34.195
34.16
34.132
34.109
34.09
34.076
34.068
34.065
34.069
34.077
34.092
34.111
34.136
34.165
34.197
34.229
34.259
34.287
34.31
34.329
34.342
34.35
34.353
34.351
34.343
34.331
34.314
34.292
34.266
34.235
34.198
34.157
34.111
34.062
34.01
33.957
33.903
33.849
33.795
33.741
33.69
33.642
33.596
33.554
33.512
33.471
33.43
33.389
33.347
33.304
33.26
33.215
33.169
33.122
33.075
33.029
32.985
32.943
32.904
32.866
32.831
32.799
32.769
32.741
32.716
32.692
32.67
32.648
32.627
32.607
32.589
32.572
32.557
32.543
32.528
32.513
32.497
32.481
32.464
32.45
32.439
32.434
32.438
32.453
32.483
32.533
32.606
32.707
32.84
33.008
33.216
33.466
33.757
34.089
34.458
34.86
35.29
35.741
36.204
36.673
37.14
37.596
38.037
38.454
38.844
39.201
39.524
39.808
40.052
40.256
40.419
40.542
40.624
40.667
40.673
40.645
40.586
40.499
40.387
40.254
40.103
39.937
39.759
39.573
39.381
39.185
38.988
38.792
38.599
38.409
38.222
38.039
37.861
37.687
37.517
37.349
37.181
37.012
36.842
36.67
36.498
36.326
36.156
35.988
35.825
35.666
35.514
35.367
35.227
35.093
34.966
34.847
34.735
34.631
34.534
34.443
34.361
34.286
34.22
34.164
34.119
34.087
34.068
34.061
34.065
34.077
34.097
34.122
34.151
34.181
34.21
34.237
34.262
34.284
34.304
34.322
34.339
34.355
34.369
34.382
34.392
34.4
34.404
34.405
34.403
34.397
34.388
34.375
34.36
34.342
34.32
34.294
34.265
34.232
34.195
34.154
34.111
34.069
34.031
33.996
33.963
33.931
33.899
33.865
33.828
33.788
33.744
33.696
33.644
33.59
33.533
33.476
33.42
33.367
33.315
33.265
33.217
33.171
33.127
33.085
33.045
33.007
32.971
32.936
32.904
32.872
32.842
32.814
32.786
32.759
32.732
32.707
32.683
32.662
32.643
32.627
32.614
32.603
32.596
32.594
32.598
32.61
32.633
32.669
32.72
32.791
32.884
33.004
33.154
33.338
33.558
33.817
34.113
34.447
34.815
35.215
35.639
36.083
36.538
36.996
37.448
37.888
38.307
38.7
39.061
39.385
39.671
39.916
40.119
40.281
40.402
40.484
40.53
40.542
40.523
40.474
40.399
40.3
40.181
40.044
39.892
39.727
39.552
39.37
39.182
38.991
38.797
38.602
38.408
38.214
38.02
37.827
37.636
37.446
37.258
37.072
36.887
36.705
36.526
36.351
36.18
36.013
35.851
35.695
35.544
35.398
35.258
35.122
34.991
34.864
34.743
34.629
34.523
34.426
34.34
34.264
34.201
34.152
34.115
34.089
34.074
34.068
34.069
34.077
34.089
34.106
34.128
34.154
34.183
34.215
34.249
34.284
34.32
34.355
34.388
34.417
34.441
34.461
34.474
34.482
34.484
34.481
34.474
34.463
34.449
34.433
34.414
34.391
34.367
34.339
34.309
34.275
34.239
