Trial 3:3back
35.262
35.421
35.577
35.729
35.877
36.018
36.152
36.278
36.397
36.508
36.611
36.705
36.792
36.871
36.941
37.004
37.059
37.106
37.146
37.18
37.207
37.229
37.245
37.257
37.265
37.269
37.27
37.268
37.264
37.257
37.248
37.238
37.227
37.216
37.205
37.194
37.184
37.174
37.164
37.153
37.141
37.129
37.114
37.098
37.079
37.057
37.033
37.005
36.975
36.941
36.903
36.864
36.822
36.78
36.737
36.694
36.652
36.611
36.571
36.532
36.495
36.461
36.428
36.399
36.372
36.348
36.326
36.307
36.29
36.274
36.26
36.246
36.233
36.221
36.21
36.2
36.19
36.181
36.174
36.167
36.162
36.157
36.152
36.147
36.14
36.131
36.121
36.108
36.093
36.076
36.058
36.04
36.02
36.0
35.98
35.96
35.94
35.919
35.899
35.879
35.86
35.842
35.824
35.808
35.792
35.777
35.761
35.745
35.728
35.711
35.693
35.674
35.654
35.633
35.61
35.587
35.562
35.536
35.509
35.48
35.451
35.42
35.388
35.355
35.321
35.286
35.251
35.215
35.178
35.142
35.106
35.071
35.038
35.005
34.974
34.945
34.916
34.89
34.864
34.84
34.816
34.794
34.773
34.752
34.733
34.714
34.697
34.681
34.665
34.65
34.637
34.624
34.613
34.603
34.593
34.583
34.573
34.561
34.549
34.536
34.522
34.508
34.494
34.48
34.466
34.453
34.441
34.429
34.417
34.406
34.396
34.386
34.377
34.368
34.36
34.353
34.345
34.338
34.329
34.319
34.307
34.294
34.279
34.262
34.243
34.223
34.201
34.177
34.152
34.126
34.098
34.07
34.041
34.013
33.986
33.96
33.936
33.914
33.893
33.874
33.857
33.842
33.831
33.823
33.821
33.825
33.835
33.854
33.882
33.92
33.971
34.035
34.114
34.207
34.317
34.441
34.58
34.732
34.896
35.069
35.248
35.433
35.62
35.808
35.993
36.174
36.348
36.515
36.672
36.82
36.956
37.081
37.194
37.294
37.381
37.455
37.517
37.568
37.609
37.64
37.664
37.68
37.691
37.699
37.703
37.705
37.706
37.705
37.705
37.705
37.704
37.704
37.703
37.702
37.7
37.697
37.692
37.686
37.68
37.672
37.663
37.653
37.642
37.63
37.616
37.599
37.58
37.559
37.536
37.512
37.486
37.458
37.427
37.395
37.36
37.322
37.282
37.238
37.193
37.146
37.1
37.054
37.011
36.971
36.936
36.905
36.878
36.857
36.84
36.827
36.819
36.815
36.813
36.815
36.818
36.825
36.833
36.843
36.854
36.865
36.877
36.887
36.897
36.906
36.912
36.916
36.919
36.919
36.916
36.91
36.901
36.888
36.871
36.851
36.827
36.799
36.769
36.735
36.699
36.661
36.622
36.581
36.54
36.5
36.459
36.418
36.378
36.339
36.301
36.264
36.229
36.194
36.16
36.126
36.093
36.062
36.031
36.001
35.971
35.942
35.913
35.884
35.854
35.825
35.795
35.765
35.734
35.703
35.672
35.64
35.608
35.576
35.544
35.512
35.48
35.449
35.419
35.389
35.36
35.333
35.306
35.282
35.258
35.236
35.215
35.195
35.175
35.155
35.135
35.116
35.096
35.077
35.058
35.038
35.019
34.998
34.976
34.953
34.929
34.905
34.88
34.856
34.832
34.81
34.789
34.768
34.748
34.728
34.708
34.688
34.668
34.648
34.629
34.609
34.591
34.573
34.555
34.537
34.52
34.503
34.486
34.468
34.45
34.432
34.415
34.397
34.378
34.358
34.338
34.317
34.294
34.271
34.246
34.221
34.195
34.168
34.142
34.114
34.087
34.058
34.029
34.001
33.972
33.945
33.92
33.897
33.876
33.86
33.846
33.837
33.832
33.832
33.838
33.851
33.872
33.903
33.945
33.999
34.068
34.15
34.246
34.356
34.48
34.617
34.766
34.925
35.093
35.267
35.446
35.626
35.807
35.986
36.161
36.329
36.49
36.641
36.783
36.913
37.031
37.137
37.23
37.31
37.379
37.436
37.483
37.519
37.547
37.568
37.582
37.591
37.594
37.591
37.585
37.575
37.563
37.55
37.537
37.524
37.512
37.501
37.49
37.481
37.471
37.461
37.451
37.439
37.426
37.412
37.396
37.378
37.358
37.334
37.309
37.281
37.251
37.219
37.184
37.147
37.107
37.064
37.02
36.975
36.93
36.885
36.842
36.8
36.759
36.721
36.686
36.653
36.623
36.596
36.573
36.552
36.534
36.519
36.507
36.499
36.494
36.493
36.495
36.499
36.506
36.514
36.523
36.533
36.543
36.553
36.563
36.573
36.582
36.589
36.595
36.597
36.597
36.592
36.585
36.574
36.559
36.541
36.521
36.499
36.474
36.447
36.419
36.389
36.358
36.325
36.292
36.259
36.225
36.192
36.16
36.128
36.097
36.066
36.036
36.005
35.975
35.945
35.913
35.881
35.849
35.816
35.783
35.749
35.717
35.685
35.654
35.624
35.596
35.568
35.541
35.515
35.488
35.461
35.433
35.404
35.374
35.343
35.31
35.277
35.245
35.212
35.18
35.148
35.117
35.087
35.057
35.029
35.003
34.978
34.954
34.931
34.909
34.886
34.862
34.837
34.811
34.785
34.758
34.731
34.705
34.678
34.652
34.626
34.6
34.574
34.548
34.521
34.494
34.467
34.44
34.413
34.386
34.361
34.336
34.313
34.29
34.269
34.249
34.231
34.214
34.199
34.185
34.173
34.163
34.153
34.144
34.134
34.123
34.111
34.098
34.084
34.07
34.054
34.038
34.019
34.0
33.979
33.957
33.934
33.91
33.884
33.856
33.826
33.795
33.763
33.729
33.695
33.661
33.628
33.596
33.566
33.539
33.515
33.494
33.478
33.465
33.457
33.454
33.457
33.468
33.486
33.514
33.553
33.602
33.663
33.736
33.821
33.917
34.025
34.142
34.268
34.403
34.543
34.688
34.836
34.986
35.135
35.282
35.425
35.562
35.691
35.811
35.922
36.021
36.11
36.188
36.255
36.311
36.358
36.395
36.423
36.443
36.454
36.459
36.457
36.451
36.441
36.428
36.414
36.398
36.381
36.364
36.347
36.33
36.314
36.297
36.28
36.261
36.242
36.221
36.198
36.175
36.151
36.126
36.101
36.074
36.047
36.019
35.99
35.959
35.926
35.892
35.857
35.821
35.785
35.749
35.712
35.675
35.639
35.604
35.57
35.538
35.509
35.482
35.459
35.44
35.424
35.413
35.407
35.404
35.405
35.41
35.417
35.427
35.439
35.454
35.471
35.49
35.51
35.53
35.55
35.57
35.589
35.607
35.624
35.64
35.654
35.667
35.677
35.685
35.689
35.69
35.687
35.68
35.668
35.653
35.634
35.612
35.587
35.56
35.531
35.5
35.468
35.435
35.401
35.366
35.33
35.294
35.256
35.218
35.178
35.139
35.099
35.059
35.019
34.979
34.938
34.898
34.858
34.817
34.777
34.738
34.698
34.659
34.62
34.582
34.544
34.506
34.469
34.431
34.394
34.357
34.321
34.285
34.251
34.218
34.185
34.154
34.124
34.095
34.068
34.042
34.019
33.998
33.981
33.966
33.954
33.945
33.939
33.935
33.933
33.932
33.933
33.936
33.94
33.944
33.949
33.954
33.959
33.964
33.968
33.972
33.976
33.979
33.983
33.985
33.986
33.986
33.985
33.982
33.978
33.973
33.966
33.957
33.947
33.935
33.92
33.902
33.881
33.858
33.832
33.803
33.772
33.74
33.707
33.674
33.64
33.606
33.571
33.535
33.498
33.462
33.426
33.39
33.356
33.322
33.29
33.26
33.232
33.208
33.188
33.175
33.169
33.172
33.185
33.209
33.244
33.292
33.352
33.426
33.512
33.609
33.716
33.833
33.957
34.089
34.226
34.367
34.51
34.654
34.796
34.936
35.071
35.201
35.323
35.438
35.544
35.641
35.729
35.807
35.875
35.934
35.985
36.027
36.061
36.087
36.106
36.118
36.125
36.126
36.124
36.12
36.114
36.107
36.1
36.092
36.083
36.073
36.063
36.053
36.043
36.032
36.022
36.012
36.001
35.988
35.974
35.957
35.938
35.916
35.892
35.866
35.837
35.806
35.774
35.739
35.704
35.667
35.628
35.588
35.546
35.503
35.459
35.414
35.368
35.323
35.28
35.239
35.2
35.165
35.133
35.103
35.078
35.055
35.035
35.02
35.008
35.0
34.995
34.994
34.997
35.002
35.011
35.021
35.034
35.046
35.059
35.07
35.08
35.088
35.095
35.1
35.103
35.105
35.103
35.1
35.093
35.083
35.07
35.053
35.035
35.014
34.993
34.971
34.947
34.922
34.895
34.868
34.839
34.811
34.783
34.756
34.731
34.709
34.689
34.671
34.656
34.641
34.629
34.617
34.606
34.594
34.582
34.569
34.555
34.54
34.522
34.502
34.48
34.454
34.426
34.396
34.364
34.331
34.297
34.263
34.228
34.193
34.157
34.123
34.089
34.056
34.025
33.996
33.968
33.942
33.918
33.895
33.874
33.853
33.833
33.814
33.796
33.778
33.76
33.744
33.729
33.716
33.703
33.692
33.682
33.673
33.664
33.656
33.648
33.638
33.629
33.618
33.605
33.592
33.578
33.563
33.549
33.534
33.52
33.508
33.496
33.486
33.477
33.469
33.462
33.457
33.451
33.446
33.441
33.437
33.433
33.428
33.424
33.419
33.413
33.405
33.395
33.383
33.368
33.352
33.334
33.315
33.294
33.272
33.248
33.224
33.198
33.172
33.145
33.12
33.095
33.073
33.053
33.037
33.024
33.014
33.008
33.006
33.008
33.015
33.028
33.048
33.077
33.114
33.162
33.221
33.291
33.373
33.466
33.57
33.684
33.807
33.937
34.074
34.215
34.358
34.5
34.641
34.778
34.91
35.036
35.156
35.268
35.373
35.469
35.555
35.632
35.699
35.756
35.804
35.843
35.874
35.897
35.913
35.923
35.926
35.925
35.92
35.912
35.901
35.889
35.876
35.862
35.85
35.838
35.828
35.82
35.814
35.809
35.807
35.806
35.806
35.806
35.807
35.807
35.806
35.804
35.8
35.793
35.783
35.77
35.753
35.732
35.707
35.677
35.645
35.61
35.572
35.533
35.494
35.454
35.415
35.378
35.343
35.312
35.284
35.26
35.24
35.225
35.213
35.207
35.205
35.207
35.213
35.222
35.234
35.249
35.264
35.28
35.296
35.313
35.329
35.346
35.363
35.379
35.394
35.409
35.421
35.431
35.438
35.44
35.439
35.433
35.424
35.41
35.393
35.374
35.352
35.328
35.304
35.278
35.251
35.224
35.197
35.17
35.144
35.119
35.094
35.07
35.046
35.021
34.997
34.972
34.948
34.924
34.9
34.878
34.856
34.835
34.814
34.793
34.773
34.752
34.73
34.708
34.686
34.663
34.64
34.617
34.595
34.572
34.549
34.527
34.504
34.482
34.46
34.438
34.414
34.391
34.366
34.342
34.318
34.295
34.273
34.251
34.231
34.211
34.192
34.175
34.158
34.143
34.129
34.115
34.103
34.091
34.079
34.067
34.055
34.043
34.031
34.019
34.008
33.998
33.989
33.981
33.973
33.965
33.957
33.947
33.936
33.924
33.912
33.898
33.883
33.868
33.853
33.837
33.822
33.806
33.791
33.776
33.762
33.749
33.737
33.726
33.717
33.71
33.704
33.699
33.694
33.691
33.687
33.684
33.682
33.681
33.679
33.677
33.674
33.669
33.661
33.651
33.638
33.622
33.605
33.585
33.563
33.539
33.513
33.485
33.457
33.428
33.399
33.372
33.347
33.324
33.304
33.286
33.272
33.262
33.255
33.253
33.257
33.266
33.283
33.308
33.341
33.384
33.437
33.501
33.576
33.662
33.76
33.87
33.989
34.118
34.255
34.397
34.542
34.69
34.837
34.982
35.124
35.26
35.388
35.507
35.616
35.716
35.805
35.884
35.953
36.013
36.065
36.109
36.144
36.173
36.195
36.211
36.221
36.227
36.229
36.228
36.223
36.216
36.207
36.197
36.185
36.172
36.159
36.146
36.133
36.121
36.111
36.102
36.094
36.088
36.081
36.074
36.067
36.058
36.048
36.035
36.021
36.004
35.985
35.963
35.938
35.912
35.882
35.849
35.813
35.774
35.731
35.687
35.641
35.595
35.55
35.506
35.463
35.423
35.385
35.352
35.322
35.297
35.278
35.264
35.255
35.252
35.254
35.261
35.271
35.286
35.303
35.321
35.341
35.361
35.381
35.4
35.418
35.434
35.447
35.458
35.467
35.472
35.475
35.474
35.469
35.46
35.448
35.433
35.415
35.395
35.373
35.35
35.326
35.302
35.278
35.254
35.23
35.206
35.182
35.158
35.133
35.108
35.083
35.059
35.035
35.011
34.987
34.963
34.94
34.916
34.893
34.87
34.847
34.824
34.8
34.777
34.752
34.727
34.702
34.675
34.647
34.62
34.592
34.566
34.542
34.519
34.498
34.478
34.459
34.441
34.423
34.405
34.388
34.37
34.352
34.334
34.315
34.296
34.276
34.257
34.237
34.217
34.197
34.178
34.161
34.144
34.129
34.116
34.104
34.093
34.083
34.074
34.065
34.057
34.05
34.043
34.036
34.029
34.022
34.014
34.005
33.996
33.987
33.977
33.967
33.956
33.945
33.933
33.92
33.906
33.892
33.877
33.86
33.844
33.826
33.809
33.791
33.773
33.754
33.736
33.717
33.697
33.676
33.655
33.633
33.61
33.586
33.562
33.537
33.512
33.487
33.464
33.441
33.421
33.402
33.386
33.371
33.36
33.352
33.349
33.351
33.361
33.379
33.406
33.443
33.49
33.548
33.617
33.697
33.789
33.89
34.001
34.121
34.248
34.379
34.513
34.648
34.782
34.914
35.041
35.162
35.277
35.385
35.484
35.574
35.655
35.728
35.791
35.845
35.891
35.928
35.957
35.978
35.991
35.998
36.0
35.998
35.992
35.983
35.973
35.962
35.951
35.942
35.934
35.928
35.925
35.923
35.923
35.923
35.923
35.922
35.918
35.913
35.904
35.893
35.878
35.86
35.838
35.812
35.783
35.75
35.714
35.675
35.634
35.592
35.548
35.503
35.458
35.414
35.369
35.326
35.283
35.242
35.203
35.166
35.131
35.099
35.07
35.045
35.023
35.006
34.993
34.985
34.982
34.982
34.986
34.993
35.002
35.013
35.026
35.039
35.054
35.068
35.083
35.098
35.111
35.124
35.134
35.142
35.148
35.15
35.149
35.144
35.137
35.127
35.115
35.1
35.083
35.063
35.04
35.015
34.989
34.961
34.934
34.908
34.882
34.858
34.834
34.811
34.789
34.768
34.747
34.727
34.708
34.687
34.667
34.646
34.624
34.601
34.578
34.555
34.531
34.507
34.483
34.46
34.437
34.415
34.393
34.372
34.352
34.332
34.312
34.293
34.274
34.255
34.236
34.216
34.197
34.177
34.158
34.139
34.121
34.104
34.087
34.07
34.053
34.036
34.018
34.0
33.982
33.964
33.946
33.929
33.913
33.898
33.883
33.87
33.858
33.849
33.841
33.835
33.83
33.826
33.822
33.818
33.813
33.807
33.8
33.792
33.782
33.771
33.759
33.744
33.729
33.712
33.695
33.677
33.661
33.645
33.631
33.619
33.61
33.602
33.597
33.592
33.588
33.584
33.579
33.573
33.565
33.556
33.547
33.536
33.524
33.511
33.496
33.479
33.461
33.44
33.417
33.392
33.365
33.338
33.31
33.282
33.254
33.227
33.202
33.179
33.16
33.144
33.132
33.124
33.122
33.126
33.137
33.156
33.184
33.223
33.273
33.334
33.407
33.492
33.589
33.696
33.813
33.938
34.071
34.209
34.35
34.494
34.637
34.778
34.916
35.047
35.173
35.29
35.399
35.498
35.587
35.666
35.735
35.793
35.842
35.88
35.909
35.93
35.942
35.948
35.947
35.941
35.93
35.916
35.898
35.88
35.861
35.842
35.826
35.813
35.802
35.793
35.787
35.781
35.777
35.774
35.771
35.767
35.763
35.757
35.749
35.739
35.727
35.712
35.694
35.675
35.653
35.63
35.605
35.579
35.551
35.521
35.492
35.462
35.432
35.402
35.372
35.342
35.312
35.282
35.252
35.223
35.194
35.168
35.143
35.122
35.104
35.089
35.078
35.071
35.067
35.066
35.068
35.074
35.082
35.093
35.106
35.12
35.135
35.15
35.166
35.18
35.193
35.204
35.213
35.219
35.222
35.221
35.218
35.212
35.203
35.191
35.176
35.159
35.139
35.117
35.094
35.07
35.045
35.02
34.996
34.973
34.951
34.93
34.909
34.89
34.87
34.85
34.829
34.809
34.788
34.768
34.749
34.729
34.709
34.689
34.669
34.648
34.627
34.606
34.584
34.563
34.542
34.52
34.497
34.474
34.449
34.423
34.396
34.37
34.344
34.32
34.298
34.277
34.259
34.244
34.23
34.217
34.206
34.196
34.186
34.176
34.166
34.156
34.146
34.136
34.127
34.119
34.11
34.101
34.092
34.083
34.075
34.068
34.061
34.055
34.05
34.045
34.039
34.033
34.027
34.02
34.013
34.006
33.998
33.989
33.98
33.971
33.96
33.95
33.939
33.927
33.915
33.901
33.887
33.873
33.859
33.845
33.831
33.818
33.806
33.794
33.783
33.772
33.763
33.754
33.747
33.741
33.736
33.732
33.729
33.726
33.722
33.719
33.715
33.711
33.707
33.702
33.696
33.689
33.681
33.671
33.659
33.644
33.628
33.61
33.59
33.57
33.548
33.527
33.506
33.485
33.465
33.445
33.427
33.409
33.394
33.381
33.37
33.362
33.358
33.356
33.359
33.365
33.375
33.39
33.411
33.438
33.473
33.517
33.572
33.637
33.714
33.802
33.901
34.011
34.131
34.26
34.396
34.539
34.686
34.835
34.984
35.13
35.272
35.407
35.535
35.653
35.761
35.858
35.945
36.02
36.085
36.139
36.182
36.214
36.237
36.252
36.259
36.26
36.257
36.249
36.238
36.225
36.212
36.198
36.185
36.174
36.163
36.154
36.146
36.139
36.132
36.125
36.118
36.109
36.1
36.089
36.078
36.066
36.053
36.038
36.023
36.006
35.989
35.97
35.95
35.929
35.905
35.88
35.854
35.828
35.801
35.775
35.749
35.723
35.698
35.674
35.651
35.63
35.612
35.595
35.582
35.571
35.564
35.561
35.563
35.567
35.574
35.584
35.595
35.607
35.621
35.636
35.653
35.67
35.689
35.709
35.73
35.752
35.773
35.793
35.812
35.828
35.841
35.851
35.857
35.859
35.857
35.851
35.841
35.826
35.808
35.786
35.76
35.73
35.698
35.665
35.63
35.595
35.559
35.525
35.491
35.458
35.426
35.395
35.364
35.336
35.308
35.282
35.258
35.235
35.215
35.196
35.178
35.163
35.148
35.135
35.123
35.111
35.099
35.087
35.074
35.062
35.048
35.034
35.018
35.001
34.982
34.962
34.941
34.919
34.896
34.871
34.846
34.819
34.791
34.761
34.731
34.7
34.667
34.634
34.599
34.564
34.529
34.493
34.458
34.424
34.39
34.357
34.325
34.294
34.264
34.236
34.21
34.186
34.164
34.143
34.125
34.109
34.094
34.083
34.074
34.068
34.065
34.065
34.067
34.073
34.08
34.089
34.099
34.11
34.123
34.136
34.149
34.162
34.173
34.183
34.19
34.194
34.195
34.193
34.188
34.181
34.171
34.159
34.146
34.131
34.116
34.101
34.086
34.072
34.058
34.044
34.029
34.013
33.996
33.978
33.959
33.94
33.919
33.897
33.874
33.85
33.826
33.801
33.775
33.749
33.724
33.699
33.677
33.657
33.641
33.628
33.618
33.612
33.61
33.611
33.616
33.628
33.647
33.675
33.712
33.76
33.818
33.887
33.967
34.058
34.158
34.267
34.385
34.508
34.637
34.769
34.902
35.034
35.164
35.29
35.409
35.521
35.624
35.719
35.804
35.88
35.947
36.005
36.053
36.093
36.125
36.15
36.168
36.18
36.189
36.196
36.201
36.207
36.213
36.22
36.228
36.236
36.245
36.254
36.263
36.272
36.28
36.287
36.293
36.296
36.297
36.296
36.291
36.284
36.273
36.258
36.24
36.218
36.194
36.168
36.14
36.111
36.08
36.048
36.014
35.979
35.942
35.904
35.864
35.824
35.783
35.744
35.705
35.667
35.632
35.599
35.569
35.542
35.518
35.497
35.48
35.466
35.456
35.449
35.445
35.444
35.446
35.45
35.457
35.466
35.477
35.488
35.5
35.513
35.526
35.539
35.552
35.565
35.577
35.589
35.599
35.607
35.614
35.617
35.618
35.615
35.608
35.599
35.588
35.573
35.557
35.538
35.519
35.498
35.477
35.455
35.433
35.411
35.389
35.367
35.344
35.322
35.299
35.277
35.255
35.234
35.212
35.191
35.169
35.147
35.125
35.104
35.083
35.062
35.043
35.023
35.004
34.985
34.965
34.944
34.922
34.898
34.873
34.847
34.821
34.794
34.768
34.741
34.715
34.689
34.664
34.638
34.611
34.584
34.557
34.53
34.503
34.476
34.451
34.427
34.405
34.383
34.362
34.342
34.323
34.305
34.287
34.271
34.256
34.243
34.23
34.217
34.205
34.193
34.181
34.168
34.156
34.145
34.135
34.125
34.117
34.109
34.101
34.093
34.086
34.079
34.074
34.069
34.065
34.062
34.06
34.057
34.053
34.049
34.043
34.035
34.025
34.012
33.998
33.983
33.966
33.948
33.929
33.909
33.887
33.866
33.844
33.822
33.8
33.779
33.76
33.742
33.728
33.716
33.708
33.704
33.704
33.709
33.719
33.736
33.761
33.794
33.837
33.89
33.954
34.03
34.117
34.215
34.324
34.443
34.57
34.705
34.846
34.992
35.141
35.292
35.443
35.593
35.739
35.88
36.014
36.141
36.258
36.366
36.464
36.553
36.631
36.701
36.761
36.812
36.855
36.889
36.916
36.937
36.951
36.961
36.967
36.97
36.97
36.969
36.966
36.962
36.957
36.952
36.946
36.94
36.933
36.926
36.918
36.91
36.9
36.89
36.878
36.866
36.853
36.838
36.821
36.804
36.785
36.765
36.744
36.722
36.699
36.674
36.648
36.62
36.591
36.561
36.53
36.497
36.464
36.431
36.399
36.367
36.337
36.309
36.285
36.263
36.246
36.232
36.222
36.215
36.212
36.211
36.212
36.215
36.219
36.225
36.233
36.241
36.25
36.259
36.269
