Trial 3:3back
35.384
35.39
35.387
35.374
35.353
35.325
35.291
35.251
35.206
35.159
35.11
35.059
35.007
34.954
34.9
34.845
34.791
34.736
34.683
34.63
34.578
34.525
34.473
34.421
34.37
34.319
34.27
34.224
34.18
34.137
34.096
34.056
34.015
33.974
33.931
33.885
33.839
33.791
33.742
33.693
33.643
33.594
33.547
33.5
33.455
33.414
33.375
33.339
33.306
33.275
33.247
33.221
33.198
33.177
33.161
33.152
33.15
33.161
33.186
33.23
33.297
33.392
33.517
33.674
33.865
34.087
34.335
34.606
34.892
35.188
35.486
35.778
36.058
36.32
36.56
36.774
36.961
37.124
37.264
37.383
37.483
37.567
37.636
37.691
37.734
37.765
37.783
37.789
37.783
37.768
37.743
37.71
37.67
37.625
37.576
37.525
37.473
37.422
37.372
37.326
37.285
37.25
37.222
37.2
37.182
37.169
37.156
37.143
37.128
37.11
37.085
37.053
37.015
36.972
36.923
36.871
36.815
36.757
36.695
36.632
36.569
36.505
36.441
36.377
36.315
36.254
36.193
36.132
36.071
36.01
35.95
35.891
35.834
35.778
35.726
35.678
35.635
35.598
35.567
35.543
35.526
35.514
35.506
35.503
35.504
35.509
35.517
35.526
35.537
35.548
35.558
35.567
35.574
35.578
35.578
35.575
35.57
35.562
35.549
35.532
35.511
35.484
35.45
35.409
35.36
35.306
35.247
35.184
35.117
35.049
34.979
34.909
34.838
34.768
34.7
34.634
34.573
34.515
34.464
34.417
34.376
34.34
34.308
34.277
34.248
34.218
34.188
34.156
34.123
34.09
34.054
34.017
33.98
33.941
33.902
33.86
33.817
33.775
33.732
33.691
33.651
33.612
33.576
33.542
33.51
33.481
33.455
33.433
33.416
33.405
33.4
33.402
33.414
33.438
33.478
33.536
33.616
33.721
33.854
34.015
34.204
34.419
34.657
34.913
35.183
35.462
35.743
36.022
36.294
36.554
36.798
37.023
37.226
37.405
37.561
37.691
37.797
37.879
37.938
37.976
37.996
37.999
37.988
37.967
37.937
37.9
37.857
37.81
37.761
37.712
37.662
37.613
37.565
37.52
37.479
37.442
37.407
37.375
37.346
37.318
37.29
37.263
37.237
37.213
37.187
37.157
37.123
37.084
37.041
36.993
36.94
36.883
36.824
36.763
36.7
36.634
36.568
36.502
36.437
36.371
36.306
36.243
36.18
36.12
36.061
36.005
35.952
35.901
35.851
35.801
35.753
35.704
35.656
35.608
35.562
35.521
35.486
35.458
35.439
35.429
35.428
35.435
35.449
35.468
35.491
35.518
35.546
35.574
35.6
35.624
35.642
35.654
35.655
35.646
35.628
35.599
35.562
35.517
35.467
35.411
35.352
35.29
35.225
35.158
35.089
35.02
34.95
34.882
34.815
34.75
34.689
34.631
34.577
34.526
34.48
34.437
34.399
34.363
34.331
34.302
34.276
34.25
34.225
34.198
34.168
34.134
34.096
34.054
34.006
33.954
33.899
33.843
33.787
33.731
33.678
33.628
33.582
33.54
33.503
33.471
33.443
33.419
33.398
33.379
33.361
33.343
33.325
33.308
33.293
33.281
33.275
33.275
33.287
33.313
33.359
33.43
33.529
33.662
33.828
34.026
34.255
34.508
34.782
35.07
35.366
35.664
35.957
36.24
36.509
36.758
36.984
37.185
37.36
37.509
37.632
37.732
37.809
37.866
37.903
37.924
37.928
37.918
37.898
37.868
37.83
37.787
37.74
37.691
37.642
37.594
37.549
37.507
37.471
37.441
37.417
37.397
37.38
37.365
37.349
37.331
37.307
37.28
37.248
37.212
37.172
37.129
37.085
37.039
36.994
36.949
36.903
36.858
36.812
36.766
36.718
36.668
36.614
36.557
36.495
36.428
36.356
36.279
36.199
36.117
36.036
35.957
35.883
35.815
35.752
35.696
35.647
35.605
35.57
35.541
35.519
35.503
35.494
35.49
35.493
35.502
35.516
35.534
35.553
35.573
35.592
35.61
35.625
35.636
35.644
35.648
35.645
35.635
35.617
35.59
35.555
35.512
35.459
35.395
35.321
35.237
35.145
35.049
34.954
34.863
34.781
34.708
34.646
34.596
34.556
34.524
34.499
34.479
34.46
34.44
34.418
34.391
34.359
34.325
34.288
34.25
34.211
34.172
34.134
34.095
34.058
34.022
33.986
33.95
33.912
33.874
33.833
33.791
33.746
33.7
33.653
33.606
33.559
33.514
33.47
33.428
33.389
33.351
33.315
33.28
33.248
33.218
33.192
33.169
33.148
33.131
33.119
33.113
33.117
33.134
33.167
33.221
33.298
33.404
33.541
33.709
33.907
34.135
34.388
34.662
34.95
35.245
35.541
35.832
36.111
36.373
36.613
36.829
37.019
37.181
37.318
37.429
37.518
37.588
37.641
37.679
37.704
37.718
37.722
37.717
37.703
37.681
37.653
37.619
37.579
37.535
37.488
37.439
37.389
37.339
37.289
37.24
37.194
37.151
37.113
37.079
37.05
37.026
37.005
36.987
36.968
36.948
36.926
36.901
36.872
36.838
36.801
36.76
36.716
36.668
36.614
36.557
36.496
36.429
36.359
36.284
36.207
36.13
36.053
35.978
35.907
35.841
35.779
35.723
35.673
35.631
35.596
35.569
35.549
35.537
35.531
35.529
35.529
35.53
35.532
35.533
35.532
35.529
35.524
35.516
35.506
35.493
35.478
35.461
35.444
35.426
35.408
35.393
35.381
35.373
35.367
35.362
35.357
35.35
35.34
35.324
35.301
35.272
35.236
35.192
35.14
35.081
35.017
34.948
34.875
34.801
34.725
34.649
34.573
34.5
34.429
34.36
34.293
34.228
34.166
34.108
34.053
34.002
33.955
33.913
33.876
33.844
33.818
33.795
33.776
33.76
33.746
33.731
33.716
33.696
33.67
33.639
33.604
33.567
33.527
33.488
33.448
33.409
33.371
33.332
33.292
33.252
33.211
33.171
33.131
33.092
33.055
33.023
32.999
32.985
32.983
32.996
33.031
33.09
33.178
33.299
33.455
33.647
33.874
34.133
34.419
34.725
35.044
35.37
35.693
36.008
36.307
36.584
36.835
37.057
37.249
37.408
37.534
37.63
37.698
37.741
37.763
37.767
37.758
37.74
37.716
37.689
37.661
37.634
37.607
37.579
37.551
37.52
37.489
37.456
37.422
37.387
37.351
37.315
37.28
37.246
37.21
37.174
37.137
37.099
37.06
37.022
36.984
36.947
36.911
36.876
36.84
36.803
36.766
36.728
36.686
36.641
36.592
36.541
36.486
36.426
36.362
36.293
36.221
36.145
36.066
35.987
35.908
35.833
35.763
35.699
35.644
35.597
35.56
35.533
35.516
35.507
35.506
35.51
35.519
35.531
35.544
35.557
35.567
35.574
35.577
35.573
35.564
35.55
35.534
35.517
35.499
35.482
35.467
35.454
35.442
35.432
35.422
35.411
35.4
35.386
35.369
35.347
35.32
35.286
35.246
35.197
35.141
35.077
35.007
34.933
34.855
34.776
34.698
34.621
34.548
34.478
34.412
34.348
34.288
34.231
34.178
34.128
34.081
34.038
33.998
33.962
33.928
33.895
33.862
33.83
33.798
33.765
33.733
33.7
33.666
33.632
33.596
33.558
33.518
33.476
33.433
33.388
33.343
33.298
33.254
33.212
33.172
33.136
33.104
33.078
33.057
33.042
33.035
33.037
33.051
33.078
33.121
33.184
33.273
33.39
33.539
33.723
33.94
34.188
34.463
34.759
35.07
35.387
35.702
36.008
36.296
36.561
36.799
37.009
37.188
37.337
37.456
37.549
37.619
37.668
37.7
37.72
37.729
37.73
37.723
37.71
37.691
37.668
37.641
37.611
37.577
37.54
37.499
37.456
37.409
37.36
37.311
37.263
37.214
37.167
37.12
37.077
37.036
36.997
36.962
36.93
36.901
36.873
36.845
36.816
36.784
36.747
36.702
36.649
36.589
36.522
36.45
36.372
36.292
36.21
36.128
36.048
35.97
35.897
35.828
35.765
35.708
35.657
35.613
35.575
35.542
35.513
35.488
35.467
35.45
35.434
35.42
35.409
35.401
35.396
35.394
35.394
35.397
35.4
35.404
35.408
35.411
35.413
35.414
35.413
35.412
35.408
35.403
35.395
35.385
35.372
35.356
35.336
35.313
35.286
35.254
35.218
35.176
35.129
35.077
35.021
34.961
34.897
34.831
34.762
34.692
34.619
34.543
34.467
34.39
34.314
34.24
34.169
34.102
34.04
33.984
33.932
33.885
33.841
33.8
33.76
33.722
33.685
33.649
33.614
33.578
33.542
33.507
33.473
33.439
33.406
33.375
33.344
33.313
33.282
33.25
33.219
33.189
33.165
33.149
33.146
33.159
33.195
33.256
33.346
33.47
33.628
33.819
34.043
34.296
34.572
34.867
35.172
35.48
35.785
36.079
36.356
36.611
36.841
37.045
37.22
37.365
37.482
37.57
37.633
37.671
37.688
37.685
37.666
37.634
37.592
37.542
37.487
37.429
37.371
37.313
37.257
37.205
37.158
37.115
37.078
37.044
37.014
36.985
36.957
36.929
36.899
36.867
36.831
36.793
36.75
36.703
36.652
36.598
36.542
36.484
36.425
36.366
36.307
36.248
36.188
36.129
36.068
36.008
35.947
35.885
35.821
35.756
35.691
35.624
35.557
35.49
35.424
35.36
35.3
35.244
35.195
35.153
35.118
35.09
35.068
35.051
35.033
35.012
34.986
34.955
34.923
34.892
34.865
34.846
34.837
34.84
34.854
34.879
34.914
34.957
35.005
35.055
35.103
35.146
35.181
35.204
35.214
35.21
35.192
35.159
35.112
35.052
34.981
34.901
34.814
34.724
34.631
34.54
34.45
34.364
34.283
34.207
34.139
34.076
34.02
33.968
33.921
33.877
33.834
33.792
33.751
33.711
33.673
33.634
33.595
33.557
33.518
33.478
33.436
33.394
33.351
33.307
33.261
33.216
33.17
33.128
33.092
33.066
33.056
33.065
33.099
33.162
33.259
33.391
33.558
33.76
33.994
34.256
34.54
34.84
35.151
35.464
35.772
36.069
36.349
36.608
36.841
37.048
37.226
37.376
37.497
37.59
37.658
37.701
37.721
37.723
37.71
37.684
37.648
37.606
37.56
37.514
37.467
37.422
37.379
37.34
37.305
37.275
37.248
37.224
37.202
37.181
37.161
37.139
37.115
37.088
37.057
37.021
36.981
36.935
36.884
36.828
36.767
36.702
36.634
36.565
36.496
36.43
36.365
36.302
36.241
36.181
36.122
36.061
36.0
35.937
35.873
35.807
35.74
35.672
35.604
35.537
35.47
35.406
35.345
35.29
35.241
35.2
35.168
35.146
35.135
35.132
35.138
35.15
35.168
35.189
35.212
35.237
35.26
35.281
35.299
35.312
35.322
35.325
35.323
35.313
35.297
35.275
35.247
35.214
35.176
35.134
35.088
35.039
34.985
34.928
34.867
34.803
34.737
34.671
34.604
34.538
34.473
34.412
34.353
34.299
34.248
34.201
34.157
34.115
34.076
34.037
33.996
33.952
33.906
33.855
33.801
33.743
33.683
33.621
33.559
33.496
33.432
33.368
33.304
33.241
33.179
33.121
33.066
33.018
32.975
32.939
32.911
32.892
32.885
32.893
32.922
32.974
33.055
33.168
33.315
33.497
33.715
33.964
34.241
34.54
34.856
35.179
35.503
35.818
36.119
36.401
36.659
36.888
37.087
37.256
37.395
37.506
37.591
37.651
37.693
37.719
37.733
37.736
37.732
37.723
37.71
37.692
37.669
37.644
37.616
37.586
37.554
37.519
37.483
37.445
37.406
37.368
37.329
37.29
37.251
37.213
37.175
37.139
37.103
37.07
37.038
37.006
36.973
36.939
36.902
36.862
36.816
36.764
36.707
36.646
36.579
36.509
36.434
36.356
36.275
36.192
36.108
36.023
35.94
35.859
35.78
35.705
35.636
35.573
35.517
35.468
35.426
35.392
35.365
35.344
35.329
35.32
35.315
35.314
35.316
35.32
35.325
35.33
35.332
35.333
35.333
35.332
35.33
35.327
35.324
35.321
35.318
35.315
35.31
35.302
35.291
35.276
35.255
35.229
35.197
35.16
35.116
35.066
35.011
34.95
34.885
34.816
34.745
34.673
34.6
34.527
34.452
34.378
34.304
34.23
34.156
34.082
34.01
33.94
33.873
33.808
33.747
33.689
33.635
33.584
33.538
33.496
33.461
33.43
33.404
33.382
33.363
33.346
33.33
33.312
33.293
33.271
33.246
33.219
33.189
33.159
33.127
33.095
33.064
33.038
33.021
33.015
33.026
33.057
33.112
33.196
33.311
33.458
33.636
33.846
34.086
34.351
34.638
34.94
35.251
35.565
35.875
36.175
36.459
36.723
36.962
37.175
37.359
37.514
37.638
37.733
37.8
37.841
37.861
37.861
37.846
37.819
37.782
37.741
37.696
37.65
37.607
37.567
37.532
37.501
37.468
37.432
37.389
37.34
37.288
37.233
37.177
37.122
37.068
37.018
36.973
36.934
36.901
36.875
36.852
36.832
36.814
36.796
36.778
36.757
36.732
36.703
36.667
36.625
36.574
36.514
36.446
36.372
36.291
36.207
36.119
36.031
35.944
35.858
35.774
35.694
35.619
35.548
35.482
35.424
35.372
35.329
35.294
35.265
35.242
35.226
35.217
35.214
35.216
35.224
35.237
35.254
35.274
35.295
35.317
35.337
35.353
35.365
35.371
35.372
35.364
35.348
35.325
35.295
35.259
35.216
35.168
35.114
35.057
34.996
34.931
34.864
34.795
34.726
34.657
34.589
34.523
34.457
34.393
34.328
34.265
34.203
34.143
34.084
34.026
33.97
33.918
33.868
33.821
33.779
33.74
33.706
33.676
33.648
33.623
33.598
33.573
33.544
33.513
33.479
33.442
33.401
33.358
33.312
33.265
33.217
33.168
33.118
33.07
33.022
32.977
32.934
32.893
32.854
32.817
32.783
32.751
32.724
32.702
32.686
32.677
32.678
32.691
32.718
32.763
32.829
32.92
33.04
33.191
33.374
33.589
33.832
34.101
34.391
34.695
35.008
35.322
35.631
35.931
36.216
36.484
36.731
36.955
37.153
37.325
37.47
37.589
37.682
37.75
37.796
37.823
37.833
37.828
37.81
37.782
37.746
37.704
37.658
37.608
37.559
37.509
37.462
37.418
37.378
37.341
37.307
37.276
37.248
37.221
37.196
37.171
37.145
37.119
37.092
37.063
37.031
36.997
36.96
36.92
36.878
36.833
36.784
36.731
36.674
36.614
36.548
36.478
36.404
36.327
36.247
36.166
36.084
36.003
35.926
35.854
35.787
35.728
35.675
35.631
35.593
35.561
35.534
35.511
35.49
35.471
35.453
35.436
35.419
35.402
35.385
35.367
35.348
35.331
35.314
35.3
35.289
35.282
35.278
35.277
35.277
35.279
35.279
35.277
35.273
35.265
35.252
35.233
35.207
35.175
35.137
35.092
35.04
34.982
34.918
34.851
34.781
34.708
34.634
34.559
34.483
34.406
34.329
34.251
34.175
34.1
34.028
33.961
33.899
33.844
33.797
33.755
33.72
33.691
33.664
33.64
33.618
33.596
33.574
33.551
33.526
33.5
33.472
33.443
33.413
33.385
33.357
33.332
33.308
33.288
33.271
33.255
33.239
33.222
33.204
33.182
33.157
33.127
33.094
33.058
33.017
32.974
32.928
32.882
32.839
32.8
32.768
32.747
32.74
32.751
32.782
32.837
32.92
33.034
33.179
33.359
33.572
33.816
34.088
34.384
34.697
35.022
35.35
35.674
35.986
36.281
36.553
36.798
37.011
37.192
37.34
37.454
37.536
37.589
37.616
37.622
37.611
37.587
37.556
37.52
37.484
37.45
37.419
37.392
37.368
37.348
37.33
37.313
37.296
37.278
37.258
37.235
37.208
37.176
37.14
37.1
37.055
37.008
36.96
36.913
36.868
36.828
36.792
36.761
36.736
36.714
36.694
36.672
36.647
36.617
36.581
36.536
36.484
36.425
36.357
36.283
36.201
36.114
36.023
35.929
35.837
35.748
35.665
35.589
35.523
35.466
35.42
35.385
35.359
35.343
35.334
35.332
35.335
35.344
35.355
35.369
35.385
35.401
35.415
35.427
35.435
35.44
35.44
35.434
35.422
35.406
35.384
35.357
35.325
35.289
35.249
35.207
35.162
35.116
35.071
35.027
34.986
34.946
34.908
34.871
34.833
34.793
34.75
34.702
34.65
34.592
34.53
34.465
34.396
34.325
34.25
34.174
34.097
34.022
33.948
33.876
33.807
33.743
33.682
33.624
33.571
33.522
33.479
33.442
33.408
33.376
33.344
33.314
33.284
33.254
33.226
33.2
33.175
33.151
33.128
33.107
33.085
33.063
33.039
33.015
32.989
32.962
32.934
32.907
32.881
32.857
32.834
32.814
32.797
32.785
32.78
32.783
32.796
32.823
32.866
32.93
33.018
33.134
33.279
33.456
33.664
33.903
34.169
34.458
34.765
35.083
35.406
35.727
36.039
36.334
36.61
36.861
37.085
37.279
37.441
37.574
37.676
37.75
37.796
37.816
37.814
37.793
37.758
37.711
37.657
37.599
37.542
37.487
37.436
37.391
37.351
37.316
37.286
37.26
37.236
37.215
37.194
37.172
37.151
37.128
37.104
37.078
37.05
37.019
36.985
36.95
36.913
36.875
36.836
36.795
36.754
36.711
36.668
36.621
36.571
36.517
36.459
36.397
36.33
36.26
36.189
36.116
36.044
35.972
35.9
35.829
35.76
35.692
35.627
35.564
35.506
35.453
35.406
35.366
35.332
35.305
35.285
35.273
35.268
35.271
35.282
35.301
35.328
35.359
35.395
35.431
35.465
35.496
35.52
35.537
35.543
35.54
35.527
35.504
35.472
35.433
35.386
35.332
35.274
35.213
35.152
35.09
35.03
34.972
34.916
34.862
34.809
34.755
34.702
34.648
34.593
34.539
34.486
34.436
34.387
34.34
34.295
34.251
34.207
34.164
34.123
34.081
34.038
33.995
33.951
33.906
33.86
33.812
33.763
33.714
33.665
33.617
33.57
33.522
33.476
33.43
33.385
33.342
33.298
33.256
33.214
33.174
33.134
33.097
33.062
33.031
33.006
32.99
32.985
32.996
33.025
33.077
33.154
33.262
33.404
33.579
33.788
34.029
34.296
34.584
34.887
35.198
35.511
35.818
36.11
36.383
36.631
36.85
37.037
37.191
37.315
37.41
37.48
37.527
37.556
37.57
37.572
37.565
37.551
37.529
37.502
37.471
37.437
37.402
37.365
37.326
37.288
37.249
37.211
37.173
37.133
37.093
37.052
37.01
36.968
36.927
36.888
36.849
36.811
36.773
36.734
36.695
36.656
36.616
36.576
36.536
36.496
36.455
36.413
36.369
36.323
36.273
36.219
36.159
36.094
36.023
35.949
35.871
35.791
35.711
35.631
35.552
35.476
35.403
35.337
35.279
35.229
35.19
35.162
35.144
35.136
35.136
35.143
35.156
35.173
35.192
35.212
35.234
35.257
35.28
35.302
35.323
35.34
35.353
35.361
35.363
35.359
35.349
35.331
35.305
35.273
35.233
35.186
35.133
35.073
35.01
34.944
34.877
34.81
34.744
34.68
34.619
34.561
34.505
34.453
34.404
34.357
34.312
34.268
34.225
34.182
34.139
34.095
34.05
34.006
33.961
33.915
33.87
33.825
33.781
33.738
33.695
33.652
33.607
33.56
33.512
33.462
33.41
33.356
33.299
33.243
33.188
33.135
33.088
33.051
33.027
33.019
33.031
33.068
33.132
33.225
33.35
33.508
33.698
33.919
34.168
34.438
34.723
35.018
35.317
35.611
35.896
36.166
36.418
36.646
36.848
37.022
37.168
37.285
37.375
37.439
37.481
37.503
37.508
37.499
37.48
37.454
37.423
37.392
37.362
37.334
37.309
37.287
37.267
37.249
37.229
37.209
37.187
37.164
37.137
37.107
37.072
37.034
36.992
36.946
36.899
36.85
36.801
36.754
36.71
36.669
36.632
36.6
36.57
36.541
36.513
36.483
36.45
36.414
36.373
36.326
36.274
36.214
36.147
36.074
35.997
35.916
35.833
35.749
35.668
35.591
35.518
35.452
35.395
35.345
35.303
35.268
35.238
35.215
35.199
35.189
35.185
35.189
35.199
35.214
35.235
35.26
35.288
35.317
35.347
35.376
35.4
35.419
35.432
35.435
35.429
35.414
35.391
35.359
35.318
35.272
35.22
35.164
35.103
35.041
34.977
34.912
34.848
34.784
34.721
34.659
34.599
34.54
34.48
34.42
34.36
34.3
34.24
34.183
34.128
34.078
34.033
33.993
33.96
33.932
33.908
33.889
33.873
33.857
33.842
33.825
33.804
33.779
33.748
33.711
33.668
33.62
33.567
33.511
33.454
33.399
33.347
33.3
33.262
33.236
33.225
33.233
33.265
33.322
33.409
33.526
33.674
33.85
34.055
34.285
34.537
34.807
35.088
35.375
35.662
35.941
36.207
36.455
36.68
36.878
37.047
37.189
37.301
37.387
37.448
37.488
37.508
37.513
37.505
37.488
37.465
37.44
37.414
37.391
37.372
37.356
37.345
37.336
37.33
37.326
37.321
37.316
37.308
37.298
37.283
37.264
37.238
37.208
37.171
37.129
37.082
37.033
36.983
36.933
36.884
36.835
36.788
36.743
36.699
36.657
36.616
36.577
36.537
36.497
36.456
36.413
36.366
36.316
36.262
36.205
36.145
36.081
36.014
35.944
35.873
35.802
35.731
35.661
35.594
35.529
35.468
35.412
35.362
35.32
35.286
35.262
35.249
35.246
35.252
35.268
35.291
35.32
35.351
35.383
35.414
35.441
35.464
35.481
35.489
35.488
35.477
35.456
35.425
35.385
35.336
35.281
35.222
35.16
35.096
35.031
34.967
34.902
34.838
34.774
34.711
34.648
34.588
34.529
34.473
34.419
34.369
34.324
34.288
34.26
34.24
34.226
34.217
34.209
34.201
34.191
34.175
34.153
34.123
34.086
34.043
33.993
33.939
33.882
33.823
33.765
33.706
33.648
33.593
33.54
33.491
33.444
33.401
33.36
33.32
33.282
33.245
33.21
33.18
33.155
33.138
33.133
33.142
33.171
33.22
33.294
33.394
33.523
33.682
33.87
34.084
34.321
34.577
34.846
35.12
