Trial 3:3back
41.236
41.252
41.235
41.192
41.126
41.043
40.946
40.839
40.725
40.605
40.482
40.36
40.24
40.122
40.007
39.894
39.784
39.676
39.57
39.464
39.359
39.252
39.145
39.038
38.931
38.825
38.722
38.621
38.522
38.425
38.33
38.236
38.145
38.055
37.966
37.876
37.785
37.691
37.594
37.495
37.392
37.287
37.179
37.069
36.958
36.848
36.738
36.629
36.522
36.418
36.318
36.224
36.136
36.056
35.984
35.92
35.865
35.817
35.777
35.745
35.719
35.7
35.688
35.681
35.678
35.679
35.683
35.689
35.698
35.707
35.715
35.72
35.722
35.721
35.715
35.703
35.687
35.666
35.639
35.606
35.569
35.526
35.478
35.426
35.37
35.31
35.248
35.183
35.116
35.047
34.976
34.904
34.832
34.758
34.683
34.606
34.528
34.447
34.367
34.285
34.202
34.118
34.033
33.948
33.862
33.775
33.688
33.601
33.516
33.433
33.353
33.276
33.201
33.128
33.058
32.99
32.924
32.86
32.797
32.737
32.677
32.618
32.559
32.501
32.444
32.387
32.331
32.275
32.219
32.164
32.109
32.056
32.004
31.953
31.903
31.854
31.806
31.76
31.716
31.674
31.636
31.602
31.571
31.544
31.52
31.498
31.479
31.462
31.449
31.438
31.429
31.423
31.418
31.414
31.411
31.408
31.404
31.401
31.398
31.395
31.394
31.394
31.395
31.396
31.398
31.398
31.397
31.394
31.39
31.384
31.378
31.37
31.363
31.355
31.347
31.339
31.332
31.325
31.32
31.314
31.308
31.302
31.295
31.287
31.278
31.269
31.258
31.245
31.23
31.214
31.198
31.185
31.178
31.179
31.194
31.226
31.282
31.369
31.492
31.658
31.874
32.143
32.468
32.849
33.281
33.762
34.282
34.835
35.41
35.997
36.584
37.161
37.715
38.239
38.724
39.165
39.558
39.902
40.195
40.437
40.629
40.775
40.877
40.939
40.966
40.96
40.927
40.87
40.794
40.703
40.601
40.491
40.376
40.257
40.137
40.017
39.896
39.776
39.657
39.538
39.419
39.3
39.181
39.063
38.945
38.83
38.717
38.607
38.501
38.399
38.302
38.208
38.117
38.028
37.94
37.852
37.763
37.673
37.582
37.488
37.391
37.292
37.191
37.088
36.983
36.877
36.772
36.67
36.571
36.476
36.386
36.302
36.223
36.152
36.09
36.037
35.994
35.961
35.938
35.926
35.923
35.928
35.942
35.963
35.99
36.024
36.06
36.099
36.139
36.177
36.213
36.246
36.274
36.296
36.312
36.319
36.319
36.311
36.295
36.27
36.238
36.199
36.153
36.101
36.044
35.982
35.915
35.843
35.767
35.687
35.604
35.52
35.433
35.346
35.259
35.17
35.082
34.994
34.908
34.823
34.741
34.661
34.584
34.509
34.436
34.367
34.31
34.271
34.245
34.231
34.221
34.21
34.191
34.163
34.121
34.065
33.995
33.912
33.819
33.717
33.609
33.499
33.388
33.28
33.175
33.075
32.98
32.893
32.813
32.74
32.676
32.619
32.568
32.524
32.486
32.45
32.417
32.386
32.358
32.331
32.306
32.283
32.26
32.238
32.217
32.197
32.178
32.16
32.143
32.128
32.114
32.102
32.09
32.079
32.069
32.058
32.047
32.035
32.022
32.009
31.995
31.981
31.966
31.951
31.936
31.921
31.907
31.893
31.879
31.864
31.849
31.833
31.819
31.804
31.791
31.778
31.766
31.755
31.746
31.738
31.732
31.731
31.739
31.758
31.792
31.845
31.923
32.034
32.183
32.376
32.619
32.913
33.26
33.66
34.109
34.602
35.131
35.688
36.262
36.842
37.419
37.982
38.519
39.023
39.487
39.905
40.272
40.588
40.853
41.067
41.233
41.355
41.435
41.478
41.488
41.468
41.423
41.356
41.27
41.168
41.055
40.934
40.808
40.678
40.546
40.413
40.28
40.148
40.016
39.885
39.754
39.622
39.489
39.353
39.217
39.081
38.944
38.807
38.672
38.538
38.407
38.279
38.156
38.035
37.916
37.798
37.68
37.56
37.44
37.318
37.195
37.072
36.949
36.827
36.707
36.589
36.474
36.363
36.257
36.157
36.064
35.979
35.901
35.832
35.766
35.701
35.639
35.58
35.528
35.486
35.456
35.44
35.439
35.453
35.481
35.522
35.573
35.632
35.697
35.763
35.827
35.888
35.941
35.987
36.022
36.047
36.06
36.062
36.052
36.032
36.002
35.962
35.915
35.861
35.801
35.736
35.665
35.589
35.509
35.427
35.344
35.26
35.176
35.092
35.008
34.924
34.841
34.756
34.672
34.586
34.5
34.412
34.323
34.233
34.141
34.048
33.955
33.863
33.771
33.681
33.593
33.508
33.425
33.345
33.268
33.196
33.126
33.059
32.995
32.932
32.871
32.813
32.757
32.703
32.651
32.602
32.555
32.509
32.465
32.422
32.381
32.34
32.299
32.259
32.218
32.178
32.141
32.106
32.072
32.042
32.014
31.988
31.963
31.941
31.919
31.898
31.877
31.857
31.837
31.817
31.798
31.781
31.765
31.752
31.74
31.731
31.725
31.721
31.719
31.721
31.725
31.732
31.74
31.749
31.759
31.769
31.779
31.788
31.796
31.802
31.806
31.809
31.809
31.808
31.805
31.8
31.792
31.781
31.768
31.752
31.735
31.717
31.698
31.68
31.661
31.642
31.624
31.608
31.595
31.589
31.594
31.614
31.655
31.724
31.829
31.977
32.175
32.432
32.751
33.134
33.58
34.084
34.64
35.238
35.866
36.513
37.165
37.812
38.44
39.04
39.602
40.119
40.585
40.995
41.346
41.637
41.869
42.045
42.17
42.248
42.284
42.286
42.26
42.21
42.142
42.058
41.964
41.861
41.754
41.643
41.531
41.417
41.3
41.181
41.061
40.938
40.815
40.69
40.564
40.439
40.315
40.193
40.075
39.958
39.845
39.733
39.621
39.51
39.399
39.289
39.178
39.068
38.96
38.853
38.746
38.638
38.529
38.418
38.305
38.189
38.07
37.949
37.826
37.704
37.583
37.466
37.353
37.247
37.148
37.059
36.977
36.904
36.838
36.78
36.73
36.686
36.65
36.619
36.594
36.576
36.564
36.558
36.556
36.558
36.561
36.567
36.573
36.58
36.587
36.591
36.592
36.588
36.58
36.567
36.548
36.525
36.497
36.464
36.427
36.385
36.338
36.287
36.233
36.176
36.117
36.055
35.991
35.924
35.853
35.778
35.698
35.614
35.526
35.434
35.338
35.239
35.137
35.033
34.927
34.819
34.71
34.601
34.492
34.383
34.275
34.168
34.062
33.959
33.859
33.763
33.67
33.58
33.494
33.412
33.332
33.255
33.181
33.109
33.038
32.969
32.901
32.834
32.767
32.701
32.635
32.571
32.507
32.444
32.383
32.324
32.268
32.216
32.169
32.125
32.086
32.049
32.016
31.987
31.96
31.935
31.914
31.894
31.875
31.858
31.841
31.825
31.811
31.798
31.787
31.777
31.77
31.764
31.761
31.759
31.757
31.757
31.756
31.754
31.75
31.745
31.738
31.729
31.719
31.708
31.696
31.683
31.67
31.657
31.643
31.627
31.61
31.59
31.567
31.541
31.513
31.482
31.451
31.419
31.387
31.356
31.327
31.298
31.271
31.246
31.221
31.198
31.176
31.157
31.142
31.133
31.131
31.139
31.162
31.205
31.273
31.373
31.515
31.706
31.955
32.265
32.641
33.081
33.583
34.142
34.748
35.391
36.059
36.738
37.415
38.077
38.715
39.317
39.874
40.381
40.832
41.225
41.559
41.835
42.054
42.218
42.332
42.398
42.423
42.412
42.372
42.306
42.221
42.122
42.013
41.898
41.779
41.658
41.536
41.414
41.29
41.164
41.035
40.902
40.768
40.632
40.496
40.36
40.223
40.086
39.95
39.814
39.679
39.545
39.411
39.279
39.148
39.02
38.893
38.768
38.643
38.518
38.393
38.268
38.142
38.016
37.889
37.761
37.633
37.504
37.375
37.247
37.121
36.998
36.879
36.767
36.66
36.562
36.47
36.387
36.311
36.244
36.186
36.138
36.1
36.073
36.054
36.046
36.045
36.052
36.064
36.08
36.098
36.116
36.133
36.148
36.158
36.164
36.164
36.157
36.145
36.127
36.102
36.07
36.032
35.989
35.942
35.89
35.835
35.777
35.715
35.649
35.579
35.502
35.42
35.332
35.24
35.146
35.05
34.952
34.853
34.756
34.661
34.569
34.48
34.393
34.31
34.23
34.152
34.077
34.003
33.929
33.856
33.784
33.711
33.638
33.565
33.492
33.419
33.346
33.275
33.204
33.134
33.065
32.998
32.932
32.867
32.803
32.74
32.679
32.621
32.564
32.51
32.458
32.408
32.36
32.313
32.268
32.226
32.186
32.148
32.113
32.078
32.043
32.01
31.977
31.945
31.914
31.882
31.851
31.822
31.793
31.764
31.736
31.708
31.683
31.66
31.638
31.619
31.602
31.589
31.578
31.569
31.56
31.552
31.543
31.533
31.522
31.509
31.493
31.475
31.456
31.436
31.417
31.398
31.381
31.365
31.352
31.339
31.327
31.316
31.307
31.298
31.289
31.281
31.273
31.266
31.26
31.255
31.251
31.246
31.242
31.238
31.233
31.228
31.222
31.219
31.219
31.225
31.24
31.267
31.313
31.383
31.485
31.627
31.818
32.064
32.372
32.744
33.181
33.681
34.237
34.843
35.488
36.161
36.849
37.537
38.212
38.862
39.475
40.045
40.562
41.024
41.425
41.766
42.045
42.265
42.428
42.537
42.598
42.615
42.594
42.541
42.462
42.36
42.242
42.111
41.972
41.827
41.678
41.526
41.373
41.22
41.069
40.919
40.772
40.625
40.476
40.326
40.176
40.026
39.877
39.729
39.584
39.442
39.303
39.169
39.039
38.912
38.789
38.669
38.548
38.427
38.304
38.179
38.05
37.919
37.784
37.649
37.513
37.378
37.247
37.121
37.003
36.894
36.795
36.706
36.627
36.558
36.498
36.447
36.407
36.377
36.357
36.347
36.344
36.349
36.361
36.377
36.397
36.418
36.44
36.463
36.484
36.505
36.523
36.537
36.549
36.556
36.558
36.554
36.543
36.522
36.494
36.456
36.41
36.356
36.296
36.23
36.16
36.086
36.007
35.924
35.836
35.745
35.651
35.556
35.459
35.361
35.263
35.166
35.069
34.974
34.879
34.785
34.692
34.6
34.506
34.412
34.316
34.221
34.129
34.039
33.953
33.869
33.788
33.71
33.635
33.562
33.492
33.427
33.365
33.307
33.25
33.196
33.143
33.092
33.042
32.993
32.945
32.899
32.854
32.81
32.768
32.727
32.688
32.65
32.612
32.575
32.539
32.504
32.47
32.438
32.407
32.378
32.351
32.326
32.303
32.281
32.261
32.241
32.222
32.203
32.184
32.166
32.149
32.134
32.12
32.106
32.093
32.08
32.067
32.053
32.039
32.025
32.01
31.994
31.977
31.959
31.939
31.918
31.896
31.874
31.852
31.83
31.808
31.785
31.764
31.742
31.722
31.702
31.683
31.666
31.649
31.635
31.623
31.614
31.608
31.607
31.615
31.641
31.692
31.778
31.909
32.094
32.34
32.654
33.036
33.488
34.003
34.575
35.194
35.846
36.518
37.195
37.862
38.505
39.111
39.668
40.169
40.606
40.977
41.281
41.521
41.699
41.821
41.893
41.919
41.908
41.867
41.801
41.718
41.622
41.517
41.407
41.295
41.181
41.069
40.958
40.848
40.737
40.625
40.51
40.394
40.275
40.155
40.032
39.906
39.779
39.649
39.52
39.391
39.262
39.133
39.004
38.877
38.751
38.628
38.506
38.386
38.266
38.146
38.026
37.905
37.784
37.662
37.539
37.415
37.291
37.167
37.044
36.923
36.805
36.692
36.584
36.483
36.389
36.305
36.232
36.17
36.118
36.078
36.05
36.032
36.025
36.026
36.036
36.053
36.075
36.103
36.133
36.166
36.199
36.231
36.26
36.284
36.304
36.316
36.322
36.32
36.312
36.296
36.272
36.24
36.201
36.156
36.107
36.054
35.997
35.937
35.872
35.803
35.73
35.652
35.57
35.483
35.392
35.299
35.203
35.107
35.008
34.908
34.808
34.707
34.607
34.507
34.407
34.308
34.212
34.118
34.027
33.939
33.854
33.77
33.688
33.608
33.53
33.455
33.385
33.319
33.258
33.201
33.148
33.097
33.048
32.999
32.949
32.898
32.846
32.793
32.74
32.691
32.652
32.621
32.599
32.582
32.568
32.553
32.535
32.51
32.478
32.438
32.39
32.334
32.27
32.202
32.13
32.057
31.983
31.911
31.844
31.782
31.728
31.681
31.643
31.613
31.591
31.574
31.562
31.552
31.544
31.538
31.534
31.53
31.527
31.523
31.518
31.511
31.504
31.495
31.485
31.477
31.469
31.463
31.457
31.452
31.448
31.445
31.443
31.441
31.438
31.435
31.431
31.427
31.422
31.416
31.409
31.401
31.393
31.385
31.38
31.378
31.383
31.398
31.427
31.477
31.554
31.666
31.823
32.032
32.301
32.635
33.038
33.508
34.044
34.637
35.279
35.956
36.656
37.364
38.068
38.753
39.408
40.021
40.584
41.088
41.528
41.904
42.213
42.458
42.643
42.773
42.852
42.886
42.881
42.843
42.779
42.693
42.592
42.479
42.357
42.23
42.098
41.964
41.826
41.686
41.544
41.399
41.251
41.101
40.95
40.798
40.646
40.495
40.346
40.199
40.055
39.914
39.779
39.647
39.519
39.394
39.271
39.152
39.034
38.916
38.798
38.678
38.557
38.436
38.313
38.189
38.063
37.933
37.801
37.667
37.533
37.399
37.267
37.138
37.015
36.899
36.79
36.69
36.6
36.521
36.452
36.395
36.349
36.314
36.289
36.273
36.265
36.264
36.271
36.283
36.298
36.315
36.331
36.345
36.349
36.343
36.326
36.3
36.268
36.232
36.195
36.158
36.121
36.085
36.049
36.013
35.976
35.938
35.899
35.857
35.813
35.766
35.713
35.655
35.59
35.519
35.441
35.356
35.267
35.173
35.076
34.976
34.876
34.776
34.675
34.575
34.475
34.375
34.275
34.178
34.082
33.99
33.9
33.815
33.733
33.653
33.576
33.499
33.423
33.348
33.275
33.204
33.135
33.069
33.007
32.948
32.892
32.837
32.784
32.731
32.68
32.631
32.582
32.535
32.49
32.448
32.409
32.371
32.334
32.299
32.265
32.234
32.204
32.176
32.149
32.124
32.101
32.08
32.06
32.04
32.02
31.998
31.971
31.936
31.895
31.849
31.803
31.758
31.717
31.682
31.652
31.631
31.617
31.612
31.614
31.622
31.636
31.654
31.676
31.699
31.722
31.744
31.765
31.783
31.798
31.81
31.818
31.825
31.829
31.83
31.829
31.824
31.817
31.808
31.796
31.782
31.767
31.753
31.743
31.741
31.749
31.772
31.816
31.888
31.995
32.145
32.347
32.608
32.935
33.331
33.797
34.326
34.913
35.546
36.215
36.904
37.6
38.289
38.957
39.592
40.185
40.725
41.208
41.627
41.981
42.268
42.492
42.654
42.759
42.814
42.823
42.795
42.734
42.648
42.54
42.415
42.275
42.124
41.965
41.799
41.628
41.453
41.278
41.103
40.931
40.763
40.6
40.442
40.289
40.141
39.997
39.857
39.72
39.586
39.456
39.328
39.201
39.075
38.949
38.822
38.694
38.565
38.435
38.303
38.168
38.03
37.888
37.744
37.598
37.451
37.305
37.161
37.022
36.887
36.759
36.638
36.525
36.42
36.325
36.24
36.168
36.107
36.06
36.025
36.002
35.99
35.988
35.996
36.013
36.037
36.067
36.101
36.138
36.178
36.218
36.257
36.294
36.329
36.36
36.387
36.408
36.421
36.428
36.428
36.421
36.407
36.386
36.357
36.322
36.28
36.232
36.179
36.12
36.056
35.988
35.917
35.841
35.761
35.676
35.587
35.495
35.399
35.299
35.195
35.09
34.983
34.877
34.772
34.671
34.574
34.483
34.398
34.317
34.24
34.166
34.093
34.022
33.952
33.883
33.817
33.751
33.688
33.626
33.565
33.505
33.444
33.382
33.318
33.253
33.188
33.123
33.06
32.999
32.941
32.886
32.834
32.783
32.735
32.689
32.647
32.607
32.572
32.54
32.513
32.489
32.469
32.452
32.436
32.422
32.41
32.399
32.391
32.384
32.379
32.376
32.375
32.373
32.372
32.371
32.371
32.372
32.373
32.374
32.375
32.375
32.375
32.373
32.37
32.366
32.362
32.356
32.35
32.345
32.341
32.341
32.348
32.365
32.396
32.447
32.525
32.635
32.786
32.983
33.232
33.534
33.891
34.301
34.762
35.266
35.805
36.37
36.951
37.538
38.118
38.684
39.224
39.732
40.199
40.62
40.991
41.31
41.577
41.794
41.963
42.085
42.166
42.208
42.215
42.193
42.145
42.073
41.981
41.871
41.747
41.612
41.467
41.313
41.153
40.985
40.813
40.638
40.461
40.284
40.106
39.93
39.758
39.59
39.427
39.271
39.121
38.977
38.839
38.706
38.578
38.453
38.332
38.211
38.091
37.968
37.844
37.718
37.59
37.461
37.331
37.199
37.066
36.934
36.804
36.678
36.557
36.441
36.333
36.233
36.142
36.061
35.99
35.932
35.887
35.856
35.836
35.829
35.83
35.84
35.856
35.878
35.904
35.933
35.965
35.997
36.03
36.062
36.092
36.118
36.14
36.156
36.166
36.169
36.163
36.149
36.126
36.096
36.056
36.009
35.954
35.893
35.826
35.755
35.68
35.602
35.52
35.437
35.353
35.267
35.182
35.095
35.006
34.916
34.823
34.729
34.632
34.534
34.434
34.334
34.235
34.138
34.042
33.949
33.858
33.769
33.681
33.596
33.511
33.429
33.349
33.272
33.196
33.124
33.053
32.984
32.916
32.85
32.786
32.724
32.665
32.608
32.555
32.504
32.457
32.414
32.372
32.332
32.293
32.256
32.22
32.186
32.153
32.121
32.09
32.059
32.03
32.001
31.975
31.95
31.928
31.91
31.897
31.889
31.886
31.887
31.892
31.9
31.911
31.924
31.939
31.957
31.977
31.998
32.019
32.038
32.055
32.069
32.078
32.084
32.085
32.082
32.075
32.065
32.052
32.035
32.015
31.991
31.966
31.941
31.917
31.9
31.891
31.896
31.921
31.972
32.055
32.179
32.352
32.58
32.868
33.22
33.637
34.116
34.653
35.24
35.867
36.523
37.195
37.87
38.536
39.178
39.787
40.354
40.871
41.335
41.742
42.091
42.381
42.614
42.794
42.924
43.009
43.053
43.061
43.037
42.986
42.912
42.822
42.718
42.604
42.482
42.353
42.221
42.085
41.949
41.813
41.678
41.545
41.412
41.28
41.146
41.012
40.876
40.739
40.602
40.465
40.328
40.192
40.058
39.927
39.798
39.671
39.547
39.425
39.305
39.186
39.069
38.953
38.839
38.727
38.617
38.507
38.399
38.292
38.185
38.079
37.973
37.867
37.762
37.66
37.56
37.465
37.374
37.29
37.213
37.145
37.086
37.037
36.995
36.961
36.934
36.913
36.899
36.889
36.882
36.875
36.868
36.859
36.846
36.83
36.808
36.781
36.748
36.71
36.665
36.615
36.559
36.498
36.432
36.362
36.288
36.211
36.132
36.05
35.964
35.877
35.787
35.695
35.601
35.504
35.404
35.301
35.195
35.085
34.972
34.857
34.742
34.627
34.513
34.402
34.292
34.184
34.08
33.98
33.884
33.794
33.708
33.625
33.546
33.47
33.397
33.326
33.255
33.185
33.117
33.05
32.984
32.92
32.857
32.797
32.738
32.682
32.627
32.573
32.519
32.467
32.415
32.364
32.313
32.262
32.211
32.16
32.11
32.06
32.011
31.963
31.917
31.873
31.832
31.795
31.76
31.729
31.7
31.674
31.65
31.627
31.608
31.59
31.575
31.56
31.547
31.533
31.52
31.507
31.496
31.485
31.476
31.469
31.464
31.459
31.457
31.455
31.455
31.453
31.444
31.427
31.404
31.376
31.346
31.317
31.29
31.266
31.246
31.232
31.223
31.22
31.222
31.229
31.243
31.263
31.289
31.323
31.368
31.43
31.515
31.632
31.787
31.989
32.246
32.563
32.945
33.389
33.894
34.454
35.061
35.708
36.383
37.074
37.771
38.46
39.13
39.77
40.371
40.925
41.425
41.868
42.252
42.574
42.836
43.04
43.187
43.283
43.334
43.343
43.316
43.257
43.173
43.067
42.944
42.807
42.66
42.507
42.349
42.19
42.03
41.871
41.711
41.554
41.399
41.247
41.1
40.956
40.817
40.68
40.547
40.415
40.285
40.156
40.028
39.902
39.775
39.649
39.521
39.393
39.262
39.127
38.987
38.842
38.691
38.536
38.378
38.218
38.059
37.901
37.745
37.594
37.447
37.306
37.173
37.05
36.937
36.835
36.744
36.663
36.592
36.53
36.476
36.43
36.392
36.361
36.335
36.316
36.301
36.289
36.279
36.27
36.263
36.257
36.251
36.247
36.244
36.239
36.232
36.223
36.209
36.192
36.17
36.143
36.109
36.069
36.023
35.971
35.913
35.851
35.784
35.712
35.636
35.555
35.472
35.387
35.3
35.212
35.122
35.032
34.941
34.85
34.757
34.663
34.567
34.471
34.375
34.278
34.181
34.083
33.986
33.89
33.796
33.703
33.612
33.522
33.435
33.351
33.274
33.212
33.166
33.132
33.106
33.081
33.054
33.019
32.974
32.918
32.849
32.769
32.678
32.58
32.475
32.367
32.258
32.149
32.043
31.94
31.844
31.756
31.675
31.601
31.535
31.477
31.426
31.381
31.342
31.308
31.28
31.257
31.237
31.22
31.205
31.193
31.183
31.174
31.166
31.158
31.15
31.142
31.134
31.126
31.117
31.107
31.098
31.09
31.083
31.076
31.07
31.064
31.057
31.049
31.04
31.029
31.017
31.004
30.991
30.978
30.963
30.948
30.932
30.916
30.901
30.885
30.869
30.852
30.837
30.822
30.807
30.793
30.774
30.748
30.716
30.68
30.644
30.612
30.589
30.579
30.587
30.618
30.679
30.777
30.921
31.118
31.376
31.7
32.093
32.554
33.08
33.664
34.297
34.968
35.666
36.376
37.084
37.777
38.442
39.068
39.646
40.169
40.631
41.03
41.364
41.636
41.846
41.998
42.095
42.144
42.151
42.123
42.066
41.986
