Trial 3:3back
33.034
33.004
32.975
32.947
32.918
32.888
32.859
32.83
32.802
32.776
32.751
32.727
32.705
32.684
32.664
32.646
32.63
32.615
32.603
32.594
32.588
32.588
32.594
32.608
32.633
32.67
32.723
32.794
32.886
33.004
33.149
33.325
33.535
33.783
34.069
34.393
34.754
35.149
35.573
36.02
36.484
36.957
37.431
37.896
38.345
38.772
39.168
39.531
39.855
40.138
40.378
40.574
40.726
40.836
40.905
40.935
40.929
40.892
40.828
40.742
40.636
40.513
40.376
40.228
40.069
39.903
39.732
39.556
39.378
39.198
39.017
38.837
38.657
38.481
38.307
38.137
37.971
37.809
37.649
37.493
37.338
37.186
37.035
36.885
36.737
36.589
36.442
36.297
36.154
36.016
35.883
35.756
35.634
35.518
35.407
35.301
35.199
35.102
35.009
34.921
34.839
34.763
34.694
34.634
34.582
34.54
34.506
34.482
34.467
34.461
34.461
34.468
34.48
34.495
34.514
34.535
34.556
34.577
34.597
34.616
34.633
34.647
34.659
34.668
34.675
34.679
34.68
34.677
34.669
34.657
34.641
34.618
34.59
34.556
34.515
34.469
34.417
34.361
34.303
34.244
34.186
34.13
34.076
34.024
33.975
33.927
33.88
33.832
33.783
33.731
33.677
33.621
33.565
33.508
33.454
33.403
33.355
33.311
33.272
33.237
33.207
33.179
33.152
33.126
33.099
33.071
33.041
33.009
32.977
32.945
32.913
32.883
32.854
32.827
32.801
32.776
32.752
32.729
32.706
32.684
32.663
32.644
32.626
32.61
32.596
32.585
32.578
32.574
32.575
32.582
32.597
32.621
32.656
32.706
32.772
32.859
32.969
33.108
33.279
33.485
33.73
34.015
34.34
34.703
35.102
35.53
35.982
36.448
36.922
37.396
37.862
38.312
38.738
39.134
39.494
39.814
40.09
40.319
40.502
40.64
40.735
40.789
40.807
40.792
40.747
40.677
40.587
40.478
40.355
40.219
40.072
39.917
39.755
39.586
39.412
39.236
39.057
38.877
38.698
38.519
38.341
38.166
37.993
37.823
37.656
37.493
37.333
37.178
37.025
36.876
36.73
36.587
36.446
36.307
36.17
36.034
35.9
35.767
35.637
35.511
35.392
35.279
35.174
35.076
34.984
34.899
34.82
34.747
34.682
34.624
34.574
34.533
34.501
34.476
34.459
34.45
34.447
34.45
34.456
34.465
34.475
34.487
34.499
34.511
34.525
34.539
34.553
34.566
34.577
34.584
34.589
34.59
34.588
34.583
34.573
34.559
34.542
34.521
34.497
34.471
34.443
34.414
34.383
34.351
34.318
34.283
34.246
34.206
34.163
34.116
34.064
34.01
33.954
33.897
33.839
33.782
33.726
33.672
33.62
33.571
33.524
33.481
33.441
33.403
33.367
33.331
33.296
33.261
33.225
33.188
33.151
33.114
33.078
33.042
33.009
32.978
32.951
32.927
32.905
32.886
32.869
32.852
32.835
32.817
32.797
32.776
32.755
32.732
32.71
32.688
32.669
32.652
32.639
32.628
32.62
32.616
32.617
32.624
32.64
32.667
32.708
32.765
32.842
32.942
33.067
33.222
33.409
33.63
33.888
34.182
34.51
34.87
35.258
35.67
36.098
36.537
36.98
37.42
37.851
38.264
38.654
39.015
39.343
39.633
39.882
40.088
40.253
40.376
40.459
40.504
40.515
40.493
40.442
40.366
40.266
40.148
40.013
39.866
39.708
39.541
39.368
39.19
39.009
38.825
38.638
38.451
38.262
38.074
37.888
37.703
37.521
37.343
37.169
37.001
36.838
36.681
36.529
36.381
36.238
36.099
35.962
35.829
35.699
35.573
35.449
35.327
35.206
35.087
34.972
34.862
34.758
34.663
34.577
34.503
34.439
34.386
34.344
34.313
34.293
34.282
34.278
34.282
34.292
34.308
34.327
34.351
34.379
34.409
34.441
34.475
34.507
34.539
34.568
34.596
34.62
34.642
34.659
34.673
34.684
34.69
34.692
34.689
34.683
34.673
34.659
34.639
34.612
34.58
34.543
34.502
34.458
34.411
34.362
34.313
34.263
34.213
34.162
34.111
34.059
34.007
33.953
33.899
33.844
33.789
33.736
33.685
33.637
33.592
33.549
33.508
33.469
33.431
33.395
33.359
33.324
33.289
33.254
33.22
33.186
33.155
33.125
33.096
33.068
33.042
33.018
32.995
32.974
32.954
32.936
32.919
32.905
32.891
32.88
32.869
32.858
32.847
32.836
32.824
32.812
32.799
32.788
32.778
32.772
32.773
32.783
32.803
32.837
32.887
32.955
33.045
33.158
33.299
33.471
33.676
33.916
34.191
34.502
34.846
35.223
35.626
36.05
36.488
36.932
37.376
37.812
38.231
38.629
38.998
39.335
39.636
39.898
40.121
40.304
40.446
40.55
40.616
40.648
40.646
40.614
40.553
40.466
40.357
40.227
40.081
39.921
39.749
39.57
39.387
39.202
39.017
38.834
38.653
38.473
38.295
38.12
37.949
37.782
37.618
37.458
37.302
37.15
37.0
36.852
36.703
36.554
36.404
36.254
36.103
35.953
35.805
35.661
35.521
35.387
35.261
35.143
35.035
34.937
34.849
34.771
34.704
34.645
34.596
34.555
34.522
34.496
34.476
34.462
34.453
34.451
34.455
34.464
34.478
34.497
34.52
34.546
34.575
34.606
34.637
34.667
34.696
34.722
34.743
34.76
34.771
34.776
34.776
34.771
34.761
34.745
34.725
34.702
34.676
34.647
34.614
34.577
34.535
34.488
34.437
34.382
34.324
34.264
34.205
34.146
34.088
34.032
33.979
33.929
33.881
33.835
33.79
33.747
33.704
33.661
33.618
33.574
33.532
33.491
33.452
33.414
33.379
33.345
33.313
33.282
33.252
33.222
33.191
33.16
33.129
33.097
33.066
33.038
33.012
32.989
32.968
32.949
32.93
32.912
32.893
32.875
32.855
32.834
32.812
32.79
32.769
32.75
32.736
32.728
32.727
32.735
32.753
32.783
32.827
32.888
32.969
33.072
33.202
33.36
33.551
33.776
34.039
34.339
34.678
35.051
35.454
35.881
36.324
36.777
37.232
37.681
38.117
38.533
38.923
39.282
39.606
39.892
40.138
40.344
40.509
40.634
40.721
40.771
40.789
40.776
40.735
40.668
40.579
40.471
40.347
40.208
40.057
39.896
39.727
39.551
39.37
39.187
39.004
38.822
38.644
38.469
38.298
38.132
37.971
37.814
37.662
37.513
37.369
37.227
37.086
36.947
36.806
36.665
36.523
36.38
36.237
36.093
35.95
35.809
35.67
35.535
35.404
35.279
35.163
35.056
34.96
34.875
34.801
34.739
34.689
34.65
34.621
34.6
34.587
34.58
34.579
34.581
34.587
34.594
34.605
34.617
34.631
34.647
34.664
34.683
34.703
34.723
34.743
34.761
34.777
34.788
34.795
34.797
34.792
34.781
34.763
34.74
34.712
34.679
34.644
34.606
34.565
34.522
34.476
34.428
34.377
34.324
34.269
34.212
34.155
34.097
34.039
33.982
33.925
33.869
33.814
33.761
33.71
33.66
33.613
33.568
33.526
33.487
33.449
33.412
33.377
33.342
33.307
33.272
33.237
33.202
33.168
33.133
33.099
33.065
33.032
33.0
32.969
32.94
32.912
32.886
32.862
32.839
32.818
32.8
32.784
32.77
32.758
32.747
32.738
32.73
32.722
32.714
32.707
32.702
32.697
32.696
32.7
32.712
32.735
32.774
32.83
32.907
33.01
33.143
33.308
33.51
33.75
34.029
34.347
34.7
35.087
35.501
35.937
36.391
36.854
37.319
37.779
38.225
38.65
39.049
39.416
39.746
40.036
40.284
40.488
40.648
40.764
40.837
40.869
40.863
40.825
40.757
40.663
40.549
40.417
40.271
40.114
39.949
39.78
39.61
39.44
39.272
39.106
38.942
38.78
38.62
38.46
38.302
38.144
37.987
37.832
37.679
37.526
37.375
37.225
37.077
36.932
36.791
36.651
36.514
36.378
36.242
36.104
35.967
35.83
35.694
35.562
35.434
35.311
35.194
35.087
34.989
34.901
34.824
34.758
34.703
34.658
34.622
34.594
34.574
34.56
34.553
34.552
34.556
34.564
34.576
34.591
34.609
34.629
34.65
34.673
34.696
34.718
34.738
34.754
34.767
34.776
34.779
34.775
34.766
34.751
34.73
34.705
34.677
34.645
34.612
34.576
34.539
34.501
34.462
34.422
34.381
34.34
34.296
34.249
34.199
34.146
34.089
34.029
33.966
33.903
33.841
33.782
33.725
33.673
33.625
33.581
33.541
33.504
33.469
33.436
33.405
33.374
33.344
33.314
33.286
33.259
33.234
33.21
33.187
33.164
33.142
33.119
33.094
33.066
33.035
33.001
32.964
32.924
32.883
32.841
32.799
32.759
32.72
32.683
32.649
32.618
32.591
32.568
32.549
32.534
32.524
32.519
32.517
32.521
32.531
32.549
32.577
32.617
32.671
32.743
32.837
32.956
33.103
33.282
33.495
33.745
34.032
34.354
34.71
35.094
35.502
35.929
36.366
36.807
37.245
37.672
38.083
38.469
38.826
39.149
39.435
39.681
39.886
40.051
40.177
40.266
40.32
40.341
40.331
40.292
40.228
40.142
40.038
39.917
39.783
39.637
39.483
39.322
39.157
38.988
38.819
38.651
38.486
38.325
38.169
38.016
37.868
37.722
37.58
37.439
37.3
37.161
37.022
36.883
36.742
36.601
36.461
36.321
36.183
36.046
35.912
35.781
35.653
35.529
35.41
35.297
35.191
35.091
34.997
34.91
34.83
34.758
34.695
34.641
34.596
34.562
34.537
34.52
34.512
34.51
34.514
34.522
34.535
34.551
34.567
34.584
34.602
34.621
34.64
34.659
34.677
34.693
34.707
34.718
34.725
34.729
34.728
34.724
34.716
34.703
34.685
34.662
34.635
34.604
34.569
34.531
34.49
34.447
34.401
34.352
34.302
34.252
34.201
34.151
34.1
34.049
33.997
33.945
33.894
33.843
33.792
33.741
33.691
33.642
33.594
33.547
33.502
33.458
33.416
33.375
33.336
33.298
33.261
33.227
33.194
33.163
33.135
33.107
33.081
33.055
33.029
33.004
32.978
32.952
32.926
32.901
32.877
32.855
32.836
32.819
32.806
32.795
32.786
32.778
32.769
32.76
32.751
32.743
32.735
32.728
32.724
32.724
32.731
32.748
32.776
32.82
32.883
32.966
33.066
33.187
33.331
33.502
33.705
33.943
34.217
34.528
34.875
35.255
35.663
36.093
36.536
36.985
37.433
37.87
38.287
38.679
39.038
39.36
39.642
39.879
40.072
40.219
40.322
40.383
40.404
40.388
40.338
40.259
40.153
40.024
39.876
39.713
39.538
39.355
39.167
38.976
38.785
38.595
38.408
38.225
38.046
37.872
37.701
37.536
37.376
37.22
37.069
36.922
36.779
36.639
36.502
36.364
36.226
36.087
35.948
35.807
35.667
35.528
35.392
35.261
35.136
35.018
34.908
34.807
34.716
34.633
34.56
34.497
34.442
34.395
34.357
34.326
34.304
34.29
34.284
34.285
34.292
34.305
34.323
34.345
34.371
34.4
34.431
34.462
34.493
34.523
34.552
34.577
34.602
34.624
34.643
34.659
34.671
34.677
34.678
34.673
34.663
34.649
34.63
34.607
34.58
34.549
34.514
34.477
34.438
34.398
34.354
34.308
34.26
34.208
34.155
34.1
34.044
33.987
33.931
33.876
33.82
33.767
33.716
33.668
33.623
33.581
33.54
33.501
33.465
33.43
33.397
33.365
33.336
33.308
33.281
33.256
33.231
33.207
33.184
33.161
33.138
33.114
33.089
33.063
33.036
33.008
32.981
32.954
32.929
32.906
32.884
32.863
32.845
32.83
32.817
32.807
32.8
32.797
32.799
32.808
32.825
32.854
32.896
32.955
33.034
33.134
33.26
33.413
33.598
33.817
34.072
34.363
34.688
35.046
35.433
35.842
36.267
36.7
37.135
37.563
37.976
38.368
38.734
39.068
39.368
39.63
39.854
40.038
40.184
40.294
40.367
40.406
40.412
40.39
40.342
40.271
40.18
40.07
39.945
39.805
39.653
39.491
39.319
39.141
38.958
38.771
38.584
38.396
38.211
38.029
37.852
37.681
37.515
37.355
37.201
37.051
36.906
36.762
36.618
36.474
36.33
36.186
36.042
35.899
35.759
35.623
35.49
35.363
35.24
35.125
35.016
34.914
34.821
34.736
34.662
34.597
34.543
34.498
34.463
34.436
34.418
34.407
34.402
34.401
34.404
34.409
34.416
34.423
34.433
34.445
34.459
34.476
34.496
34.518
34.542
34.568
34.594
34.619
34.64
34.657
34.668
34.672
34.669
34.658
34.64
34.615
34.585
34.549
34.509
34.467
34.422
34.377
34.33
34.283
34.235
34.186
34.137
34.088
34.039
33.991
33.943
33.896
33.849
33.802
33.751
33.693
33.627
33.554
33.477
33.398
33.321
33.248
33.183
33.126
33.08
33.044
33.018
33.0
32.989
32.982
32.979
32.978
32.978
32.979
32.979
32.978
32.974
32.967
32.957
32.944
32.929
32.912
32.892
32.87
32.847
32.823
32.801
32.78
32.761
32.744
32.731
32.72
32.715
32.715
32.724
32.744
32.778
32.829
32.9
32.994
33.115
33.267
33.453
33.674
33.933
34.23
34.563
34.929
35.324
35.744
36.184
36.635
37.09
37.542
37.981
38.401
38.795
39.158
39.486
39.774
40.021
40.225
40.386
40.503
40.579
40.616
40.619
40.59
40.533
40.452
40.351
40.233
40.102
39.961
39.813
39.659
39.503
39.346
39.189
39.031
38.874
38.717
38.561
38.404
38.247
38.091
37.935
37.781
37.628
37.478
37.33
37.185
37.043
36.904
36.767
36.632
36.498
36.365
36.233
36.1
35.968
35.836
35.705
35.576
35.451
35.33
35.216
35.109
35.011
34.923
34.845
34.778
34.72
34.672
34.632
34.599
34.573
34.552
34.536
34.525
34.519
34.518
34.522
34.531
34.543
34.559
34.577
34.597
34.617
34.637
34.656
34.673
34.688
34.699
34.706
34.708
34.705
34.696
34.683
34.664
34.639
34.61
34.577
34.54
34.501
34.459
34.414
34.368
34.321
34.273
34.224
34.174
34.124
34.072
34.019
33.964
33.908
33.851
33.795
33.74
33.687
33.638
33.593
33.551
33.514
33.478
33.444
33.41
33.375
33.339
33.302
33.264
33.225
33.187
33.15
33.114
33.081
33.05
33.02
32.992
32.964
32.938
32.912
32.887
32.863
32.839
32.815
32.791
32.768
32.744
32.721
32.699
32.679
32.662
32.647
32.635
32.628
32.628
32.636
32.654
32.684
32.728
32.789
32.869
32.973
33.101
33.259
33.448
33.672
33.93
34.223
34.549
34.908
35.295
35.706
36.136
36.578
37.026
37.47
37.903
38.318
38.707
39.065
39.389
39.674
39.917
40.118
40.276
40.39
40.463
40.498
40.498
40.466
40.406
40.321
40.216
40.092
39.953
39.803
39.645
39.482
39.314
39.144
38.972
38.8
38.627
38.453
38.28
38.109
37.942
37.779
37.62
37.466
37.316
37.169
37.026
36.886
36.748
36.611
36.476
36.34
36.205
36.068
35.932
35.797
35.663
35.533
35.407
35.285
35.17
35.061
34.958
34.863
34.776
34.695
34.622
34.556
34.497
34.446
34.403
34.368
34.342
34.321
34.302
34.285
34.271
34.26
34.254
34.253
34.258
34.267
34.282
34.3
34.322
34.348
34.376
34.406
34.436
34.465
34.493
34.517
34.536
34.549
34.556
34.555
34.546
34.529
34.503
34.47
34.431
34.388
34.342
34.294
34.246
34.197
34.148
34.099
34.049
33.998
33.947
33.897
33.845
33.793
33.741
33.69
33.639
33.59
33.542
33.496
33.453
33.413
33.377
33.343
33.311
33.281
33.253
33.226
33.198
33.17
33.142
33.112
33.081
33.049
33.017
32.985
32.955
32.926
32.899
32.873
32.848
32.825
32.802
32.78
32.758
32.738
32.719
32.702
32.688
32.676
32.667
32.66
32.656
32.654
32.653
32.655
32.66
32.668
32.682
32.704
32.737
32.785
32.85
32.938
33.051
33.192
33.367
33.575
33.821
34.103
34.422
34.776
35.159
35.567
35.994
36.434
36.878
37.319
37.749
38.161
38.551
38.911
39.238
39.529
39.78
39.99
40.16
40.29
40.38
40.433
40.45
40.436
40.392
40.322
40.229
40.116
39.986
39.841
39.684
39.516
39.34
39.157
38.971
38.782
38.592
38.401
38.211
38.022
37.835
37.651
37.471
37.297
37.127
36.963
36.803
36.649
36.499
36.353
36.213
36.078
35.947
35.822
35.701
35.584
35.471
35.36
35.252
35.149
35.049
34.954
34.864
34.781
34.705
34.637
34.578
34.529
34.489
34.458
34.437
34.423
34.416
34.417
34.426
34.441
34.462
34.488
34.517
34.547
34.578
34.608
34.636
34.663
34.687
34.708
34.726
34.741
34.753
34.761
34.767
34.769
34.767
34.761
34.75
34.734
34.713
34.688
34.658
34.625
34.588
34.548
34.505
34.458
34.408
34.357
34.304
34.251
34.199
34.147
34.095
34.043
33.992
33.941
33.891
33.842
33.794
33.747
33.701
33.656
33.612
33.571
33.53
33.492
33.454
33.418
33.383
33.348
33.314
33.281
33.249
33.219
33.189
33.162
33.136
33.112
33.089
33.068
33.047
33.026
33.005
32.983
32.961
32.938
32.916
32.894
32.873
32.852
32.834
32.819
32.808
32.802
32.803
32.812
32.831
32.863
32.909
32.971
33.053
33.159
33.293
33.458
33.658
33.895
34.169
34.482
34.832
35.214
35.624
36.057
36.504
36.961
37.417
37.866
38.299
38.711
39.096
39.448
39.762
40.036
40.267
40.455
40.6
40.703
40.767
40.795
40.789
40.751
40.685
40.594
40.482
40.352
40.208
40.053
39.889
39.72
39.548
39.374
39.199
39.025
38.849
38.674
38.497
38.319
38.139
37.958
37.777
37.595
37.414
37.235
37.057
36.883
36.713
36.548
36.387
36.231
36.081
35.936
35.795
35.66
35.53
35.405
35.284
35.168
35.057
34.95
34.849
34.755
34.669
34.592
34.525
34.47
34.427
34.397
34.377
34.369
34.371
34.382
34.399
34.42
34.445
34.472
34.499
34.526
34.552
34.576
34.598
34.62
34.641
34.66
34.676
34.69
34.701
34.71
34.714
34.715
34.71
34.699
34.683
34.661
34.634
34.603
34.569
34.532
34.491
34.446
34.396
34.342
34.285
34.226
34.166
34.105
34.044
33.985
33.926
33.869
33.815
33.764
33.716
33.67
33.626
33.584
33.543
33.504
33.466
33.43
33.396
33.362
33.329
33.295
33.262
33.228
33.195
33.16
33.125
33.089
33.053
33.016
32.981
32.946
32.912
32.88
32.85
32.82
32.791
32.763
32.737
32.712
32.689
32.669
32.651
32.637
32.628
32.624
32.626
32.637
32.657
32.69
32.738
32.804
32.893
33.009
33.157
33.34
33.563
33.827
34.132
34.478
34.862
35.28
35.727
36.196
36.683
37.178
37.672
38.159
38.63
39.077
39.496
39.88
40.224
40.523
40.776
40.981
41.139
41.25
41.316
41.343
41.333
41.289
41.216
41.116
40.994
40.854
40.698
40.531
40.354
40.171
39.985
39.796
39.607
39.417
39.228
39.042
38.858
38.678
38.501
38.329
38.162
37.999
37.839
37.682
37.527
37.372
37.217
37.061
36.902
36.741
36.576
36.409
36.241
36.073
35.908
35.748
35.595
35.45
35.316
35.193
35.081
34.981
34.893
34.815
34.746
34.686
34.633
34.585
34.543
34.507
34.478
34.456
34.442
34.434
34.433
34.438
34.448
34.464
34.484
34.507
34.531
34.557
34.583
34.606
34.626
34.641
34.651
34.657
34.657
34.652
34.642
34.629
34.614
34.595
34.575
34.552
34.528
34.501
34.472
34.44
34.403
34.362
34.316
34.265
34.209
34.149
34.086
34.023
33.96
33.898
33.84
33.785
33.733
33.685
33.638
33.593
33.548
33.502
33.454
33.403
33.35
33.295
33.239
33.183
33.128
33.073
33.022
32.973
32.928
32.886
32.848
32.814
32.782
32.752
32.724
32.697
32.672
32.647
32.623
32.599
32.574
32.55
32.527
32.505
32.485
32.467
32.453
32.441
32.433
32.429
32.43
32.437
32.449
32.468
32.498
32.542
32.606
32.696
32.818
32.978
33.18
33.427
33.721
34.061
34.445
34.87
35.331
35.822
36.334
36.859
37.386
37.907
38.413
38.896
39.349
39.765
40.14
40.473
40.759
40.998
41.189
41.333
41.431
41.485
41.497
41.472
41.414
41.326
41.214
41.079
40.925
40.756
40.574
40.383
40.186
39.984
39.78
39.576
39.373
39.173
38.977
38.784
38.597
38.416
38.241
38.071
37.906
37.744
37.586
37.43
37.276
37.122
36.969
36.816
36.661
36.506
36.349
36.193
36.037
35.882
35.729
35.579
35.433
35.291
35.155
35.027
34.908
34.798
34.698
34.61
34.531
34.463
34.406
34.36
34.325
34.3
34.283
34.276
34.276
34.282
34.292
34.306
34.322
34.34
34.36
34.38
34.401
34.422
34.444
34.467
34.489
34.51
34.527
34.541
34.549
34.55
34.544
34.53
34.509
34.482
34.448
34.409
34.366
34.319
34.27
34.22
34.169
34.117
34.064
34.009
33.953
33.896
33.837
33.777
33.717
33.656
33.595
33.533
33.473
33.413
33.355
33.299
33.246
33.196
33.149
33.105
33.064
33.026
32.989
32.953
32.917
32.88
32.842
32.805
32.768
32.731
32.696
32.662
32.631
32.601
32.572
32.545
32.52
32.496
32.473
32.451
32.431
32.413
32.397
32.384
32.373
32.363
32.354
32.347
32.34
32.335
32.329
32.325
32.323
32.325
32.334
32.353
32.385
32.435
32.508
32.608
32.739
32.906
33.112
33.361
33.653
33.988
34.362
34.773
35.216
35.683
36.169
36.665
37.164
37.66
38.143
38.608
39.046
39.453
39.822
40.151
40.436
40.675
40.867
41.013
41.114
41.17
41.184
41.16
41.102
41.014
40.899
40.762
40.605
40.434
40.251
40.058
39.858
39.652
39.442
39.231
39.02
38.813
38.612
