Trial 3:3back
34.576
34.443
34.325
34.222
34.137
34.068
34.017
33.983
33.967
33.968
33.986
34.022
34.075
34.144
34.228
34.326
34.435
34.555
34.684
34.819
34.96
35.104
35.249
35.392
35.53
35.66
35.78
35.888
35.982
36.06
36.124
36.171
36.204
36.222
36.225
36.214
36.191
36.155
36.11
36.056
35.993
35.922
35.844
35.759
35.666
35.567
35.463
35.357
35.249
35.139
35.028
34.917
34.805
34.692
34.579
34.465
34.352
34.24
34.13
34.022
33.917
33.813
33.711
33.61
33.509
33.41
33.311
33.213
33.116
33.02
32.925
32.831
32.74
32.651
32.564
32.481
32.402
32.326
32.255
32.187
32.124
32.064
32.009
31.957
31.91
31.868
31.829
31.794
31.763
31.737
31.714
31.695
31.679
31.667
31.658
31.652
31.647
31.644
31.642
31.641
31.64
31.64
31.641
31.643
31.646
31.65
31.656
31.664
31.674
31.684
31.695
31.706
31.716
31.724
31.73
31.734
31.735
31.733
31.73
31.725
31.72
31.719
31.722
31.732
31.755
31.793
31.851
31.934
32.05
32.205
32.405
32.659
32.971
33.347
33.788
34.297
34.871
35.505
36.191
36.918
37.675
38.448
39.221
39.98
40.713
41.404
42.041
42.615
43.118
43.544
43.893
44.165
44.36
44.481
44.533
44.523
44.456
44.341
44.184
43.994
43.776
43.536
43.281
43.014
42.739
42.461
42.182
41.903
41.626
41.351
41.078
40.807
40.539
40.273
40.009
39.744
39.48
39.216
38.953
38.692
38.433
38.177
37.924
37.675
37.429
37.188
36.95
36.717
36.489
36.265
36.046
35.833
35.625
35.421
35.223
35.03
34.844
34.664
34.494
34.334
34.186
34.052
33.935
33.836
33.756
33.695
33.654
33.634
33.633
33.651
33.689
33.746
33.82
33.909
34.012
34.128
34.254
34.391
34.535
34.684
34.837
34.991
35.143
35.29
35.43
35.561
35.681
35.789
35.884
35.965
36.032
36.085
36.124
36.148
36.158
36.154
36.135
36.104
36.06
36.004
35.938
35.862
35.778
35.688
35.591
35.49
35.386
35.279
35.17
35.057
34.943
34.826
34.709
34.593
34.478
34.364
34.251
34.141
34.032
33.923
33.815
33.706
33.598
33.49
33.384
33.278
33.174
33.071
32.969
32.87
32.775
32.684
32.598
32.517
32.443
32.374
32.312
32.254
32.202
32.153
32.106
32.062
32.02
31.98
31.942
31.905
31.869
31.834
31.801
31.768
31.735
31.703
31.67
31.638
31.607
31.579
31.554
31.532
31.514
31.501
31.491
31.484
31.48
31.478
31.479
31.483
31.491
31.501
31.512
31.523
31.533
31.54
31.544
31.546
31.545
31.543
31.542
31.545
31.556
31.581
31.625
31.696
31.8
31.944
32.135
32.381
32.689
33.064
33.51
34.028
34.617
35.271
35.981
36.737
37.525
38.33
39.137
39.932
40.697
41.42
42.087
42.69
43.22
43.672
44.044
44.336
44.548
44.685
44.75
44.751
44.694
44.587
44.435
44.247
44.031
43.793
43.54
43.281
43.02
42.759
42.499
42.241
41.984
41.729
41.474
41.219
40.964
40.707
40.449
40.19
39.932
39.675
39.419
39.166
38.917
38.673
38.433
38.198
37.969
37.744
37.523
37.305
37.091
36.879
36.669
36.463
36.26
36.061
35.864
35.672
35.485
35.303
35.128
34.961
34.804
34.656
34.52
34.398
34.289
34.195
34.118
34.058
34.016
33.992
33.987
34.0
34.03
34.077
34.139
34.216
34.306
34.404
34.504
34.603
34.699
34.794
34.889
34.984
35.08
35.177
35.274
35.371
35.467
35.559
35.646
35.728
35.801
35.864
35.914
35.95
35.971
35.975
35.963
35.934
35.889
35.829
35.756
35.67
35.574
35.469
35.359
35.244
35.128
35.012
34.895
34.778
34.662
34.546
34.43
34.314
34.198
34.083
33.969
33.858
33.749
33.643
33.538
33.435
33.333
33.233
33.136
33.042
32.954
32.875
32.802
32.737
32.675
32.615
32.555
32.494
32.429
32.362
32.292
32.22
32.146
32.071
31.996
31.921
31.848
31.776
31.708
31.644
31.585
31.532
31.486
31.448
31.416
31.39
31.371
31.356
31.346
31.338
31.332
31.327
31.323
31.32
31.319
31.318
31.319
31.322
31.326
31.333
31.341
31.35
31.36
31.37
31.38
31.391
31.403
31.414
31.425
31.435
31.443
31.449
31.453
31.453
31.45
31.444
31.437
31.431
31.429
31.432
31.443
31.464
31.501
31.557
31.638
31.75
31.902
32.101
32.354
32.67
33.053
33.508
34.035
34.634
35.3
36.023
36.793
37.597
38.42
39.247
40.06
40.845
41.587
42.272
42.889
43.431
43.892
44.27
44.565
44.778
44.915
44.979
44.978
44.918
44.807
44.653
44.461
44.241
43.999
43.741
43.472
43.195
42.915
42.634
42.354
42.077
41.805
41.538
41.276
41.017
40.762
40.51
40.26
40.014
39.771
39.53
39.292
39.057
38.826
38.598
38.374
38.154
37.937
37.722
37.51
37.3
37.09
36.88
36.67
36.461
36.254
36.05
35.849
35.654
35.464
35.283
35.111
34.949
34.8
34.662
34.539
34.429
34.335
34.257
34.196
34.15
34.122
34.109
34.113
34.133
34.169
34.22
34.287
34.368
34.461
34.565
34.678
34.795
34.916
35.038
35.16
35.28
35.397
35.509
35.614
35.709
35.792
35.862
35.918
35.96
35.987
36.001
36.0
35.986
35.959
35.921
35.873
35.814
35.746
35.67
35.588
35.502
35.41
35.315
35.217
35.115
35.011
34.905
34.797
34.688
34.579
34.469
34.36
34.25
34.14
34.03
33.92
33.81
33.702
33.594
33.489
33.385
33.284
33.185
33.087
32.992
32.898
32.806
32.716
32.628
32.542
32.457
32.373
32.292
32.215
32.14
32.068
31.998
31.93
31.865
31.803
31.744
31.689
31.638
31.591
31.548
31.51
31.475
31.444
31.416
31.389
31.363
31.339
31.317
31.297
31.28
31.267
31.257
31.252
31.25
31.25
31.252
31.255
31.258
31.262
31.268
31.274
31.282
31.292
31.304
31.318
31.334
31.353
31.372
31.392
31.414
31.436
31.459
31.483
31.506
31.529
31.549
31.567
31.581
31.593
31.6
31.603
31.603
31.599
31.592
31.584
31.573
31.561
31.549
31.54
31.535
31.537
31.55
31.58
31.63
31.708
31.821
31.977
32.184
32.451
32.783
33.188
33.666
34.217
34.84
35.528
36.272
37.06
37.879
38.713
39.546
40.363
41.146
41.881
42.557
43.162
43.69
44.135
44.496
44.771
44.964
45.079
45.121
45.097
45.015
44.883
44.709
44.502
44.268
44.014
43.744
43.465
43.18
42.894
42.609
42.326
42.048
41.773
41.501
41.232
40.966
40.703
40.446
40.192
39.942
39.695
39.45
39.208
38.967
38.728
38.493
38.26
38.03
37.803
37.58
37.36
37.142
36.927
36.714
36.503
36.294
36.088
35.887
35.691
35.5
35.316
35.14
34.973
34.818
34.675
34.547
34.433
34.335
34.253
34.186
34.135
34.1
34.08
34.077
34.091
34.123
34.172
34.238
34.317
34.408
34.509
34.617
34.731
34.85
34.973
35.097
35.221
35.342
35.458
35.566
35.666
35.756
35.835
35.902
35.955
35.995
36.021
36.033
36.031
36.017
35.991
35.953
35.905
35.848
35.782
35.707
35.625
35.537
35.442
35.341
35.235
35.125
35.012
34.897
34.781
34.665
34.55
34.436
34.323
34.211
34.101
33.991
33.882
33.773
33.666
33.561
33.459
33.358
33.26
33.163
33.069
32.977
32.887
32.798
32.71
32.624
32.54
32.458
32.378
32.3
32.224
32.151
32.08
32.012
31.946
31.883
31.822
31.764
31.709
31.656
31.605
31.557
31.511
31.467
31.426
31.389
31.354
31.321
31.29
31.262
31.236
31.214
31.194
31.178
31.164
31.153
31.145
31.139
31.137
31.137
31.138
31.14
31.144
31.147
31.151
31.156
31.162
31.168
31.176
31.186
31.197
31.21
31.224
31.239
31.257
31.277
31.301
31.327
31.354
31.382
31.411
31.439
31.465
31.49
31.511
31.53
31.547
31.563
31.576
31.588
31.599
31.609
31.617
31.624
31.627
31.628
31.626
31.621
31.613
31.604
31.593
31.582
31.57
31.56
31.55
31.545
31.547
31.559
31.587
31.637
31.715
31.828
31.986
32.194
32.463
32.798
33.205
33.689
34.249
34.886
35.591
36.356
37.169
38.013
38.873
39.732
40.573
41.379
42.136
42.83
43.451
43.99
44.443
44.806
45.081
45.27
45.378
45.409
45.373
45.276
45.128
44.935
44.708
44.452
44.176
43.883
43.582
43.275
42.968
42.662
42.359
42.063
41.772
41.487
41.207
40.932
40.66
40.391
40.125
39.861
39.599
39.34
39.085
38.835
38.588
38.345
38.106
37.869
37.636
37.404
37.175
36.948
36.722
36.499
36.278
36.059
35.845
35.635
35.432
35.236
35.049
34.872
34.706
34.554
34.417
34.296
34.193
34.107
34.039
33.989
33.957
33.944
33.948
33.968
34.003
34.054
34.12
34.2
34.295
34.403
34.523
34.653
34.791
34.935
35.082
35.228
35.371
35.509
35.638
35.759
35.868
35.965
36.048
36.117
36.172
36.211
36.236
36.247
36.245
36.23
36.203
36.167
36.12
36.065
36.001
35.929
35.85
35.763
35.669
35.568
35.462
35.352
35.238
35.122
35.003
34.882
34.76
34.638
34.515
34.393
34.272
34.151
34.031
33.913
33.798
33.685
33.575
33.467
33.363
33.261
33.161
33.065
32.971
32.881
32.794
32.71
32.63
32.552
32.477
32.404
32.331
32.257
32.184
32.111
32.038
31.967
31.899
31.835
31.776
31.722
31.674
31.63
31.591
31.554
31.522
31.494
31.471
31.451
31.435
31.423
31.413
31.405
31.4
31.395
31.392
31.391
31.39
31.391
31.394
31.4
31.407
31.415
31.424
31.434
31.445
31.457
31.47
31.485
31.501
31.518
31.535
31.553
31.57
31.586
31.6
31.612
31.623
31.632
31.64
31.646
31.651
31.654
31.656
31.656
31.655
31.654
31.654
31.657
31.666
31.684
31.715
31.761
31.83
31.926
32.057
32.232
32.457
32.742
33.092
33.512
34.005
34.57
35.2
35.889
36.627
37.4
38.195
38.997
39.791
40.561
41.293
41.974
42.593
43.142
43.614
44.007
44.32
44.554
44.711
44.796
44.812
44.767
44.667
44.52
44.332
44.113
43.868
43.604
43.325
43.036
42.74
42.44
42.139
41.837
41.538
41.242
40.949
40.66
40.375
40.094
39.816
39.541
39.269
39.0
38.733
38.468
38.205
37.945
37.686
37.429
37.174
36.921
36.669
36.42
36.172
35.928
35.688
35.455
35.23
35.014
34.808
34.613
34.428
34.256
34.096
33.949
33.817
33.701
33.602
33.522
33.461
33.419
33.397
33.394
33.409
33.441
33.491
33.557
33.64
33.739
33.852
33.978
34.115
34.26
34.411
34.568
34.726
34.885
35.043
35.197
35.343
35.48
35.604
35.713
35.808
35.887
35.952
36.002
36.037
36.058
36.064
36.057
36.037
36.004
35.958
35.9
35.831
35.753
35.667
35.574
35.474
35.368
35.257
35.143
35.028
34.91
34.793
34.676
34.559
34.442
34.326
34.212
34.099
33.989
33.881
33.776
33.671
33.567
33.463
33.36
33.257
33.155
33.053
32.952
32.852
32.755
32.661
32.57
32.483
32.399
32.32
32.245
32.173
32.105
32.037
31.971
31.907
31.844
31.783
31.724
31.668
31.615
31.565
31.52
31.479
31.442
31.41
31.384
31.363
31.348
31.339
31.334
31.332
31.331
31.332
31.334
31.336
31.338
31.34
31.342
31.344
31.346
31.348
31.349
31.348
31.346
31.341
31.334
31.324
31.312
31.299
31.286
31.273
31.264
31.257
31.257
31.264
31.283
31.318
31.373
31.455
31.568
31.719
31.916
32.165
32.472
32.845
33.288
33.802
34.387
35.039
35.753
36.518
37.321
38.15
38.989
39.821
40.631
41.402
42.121
42.776
43.359
43.862
44.282
44.617
44.866
45.034
45.123
45.141
45.093
44.987
44.832
44.636
44.406
44.152
43.878
43.592
43.297
42.997
42.696
42.395
42.096
41.801
41.511
41.224
40.942
40.663
40.386
40.11
39.836
39.565
39.294
39.026
38.759
38.494
38.231
37.97
37.712
37.457
37.206
36.958
36.715
36.477
36.242
36.012
35.786
35.563
35.343
35.128
34.918
34.714
34.517
34.328
34.149
33.981
33.825
33.683
33.557
33.448
33.359
33.29
33.243
33.218
33.214
33.231
33.268
33.323
33.396
33.485
33.59
33.71
33.843
33.986
34.137
34.293
34.452
34.613
34.771
34.927
35.077
35.219
35.352
35.472
35.578
35.669
35.744
35.802
35.843
35.868
35.877
35.871
35.851
35.819
35.775
35.721
35.658
35.588
35.51
35.427
35.339
35.245
35.146
35.042
34.934
34.824
34.71
34.595
34.479
34.362
34.244
34.128
34.013
33.9
33.788
33.678
33.569
33.461
33.355
33.249
33.144
33.04
32.937
32.837
32.738
32.643
32.549
32.457
32.367
32.279
32.192
32.107
32.021
31.934
31.845
31.756
31.669
31.585
31.506
31.433
31.368
31.312
31.264
31.225
31.194
31.17
31.154
31.143
31.137
31.135
31.136
31.137
31.139
31.139
31.139
31.136
31.131
31.125
31.117
31.109
31.103
31.098
31.096
31.096
31.099
31.104
31.112
31.121
31.132
31.143
31.155
31.167
31.18
31.193
31.206
31.219
31.233
31.246
31.258
31.27
31.281
31.291
31.302
31.313
31.324
31.335
31.347
31.361
31.377
31.398
31.428
31.471
31.533
31.619
31.739
31.9
32.111
32.379
32.711
33.113
33.589
34.141
34.767
35.463
36.223
37.033
37.881
38.75
39.624
40.485
41.318
42.107
42.837
43.497
44.078
44.575
44.983
45.303
45.534
45.681
45.75
45.745
45.677
45.552
45.379
45.166
44.922
44.655
44.37
44.074
43.771
43.465
43.16
42.856
42.556
42.26
41.968
41.68
41.395
41.114
40.834
40.557
40.282
40.009
39.739
39.471
39.206
38.945
38.686
38.431
38.179
37.931
37.685
37.443
37.205
36.971
36.74
36.512
36.289
36.07
35.855
35.644
35.438
35.239
35.046
34.863
34.69
34.528
34.378
34.242
34.122
34.018
33.931
33.863
33.813
33.781
33.769
33.776
33.8
33.841
33.898
33.971
34.059
34.161
34.275
34.399
34.531
34.667
34.807
34.949
35.089
35.226
35.358
35.485
35.603
35.712
35.81
35.897
35.971
36.031
36.077
36.108
36.123
36.122
36.106
36.074
36.027
35.968
35.898
35.819
35.733
35.64
35.542
35.44
35.334
35.226
35.117
35.007
34.895
34.783
34.67
34.558
34.447
34.336
34.225
34.113
34.002
33.89
33.778
33.665
33.551
33.437
33.322
33.208
33.095
32.984
32.877
32.774
32.673
32.577
32.483
32.392
32.305
32.22
32.138
32.059
31.984
31.911
31.843
31.779
31.719
31.663
31.611
31.562
31.516
31.475
31.437
31.402
31.37
31.34
31.313
31.287
31.263
31.241
31.22
31.2
31.181
31.164
31.149
31.136
31.126
31.119
31.116
31.115
31.118
31.123
31.131
31.141
31.153
31.167
31.182
31.2
31.219
31.242
31.267
31.294
31.324
31.356
31.387
31.418
31.447
31.474
31.497
31.517
31.533
31.544
31.552
31.554
31.552
31.546
31.537
31.527
31.516
31.508
31.505
31.511
31.53
31.566
31.624
31.711
31.832
31.995
32.208
32.48
32.819
33.231
33.721
34.287
34.929
35.638
36.408
37.226
38.078
38.948
39.82
40.676
41.498
42.273
42.985
43.624
44.183
44.656
45.041
45.336
45.546
45.674
45.726
45.709
45.63
45.498
45.321
45.106
44.861
44.593
44.309
44.015
43.715
43.413
43.112
42.811
42.513
42.218
41.927
41.64
41.356
41.076
40.8
40.526
40.256
39.988
39.724
39.461
39.2
38.94
38.68
38.421
38.163
37.908
37.657
37.41
37.167
36.928
36.694
36.463
36.237
36.015
35.799
35.589
35.387
35.193
35.009
34.836
34.675
34.528
34.395
34.276
34.173
34.085
34.013
33.959
33.923
33.905
33.904
33.92
33.954
34.005
34.071
34.152
34.247
34.352
34.468
34.592
34.722
34.857
34.994
35.132
35.269
35.403
35.533
35.657
35.772
35.876
35.968
36.045
36.108
36.154
36.186
36.204
36.209
36.199
36.176
36.14
36.09
36.029
35.956
35.873
35.783
35.686
35.584
35.478
35.37
35.259
35.145
35.031
34.915
34.801
34.688
34.579
34.472
34.368
34.266
34.165
34.064
33.963
33.863
33.762
33.661
33.559
33.455
33.351
33.246
33.141
33.035
32.929
32.824
32.72
32.62
32.524
32.432
32.344
32.262
32.183
32.109
32.038
31.969
31.903
31.839
31.778
31.72
31.665
31.615
31.57
31.531
31.495
31.464
31.436
31.411
31.388
31.365
31.343
31.322
31.301
31.281
31.262
31.245
31.228
31.213
31.199
31.186
31.174
31.164
31.157
31.154
31.154
31.157
31.163
31.17
31.179
31.189
31.201
31.213
31.226
31.24
31.256
31.275
31.297
31.321
31.348
31.375
31.402
31.429
31.455
31.48
31.504
31.527
31.549
31.571
31.592
31.612
31.631
31.649
31.666
31.682
31.696
31.709
31.72
31.729
31.734
31.736
31.733
31.727
31.716
31.701
31.684
31.664
31.643
31.622
31.602
31.585
31.572
31.565
31.568
31.586
31.623
31.686
31.782
31.918
32.104
32.349
32.66
33.045
33.509
34.056
34.684
35.388
36.161
36.991
37.865
38.765
39.676
40.579
41.456
42.29
43.066
43.771
44.394
44.928
45.37
45.716
45.97
46.134
46.213
46.216
46.149
46.023
45.846
45.626
45.373
45.093
44.794
44.483
44.163
43.837
43.509
43.182
42.856
42.535
42.219
41.909
41.603
41.302
41.004
40.71
40.419
40.131
39.848
39.568
39.292
39.02
38.752
38.488
38.229
37.975
37.728
37.487
37.252
37.022
36.796
36.571
36.35
36.13
35.914
35.702
35.497
35.299
35.109
34.93
34.762
34.605
34.462
34.333
34.222
34.128
34.053
33.996
33.958
33.938
33.936
33.951
33.982
34.03
34.094
34.173
34.266
34.371
34.487
34.611
34.741
34.878
35.018
35.159
35.301
35.441
35.577
35.706
35.827
35.938
36.037
36.123
36.195
36.253
36.295
36.323
36.336
36.334
36.318
36.285
36.239
36.178
36.105
36.022
35.93
35.831
35.727
35.618
35.505
35.389
35.27
35.149
35.027
34.904
34.781
34.659
34.538
34.418
34.299
34.181
34.065
33.95
33.836
33.725
33.616
33.509
33.404
33.3
33.197
33.095
32.994
32.895
32.797
32.702
32.61
32.523
32.442
32.365
32.293
32.225
32.16
32.095
32.024
31.948
31.866
31.782
31.698
31.617
31.541
31.473
31.413
31.363
31.323
31.292
31.271
31.258
31.251
31.247
31.246
31.245
31.243
31.239
31.234
31.229
31.223
31.218
31.215
31.213
31.214
31.216
31.22
31.224
31.228
31.233
31.238
31.245
31.253
31.264
31.277
31.292
31.309
31.328
31.349
31.371
31.394
31.418
31.444
31.47
31.497
31.524
31.55
31.575
31.597
31.615
31.63
31.64
31.647
31.649
31.648
31.643
31.637
31.631
31.625
31.62
31.617
31.617
31.621
31.63
31.647
31.677
31.725
31.796
31.897
32.035
32.22
32.46
32.763
33.134
33.578
34.098
34.692
35.357
36.084
36.864
37.682
38.525
39.377
40.22
41.039
41.817
42.54
43.197
43.78
44.282
44.698
45.029
45.273
45.434
45.516
45.527
45.473
45.362
45.204
45.005
44.773
44.515
44.238
43.949
43.65
43.346
43.037
42.726
42.415
42.105
41.797
41.491
41.187
40.886
40.587
40.291
39.997
39.707
39.42
39.136
38.854
38.575
38.3
38.027
37.757
37.49
37.226
36.965
36.708
36.455
36.206
35.963
35.724
35.492
35.265
35.047
34.837
34.638
34.452
34.279
34.122
33.982
33.859
33.755
33.668
33.599
33.548
33.514
33.497
33.498
33.517
33.554
33.609
33.681
33.77
33.876
33.996
34.13
34.277
34.433
34.596
34.765
34.937
35.108
35.276
35.438
35.592
35.735
35.865
35.98
36.078
36.159
36.222
36.267
36.297
36.311
36.311
36.298
36.273
36.237
36.19
36.134
36.069
35.995
35.915
35.827
35.733
35.632
35.527
35.418
35.305
35.192
35.077
34.961
34.846
34.73
34.614
34.498
34.381
34.265
34.149
34.034
33.921
33.808
33.697
33.587
33.478
33.37
33.262
33.155
33.05
32.946
32.845
32.747
32.651
32.559
32.469
32.382
32.297
32.215
32.137
32.064
31.996
31.939
31.893
31.857
31.829
31.806
31.786
31.766
31.744
31.72
31.692
31.661
31.627
31.592
31.558
31.525
31.494
31.466
31.44
31.417
31.397
31.38
31.364
31.35
31.34
31.334
31.331
31.332
31.337
31.346
31.357
31.371
31.387
31.405
31.423
31.443
31.462
31.481
31.499
31.516
31.531
31.543
31.552
31.557
31.558
31.557
31.554
31.55
31.547
31.547
31.552
31.565
31.588
31.623
31.677
31.753
31.858
31.998
32.183
32.421
32.718
33.081
33.515
34.021
34.599
35.247
35.956
36.719
37.52
38.348
39.184
40.015
40.823
41.595
42.316
42.976
43.565
44.076
44.506
44.851
45.112
45.291
45.392
45.42
45.384
45.289
45.145
44.958
44.736
44.486
44.214
43.926
43.627
43.32
43.011
42.7
42.39
42.082
41.777
41.475
41.177
40.88
40.587
40.297
40.01
39.726
39.444
39.164
38.887
38.612
38.341
38.072
37.807
37.544
37.284
37.027
36.774
36.525
36.281
36.042
35.808
35.58
35.358
35.144
34.937
34.742
34.557
34.385
34.227
34.083
33.957
33.847
33.756
33.684
33.631
33.597
