Trial 3:3back
36.114
36.088
36.054
36.013
35.967
35.917
35.865
35.812
35.76
35.709
35.66
35.612
35.565
35.519
35.474
35.429
35.384
35.34
35.296
35.253
35.209
35.164
35.119
35.072
35.024
34.975
34.927
34.879
34.832
34.785
34.741
34.7
34.661
34.627
34.596
34.568
34.544
34.522
34.503
34.485
34.468
34.452
34.435
34.416
34.397
34.378
34.358
34.338
34.319
34.3
34.283
34.267
34.253
34.239
34.226
34.214
34.203
34.192
34.182
34.174
34.167
34.162
34.158
34.156
34.153
34.149
34.145
34.142
34.14
34.142
34.15
34.166
34.196
34.24
34.301
34.381
34.48
34.599
34.737
34.891
35.062
35.245
35.439
35.64
35.845
36.05
36.253
36.45
36.637
36.812
36.973
37.116
37.242
37.348
37.435
37.503
37.554
37.589
37.609
37.617
37.614
37.602
37.581
37.553
37.518
37.477
37.432
37.383
37.33
37.275
37.219
37.163
37.107
37.051
36.994
36.936
36.876
36.813
36.747
36.678
36.607
36.535
36.464
36.394
36.328
36.267
36.211
36.16
36.114
36.075
36.042
36.014
35.992
35.975
35.963
35.955
35.952
35.951
35.953
35.957
35.963
35.969
35.976
35.984
35.993
36.003
36.015
36.029
36.044
36.061
36.078
36.096
36.113
36.13
36.144
36.157
36.166
36.171
36.173
36.17
36.164
36.152
36.135
36.112
36.082
36.046
36.002
35.953
35.899
35.841
35.781
35.72
35.661
35.604
35.549
35.496
35.446
35.399
35.352
35.308
35.265
35.224
35.183
35.143
35.103
35.062
35.021
34.979
34.935
34.89
34.845
34.8
34.754
34.709
34.665
34.623
34.584
34.548
34.517
34.49
34.47
34.454
34.444
34.438
34.435
34.434
34.433
34.432
34.429
34.422
34.413
34.401
34.386
34.369
34.35
34.331
34.313
34.294
34.277
34.26
34.244
34.23
34.218
34.208
34.201
34.197
34.195
34.196
34.199
34.206
34.216
34.231
34.252
34.28
34.311
34.343
34.378
34.419
34.471
34.537
34.623
34.73
34.862
35.019
35.198
35.398
35.616
35.846
36.083
36.322
36.557
36.784
36.998
37.195
37.373
37.527
37.657
37.762
37.841
37.894
37.925
37.935
37.928
37.906
37.874
37.832
37.785
37.732
37.675
37.615
37.553
37.49
37.426
37.362
37.3
37.239
37.18
37.122
37.065
37.008
36.95
36.89
36.828
36.766
36.702
36.637
36.573
36.51
36.45
36.393
36.34
36.292
36.25
36.213
36.182
36.157
36.138
36.126
36.119
36.118
36.122
36.13
36.142
36.155
36.168
36.181
36.192
36.2
36.207
36.211
36.215
36.219
36.224
36.23
36.238
36.248
36.26
36.271
36.282
36.292
36.3
36.305
36.306
36.302
36.292
36.277
36.255
36.227
36.191
36.148
36.099
36.043
35.982
35.917
35.849
35.78
35.711
35.644
35.579
35.518
35.46
35.406
35.355
35.307
35.261
35.217
35.173
35.129
35.085
35.04
34.993
34.945
34.895
34.844
34.792
34.741
34.69
34.641
34.593
34.547
34.503
34.463
34.427
34.395
34.367
34.343
34.324
34.308
34.295
34.283
34.271
34.26
34.248
34.234
34.217
34.198
34.173
34.137
34.09
34.034
33.974
33.914
33.858
33.811
33.775
33.752
33.743
33.746
33.762
33.789
33.826
33.871
33.922
33.98
34.043
34.112
34.185
34.265
34.35
34.444
34.545
34.656
34.777
34.908
35.049
35.2
35.361
35.531
35.709
35.893
36.08
36.267
36.452
36.632
36.805
36.967
37.117
37.253
37.372
37.474
37.556
37.619
37.661
37.684
37.686
37.67
37.637
37.591
37.533
37.468
37.397
37.323
37.248
37.173
37.1
37.03
36.962
36.897
36.835
36.776
36.72
36.665
36.611
36.558
36.505
36.45
36.393
36.333
36.27
36.204
36.136
36.068
36.001
35.938
35.88
35.829
35.786
35.752
35.727
35.71
35.701
35.7
35.706
35.717
35.733
35.753
35.777
35.803
35.829
35.854
35.878
35.899
35.915
35.928
35.937
35.942
35.945
35.947
35.948
35.948
35.947
35.945
35.942
35.937
35.929
35.918
35.903
35.885
35.862
35.835
35.804
35.768
35.726
35.678
35.626
35.569
35.509
35.446
35.381
35.316
35.25
35.184
35.117
35.05
34.984
34.92
34.859
34.803
34.752
34.708
34.671
34.638
34.61
34.585
34.561
34.538
34.513
34.487
34.459
34.429
34.398
34.365
34.333
34.3
34.269
34.238
34.209
34.182
34.158
34.137
34.119
34.105
34.093
34.083
34.075
34.067
34.06
34.052
34.043
34.033
34.02
34.005
33.987
33.968
33.948
33.928
33.908
33.889
33.872
33.859
33.851
33.85
33.856
33.872
33.899
33.936
33.984
34.045
34.119
34.205
34.304
34.416
34.542
34.681
34.832
34.994
35.167
35.348
35.536
35.727
35.92
36.111
36.299
36.481
36.655
36.819
36.971
37.109
37.232
37.339
37.428
37.498
37.55
37.583
37.599
37.599
37.583
37.553
37.509
37.456
37.393
37.325
37.253
37.179
37.105
37.031
36.96
36.891
36.825
36.763
36.703
36.646
36.589
36.533
36.476
36.419
36.361
36.302
36.242
36.182
36.122
36.064
36.008
35.954
35.904
35.859
35.819
35.785
35.759
35.74
35.73
35.728
35.735
35.75
35.772
35.799
35.83
35.864
35.9
35.935
35.969
36.001
36.03
36.056
36.079
36.098
36.115
36.128
36.137
36.141
36.14
36.134
36.124
36.111
36.095
36.077
36.057
36.036
36.014
35.989
35.962
35.931
35.896
35.858
35.815
35.767
35.715
35.659
35.599
35.537
35.473
35.408
35.343
35.279
35.217
35.157
35.099
35.045
34.995
34.95
34.91
34.875
34.845
34.818
34.795
34.775
34.755
34.736
34.714
34.691
34.665
34.637
34.605
34.571
34.534
34.498
34.462
34.427
34.395
34.366
34.341
34.319
34.302
34.288
34.278
34.27
34.264
34.258
34.252
34.246
34.238
34.229
34.218
34.206
34.193
34.179
34.166
34.155
34.146
34.143
34.146
34.158
34.181
34.219
34.272
34.345
34.436
34.548
34.679
34.827
34.99
35.166
35.353
35.547
35.745
35.945
36.144
36.34
36.529
36.71
36.88
37.037
37.179
37.307
37.418
37.512
37.592
37.656
37.706
37.742
37.765
37.777
37.778
37.769
37.75
37.723
37.687
37.644
37.592
37.534
37.47
37.401
37.33
37.257
37.183
37.109
37.035
36.962
36.89
36.819
36.75
36.684
36.621
36.563
36.508
36.457
36.41
36.366
36.324
36.284
36.246
36.21
36.177
36.146
36.119
36.095
36.075
36.059
36.046
36.037
36.032
36.032
36.036
36.045
36.057
36.073
36.091
36.112
36.135
36.159
36.185
36.211
36.235
36.257
36.275
36.288
36.296
36.297
36.291
36.278
36.259
36.235
36.206
36.174
36.14
36.104
36.068
36.031
35.994
35.956
35.917
35.876
35.834
35.792
35.749
35.705
35.66
35.612
35.562
35.508
35.451
35.39
35.325
35.259
35.191
35.125
35.061
35.001
34.946
34.896
34.851
34.811
34.774
34.741
34.711
34.685
34.662
34.642
34.625
34.61
34.598
34.586
34.574
34.56
34.544
34.525
34.503
34.477
34.449
34.419
34.388
34.357
34.329
34.303
34.281
34.263
34.25
34.241
34.235
34.233
34.232
34.232
34.233
34.234
34.234
34.234
34.235
34.239
34.246
34.26
34.281
34.313
34.357
34.416
34.491
34.583
34.692
34.82
34.966
35.128
35.306
35.497
35.698
35.906
36.118
36.329
36.536
36.735
36.925
37.101
37.261
37.403
37.525
37.628
37.711
37.775
37.821
37.851
37.867
37.87
37.863
37.847
37.824
37.795
37.762
37.726
37.688
37.648
37.606
37.563
37.517
37.469
37.418
37.363
37.304
37.241
37.175
37.108
37.04
36.973
36.906
36.84
36.777
36.716
36.659
36.606
36.558
36.516
36.479
36.448
36.423
36.404
36.389
36.378
36.371
36.365
36.362
36.36
36.36
36.36
36.36
36.359
36.357
36.355
36.351
36.347
36.342
36.338
36.333
36.329
36.326
36.324
36.324
36.326
36.329
36.332
36.335
36.335
36.332
36.325
36.311
36.291
36.266
36.233
36.195
36.152
36.104
36.051
35.994
35.934
35.872
35.807
35.742
35.678
35.615
35.554
35.496
35.443
35.393
35.346
35.301
35.259
35.218
35.178
35.139
35.099
35.058
35.015
34.97
34.923
34.875
34.826
34.778
34.731
34.685
34.643
34.604
34.569
34.538
34.513
34.492
34.476
34.463
34.454
34.448
34.444
34.441
34.438
34.434
34.429
34.421
34.41
34.396
34.378
34.357
34.334
34.31
34.286
34.264
34.245
34.228
34.215
34.205
34.198
34.193
34.19
34.187
34.184
34.182
34.179
34.177
34.175
34.175
34.178
34.186
34.202
34.228
34.267
34.322
34.392
34.481
34.588
34.715
34.859
35.02
35.196
35.386
35.586
35.793
36.004
36.213
36.416
36.608
36.788
36.954
37.103
37.235
37.349
37.447
37.527
37.592
37.641
37.675
37.695
37.703
37.699
37.684
37.661
37.631
37.597
37.558
37.518
37.477
37.434
37.39
37.345
37.298
37.249
37.197
37.142
37.086
37.027
36.968
36.908
36.847
36.787
36.727
36.667
36.608
36.55
36.495
36.443
36.394
36.351
36.313
36.282
36.257
36.238
36.222
36.21
36.199
36.188
36.176
36.163
36.149
36.135
36.12
36.107
36.095
36.085
36.077
36.071
36.067
36.063
36.06
36.058
36.055
36.054
36.053
36.053
36.053
36.052
36.05
36.046
36.037
36.024
36.003
35.976
35.94
35.898
35.849
35.796
35.738
35.679
35.619
35.559
35.5
35.443
35.387
35.334
35.283
35.235
35.19
35.146
35.105
35.066
35.028
34.991
34.953
34.914
34.872
34.828
34.78
34.73
34.677
34.624
34.57
34.518
34.469
34.424
34.384
34.349
34.318
34.291
34.268
34.247
34.23
34.214
34.2
34.187
34.175
34.163
34.151
34.139
34.126
34.113
34.098
34.083
34.068
34.053
34.039
34.025
34.012
34.0
33.989
33.978
33.969
33.96
33.953
33.946
33.939
33.932
33.925
33.915
33.903
33.888
33.869
33.847
33.823
33.798
33.775
33.757
33.745
33.744
33.756
33.786
33.834
33.901
33.988
34.093
34.217
34.357
34.512
34.68
34.859
35.047
35.241
35.438
35.635
35.829
36.016
36.194
36.362
36.517
36.659
36.787
36.901
37.001
37.087
37.159
37.218
37.263
37.294
37.312
37.317
37.309
37.291
37.261
37.223
37.177
37.125
37.068
37.006
36.941
36.874
36.805
36.734
36.663
36.592
36.522
36.454
36.39
36.329
36.272
36.219
36.169
36.121
36.075
36.029
35.985
35.941
35.898
35.857
35.819
35.784
35.752
35.724
35.699
35.676
35.656
35.639
35.625
35.615
35.608
35.605
35.608
35.615
35.627
35.643
35.662
35.681
35.701
35.721
35.738
35.753
35.766
35.775
35.782
35.786
35.785
35.78
35.77
35.754
35.732
35.704
35.672
35.635
35.596
35.554
35.511
35.469
35.427
35.386
35.345
35.305
35.266
35.226
35.186
35.145
35.102
35.057
35.009
34.958
34.905
34.849
34.793
34.736
34.679
34.624
34.571
34.52
34.472
34.427
34.384
34.346
34.312
34.282
34.257
34.237
34.221
34.208
34.198
34.19
34.182
34.173
34.163
34.151
34.137
34.121
34.102
34.082
34.059
34.037
34.016
33.997
33.982
33.97
33.962
33.958
33.958
33.959
33.961
33.964
33.966
33.966
33.965
33.96
33.953
33.941
33.925
33.906
33.886
33.865
33.844
33.825
33.808
33.793
33.783
33.777
33.779
33.789
33.81
33.843
33.889
33.949
34.024
34.113
34.217
34.334
34.464
34.606
34.759
34.921
35.091
35.269
35.451
35.636
35.822
36.006
36.188
36.363
36.532
36.691
36.84
36.976
37.099
37.207
37.3
37.376
37.436
37.479
37.505
37.514
37.507
37.483
37.445
37.395
37.333
37.264
37.189
37.112
37.035
36.96
36.888
36.819
36.754
36.694
36.638
36.585
36.537
36.491
36.448
36.406
36.364
36.322
36.279
36.233
36.184
36.132
36.077
36.021
35.964
35.909
35.858
35.812
35.771
35.739
35.714
35.698
35.69
35.689
35.695
35.707
35.724
35.745
35.769
35.794
35.82
35.845
35.869
35.889
35.906
35.919
35.927
35.931
35.931
35.926
35.917
35.905
35.891
35.874
35.856
35.836
35.815
35.792
35.768
35.741
35.712
35.68
35.645
35.607
35.567
35.525
35.481
35.435
35.387
35.336
35.283
35.227
35.168
35.107
35.045
34.981
34.917
34.855
34.796
34.741
34.69
34.643
34.601
34.563
34.528
34.496
34.467
34.44
34.414
34.389
34.364
34.339
34.313
34.287
34.26
34.233
34.207
34.184
34.163
34.145
34.131
34.121
34.115
34.111
34.109
34.109
34.11
34.111
34.111
34.11
34.109
34.106
34.1
34.093
34.083
34.07
34.056
34.039
34.021
34.004
33.987
33.973
33.961
33.955
33.954
33.96
33.973
33.996
34.028
34.07
34.124
34.19
34.27
34.365
34.475
34.599
34.738
34.889
35.052
35.223
35.401
35.584
35.769
35.954
36.139
36.319
36.493
36.66
36.817
36.963
37.095
37.214
37.317
37.403
37.472
37.523
37.558
37.577
37.581
37.571
37.549
37.516
37.472
37.418
37.357
37.288
37.215
37.139
37.062
36.987
36.915
36.848
36.785
36.728
36.674
36.624
36.577
36.531
36.485
36.438
36.392
36.344
36.297
36.25
36.202
36.155
36.107
36.06
36.012
35.965
35.92
35.878
35.84
35.807
35.78
35.761
35.75
35.745
35.746
35.753
35.764
35.779
35.795
35.812
35.829
35.845
35.859
35.87
35.878
35.882
35.882
35.877
35.867
35.854
35.837
35.817
35.796
35.773
35.749
35.726
35.702
35.68
35.657
35.635
35.612
35.587
35.558
35.526
35.49
35.449
35.404
35.354
35.301
35.248
35.201
35.162
35.13
35.104
35.081
35.059
35.034
35.006
34.973
34.935
34.893
34.846
34.797
34.744
34.689
34.633
34.576
34.519
34.463
34.407
34.353
34.301
34.252
34.206
34.164
34.126
34.094
34.066
34.043
34.025
34.013
34.006
34.003
34.003
34.004
34.005
34.005
34.003
34.0
33.994
33.986
33.976
33.965
33.952
33.939
33.925
33.909
33.893
33.875
33.856
33.836
33.818
33.803
33.792
33.788
33.792
33.807
33.836
33.878
33.934
34.006
34.092
34.192
34.307
34.434
34.574
34.725
34.886
35.057
35.235
35.42
35.608
35.799
35.989
36.175
36.355
36.526
36.687
36.836
36.972
37.094
37.201
37.292
37.366
37.422
37.463
37.486
37.493
37.485
37.462
37.427
37.381
37.326
37.264
37.198
37.128
37.058
36.988
36.92
36.854
36.792
36.733
36.679
36.63
36.585
36.545
36.508
36.474
36.441
36.409
36.377
36.342
36.304
36.262
36.217
36.168
36.118
36.067
36.018
35.971
35.927
35.888
35.854
35.825
35.803
35.787
35.777
35.773
35.776
35.784
35.797
35.812
35.829
35.847
35.864
35.878
35.89
35.898
35.902
35.899
35.889
35.87
35.844
35.811
35.775
35.737
35.7
35.666
35.635
35.607
35.583
35.563
35.544
35.527
35.51
35.492
35.472
35.45
35.423
35.393
35.358
35.317
35.271
35.22
35.165
35.108
35.05
34.992
34.935
34.881
34.83
34.782
34.738
34.697
34.658
34.621
34.586
34.552
34.519
34.487
34.456
34.425
34.395
34.365
34.336
34.308
34.282
34.257
34.236
34.216
34.199
34.184
34.171
34.16
34.15
34.142
34.136
34.131
34.128
34.125
34.122
34.118
34.111
34.101
34.089
34.073
34.054
34.033
34.011
33.987
33.964
33.941
33.92
33.903
33.892
33.888
33.893
33.91
33.939
33.98
34.035
34.102
34.182
34.275
34.38
34.498
34.628
34.769
34.921
35.083
35.254
35.43
35.611
35.794
35.976
36.155
36.328
36.494
36.651
36.798
36.934
37.058
37.168
37.263
37.344
37.408
37.457
37.49
37.508
37.51
37.499
37.475
37.439
37.394
37.342
37.283
37.221
37.156
37.09
37.024
36.958
36.895
36.834
36.776
36.722
36.672
36.625
36.582
36.54
36.5
36.46
36.418
36.374
36.327
36.278
36.227
36.173
36.12
36.067
36.016
35.969
35.925
35.887
35.853
35.825
35.803
35.788
35.781
35.782
35.793
35.814
35.843
35.878
35.916
35.953
35.988
36.016
36.037
36.05
36.055
36.051
36.04
36.023
36.002
35.977
35.949
35.92
35.89
35.859
35.828
35.797
35.766
35.736
35.706
35.677
35.647
35.616
35.585
35.552
35.517
35.479
35.437
35.391
35.341
35.286
35.227
35.166
35.104
35.044
34.987
34.934
34.886
34.844
34.808
34.776
34.749
34.725
34.703
34.682
34.661
34.639
34.617
34.595
34.571
34.547
34.521
34.495
34.467
34.439
34.409
34.379
34.349
34.319
34.291
34.265
34.241
34.22
34.202
34.187
34.175
34.164
34.155
34.147
34.139
34.131
34.121
34.111
34.1
34.088
34.076
34.067
34.061
34.062
34.071
34.091
34.124
34.171
34.234
34.312
34.406
34.517
34.643
34.785
34.942
35.111
35.291
35.478
35.67
35.863
36.053
36.236
36.411
36.574
36.724
36.861
36.983
37.09
37.183
37.26
37.323
37.371
37.405
37.425
37.432
37.427
37.412
37.388
37.357
37.318
37.273
37.224
37.168
37.108
37.044
36.976
36.905
36.832
36.759
36.685
36.613
36.545
36.481
36.422
36.367
36.317
36.27
36.226
36.183
36.141
36.101
36.061
36.022
35.984
35.947
35.911
35.878
35.846
35.816
35.789
35.763
35.739
35.718
35.7
35.686
35.677
35.673
35.675
35.682
35.694
35.711
35.731
35.754
35.779
35.804
35.827
35.849
35.867
35.881
35.887
35.882
35.866
35.839
35.804
35.762
35.715
35.666
35.619
35.573
35.53
35.491
35.454
35.421
35.39
35.362
35.337
35.314
35.293
35.272
35.25
35.226
35.198
35.166
35.129
35.086
35.039
34.988
34.933
34.876
34.819
34.762
34.706
34.653
34.603
34.555
34.511
34.47
34.432
34.398
34.367
34.34
34.315
34.293
34.273
34.255
34.239
34.224
34.21
34.197
34.183
34.167
34.15
34.132
34.114
34.095
34.077
34.062
34.052
34.048
34.051
34.064
34.089
34.126
34.177
34.241
34.319
34.411
34.515
34.631
34.759
34.897
35.045
35.203
35.368
35.539
35.714
35.891
36.067
36.239
36.405
36.562
36.708
36.843
36.964
37.072
37.165
37.243
37.306
37.352
37.381
37.395
37.393
37.377
37.347
37.305
37.252
37.189
37.118
37.041
36.96
36.876
36.792
36.709
36.629
36.551
36.477
36.406
36.338
36.273
36.21
36.149
36.09
36.033
35.978
35.924
35.873
35.822
35.772
35.723
35.676
35.629
35.584
35.541
35.503
35.47
35.444
35.424
35.411
35.406
35.407
35.414
35.427
35.445
35.467
35.491
35.517
35.544
35.569
35.593
35.614
35.632
35.646
35.656
35.661
35.663
35.661
35.656
35.647
35.636
35.622
35.606
35.589
35.571
35.551
35.529
35.506
35.482
35.455
35.425
35.391
35.353
35.309
35.26
35.206
35.148
35.086
35.021
34.956
34.891
34.828
34.768
34.712
34.659
34.61
34.565
34.524
34.485
34.45
34.418
34.387
34.358
34.33
34.301
34.272
34.242
34.211
34.178
34.145
34.11
34.075
34.041
34.007
33.974
33.945
33.918
33.896
33.878
33.866
33.86
33.861
33.867
33.881
33.901
33.928
33.963
34.006
34.059
34.123
34.198
34.286
34.386
34.501
34.629
34.77
34.924
35.089
35.263
35.443
35.627
35.812
35.996
36.174
36.345
36.505
36.652
36.783
36.897
36.992
37.068
37.125
37.162
37.181
37.182
37.166
37.136
37.093
37.039
36.976
36.908
36.835
36.76
36.685
36.611
36.539
36.469
36.4
36.333
36.266
36.197
36.128
36.057
35.986
35.914
35.842
35.77
35.698
35.626
35.554
35.483
35.412
35.344
35.28
35.22
35.167
35.121
35.084
35.056
35.036
35.025
35.021
35.025
35.034
35.049
35.069
35.092
35.118
35.145
35.171
35.196
35.219
35.239
35.256
35.271
35.284
35.295
35.304
35.311
35.316
35.318
35.317
35.312
35.305
35.295
35.281
35.265
35.245
35.222
35.195
35.164
35.129
35.089
35.045
34.996
34.942
34.886
34.828
34.769
34.712
34.656
34.604
34.556
34.514
34.478
34.448
34.423
34.403
34.385
34.368
34.351
34.332
34.31
34.284
34.254
34.22
34.182
34.141
34.097
34.051
34.005
33.959
33.913
33.869
33.827
33.789
33.754
33.725
33.701
33.682
33.67
33.664
33.664
33.671
33.684
33.704
33.73
33.763
33.805
33.856
33.918
33.992
34.082
34.187
34.309
34.449
34.605
34.778
34.964
35.161
35.365
35.572
35.779
35.981
36.175
36.358
36.528
36.682
36.82
36.938
37.036
37.114
37.171
37.209
37.227
37.229
37.216
37.191
37.155
37.111
37.061
37.005
36.946
36.885
36.821
36.755
36.687
36.617
36.545
36.47
36.393
36.314
36.233
36.151
36.069
35.987
35.906
35.826
35.748
35.671
35.597
35.526
35.459
35.399
35.346
35.303
35.269
35.246
35.232
35.226
35.227
35.232
35.241
35.252
35.263
35.275
35.288
35.301
35.315
35.331
35.347
35.364
35.382
35.401
35.421
35.442
35.465
35.487
35.51
35.532
35.552
35.571
35.585
35.595
35.6
35.6
35.593
35.579
35.559
35.531
35.495
35.453
35.405
35.352
35.295
35.237
35.178
35.12
35.065
35.013
34.965
34.92
34.878
34.839
34.803
34.768
34.734
34.701
34.668
34.634
34.6
34.564
