Trial 3:3back
34.767
34.762
34.754
34.742
34.728
34.713
34.696
34.678
34.661
34.644
34.629
34.615
34.603
34.592
34.582
34.573
34.565
34.557
34.55
34.543
34.535
34.527
34.518
34.509
34.499
34.49
34.48
34.47
34.46
34.45
34.441
34.432
34.423
34.415
34.408
34.401
34.394
34.389
34.383
34.378
34.373
34.366
34.358
34.348
34.335
34.32
34.303
34.286
34.267
34.248
34.229
34.212
34.195
34.18
34.168
34.158
34.15
34.144
34.14
34.137
34.135
34.134
34.133
34.13
34.125
34.118
34.108
34.096
34.082
34.067
34.052
34.04
34.032
34.029
34.034
34.048
34.072
34.108
34.156
34.218
34.293
34.381
34.483
34.596
34.721
34.855
34.997
35.144
35.294
35.444
35.592
35.737
35.876
36.008
36.131
36.245
36.348
36.44
36.52
36.588
36.643
36.684
36.713
36.73
36.736
36.731
36.716
36.693
36.662
36.625
36.583
36.537
36.487
36.435
36.381
36.328
36.275
36.225
36.178
36.136
36.099
36.066
36.038
36.014
35.994
35.977
35.963
35.95
35.938
35.926
35.914
35.9
35.885
35.869
35.851
35.832
35.81
35.785
35.758
35.729
35.699
35.668
35.639
35.611
35.585
35.562
35.542
35.525
35.511
35.499
35.491
35.486
35.485
35.487
35.493
35.503
35.516
35.53
35.547
35.564
35.581
35.597
35.611
35.621
35.628
35.631
35.629
35.623
35.614
35.601
35.586
35.568
35.549
35.527
35.505
35.483
35.462
35.442
35.424
35.408
35.393
35.379
35.365
35.352
35.338
35.323
35.307
35.288
35.268
35.245
35.219
35.192
35.163
35.134
35.105
35.077
35.051
35.027
35.006
34.988
34.973
34.959
34.947
34.936
34.926
34.916
34.907
34.897
34.886
34.874
34.862
34.848
34.834
34.819
34.804
34.79
34.777
34.764
34.754
34.744
34.736
34.727
34.719
34.711
34.703
34.696
34.689
34.681
34.673
34.664
34.655
34.645
34.635
34.626
34.617
34.609
34.602
34.596
34.592
34.589
34.586
34.583
34.579
34.574
34.569
34.564
34.558
34.552
34.545
34.537
34.528
34.518
34.506
34.494
34.48
34.466
34.451
34.437
34.423
34.41
34.399
34.388
34.379
34.371
34.364
34.36
34.357
34.356
34.356
34.356
34.357
34.357
34.357
34.356
34.353
34.348
34.341
34.332
34.32
34.306
34.29
34.274
34.259
34.244
34.23
34.217
34.207
34.198
34.191
34.186
34.182
34.18
34.178
34.176
34.173
34.169
34.162
34.153
34.141
34.127
34.111
34.094
34.076
34.058
34.042
34.027
34.014
34.005
33.998
33.995
33.995
33.999
34.007
34.02
34.038
34.062
34.095
34.136
34.187
34.249
34.322
34.406
34.501
34.605
34.719
34.842
34.971
35.107
35.246
35.387
35.527
35.666
35.8
35.927
36.046
36.155
36.252
36.337
36.408
36.466
36.509
36.538
36.553
36.555
36.545
36.526
36.5
36.467
36.432
36.396
36.358
36.321
36.286
36.252
36.218
36.186
36.153
36.12
36.087
36.054
36.021
35.987
35.953
35.918
35.884
35.85
35.818
35.789
35.764
35.743
35.726
35.711
35.695
35.678
35.658
35.636
35.613
35.587
35.559
35.53
35.501
35.471
35.441
35.412
35.386
35.363
35.343
35.327
35.316
35.31
35.31
35.315
35.325
35.34
35.359
35.38
35.403
35.428
35.451
35.473
35.492
35.507
35.518
35.524
35.523
35.518
35.509
35.496
35.481
35.465
35.449
35.433
35.418
35.403
35.391
35.38
35.37
35.362
35.354
35.346
35.337
35.326
35.314
35.299
35.282
35.264
35.243
35.221
35.199
35.175
35.15
35.125
35.098
35.072
35.044
35.018
34.993
34.972
34.953
34.937
34.921
34.906
34.89
34.873
34.855
34.837
34.819
34.8
34.783
34.765
34.749
34.734
34.721
34.709
34.698
34.689
34.682
34.677
34.673
34.67
34.667
34.663
34.659
34.654
34.649
34.643
34.635
34.628
34.62
34.612
34.606
34.602
34.6
34.603
34.611
34.625
34.645
34.672
34.705
34.744
34.787
34.833
34.884
34.938
34.997
35.059
35.125
35.193
35.264
35.338
35.414
35.492
35.57
35.648
35.724
35.799
35.871
35.938
35.999
36.053
36.097
36.133
36.159
36.175
36.182
36.181
36.173
36.158
36.137
36.112
36.084
36.054
36.023
35.991
35.96
35.928
35.898
35.869
35.841
35.815
35.789
35.765
35.74
35.714
35.686
35.655
35.622
35.585
35.546
35.505
35.462
35.419
35.375
35.332
35.29
35.25
35.214
35.182
35.156
35.134
35.115
35.1
35.088
35.077
35.069
35.06
35.053
35.047
35.042
35.041
35.043
35.048
35.058
35.072
35.09
35.111
35.136
35.164
35.193
35.222
35.251
35.276
35.298
35.315
35.327
35.332
35.331
35.324
35.311
35.292
35.268
35.239
35.206
35.173
35.14
35.11
35.083
35.06
35.041
35.026
35.015
35.004
34.994
34.982
34.969
34.952
34.933
34.911
34.885
34.856
34.824
34.792
34.76
34.728
34.699
34.674
34.651
34.633
34.617
34.604
34.594
34.585
34.575
34.566
34.557
34.549
34.543
34.537
34.534
34.531
34.528
34.526
34.524
34.521
34.516
34.511
34.503
34.493
34.483
34.471
34.459
34.446
34.434
34.421
34.409
34.399
34.39
34.384
34.381
34.381
34.382
34.386
34.39
34.395
34.4
34.401
34.4
34.396
34.389
34.38
34.37
34.359
34.347
34.336
34.325
34.315
34.307
34.301
34.296
34.292
34.288
34.284
34.277
34.269
34.259
34.248
34.236
34.223
34.21
34.197
34.184
34.171
34.158
34.145
34.134
34.125
34.119
34.116
34.116
34.117
34.121
34.127
34.134
34.14
34.145
34.146
34.144
34.138
34.127
34.114
34.098
34.08
34.062
34.045
34.027
34.011
33.996
33.983
33.973
33.966
33.962
33.96
33.961
33.963
33.965
33.968
33.97
33.971
33.97
33.968
33.965
33.96
33.952
33.942
33.93
33.916
33.902
33.887
33.874
33.862
33.852
33.845
33.84
33.838
33.837
33.839
33.842
33.847
33.851
33.857
33.862
33.867
33.872
33.876
33.879
33.88
33.881
33.881
33.88
33.879
33.878
33.876
33.873
33.869
33.863
33.856
33.847
33.839
33.83
33.822
33.815
33.809
33.805
33.802
33.8
33.797
33.794
33.79
33.785
33.778
33.771
33.764
33.756
33.748
33.739
33.73
33.72
33.711
33.705
33.704
33.709
33.722
33.746
33.783
33.833
33.899
33.98
34.078
34.199
34.346
34.514
34.701
34.899
35.103
35.308
35.509
35.702
35.882
36.049
36.201
36.336
36.456
36.56
36.648
36.72
36.779
36.823
36.854
36.873
36.881
36.879
36.868
36.85
36.825
36.793
36.757
36.716
36.672
36.626
36.578
36.528
36.479
36.43
36.382
36.337
36.293
36.253
36.217
36.184
36.156
36.131
36.11
36.092
36.075
36.059
36.043
36.028
36.012
35.995
35.976
35.955
35.932
35.907
35.88
35.852
35.825
35.8
35.776
35.754
35.734
35.716
35.699
35.683
35.669
35.658
35.648
35.64
35.635
35.632
35.63
35.63
35.633
35.637
35.643
35.651
35.661
35.671
35.682
35.693
35.701
35.707
35.71
35.709
35.706
35.701
35.694
35.687
35.68
35.673
35.666
35.66
35.654
35.649
35.643
35.637
35.628
35.617
35.602
35.584
35.564
35.541
35.517
35.49
35.463
35.435
35.408
35.382
35.357
35.334
35.313
35.293
35.275
35.258
35.241
35.224
35.207
35.189
35.17
35.15
35.128
35.104
35.08
35.055
35.031
35.009
34.988
34.97
34.955
34.942
34.934
34.931
34.931
34.935
34.942
34.951
34.959
34.965
34.97
34.971
34.969
34.964
34.954
34.941
34.925
34.907
34.888
34.869
34.849
34.83
34.812
34.796
34.78
34.765
34.752
34.741
34.731
34.723
34.715
34.71
34.705
34.702
34.7
34.697
34.692
34.684
34.672
34.657
34.639
34.62
34.601
34.581
34.563
34.546
34.532
34.52
34.513
34.509
34.509
34.513
34.518
34.525
34.533
34.539
34.543
34.545
34.544
34.539
34.532
34.522
34.509
34.494
34.478
34.461
34.444
34.428
34.415
34.405
34.398
34.394
34.394
34.397
34.403
34.41
34.417
34.422
34.425
34.423
34.418
34.409
34.396
34.381
34.364
34.346
34.328
34.311
34.297
34.284
34.275
34.269
34.266
34.264
34.265
34.268
34.272
34.277
34.28
34.282
34.282
34.281
34.279
34.277
34.274
34.272
34.269
34.266
34.264
34.264
34.267
34.272
34.282
34.298
34.321
34.353
34.396
34.45
34.516
34.593
34.683
34.785
34.898
35.022
35.155
35.294
35.438
35.585
35.73
35.872
36.007
36.132
36.246
36.347
36.434
36.505
36.561
36.601
36.626
36.637
36.637
36.626
36.606
36.578
36.544
36.504
36.461
36.415
36.368
36.319
36.27
36.222
36.174
36.127
36.084
36.044
36.008
35.978
35.953
35.933
35.918
35.907
35.899
35.892
35.884
35.873
35.858
35.838
35.813
35.784
35.749
35.712
35.674
35.636
35.601
35.57
35.544
35.523
35.507
35.497
35.491
35.488
35.489
35.491
35.495
35.499
35.503
35.505
35.507
35.506
35.504
35.5
35.495
35.489
35.485
35.481
35.479
35.479
35.48
35.483
35.487
35.492
35.496
35.5
35.504
35.508
35.51
35.511
35.51
35.508
35.504
35.498
35.491
35.481
35.469
35.455
35.439
35.421
35.401
35.379
35.354
35.328
35.301
35.273
35.245
35.218
35.193
35.168
35.145
35.123
35.102
35.081
35.06
35.036
35.011
34.986
34.96
34.937
34.915
34.896
34.881
34.869
34.862
34.859
34.86
34.863
34.868
34.873
34.878
34.883
34.886
34.887
34.885
34.88
34.872
34.861
34.847
34.83
34.81
34.788
34.765
34.742
34.72
34.7
34.683
34.669
34.658
34.651
34.647
34.647
34.65
34.654
34.66
34.665
34.668
34.669
34.667
34.661
34.651
34.637
34.62
34.602
34.582
34.562
34.543
34.526
34.512
34.501
34.493
34.489
34.489
34.493
34.5
34.508
34.516
34.523
34.529
34.532
34.533
34.531
34.525
34.516
34.506
34.494
34.484
34.475
34.467
34.46
34.453
34.447
34.442
34.437
34.433
34.428
34.423
34.418
34.413
34.407
34.402
34.397
34.392
34.388
34.384
34.382
34.38
34.377
34.375
34.371
34.366
34.36
34.353
34.347
34.342
34.336
34.33
34.324
34.318
34.311
34.304
34.297
34.289
34.281
34.274
34.266
34.258
34.249
34.24
34.231
34.221
34.211
34.2
34.189
34.178
34.167
34.156
34.147
34.138
34.131
34.125
34.123
34.123
34.128
34.137
34.151
34.172
34.199
34.231
34.27
34.315
34.369
34.431
34.503
34.585
34.678
34.784
34.901
35.03
35.168
35.314
35.467
35.624
35.783
35.94
36.092
36.237
36.371
36.491
36.594
36.681
36.749
36.799
36.833
36.85
36.852
36.84
36.817
36.785
36.745
36.7
36.652
36.602
36.55
36.498
36.447
36.398
36.351
36.308
36.268
36.233
36.202
36.176
36.155
36.137
36.123
36.111
36.101
36.092
36.083
36.074
36.065
36.055
36.045
36.033
36.021
36.008
35.994
35.981
35.969
35.956
35.943
35.928
35.912
35.893
35.871
35.848
35.824
35.8
35.777
35.757
35.739
35.725
35.714
35.706
35.702
35.7
35.7
35.702
35.705
35.709
35.714
35.719
35.724
35.728
35.732
35.735
35.737
35.739
35.74
35.74
35.74
35.739
35.739
35.738
35.737
35.735
35.732
35.726
35.717
35.705
35.689
35.67
35.648
35.624
35.599
35.573
35.547
35.522
35.499
35.475
35.453
35.432
35.412
35.394
35.377
35.36
35.344
35.327
35.308
35.289
35.268
35.246
35.223
35.2
35.178
35.156
35.136
35.117
35.1
35.084
35.07
35.056
35.043
35.031
35.019
35.008
34.997
34.986
34.976
34.966
34.957
34.948
34.94
34.932
34.923
34.914
34.905
34.894
34.883
34.871
34.859
34.847
34.836
34.825
34.815
34.806
34.798
34.792
34.786
34.782
34.777
34.773
34.769
34.765
34.761
34.757
34.753
34.749
34.744
34.74
34.736
34.731
34.726
34.721
34.716
34.712
34.708
34.705
34.701
34.698
34.695
34.693
34.691
34.69
34.688
34.685
34.681
34.677
34.671
34.663
34.653
34.641
34.627
34.61
34.592
34.572
34.552
34.533
34.516
34.503
34.494
34.489
34.489
34.492
34.499
34.508
34.518
34.529
34.539
34.547
34.554
34.557
34.557
34.554
34.549
34.541
34.53
34.519
34.506
34.494
34.482
34.471
34.463
34.456
34.449
34.441
34.431
34.421
34.409
34.398
34.386
34.375
34.365
34.356
34.349
34.343
34.338
34.333
34.33
34.328
34.325
34.323
34.321
34.319
34.317
34.313
34.309
34.303
34.298
34.293
34.289
34.286
34.286
34.288
34.292
34.299
34.31
34.327
34.349
34.38
34.418
34.465
34.522
34.589
34.666
34.754
34.853
34.961
35.08
35.207
35.343
35.484
35.63
35.776
35.92
36.059
36.191
36.313
36.423
36.52
36.601
36.667
36.716
36.75
36.77
36.778
36.774
36.762
36.743
36.718
36.69
36.659
36.626
36.59
36.552
36.512
36.472
36.431
36.391
36.351
36.313
36.277
36.245
36.217
36.193
36.175
36.16
36.15
36.144
36.141
36.139
36.138
36.136
36.132
36.125
36.115
36.101
36.083
36.061
36.035
36.007
35.978
35.947
35.916
35.885
35.855
35.825
35.796
35.768
35.741
35.716
35.694
35.675
35.658
35.645
35.636
35.63
35.628
35.629
35.632
35.637
35.644
35.652
35.661
35.671
35.682
35.692
35.702
35.71
35.717
35.723
35.728
35.732
35.734
35.735
35.734
35.732
35.728
35.721
35.713
35.702
35.689
35.675
35.661
35.646
35.63
35.614
35.598
35.582
35.567
35.552
35.537
35.521
35.504
35.485
35.464
35.44
35.415
35.387
35.359
35.329
35.299
35.27
35.241
35.215
35.193
35.174
35.16
35.15
35.143
35.139
35.136
35.134
35.132
35.13
35.127
35.123
35.117
35.109
35.099
35.086
35.072
35.055
35.037
35.018
35.0
34.983
34.968
34.955
34.945
34.939
34.936
34.935
34.936
34.938
34.941
34.944
34.947
34.948
34.949
34.949
34.947
34.944
34.939
34.934
34.929
34.922
34.915
34.906
34.897
34.886
34.875
34.863
34.851
34.839
34.828
34.819
34.81
34.803
34.798
34.794
34.791
34.789
34.786
34.783
34.78
34.777
34.773
34.769
34.764
34.757
34.749
34.739
34.728
34.716
34.705
34.694
34.685
34.677
34.67
34.663
34.657
34.652
34.647
34.641
34.636
34.63
34.624
34.618
34.609
34.6
34.589
34.577
34.565
34.554
34.545
34.54
34.537
34.537
34.54
34.544
34.55
34.557
34.564
34.571
34.575
34.577
34.576
34.571
34.562
34.55
34.536
34.521
34.507
34.494
34.482
34.472
34.463
34.456
34.451
34.448
34.446
34.447
34.452
34.459
34.469
34.483
34.502
34.527
34.559
34.599
34.647
34.704
34.77
34.845
34.929
35.022
35.123
35.232
35.348
35.47
35.595
35.723
35.85
35.975
36.094
36.205
36.306
36.395
36.469
36.529
36.575
36.607
36.625
36.631
36.625
36.611
36.587
36.558
36.523
36.485
36.444
36.403
36.362
36.322
36.284
36.249
36.218
36.189
36.163
36.139
36.118
36.099
36.081
36.065
36.049
36.034
36.019
36.006
35.992
35.979
35.966
35.952
35.936
35.919
35.901
35.881
35.86
35.838
35.815
35.791
35.765
35.738
35.711
35.684
35.657
35.632
35.61
35.59
35.575
35.565
35.56
35.56
35.565
35.576
35.59
35.607
35.626
35.645
35.662
35.677
35.688
35.695
35.697
35.696
35.691
35.685
35.678
35.671
35.665
35.66
35.657
35.656
35.657
35.66
35.663
35.667
35.67
35.671
35.67
35.665
35.655
35.641
35.624
35.603
35.579
35.553
35.525
35.495
35.464
35.434
35.404
35.377
35.353
35.33
35.309
35.289
35.27
35.252
35.233
35.215
35.197
35.18
35.163
35.148
35.134
35.122
35.111
35.101
35.093
35.085
35.077
35.07
35.063
35.056
35.049
35.042
35.034
35.026
35.018
35.011
35.003
34.995
34.988
34.98
34.973
34.965
34.956
34.946
34.934
34.921
34.907
34.893
34.88
34.869
34.86
34.853
34.848
34.846
34.847
34.85
34.856
34.863
34.87
34.878
34.884
34.888
34.89
34.889
34.886
34.88
34.871
34.858
34.843
34.826
34.808
34.79
34.773
34.757
34.744
34.734
34.728
34.726
34.726
34.728
34.73
34.732
34.732
34.73
34.726
34.719
34.711
34.7
34.688
34.675
34.661
34.647
34.634
34.621
34.61
34.601
34.594
34.589
34.587
34.588
34.591
34.596
34.601
34.607
34.613
34.619
34.624
34.628
34.63
34.631
34.631
34.629
34.626
34.622
34.615
34.608
34.599
34.59
34.58
34.569
34.56
34.551
34.542
34.533
34.525
34.517
34.509
34.501
34.492
34.484
34.476
34.468
34.461
34.454
34.449
34.444
34.44
34.437
34.436
34.438
34.443
34.453
34.466
34.482
34.504
34.53
34.563
34.603
34.65
34.705
34.769
34.843
34.926
35.018
35.118
35.224
35.338
35.457
35.581
35.708
35.837
35.967
36.096
36.221
36.34
36.452
36.555
36.646
36.724
36.787
36.834
36.865
36.88
36.882
36.872
36.852
36.823
36.788
36.749
36.708
36.666
36.625
36.587
36.552
36.52
36.492
36.468
36.447
36.429
36.413
36.4
36.387
36.375
36.362
36.349
36.335
36.322
36.308
36.295
36.282
36.27
36.257
36.245
36.233
36.221
36.208
36.193
36.176
36.156
36.133
36.108
36.082
36.055
36.028
36.002
35.977
35.954
35.934
35.917
35.902
35.889
35.879
35.873
35.87
35.87
35.872
35.878
35.885
35.895
35.905
35.916
35.927
35.938
35.948
35.955
35.961
35.965
35.966
35.966
35.963
35.959
35.953
35.946
35.937
35.926
35.915
35.903
35.889
35.873
35.856
35.836
35.814
35.789
35.763
35.735
35.708
35.68
35.654
35.629
35.605
35.584
35.566
35.55
35.538
35.528
35.521
35.514
35.507
35.498
35.487
35.473
35.456
35.435
35.412
35.386
35.359
35.331
35.303
35.276
35.25
35.228
35.209
35.195
35.185
35.179
35.177
35.177
35.179
35.18
35.179
35.176
35.171
35.162
35.151
35.139
35.124
35.11
35.095
35.08
35.065
35.052
35.039
35.029
35.02
35.014
35.009
35.005
35.002
34.998
34.993
34.987
34.979
34.97
34.959
34.949
34.938
34.928
34.92
34.912
34.907
34.903
34.9
34.898
34.896
34.894
34.892
34.889
34.884
34.877
34.869
34.861
34.852
34.844
34.836
34.83
34.824
34.817
34.809
34.8
34.791
34.78
34.769
34.758
34.747
34.737
34.729
34.722
34.718
34.716
34.716
34.718
34.722
34.727
34.732
34.737
34.742
34.745
34.745
34.742
34.735
34.725
34.711
34.695
34.676
34.657
34.637
34.618
34.601
34.585
34.572
34.563
34.557
34.554
34.554
34.557
34.561
34.566
34.57
34.571
34.571
34.568
34.564
34.559
34.552
34.544
34.536
34.527
34.518
34.51
34.502
34.495
34.488
34.482
34.477
34.472
34.467
34.464
34.461
34.46
34.46
34.461
34.462
34.465
34.468
34.471
34.476
34.483
34.494
34.509
34.529
34.556
34.589
34.631
34.681
34.739
34.806
34.883
34.969
35.066
35.171
35.286
35.408
35.538
35.672
35.809
35.946
36.081
36.212
36.337
36.452
36.556
36.648
36.727
36.791
36.84
36.876
36.897
36.906
36.904
36.892
36.872
36.845
36.813
36.777
36.739
36.699
36.659
36.619
36.58
36.543
36.51
36.48
36.454
36.432
36.415
36.401
36.39
36.383
36.379
36.376
36.374
36.372
36.37
36.366
36.36
36.35
36.337
36.32
36.298
36.273
36.245
36.215
36.183
36.151
36.12
36.089
36.061
36.036
36.014
35.996
35.98
35.965
35.953
35.942
35.932
35.922
35.912
35.902
35.893
35.884
35.878
35.873
35.871
35.871
35.875
35.88
35.887
35.896
35.905
35.916
35.926
35.936
35.945
35.953
35.959
35.962
35.964
35.962
35.958
35.95
35.939
35.925
35.907
35.887
35.864
35.84
35.814
35.787
35.76
35.732
35.705
35.678
35.65
35.624
35.598
35.573
35.549
35.526
35.505
35.486
35.468
35.452
35.435
35.418
35.401
35.383
35.366
35.349
35.334
35.32
35.308
35.296
35.285
35.274
35.262
35.25
35.238
35.225
35.211
35.197
35.183
35.169
35.155
35.141
35.128
35.116
35.106
35.098
35.094
35.092
35.092
35.095
35.099
35.103
35.106
35.107
35.105
35.099
35.09
35.071
35.041
35.0
34.952
34.9
34.848
34.801
34.76
34.729
34.708
34.699
34.701
34.713
34.734
34.762
34.795
34.83
34.866
34.899
34.928
34.952
34.97
34.981
34.984
34.982
34.973
34.959
34.941
34.921
34.899
34.878
34.857
34.838
34.821
34.807
34.796
34.787
34.78
34.774
34.769
34.766
34.763
34.761
34.759
34.758
34.757
34.756
34.754
34.753
34.751
34.75
34.749
34.747
34.744
34.741
34.736
34.73
34.722
34.712
34.7
34.687
34.674
34.661
34.65
34.639
34.631
34.623
34.617
34.612
34.608
34.605
34.604
34.602
34.601
34.598
34.595
34.591
34.586
34.581
34.576
34.571
34.568
34.565
34.565
34.566
34.567
34.57
34.572
34.573
34.574
34.573
34.57
34.565
34.558
34.548
34.535
34.52
34.506
34.496
34.494
34.5
34.515
34.539
34.571
34.609
34.654
34.706
34.764
34.828
34.897
