Trial 3:3back
32.549
32.536
32.524
32.511
32.498
32.483
32.465
32.444
32.422
32.398
32.375
32.352
32.33
32.308
32.286
32.263
32.24
32.217
32.194
32.171
32.148
32.125
32.103
32.081
32.057
32.032
32.004
31.975
31.943
31.908
31.871
31.833
31.794
31.757
31.722
31.69
31.661
31.636
31.617
31.606
31.603
31.611
31.63
31.663
31.711
31.778
31.866
31.976
32.11
32.267
32.448
32.65
32.872
33.111
33.364
33.63
33.906
34.19
34.479
34.77
35.06
35.344
35.62
35.884
36.133
36.366
36.582
36.78
36.961
37.124
37.269
37.396
37.505
37.596
37.67
37.729
37.774
37.808
37.831
37.845
37.851
37.849
37.84
37.824
37.803
37.778
37.751
37.722
37.693
37.663
37.634
37.604
37.574
37.545
37.517
37.489
37.461
37.433
37.403
37.371
37.337
37.301
37.261
37.217
37.17
37.12
37.069
37.015
36.96
36.905
36.851
36.797
36.744
36.693
36.643
36.597
36.555
36.517
36.482
36.45
36.422
36.396
36.372
36.351
36.331
36.313
36.298
36.285
36.273
36.261
36.247
36.232
36.214
36.195
36.173
36.149
36.124
36.096
36.066
36.033
35.995
35.954
35.911
35.867
35.822
35.777
35.731
35.684
35.635
35.583
35.529
35.473
35.415
35.358
35.301
35.244
35.187
35.13
35.074
35.017
34.962
34.908
34.856
34.807
34.759
34.712
34.665
34.619
34.573
34.528
34.482
34.436
34.389
34.343
34.296
34.25
34.203
34.156
34.109
34.062
34.015
33.967
33.918
33.867
33.814
33.76
33.706
33.652
33.6
33.55
33.501
33.454
33.408
33.363
33.32
33.279
33.241
33.206
33.173
33.144
33.117
33.092
33.069
33.047
33.024
32.997
32.968
32.935
32.901
32.867
32.834
32.803
32.774
32.747
32.723
32.701
32.68
32.658
32.636
32.615
32.593
32.572
32.549
32.525
32.502
32.479
32.457
32.435
32.414
32.392
32.368
32.344
32.318
32.291
32.263
32.234
32.206
32.178
32.15
32.122
32.095
32.067
32.04
32.013
31.985
31.957
31.93
31.905
31.884
31.872
31.872
31.884
31.912
31.957
32.022
32.108
32.218
32.351
32.509
32.691
32.897
33.123
33.369
33.628
33.9
34.179
34.464
34.752
35.041
35.328
35.611
35.888
36.154
36.409
36.648
36.872
37.079
37.269
37.442
37.598
37.736
37.858
37.962
38.051
38.124
38.185
38.232
38.269
38.295
38.312
38.322
38.323
38.318
38.306
38.288
38.267
38.244
38.22
38.195
38.17
38.144
38.117
38.089
38.058
38.025
37.99
37.956
37.92
37.884
37.847
37.807
37.764
37.717
37.666
37.613
37.559
37.505
37.451
37.397
37.345
37.293
37.243
37.194
37.145
37.097
37.052
37.01
36.972
36.938
36.909
36.883
36.858
36.835
36.811
36.787
36.765
36.744
36.726
36.708
36.691
36.673
36.654
36.633
36.609
36.584
36.557
36.529
36.5
36.468
36.434
36.396
36.355
36.311
36.264
36.216
36.166
36.116
36.065
36.011
35.956
35.897
35.836
35.774
35.71
35.647
35.585
35.524
35.465
35.407
35.351
35.296
35.243
35.193
35.144
35.097
35.051
35.004
34.957
34.91
34.863
34.816
34.769
34.723
34.678
34.632
34.585
34.537
34.487
34.437
34.386
34.334
34.282
34.23
34.176
34.12
34.062
34.004
33.945
33.889
33.837
33.788
33.743
33.7
33.659
33.62
33.581
33.544
33.508
33.472
33.437
33.404
33.371
33.336
33.3
33.263
33.225
33.187
33.147
33.108
33.068
33.03
32.995
32.963
32.936
32.913
32.894
32.878
32.865
32.854
32.844
32.833
32.821
32.806
32.789
32.77
32.749
32.724
32.699
32.672
32.647
32.622
32.597
32.573
32.547
32.522
32.496
32.471
32.446
32.422
32.397
32.373
32.348
32.323
32.296
32.267
32.237
32.207
32.176
32.145
32.115
32.086
32.061
32.042
32.028
32.023
32.026
32.04
32.067
32.111
32.174
32.259
32.367
32.501
32.66
32.844
33.054
33.288
33.544
33.819
34.112
34.417
34.732
35.053
35.376
35.697
36.013
36.321
36.617
36.899
37.166
37.415
37.645
37.857
38.05
38.223
38.378
38.512
38.628
38.725
38.805
38.869
38.917
38.952
38.972
38.981
38.978
38.966
38.946
38.92
38.89
38.857
38.823
38.788
38.752
38.714
38.674
38.632
38.588
38.543
38.497
38.45
38.403
38.354
38.305
38.254
38.202
38.147
38.091
38.034
37.976
37.917
37.858
37.799
37.741
37.683
37.625
37.569
37.514
37.462
37.413
37.368
37.327
37.292
37.261
37.233
37.21
37.19
37.174
37.161
37.15
37.141
37.132
37.124
37.115
37.105
37.093
37.078
37.06
37.041
37.02
36.996
36.971
36.945
36.916
36.885
36.851
36.813
36.773
36.73
36.685
36.638
36.589
36.538
36.486
36.433
36.378
36.322
36.266
36.209
36.152
36.096
36.039
35.98
35.92
35.858
35.795
35.731
35.668
35.605
35.544
35.486
35.428
35.373
35.317
35.262
35.206
35.151
35.098
35.044
34.992
34.938
34.884
34.829
34.772
34.715
34.658
34.6
34.543
34.486
34.43
34.375
34.322
34.271
34.221
34.173
34.124
34.076
34.029
33.981
33.934
33.889
33.845
33.803
33.765
33.728
33.693
33.658
33.624
33.589
33.554
33.519
33.484
33.45
33.416
33.384
33.352
33.321
33.292
33.263
33.235
33.207
33.18
33.152
33.125
33.097
33.071
33.046
33.023
33.0
32.979
32.958
32.937
32.916
32.895
32.873
32.85
32.825
32.797
32.767
32.735
32.702
32.668
32.634
32.602
32.569
32.537
32.506
32.476
32.448
32.426
32.411
32.406
32.413
32.433
32.472
32.53
32.611
32.717
32.848
33.006
33.191
33.404
33.643
33.908
34.196
34.504
34.829
35.167
35.511
35.856
36.199
36.535
36.86
37.17
37.464
37.739
37.996
38.233
38.45
38.648
38.826
38.986
39.127
39.248
39.352
39.439
39.51
39.567
39.611
39.642
39.661
39.669
39.667
39.654
39.632
39.601
39.565
39.524
39.479
39.432
39.383
39.335
39.287
39.24
39.194
39.151
39.11
39.07
39.029
38.982
38.927
38.864
38.793
38.718
38.64
38.56
38.482
38.406
38.335
38.268
38.206
38.149
38.096
38.047
38.002
37.961
37.925
37.893
37.866
37.843
37.823
37.805
37.787
37.769
37.749
37.728
37.704
37.676
37.646
37.615
37.587
37.566
37.554
37.549
37.549
37.549
37.549
37.544
37.534
37.516
37.491
37.456
37.411
37.356
37.294
37.224
37.15
37.071
36.992
36.912
36.833
36.756
36.683
36.612
36.544
36.479
36.416
36.355
36.295
36.236
36.177
36.119
36.06
36.0
35.939
35.878
35.816
35.755
35.694
35.634
35.574
35.513
35.452
35.391
35.329
35.268
35.207
35.147
35.088
35.029
34.97
34.912
34.853
34.795
34.739
34.684
34.629
34.576
34.522
34.468
34.414
34.36
34.307
34.256
34.207
34.159
34.111
34.064
34.018
33.973
33.928
33.885
33.844
33.804
33.766
33.73
33.696
33.663
33.633
33.605
33.579
33.555
33.531
33.508
33.484
33.459
33.433
33.406
33.378
33.349
33.322
33.297
33.273
33.251
33.229
33.207
33.185
33.162
33.139
33.115
33.09
33.062
33.032
33.001
32.969
32.935
32.9
32.864
32.828
32.791
32.756
32.721
32.689
32.659
32.631
32.608
32.591
32.581
32.582
32.595
32.625
32.674
32.743
32.835
32.949
33.09
33.257
33.453
33.679
33.933
34.214
34.52
34.846
35.188
35.544
35.907
36.276
36.644
37.009
37.366
37.714
38.048
38.365
38.664
38.94
39.191
39.417
39.616
39.791
39.941
40.07
40.176
40.263
40.33
40.379
40.411
40.427
40.428
40.417
40.396
40.366
40.33
40.288
40.242
40.193
40.14
40.085
40.028
39.968
39.906
39.844
39.781
39.718
39.657
39.595
39.534
39.472
39.408
39.343
39.276
39.209
39.142
39.075
39.009
38.943
38.877
38.812
38.747
38.683
38.619
38.556
38.495
38.437
38.383
38.334
38.289
38.248
38.211
38.177
38.145
38.115
38.087
38.062
38.04
38.02
38.002
37.983
37.965
37.947
37.927
37.908
37.888
37.867
37.846
37.822
37.797
37.768
37.737
37.702
37.665
37.626
37.584
37.542
37.498
37.452
37.404
37.355
37.302
37.247
37.19
37.13
37.069
37.007
36.943
36.878
36.812
36.744
36.675
36.605
36.534
36.463
36.393
36.323
36.253
36.183
36.113
36.041
35.97
35.899
35.829
35.759
35.691
35.623
35.556
35.491
35.427
35.365
35.305
35.247
35.191
35.137
35.085
35.034
34.984
34.935
34.886
34.838
34.79
34.742
34.692
34.642
34.59
34.537
34.484
34.431
34.379
34.329
34.281
34.235
34.191
34.148
34.108
34.07
34.033
33.998
33.964
33.929
33.895
33.86
33.826
33.793
33.761
33.729
33.698
33.666
33.634
33.601
33.568
33.536
33.504
33.473
33.441
33.409
33.375
33.341
33.307
33.274
33.244
33.216
33.194
33.179
33.173
33.18
33.202
33.243
33.306
33.392
33.503
33.641
33.805
33.996
34.214
34.458
34.726
35.017
35.326
35.651
35.987
36.33
36.676
37.023
37.365
37.701
38.026
38.339
38.636
38.913
39.169
39.403
39.613
39.798
39.96
40.098
40.216
40.313
40.391
40.451
40.494
40.522
40.535
40.533
40.518
40.492
40.456
40.414
40.365
40.31
40.251
40.189
40.124
40.057
39.989
39.919
39.849
39.779
39.708
39.638
39.567
39.495
39.42
39.342
39.262
39.179
39.095
39.01
38.925
38.841
38.758
38.677
38.598
38.519
38.442
38.366
38.293
38.223
38.158
38.097
38.043
37.994
37.95
37.911
37.876
37.846
37.82
37.797
37.779
37.764
37.752
37.741
37.73
37.718
37.705
37.689
37.671
37.65
37.627
37.601
37.573
37.543
37.509
37.472
37.432
37.389
37.344
37.296
37.246
37.193
37.136
37.076
37.013
36.947
36.879
36.81
36.74
36.67
36.599
36.528
36.457
36.386
36.316
36.246
36.175
36.104
36.033
35.962
35.892
35.823
35.754
35.686
35.619
35.554
35.489
35.424
35.361
35.299
35.238
35.177
35.116
35.055
34.994
34.934
34.875
34.817
34.758
34.699
34.639
34.58
34.52
34.461
34.404
34.349
34.296
34.246
34.197
34.15
34.105
34.061
34.02
33.981
33.943
33.905
33.868
33.829
33.79
33.75
33.71
33.67
33.63
33.591
33.552
33.513
33.475
33.439
33.404
33.372
33.343
33.315
33.288
33.263
33.238
33.215
33.191
33.167
33.142
33.116
33.088
33.059
33.027
32.993
32.958
32.921
32.885
32.85
32.815
32.783
32.752
32.727
32.707
32.696
32.696
32.71
32.74
32.788
32.858
32.952
33.073
33.222
33.401
33.612
33.853
34.123
34.421
34.743
35.087
35.449
35.825
36.21
36.601
36.992
37.377
37.753
38.114
38.458
38.779
39.077
39.349
39.596
39.816
40.011
40.181
40.327
40.448
40.547
40.624
40.681
40.72
40.741
40.748
40.743
40.727
40.704
40.673
40.635
40.591
40.541
40.485
40.425
40.363
40.298
40.231
40.163
40.094
40.026
39.957
39.888
39.817
39.745
39.67
39.593
39.515
39.436
39.356
39.274
39.191
39.107
39.02
38.932
38.843
38.753
38.664
38.577
38.493
38.413
38.336
38.264
38.197
38.134
38.077
38.024
37.976
37.933
37.897
37.865
37.837
37.813
37.791
37.771
37.753
37.736
37.719
37.701
37.682
37.663
37.641
37.616
37.587
37.554
37.516
37.472
37.422
37.369
37.312
37.251
37.187
37.12
37.049
36.977
36.903
36.829
36.755
36.681
36.608
36.535
36.462
36.388
36.314
36.239
36.162
36.084
36.006
35.926
35.846
35.767
35.688
35.611
35.534
35.46
35.387
35.316
35.247
35.18
35.115
35.05
34.988
34.927
34.867
34.808
34.751
34.695
34.639
34.583
34.525
34.464
34.402
34.338
34.273
34.209
34.147
34.089
34.035
33.987
33.944
33.906
33.872
33.84
33.811
33.782
33.753
33.723
33.691
33.658
33.624
33.589
33.552
33.514
33.476
33.437
33.4
33.363
33.327
33.292
33.257
33.222
33.189
33.158
33.128
33.099
33.071
33.045
33.019
32.993
32.967
32.941
32.915
32.89
32.865
32.839
32.813
32.786
32.76
32.735
32.712
32.692
32.673
32.659
32.65
32.648
32.657
32.68
32.719
32.78
32.864
32.974
33.112
33.278
33.473
33.698
33.954
34.239
34.551
34.887
35.244
35.616
35.999
36.39
36.782
37.174
37.559
37.932
38.291
38.629
38.944
39.233
39.491
39.718
39.911
40.072
40.202
40.304
40.38
40.434
40.467
40.483
40.484
40.473
40.451
40.421
40.387
40.35
40.31
40.268
40.223
40.175
40.122
40.065
40.004
39.938
39.868
39.795
39.717
39.636
39.553
39.468
39.382
39.297
39.211
39.125
39.038
38.949
38.86
38.771
38.68
38.588
38.494
38.398
38.3
38.203
38.106
38.011
37.92
37.835
37.757
37.687
37.625
37.569
37.519
37.473
37.433
37.396
37.366
37.34
37.319
37.302
37.288
37.278
37.27
37.265
37.261
37.255
37.247
37.238
37.227
37.211
37.19
37.159
37.115
37.062
37.002
36.937
36.87
36.803
36.737
36.674
36.613
36.553
36.496
36.44
36.385
36.33
36.274
36.215
36.153
36.086
36.016
35.943
35.865
35.784
35.7
35.614
35.526
35.435
35.344
35.252
35.162
35.073
34.987
34.904
34.823
34.745
34.67
34.598
34.529
34.464
34.401
34.342
34.285
34.23
34.176
34.124
34.074
34.027
33.982
33.941
33.901
33.863
33.825
33.789
33.753
33.717
33.683
33.65
33.618
33.585
33.552
33.518
33.483
33.447
33.411
33.376
33.341
33.305
33.269
33.232
33.194
33.155
33.115
33.074
33.032
32.989
32.946
32.904
32.862
32.82
32.776
32.732
32.687
32.64
32.593
32.547
32.503
32.464
32.432
32.409
32.397
32.399
32.416
32.453
32.512
32.595
32.704
32.84
33.005
33.2
33.426
33.683
33.97
34.286
34.628
34.994
35.378
35.775
36.181
36.591
36.998
37.397
37.784
38.155
38.507
38.836
39.14
39.417
39.665
39.883
40.072
40.232
40.365
40.474
40.56
40.624
40.669
40.696
40.705
40.697
40.673
40.635
40.586
40.527
40.461
40.388
40.312
40.233
40.153
40.073
39.993
39.913
39.833
39.755
39.678
39.604
39.533
39.465
39.398
39.332
39.264
39.194
39.119
39.04
38.956
38.868
38.777
38.683
38.589
38.495
38.404
38.315
38.229
38.144
38.062
37.983
37.906
37.834
37.767
37.705
37.648
37.595
37.548
37.505
37.466
37.432
37.401
37.373
37.348
37.326
37.306
37.287
37.267
37.246
37.224
37.199
37.172
37.143
37.112
37.076
37.037
36.993
36.946
36.896
36.843
36.788
36.732
36.675
36.616
36.556
36.494
36.428
36.358
36.285
36.209
36.13
36.049
35.969
35.889
35.809
35.73
35.65
35.57
35.492
35.414
35.336
35.26
35.183
35.106
35.03
34.953
34.878
34.803
34.731
34.66
34.592
34.525
34.459
34.395
34.332
34.27
34.209
34.15
34.091
34.032
33.972
33.912
33.852
33.792
33.734
33.678
33.626
33.577
33.531
33.489
33.45
33.414
33.38
33.348
33.317
33.286
33.254
33.221
33.188
33.156
33.124
33.094
33.064
33.035
33.007
32.981
32.956
32.932
32.909
32.886
32.863
32.839
32.814
32.79
32.765
32.74
32.714
32.689
32.661
32.631
32.597
32.562
32.525
32.489
32.454
32.421
32.392
32.369
32.354
32.351
32.364
32.394
32.445
32.521
32.623
32.755
32.918
33.114
33.344
33.607
33.902
34.227
34.578
34.952
35.343
35.749
36.165
36.585
37.005
37.419
37.823
38.212
38.58
38.925
39.243
39.533
39.793
40.024
40.225
40.398
40.543
40.661
40.754
40.823
40.87
40.897
40.905
40.896
40.874
40.841
40.798
40.749
40.696
40.639
40.581
40.521
40.459
40.396
40.331
40.265
40.199
40.133
40.068
40.003
39.937
39.87
39.799
39.723
39.642
39.555
39.464
39.37
39.274
39.175
39.075
38.972
38.868
38.764
38.66
38.558
38.459
38.366
38.278
38.197
38.122
38.053
37.99
37.933
37.881
37.833
37.791
37.755
37.724
37.7
37.68
37.662
37.644
37.624
37.603
37.58
37.555
37.528
37.5
37.47
37.439
37.406
37.37
37.331
37.29
37.246
37.2
37.15
37.096
37.036
36.971
36.9
36.822
36.74
36.653
36.565
36.476
36.388
36.3
36.213
36.126
36.041
35.957
35.873
35.79
35.709
35.627
35.546
35.465
35.385
35.306
35.228
35.153
35.081
35.011
34.942
34.874
34.806
34.74
34.675
34.612
34.551
34.494
34.441
34.392
34.345
34.302
34.26
34.218
34.177
34.134
34.091
34.047
34.004
33.963
33.922
33.883
33.844
33.805
33.765
33.723
33.682
33.64
33.6
33.561
33.523
33.487
33.454
33.424
33.396
33.368
33.34
33.31
33.278
33.242
33.204
33.163
33.121
33.079
33.039
33.001
32.964
32.928
32.891
32.855
32.819
32.783
32.746
32.71
32.673
32.637
32.601
32.566
32.533
32.502
32.473
32.446
32.42
32.394
32.369
32.343
32.32
32.299
32.282
32.272
32.271
32.281
32.308
32.355
32.424
32.518
32.639
32.788
32.967
33.178
33.42
33.694
34.0
34.335
34.694
35.072
35.465
35.867
36.274
36.681
37.084
37.479
37.861
38.226
38.568
38.885
39.173
39.429
39.654
39.848
40.011
40.145
40.252
40.334
40.392
40.428
40.443
40.44
40.422
40.391
40.351
40.303
40.251
40.194
40.134
40.071
40.007
39.943
39.879
39.818
39.758
39.701
39.646
39.592
39.538
39.483
39.423
39.358
39.288
39.212
39.13
39.043
38.953
38.859
38.763
38.667
38.57
38.474
38.377
38.28
38.182
38.083
37.984
37.885
37.787
37.69
37.595
37.504
37.419
37.34
37.269
37.206
37.15
37.101
37.056
37.017
36.98
36.946
36.915
36.888
36.862
36.836
36.81
36.784
36.756
36.726
36.695
36.667
36.646
36.636
36.637
36.645
36.653
36.656
36.649
36.627
36.589
36.534
36.463
36.377
36.279
36.17
36.053
35.929
35.802
35.673
35.546
35.421
35.302
35.189
35.083
34.983
34.888
34.8
34.717
34.64
34.567
34.498
34.431
34.364
34.298
34.232
34.168
34.105
34.044
33.985
33.927
33.87
33.814
33.757
33.7
33.643
33.587
33.533
33.482
33.433
33.386
33.343
33.303
33.266
33.232
33.199
33.167
33.135
33.103
33.071
33.04
33.01
32.981
32.953
32.926
32.901
32.876
32.851
32.826
32.8
32.773
32.743
32.711
32.675
32.638
32.6
32.562
32.524
32.485
32.447
32.409
32.371
32.335
32.3
32.266
32.233
32.199
32.166
32.134
32.101
32.07
32.04
32.01
31.982
31.955
31.928
31.902
31.875
31.847
31.816
31.783
31.747
31.711
31.676
31.643
31.615
31.593
31.579
31.573
31.578
31.593
31.622
31.665
31.726
31.808
31.914
32.047
32.212
32.409
32.641
32.908
33.209
33.54
33.899
34.28
34.678
35.089
35.508
35.93
36.35
36.763
37.163
37.544
37.902
38.234
38.537
38.81
39.051
39.261
39.44
39.59
39.712
39.806
39.875
39.92
39.943
39.947
39.934
39.909
39.874
39.831
39.779
39.721
39.656
39.588
39.518
39.447
39.378
39.312
39.249
39.189
39.131
39.075
39.02
38.967
38.912
38.858
38.802
38.743
38.682
38.618
38.55
38.477
38.4
38.318
38.233
38.145
38.056
37.966
37.876
37.786
37.696
37.606
37.517
37.43
37.345
37.265
37.192
37.125
37.065
37.011
36.963
36.918
36.877
36.839
36.803
36.77
36.739
36.711
36.682
36.653
36.621
36.586
36.548
36.507
36.465
36.423
36.381
36.338
36.295
36.25
36.202
36.149
36.092
36.032
35.971
35.907
35.843
35.776
35.708
35.638
35.566
35.492
35.418
35.342
35.266
35.189
35.111
35.033
34.956
34.881
34.808
34.738
34.67
34.603
34.536
34.468
34.4
34.331
34.262
34.193
34.127
34.061
33.996
33.933
33.87
33.808
33.748
33.689
33.632
33.576
33.52
33.467
33.415
33.367
33.322
33.282
33.244
33.208
33.173
33.138
33.104
33.07
33.036
33.003
32.97
32.938
32.907
32.877
32.847
32.819
32.79
32.761
32.73
32.697
32.663
32.63
32.597
32.566
32.538
32.512
32.488
32.465
32.445
32.427
32.41
32.394
32.378
32.362
32.344
32.324
32.303
32.282
32.261
32.239
32.218
32.196
32.173
32.15
32.124
32.097
32.068
32.038
32.006
31.972
31.939
31.907
31.88
31.858
31.843
31.836
31.839
31.852
31.88
31.925
31.989
32.077
32.189
32.329
32.499
32.7
32.932
33.196
33.489
33.809
34.151
34.514
34.89
35.276
35.668
36.061
36.452
36.833
37.202
37.553
37.882
38.188
38.466
38.717
38.94
39.136
39.306
39.451
39.571
39.669
39.744
39.799
39.835
39.853
39.857
39.848
39.829
39.801
39.765
39.723
39.676
39.623
39.568
39.511
39.455
39.399
39.345
39.291
39.238
39.186
39.134
39.081
39.027
38.971
38.914
38.854
38.791
38.725
38.654
38.577
38.493
38.401
38.305
38.203
38.098
37.991
37.883
37.775
37.669
37.564
37.462
37.364
37.273
37.188
37.111
37.043
36.983
36.93
36.883
36.842
36.806
36.774
36.746
36.723
36.704
36.688
36.674
36.658
36.639
36.615
36.588
36.556
36.522
36.484
36.445
36.402
36.355
36.305
36.25
36.191
36.127
36.06
