Trial 3:3back
37.441
37.332
37.221
37.11
36.999
36.891
36.786
36.686
36.593
36.507
36.427
36.355
36.29
36.234
36.186
36.147
36.115
36.092
36.076
36.066
36.059
36.055
36.053
36.053
36.053
36.054
36.054
36.055
36.054
36.052
36.047
36.039
36.03
36.018
36.005
35.989
35.971
35.951
35.929
35.905
35.879
35.852
35.822
35.792
35.759
35.725
35.687
35.646
35.601
35.553
35.503
35.451
35.397
35.341
35.286
35.229
35.171
35.111
35.051
34.989
34.926
34.862
34.797
34.731
34.664
34.595
34.524
34.452
34.38
34.308
34.236
34.166
34.096
34.028
33.961
33.894
33.826
33.758
33.689
33.62
33.549
33.478
33.406
33.334
33.263
33.192
33.121
33.052
32.984
32.917
32.853
32.791
32.729
32.669
32.608
32.548
32.488
32.429
32.373
32.319
32.27
32.228
32.197
32.182
32.186
32.213
32.266
32.35
32.466
32.617
32.804
33.024
33.278
33.562
33.874
34.208
34.56
34.924
35.297
35.673
36.047
36.414
36.767
37.104
37.42
37.711
37.976
38.212
38.42
38.6
38.752
38.878
38.978
39.054
39.108
39.14
39.153
39.149
39.129
39.094
39.047
38.988
38.922
38.847
38.767
38.681
38.589
38.494
38.394
38.29
38.182
38.069
37.954
37.837
37.719
37.599
37.478
37.356
37.234
37.111
36.988
36.864
36.742
36.621
36.502
36.384
36.269
36.157
36.047
35.941
35.84
35.743
35.652
35.569
35.493
35.426
35.366
35.314
35.27
35.235
35.207
35.187
35.174
35.167
35.164
35.165
35.166
35.166
35.163
35.156
35.146
35.134
35.12
35.104
35.089
35.074
35.06
35.046
35.032
35.019
35.006
34.992
34.978
34.961
34.943
34.922
34.897
34.868
34.834
34.797
34.757
34.714
34.671
34.627
34.582
34.538
34.493
34.448
34.403
34.358
34.313
34.266
34.218
34.168
34.116
34.062
34.003
33.941
33.876
33.809
33.74
33.67
33.601
33.532
33.464
33.397
33.332
33.268
33.205
33.143
33.084
33.026
32.97
32.916
32.863
32.81
32.758
32.707
32.657
32.607
32.557
32.506
32.454
32.402
32.349
32.294
32.238
32.182
32.126
32.072
32.023
31.98
31.947
31.927
31.924
31.942
31.983
32.053
32.155
32.291
32.462
32.67
32.913
33.188
33.491
33.82
34.169
34.534
34.91
35.29
35.668
36.041
36.402
36.748
37.074
37.379
37.658
37.91
38.135
38.332
38.501
38.641
38.754
38.84
38.902
38.943
38.963
38.966
38.953
38.928
38.89
38.842
38.785
38.72
38.647
38.569
38.486
38.4
38.31
38.217
38.122
38.025
37.925
37.822
37.716
37.609
37.499
37.388
37.276
37.163
37.049
36.936
36.822
36.707
36.59
36.473
36.354
36.236
36.118
36.004
35.894
35.791
35.694
35.606
35.525
35.452
35.388
35.334
35.289
35.254
35.229
35.213
35.207
35.208
35.215
35.226
35.24
35.256
35.271
35.285
35.297
35.306
35.313
35.317
35.318
35.315
35.307
35.297
35.283
35.266
35.247
35.225
35.201
35.175
35.146
35.113
35.077
35.038
34.997
34.955
34.912
34.866
34.818
34.769
34.717
34.663
34.607
34.549
34.491
34.433
34.373
34.312
34.25
34.186
34.12
34.052
33.981
33.908
33.833
33.757
33.679
33.599
33.519
33.438
33.358
33.28
33.205
33.133
33.065
32.999
32.935
32.873
32.81
32.748
32.684
32.621
32.557
32.494
32.432
32.371
32.312
32.254
32.199
32.146
32.099
32.057
32.024
32.001
31.994
32.005
32.039
32.1
32.192
32.317
32.479
32.677
32.912
33.183
33.486
33.818
34.175
34.551
34.941
35.338
35.735
36.126
36.505
36.867
37.207
37.52
37.803
38.057
38.279
38.469
38.629
38.758
38.86
38.937
38.991
39.023
39.036
39.031
39.012
38.982
38.942
38.894
38.84
38.78
38.716
38.648
38.575
38.499
38.418
38.333
38.245
38.154
38.06
37.962
37.861
37.757
37.651
37.544
37.435
37.323
37.209
37.096
36.982
36.869
36.759
36.651
36.547
36.446
36.35
36.258
36.169
36.087
36.009
35.937
35.87
35.808
35.75
35.697
35.648
35.605
35.568
35.538
35.516
35.5
35.492
35.488
35.49
35.496
35.507
35.52
35.536
35.553
35.57
35.587
35.602
35.614
35.622
35.624
35.622
35.614
35.599
35.579
35.554
35.525
35.491
35.453
35.411
35.367
35.321
35.274
35.228
35.183
35.141
35.101
35.062
35.025
34.986
34.947
34.905
34.862
34.816
34.767
34.716
34.663
34.608
34.55
34.491
34.43
34.368
34.306
34.244
34.182
34.121
34.06
33.999
33.936
33.873
33.808
33.741
33.674
33.605
33.536
33.467
33.398
33.329
33.259
33.19
33.121
33.055
32.99
32.926
32.863
32.802
32.742
32.684
32.631
32.584
32.548
32.525
32.52
32.537
32.581
32.654
32.76
32.9
33.077
33.29
33.539
33.822
34.134
34.472
34.83
35.203
35.587
35.974
36.358
36.736
37.101
37.45
37.78
38.088
38.37
38.624
38.847
39.041
39.204
39.338
39.442
39.52
39.574
39.607
39.622
39.62
39.603
39.574
39.533
39.482
39.422
39.355
39.281
39.202
39.119
39.034
38.946
38.854
38.76
38.661
38.559
38.452
38.343
38.229
38.113
37.994
37.873
37.751
37.628
37.506
37.385
37.264
37.145
37.026
36.909
36.793
36.681
36.574
36.472
36.377
36.288
36.206
36.131
36.062
35.999
35.942
35.892
35.85
35.814
35.783
35.758
35.736
35.719
35.705
35.694
35.687
35.683
35.683
35.683
35.685
35.685
35.685
35.683
35.678
35.67
35.658
35.643
35.625
35.604
35.581
35.555
35.525
35.493
35.458
35.42
35.379
35.337
35.294
35.251
35.208
35.165
35.121
35.077
35.032
34.985
34.935
34.882
34.827
34.769
34.708
34.644
34.576
34.506
34.433
34.359
34.285
34.211
34.138
34.066
33.996
33.926
33.857
33.788
33.718
33.649
33.578
33.507
33.436
33.363
33.289
33.213
33.137
33.06
32.985
32.912
32.841
32.772
32.705
32.641
32.578
32.517
32.457
32.398
32.341
32.287
32.236
32.191
32.153
32.127
32.114
32.119
32.146
32.199
32.282
32.397
32.546
32.73
32.949
33.201
33.484
33.795
34.132
34.489
34.861
35.242
35.626
36.008
36.382
36.742
37.084
37.402
37.695
37.959
38.195
38.401
38.578
38.725
38.844
38.935
39.001
39.043
39.062
39.062
39.045
39.012
38.966
38.909
38.842
38.767
38.685
38.596
38.502
38.401
38.296
38.186
38.075
37.962
37.849
37.737
37.625
37.514
37.405
37.296
37.188
37.079
36.969
36.86
36.749
36.638
36.525
36.411
36.296
36.181
36.067
35.954
35.844
35.738
35.638
35.544
35.458
35.379
35.31
35.25
35.198
35.156
35.122
35.096
35.078
35.067
35.062
35.061
35.063
35.067
35.073
35.08
35.087
35.093
35.099
35.104
35.107
35.108
35.107
35.103
35.098
35.091
35.082
35.071
35.057
35.041
35.021
34.999
34.972
34.943
34.911
34.877
34.838
34.797
34.752
34.704
34.654
34.601
34.547
34.492
34.438
34.384
34.33
34.277
34.225
34.175
34.127
34.081
34.036
33.991
33.945
33.898
33.849
33.799
33.747
33.694
33.64
33.585
33.529
33.472
33.416
33.359
33.302
33.246
33.19
33.135
33.08
33.025
32.97
32.914
32.858
32.801
32.745
32.688
32.63
32.573
32.516
32.459
32.405
32.355
32.312
32.281
32.263
32.263
32.281
32.322
32.388
32.482
32.607
32.764
32.954
33.175
33.426
33.706
34.01
34.335
34.676
35.029
35.388
35.75
36.109
36.459
36.796
37.116
37.415
37.691
37.94
38.159
38.347
38.505
38.632
38.732
38.805
38.853
38.88
38.887
38.878
38.853
38.814
38.763
38.701
38.632
38.556
38.475
38.39
38.301
38.211
38.118
38.026
37.931
37.836
37.737
37.635
37.53
37.42
37.305
37.186
37.064
36.938
36.81
36.68
36.549
36.418
36.289
36.161
36.037
35.917
35.803
35.696
35.598
35.508
35.426
35.353
35.289
35.233
35.185
35.143
35.109
35.08
35.057
35.038
35.024
35.012
35.002
34.995
34.99
34.988
34.987
34.987
34.988
34.988
34.986
34.981
34.972
34.96
34.945
34.927
34.905
34.881
34.854
34.824
34.791
34.755
34.717
34.679
34.64
34.602
34.563
34.525
34.487
34.449
34.41
34.372
34.333
34.294
34.255
34.214
34.171
34.125
34.075
34.022
33.964
33.903
33.84
33.775
33.71
33.644
33.579
33.514
33.45
33.387
33.324
33.262
33.201
33.14
33.079
33.017
32.955
32.894
32.833
32.773
32.712
32.653
32.594
32.538
32.482
32.426
32.373
32.32
32.271
32.224
32.181
32.145
32.119
32.107
32.113
32.139
32.189
32.268
32.375
32.512
32.679
32.875
33.099
33.35
33.623
33.916
34.225
34.545
34.871
35.199
35.522
35.839
36.144
36.433
36.704
36.952
37.176
37.374
37.545
37.69
37.81
37.906
37.979
38.03
38.061
38.075
38.074
38.059
38.032
37.995
37.95
37.898
37.838
37.773
37.703
37.628
37.549
37.464
37.375
37.28
37.181
37.077
36.968
36.853
36.734
36.612
36.487
36.36
36.232
36.103
35.976
35.851
35.73
35.614
35.502
35.396
35.295
35.199
35.11
35.025
34.947
34.874
34.808
34.749
34.695
34.646
34.603
34.566
34.535
34.507
34.483
34.464
34.451
34.441
34.435
34.432
34.431
34.431
34.429
34.425
34.418
34.408
34.396
34.382
34.367
34.349
34.329
34.309
34.288
34.266
34.244
34.222
34.201
34.181
34.16
34.138
34.115
34.09
34.063
34.033
34.002
33.969
33.935
33.898
33.859
33.818
33.775
33.731
33.687
33.642
33.596
33.551
33.506
33.461
33.416
33.37
33.325
33.28
33.234
33.187
33.138
33.088
33.036
32.983
32.929
32.875
32.823
32.771
32.721
32.671
32.621
32.571
32.52
32.47
32.419
32.369
32.319
32.27
32.221
32.172
32.124
32.077
32.033
31.992
31.957
31.931
31.916
31.915
31.93
31.965
32.023
32.107
32.22
32.36
32.529
32.727
32.951
33.198
33.465
33.748
34.042
34.344
34.648
34.95
35.245
35.529
35.801
36.056
36.291
36.505
36.695
36.863
37.008
37.131
37.232
37.313
37.374
37.418
37.446
37.459
37.458
37.445
37.422
37.391
37.352
37.308
37.258
37.203
37.146
37.085
37.021
36.955
36.887
36.815
36.742
36.665
36.586
36.503
36.417
36.328
36.235
36.138
36.037
35.934
35.828
35.722
35.616
35.511
35.408
35.308
35.213
35.121
35.033
34.949
34.871
34.797
34.727
34.662
34.601
34.544
34.491
34.443
34.399
34.362
34.332
34.307
34.289
34.276
34.268
34.263
34.261
34.261
34.262
34.263
34.263
34.261
34.257
34.248
34.235
34.218
34.197
34.173
34.145
34.115
34.083
34.05
34.018
33.986
33.956
33.926
33.897
33.868
33.839
33.808
33.777
33.747
33.716
33.685
33.654
33.621
33.587
33.551
33.513
33.474
33.436
33.397
33.358
33.318
33.279
33.239
33.199
33.16
33.12
33.08
33.04
32.999
32.957
32.911
32.863
32.813
32.761
32.708
32.654
32.602
32.551
32.502
32.455
32.41
32.367
32.327
32.288
32.25
32.213
32.177
32.141
32.106
32.07
32.035
32.001
31.968
31.938
31.913
31.895
31.886
31.888
31.905
31.938
31.99
32.064
32.161
32.282
32.427
32.596
32.786
32.997
33.226
33.468
33.721
33.982
34.247
34.512
34.772
35.022
35.26
35.483
35.687
35.872
36.036
36.178
36.298
36.398
36.478
36.539
36.583
36.611
36.626
36.628
36.619
36.599
36.572
36.537
36.498
36.453
36.404
36.353
36.299
36.243
36.185
36.126
36.066
36.006
35.944
35.881
35.816
35.747
35.674
35.597
35.517
35.434
35.35
35.265
35.182
35.099
35.017
34.938
34.862
34.79
34.724
34.662
34.605
34.553
34.506
34.463
34.425
34.391
34.359
34.331
34.305
34.282
34.261
34.243
34.228
34.217
34.209
34.202
34.197
34.193
34.19
34.188
34.187
34.185
34.183
34.179
34.174
34.164
34.151
34.135
34.117
34.097
34.075
34.053
34.029
34.004
33.978
33.951
33.923
33.894
33.865
33.837
33.81
33.782
33.755
33.727
33.699
33.67
33.639
33.608
33.577
33.546
33.515
33.484
33.453
33.422
33.391
33.358
33.325
33.29
33.255
33.217
33.177
33.133
33.087
33.04
32.99
32.94
32.888
32.836
32.783
32.73
32.678
32.627
32.577
32.53
32.485
32.442
32.401
32.36
32.32
32.279
32.235
32.189
32.141
32.092
32.044
31.996
31.95
31.906
31.865
31.826
31.791
31.76
31.736
31.718
31.708
31.707
31.716
31.739
31.776
31.83
31.903
31.998
32.115
32.254
32.413
32.59
32.784
32.992
33.21
33.434
33.662
33.889
34.112
34.328
34.532
34.723
34.9
35.061
35.206
35.337
35.453
35.556
35.645
35.723
35.79
35.844
35.887
35.92
35.943
35.959
35.967
35.968
35.962
35.951
35.936
35.916
35.891
35.861
35.827
35.789
35.747
35.7
35.65
35.597
35.542
35.483
35.423
35.363
35.302
35.242
35.183
35.125
35.067
35.008
34.949
34.889
34.828
34.766
34.701
34.636
34.57
34.505
34.442
34.381
34.324
34.271
34.223
34.18
34.144
34.113
34.089
34.072
34.06
34.053
34.052
34.054
34.058
34.064
34.07
34.075
34.078
34.08
34.078
34.074
34.067
34.056
34.041
34.022
34.001
33.977
33.952
33.928
33.905
33.883
33.864
33.846
33.83
33.816
33.803
33.791
33.779
33.767
33.754
33.74
33.723
33.706
33.686
33.665
33.643
33.621
33.598
33.575
33.551
33.526
33.501
33.474
33.447
33.418
33.389
33.36
33.33
33.299
33.266
33.231
33.195
33.156
33.116
33.075
33.033
32.991
32.95
32.91
32.871
32.834
32.799
32.766
32.733
32.701
32.67
32.638
32.605
32.571
32.535
32.498
32.46
32.422
32.385
32.349
32.315
32.285
32.26
32.241
32.231
32.233
32.247
32.278
32.325
32.39
32.475
32.579
32.702
32.844
33.002
33.175
33.362
33.559
33.763
33.971
34.181
34.389
34.591
34.786
34.97
35.143
35.302
35.449
35.581
35.699
35.803
35.892
35.969
36.033
36.086
36.129
36.163
36.19
36.211
36.228
36.239
36.247
36.252
36.253
36.25
36.242
36.229
36.211
36.188
36.161
36.128
36.09
36.046
35.997
35.942
35.882
35.817
35.748
35.676
35.603
35.529
35.455
35.382
35.312
35.246
35.184
35.128
35.076
35.031
34.992
34.958
34.93
34.906
34.886
34.868
34.852
34.836
34.819
34.802
34.785
34.767
34.748
34.728
34.708
34.688
34.669
34.65
34.632
34.615
34.601
34.59
34.583
34.579
34.58
34.584
34.591
34.6
34.608
34.613
34.616
34.616
34.611
34.603
34.592
34.579
34.563
34.546
34.527
34.507
34.485
34.465
34.445
34.427
34.41
34.393
34.378
34.362
34.346
34.327
34.306
34.283
34.258
34.231
34.202
34.169
34.135
34.099
34.061
34.023
33.985
33.948
33.913
33.881
33.851
33.822
33.794
33.768
33.742
33.717
33.692
33.667
33.643
33.619
33.594
33.568
33.539
33.508
33.474
33.438
33.403
33.369
33.34
33.317
33.301
33.295
33.298
33.314
33.344
33.388
33.448
33.525
33.618
33.727
33.849
33.984
34.129
34.283
34.444
34.612
34.783
34.958
35.134
35.31
35.486
35.658
35.827
35.989
36.143
36.288
36.422
36.543
36.651
36.745
36.826
36.892
36.944
36.981
37.004
37.014
37.013
37.0
36.979
36.949
36.912
36.872
36.828
36.782
36.733
36.684
36.634
36.585
36.537
36.489
36.443
36.4
36.357
36.316
36.275
36.232
36.188
36.141
36.094
36.045
35.995
35.942
35.888
35.833
35.776
35.717
35.657
35.597
35.537
35.478
35.421
35.367
35.318
35.275
35.24
35.212
35.193
35.181
35.177
35.181
35.19
35.205
35.223
35.243
35.265
35.286
35.303
35.316
35.324
35.326
35.323
35.315
35.302
35.286
35.268
35.246
35.223
35.197
35.17
35.142
35.112
35.082
35.052
35.023
34.995
34.968
34.943
34.918
34.894
34.871
34.85
34.83
34.812
34.795
34.78
34.764
34.748
34.73
34.71
34.688
34.664
34.636
34.606
34.573
34.537
34.501
34.463
34.424
34.385
34.347
34.308
34.27
34.231
34.193
34.155
34.118
34.082
34.047
34.012
33.977
33.943
33.909
33.876
33.843
33.813
33.786
33.762
33.742
33.725
33.714
33.712
33.72
33.742
33.78
33.834
33.908
34.0
34.112
34.241
34.386
34.545
34.716
34.897
35.086
35.278
35.473
35.667
35.858
36.043
36.22
36.388
36.545
36.692
36.829
36.956
37.073
37.181
37.278
37.366
37.444
37.511
37.567
37.611
37.643
37.663
37.671
37.667
37.651
37.627
37.594
37.554
37.506
37.453
37.395
37.333
37.27
37.206
37.143
37.081
37.021
36.964
36.909
36.855
36.803
36.75
36.698
36.645
36.59
36.533
36.475
36.416
36.358
36.3
36.241
36.184
36.127
36.071
36.017
35.966
35.917
35.873
35.833
35.798
35.767
35.739
35.714
35.692
35.672
35.653
35.635
35.616
35.599
35.583
35.568
35.554
35.54
35.528
35.517
35.507
35.498
35.488
35.479
35.469
35.459
35.448
35.435
35.421
35.405
35.388
35.369
35.348
35.324
35.299
35.272
35.245
35.217
35.19
35.162
35.134
35.105
35.077
35.048
35.019
34.991
34.962
34.935
34.907
34.879
34.848
34.816
34.782
34.746
34.709
34.67
34.631
34.591
34.551
34.511
34.47
34.429
34.389
34.35
34.312
34.275
34.242
34.21
34.181
34.153
34.126
34.1
34.074
34.048
34.022
33.995
33.968
33.94
33.912
33.882
33.852
33.82
33.789
33.759
33.733
33.714
33.703
33.703
33.718
33.747
33.794
33.858
33.94
34.041
34.161
34.298
34.451
34.619
34.802
34.998
35.205
35.419
35.638
35.858
36.079
36.296
36.507
36.708
36.899
37.079
37.246
37.398
37.535
37.656
37.76
37.848
37.92
37.977
38.02
38.049
38.068
38.078
38.078
38.07
38.054
38.031
38.001
37.965
37.924
37.876
37.823
37.766
37.706
37.645
37.583
37.521
37.46
37.399
37.339
37.281
37.223
37.167
37.111
37.056
37.003
36.95
36.898
36.845
36.793
36.742
36.691
36.64
36.588
36.535
36.482
36.429
36.376
36.325
36.275
36.229
36.185
36.144
36.106
36.071
36.041
36.014
35.992
35.975
35.961
35.951
35.944
35.939
35.934
35.93
35.924
35.917
35.91
35.901
35.891
35.88
35.868
35.856
35.843
35.828
35.811
35.791
35.768
35.742
35.713
35.679
35.642
35.603
35.563
35.521
35.479
35.437
35.396
35.357
35.32
35.284
35.251
35.219
35.19
35.161
35.134
35.106
35.077
35.046
35.014
34.979
34.942
34.901
34.858
34.813
34.766
34.718
34.67
34.622
34.575
34.531
34.489
34.448
34.409
34.372
34.336
34.303
34.27
34.238
34.206
34.174
34.142
34.108
34.073
34.037
33.999
33.959
33.918
33.875
33.833
33.795
33.76
33.732
33.712
33.702
33.705
33.721
33.753
33.801
33.867
33.952
34.056
34.179
34.321
34.479
34.654
34.841
35.039
35.244
35.453
35.663
35.871
36.076
36.277
36.472
36.66
36.84
37.011
37.171
37.318
37.45
37.568
37.671
37.756
37.825
37.875
37.908
37.926
37.929
37.92
37.9
37.87
37.831
37.785
37.733
37.675
37.613
37.547
37.477
37.407
37.336
37.264
37.192
37.12
37.048
36.974
36.9
36.824
36.748
36.671
36.595
36.52
36.448
36.379
36.313
36.25
36.191
36.135
36.082
36.031
35.982
35.935
35.89
35.847
35.805
35.766
35.73
35.698
35.668
35.639
35.613
35.587
35.564
35.542
35.523
35.507
35.492
35.479
35.468
35.458
35.448
35.437
35.426
35.414
35.4
35.385
35.367
35.348
35.329
35.31
35.291
35.272
35.253
35.234
35.216
35.199
35.182
35.167
35.152
35.137
35.12
35.102
35.079
35.052
35.021
34.986
34.947
34.903
34.856
34.806
34.756
34.705
34.655
34.606
34.56
34.517
34.476
34.439
34.404
34.373
34.346
34.321
34.297
34.274
34.251
34.227
34.202
34.174
34.142
34.107
34.068
34.026
33.98
33.93
33.878
33.825
33.774
33.724
33.677
33.633
33.594
33.56
33.53
33.504
33.483
33.467
33.459
33.459
33.469
33.49
33.525
33.576
33.645
33.733
33.839
33.965
34.11
34.275
34.457
34.656
34.868
35.092
35.325
35.56
35.796
36.028
36.254
36.469
36.673
36.861
37.033
37.187
37.321
37.437
37.534
37.613
37.673
37.715
37.742
37.753
37.751
37.737
37.713
37.681
37.642
37.598
37.548
37.493
37.436
37.376
37.314
37.25
37.183
37.113
37.041
36.968
36.895
36.82
36.745
36.669
36.593
36.516
36.439
36.361
36.284
36.208
36.134
36.064
35.997
35.934
35.875
35.819
35.767
35.717
35.668
35.621
35.575
35.532
35.493
35.456
35.422
35.391
35.362
35.337
35.315
35.295
35.278
35.264
35.253
35.246
35.243
35.242
35.244
35.249
35.255
35.26
35.263
35.264
35.262
35.257
35.248
35.237
35.222
35.205
35.185
35.162
35.136
35.109
35.081
35.053
35.026
34.999
34.971
34.942
34.914
34.884
34.854
34.823
34.791
34.759
34.726
34.693
34.66
34.626
34.593
34.561
34.529
34.497
34.464
34.431
34.398
34.362
34.326
34.287
34.248
34.206
34.162
34.115
