Trial 3:3back
34.834
34.819
34.804
34.788
34.772
34.755
34.738
34.721
34.704
34.684
34.663
34.641
34.62
34.6
34.582
34.567
34.553
34.54
34.529
34.52
34.512
34.507
34.503
34.501
34.499
34.497
34.494
34.489
34.482
34.473
34.463
34.45
34.435
34.419
34.403
34.386
34.369
34.351
34.335
34.32
34.305
34.292
34.28
34.269
34.26
34.253
34.246
34.241
34.236
34.232
34.227
34.223
34.217
34.211
34.205
34.199
34.193
34.189
34.187
34.187
34.19
34.195
34.203
34.215
34.231
34.254
34.282
34.318
34.36
34.408
34.461
34.521
34.585
34.653
34.724
34.798
34.874
34.952
35.029
35.104
35.178
35.247
35.313
35.373
35.428
35.476
35.519
35.557
35.588
35.614
35.636
35.654
35.67
35.683
35.694
35.704
35.714
35.722
35.73
35.737
35.741
35.741
35.735
35.722
35.703
35.68
35.655
35.63
35.606
35.585
35.568
35.554
35.543
35.536
35.531
35.528
35.526
35.524
35.523
35.521
35.518
35.514
35.509
35.503
35.496
35.487
35.476
35.463
35.448
35.432
35.415
35.397
35.38
35.363
35.347
35.332
35.318
35.304
35.291
35.278
35.265
35.253
35.241
35.231
35.222
35.216
35.213
35.212
35.213
35.216
35.221
35.226
35.232
35.237
35.242
35.246
35.25
35.255
35.259
35.263
35.267
35.268
35.267
35.264
35.258
35.251
35.24
35.227
35.213
35.197
35.18
35.164
35.147
35.13
35.112
35.093
35.074
35.053
35.033
35.011
34.99
34.968
34.945
34.924
34.905
34.888
34.874
34.862
34.853
34.844
34.837
34.831
34.826
34.82
34.813
34.806
34.797
34.783
34.766
34.747
34.726
34.706
34.687
34.668
34.65
34.633
34.617
34.601
34.585
34.569
34.553
34.537
34.521
34.505
34.488
34.47
34.449
34.428
34.405
34.382
34.359
34.334
34.309
34.282
34.254
34.225
34.197
34.169
34.144
34.12
34.099
34.082
34.068
34.057
34.05
34.046
34.045
34.046
34.052
34.062
34.077
34.098
34.126
34.16
34.199
34.244
34.293
34.348
34.408
34.473
34.542
34.615
34.692
34.772
34.855
34.938
35.022
35.105
35.185
35.263
35.336
35.404
35.466
35.522
35.572
35.615
35.653
35.685
35.711
35.732
35.747
35.757
35.763
35.765
35.764
35.76
35.756
35.749
35.741
35.733
35.724
35.716
35.709
35.702
35.697
35.692
35.689
35.687
35.686
35.686
35.685
35.683
35.678
35.672
35.665
35.656
35.647
35.638
35.628
35.617
35.606
35.595
35.584
35.573
35.561
35.548
35.535
35.522
35.509
35.497
35.487
35.477
35.468
35.459
35.452
35.446
35.442
35.439
35.435
35.432
35.429
35.426
35.424
35.423
35.423
35.424
35.425
35.427
35.429
35.432
35.435
35.436
35.437
35.437
35.436
35.437
35.439
35.442
35.445
35.449
35.451
35.452
35.452
35.449
35.443
35.434
35.421
35.405
35.388
35.37
35.352
35.333
35.314
35.295
35.276
35.257
35.239
35.221
35.203
35.184
35.163
35.142
35.121
35.1
35.081
35.062
35.045
35.028
35.011
34.996
34.982
34.967
34.953
34.939
34.926
34.913
34.901
34.89
34.88
34.87
34.86
34.849
34.834
34.813
34.784
34.749
34.71
34.669
34.628
34.591
34.56
34.535
34.517
34.506
34.501
34.501
34.506
34.513
34.522
34.531
34.541
34.55
34.559
34.569
34.581
34.596
34.614
34.636
34.662
34.693
34.73
34.773
34.82
34.871
34.926
34.983
35.042
35.104
35.168
35.233
35.298
35.364
35.431
35.496
35.561
35.625
35.686
35.745
35.8
35.85
35.897
35.941
35.981
36.018
36.052
36.084
36.113
36.139
36.162
36.183
36.199
36.211
36.221
36.227
36.231
36.232
36.231
36.228
36.223
36.215
36.205
36.192
36.177
36.16
36.141
36.12
36.098
36.075
36.053
36.03
36.008
35.986
35.965
35.945
35.925
35.906
35.885
35.865
35.844
35.823
35.803
35.784
35.767
35.752
35.738
35.725
35.712
35.698
35.685
35.672
35.66
35.652
35.646
35.644
35.644
35.648
35.654
35.663
35.674
35.687
35.699
35.71
35.72
35.729
35.736
35.742
35.746
35.75
35.752
35.754
35.756
35.758
35.761
35.763
35.765
35.765
35.764
35.762
35.758
35.752
35.744
35.733
35.721
35.707
35.691
35.673
35.655
35.636
35.617
35.596
35.575
35.553
35.532
35.511
35.49
35.47
35.451
35.433
35.417
35.402
35.389
35.376
35.363
35.349
35.334
35.319
35.302
35.286
35.27
35.254
35.24
35.226
35.214
35.203
35.192
35.181
35.17
35.158
35.146
35.133
35.119
35.106
35.091
35.077
35.064
35.052
35.041
35.031
35.022
35.011
35.0
34.988
34.975
34.963
34.95
34.936
34.923
34.909
34.895
34.881
34.867
34.853
34.84
34.827
34.816
34.806
34.8
34.797
34.798
34.802
34.811
34.824
34.844
34.871
34.906
34.948
34.998
35.055
35.119
35.191
35.269
35.352
35.439
35.529
35.619
35.709
35.798
35.886
35.972
36.055
36.134
36.207
36.275
36.337
36.393
36.443
36.487
36.525
36.559
36.589
36.616
36.64
36.661
36.679
36.694
36.706
36.714
36.719
36.723
36.724
36.722
36.718
36.712
36.705
36.695
36.685
36.673
36.662
36.65
36.637
36.625
36.612
36.6
36.586
36.572
36.556
36.541
36.526
36.511
36.496
36.481
36.466
36.451
36.434
36.416
36.396
36.376
36.355
36.334
36.312
36.289
36.266
36.244
36.223
36.204
36.185
36.165
36.142
36.116
36.088
36.06
36.033
36.01
35.991
35.979
35.973
35.974
35.98
35.992
36.008
36.027
36.048
36.071
36.094
36.117
36.137
36.155
36.167
36.175
36.178
36.176
36.169
36.157
36.14
36.12
36.098
36.074
36.049
36.024
35.998
35.971
35.942
35.913
35.882
35.851
35.822
35.794
35.768
35.744
35.723
35.704
35.689
35.676
35.665
35.655
35.646
35.636
35.625
35.615
35.604
35.592
35.58
35.566
35.55
35.533
35.515
35.495
35.472
35.446
35.418
35.388
35.357
35.326
35.296
35.267
35.24
35.215
35.193
35.172
35.153
35.135
35.117
35.101
35.086
35.072
35.061
35.05
35.04
35.03
35.02
35.009
34.999
34.99
34.981
34.971
34.96
34.949
34.938
34.927
34.917
34.908
34.901
34.896
34.893
34.894
34.899
34.909
34.925
34.946
34.973
35.007
35.048
35.098
35.157
35.222
35.295
35.374
35.457
35.545
35.635
35.726
35.816
35.904
35.988
36.067
36.142
36.213
36.28
36.342
36.399
36.451
36.498
36.538
36.572
36.6
36.622
36.638
36.647
36.652
36.652
36.651
36.647
36.643
36.637
36.63
36.622
36.613
36.604
36.594
36.584
36.573
36.561
36.549
36.536
36.524
36.511
36.496
36.481
36.463
36.443
36.42
36.397
36.374
36.351
36.329
36.308
36.287
36.267
36.247
36.227
36.205
36.183
36.16
36.137
36.113
36.09
36.067
36.046
36.027
36.01
35.995
35.982
35.971
35.962
35.956
35.95
35.945
35.941
35.94
35.941
35.944
35.95
35.956
35.962
35.967
35.971
35.972
35.969
35.963
35.953
35.94
35.925
35.908
35.889
35.871
35.852
35.832
35.812
35.791
35.771
35.751
35.732
35.712
35.692
35.671
35.651
35.632
35.615
35.599
35.583
35.567
35.551
35.533
35.514
35.494
35.472
35.45
35.427
35.404
35.382
35.361
35.342
35.322
35.301
35.279
35.256
35.231
35.206
35.18
35.154
35.129
35.105
35.083
35.064
35.046
35.03
35.016
35.003
34.989
34.975
34.96
34.944
34.926
34.907
34.889
34.871
34.854
34.84
34.826
34.814
34.802
34.79
34.778
34.767
34.755
34.743
34.73
34.717
34.704
34.69
34.677
34.664
34.652
34.642
34.633
34.627
34.626
34.63
34.64
34.656
34.681
34.712
34.751
34.798
34.852
34.912
34.979
35.05
35.127
35.207
35.289
35.371
35.453
35.536
35.616
35.695
35.77
35.842
35.908
35.969
36.025
36.073
36.114
36.148
36.176
36.197
36.215
36.228
36.239
36.247
36.252
36.256
36.257
36.256
36.254
36.25
36.246
36.24
36.234
36.229
36.224
36.22
36.216
36.212
36.208
36.204
36.198
36.191
36.182
36.17
36.155
36.138
36.118
36.096
36.073
36.048
36.023
35.997
35.969
35.941
35.913
35.885
35.857
35.831
35.806
35.784
35.764
35.748
35.734
35.722
35.712
35.704
35.696
35.69
35.685
35.68
35.676
35.672
35.668
35.666
35.664
35.664
35.664
35.666
35.669
35.671
35.673
35.674
35.674
35.673
35.671
35.668
35.664
35.66
35.656
35.652
35.646
35.64
35.633
35.624
35.613
35.6
35.585
35.569
35.55
35.531
35.51
35.488
35.467
35.445
35.425
35.405
35.385
35.365
35.345
35.326
35.307
35.289
35.272
35.256
35.239
35.221
35.202
35.182
35.16
35.136
35.111
35.084
35.056
35.028
35.001
34.974
34.95
34.928
34.907
34.889
34.872
34.858
34.844
34.831
34.818
34.805
34.792
34.778
34.765
34.751
34.739
34.728
34.717
34.707
34.697
34.687
34.677
34.667
34.656
34.645
34.634
34.623
34.613
34.604
34.597
34.593
34.593
34.598
34.608
34.624
34.647
34.677
34.715
34.76
34.81
34.865
34.924
34.986
35.051
35.12
35.191
35.266
35.343
35.421
35.5
35.578
35.655
35.729
35.801
35.868
35.931
35.988
36.039
36.083
36.121
36.153
36.178
36.199
36.216
36.228
36.235
36.237
36.236
36.232
36.227
36.219
36.21
36.2
36.191
36.183
36.176
36.169
36.162
36.155
36.147
36.139
36.13
36.121
36.112
36.101
36.089
36.076
36.062
36.046
36.029
36.01
35.99
35.967
35.944
35.92
35.896
35.874
35.852
35.831
35.811
35.793
35.776
35.761
35.749
35.738
35.73
35.725
35.722
35.722
35.723
35.725
35.729
35.734
35.74
35.745
35.75
35.755
35.758
35.759
35.758
35.755
35.749
35.743
35.735
35.725
35.714
35.701
35.685
35.666
35.645
35.622
35.599
35.577
35.556
35.537
35.521
35.508
35.497
35.488
35.481
35.474
35.467
35.459
35.451
35.44
35.428
35.413
35.397
35.378
35.358
35.337
35.314
35.29
35.264
35.238
35.211
35.184
35.158
35.132
35.107
35.083
35.06
35.038
35.018
34.999
34.981
34.964
34.948
34.932
34.917
34.903
34.89
34.878
34.868
34.86
34.852
34.846
34.839
34.832
34.823
34.813
34.801
34.786
34.768
34.749
34.728
34.707
34.686
34.666
34.647
34.629
34.613
34.597
34.584
34.571
34.56
34.551
34.544
34.539
34.538
34.542
34.549
34.562
34.579
34.6
34.627
34.659
34.696
34.738
34.785
34.838
34.896
34.962
35.033
35.11
35.191
35.275
35.359
35.444
35.527
35.609
35.686
35.759
35.826
35.887
35.943
35.995
36.043
36.088
36.128
36.165
36.198
36.227
36.253
36.275
36.293
36.307
36.316
36.323
36.328
36.33
36.332
36.332
36.332
36.33
36.328
36.324
36.32
36.314
36.308
36.3
36.291
36.282
36.272
36.263
36.253
36.242
36.231
36.22
36.208
36.195
36.181
36.166
36.151
36.134
36.117
36.099
36.08
36.06
36.04
36.018
35.996
35.974
35.951
35.928
35.905
35.883
35.863
35.844
35.826
35.81
35.795
35.782
35.771
35.76
35.751
35.744
35.738
35.733
35.73
35.728
35.727
35.728
35.729
35.731
35.734
35.738
35.742
35.745
35.747
35.746
35.742
35.737
35.729
35.718
35.705
35.69
35.673
35.654
35.635
35.615
35.595
35.573
35.551
35.528
35.506
35.484
35.464
35.445
35.428
35.41
35.392
35.374
35.355
35.337
35.318
35.298
35.278
35.258
35.238
35.218
35.198
35.179
35.16
35.142
35.126
35.11
35.094
35.079
35.064
35.048
35.032
35.015
34.998
34.981
34.965
34.948
34.931
34.914
34.896
34.879
34.861
34.843
34.823
34.802
34.781
34.76
34.74
34.723
34.708
34.695
34.685
34.678
34.672
34.668
34.663
34.658
34.653
34.647
34.64
34.633
34.627
34.622
34.618
34.615
34.612
34.609
34.606
34.603
34.6
34.593
34.583
34.573
34.564
34.559
34.561
34.572
34.595
34.629
34.675
34.735
34.806
34.889
34.981
35.082
35.189
35.299
35.411
35.522
35.632
35.737
35.836
35.928
36.013
36.088
36.154
36.211
36.258
36.296
36.324
36.344
36.357
36.363
36.365
36.363
36.359
36.355
36.35
36.347
36.346
36.348
36.354
36.362
36.371
36.38
36.389
36.397
36.404
36.409
36.411
36.411
36.408
36.404
36.398
36.392
36.384
36.374
36.363
36.348
36.33
36.31
36.287
36.261
36.234
36.206
36.177
36.15
36.124
36.1
36.077
36.056
36.036
36.018
36.0
35.984
35.97
35.957
35.947
35.938
35.93
35.924
35.918
35.913
35.908
35.903
35.896
35.889
35.88
35.871
35.86
35.85
35.841
35.832
35.824
35.816
35.81
35.806
35.804
35.801
35.798
35.794
35.788
35.779
35.768
35.755
35.739
35.72
35.698
35.674
35.649
35.623
35.596
35.57
35.543
35.515
35.488
35.461
35.435
35.411
35.388
35.366
35.346
35.327
35.31
35.294
35.279
35.264
35.25
35.235
35.22
35.204
35.188
35.172
35.155
35.138
35.119
35.101
35.082
35.064
35.045
35.026
35.006
34.985
34.964
34.943
34.922
34.903
34.884
34.865
34.848
34.832
34.817
34.802
34.787
34.77
34.752
34.734
34.716
34.698
34.682
34.666
34.652
34.637
34.623
34.609
34.595
34.582
34.568
34.555
34.544
34.535
34.529
34.526
34.525
34.525
34.525
34.525
34.524
34.522
34.518
34.513
34.507
34.503
34.501
34.503
34.511
34.526
34.547
34.574
34.607
34.646
34.69
34.74
34.795
34.856
34.921
34.99
35.064
35.142
35.224
35.308
35.392
35.476
35.557
35.635
35.708
35.775
35.837
35.893
35.943
35.988
36.027
36.062
36.092
36.118
36.139
36.156
36.167
36.174
36.177
36.176
36.172
36.167
36.161
36.154
36.148
36.141
36.133
36.126
36.118
36.11
36.102
36.095
36.088
36.081
36.075
36.068
36.061
36.053
36.044
36.033
36.021
36.007
35.989
35.968
35.944
35.918
35.889
35.86
35.832
35.805
35.78
35.756
35.734
35.714
35.697
35.682
35.67
35.659
35.652
35.646
35.644
35.644
35.647
35.651
35.655
35.659
35.662
35.664
35.665
35.664
35.662
35.658
35.654
35.649
35.644
35.639
35.632
35.625
35.614
35.602
35.588
35.573
35.558
35.543
35.53
35.517
35.505
35.495
35.485
35.476
35.466
35.455
35.44
35.423
35.402
35.378
35.35
35.319
35.287
35.252
35.216
35.179
35.141
35.102
35.062
35.022
34.981
34.94
34.901
34.866
34.835
34.809
34.788
34.772
34.76
34.752
34.747
34.743
34.74
34.738
34.735
34.731
34.726
34.722
34.717
34.713
34.708
34.702
34.694
34.685
34.674
34.663
34.651
34.639
34.628
34.616
34.605
34.595
34.587
34.579
34.572
34.566
34.561
34.556
34.552
34.548
34.546
34.545
34.544
34.545
34.547
34.551
34.556
34.563
34.571
34.581
34.592
34.607
34.625
34.648
34.675
34.708
34.747
34.793
34.846
34.906
34.972
35.044
35.121
35.201
35.283
35.365
35.447
35.528
35.607
35.682
35.753
35.82
35.882
35.941
35.995
36.045
36.09
36.131
36.168
36.202
36.232
36.257
36.277
36.292
36.302
36.307
36.307
36.302
36.294
36.281
36.266
36.249
36.23
36.211
36.193
36.176
36.16
36.146
36.134
36.123
36.115
36.107
36.1
36.093
36.086
36.078
36.069
36.058
36.045
36.028
36.01
35.989
35.966
35.941
35.915
35.888
35.863
35.839
35.816
35.795
35.776
35.76
35.746
35.735
35.726
35.719
35.712
35.706
35.701
35.697
35.695
35.693
35.692
35.693
35.695
35.698
35.701
35.704
35.706
35.706
35.703
35.699
35.693
35.687
35.679
35.67
35.66
35.649
35.637
35.624
35.612
35.6
35.587
35.573
35.557
35.54
35.521
35.501
35.48
35.458
35.436
35.414
35.393
35.372
35.352
35.332
35.311
35.289
35.267
35.244
35.221
35.198
35.176
35.155
35.136
35.118
35.102
35.087
35.073
35.059
35.045
35.03
35.016
35.002
34.987
34.972
34.954
34.933
34.909
34.884
34.857
34.831
34.806
34.782
34.76
34.74
34.722
34.707
34.693
34.682
34.673
34.666
34.66
34.657
34.654
34.653
34.651
34.648
34.645
34.64
34.635
34.629
34.622
34.615
34.606
34.598
34.589
34.579
34.57
34.559
34.547
34.533
34.518
34.503
34.489
34.476
34.466
34.459
34.456
34.458
34.465
34.478
34.496
34.521
34.554
34.595
34.644
34.704
34.773
34.85
34.936
35.029
35.128
35.231
35.337
35.442
35.546
35.645
35.739
35.826
35.907
35.981
36.05
36.112
36.168
36.218
36.262
36.299
36.329
36.352
36.37
36.383
36.393
36.401
36.407
36.411
36.414
36.416
36.417
36.416
36.415
36.412
36.41
36.408
36.406
36.404
36.402
36.397
36.392
36.385
36.376
36.366
36.354
36.34
36.324
36.306
36.287
36.268
36.249
36.232
36.216
36.203
36.19
36.178
36.166
36.154
36.139
36.123
36.104
36.084
36.062
36.041
36.02
36.001
35.985
35.971
35.959
35.949
35.941
35.935
35.93
35.926
35.922
35.919
35.916
35.913
35.91
35.907
35.904
35.9
35.895
35.889
35.882
35.874
35.867
35.859
35.851
35.843
35.834
35.826
35.817
35.808
35.799
35.787
35.775
35.762
35.747
35.732
35.717
35.7
35.682
35.664
35.646
35.628
35.61
35.59
35.57
35.548
35.525
35.501
35.474
35.445
35.414
35.381
35.348
35.315
35.282
35.252
35.223
35.198
35.175
35.155
35.138
35.125
35.113
35.104
35.095
35.085
35.075
35.063
35.05
35.036
35.02
35.004
34.987
34.971
34.955
34.941
34.927
34.914
34.901
34.888
34.874
34.861
34.847
34.833
34.817
34.802
34.785
34.77
34.754
34.74
34.727
34.716
34.706
34.697
34.69
34.683
34.676
34.67
34.664
34.657
34.649
34.641
34.632
34.623
34.613
34.604
34.596
34.59
34.586
34.583
34.582
34.585
34.592
34.605
34.625
34.653
34.689
34.734
34.787
34.849
34.918
34.995
35.078
35.167
35.26
35.358
35.456
35.553
35.647
35.738
35.825
35.907
35.984
36.056
36.122
36.18
36.232
36.277
36.317
36.351
36.382
36.41
36.435
36.458
36.48
36.5
36.518
36.534
36.549
36.56
36.57
36.578
36.585
36.591
36.595
36.597
36.597
36.594
36.589
36.581
36.57
36.557
36.54
36.521
36.501
36.479
36.456
36.433
36.411
36.389
36.368
36.348
36.327
36.307
36.287
36.267
36.247
36.227
36.206
36.185
36.164
36.143
36.121
36.099
36.077
36.054
36.03
36.007
35.985
35.963
35.942
35.922
35.902
35.883
35.865
35.849
35.835
35.822
35.813
35.806
35.802
35.802
35.806
35.812
35.818
35.825
35.831
35.836
35.838
35.838
35.834
35.827
35.818
35.806
35.791
35.775
35.756
35.734
35.71
35.683
35.655
35.626
35.596
35.567
35.539
35.513
35.491
35.472
35.456
35.441
35.429
35.416
35.402
35.386
35.368
35.349
35.328
35.305
35.28
35.254
35.226
35.196
35.164
35.13
35.094
35.057
35.019
34.982
34.946
34.912
34.883
34.858
34.836
34.817
34.8
34.785
34.771
34.756
34.741
34.725
34.708
34.69
34.671
34.653
34.636
34.62
34.605
34.59
34.574
34.558
34.542
34.524
34.506
34.487
34.467
34.446
34.425
34.405
34.387
34.371
34.356
34.342
34.328
34.315
34.303
34.291
34.28
34.267
34.253
34.239
34.225
34.214
34.207
34.206
34.212
34.223
34.241
34.266
34.299
34.339
34.387
34.441
34.502
34.571
34.646
34.728
34.815
34.908
35.006
35.107
35.21
35.314
35.417
35.518
35.615
35.708
35.796
35.877
35.954
36.024
36.088
36.146
36.198
36.243
36.282
36.316
36.343
36.365
36.381
36.393
36.401
36.406
36.408
36.406
36.401
36.393
36.382
36.368
36.354
36.338
36.322
36.305
36.288
36.269
36.251
36.232
36.213
36.194
36.174
36.154
36.131
36.107
36.08
36.053
36.023
35.993
35.964
35.936
35.91
35.886
35.865
35.846
35.828
35.812
35.797
35.783
35.77
35.758
35.748
35.739
35.733
35.727
35.722
35.717
35.712
35.706
35.698
35.689
35.678
35.665
35.652
35.637
35.623
35.61
35.599
35.589
35.582
35.577
35.575
35.574
35.575
35.576
35.578
35.578
35.578
35.577
35.576
35.572
35.567
35.558
35.546
35.532
35.516
35.499
35.479
35.456
35.431
35.403
35.373
35.343
35.311
35.279
35.248
35.218
35.188
35.16
35.133
35.109
35.085
35.063
35.042
35.022
35.004
34.987
34.97
34.953
34.936
34.918
34.9
34.881
34.862
34.842
34.821
34.799
34.777
34.753
34.729
34.704
34.68
34.655
34.628
34.602
34.577
34.558
34.547
34.545
34.549
34.558
34.571
34.585
34.597
34.605
34.607
34.603
34.591
34.573
34.549
34.52
34.486
34.45
34.412
34.375
34.34
34.308
34.281
34.258
34.24
34.229
34.226
34.232
34.249
34.275
34.313
34.361
34.418
34.484
34.559
34.64
34.726
34.816
34.909
35.003
35.098
35.193
35.288
35.381
35.472
35.56
35.644
35.722
35.795
35.862
35.921
35.975
36.022
36.063
36.098
36.128
36.152
36.171
36.185
36.195
36.2
36.201
36.198
36.191
36.181
36.17
36.159
36.147
