Trial 3:3back
35.906
35.894
35.885
35.88
35.877
35.876
35.878
35.881
35.885
35.889
35.891
35.89
35.885
35.876
35.863
35.847
35.827
35.804
35.777
35.746
35.713
35.676
35.639
35.602
35.566
35.532
35.498
35.464
35.429
35.394
35.359
35.325
35.289
35.252
35.212
35.17
35.124
35.077
35.029
34.981
34.936
34.893
34.852
34.813
34.773
34.733
34.693
34.65
34.608
34.565
34.524
34.485
34.449
34.415
34.384
34.356
34.331
34.308
34.286
34.266
34.245
34.225
34.205
34.185
34.166
34.149
34.134
34.123
34.114
34.109
34.105
34.102
34.1
34.098
34.095
34.088
34.076
34.059
34.036
34.01
33.98
33.95
33.92
33.892
33.868
33.847
33.831
33.819
33.812
33.811
33.817
33.832
33.859
33.901
33.961
34.041
34.141
34.262
34.403
34.562
34.735
34.919
35.109
35.304
35.5
35.694
35.885
36.069
36.246
36.414
36.571
36.717
36.85
36.97
37.078
37.171
37.25
37.312
37.357
37.387
37.403
37.409
37.407
37.399
37.386
37.37
37.352
37.333
37.313
37.291
37.269
37.245
37.221
37.197
37.172
37.148
37.125
37.102
37.08
37.061
37.044
37.03
37.018
37.009
37.002
36.997
36.992
36.984
36.973
36.958
36.94
36.916
36.887
36.853
36.813
36.769
36.722
36.671
36.618
36.565
36.512
36.462
36.413
36.365
36.318
36.271
36.227
36.186
36.15
36.118
36.089
36.064
36.042
36.022
36.005
35.991
35.98
35.972
35.965
35.96
35.956
35.952
35.947
35.939
35.93
35.92
35.907
35.893
35.877
35.86
35.841
35.822
35.803
35.783
35.763
35.741
35.716
35.689
35.659
35.624
35.586
35.546
35.501
35.453
35.401
35.347
35.293
35.242
35.195
35.151
35.112
35.073
35.034
34.993
34.949
34.902
34.855
34.809
34.765
34.724
34.687
34.654
34.625
34.601
34.579
34.56
34.542
34.524
34.505
34.485
34.465
34.443
34.421
34.4
34.38
34.363
34.347
34.333
34.318
34.304
34.288
34.27
34.25
34.227
34.202
34.173
34.144
34.113
34.084
34.057
34.034
34.015
33.997
33.981
33.964
33.947
33.93
33.915
33.906
33.908
33.924
33.957
34.008
34.08
34.172
34.286
34.421
34.574
34.744
34.928
35.122
35.321
35.523
35.722
35.917
36.104
36.284
36.454
36.614
36.763
36.899
37.021
37.127
37.216
37.286
37.339
37.373
37.39
37.393
37.385
37.369
37.347
37.319
37.288
37.254
37.22
37.188
37.159
37.134
37.111
37.09
37.069
37.049
37.028
37.005
36.982
36.96
36.939
36.919
36.899
36.88
36.861
36.842
36.823
36.805
36.787
36.769
36.749
36.722
36.687
36.644
36.594
36.535
36.47
36.398
36.323
36.248
36.175
36.105
36.04
35.981
35.929
35.884
35.845
35.812
35.785
35.763
35.746
35.733
35.722
35.712
35.703
35.695
35.689
35.686
35.688
35.693
35.7
35.708
35.715
35.718
35.718
35.714
35.708
35.701
35.693
35.685
35.677
35.667
35.656
35.644
35.63
35.613
35.593
35.568
35.538
35.501
35.46
35.415
35.366
35.317
35.267
35.218
35.171
35.126
35.082
35.04
34.997
34.954
34.909
34.862
34.814
34.763
34.712
34.661
34.612
34.567
34.527
34.492
34.461
34.434
34.408
34.384
34.359
34.335
34.311
34.289
34.27
34.253
34.239
34.227
34.215
34.204
34.194
34.184
34.172
34.156
34.136
34.109
34.077
34.041
34.004
33.967
33.931
33.898
33.869
33.844
33.825
33.812
33.806
33.809
33.822
33.848
33.889
33.949
34.029
34.13
34.252
34.395
34.558
34.739
34.934
35.135
35.34
35.542
35.738
35.925
36.101
36.266
36.419
36.559
36.686
36.799
36.898
36.985
37.058
37.12
37.17
37.21
37.237
37.253
37.26
37.259
37.253
37.242
37.226
37.208
37.186
37.162
37.139
37.117
37.097
37.079
37.064
37.052
37.044
37.037
37.032
37.027
37.022
37.017
37.009
37.0
36.986
36.97
36.95
36.93
36.908
36.886
36.864
36.84
36.813
36.785
36.753
36.717
36.678
36.633
36.583
36.526
36.464
36.397
36.328
36.26
36.193
36.131
36.075
36.025
35.982
35.944
35.911
35.884
35.861
35.842
35.826
35.814
35.804
35.799
35.796
35.798
35.802
35.81
35.82
35.832
35.842
35.85
35.854
35.852
35.844
35.831
35.815
35.796
35.775
35.752
35.727
35.702
35.678
35.653
35.629
35.603
35.575
35.544
35.511
35.474
35.434
35.389
35.34
35.288
35.234
35.178
35.12
35.063
35.006
34.949
34.894
34.841
34.789
34.739
34.69
34.642
34.595
34.552
34.514
34.482
34.455
34.432
34.412
34.392
34.372
34.351
34.331
34.31
34.29
34.272
34.254
34.238
34.223
34.208
34.194
34.18
34.165
34.151
34.137
34.122
34.104
34.085
34.063
34.04
34.017
33.994
33.975
33.959
33.945
33.934
33.924
33.916
33.91
33.908
33.914
33.93
33.96
34.007
34.075
34.163
34.273
34.404
34.555
34.723
34.906
35.098
35.295
35.492
35.688
35.878
36.061
36.236
36.403
36.559
36.705
36.837
36.955
37.057
37.144
37.214
37.27
37.31
37.336
37.35
37.352
37.345
37.331
37.313
37.293
37.271
37.25
37.23
37.212
37.197
37.185
37.176
37.168
37.162
37.157
37.151
37.143
37.133
37.12
37.106
37.091
37.076
37.06
37.045
37.031
37.018
37.006
36.995
36.984
36.971
36.954
36.933
36.905
36.871
36.829
36.781
36.725
36.664
36.598
36.529
36.459
36.391
36.327
36.269
36.217
36.171
36.13
36.092
36.057
36.023
35.99
35.96
35.931
35.904
35.879
35.857
35.837
35.821
35.809
35.8
35.794
35.792
35.791
35.79
35.787
35.781
35.772
35.759
35.745
35.731
35.716
35.703
35.69
35.678
35.665
35.651
35.633
35.608
35.578
35.545
35.514
35.486
35.461
35.439
35.417
35.391
35.36
35.323
35.279
35.227
35.17
35.106
35.038
34.966
34.892
34.818
34.744
34.672
34.606
34.547
34.496
34.454
34.421
34.395
34.375
34.357
34.34
34.321
34.301
34.28
34.257
34.235
34.215
34.196
34.178
34.16
34.14
34.116
34.087
34.053
34.016
33.978
33.938
33.9
33.866
33.835
33.81
33.79
33.775
33.764
33.754
33.746
33.737
33.726
33.714
33.702
33.692
33.688
33.69
33.7
33.721
33.753
33.798
33.86
33.94
34.039
34.158
34.294
34.445
34.609
34.783
34.964
35.149
35.335
35.52
35.702
35.879
36.046
36.202
36.343
36.467
36.576
36.67
36.75
36.818
36.877
36.925
36.965
36.998
37.024
37.045
37.061
37.072
37.078
37.078
37.072
37.062
37.046
37.027
37.005
36.981
36.955
36.928
36.902
36.88
36.861
36.847
36.837
36.83
36.826
36.823
36.821
36.82
36.819
36.816
36.811
36.801
36.786
36.765
36.737
36.704
36.668
36.628
36.586
36.543
36.5
36.455
36.408
36.36
36.31
36.258
36.205
36.151
36.096
36.041
35.988
35.937
35.891
35.849
35.814
35.783
35.758
35.736
35.716
35.697
35.679
35.661
35.645
35.628
35.612
35.596
35.581
35.571
35.565
35.563
35.564
35.566
35.565
35.561
35.553
35.54
35.525
35.507
35.486
35.463
35.438
35.411
35.381
35.349
35.314
35.277
35.239
35.198
35.155
35.109
35.059
35.005
34.948
34.891
34.836
34.784
34.736
34.691
34.649
34.608
34.568
34.529
34.491
34.454
34.419
34.388
34.36
34.335
34.314
34.298
34.286
34.278
34.274
34.272
34.27
34.266
34.261
34.252
34.241
34.228
34.214
34.197
34.178
34.156
34.133
34.108
34.082
34.057
34.031
34.006
33.983
33.961
33.938
33.913
33.888
33.862
33.836
33.814
33.795
33.781
33.773
33.769
33.772
33.781
33.797
33.822
33.858
33.909
33.978
34.067
34.177
34.307
34.456
34.619
34.793
34.974
35.158
35.34
35.517
35.685
35.842
35.986
36.117
36.236
36.34
36.432
36.509
36.574
36.628
36.672
36.708
36.737
36.759
36.773
36.777
36.773
36.762
36.744
36.723
36.699
36.674
36.647
36.619
36.59
36.561
36.534
36.51
36.488
36.469
36.453
36.438
36.424
36.41
36.396
36.38
36.364
36.348
36.331
36.314
36.296
36.278
36.26
36.241
36.22
36.198
36.171
36.14
36.103
36.06
36.012
35.96
35.905
35.848
35.79
35.731
35.673
35.616
35.561
35.511
35.467
35.429
35.396
35.369
35.345
35.324
35.306
35.291
35.28
35.274
35.274
35.279
35.287
35.297
35.309
35.321
35.333
35.343
35.349
35.352
35.351
35.345
35.334
35.318
35.297
35.274
35.248
35.223
35.196
35.167
35.137
35.103
35.065
35.023
34.979
34.932
34.882
34.831
34.778
34.726
34.677
34.631
34.588
34.549
34.511
34.475
34.439
34.4
34.36
34.319
34.277
34.236
34.197
34.163
34.134
34.11
34.089
34.069
34.049
34.029
34.01
33.991
33.973
33.956
33.941
33.927
33.914
33.9
33.886
33.872
33.856
33.838
33.818
33.796
33.77
33.743
33.714
33.687
33.663
33.645
33.634
33.631
33.636
33.648
33.67
33.701
33.743
33.796
33.859
33.935
34.024
34.129
34.249
34.385
34.534
34.693
34.86
35.03
35.201
35.37
35.534
35.69
35.836
35.972
36.098
36.213
36.319
36.415
36.501
36.575
36.638
36.687
36.724
36.748
36.761
36.763
36.755
36.739
36.715
36.687
36.657
36.627
36.599
36.574
36.552
36.531
36.512
36.494
36.478
36.463
36.447
36.43
36.412
36.393
36.374
36.355
36.337
36.321
36.306
36.294
36.281
36.267
36.249
36.226
36.197
36.162
36.123
36.08
36.033
35.983
35.931
35.878
35.824
35.772
35.722
35.675
35.631
35.59
35.553
35.52
35.491
35.466
35.446
35.431
35.421
35.415
35.412
35.411
35.413
35.415
35.419
35.424
35.429
35.435
35.439
35.439
35.435
35.428
35.416
35.402
35.386
35.368
35.35
35.331
35.31
35.288
35.264
35.238
35.21
35.181
35.151
35.121
35.089
35.057
35.023
34.989
34.956
34.924
34.892
34.861
34.827
34.791
34.753
34.713
34.672
34.631
34.591
34.55
34.511
34.474
34.439
34.406
34.375
34.347
34.32
34.297
34.276
34.255
34.233
34.21
34.184
34.158
34.131
34.106
34.083
34.061
34.04
34.019
33.998
33.975
33.951
33.926
33.9
33.874
33.851
33.829
33.811
33.797
33.789
33.788
33.798
33.819
33.854
33.903
33.967
34.047
34.143
34.254
34.38
34.519
34.67
34.83
34.995
35.163
35.331
35.497
35.658
35.813
35.961
36.099
36.227
36.342
36.442
36.529
36.603
36.663
36.706
36.733
36.744
36.739
36.723
36.697
36.666
36.632
36.599
36.571
36.55
36.536
36.531
36.533
36.543
36.559
36.58
36.603
36.628
36.65
36.667
36.679
36.686
36.687
36.682
36.673
36.66
36.644
36.626
36.606
36.587
36.568
36.548
36.527
36.502
36.474
36.439
36.4
36.356
36.31
36.263
36.216
36.17
36.124
36.077
36.031
35.986
35.942
35.902
35.864
35.828
35.795
35.762
35.729
35.698
35.668
35.642
35.62
35.603
35.591
35.584
35.58
35.578
35.575
35.571
35.565
35.555
35.542
35.526
35.508
35.491
35.475
35.463
35.454
35.447
35.441
35.434
35.426
35.415
35.402
35.386
35.368
35.348
35.325
35.3
35.271
35.237
35.199
35.157
35.111
35.064
35.014
34.964
34.911
34.856
34.799
34.74
34.681
34.625
34.572
34.524
34.483
34.448
34.417
34.389
34.361
34.333
34.306
34.28
34.255
34.233
34.214
34.197
34.182
34.167
34.152
34.135
34.116
34.095
34.07
34.044
34.016
33.989
33.965
33.944
33.926
33.912
33.9
33.89
33.878
33.866
33.855
33.846
33.842
33.847
33.863
33.894
33.942
34.009
34.094
34.196
34.313
34.446
34.591
34.749
34.916
35.091
35.269
35.448
35.624
35.794
35.956
36.108
36.249
36.377
36.49
36.588
36.669
36.736
36.787
36.824
36.851
36.868
36.877
36.88
36.881
36.879
36.877
36.875
36.872
36.867
36.861
36.855
36.848
36.841
36.835
36.828
36.82
36.811
36.8
36.786
36.771
36.754
36.738
36.721
36.706
36.692
36.679
36.666
36.653
36.639
36.624
36.607
36.587
36.562
36.531
36.494
36.45
36.401
36.346
36.288
36.228
36.166
36.105
36.045
35.987
35.929
35.874
35.82
35.77
35.722
35.678
35.639
35.605
35.578
35.556
35.541
35.531
35.525
35.522
35.52
35.517
35.513
35.508
35.502
35.496
35.492
35.49
35.488
35.487
35.486
35.485
35.486
35.486
35.483
35.477
35.466
35.448
35.423
35.392
35.355
35.314
35.271
35.228
35.185
35.142
35.101
35.06
35.018
34.975
34.929
34.88
34.829
34.777
34.725
34.673
34.623
34.577
34.536
34.502
34.474
34.451
34.431
34.411
34.391
34.369
34.346
34.322
34.298
34.274
34.252
34.231
34.212
34.193
34.175
34.158
34.141
34.124
34.105
34.085
34.064
34.042
34.019
33.995
33.971
33.948
33.927
33.908
33.891
33.875
33.859
33.843
33.825
33.806
33.786
33.766
33.747
33.73
33.718
33.71
33.708
33.713
33.727
33.751
33.787
33.838
33.903
33.984
34.08
34.193
34.322
34.466
34.623
34.792
34.969
35.148
35.324
35.493
35.651
35.796
35.927
36.044
36.147
36.239
36.319
36.388
36.446
36.494
36.533
36.565
36.588
36.604
36.61
36.606
36.594
36.574
36.55
36.525
36.499
36.475
36.454
36.436
36.422
36.411
36.403
36.396
36.391
36.385
36.379
36.37
36.359
36.346
36.333
36.32
36.308
36.296
36.284
36.27
36.255
36.238
36.219
36.198
36.175
36.149
36.12
36.086
36.05
36.01
35.967
35.922
35.876
35.829
35.782
35.733
35.681
35.627
35.571
35.515
35.461
35.41
35.363
35.321
35.285
35.253
35.226
35.204
35.186
35.174
35.166
35.162
35.158
35.15
35.135
35.11
35.078
35.041
35.004
34.97
34.94
34.917
34.899
34.888
34.883
34.882
34.884
34.889
34.894
34.9
34.906
34.91
34.914
34.915
34.912
34.904
34.891
34.871
34.846
34.813
34.774
34.729
34.68
34.63
34.58
34.531
34.485
34.44
34.396
34.352
34.309
34.266
34.226
34.19
34.158
34.13
34.107
34.087
34.072
34.059
34.047
34.036
34.025
34.013
34.0
33.986
33.97
33.952
33.931
33.909
33.887
33.867
33.847
33.829
33.812
33.794
33.775
33.754
33.731
33.704
33.677
33.649
33.622
33.597
33.573
33.55
33.527
33.504
33.479
33.454
33.43
33.409
33.394
33.386
33.389
33.404
33.436
33.486
33.556
33.646
33.754
33.88
34.021
34.173
34.336
34.504
34.676
34.848
35.02
35.189
35.352
35.508
35.652
35.783
35.899
35.999
36.084
36.156
36.215
36.263
36.3
36.327
36.345
36.357
36.361
36.36
36.352
36.339
36.32
36.296
36.269
36.24
36.21
36.18
36.152
36.125
36.101
36.078
36.058
36.04
36.023
36.007
35.992
35.977
35.962
35.945
35.928
35.91
35.893
35.877
35.863
35.851
35.84
35.829
35.815
35.798
35.776
35.749
35.717
35.681
35.642
35.601
35.559
35.514
35.468
35.421
35.374
35.329
35.285
35.243
35.203
35.165
35.129
35.096
35.068
35.043
35.023
35.009
35.002
35.001
35.006
35.015
35.027
35.039
35.051
35.06
35.068
35.075
35.08
35.084
35.086
35.087
35.087
35.088
35.087
35.084
35.075
35.061
35.04
35.013
34.98
34.943
34.903
34.862
34.823
34.791
34.765
34.746
34.73
34.713
34.693
34.668
34.639
34.604
34.564
34.518
34.467
34.411
34.352
34.292
34.233
34.175
34.121
34.07
34.023
33.978
33.936
33.897
33.862
33.832
33.806
33.784
33.767
33.752
33.741
33.731
33.723
33.716
33.709
33.702
33.694
33.685
33.671
33.654
33.634
33.612
33.587
33.56
33.532
33.503
33.472
33.442
33.414
33.39
33.371
33.362
33.365
33.385
33.423
33.481
33.559
33.654
33.766
33.893
34.033
34.186
34.351
34.527
34.712
34.905
35.101
35.298
35.492
35.68
35.856
36.017
36.162
36.287
36.392
36.478
36.546
36.596
36.632
36.654
36.665
36.665
36.656
36.639
36.618
36.592
36.564
36.532
36.499
36.465
36.43
36.394
36.359
36.325
36.294
36.268
36.247
36.23
36.217
36.204
36.192
36.179
36.165
36.152
36.139
36.126
36.112
36.098
36.082
36.066
36.048
36.029
36.009
35.986
35.96
35.931
35.899
35.862
35.822
35.778
35.731
35.68
35.627
35.573
35.519
35.466
35.417
35.371
35.331
35.296
35.265
35.237
35.213
35.193
35.177
35.168
35.164
35.166
35.174
35.185
35.198
35.209
35.217
35.222
35.222
35.219
35.213
35.207
35.201
35.195
35.189
35.181
35.17
35.156
35.139
35.119
35.096
35.07
35.042
35.011
34.98
34.947
34.913
34.879
34.844
34.808
34.77
34.731
34.689
34.645
34.599
34.552
34.505
34.457
34.408
34.358
34.308
34.258
34.21
34.165
34.124
34.088
34.057
34.031
34.008
33.988
33.97
33.951
33.931
33.91
33.888
33.866
33.844
33.822
33.799
33.773
33.744
33.71
33.674
33.637
33.602
33.572
33.55
33.54
33.544
33.562
33.595
33.644
33.709
33.789
33.885
33.995
34.12
34.258
34.407
34.569
34.739
34.917
35.099
35.281
35.46
35.631
35.794
35.944
36.082
36.206
36.314
36.408
36.488
36.552
36.602
36.638
36.661
36.673
36.678
36.675
36.666
36.653
36.635
36.612
36.587
36.561
36.535
36.51
36.487
36.465
36.445
36.427
36.411
36.397
36.385
36.374
36.365
36.357
36.349
36.34
36.329
36.316
36.301
36.285
36.268
36.249
36.228
36.205
36.18
36.153
36.125
36.095
36.062
36.026
35.986
35.941
35.892
35.84
35.787
35.732
35.678
35.626
35.576
35.53
35.485
35.443
35.403
35.367
35.333
35.303
35.278
35.258
35.243
35.232
35.226
35.225
35.227
35.232
35.24
35.249
35.259
35.268
35.276
35.282
35.284
35.285
35.283
35.28
35.276
35.27
35.26
35.246
35.23
35.211
35.191
35.169
35.147
35.124
35.099
35.074
35.048
35.022
34.995
34.968
34.941
34.913
34.884
34.854
34.821
34.784
34.744
34.701
34.658
34.615
34.574
34.535
34.498
34.462
34.426
34.389
34.352
34.316
34.28
34.246
34.213
34.181
34.15
34.119
34.088
34.057
34.025
33.993
33.96
33.927
33.894
33.863
33.836
33.816
33.805
33.807
33.824
33.858
33.911
33.983
34.073
34.179
34.301
34.436
34.584
34.742
34.907
35.077
35.249
35.42
35.587
35.748
35.899
36.04
36.169
36.285
36.388
36.476
36.55
36.609
36.656
36.69
36.716
36.734
36.746
36.752
36.753
36.747
36.735
36.718
36.697
36.673
36.648
36.623
36.599
36.576
36.554
36.535
36.519
36.507
36.498
36.491
36.483
36.473
36.459
36.441
36.42
36.395
36.368
36.338
36.308
36.277
36.247
36.218
36.19
36.163
36.134
36.103
36.069
36.032
35.989
35.943
35.893
35.841
35.789
35.738
35.69
35.643
35.598
35.554
35.51
35.467
35.423
35.38
35.335
35.288
35.241
35.196
35.156
35.123
35.098
35.082
35.075
35.078
35.088
35.105
35.125
35.146
35.166
35.186
35.203
35.218
35.23
35.24
35.245
35.246
35.242
35.231
35.214
35.192
35.164
35.131
35.096
35.058
35.021
34.984
34.949
34.915
34.884
34.853
34.821
34.787
34.749
34.706
34.659
34.608
34.556
34.504
34.453
34.404
34.356
34.307
34.258
34.208
34.157
34.107
34.061
34.019
33.982
33.95
33.923
33.9
33.879
33.859
33.838
33.817
33.796
33.774
33.754
33.736
33.721
33.711
33.709
33.715
33.733
33.762
33.803
33.855
33.921
33.999
34.092
34.199
34.319
34.453
34.598
34.755
34.921
35.093
35.266
35.437
35.602
35.759
35.907
36.044
36.169
36.281
36.38
36.465
36.538
36.599
36.65
36.69
36.722
36.744
36.756
36.76
36.754
36.739
36.718
36.691
36.662
36.632
36.605
36.58
36.559
36.543
36.531
36.523
36.516
36.509
36.5
36.488
36.474
36.457
36.439
36.419
36.399
36.379
36.36
36.342
36.326
36.31
36.295
36.279
36.261
36.241
36.217
36.187
36.151
36.107
36.059
36.006
35.952
35.897
35.842
35.788
35.734
35.679
35.624
35.568
35.512
35.458
35.406
35.36
35.32
35.288
35.262
35.243
35.229
35.221
35.218
35.218
35.219
35.221
35.22
35.218
35.212
35.205
35.197
35.19
35.182
35.176
35.169
35.163
35.155
35.146
35.134
35.121
35.105
35.088
35.069
35.048
35.027
35.004
34.981
34.956
34.929
34.898
34.865
34.827
34.784
34.737
34.687
34.634
34.581
34.527
34.476
34.428
34.385
34.346
34.31
34.275
34.239
34.202
34.165
34.129
34.096
34.066
34.038
34.014
33.991
33.969
33.946
33.922
33.895
33.867
33.837
33.806
33.775
33.745
33.715
33.688
33.662
33.64
33.619
33.601
33.585
33.572
33.562
33.558
33.561
33.574
33.602
33.647
33.71
33.792
33.894
34.015
34.153
34.305
34.469
34.642
34.82
35.004
35.19
35.377
35.561
35.74
35.909
36.068
36.213
36.343
36.457
36.555
36.638
36.706
36.758
36.795
36.818
36.831
36.836
36.834
36.827
36.817
36.803
36.787
36.77
36.75
36.729
36.705
36.679
36.652
36.625
36.6
36.578
36.56
36.547
36.537
36.53
36.523
36.516
