Trial 3:3back
37.706
37.671
37.63
37.586
37.539
37.49
37.441
37.392
37.346
37.302
37.262
37.225
37.192
37.164
37.141
37.123
37.109
37.099
37.091
37.085
37.082
37.08
37.08
37.082
37.083
37.083
37.081
37.076
37.067
37.052
37.032
37.006
36.974
36.938
36.899
36.856
36.813
36.771
36.731
36.695
36.662
36.633
36.609
36.587
36.569
36.553
36.538
36.526
36.514
36.503
36.493
36.484
36.476
36.471
36.466
36.464
36.464
36.465
36.467
36.468
36.469
36.468
36.466
36.461
36.456
36.449
36.442
36.434
36.425
36.415
36.404
36.393
36.381
36.368
36.355
36.34
36.324
36.307
36.289
36.268
36.245
36.221
36.195
36.167
36.138
36.106
36.074
36.04
36.004
35.969
35.933
35.898
35.865
35.834
35.804
35.778
35.756
35.736
35.719
35.705
35.695
35.691
35.696
35.71
35.731
35.754
35.778
35.798
35.811
35.816
35.81
35.793
35.765
35.726
35.679
35.626
35.568
35.51
35.453
35.4
35.352
35.312
35.278
35.252
35.234
35.222
35.217
35.215
35.216
35.219
35.221
35.221
35.22
35.216
35.208
35.198
35.186
35.173
35.159
35.146
35.134
35.124
35.114
35.105
35.097
35.089
35.08
35.071
35.061
35.049
35.037
35.023
35.009
34.995
34.981
34.969
34.958
34.948
34.94
34.933
34.927
34.922
34.918
34.914
34.908
34.901
34.892
34.881
34.869
34.856
34.843
34.831
34.819
34.807
34.796
34.786
34.776
34.766
34.756
34.746
34.737
34.729
34.722
34.717
34.714
34.712
34.71
34.709
34.708
34.707
34.705
34.702
34.697
34.692
34.686
34.679
34.67
34.661
34.651
34.64
34.63
34.621
34.612
34.604
34.596
34.589
34.582
34.577
34.572
34.568
34.564
34.562
34.562
34.563
34.565
34.568
34.571
34.576
34.58
34.583
34.584
34.583
34.578
34.571
34.559
34.545
34.527
34.509
34.489
34.471
34.453
34.439
34.428
34.421
34.42
34.427
34.444
34.469
34.497
34.526
34.553
34.574
34.586
34.59
34.584
34.57
34.549
34.524
34.497
34.47
34.448
34.433
34.428
34.435
34.456
34.491
34.543
34.61
34.694
34.793
34.907
35.035
35.175
35.326
35.486
35.652
35.822
35.991
36.157
36.317
36.469
36.613
36.746
36.867
36.976
37.07
37.152
37.219
37.271
37.311
37.337
37.351
37.355
37.349
37.334
37.312
37.284
37.251
37.214
37.175
37.135
37.095
37.055
37.017
36.982
36.949
36.921
36.895
36.874
36.855
36.841
36.829
36.822
36.817
36.814
36.813
36.813
36.813
36.812
36.811
36.808
36.803
36.796
36.787
36.777
36.764
36.748
36.728
36.703
36.675
36.642
36.606
36.566
36.524
36.48
36.435
36.39
36.347
36.306
36.27
36.239
36.212
36.192
36.177
36.169
36.165
36.167
36.172
36.18
36.189
36.198
36.207
36.215
36.22
36.224
36.226
36.226
36.224
36.221
36.217
36.21
36.202
36.191
36.177
36.16
36.14
36.118
36.094
36.069
36.043
36.016
35.99
35.965
35.941
35.918
35.897
35.878
35.861
35.845
35.829
35.814
35.799
35.783
35.767
35.749
35.731
35.71
35.687
35.662
35.635
35.607
35.579
35.551
35.523
35.495
35.468
35.442
35.417
35.392
35.37
35.349
35.331
35.315
35.3
35.288
35.277
35.268
35.26
35.253
35.247
35.242
35.239
35.237
35.236
35.236
35.235
35.233
35.229
35.223
35.216
35.207
35.196
35.182
35.167
35.15
35.132
35.114
35.096
35.077
35.06
35.045
35.03
35.018
35.005
34.992
34.978
34.964
34.949
34.934
34.919
34.905
34.891
34.88
34.87
34.862
34.856
34.852
34.85
34.848
34.846
34.844
34.84
34.834
34.825
34.815
34.802
34.787
34.772
34.755
34.739
34.723
34.709
34.697
34.687
34.679
34.674
34.67
34.667
34.666
34.664
34.661
34.658
34.654
34.649
34.645
34.64
34.635
34.629
34.622
34.614
34.605
34.595
34.584
34.572
34.56
34.548
34.537
34.527
34.519
34.513
34.508
34.505
34.504
34.503
34.502
34.501
34.499
34.498
34.496
34.493
34.489
34.485
34.481
34.477
34.473
34.469
34.467
34.466
34.466
34.465
34.464
34.46
34.455
34.447
34.438
34.426
34.413
34.399
34.386
34.374
34.364
34.355
34.348
34.343
34.339
34.338
34.337
34.336
34.335
34.333
34.328
34.322
34.314
34.303
34.292
34.281
34.27
34.262
34.257
34.255
34.258
34.266
34.28
34.302
34.333
34.372
34.422
34.48
34.549
34.627
34.715
34.813
34.921
35.04
35.17
35.309
35.457
35.613
35.773
35.936
36.098
36.257
36.41
36.553
36.683
36.799
36.899
36.983
37.05
37.099
37.132
37.15
37.154
37.146
37.128
37.101
37.068
37.029
36.988
36.946
36.903
36.862
36.822
36.783
36.746
36.711
36.678
36.647
36.618
36.59
36.565
36.541
36.521
36.502
36.484
36.468
36.452
36.438
36.424
36.411
36.398
36.383
36.368
36.352
36.335
36.318
36.303
36.288
36.274
36.261
36.246
36.23
36.212
36.191
36.166
36.139
36.111
36.081
36.051
36.023
35.997
35.976
35.959
35.948
35.941
35.938
35.938
35.942
35.949
35.958
35.967
35.977
35.986
35.994
36.002
36.009
36.016
36.022
36.028
36.033
36.036
36.039
36.039
36.035
36.028
36.016
35.999
35.979
35.954
35.925
35.894
35.861
35.828
35.795
35.763
35.733
35.705
35.679
35.654
35.631
35.61
35.589
35.568
35.548
35.527
35.506
35.484
35.462
35.443
35.43
35.423
35.422
35.422
35.424
35.424
35.422
35.416
35.406
35.391
35.371
35.347
35.32
35.289
35.258
35.226
35.194
35.163
35.135
35.108
35.085
35.064
35.046
35.031
35.02
35.011
35.005
35.001
34.998
34.995
34.992
34.989
34.986
34.982
34.977
34.971
34.966
34.96
34.955
34.951
34.946
34.942
34.938
34.934
34.929
34.923
34.915
34.904
34.891
34.876
34.859
34.84
34.82
34.801
34.782
34.766
34.751
34.739
34.731
34.726
34.725
34.727
34.73
34.733
34.737
34.74
34.741
34.742
34.74
34.736
34.731
34.723
34.716
34.708
34.701
34.695
34.69
34.685
34.68
34.674
34.667
34.657
34.645
34.631
34.616
34.601
34.585
34.568
34.552
34.535
34.52
34.505
34.492
34.481
34.472
34.463
34.453
34.442
34.43
34.419
34.408
34.4
34.394
34.39
34.39
34.391
34.395
34.399
34.404
34.408
34.412
34.415
34.417
34.419
34.419
34.417
34.413
34.409
34.403
34.397
34.39
34.382
34.375
34.368
34.36
34.353
34.344
34.336
34.327
34.317
34.307
34.296
34.285
34.275
34.265
34.256
34.248
34.242
34.238
34.235
34.233
34.232
34.232
34.234
34.24
34.25
34.266
34.292
34.328
34.376
34.438
34.514
34.606
34.712
34.834
34.97
35.118
35.277
35.444
35.617
35.792
35.967
36.138
36.302
36.458
36.605
36.739
36.861
36.97
37.063
37.141
37.205
37.254
37.288
37.307
37.313
37.306
37.288
37.261
37.226
37.187
37.143
37.098
37.053
37.008
36.966
36.927
36.89
36.855
36.824
36.795
36.768
36.742
36.718
36.695
36.674
36.655
36.639
36.625
36.615
36.606
36.6
36.597
36.596
36.595
36.595
36.593
36.589
36.583
36.573
36.56
36.544
36.525
36.502
36.475
36.445
36.412
36.377
36.342
36.306
36.271
36.237
36.205
36.176
36.149
36.125
36.103
36.085
36.069
36.057
36.049
36.044
36.043
36.045
36.049
36.055
36.062
36.07
36.076
36.081
36.085
36.087
36.087
36.085
36.082
36.076
36.07
36.062
36.054
36.045
36.034
36.022
36.009
35.993
35.973
35.95
35.924
35.895
35.864
35.831
35.797
35.763
35.73
35.699
35.67
35.645
35.622
35.601
35.582
35.564
35.546
35.527
35.508
35.487
35.464
35.441
35.416
35.391
35.366
35.342
35.319
35.298
35.279
35.263
35.249
35.235
35.223
35.211
35.201
35.191
35.181
35.172
35.162
35.153
35.143
35.133
35.123
35.113
35.103
35.093
35.082
35.071
35.059
35.046
35.033
35.021
35.008
34.996
34.984
34.973
34.964
34.955
34.948
34.941
34.935
34.929
34.923
34.917
34.911
34.906
34.901
34.895
34.889
34.884
34.877
34.869
34.86
34.849
34.836
34.821
34.805
34.788
34.771
34.754
34.738
34.723
34.71
34.698
34.688
34.68
34.673
34.669
34.666
34.665
34.663
34.661
34.658
34.653
34.647
34.638
34.629
34.62
34.611
34.602
34.594
34.588
34.582
34.579
34.577
34.576
34.577
34.578
34.579
34.579
34.578
34.576
34.57
34.562
34.552
34.541
34.529
34.516
34.503
34.489
34.475
34.462
34.45
34.441
34.432
34.424
34.418
34.414
34.41
34.409
34.409
34.411
34.414
34.417
34.422
34.425
34.427
34.427
34.425
34.42
34.412
34.401
34.388
34.373
34.357
34.342
34.327
34.314
34.301
34.289
34.279
34.269
34.261
34.253
34.247
34.242
34.238
34.236
34.235
34.235
34.237
34.242
34.248
34.256
34.265
34.273
34.281
34.288
34.294
34.299
34.307
34.317
34.332
34.353
34.384
34.424
34.476
34.541
34.62
34.714
34.823
34.947
35.086
35.237
35.398
35.566
35.74
35.914
36.087
36.254
36.415
36.567
36.707
36.833
36.942
37.034
37.107
37.164
37.204
37.228
37.239
37.236
37.222
37.199
37.168
37.13
37.089
37.044
36.998
36.952
36.906
36.861
36.818
36.778
36.74
36.704
36.672
36.642
36.616
36.591
36.57
36.55
36.533
36.517
36.502
36.489
36.477
36.466
36.455
36.445
36.435
36.425
36.415
36.404
36.391
36.377
36.36
36.342
36.321
36.298
36.272
36.245
36.217
36.187
36.156
36.125
36.093
36.062
36.034
36.009
35.987
35.969
35.954
35.943
35.934
35.929
35.927
35.927
35.929
35.933
35.939
35.946
35.953
35.96
35.968
35.974
35.981
35.987
35.992
35.994
35.992
35.987
35.979
35.966
35.952
35.934
35.915
35.896
35.876
35.856
35.835
35.815
35.794
35.772
35.75
35.727
35.703
35.676
35.646
35.612
35.577
35.539
35.499
35.461
35.423
35.388
35.355
35.327
35.303
35.283
35.268
35.257
35.25
35.245
35.241
35.238
35.234
35.228
35.221
35.211
35.199
35.185
35.17
35.155
35.14
35.126
35.112
35.098
35.083
35.069
35.055
35.041
35.027
35.014
35.0
34.988
34.976
34.966
34.957
34.949
34.944
34.939
34.935
34.932
34.929
34.924
34.917
34.91
34.901
34.892
34.881
34.87
34.858
34.846
34.836
34.825
34.816
34.807
34.799
34.791
34.784
34.779
34.776
34.773
34.771
34.77
34.77
34.771
34.773
34.774
34.774
34.773
34.77
34.764
34.757
34.747
34.735
34.721
34.708
34.695
34.682
34.671
34.662
34.654
34.647
34.642
34.637
34.634
34.63
34.625
34.619
34.61
34.598
34.582
34.564
34.544
34.522
34.501
34.479
34.46
34.443
34.43
34.421
34.417
34.416
34.419
34.424
34.43
34.438
34.444
34.449
34.451
34.452
34.45
34.445
34.439
34.431
34.421
34.41
34.399
34.387
34.376
34.366
34.357
34.351
34.347
34.344
34.342
34.341
34.339
34.337
34.334
34.331
34.327
34.323
34.318
34.312
34.306
34.298
34.29
34.281
34.273
34.265
34.258
34.252
34.247
34.242
34.238
34.235
34.233
34.233
34.236
34.243
34.256
34.274
34.3
34.333
34.377
34.431
34.497
34.577
34.67
34.777
34.897
35.028
35.171
35.323
35.482
35.645
35.811
35.976
36.139
36.296
36.445
36.584
36.71
36.823
36.922
37.004
37.071
37.122
37.156
37.177
37.183
37.177
37.159
37.131
37.094
37.051
37.002
36.949
36.894
36.839
36.786
36.736
36.689
36.646
36.608
36.572
36.54
36.51
36.482
36.455
36.429
36.404
36.378
36.352
36.326
36.299
36.272
36.244
36.217
36.189
36.16
36.13
36.099
36.068
36.036
36.004
35.972
35.942
35.914
35.889
35.866
35.845
35.826
35.808
35.791
35.776
35.764
35.754
35.747
35.743
35.742
35.744
35.75
35.758
35.769
35.781
35.795
35.809
35.824
35.836
35.847
35.856
35.863
35.868
35.871
35.873
35.872
35.87
35.865
35.859
35.85
35.839
35.825
35.808
35.789
35.769
35.747
35.725
35.702
35.679
35.656
35.634
35.611
35.589
35.567
35.544
35.521
35.496
35.469
35.44
35.409
35.376
35.343
35.31
35.28
35.252
35.227
35.207
35.19
35.177
35.166
35.158
35.153
35.15
35.148
35.148
35.148
35.147
35.146
35.144
35.141
35.138
35.133
35.128
35.122
35.114
35.106
35.096
35.084
35.071
35.057
35.043
35.028
35.014
34.999
34.985
34.971
34.958
34.946
34.934
34.923
34.911
34.899
34.887
34.876
34.864
34.853
34.841
34.831
34.822
34.813
34.806
34.8
34.793
34.787
34.781
34.775
34.77
34.765
34.76
34.756
34.751
34.746
34.741
34.737
34.732
34.728
34.725
34.72
34.716
34.711
34.705
34.697
34.688
34.679
34.669
34.659
34.65
34.641
34.633
34.626
34.621
34.616
34.612
34.609
34.606
34.603
34.598
34.592
34.584
34.574
34.561
34.546
34.529
34.509
34.489
34.468
34.448
34.43
34.414
34.401
34.391
34.385
34.383
34.383
34.386
34.389
34.393
34.397
34.399
34.399
34.397
34.391
34.383
34.373
34.362
34.349
34.336
34.322
34.309
34.297
34.287
34.279
34.273
34.268
34.266
34.265
34.265
34.263
34.26
34.254
34.246
34.237
34.226
34.215
34.204
34.193
34.181
34.17
34.159
34.148
34.139
34.131
34.126
34.123
34.125
34.131
34.144
34.165
34.195
34.236
34.289
34.355
34.434
34.527
34.634
34.755
34.889
35.034
35.189
35.352
35.521
35.695
35.871
36.047
36.219
36.386
36.544
36.692
36.828
36.949
37.056
37.147
37.222
37.282
37.326
37.356
37.371
37.374
37.364
37.345
37.315
37.278
37.234
37.185
37.133
37.08
37.028
36.978
36.93
36.887
36.849
36.815
36.784
36.758
36.737
36.719
36.704
36.691
36.678
36.665
36.651
36.636
36.619
36.6
36.579
36.557
36.533
36.507
36.48
36.453
36.425
36.396
36.366
36.336
36.306
36.275
36.244
36.214
36.183
36.153
36.124
36.095
36.069
36.044
36.023
36.005
35.989
35.977
35.967
35.961
35.956
35.953
35.952
35.952
35.953
35.954
35.955
35.956
35.956
35.955
35.954
35.951
35.948
35.943
35.939
35.934
35.929
35.925
35.92
35.915
35.908
35.901
35.892
35.882
35.87
35.855
35.837
35.818
35.796
35.773
35.749
35.724
35.698
35.671
35.641
35.611
35.58
35.549
35.517
35.485
35.454
35.425
35.398
35.373
35.352
35.333
35.318
35.304
35.292
35.282
35.271
35.259
35.244
35.228
35.209
35.187
35.164
35.139
35.114
35.088
35.064
35.042
35.022
35.004
34.988
34.974
34.963
34.955
34.949
34.947
34.947
34.948
34.951
34.955
34.957
34.958
34.959
34.958
34.956
34.953
34.948
34.942
34.935
34.927
34.917
34.906
34.895
34.884
34.872
34.862
34.851
34.841
34.831
34.821
34.811
34.801
34.79
34.779
34.768
34.757
34.747
34.736
34.725
34.715
34.706
34.698
34.692
34.687
34.684
34.681
34.678
34.676
34.673
34.67
34.667
34.662
34.657
34.652
34.645
34.637
34.628
34.618
34.608
34.598
34.59
34.582
34.577
34.572
34.567
34.562
34.556
34.549
34.54
34.53
34.518
34.505
34.491
34.478
34.465
34.454
34.445
34.44
34.438
34.439
34.442
34.447
34.452
34.456
34.457
34.453
34.438
34.413
34.378
34.338
34.295
34.252
34.212
34.179
34.155
34.139
34.134
34.137
34.149
34.167
34.189
34.213
34.235
34.256
34.274
34.288
34.298
34.305
34.307
34.306
34.301
34.294
34.286
34.276
34.266
34.256
34.246
34.238
34.231
34.225
34.22
34.217
34.215
34.216
34.221
34.231
34.247
34.273
34.309
34.358
34.419
34.493
34.581
34.683
34.799
34.927
35.067
35.217
35.375
35.539
35.709
35.88
36.051
36.218
36.378
36.529
36.668
36.793
36.901
36.992
37.067
37.126
37.171
37.201
37.219
37.225
37.22
37.206
37.183
37.152
37.115
37.072
37.025
36.976
36.925
36.875
36.826
36.78
36.737
36.699
36.664
36.633
36.606
36.581
36.559
36.539
36.519
36.499
36.478
36.456
36.434
36.411
36.388
36.364
36.341
36.318
36.295
36.275
36.255
36.236
36.216
36.195
36.173
36.148
36.12
36.091
36.059
36.028
35.997
35.968
35.943
35.922
35.906
35.893
35.885
35.88
35.879
35.881
35.884
35.89
35.898
35.908
35.92
35.932
35.944
35.955
35.967
35.977
35.987
35.994
35.998
36.0
35.999
35.996
35.991
35.983
35.974
35.964
35.952
35.938
35.922
35.904
35.884
35.861
35.837
35.811
35.784
35.757
35.729
35.701
35.673
35.646
35.621
35.596
35.571
35.547
35.523
35.497
35.472
35.446
35.421
35.397
35.375
35.353
35.333
35.314
35.296
35.278
35.261
35.244
35.227
35.21
35.194
35.177
35.161
35.143
35.125
35.106
35.088
35.07
35.054
35.041
35.032
35.025
35.021
35.019
35.021
35.024
35.027
35.031
35.033
35.034
35.032
35.026
35.017
35.003
34.986
34.966
34.944
34.922
34.9
34.879
34.86
34.843
34.829
34.817
34.808
34.8
34.795
34.791
34.788
34.785
34.782
34.778
34.773
34.768
34.762
34.756
34.749
34.741
34.73
34.718
34.705
34.691
34.677
34.663
34.651
34.64
34.63
34.622
34.615
34.611
34.608
34.607
34.606
34.606
34.607
34.607
34.607
34.605
34.601
34.595
34.587
34.578
34.567
34.556
34.545
34.533
34.52
34.508
34.496
34.484
34.473
34.462
34.453
34.444
34.436
34.428
34.42
34.413
34.407
34.402
34.397
34.394
34.391
34.388
34.385
34.381
34.377
34.371
34.365
34.358
34.35
34.342
34.333
34.323
34.313
34.304
34.296
34.291
34.289
34.291
34.295
34.302
34.311
34.321
34.331
34.341
34.35
34.357
34.361
34.362
34.359
34.352
34.343
34.33
34.316
34.301
34.285
34.269
34.253
34.238
34.225
34.213
34.204
34.196
34.193
34.193
34.201
34.215
34.237
34.269
34.31
34.363
34.427
34.504
34.592
34.691
34.801
34.921
35.05
35.189
35.333
35.484
35.638
35.796
35.953
36.108
36.258
36.401
36.535
36.658
36.768
36.865
36.948
37.015
37.067
37.104
37.128
37.139
37.138
37.126
37.105
37.075
37.039
36.996
36.948
36.896
36.841
36.786
36.732
36.68
36.632
36.587
36.546
36.51
36.478
36.451
36.427
36.405
36.385
36.364
36.344
36.325
36.306
36.287
36.267
36.247
36.226
36.205
36.184
36.162
36.14
36.116
36.091
36.063
36.034
36.002
35.97
35.937
35.904
35.873
35.845
35.819
35.796
35.776
35.76
35.748
35.742
35.74
35.743
35.749
35.758
35.77
35.783
35.798
35.813
35.828
35.842
35.857
35.87
35.883
35.897
35.912
35.927
35.941
35.954
35.965
35.972
35.975
35.973
35.966
35.956
35.942
35.924
35.904
35.882
35.857
35.832
35.806
35.779
35.751
35.722
35.692
35.662
35.632
35.601
35.569
35.538
35.506
35.476
35.445
35.416
35.388
35.361
35.334
35.308
35.283
35.258
35.235
35.213
35.194
35.178
35.166
35.157
35.15
35.146
35.142
35.139
35.135
35.13
35.124
35.116
35.107
35.096
35.084
35.073
35.062
35.052
35.043
35.036
35.03
35.024
35.017
35.01
35.0
34.989
34.974
34.957
34.936
34.913
34.89
34.867
34.846
34.828
34.814
34.804
34.799
34.797
34.8
34.805
34.812
34.821
34.83
34.838
34.844
34.848
34.849
34.849
34.847
34.843
34.838
34.833
34.826
34.82
34.814
34.809
34.804
34.8
34.796
34.792
34.787
34.781
34.774
34.766
34.756
34.745
34.733
34.718
34.702
34.686
34.668
34.651
34.633
34.616
34.6
34.584
34.57
34.558
34.547
34.537
34.528
34.52
34.512
34.504
34.496
34.489
34.481
34.474
34.468
34.463
34.458
34.456
34.454
34.454
34.455
34.458
34.462
34.469
34.476
34.483
34.489
34.493
34.496
34.496
34.492
34.486
34.476
34.463
34.449
34.433
34.416
34.4
34.385
34.372
34.363
34.357
34.354
34.355
34.359
34.365
34.374
34.386
34.401
34.419
34.44
34.467
34.501
34.543
34.593
34.654
34.725
34.809
34.905
35.013
35.133
35.263
35.403
35.549
35.7
35.854
36.007
36.157
36.302
36.438
36.565
36.68
36.783
36.871
36.945
37.003
37.048
37.079
37.095
37.099
37.091
37.072
37.045
37.012
36.973
36.931
36.885
36.838
36.788
36.737
36.685
36.633
36.582
36.534
36.489
36.449
36.412
36.379
36.35
36.325
36.303
36.284
36.266
36.25
36.235
36.22
36.206
36.192
36.179
36.166
36.152
36.137
36.119
36.098
36.075
36.048
36.019
35.987
35.955
35.922
35.891
35.862
35.835
35.812
35.793
35.779
35.769
35.764
35.761
35.762
35.764
35.769
35.775
35.783
35.792
35.801
35.811
35.822
35.835
35.847
35.857
35.867
35.875
35.882
35.886
35.888
35.886
35.882
35.876
35.867
35.857
35.845
35.832
35.816
35.8
35.783
35.765
35.748
35.73
35.712
35.694
35.675
35.655
35.634
35.612
35.587
35.561
35.534
35.506
35.476
35.446
35.414
35.38
35.347
35.314
35.283
35.255
35.232
35.214
35.2
35.189
35.182
35.178
35.175
