Trial 3:3back
34.717
34.713
34.708
34.704
34.7
34.696
34.691
34.686
34.679
34.673
34.667
34.662
34.658
34.655
34.653
34.652
34.651
34.651
34.651
34.652
34.653
34.654
34.656
34.656
34.657
34.657
34.655
34.653
34.647
34.639
34.628
34.615
34.6
34.583
34.566
34.549
34.534
34.52
34.51
34.501
34.493
34.488
34.484
34.482
34.481
34.484
34.49
34.5
34.514
34.534
34.561
34.595
34.639
34.693
34.758
34.834
34.922
35.02
35.128
35.245
35.369
35.497
35.628
35.759
35.887
36.012
36.13
36.239
36.337
36.424
36.499
36.56
36.608
36.643
36.664
36.674
36.673
36.663
36.645
36.62
36.59
36.558
36.524
36.492
36.461
36.432
36.407
36.384
36.365
36.35
36.338
36.329
36.324
36.32
36.318
36.317
36.317
36.318
36.319
36.32
36.321
36.321
36.32
36.318
36.315
36.31
36.303
36.292
36.276
36.256
36.231
36.203
36.172
36.139
36.105
36.073
36.041
36.011
35.983
35.956
35.93
35.906
35.882
35.86
35.839
35.822
35.808
35.797
35.789
35.784
35.78
35.778
35.776
35.775
35.773
35.773
35.775
35.778
35.783
35.79
35.797
35.805
35.811
35.816
35.817
35.816
35.812
35.805
35.796
35.786
35.774
35.762
35.748
35.735
35.721
35.707
35.693
35.679
35.666
35.652
35.64
35.63
35.621
35.613
35.606
35.601
35.596
35.592
35.588
35.583
35.579
35.573
35.567
35.56
35.553
35.546
35.538
35.529
35.519
35.508
35.497
35.484
35.47
35.456
35.441
35.425
35.411
35.396
35.383
35.37
35.358
35.347
35.336
35.325
35.315
35.305
35.296
35.285
35.274
35.262
35.25
35.237
35.224
35.21
35.196
35.18
35.163
35.146
35.128
35.112
35.097
35.082
35.07
35.058
35.047
35.037
35.027
35.017
35.006
34.996
34.987
34.98
34.974
34.969
34.963
34.957
34.949
34.939
34.928
34.916
34.904
34.893
34.881
34.87
34.859
34.849
34.84
34.83
34.82
34.809
34.797
34.786
34.774
34.763
34.753
34.742
34.733
34.723
34.713
34.702
34.69
34.678
34.666
34.656
34.647
34.641
34.637
34.636
34.64
34.649
34.663
34.681
34.701
34.721
34.739
34.752
34.761
34.766
34.766
34.763
34.756
34.745
34.73
34.711
34.688
34.662
34.635
34.606
34.579
34.553
34.53
34.511
34.496
34.484
34.477
34.472
34.471
34.472
34.475
34.478
34.482
34.486
34.489
34.49
34.49
34.488
34.485
34.481
34.477
34.473
34.468
34.464
34.459
34.453
34.448
34.442
34.437
34.432
34.426
34.42
34.416
34.413
34.411
34.413
34.418
34.428
34.446
34.471
34.505
34.549
34.605
34.672
34.752
34.844
34.946
35.058
35.179
35.306
35.437
35.571
35.705
35.837
35.964
36.083
36.194
36.294
36.382
36.457
36.519
36.567
36.601
36.623
36.633
36.633
36.624
36.606
36.583
36.554
36.523
36.491
36.459
36.428
36.402
36.379
36.361
36.348
36.34
36.337
36.339
36.344
36.352
36.364
36.377
36.391
36.406
36.422
36.437
36.45
36.461
36.468
36.473
36.474
36.472
36.466
36.458
36.446
36.432
36.414
36.392
36.367
36.339
36.307
36.273
36.236
36.199
36.161
36.124
36.091
36.061
36.033
36.008
35.984
35.962
35.942
35.925
35.91
35.899
35.893
35.891
35.893
35.9
35.91
35.924
35.938
35.952
35.965
35.976
35.985
35.992
35.997
35.999
35.999
35.996
35.991
35.983
35.972
35.959
35.945
35.929
35.912
35.894
35.877
35.86
35.843
35.827
35.812
35.795
35.778
35.759
35.737
35.712
35.684
35.655
35.625
35.596
35.569
35.544
35.522
35.504
35.49
35.48
35.473
35.47
35.469
35.469
35.47
35.47
35.469
35.468
35.466
35.462
35.457
35.45
35.442
35.432
35.421
35.407
35.393
35.377
35.361
35.344
35.327
35.311
35.297
35.283
35.271
35.261
35.253
35.247
35.243
35.241
35.239
35.24
35.241
35.243
35.244
35.245
35.245
35.244
35.242
35.238
35.234
35.227
35.219
35.209
35.197
35.183
35.168
35.152
35.135
35.12
35.105
35.093
35.082
35.074
35.068
35.062
35.057
35.051
35.045
35.037
35.029
35.022
35.015
35.009
35.004
35.001
34.999
34.998
34.996
34.994
34.989
34.983
34.975
34.965
34.953
34.941
34.927
34.91
34.892
34.873
34.853
34.834
34.816
34.8
34.786
34.774
34.766
34.762
34.761
34.763
34.769
34.776
34.784
34.793
34.8
34.806
34.81
34.813
34.815
34.815
34.815
34.814
34.811
34.808
34.802
34.796
34.788
34.78
34.771
34.764
34.757
34.751
34.747
34.743
34.741
34.739
34.737
34.735
34.733
34.732
34.729
34.726
34.721
34.714
34.706
34.698
34.688
34.677
34.666
34.655
34.644
34.635
34.628
34.623
34.62
34.618
34.618
34.619
34.62
34.621
34.621
34.621
34.619
34.616
34.612
34.609
34.606
34.606
34.608
34.615
34.626
34.644
34.67
34.705
34.751
34.809
34.879
34.963
35.058
35.164
35.278
35.4
35.526
35.655
35.783
35.91
36.032
36.149
36.259
36.36
36.453
36.535
36.606
36.666
36.713
36.748
36.77
36.78
36.777
36.765
36.744
36.716
36.685
36.652
36.619
36.587
36.558
36.531
36.507
36.485
36.465
36.446
36.429
36.414
36.402
36.392
36.385
36.381
36.381
36.384
36.387
36.392
36.395
36.398
36.399
36.4
36.399
36.395
36.388
36.377
36.361
36.341
36.317
36.288
36.255
36.22
36.184
36.147
36.111
36.077
36.044
36.013
35.982
35.952
35.923
35.896
35.872
35.851
35.834
35.821
35.814
35.811
35.813
35.82
35.83
35.842
35.855
35.869
35.883
35.896
35.909
35.921
35.931
35.939
35.946
35.95
35.952
35.952
35.95
35.946
35.94
35.931
35.919
35.904
35.887
35.868
35.848
35.827
35.805
35.781
35.757
35.732
35.706
35.681
35.656
35.632
35.61
35.59
35.572
35.555
35.54
35.527
35.514
35.503
35.491
35.479
35.467
35.455
35.442
35.43
35.418
35.405
35.392
35.379
35.365
35.353
35.341
35.329
35.317
35.304
35.29
35.275
35.259
35.243
35.228
35.214
35.202
35.192
35.184
35.179
35.177
35.177
35.178
35.18
35.181
35.182
35.181
35.179
35.175
35.17
35.163
35.155
35.147
35.139
35.13
35.123
35.116
35.108
35.101
35.094
35.087
35.081
35.075
35.071
35.068
35.064
35.061
35.055
35.048
35.038
35.025
35.01
34.994
34.977
34.961
34.948
34.939
34.932
34.927
34.925
34.922
34.919
34.916
34.911
34.906
34.899
34.891
34.883
34.875
34.866
34.856
34.846
34.834
34.822
34.808
34.793
34.778
34.764
34.751
34.739
34.728
34.718
34.709
34.702
34.697
34.692
34.688
34.683
34.679
34.675
34.672
34.67
34.668
34.668
34.668
34.669
34.672
34.676
34.681
34.687
34.694
34.7
34.704
34.705
34.704
34.701
34.696
34.688
34.68
34.67
34.66
34.651
34.643
34.635
34.629
34.623
34.618
34.614
34.609
34.605
34.601
34.597
34.594
34.59
34.587
34.585
34.583
34.582
34.581
34.581
34.58
34.579
34.578
34.577
34.574
34.571
34.567
34.562
34.557
34.552
34.548
34.548
34.553
34.562
34.579
34.604
34.637
34.68
34.735
34.8
34.876
34.961
35.056
35.16
35.273
35.394
35.52
35.65
35.781
35.911
36.037
36.157
36.268
36.369
36.46
36.539
36.606
36.661
36.703
36.733
36.749
36.754
36.747
36.731
36.706
36.677
36.644
36.608
36.572
36.537
36.503
36.469
36.436
36.405
36.375
36.349
36.326
36.308
36.294
36.285
36.28
36.28
36.283
36.289
36.296
36.304
36.312
36.318
36.323
36.325
36.323
36.318
36.309
36.296
36.278
36.257
36.233
36.206
36.178
36.149
36.121
36.092
36.064
36.037
36.012
35.988
35.965
35.942
35.921
35.901
35.883
35.867
35.853
35.842
35.835
35.831
35.829
35.83
35.834
35.84
35.848
35.857
35.868
35.879
35.889
35.898
35.904
35.909
35.913
35.914
35.914
35.91
35.903
35.893
35.879
35.863
35.843
35.821
35.796
35.771
35.744
35.717
35.692
35.667
35.643
35.621
35.601
35.582
35.566
35.552
35.539
35.527
35.515
35.502
35.489
35.473
35.456
35.437
35.418
35.4
35.382
35.366
35.352
35.339
35.328
35.317
35.305
35.294
35.283
35.273
35.264
35.255
35.247
35.238
35.23
35.22
35.211
35.201
35.191
35.181
35.171
35.163
35.155
35.15
35.145
35.141
35.138
35.133
35.126
35.117
35.106
35.093
35.079
35.066
35.054
35.045
35.038
35.033
35.03
35.027
35.023
35.017
35.011
35.003
34.994
34.986
34.979
34.974
34.97
34.969
34.969
34.969
34.97
34.969
34.968
34.966
34.963
34.96
34.957
34.953
34.95
34.945
34.939
34.933
34.927
34.921
34.915
34.909
34.903
34.899
34.894
34.89
34.885
34.88
34.875
34.87
34.863
34.855
34.846
34.834
34.819
34.802
34.785
34.767
34.749
34.734
34.721
34.71
34.702
34.697
34.693
34.692
34.692
34.693
34.694
34.696
34.698
34.701
34.705
34.709
34.714
34.719
34.723
34.726
34.727
34.725
34.722
34.716
34.709
34.7
34.69
34.679
34.667
34.654
34.641
34.627
34.613
34.6
34.589
34.579
34.572
34.568
34.568
34.569
34.573
34.578
34.583
34.589
34.594
34.597
34.598
34.597
34.594
34.59
34.586
34.58
34.575
34.569
34.562
34.556
34.549
34.541
34.533
34.524
34.515
34.505
34.496
34.488
34.481
34.476
34.472
34.47
34.469
34.472
34.478
34.489
34.507
34.533
34.569
34.617
34.678
34.753
34.843
34.946
35.062
35.19
35.327
35.473
35.624
35.778
35.931
36.081
36.224
36.357
36.477
36.582
36.67
36.741
36.793
36.828
36.847
36.853
36.846
36.83
36.806
36.776
36.743
36.707
36.67
36.632
36.596
36.561
36.529
36.5
36.474
36.452
36.434
36.419
36.408
36.4
36.395
36.393
36.394
36.397
36.403
36.408
36.414
36.419
36.422
36.423
36.421
36.417
36.41
36.4
36.387
36.37
36.351
36.329
36.305
36.28
36.254
36.228
36.2
36.171
36.142
36.113
36.084
36.056
36.028
36.002
35.977
35.954
35.933
35.916
35.901
35.89
35.882
35.876
35.872
35.871
35.872
35.876
35.881
35.887
35.894
35.9
35.906
35.912
35.918
35.926
35.934
35.943
35.952
35.96
35.967
35.969
35.966
35.957
35.943
35.923
35.898
35.871
35.842
35.812
35.783
35.754
35.726
35.698
35.672
35.646
35.621
35.597
35.574
35.552
35.531
35.511
35.492
35.474
35.456
35.439
35.422
35.405
35.389
35.375
35.363
35.352
35.344
35.338
35.333
35.328
35.322
35.315
35.307
35.298
35.287
35.274
35.261
35.249
35.237
35.226
35.215
35.204
35.193
35.179
35.164
35.147
35.13
35.112
35.096
35.081
35.068
35.057
35.05
35.045
35.043
35.042
35.042
35.041
35.04
35.036
35.031
35.024
35.014
35.003
34.991
34.979
34.966
34.953
34.941
34.93
34.92
34.911
34.904
34.899
34.896
34.896
34.896
34.897
34.898
34.899
34.9
34.9
34.899
34.897
34.894
34.89
34.885
34.878
34.87
34.862
34.853
34.843
34.833
34.823
34.813
34.803
34.793
34.783
34.772
34.761
34.75
34.739
34.727
34.716
34.706
34.697
34.691
34.686
34.682
34.68
34.679
34.679
34.68
34.681
34.681
34.678
34.673
34.665
34.655
34.644
34.632
34.619
34.607
34.594
34.583
34.573
34.564
34.557
34.55
34.544
34.538
34.532
34.525
34.518
34.51
34.503
34.496
34.491
34.488
34.486
34.485
34.485
34.486
34.487
34.487
34.488
34.488
34.489
34.49
34.493
34.498
34.504
34.512
34.518
34.524
34.527
34.529
34.528
34.526
34.521
34.515
34.507
34.497
34.488
34.479
34.47
34.462
34.453
34.444
34.434
34.424
34.414
34.405
34.398
34.393
34.39
34.39
34.392
34.396
34.402
34.41
34.419
34.428
34.438
34.45
34.464
34.482
34.506
34.536
34.574
34.621
34.679
34.748
34.827
34.919
35.022
35.135
35.259
35.39
35.526
35.666
35.807
35.947
36.083
36.214
36.337
36.45
36.552
36.641
36.717
36.778
36.825
36.858
36.878
36.883
36.878
36.863
36.839
36.808
36.772
36.731
36.687
36.641
36.596
36.553
36.512
36.475
36.443
36.415
36.394
36.378
36.368
36.362
36.361
36.362
36.366
36.372
36.378
36.385
36.39
36.393
36.394
36.393
36.39
36.383
36.374
36.361
36.345
36.326
36.302
36.275
36.246
36.216
36.185
36.155
36.125
36.097
36.07
36.046
36.023
36.002
35.982
35.965
35.95
35.936
35.926
35.918
35.913
35.91
35.91
35.912
35.915
35.919
35.923
35.927
35.93
35.933
35.934
35.935
35.935
35.934
35.933
35.93
35.925
35.919
35.914
35.913
35.916
35.921
35.929
35.936
35.941
35.942
35.937
35.927
35.91
35.886
35.856
35.819
35.779
35.737
35.693
35.651
35.61
35.571
35.534
35.502
35.472
35.445
35.42
35.398
35.377
35.358
35.341
35.325
35.311
35.298
35.286
35.275
35.265
35.254
35.243
35.232
35.222
35.21
35.199
35.187
35.174
35.163
35.151
35.14
35.129
35.12
35.111
35.103
35.098
35.094
35.092
35.093
35.097
35.104
35.114
35.128
35.145
35.165
35.186
35.209
35.233
35.257
35.283
35.31
35.337
35.364
35.391
35.419
35.446
35.474
35.502
35.529
35.555
35.581
35.604
35.624
35.641
35.654
35.663
35.667
35.668
35.664
35.655
35.641
35.622
35.598
35.569
35.536
35.501
35.463
35.423
35.381
35.336
35.288
35.238
35.186
35.133
35.08
35.029
34.979
34.934
34.893
34.858
34.829
34.805
34.787
34.774
34.765
34.759
34.756
34.756
34.758
34.764
34.772
34.783
34.798
34.814
34.833
34.853
34.873
34.891
34.908
34.922
34.935
34.945
34.955
34.964
34.971
34.978
34.983
34.987
34.988
34.987
34.984
34.978
34.97
34.961
34.952
34.943
34.933
34.924
34.915
34.907
34.9
34.893
34.886
34.879
34.873
34.866
34.858
34.848
34.839
34.828
34.816
34.804
34.79
34.776
34.762
34.748
34.734
34.722
34.71
34.698
34.686
34.674
34.663
34.653
34.642
34.632
34.623
34.614
34.606
34.6
34.595
34.593
34.592
34.593
34.594
34.596
34.597
34.599
34.6
34.6
34.599
34.598
34.596
34.593
34.589
34.584
34.578
34.572
34.565
34.559
34.553
34.547
34.542
34.537
34.533
34.528
34.523
34.518
34.514
34.512
34.512
34.515
34.519
34.524
34.53
34.535
34.539
34.541
34.542
34.543
34.542
34.541
34.539
34.538
34.536
34.534
34.532
34.529
34.525
34.52
34.515
34.508
34.501
34.494
34.486
34.48
34.473
34.466
34.458
34.45
34.44
34.429
34.418
34.407
34.397
34.388
34.381
34.376
34.373
34.373
34.374
34.375
34.376
34.375
34.373
34.369
34.364
34.358
34.352
34.347
34.343
34.34
34.34
34.342
34.345
34.348
34.35
34.352
34.353
34.352
34.35
34.346
34.342
34.337
34.331
34.324
34.318
34.311
34.304
34.298
34.292
34.287
34.283
34.281
34.28
34.28
34.28
34.281
34.281
34.282
34.282
34.282
34.283
34.283
34.283
34.282
34.281
34.279
34.276
34.273
34.269
34.264
34.26
34.257
34.253
34.25
34.248
34.246
34.245
34.246
34.247
34.248
34.25
34.251
34.252
34.251
34.251
34.249
34.247
34.245
34.242
34.238
34.234
34.23
34.226
34.222
34.219
34.216
34.214
34.212
34.211
34.209
34.206
34.204
34.202
34.2
34.197
34.194
34.192
34.192
34.194
34.2
34.211
34.229
34.256
34.293
34.343
34.407
34.488
34.586
34.701
34.833
34.981
35.143
35.317
35.501
35.693
35.889
36.087
36.284
36.477
36.663
36.837
36.997
37.141
37.265
37.367
37.448
37.508
37.548
37.57
37.574
37.564
37.539
37.502
37.454
37.397
37.333
37.265
37.195
37.126
37.059
36.997
36.941
36.892
36.849
36.812
36.78
36.752
36.728
36.707
36.689
36.675
36.663
36.653
36.645
36.638
36.633
36.629
36.626
36.624
36.62
36.617
36.611
36.604
36.593
36.581
36.565
36.546
36.525
36.501
36.475
36.448
36.421
36.394
36.368
36.342
36.317
36.293
36.271
36.249
36.229
36.21
36.193
36.178
36.165
36.153
36.143
36.135
36.13
36.127
36.124
36.123
36.122
36.122
36.122
36.123
36.123
36.123
36.122
36.12
36.117
36.113
36.107
36.1
36.091
36.082
36.071
36.059
36.047
36.033
36.018
36.001
35.982
35.96
35.936
35.909
35.881
35.852
35.823
35.795
35.768
35.741
35.716
35.691
35.667
35.645
35.623
35.602
35.582
35.565
35.549
35.536
35.525
35.516
35.508
35.501
35.493
35.485
35.475
35.463
35.45
35.436
35.422
35.407
35.393
35.38
35.367
35.355
35.343
35.333
35.323
35.314
35.305
35.298
35.293
35.289
35.286
35.283
35.28
35.275
35.269
35.261
35.252
35.241
35.229
35.218
35.207
35.196
35.185
35.175
35.165
35.154
35.143
35.13
35.117
35.103
35.088
35.073
35.059
35.045
35.033
35.023
35.014
35.005
34.997
34.989
34.979
34.969
34.958
34.947
34.937
34.926
34.917
34.908
34.901
34.896
34.893
34.891
34.891
34.89
34.889
34.886
34.882
34.876
34.87
34.864
34.856
34.848
34.839
34.83
34.819
34.808
34.797
34.785
34.772
34.76
34.747
34.736
34.726
34.718
34.71
34.705
34.701
34.698
34.696
34.695
34.694
34.691
34.687
34.682
34.675
34.667
34.66
34.653
34.647
34.641
34.635
34.63
34.626
34.622
34.619
34.616
34.614
34.612
34.609
34.605
34.599
34.59
34.579
34.567
34.553
34.539
34.526
34.515
34.505
34.498
34.494
34.493
34.494
34.498
34.503
34.509
34.514
34.518
34.521
34.524
34.525
34.526
34.527
34.527
34.526
34.523
34.518
34.511
34.503
34.495
34.487
34.481
34.476
34.474
34.474
34.475
34.477
34.477
34.476
34.473
34.468
34.461
34.453
34.445
34.436
34.426
34.415
34.404
34.392
34.381
34.369
34.356
34.343
34.33
34.317
34.307
34.301
34.3
34.307
34.325
34.356
34.402
34.464
34.543
34.637
34.746
34.867
35.0
35.144
35.297
35.458
35.627
35.801
35.978
36.156
36.33
36.498
36.657
36.803
36.935
37.05
37.147
37.226
37.287
37.33
37.355
37.363
37.356
37.337
37.306
37.268
37.223
37.175
37.124
37.072
37.021
36.97
36.919
36.87
36.823
36.779
36.739
36.702
36.67
36.644
36.622
36.605
36.593
36.583
36.571
36.56
36.548
36.537
36.527
36.518
36.51
36.502
36.494
36.484
36.473
36.461
36.446
36.43
36.413
36.394
36.375
36.356
36.336
36.315
36.294
36.271
36.248
36.225
36.201
36.177
36.156
36.136
36.119
36.106
36.096
36.09
36.087
36.087
36.088
36.09
36.093
36.094
36.095
36.095
36.096
36.098
36.1
36.103
36.105
36.106
36.105
36.101
36.095
36.086
36.075
36.064
36.052
36.04
36.029
36.019
36.007
35.995
35.98
35.962
35.942
35.92
35.898
35.875
35.852
35.829
35.807
35.784
35.76
35.737
35.713
35.69
35.668
35.647
35.628
35.611
35.595
35.581
35.567
35.554
35.542
35.53
35.517
35.502
35.487
35.471
35.455
35.438
35.422
35.406
35.392
35.379
35.367
35.356
35.345
35.333
35.32
35.306
35.29
35.274
35.258
35.242
35.228
35.215
35.205
35.197
35.19
35.185
35.182
35.179
35.177
35.176
35.175
35.172
35.167
35.161
35.152
35.141
35.128
35.115
35.102
35.089
35.077
35.066
35.055
35.047
35.039
35.031
35.023
35.014
35.005
34.994
34.982
34.97
34.958
34.946
34.937
34.931
34.927
34.927
34.928
34.931
34.933
34.935
34.936
34.935
34.931
34.927
34.921
34.914
34.905
34.896
34.885
34.874
34.861
34.847
34.833
34.818
34.805
34.792
34.781
34.772
34.765
34.759
34.753
34.749
34.745
34.743
34.741
34.739
34.737
34.736
34.735
34.734
34.733
34.731
34.728
34.724
34.719
34.711
34.702
34.691
34.679
34.666
34.654
34.643
34.634
34.628
34.624
34.621
34.62
34.62
34.619
34.618
34.616
34.613
34.608
34.603
34.596
34.589
34.582
34.573
34.563
34.553
34.544
34.536
34.53
34.527
34.525
34.526
34.529
34.533
34.539
34.546
34.553
34.56
34.566
34.569
34.569
34.565
34.559
34.549
34.538
34.525
34.512
34.498
34.485
34.473
34.462
34.452
34.445
34.439
34.435
34.433
34.432
34.43
34.429
34.427
34.424
34.421
34.418
34.416
34.413
34.41
34.407
34.404
34.402
34.402
34.406
34.416
34.433
34.461
34.499
34.549
34.611
34.685
34.773
34.875
34.99
35.119
35.261
35.416
35.581
35.753
35.93
36.107
36.28
36.447
36.604
36.75
36.883
37.001
37.103
37.189
37.258
37.31
37.344
37.361
37.364
37.354
37.333
37.304
37.269
37.228
37.183
37.135
37.085
37.035
36.985
36.938
36.895
36.855
36.821
36.793
36.768
36.749
36.734
36.723
36.714
36.708
36.703
36.699
36.695
36.691
36.686
36.682
36.676
36.67
36.662
36.654
36.643
36.631
36.616
36.598
36.577
36.553
36.528
36.502
36.475
36.449
36.422
36.397
36.372
36.347
36.324
36.302
36.28
36.258
36.238
36.221
36.207
36.196
36.189
