Trial 3:3back
35.309
35.278
35.262
35.262
35.278
35.306
35.347
35.398
35.457
35.523
35.595
35.67
35.748
35.827
35.906
35.982
36.056
36.126
36.19
36.247
36.297
36.337
36.368
36.389
36.4
36.402
36.393
36.373
36.343
36.302
36.249
36.185
36.11
36.026
35.931
35.827
35.716
35.597
35.475
35.35
35.224
35.1
34.978
34.858
34.742
34.627
34.516
34.408
34.303
34.204
34.109
34.018
33.932
33.849
33.771
33.695
33.623
33.554
33.49
33.43
33.374
33.323
33.276
33.233
33.192
33.154
33.12
33.089
33.061
33.037
33.017
32.999
32.984
32.969
32.953
32.938
32.921
32.905
32.889
32.873
32.857
32.842
32.828
32.816
32.805
32.795
32.787
32.781
32.775
32.769
32.761
32.751
32.739
32.725
32.71
32.693
32.676
32.663
32.656
32.654
32.656
32.659
32.661
32.662
32.659
32.653
32.645
32.636
32.628
32.623
32.625
32.636
32.659
32.698
32.758
32.845
32.963
33.118
33.315
33.557
33.846
34.182
34.562
34.983
35.438
35.918
36.415
36.919
37.421
37.91
38.379
38.82
39.224
39.588
39.907
40.18
40.406
40.586
40.721
40.813
40.866
40.883
40.867
40.824
40.756
40.668
40.564
40.445
40.314
40.172
40.023
39.867
39.706
39.543
39.378
39.212
39.047
38.883
38.721
38.561
38.404
38.251
38.102
37.956
37.814
37.675
37.539
37.404
37.271
37.14
37.01
36.882
36.755
36.63
36.507
36.385
36.266
36.149
36.037
35.93
35.83
35.737
35.652
35.577
35.513
35.461
35.421
35.395
35.381
35.381
35.393
35.416
35.449
35.492
35.545
35.605
35.672
35.744
35.819
35.897
35.975
36.051
36.125
36.195
36.258
36.314
36.36
36.396
36.42
36.432
36.432
36.419
36.394
36.356
36.308
36.248
36.179
36.101
36.014
35.919
35.818
35.712
35.603
35.491
35.378
35.264
35.151
35.039
34.929
34.821
34.714
34.609
34.506
34.403
34.302
34.202
34.105
34.012
33.922
33.837
33.756
33.68
33.609
33.544
33.483
33.426
33.373
33.324
33.277
33.233
33.192
33.152
33.113
33.075
33.037
33.001
32.967
32.935
32.905
32.878
32.854
32.833
32.816
32.803
32.793
32.787
32.782
32.78
32.777
32.774
32.77
32.764
32.756
32.747
32.737
32.726
32.714
32.701
32.687
32.672
32.657
32.64
32.624
32.607
32.591
32.576
32.56
32.544
32.528
32.513
32.499
32.487
32.478
32.472
32.47
32.474
32.485
32.505
32.537
32.584
32.651
32.741
32.861
33.014
33.205
33.437
33.712
34.032
34.395
34.798
35.236
35.701
36.187
36.683
37.18
37.669
38.14
38.585
38.997
39.37
39.701
39.985
40.222
40.411
40.554
40.652
40.707
40.725
40.708
40.66
40.586
40.489
40.375
40.245
40.105
39.956
39.802
39.644
39.484
39.321
39.157
38.991
38.825
38.66
38.495
38.332
38.172
38.014
37.859
37.706
37.555
37.407
37.261
37.117
36.977
36.841
36.71
36.584
36.461
36.341
36.222
36.104
35.987
35.872
35.761
35.655
35.554
35.459
35.372
35.294
35.225
35.167
35.119
35.084
35.062
35.054
35.06
35.08
35.113
35.16
35.218
35.286
35.364
35.448
35.539
35.632
35.727
35.821
35.91
35.993
36.067
36.133
36.188
36.231
36.262
36.28
36.284
36.275
36.252
36.216
36.168
36.109
36.039
35.959
35.872
35.778
35.678
35.575
35.468
35.358
35.247
35.133
35.019
34.903
34.787
34.672
34.559
34.448
34.34
34.235
34.132
34.033
33.944
33.869
33.81
33.764
33.728
33.696
33.665
33.632
33.595
33.552
33.504
33.449
33.388
33.322
33.251
33.177
33.102
33.029
32.959
32.894
32.835
32.782
32.737
32.699
32.668
32.643
32.623
32.607
32.594
32.583
32.572
32.561
32.55
32.539
32.528
32.515
32.502
32.489
32.476
32.464
32.451
32.437
32.422
32.406
32.39
32.373
32.356
32.339
32.32
32.301
32.281
32.26
32.239
32.217
32.196
32.176
32.158
32.143
32.133
32.128
32.129
32.14
32.16
32.191
32.236
32.298
32.38
32.488
32.624
32.794
33.0
33.245
33.532
33.859
34.225
34.628
35.061
35.519
35.993
36.476
36.956
37.426
37.876
38.297
38.685
39.033
39.338
39.598
39.81
39.976
40.095
40.169
40.2
40.194
40.153
40.083
39.987
39.87
39.734
39.584
39.421
39.249
39.072
38.893
38.712
38.532
38.352
38.174
37.997
37.822
37.65
37.481
37.315
37.152
36.994
36.84
36.69
36.543
36.398
36.257
36.118
35.983
35.851
35.723
35.599
35.478
35.361
35.248
35.138
35.035
34.94
34.852
34.775
34.707
34.651
34.606
34.573
34.553
34.547
34.554
34.576
34.612
34.662
34.724
34.8
34.887
34.984
35.091
35.206
35.326
35.451
35.576
35.699
35.818
35.929
36.031
36.124
36.204
36.27
36.321
36.354
36.369
36.365
36.343
36.304
36.25
36.184
36.107
36.021
35.926
35.825
35.718
35.606
35.49
35.372
35.254
35.136
35.019
34.904
34.792
34.682
34.575
34.471
34.37
34.274
34.181
34.092
34.007
33.924
33.843
33.765
33.688
33.614
33.543
33.477
33.417
33.364
33.318
33.277
33.242
33.21
33.181
33.154
33.129
33.105
33.081
33.058
33.035
33.014
32.993
32.973
32.953
32.933
32.912
32.892
32.872
32.853
32.836
32.819
32.803
32.787
32.772
32.755
32.738
32.722
32.706
32.691
32.678
32.665
32.653
32.64
32.626
32.613
32.6
32.588
32.579
32.572
32.569
32.571
32.579
32.594
32.619
32.656
32.71
32.785
32.884
33.013
33.174
33.373
33.61
33.888
34.206
34.563
34.954
35.373
35.815
36.27
36.729
37.184
37.626
38.045
38.435
38.79
39.106
39.381
39.613
39.802
39.947
40.05
40.113
40.138
40.129
40.088
40.02
39.928
39.816
39.687
39.544
39.39
39.227
39.056
38.88
38.7
38.518
38.334
38.15
37.965
37.779
37.593
37.406
37.218
37.03
36.842
36.655
36.469
36.286
36.107
35.932
35.763
35.598
35.441
35.289
35.145
35.007
34.877
34.756
34.642
34.538
34.443
34.358
34.284
34.219
34.166
34.125
34.096
34.08
34.078
34.09
34.116
34.156
34.209
34.274
34.353
34.443
34.543
34.652
34.767
34.886
35.005
35.123
35.235
35.34
35.435
35.518
35.589
35.646
35.69
35.72
35.736
35.739
35.727
35.703
35.666
35.618
35.559
35.49
35.413
35.327
35.235
35.137
35.035
34.931
34.824
34.717
34.61
34.504
34.399
34.294
34.192
34.091
33.993
33.897
33.804
33.716
33.631
33.55
33.473
33.401
33.332
33.267
33.206
33.15
33.097
33.048
33.003
32.961
32.923
32.888
32.856
32.825
32.797
32.77
32.745
32.721
32.699
32.679
32.662
32.648
32.635
32.623
32.614
32.606
32.599
32.593
32.586
32.581
32.575
32.568
32.561
32.552
32.543
32.532
32.52
32.506
32.492
32.477
32.461
32.444
32.427
32.41
32.395
32.381
32.368
32.357
32.347
32.338
32.329
32.322
32.316
32.31
32.307
32.306
32.308
32.313
32.322
32.338
32.363
32.402
32.458
32.537
32.64
32.772
32.937
33.14
33.385
33.675
34.011
34.392
34.814
35.27
35.755
36.259
36.774
37.29
37.796
38.283
38.742
39.166
39.548
39.884
40.171
40.407
40.593
40.728
40.815
40.858
40.861
40.827
40.76
40.667
40.549
40.413
40.262
40.099
39.926
39.747
39.563
39.375
39.185
38.992
38.799
38.605
38.41
38.217
38.026
37.837
37.651
37.468
37.289
37.115
36.944
36.778
36.616
36.459
36.303
36.147
35.988
35.827
35.666
35.507
35.352
35.205
35.067
34.943
34.832
34.736
34.656
34.592
34.544
34.51
34.49
34.483
34.49
34.508
34.538
34.579
34.631
34.694
34.765
34.844
34.929
35.019
35.114
35.211
35.308
35.404
35.498
35.589
35.674
35.753
35.823
35.883
35.933
35.972
36.0
36.016
36.02
36.013
35.994
35.964
35.922
35.868
35.805
35.733
35.653
35.565
35.47
35.367
35.258
35.145
35.028
34.909
34.788
34.667
34.547
34.429
34.314
34.201
34.091
33.986
33.885
33.789
33.699
33.615
33.536
33.462
33.392
33.327
33.267
33.212
33.162
33.116
33.075
33.039
33.006
32.976
32.948
32.923
32.899
32.877
32.857
32.839
32.822
32.807
32.793
32.781
32.77
32.76
32.751
32.741
32.731
32.721
32.71
32.699
32.689
32.678
32.669
32.66
32.651
32.642
32.632
32.621
32.609
32.596
32.583
32.569
32.556
32.543
32.53
32.517
32.504
32.491
32.477
32.463
32.449
32.434
32.421
32.407
32.394
32.382
32.372
32.366
32.364
32.371
32.388
32.418
32.466
32.534
32.625
32.743
32.893
33.077
33.3
33.565
33.872
34.223
34.615
35.043
35.503
35.987
36.485
36.991
37.494
37.984
38.451
38.886
39.28
39.629
39.928
40.175
40.369
40.511
40.603
40.646
40.646
40.607
40.533
40.431
40.305
40.16
39.999
39.827
39.645
39.457
39.264
39.068
38.87
38.672
38.474
38.278
38.083
37.89
37.699
37.509
37.322
37.137
36.954
36.773
36.593
36.416
36.242
36.07
35.901
35.736
35.574
35.416
35.262
35.112
34.967
34.827
34.694
34.568
34.452
34.347
34.254
34.175
34.111
34.062
34.028
34.011
34.009
34.022
34.05
34.09
34.143
34.206
34.28
34.364
34.456
34.554
34.659
34.767
34.879
34.991
35.102
35.211
35.316
35.413
35.501
35.578
35.647
35.708
35.761
35.805
35.838
35.858
35.864
35.853
35.827
35.783
35.725
35.652
35.567
35.471
35.367
35.256
35.14
35.02
34.899
34.776
34.654
34.532
34.414
34.3
34.192
34.088
33.989
33.895
33.808
33.727
33.651
33.581
33.516
33.455
33.399
33.347
33.299
33.254
33.211
33.17
33.13
33.091
33.052
33.014
32.976
32.941
32.907
32.875
32.845
32.818
32.792
32.769
32.749
32.73
32.714
32.699
32.685
32.672
32.66
32.65
32.642
32.636
32.631
32.628
32.625
32.624
32.623
32.622
32.621
32.619
32.616
32.612
32.606
32.598
32.59
32.58
32.57
32.559
32.547
32.535
32.521
32.506
32.49
32.474
32.459
32.446
32.435
32.425
32.418
32.413
32.412
32.416
32.427
32.447
32.478
32.524
32.587
32.67
32.777
32.913
33.081
33.287
33.531
33.818
34.145
34.511
34.915
35.35
35.809
36.287
36.774
37.262
37.74
38.201
38.635
39.035
39.394
39.709
39.975
40.191
40.356
40.47
40.535
40.553
40.53
40.469
40.374
40.251
40.103
39.935
39.753
39.559
39.358
39.152
38.943
38.733
38.523
38.314
38.106
37.899
37.694
37.491
37.29
37.091
36.894
36.7
36.509
36.322
36.138
35.957
35.779
35.604
35.433
35.267
35.105
34.95
34.801
34.661
34.529
34.407
34.295
34.193
34.103
34.026
33.961
33.912
33.877
33.857
33.854
33.866
33.892
33.931
33.982
34.043
34.114
34.194
34.282
34.379
34.482
34.591
34.703
34.819
34.934
35.048
35.158
35.261
35.358
35.445
35.522
35.586
35.638
35.675
35.699
35.707
35.702
35.683
35.651
35.607
35.552
35.488
35.415
35.335
35.249
35.157
35.059
34.957
34.853
34.747
34.643
34.54
34.44
34.343
34.251
34.163
34.08
33.999
33.921
33.844
33.77
33.7
33.632
33.569
33.508
33.451
33.397
33.346
33.297
33.25
33.205
33.163
33.123
33.085
33.05
33.017
32.986
32.957
32.93
32.906
32.885
32.865
32.848
32.832
32.818
32.804
32.791
32.778
32.767
32.757
32.749
32.742
32.736
32.731
32.725
32.719
32.714
32.707
32.701
32.695
32.69
32.685
32.681
32.677
32.673
32.669
32.664
32.657
32.648
32.637
32.624
32.609
32.593
32.577
32.561
32.547
32.534
32.524
32.519
32.52
32.53
32.552
32.589
32.646
32.726
32.832
32.968
33.135
33.336
33.572
33.844
34.154
34.502
34.886
35.304
35.75
36.217
36.697
37.18
37.657
38.12
38.559
38.968
39.339
39.667
39.947
40.177
40.355
40.482
40.561
40.594
40.585
40.537
40.455
40.341
40.2
40.035
39.851
39.652
39.442
39.224
39.001
38.775
38.547
38.319
38.091
37.864
37.639
37.418
37.199
36.984
36.774
36.568
36.368
36.172
35.982
35.799
35.621
35.448
35.281
35.12
34.965
34.816
34.675
34.543
34.418
34.304
34.199
34.105
34.023
33.954
33.898
33.857
33.831
33.82
33.823
33.84
33.869
33.91
33.962
34.023
34.091
34.167
34.25
34.34
34.437
34.541
34.649
34.762
34.876
34.99
35.101
35.208
35.308
35.399
35.481
35.55
35.608
35.652
35.683
35.7
35.702
35.691
35.667
35.63
35.58
35.521
35.453
35.377
35.293
35.204
35.109
35.011
34.912
34.812
34.714
34.618
34.525
34.435
34.348
34.265
34.185
34.107
34.031
33.959
33.89
33.823
33.756
33.691
33.626
33.562
33.502
33.445
33.392
33.343
33.298
33.257
33.219
33.185
33.154
33.125
33.1
33.078
33.058
33.04
33.024
33.008
32.993
32.978
32.963
32.946
32.929
32.911
32.894
32.878
32.863
32.849
32.837
32.827
32.819
32.811
32.803
32.796
32.79
32.785
32.779
32.775
32.771
32.767
32.764
32.762
32.758
32.755
32.751
32.747
32.744
32.745
32.75
32.758
32.769
32.782
32.798
32.814
32.833
32.854
32.882
32.918
32.966
33.031
33.116
33.227
33.369
33.544
33.757
34.009
34.303
34.637
35.011
35.419
35.857
36.318
36.792
37.272
37.748
38.21
38.65
39.058
39.424
39.743
40.013
40.232
40.4
40.519
40.591
40.62
40.609
40.562
40.484
40.377
40.246
40.093
39.921
39.734
39.535
39.327
39.112
38.894
38.674
38.453
38.233
38.014
37.796
37.58
37.367
37.158
36.954
36.755
36.56
36.369
36.181
35.996
35.816
35.64
35.47
35.306
35.15
35.001
34.86
34.727
34.604
34.491
34.389
34.301
34.225
34.162
34.113
34.078
34.057
34.05
34.056
34.075
34.108
34.152
34.207
34.273
34.349
34.434
34.527
34.627
34.733
34.842
34.954
35.066
35.177
35.285
35.39
35.49
35.583
35.668
35.743
35.808
35.86
35.9
35.926
35.938
35.938
35.925
35.9
35.864
35.816
35.758
35.69
35.614
35.529
35.439
35.343
35.244
35.143
35.042
34.942
34.843
34.747
34.653
34.562
34.474
34.389
34.308
34.229
34.154
34.082
34.012
33.946
33.882
33.821
33.764
33.71
33.658
33.609
33.562
33.519
33.478
33.441
33.406
33.373
33.344
33.316
33.291
33.266
33.241
33.219
33.199
33.181
33.166
33.154
33.144
33.135
33.127
33.12
33.114
33.108
33.103
33.098
33.095
33.092
33.09
33.088
33.086
33.085
33.084
33.083
33.08
33.076
33.071
33.064
33.055
33.045
33.034
33.022
33.009
32.996
32.983
32.97
32.958
32.947
32.939
32.935
32.939
32.953
32.979
33.02
33.077
33.155
33.257
33.386
33.547
33.743
33.976
34.248
34.561
34.913
35.301
35.722
36.169
36.635
37.11
37.585
38.051
38.5
38.924
39.315
39.667
39.973
40.231
40.439
40.594
40.699
40.754
40.765
40.734
40.666
40.564
40.434
40.278
40.102
39.91
39.704
39.489
39.268
39.043
38.815
38.586
38.358
38.132
37.909
37.69
37.475
37.265
37.06
36.859
36.663
36.471
36.283
36.101
35.925
35.755
35.591
35.433
35.283
35.139
35.003
34.875
34.756
34.645
34.545
34.457
34.381
34.319
34.269
34.232
34.206
34.192
34.189
34.197
34.217
34.25
34.296
34.355
34.428
34.512
34.608
34.714
34.828
34.948
35.072
35.197
35.322
35.444
35.56
35.67
35.771
35.863
35.943
36.01
36.065
36.105
36.132
36.144
36.142
36.127
36.101
36.063
36.013
35.953
35.884
35.806
35.72
35.628
35.53
35.427
35.323
35.217
35.111
35.006
34.902
34.8
34.701
34.605
34.513
34.425
34.342
34.264
34.191
34.123
34.059
33.998
33.94
33.884
33.831
33.779
33.731
33.686
33.646
33.608
33.574
33.542
33.51
33.479
33.449
33.42
33.393
33.366
33.342
33.318
33.297
33.278
33.261
33.244
33.229
33.217
33.206
33.197
33.19
33.184
33.18
33.178
33.177
33.177
33.176
33.174
33.171
33.166
33.159
33.15
33.139
33.126
33.113
33.099
33.086
33.073
33.062
33.051
33.041
33.032
33.026
33.025
33.029
33.041
33.067
33.108
33.17
33.255
33.368
33.511
33.688
33.9
34.15
34.437
34.76
35.117
35.505
35.92
36.355
36.805
37.259
37.711
38.151
38.571
38.965
39.326
39.648
39.928
40.162
40.348
40.485
40.575
40.618
40.619
40.58
40.505
40.397
40.262
40.104
39.927
39.735
39.534
39.324
39.11
38.892
38.673
38.453
38.236
38.02
37.808
37.599
37.396
37.198
37.003
36.813
36.626
36.443
36.264
36.089
35.92
35.755
35.595
35.441
35.294
35.153
35.02
34.895
34.78
34.674
34.579
34.495
34.423
34.362
34.315
34.28
34.258
34.249
34.254
34.271
34.301
34.343
34.397
34.462
34.539
34.625
34.721
34.824
34.934
35.047
35.165
35.283
35.402
35.519
35.632
35.74
35.841
35.932
36.011
36.077
36.129
36.164
36.183
36.186
36.174
36.148
36.108
36.055
35.99
35.913
35.826
35.73
35.627
35.52
35.409
35.297
35.186
35.075
34.965
34.855
34.746
34.64
34.538
34.44
34.346
34.258
34.177
34.102
34.034
33.972
33.918
33.869
33.824
33.784
33.747
33.714
33.684
33.659
33.636
33.616
33.597
33.579
33.562
33.545
33.527
33.508
33.488
33.467
33.446
33.424
33.401
33.378
33.356
33.335
33.319
33.305
33.294
33.285
33.277
33.269
33.261
33.253
33.243
33.234
33.225
33.216
33.207
33.199
33.19
33.18
33.17
33.159
33.147
33.134
33.122
33.112
33.105
33.103
33.107
33.12
33.142
33.178
33.231
33.307
33.407
33.535
33.694
33.885
34.11
34.37
34.665
34.994
35.355
35.745
36.157
36.587
37.027
37.469
37.906
38.328
38.73
39.104
39.443
39.742
39.998
40.208
40.372
40.49
40.562
40.591
40.58
40.531
40.45
40.34
40.206
40.053
39.884
39.702
39.511
39.312
39.109
38.904
38.697
38.49
38.284
38.081
37.882
37.687
37.497
37.313
37.131
36.954
36.779
36.606
36.436
36.269
36.104
35.942
35.784
35.63
35.481
35.337
35.201
35.072
34.952
34.842
34.743
34.656
34.583
34.525
34.483
34.457
34.446
34.45
34.468
34.501
34.548
34.608
34.681
34.766
34.863
34.969
35.083
35.202
35.325
35.45
35.574
35.695
35.811
35.92
36.021
36.111
36.191
36.258
36.312
36.352
36.377
36.389
36.386
36.369
36.338
36.295
36.24
36.175
36.101
36.021
35.934
35.842
35.748
35.65
35.55
35.449
35.348
35.248
35.148
35.049
34.951
34.854
34.759
34.665
34.575
34.49
34.409
34.334
34.265
34.201
34.142
34.087
34.036
33.988
33.944
33.901
33.861
33.823
33.788
33.755
33.724
33.697
33.673
33.651
33.631
33.612
33.593
33.576
33.559
33.544
33.532
33.52
33.511
33.503
33.496
33.49
33.483
33.475
33.465
33.453
33.439
33.423
33.405
33.385
33.364
33.343
33.32
33.298
33.275
33.253
33.232
33.212
33.195
33.181
33.173
33.172
33.179
33.198
33.229
33.274
33.336
33.416
33.518
33.644
33.797
33.98
34.198
34.451
34.741
35.066
35.423
35.809
36.216
36.64
37.074
37.509
37.939
38.353
38.744
39.106
39.434
39.722
39.97
40.174
40.335
40.453
40.528
40.564
40.563
40.527
40.459
40.364
40.245
40.104
39.946
39.772
39.588
39.394
39.194
38.991
38.789
38.588
38.391
38.198
38.01
37.827
37.649
37.475
37.306
37.141
36.98
36.822
36.665
36.51
36.355
36.202
36.051
35.902
35.757
35.617
35.482
35.357
35.24
35.134
35.041
34.959
34.89
34.834
34.792
34.764
34.75
34.752
34.769
34.8
34.846
34.906
34.98
35.065
35.163
35.27
35.385
35.507
35.634
35.761
35.887
36.009
36.125
36.233
36.331
36.416
36.488
36.546
36.59
36.619
36.634
36.635
36.622
36.598
36.561
36.511
36.451
36.381
36.302
36.216
36.125
36.029
35.931
35.83
35.728
35.624
35.52
35.416
35.313
35.213
35.115
35.021
34.93
34.842
34.757
34.675
34.596
34.521
34.45
34.383
34.321
34.264
34.21
34.159
34.111
34.066
34.022
33.981
33.941
33.903
33.867
33.833
33.801
33.771
33.745
33.722
33.703
33.686
33.673
33.662
33.652
33.641
33.63
33.618
33.601
33.581
33.558
33.532
33.507
33.482
33.459
33.439
33.421
33.405
33.391
33.378
33.367
33.357
33.348
33.34
33.333
33.327
33.323
33.32
33.32
33.323
33.33
33.344
33.369
33.406
33.461
33.538
33.64
33.773
33.938
34.139
34.377
34.653
34.965
35.312
35.69
36.095
36.518
36.952
37.389
37.82
38.237
38.632
38.999
39.333
39.628
39.882
40.094
40.261
40.385
40.467
40.509
40.514
40.487
40.43
40.348
40.245
40.123
39.986
39.837
39.678
39.511
39.339
39.168
39.003
38.844
38.692
38.544
38.399
38.254
38.108
37.958
37.805
37.647
37.485
37.318
37.148
36.976
36.803
36.631
36.461
36.297
36.138
35.987
35.844
35.711
35.588
35.476
35.377
35.29
35.216
35.155
35.109
35.078
35.062
35.061
35.076
35.104
35.147
35.202
35.269
35.347
35.435
