Trial 3:3back
32.317
32.34
32.379
32.436
32.512
32.608
32.723
32.856
33.006
33.171
33.349
33.538
33.735
33.94
34.149
34.363
34.579
34.795
35.011
35.223
35.431
35.633
35.825
36.006
36.175
36.329
36.468
36.589
36.694
36.782
36.854
36.913
36.959
36.994
37.021
37.041
37.055
37.065
37.069
37.07
37.066
37.06
37.051
37.041
37.03
37.018
37.007
36.997
36.987
36.978
36.968
36.959
36.948
36.936
36.922
36.908
36.892
36.876
36.859
36.841
36.823
36.805
36.785
36.763
36.737
36.708
36.673
36.634
36.59
36.542
36.492
36.441
36.392
36.347
36.305
36.268
36.237
36.21
36.187
36.166
36.149
36.133
36.117
36.102
36.087
36.072
36.057
36.042
36.029
36.017
36.007
35.997
35.987
35.976
35.964
35.951
35.937
35.922
35.906
35.89
35.875
35.858
35.84
35.821
35.799
35.776
35.75
35.721
35.688
35.652
35.614
35.574
35.532
35.489
35.446
35.405
35.365
35.328
35.292
35.257
35.223
35.188
35.152
35.115
35.075
35.034
34.99
34.945
34.899
34.853
34.809
34.767
34.727
34.691
34.658
34.627
34.596
34.564
34.532
34.497
34.46
34.419
34.376
34.331
34.285
34.24
34.197
34.156
34.12
34.088
34.06
34.036
34.015
33.996
33.977
33.957
33.935
33.91
33.883
33.853
33.82
33.784
33.747
33.708
33.671
33.634
33.601
33.571
33.546
33.525
33.507
33.491
33.478
33.465
33.452
33.438
33.423
33.405
33.386
33.364
33.34
33.316
33.291
33.267
33.245
33.224
33.206
33.189
33.174
33.162
33.152
33.141
33.129
33.114
33.096
33.074
33.048
33.019
32.986
32.952
32.916
32.881
32.848
32.818
32.793
32.775
32.764
32.763
32.773
32.795
32.831
32.882
32.949
33.034
33.135
33.254
33.39
33.543
33.71
33.892
34.085
34.289
34.5
34.716
34.933
35.15
35.363
35.572
35.773
35.967
36.15
36.321
36.481
36.627
36.761
36.881
36.988
37.082
37.162
37.229
37.281
37.32
37.347
37.362
37.369
37.37
37.367
37.362
37.355
37.347
37.337
37.325
37.311
37.293
37.273
37.248
37.22
37.188
37.153
37.118
37.082
37.047
37.015
36.984
36.957
36.932
36.909
36.887
36.864
36.839
36.812
36.782
36.75
36.716
36.68
36.644
36.607
36.57
36.533
36.495
36.459
36.423
36.389
36.358
36.329
36.303
36.28
36.26
36.243
36.229
36.219
36.211
36.204
36.199
36.194
36.187
36.179
36.168
36.154
36.138
36.121
36.103
36.085
36.068
36.053
36.039
36.027
36.016
36.004
35.991
35.975
35.955
35.93
35.899
35.863
35.821
35.774
35.722
35.669
35.614
35.561
35.51
35.462
35.418
35.377
35.338
35.3
35.263
35.225
35.185
35.143
35.099
35.054
35.006
34.959
34.911
34.865
34.821
34.779
34.742
34.708
34.678
34.651
34.626
34.602
34.577
34.551
34.522
34.492
34.458
34.422
34.384
34.343
34.3
34.255
34.211
34.168
34.127
34.087
34.049
34.014
33.981
33.951
33.922
33.895
33.87
33.845
33.822
33.798
33.776
33.755
33.734
33.715
33.697
33.68
33.665
33.651
33.639
33.627
33.615
33.602
33.587
33.568
33.547
33.523
33.497
33.47
33.443
33.416
33.39
33.365
33.34
33.317
33.295
33.274
33.255
33.236
33.217
33.199
33.18
33.162
33.144
33.127
33.112
33.1
33.092
33.089
33.095
33.11
33.136
33.174
33.228
33.297
33.383
33.487
33.607
33.746
33.902
34.074
34.261
34.462
34.673
34.893
35.119
35.348
35.578
35.807
36.032
36.249
36.457
36.652
36.834
37.001
37.155
37.295
37.421
37.536
37.64
37.733
37.817
37.89
37.953
38.005
38.047
38.078
38.099
38.11
38.113
38.109
38.101
38.089
38.075
38.06
38.043
38.026
38.009
37.991
37.973
37.955
37.936
37.918
37.899
37.881
37.863
37.843
37.821
37.795
37.766
37.733
37.697
37.657
37.614
37.57
37.524
37.48
37.436
37.395
37.356
37.319
37.283
37.247
37.21
37.171
37.132
37.092
37.051
37.012
36.976
36.943
36.913
36.888
36.867
36.852
36.84
36.832
36.825
36.818
36.811
36.803
36.792
36.779
36.764
36.747
36.729
36.71
36.69
36.67
36.65
36.627
36.603
36.577
36.549
36.518
36.485
36.451
36.415
36.377
36.338
36.297
36.255
36.21
36.162
36.113
36.062
36.008
35.953
35.898
35.842
35.788
35.735
35.685
35.639
35.595
35.554
35.514
35.475
35.436
35.395
35.352
35.306
35.258
35.206
35.153
35.1
35.047
34.996
34.948
34.904
34.864
34.828
34.796
34.766
34.737
34.708
34.677
34.643
34.605
34.564
34.518
34.469
34.417
34.364
34.312
34.261
34.214
34.17
34.131
34.095
34.063
34.033
34.005
33.977
33.949
33.921
33.893
33.865
33.838
33.811
33.784
33.757
33.73
33.704
33.678
33.652
33.627
33.601
33.576
33.55
33.524
33.496
33.467
33.436
33.405
33.373
33.341
33.309
33.278
33.248
33.219
33.191
33.165
33.139
33.115
33.092
33.069
33.048
33.029
33.012
32.999
32.992
32.993
33.004
33.03
33.07
33.128
33.205
33.302
33.421
33.561
33.721
33.9
34.096
34.306
34.528
34.759
34.997
35.241
35.489
35.738
35.987
36.233
36.473
36.706
36.927
37.134
37.324
37.498
37.652
37.788
37.905
38.005
38.09
38.162
38.223
38.272
38.312
38.342
38.363
38.377
38.383
38.382
38.375
38.364
38.349
38.332
38.313
38.295
38.276
38.259
38.244
38.23
38.217
38.205
38.194
38.182
38.17
38.155
38.14
38.122
38.103
38.081
38.057
38.03
38.0
37.966
37.926
37.882
37.834
37.784
37.732
37.681
37.63
37.581
37.535
37.49
37.448
37.408
37.37
37.333
37.297
37.262
37.227
37.193
37.16
37.129
37.101
37.076
37.054
37.035
37.018
37.004
36.991
36.979
36.967
36.956
36.944
36.932
36.92
36.907
36.893
36.877
36.859
36.838
36.814
36.786
36.755
36.72
36.682
36.643
36.603
36.562
36.522
36.481
36.441
36.401
36.361
36.318
36.273
36.225
36.174
36.119
36.061
36.001
35.939
35.879
35.819
35.763
35.709
35.66
35.615
35.573
35.535
35.5
35.465
35.429
35.391
35.35
35.305
35.258
35.208
35.158
35.107
35.058
35.012
34.967
34.924
34.885
34.85
34.817
34.786
34.756
34.726
34.696
34.666
34.634
34.602
34.57
34.538
34.507
34.475
34.444
34.413
34.382
34.35
34.318
34.284
34.25
34.215
34.178
34.141
34.104
34.066
34.028
33.991
33.955
33.921
33.888
33.858
33.828
33.801
33.773
33.746
33.718
33.69
33.662
33.634
33.608
33.584
33.564
33.549
33.541
33.542
33.554
33.579
33.617
33.671
33.74
33.824
33.924
34.042
34.177
34.33
34.501
34.689
34.895
35.115
35.349
35.594
35.847
36.105
36.365
36.623
36.875
37.117
37.347
37.561
37.757
37.934
38.092
38.231
38.353
38.457
38.546
38.62
38.68
38.726
38.758
38.778
38.786
38.785
38.774
38.757
38.733
38.705
38.673
38.64
38.606
38.572
38.537
38.502
38.467
38.432
38.399
38.366
38.335
38.305
38.276
38.246
38.214
38.18
38.142
38.1
38.052
37.997
37.938
37.874
37.807
37.738
37.67
37.604
37.542
37.485
37.432
37.382
37.336
37.293
37.252
37.212
37.175
37.139
37.105
37.072
37.042
37.015
36.992
36.973
36.957
36.945
36.935
36.926
36.919
36.911
36.902
36.891
36.878
36.864
36.849
36.831
36.81
36.786
36.758
36.726
36.689
36.649
36.606
36.561
36.517
36.474
36.434
36.395
36.359
36.323
36.287
36.249
36.208
36.163
36.113
36.058
35.998
35.935
35.87
35.804
35.74
35.678
35.618
35.562
35.508
35.455
35.405
35.356
35.309
35.262
35.216
35.17
35.125
35.079
35.033
34.987
34.942
34.899
34.856
34.814
34.773
34.733
34.693
34.653
34.614
34.574
34.534
34.494
34.452
34.409
34.365
34.321
34.276
34.231
34.187
34.143
34.1
34.058
34.017
33.977
33.937
33.898
33.86
33.822
33.785
33.747
33.71
33.673
33.638
33.605
33.574
33.545
33.518
33.494
33.47
33.447
33.425
33.403
33.384
33.368
33.357
33.353
33.36
33.379
33.414
33.467
33.539
33.633
33.751
33.892
34.055
34.239
34.442
34.662
34.897
35.143
35.397
35.656
35.918
36.18
36.438
36.692
36.937
37.172
37.396
37.606
37.8
37.978
38.138
38.279
38.399
38.499
38.579
38.643
38.691
38.725
38.749
38.762
38.768
38.767
38.76
38.747
38.729
38.708
38.684
38.658
38.632
38.605
38.578
38.551
38.525
38.498
38.469
38.439
38.407
38.372
38.337
38.299
38.261
38.221
38.18
38.136
38.089
38.038
37.982
37.921
37.856
37.786
37.712
37.637
37.562
37.488
37.416
37.349
37.287
37.231
37.182
37.14
37.103
37.07
37.04
37.013
36.988
36.964
36.941
36.919
36.898
36.878
36.859
36.841
36.825
36.81
36.795
36.781
36.767
36.752
36.736
36.717
36.696
36.673
36.646
36.617
36.585
36.551
36.516
36.478
36.438
36.396
36.352
36.304
36.253
36.2
36.143
36.085
36.025
35.963
35.901
35.84
35.78
35.721
35.664
35.609
35.555
35.502
35.448
35.392
35.335
35.274
35.212
35.148
35.083
35.019
34.956
34.897
34.84
34.787
34.738
34.691
34.647
34.604
34.561
34.518
34.473
34.426
34.378
34.327
34.276
34.226
34.178
34.132
34.09
34.051
34.017
33.987
33.961
33.939
33.92
33.902
33.884
33.864
33.843
33.817
33.787
33.75
33.708
33.659
33.606
33.549
33.49
33.432
33.375
33.322
33.274
33.231
33.194
33.163
33.137
33.114
33.096
33.079
33.063
33.045
33.026
33.004
32.981
32.956
32.932
32.911
32.896
32.89
32.895
32.917
32.957
33.018
33.102
33.21
33.343
33.501
33.681
33.881
34.099
34.333
34.578
34.832
35.091
35.352
35.612
35.87
36.123
36.369
36.608
36.838
37.057
37.263
37.454
37.626
37.78
37.914
38.028
38.122
38.197
38.255
38.298
38.328
38.346
38.354
38.353
38.344
38.329
38.31
38.287
38.261
38.235
38.21
38.185
38.162
38.142
38.123
38.106
38.089
38.07
38.049
38.023
37.994
37.961
37.925
37.887
37.848
37.809
37.769
37.727
37.685
37.64
37.593
37.542
37.487
37.428
37.366
37.303
37.237
37.171
37.106
37.042
36.98
36.92
36.864
36.81
36.759
36.711
36.665
36.619
36.575
36.531
36.49
36.45
36.412
36.377
36.345
36.317
36.291
36.267
36.245
36.224
36.202
36.179
36.154
36.128
36.099
36.069
36.036
36.001
35.964
35.926
35.886
35.845
35.802
35.757
35.709
35.659
35.606
35.55
35.491
35.43
35.366
35.302
35.237
35.173
35.109
35.048
34.989
34.932
34.877
34.824
34.771
34.719
34.666
34.612
34.556
34.498
34.438
34.377
34.314
34.251
34.188
34.128
34.071
34.017
33.968
33.922
33.88
33.841
33.805
33.771
33.737
33.704
33.668
33.63
33.589
33.545
33.498
33.447
33.395
33.342
33.288
33.235
33.183
33.135
33.089
33.047
33.008
32.973
32.941
32.911
32.884
32.858
32.831
32.804
32.774
32.741
32.706
32.668
32.628
32.586
32.542
32.498
32.454
32.41
32.368
32.329
32.293
32.26
32.23
32.202
32.177
32.153
32.129
32.104
32.078
32.049
32.018
31.986
31.953
31.921
31.893
31.87
31.855
31.852
31.863
31.89
31.936
32.001
32.087
32.196
32.325
32.475
32.644
32.829
33.028
33.238
33.456
33.679
33.906
34.135
34.363
34.589
34.811
35.028
35.237
35.437
35.627
35.805
35.97
36.12
36.255
36.373
36.473
36.555
36.619
36.666
36.698
36.717
36.727
36.729
36.727
36.723
36.717
36.71
36.702
36.693
36.683
36.672
36.66
36.647
36.633
36.617
36.6
36.58
36.559
36.536
36.512
36.487
36.461
36.433
36.404
36.373
36.34
36.304
36.265
36.223
36.179
36.132
36.083
36.032
35.978
35.924
35.87
35.817
35.766
35.719
35.675
35.634
35.598
35.566
35.538
35.512
35.489
35.469
35.451
35.437
35.425
35.415
35.407
35.4
35.394
35.386
35.377
35.364
35.349
35.331
35.309
35.285
35.257
35.227
35.196
35.163
35.129
35.094
35.059
35.024
34.989
34.951
34.912
34.87
34.826
34.78
34.733
34.684
34.635
34.585
34.536
34.487
34.441
34.396
34.354
34.315
34.278
34.242
34.206
34.171
34.135
34.097
34.057
34.013
33.965
33.913
33.856
33.796
33.735
33.673
33.612
33.552
33.496
33.443
33.393
33.348
33.307
33.269
33.234
33.201
33.167
33.133
33.097
33.058
33.017
32.974
32.931
32.888
32.847
32.808
32.773
32.741
32.714
32.692
32.673
32.658
32.644
32.632
32.62
32.606
32.59
32.57
32.545
32.515
32.479
32.438
32.392
32.344
32.293
32.242
32.191
32.144
32.1
32.06
32.027
31.998
31.975
31.956
31.941
31.929
31.918
31.908
31.896
31.881
31.864
31.843
31.817
31.788
31.756
31.72
31.684
31.647
31.614
31.586
31.565
31.555
31.556
31.57
31.599
31.645
31.708
31.789
31.887
32.002
32.133
32.278
32.437
32.607
32.787
32.976
33.17
33.368
33.569
33.769
33.968
34.166
34.36
34.549
34.731
34.904
35.067
35.22
35.361
35.49
35.605
35.706
35.793
35.865
35.922
35.966
35.996
36.016
36.027
36.031
36.029
36.025
36.018
36.01
36.002
35.995
35.989
35.983
35.976
35.968
35.958
35.944
35.929
35.912
35.895
35.877
35.861
35.845
35.83
35.816
35.801
35.786
35.768
35.747
35.723
35.695
35.663
35.626
35.584
35.539
35.492
35.445
35.401
35.359
35.322
35.289
35.261
35.235
35.213
35.195
35.185
35.186
35.194
35.209
35.227
35.243
35.256
35.264
35.265
35.26
35.248
35.23
35.205
35.174
35.14
35.101
35.061
35.019
34.978
34.938
34.899
34.862
34.828
34.796
34.767
34.74
34.715
34.692
34.669
34.645
34.621
34.595
34.568
34.539
34.508
34.474
34.438
34.401
34.363
34.327
34.292
34.26
34.229
34.196
34.16
34.122
34.081
34.036
33.987
33.936
33.882
33.827
33.771
33.714
33.66
33.607
33.559
33.515
33.475
33.44
33.411
33.387
33.368
33.353
33.34
33.329
33.318
33.306
33.292
33.277
33.258
33.236
33.21
33.182
33.15
33.117
33.08
33.042
33.002
32.961
32.92
32.88
32.841
32.806
32.776
32.748
32.722
32.699
32.677
32.655
32.635
32.616
32.597
32.579
32.56
32.541
32.522
32.502
32.482
32.462
32.442
32.423
32.403
32.384
32.365
32.347
32.33
32.314
32.299
32.288
32.28
32.277
32.28
32.292
32.312
32.342
32.383
32.435
32.5
32.578
32.669
32.774
32.893
33.026
33.173
33.334
33.506
33.69
33.882
34.08
34.282
34.484
34.685
34.882
35.074
35.258
35.432
35.596
35.748
35.888
36.015
36.131
36.237
36.331
36.415
36.487
36.548
36.599
36.638
36.666
36.684
36.695
36.698
36.697
36.693
36.687
36.682
36.677
36.674
36.672
36.672
36.674
36.677
36.681
36.683
36.684
36.681
36.674
36.662
36.647
36.628
36.607
36.584
36.561
36.537
36.512
36.486
36.459
36.43
36.398
36.363
36.326
36.287
36.245
36.201
36.157
36.112
36.067
36.024
35.984
35.947
35.916
35.889
35.868
35.851
35.838
35.827
35.818
35.809
35.8
35.791
35.781
35.77
35.756
35.741
35.724
35.704
35.683
35.662
35.641
35.621
35.601
35.582
35.563
35.542
35.52
35.495
35.466
35.434
35.398
35.358
35.315
35.27
35.224
35.178
35.132
35.087
35.042
34.999
34.955
34.912
34.867
34.822
34.776
34.729
34.681
34.632
34.583
34.534
34.486
34.439
34.394
34.351
34.309
34.269
34.23
34.192
34.155
34.119
34.082
34.044
34.007
33.969
33.931
33.893
33.856
33.819
33.783
33.748
33.714
33.681
33.649
33.618
33.587
33.556
33.527
33.497
33.468
33.439
33.411
33.382
33.353
33.323
33.293
33.261
33.229
33.196
33.164
33.132
33.101
33.07
33.042
33.015
32.992
32.972
32.953
32.937
32.922
32.908
32.894
32.878
32.861
32.843
32.824
32.803
32.781
32.758
32.733
32.708
32.682
32.656
32.63
32.604
32.578
32.552
32.525
32.497
32.468
32.439
32.411
32.383
32.356
32.331
32.307
32.285
32.264
32.245
32.227
32.211
32.198
32.189
32.186
32.189
32.2
32.222
32.257
32.305
32.369
32.45
32.549
32.666
32.799
32.949
33.113
33.29
33.478
33.674
33.876
34.082
34.288
34.494
34.697
34.896
35.089
35.275
35.453
35.621
35.778
35.925
36.06
36.183
36.294
36.393
36.48
36.556
36.62
36.673
36.717
36.752
36.78
36.804
36.823
36.838
36.85
36.859
36.865
36.868
36.868
36.867
36.864
36.86
36.859
36.858
36.861
36.866
36.874
36.885
36.897
36.91
36.923
36.933
36.939
36.94
36.933
36.918
36.896
36.868
36.834
36.797
36.759
36.721
36.684
36.649
36.617
36.587
36.56
36.534
36.509
36.483
36.456
36.426
36.394
36.36
36.325
36.29
36.257
36.227
36.201
36.179
36.162
36.149
36.139
36.132
36.127
36.122
36.115
36.106
36.092
36.073
36.049
36.02
35.989
35.955
35.92
35.884
35.846
35.807
35.766
35.723
35.679
35.633
35.587
35.54
35.493
35.447
35.403
35.359
35.318
35.279
35.243
35.209
35.177
35.146
35.115
35.083
35.049
35.013
34.975
34.935
34.893
34.849
34.805
34.761
34.716
34.671
34.627
34.582
34.538
34.495
34.452
34.411
34.371
34.332
34.294
34.257
34.22
34.183
34.145
34.106
34.066
34.024
33.983
33.941
33.899
33.859
33.82
33.785
33.752
33.723
33.697
33.673
33.649
33.627
33.604
33.58
33.555
33.528
33.499
33.468
33.435
33.401
33.367
33.334
33.3
33.268
33.237
33.207
33.179
33.153
33.129
33.105
33.081
33.057
33.034
33.01
32.986
32.962
32.936
32.909
32.88
32.849
32.817
32.783
32.749
32.713
32.679
32.646
32.614
32.583
32.555
32.529
32.506
32.484
32.463
32.443
32.425
32.406
32.385
32.363
32.34
32.314
32.288
32.261
32.233
32.204
32.175
32.148
32.123
32.1
32.08
32.064
32.054
32.049
32.052
32.063
32.084
32.117
32.161
32.217
32.288
32.373
32.474
32.589
32.719
32.86
33.013
33.175
33.344
33.519
33.696
33.876
34.055
34.233
34.407
34.578
34.743
34.901
35.052
35.192
35.322
35.439
35.542
35.632
35.707
35.769
35.818
35.855
35.881
35.898
35.908
35.912
35.912
35.91
35.907
35.903
35.9
35.895
35.89
35.884
35.877
35.869
35.861
35.855
35.851
35.848
35.848
35.85
35.853
35.857
35.86
35.864
35.865
35.864
35.86
35.851
35.837
35.818
35.795
35.768
35.739
35.708
35.675
35.642
35.609
35.577
35.545
35.516
35.487
35.46
35.434
35.408
35.38
35.351
35.321
35.291
35.261
35.233
35.208
35.186
35.169
35.157
35.149
35.145
35.144
35.145
35.147
35.148
35.147
35.143
35.135
35.124
35.109
35.089
35.068
35.045
35.021
34.999
34.977
34.955
34.934
34.912
34.891
34.869
34.846
34.82
34.792
34.759
34.721
34.68
34.634
34.587
34.537
34.488
34.44
34.393
34.35
34.312
34.278
34.248
34.223
34.201
34.182
34.163
34.144
34.123
34.101
34.076
34.049
34.02
33.989
33.956
33.923
33.889
33.857
33.827
33.799
33.775
33.753
33.734
33.716
33.699
33.683
33.667
33.651
33.633
33.613
33.59
33.565
33.538
33.509
33.478
33.447
33.416
33.387
33.362
33.342
33.326
33.316
33.31
33.308
33.307
33.307
33.306
33.304
33.299
33.289
33.275
33.255
33.231
33.201
33.169
33.134
33.099
33.066
33.035
33.008
32.986
32.97
32.959
32.953
32.951
32.952
32.955
32.957
32.959
32.958
32.954
32.945
32.932
32.913
32.888
32.859
32.825
32.788
32.751
32.713
32.677
32.644
32.616
32.594
32.578
32.57
32.567
32.569
32.573
32.58
32.587
32.595
32.6
32.602
32.601
32.596
32.589
32.582
32.577
32.577
32.586
32.605
32.639
32.689
32.756
32.842
32.948
33.072
33.214
33.373
33.545
33.729
33.92
34.116
34.313
34.508
34.697
34.878
35.047
35.204
35.346
35.474
35.59
35.693
35.785
35.867
35.939
36.003
36.059
36.108
36.15
36.185
36.214
36.236
36.252
36.26
36.264
36.262
36.258
36.251
36.245
36.24
36.238
36.241
36.249
36.262
36.28
36.302
36.327
36.353
36.376
36.396
36.412
36.423
36.429
36.429
36.425
36.416
36.405
36.39
36.374
36.357
36.339
36.319
36.299
36.276
36.251
36.223
36.193
36.16
36.127
36.094
36.061
36.03
36.001
35.975
35.953
35.935
35.921
35.911
35.905
35.902
35.901
35.901
35.902
35.902
35.902
35.9
35.898
35.894
35.888
35.881
35.874
35.864
35.854
35.843
35.83
35.815
35.8
35.782
35.763
35.741
35.718
35.693
35.667
35.641
35.615
35.588
35.562
35.536
35.511
35.487
35.462
35.438
35.413
35.387
35.36
35.331
35.3
35.269
35.237
35.206
35.177
35.149
35.124
35.1
35.078
35.057
35.036
35.016
34.995
34.971
34.946
34.916
34.883
34.846
34.805
34.762
34.717
34.672
34.627
34.584
34.543
34.506
34.471
34.441
34.415
34.394
34.376
