Trial 3:3back
35.44
35.274
35.113
34.96
34.817
34.685
34.568
34.467
34.382
34.316
34.267
34.236
34.222
34.226
34.245
34.281
34.332
34.395
34.47
34.555
34.648
34.749
34.855
34.964
35.074
35.184
35.292
35.396
35.496
35.59
35.678
35.756
35.825
35.882
35.927
35.96
35.981
35.992
35.991
35.979
35.957
35.924
35.881
35.83
35.77
35.703
35.63
35.551
35.467
35.38
35.29
35.197
35.103
35.008
34.913
34.818
34.721
34.624
34.527
34.429
34.333
34.237
34.143
34.051
33.96
33.871
33.783
33.697
33.612
33.528
33.446
33.366
33.286
33.207
33.128
33.05
32.973
32.898
32.825
32.755
32.69
32.629
32.574
32.524
32.478
32.438
32.401
32.367
32.336
32.307
32.28
32.254
32.229
32.205
32.182
32.162
32.143
32.127
32.113
32.099
32.086
32.074
32.061
32.048
32.035
32.022
32.01
31.998
31.985
31.972
31.959
31.945
31.932
31.919
31.907
31.897
31.89
31.89
31.899
31.921
31.96
32.023
32.114
32.238
32.403
32.613
32.876
33.194
33.572
34.008
34.503
35.051
35.646
36.278
36.935
37.604
38.272
38.926
39.555
40.145
40.686
41.171
41.592
41.946
42.231
42.446
42.593
42.678
42.703
42.677
42.605
42.496
42.355
42.191
42.009
41.815
41.611
41.404
41.194
40.986
40.78
40.577
40.379
40.184
39.992
39.802
39.614
39.427
39.242
39.058
38.874
38.689
38.503
38.316
38.129
37.944
37.76
37.577
37.396
37.216
37.037
36.858
36.68
36.503
36.327
36.152
35.978
35.807
35.64
35.477
35.32
35.172
35.033
34.904
34.788
34.683
34.593
34.517
34.457
34.413
34.386
34.376
34.38
34.398
34.43
34.473
34.527
34.593
34.668
34.752
34.843
34.939
35.038
35.137
35.237
35.335
35.431
35.524
35.612
35.693
35.766
35.83
35.886
35.936
35.981
36.018
36.046
36.062
36.065
36.054
36.028
35.989
35.937
35.872
35.797
35.712
35.62
35.522
35.42
35.316
35.209
35.101
34.993
34.884
34.776
34.669
34.565
34.464
34.368
34.274
34.183
34.095
34.008
33.922
33.837
33.752
33.666
33.581
33.495
33.41
33.326
33.243
33.163
33.084
33.009
32.935
32.865
32.797
32.732
32.67
32.611
32.555
32.502
32.452
32.405
32.362
32.322
32.284
32.249
32.216
32.185
32.157
32.132
32.109
32.09
32.072
32.056
32.041
32.028
32.014
32.001
31.987
31.973
31.958
31.942
31.926
31.91
31.894
31.879
31.865
31.852
31.84
31.83
31.824
31.823
31.829
31.844
31.874
31.921
31.992
32.093
32.231
32.412
32.643
32.929
33.273
33.677
34.141
34.662
35.234
35.849
36.496
37.163
37.837
38.505
39.152
39.768
40.341
40.861
41.323
41.721
42.051
42.314
42.508
42.638
42.707
42.719
42.681
42.6
42.483
42.336
42.166
41.979
41.778
41.569
41.354
41.136
40.919
40.703
40.49
40.28
40.073
39.869
39.669
39.471
39.276
39.084
38.894
38.706
38.519
38.332
38.146
37.96
37.773
37.584
37.395
37.205
37.013
36.82
36.626
36.431
36.236
36.042
35.852
35.665
35.484
35.309
35.142
34.984
34.837
34.703
34.583
34.477
34.388
34.315
34.26
34.222
34.201
34.197
34.209
34.235
34.274
34.325
34.387
34.459
34.54
34.629
34.724
34.823
34.925
35.029
35.132
35.233
35.329
35.421
35.507
35.587
35.659
35.722
35.777
35.822
35.856
35.879
35.891
35.892
35.883
35.863
35.834
35.796
35.749
35.693
35.629
35.558
35.479
35.395
35.307
35.215
35.121
35.026
34.931
34.836
34.742
34.65
34.558
34.467
34.377
34.287
34.197
34.108
34.018
33.928
33.836
33.742
33.648
33.553
33.458
33.364
33.272
33.182
33.097
33.015
32.937
32.863
32.793
32.726
32.662
32.601
32.543
32.487
32.436
32.387
32.342
32.3
32.259
32.22
32.183
32.148
32.115
32.085
32.058
32.034
32.015
31.999
31.987
31.978
31.973
31.971
31.971
31.972
31.972
31.971
31.968
31.962
31.952
31.94
31.926
31.912
31.899
31.886
31.873
31.862
31.852
31.845
31.842
31.844
31.854
31.875
31.908
31.959
32.032
32.132
32.266
32.441
32.663
32.94
33.274
33.668
34.123
34.637
35.203
35.813
36.457
37.123
37.799
38.472
39.129
39.757
40.345
40.884
41.364
41.781
42.129
42.407
42.616
42.758
42.836
42.855
42.823
42.746
42.631
42.484
42.311
42.119
41.913
41.697
41.476
41.253
41.03
40.808
40.588
40.371
40.156
39.944
39.736
39.53
39.327
39.126
38.927
38.73
38.535
38.341
38.149
37.958
37.768
37.579
37.39
37.199
37.007
36.813
36.617
36.421
36.225
36.029
35.836
35.647
35.464
35.286
35.115
34.953
34.802
34.662
34.536
34.424
34.328
34.249
34.185
34.139
34.11
34.1
34.107
34.133
34.174
34.231
34.3
34.38
34.47
34.568
34.672
34.78
34.89
35.001
35.111
35.218
35.321
35.421
35.514
35.601
35.68
35.75
35.809
35.857
35.892
35.916
35.928
35.929
35.918
35.895
35.861
35.816
35.762
35.699
35.63
35.555
35.475
35.392
35.306
35.216
35.125
35.031
34.936
34.84
34.743
34.648
34.552
34.458
34.365
34.273
34.183
34.092
34.002
33.911
33.819
33.727
33.636
33.544
33.455
33.367
33.283
33.202
33.123
33.046
32.972
32.899
32.828
32.76
32.693
32.628
32.566
32.505
32.447
32.389
32.333
32.279
32.228
32.18
32.136
32.097
32.064
32.036
32.012
31.994
31.979
31.969
31.96
31.954
31.948
31.942
31.935
31.928
31.92
31.911
31.901
31.89
31.879
31.867
31.855
31.843
31.829
31.815
31.8
31.787
31.776
31.768
31.764
31.765
31.773
31.789
31.817
31.859
31.919
32.002
32.116
32.266
32.461
32.706
33.005
33.364
33.782
34.259
34.791
35.372
35.994
36.648
37.322
38.005
38.682
39.341
39.969
40.553
41.084
41.554
41.957
42.29
42.551
42.741
42.864
42.924
42.927
42.879
42.787
42.657
42.496
42.309
42.103
41.882
41.652
41.417
41.18
40.943
40.708
40.477
40.249
40.025
39.806
39.589
39.376
39.166
38.958
38.752
38.547
38.343
38.139
37.936
37.733
37.53
37.326
37.121
36.916
36.708
36.5
36.291
36.082
35.876
35.673
35.473
35.277
35.088
34.905
34.73
34.566
34.414
34.276
34.152
34.044
33.952
33.878
33.821
33.783
33.765
33.764
33.782
33.817
33.867
33.932
34.01
34.099
34.198
34.304
34.415
34.528
34.641
34.754
34.863
34.97
35.072
35.17
35.263
35.349
35.426
35.493
35.55
35.595
35.628
35.649
35.659
35.657
35.644
35.62
35.585
35.54
35.487
35.425
35.357
35.283
35.205
35.122
35.035
34.944
34.85
34.753
34.654
34.553
34.453
34.353
34.254
34.157
34.06
33.965
33.871
33.778
33.686
33.595
33.505
33.414
33.323
33.232
33.142
33.054
32.969
32.886
32.805
32.728
32.653
32.581
32.511
32.445
32.381
32.322
32.265
32.212
32.162
32.114
32.069
32.026
31.985
31.946
31.909
31.874
31.841
31.811
31.786
31.768
31.757
31.751
31.75
31.749
31.749
31.747
31.742
31.734
31.722
31.708
31.691
31.673
31.653
31.633
31.612
31.592
31.574
31.558
31.545
31.536
31.532
31.533
31.541
31.557
31.584
31.626
31.686
31.768
31.879
32.024
32.21
32.444
32.731
33.076
33.48
33.944
34.464
35.036
35.651
36.3
36.971
37.652
38.328
38.987
39.616
40.204
40.742
41.22
41.633
41.979
42.255
42.462
42.602
42.681
42.702
42.671
42.594
42.476
42.324
42.146
41.946
41.731
41.505
41.273
41.038
40.801
40.565
40.331
40.099
39.87
39.645
39.423
39.203
38.986
38.772
38.56
38.35
38.143
37.938
37.733
37.53
37.327
37.123
36.92
36.716
36.512
36.308
36.103
35.898
35.694
35.491
35.291
35.095
34.905
34.724
34.554
34.397
34.256
34.131
34.023
33.934
33.863
33.813
33.782
33.77
33.777
33.801
33.843
33.902
33.975
34.062
34.16
34.268
34.384
34.505
34.631
34.758
34.886
35.013
35.136
35.255
35.367
35.472
35.567
35.651
35.724
35.784
35.832
35.867
35.89
35.9
35.899
35.886
35.863
35.831
35.788
35.738
35.679
35.613
35.542
35.465
35.384
35.299
35.21
35.119
35.026
34.932
34.838
34.744
34.648
34.552
34.456
34.358
34.26
34.163
34.066
33.97
33.876
33.784
33.695
33.608
33.523
33.441
33.36
33.281
33.204
33.126
33.048
32.972
32.897
32.826
32.759
32.697
32.639
32.587
32.538
32.494
32.453
32.414
32.377
32.341
32.308
32.276
32.245
32.216
32.188
32.161
32.135
32.109
32.083
32.056
32.028
31.999
31.968
31.936
31.904
31.873
31.843
31.817
31.796
31.782
31.778
31.786
31.81
31.853
31.921
32.017
32.148
32.32
32.539
32.811
33.14
33.528
33.974
34.476
35.03
35.629
36.264
36.925
37.599
38.274
38.936
39.572
40.171
40.723
41.218
41.65
42.015
42.312
42.54
42.7
42.798
42.837
42.823
42.762
42.662
42.527
42.365
42.181
41.981
41.772
41.557
41.339
41.121
40.904
40.688
40.474
40.261
40.051
39.842
39.635
39.43
39.226
39.023
38.822
38.622
38.423
38.226
38.03
37.835
37.638
37.44
37.239
37.036
36.831
36.625
36.418
36.214
36.011
35.811
35.616
35.425
35.241
35.065
34.899
34.745
34.604
34.477
34.367
34.274
34.198
34.139
34.098
34.074
34.065
34.072
34.093
34.129
34.177
34.239
34.312
34.395
34.487
34.586
34.69
34.797
34.906
35.015
35.125
35.232
35.336
35.435
35.528
35.614
35.689
35.755
35.809
35.852
35.882
35.898
35.902
35.892
35.87
35.834
35.787
35.73
35.662
35.587
35.505
35.418
35.327
35.232
35.135
35.036
34.936
34.835
34.734
34.634
34.535
34.436
34.338
34.242
34.147
34.054
33.962
33.87
33.78
33.69
33.601
33.512
33.423
33.334
33.245
33.158
33.073
32.991
32.912
32.837
32.765
32.698
32.634
32.574
32.519
32.468
32.422
32.38
32.343
32.31
32.28
32.252
32.225
32.198
32.172
32.146
32.121
32.095
32.069
32.043
32.016
31.989
31.962
31.934
31.907
31.88
31.854
31.829
31.805
31.783
31.764
31.747
31.736
31.731
31.734
31.746
31.77
31.81
31.87
31.957
32.078
32.24
32.449
32.712
33.032
33.412
33.852
34.352
34.906
35.509
36.153
36.827
37.518
38.213
38.897
39.556
40.18
40.758
41.281
41.741
42.135
42.458
42.712
42.897
43.018
43.078
43.083
43.038
42.951
42.828
42.677
42.503
42.312
42.111
41.903
41.69
41.476
41.262
41.05
40.839
40.631
40.426
40.224
40.025
39.828
39.633
39.439
39.245
39.052
38.859
38.668
38.478
38.29
38.103
37.917
37.731
37.543
37.354
37.163
36.97
36.776
36.581
36.388
36.195
36.006
35.822
35.642
35.47
35.305
35.149
35.004
34.87
34.75
34.644
34.555
34.482
34.427
34.389
34.368
34.365
34.379
34.409
34.453
34.512
34.581
34.661
34.747
34.84
34.938
35.039
35.141
35.243
35.343
35.438
35.528
35.611
35.685
35.75
35.806
35.852
35.888
35.913
35.927
35.929
35.92
35.9
35.871
35.831
35.782
35.723
35.657
35.584
35.505
35.422
35.335
35.243
35.147
35.047
34.944
34.841
34.739
34.638
34.54
34.445
34.351
34.259
34.168
34.079
33.99
33.901
33.812
33.723
33.634
33.544
33.455
33.367
33.28
33.196
33.114
33.035
32.959
32.886
32.817
32.75
32.686
32.625
32.567
32.513
32.464
32.418
32.374
32.331
32.287
32.243
32.198
32.153
32.109
32.067
32.027
31.992
31.961
31.934
31.912
31.894
31.881
31.872
31.868
31.867
31.868
31.872
31.877
31.882
31.884
31.885
31.882
31.876
31.867
31.854
31.839
31.821
31.801
31.781
31.763
31.749
31.739
31.738
31.747
31.769
31.808
31.87
31.957
32.077
32.235
32.438
32.692
33.001
33.368
33.792
34.272
34.806
35.388
36.013
36.669
37.347
38.034
38.717
39.384
40.021
40.617
41.162
41.648
42.069
42.419
42.699
42.908
43.05
43.128
43.148
43.116
43.038
42.92
42.77
42.593
42.396
42.185
41.964
41.738
41.508
41.278
41.048
40.821
40.598
40.379
40.164
39.954
39.748
39.546
39.346
39.15
38.955
38.763
38.572
38.382
38.193
38.005
37.818
37.632
37.447
37.261
37.074
36.885
36.695
36.505
36.315
36.127
35.941
35.758
35.58
35.408
35.243
35.087
34.941
34.808
34.689
34.586
34.499
34.429
34.375
34.337
34.317
34.313
34.326
34.357
34.403
34.462
34.535
34.618
34.709
34.807
34.91
35.015
35.12
35.223
35.324
35.419
35.508
35.59
35.663
35.728
35.782
35.826
35.859
35.88
35.888
35.885
35.872
35.848
35.816
35.776
35.728
35.673
35.611
35.542
35.468
35.388
35.305
35.216
35.124
35.027
34.926
34.821
34.714
34.607
34.499
34.393
34.289
34.187
34.087
33.989
33.893
33.799
33.707
33.617
33.528
33.441
33.355
33.27
33.187
33.106
33.026
32.948
32.87
32.794
32.717
32.642
32.568
32.496
32.425
32.358
32.294
32.234
32.178
32.126
32.078
32.035
31.995
31.958
31.923
31.89
31.859
31.83
31.804
31.781
31.761
31.746
31.735
31.727
31.722
31.719
31.718
31.719
31.722
31.727
31.733
31.74
31.747
31.754
31.76
31.764
31.766
31.766
31.762
31.755
31.745
31.733
31.72
31.706
31.694
31.685
31.681
31.685
31.699
31.726
31.769
31.834
31.925
32.049
32.212
32.42
32.679
32.994
33.367
33.8
34.291
34.836
35.43
36.066
36.733
37.421
38.118
38.808
39.479
40.118
40.712
41.254
41.735
42.15
42.495
42.768
42.972
43.106
43.176
43.187
43.143
43.052
42.921
42.757
42.566
42.356
42.132
41.899
41.662
41.422
41.183
40.946
40.713
40.484
40.259
40.039
39.823
39.61
39.4
39.192
38.985
38.778
38.571
38.365
38.16
37.957
37.755
37.554
37.354
37.155
36.956
36.759
36.563
36.368
36.176
35.985
35.798
35.615
35.435
35.26
35.091
34.93
34.778
34.637
34.51
34.398
34.303
34.225
34.166
34.126
34.103
34.099
34.111
34.138
34.181
34.236
34.303
34.381
34.467
34.561
34.661
34.765
34.872
34.98
35.087
35.192
35.292
35.387
35.475
35.554
35.624
35.682
35.728
35.761
35.782
35.791
35.788
35.775
35.75
35.715
35.668
35.61
35.542
35.465
35.38
35.29
35.196
35.1
35.003
34.906
34.81
34.714
34.617
34.521
34.424
34.329
34.234
34.139
34.046
33.954
33.863
33.774
33.686
33.599
33.513
33.428
33.345
33.263
33.181
33.099
33.017
32.937
32.859
32.782
32.708
32.637
32.567
32.498
32.431
32.364
32.299
32.235
32.174
32.117
32.063
32.012
31.965
31.922
31.881
31.845
31.813
31.784
31.759
31.738
31.721
31.706
31.695
31.685
31.677
31.669
31.661
31.655
31.648
31.642
31.637
31.631
31.626
31.623
31.621
31.621
31.624
31.628
31.634
31.64
31.647
31.654
31.659
31.663
31.665
31.664
31.662
31.658
31.653
31.647
31.64
31.633
31.626
31.62
31.618
31.621
31.632
31.657
31.699
31.763
31.856
31.984
32.152
32.368
32.636
32.962
33.349
33.797
34.304
34.867
35.48
36.134
36.818
37.522
38.23
38.931
39.611
40.257
40.86
41.409
41.896
42.316
42.665
42.943
43.15
43.288
43.361
43.374
43.333
43.245
43.115
42.953
42.763
42.552
42.326
42.089
41.846
41.6
41.353
41.108
40.866
40.627
40.39
40.157
39.926
39.699
39.475
39.255
39.036
38.821
38.607
38.395
38.183
37.973
37.764
37.556
37.349
37.143
36.937
36.731
36.525
36.321
36.117
35.915
35.716
35.523
35.336
35.156
34.986
34.826
34.676
34.539
34.416
34.309
34.218
34.142
34.083
34.042
34.017
34.009
34.017
34.04
34.078
34.129
34.194
34.27
34.356
34.451
34.553
34.662
34.776
34.892
35.009
35.125
35.236
35.341
35.44
35.531
35.613
35.685
35.746
35.793
35.827
35.847
35.853
35.846
35.825
35.792
35.748
35.693
35.629
35.556
35.476
35.389
35.298
35.202
35.105
35.007
34.909
34.81
34.711
34.612
34.513
34.415
34.316
34.218
34.12
34.022
33.922
33.822
33.722
33.622
33.523
33.427
33.332
33.24
33.149
33.059
32.968
32.879
32.791
32.704
32.621
32.541
32.465
32.393
32.324
32.257
32.192
32.128
32.066
32.007
31.951
31.9
31.852
31.809
31.769
31.733
31.701
31.673
31.648
31.627
31.607
31.59
31.573
31.556
31.54
31.524
31.51
31.497
31.487
31.48
31.475
31.474
31.475
31.479
31.485
31.493
31.503
31.515
31.529
31.545
31.562
31.579
31.596
31.613
31.63
31.645
31.659
31.67
31.679
31.686
31.69
31.691
31.69
31.685
31.678
31.669
31.66
31.651
31.643
31.636
31.631
31.632
31.64
31.66
31.695
31.752
31.836
31.957
32.119
32.331
32.599
32.926
33.315
33.768
34.282
34.853
35.475
36.14
36.837
37.554
38.278
38.996
39.693
40.358
40.98
41.548
42.055
42.495
42.863
43.159
43.382
43.535
43.622
43.646
43.614
43.532
43.408
43.247
43.057
42.845
42.615
42.372
42.12
41.865
41.608
41.352
41.1
40.853
40.61
40.374
40.142
39.915
39.69
39.467
39.245
39.022
38.799
38.576
38.354
38.131
37.909
37.686
37.463
37.239
37.015
36.791
36.569
36.349
36.13
35.915
35.704
35.497
35.297
35.106
34.925
34.756
34.6
34.459
34.333
34.223
34.129
34.05
33.987
33.94
33.911
33.898
33.902
33.922
33.958
34.008
34.073
34.15
34.239
34.337
34.444
34.557
34.674
34.79
34.904
35.014
35.119
35.218
35.312
35.4
35.481
35.554
35.619
35.675
35.721
35.757
35.782
35.795
35.795
35.781
35.754
35.713
35.661
35.599
35.528
35.449
35.364
35.272
35.175
35.073
34.968
34.86
34.751
34.641
34.532
34.423
34.315
34.208
34.103
34.0
33.898
33.799
33.703
33.608
33.516
33.426
33.337
33.249
33.163
33.076
32.991
32.906
32.823
32.741
32.662
32.585
32.51
32.438
32.368
32.3
32.232
32.165
32.099
32.033
31.97
31.909
31.851
31.797
31.747
31.7
31.657
31.617
31.58
31.547
31.517
31.49
31.465
31.443
31.423
31.406
31.39
31.377
31.366
31.358
31.353
31.352
31.353
31.358
31.364
31.373
31.383
31.394
31.409
31.425
31.442
31.459
31.477
31.495
31.512
31.528
31.543
31.557
31.57
31.582
31.592
31.599
31.605
31.608
31.61
31.609
31.608
31.606
31.604
31.6
31.595
31.589
31.582
31.574
31.568
31.565
31.569
31.585
31.614
31.664
31.737
31.841
31.981
32.165
32.398
32.687
33.035
33.447
33.923
34.461
35.056
35.703
36.391
37.11
37.847
38.589
39.321
40.03
40.704
41.331
41.902
42.407
42.842
43.204
43.491
43.705
43.848
43.924
43.938
43.896
43.804
43.67
43.501
43.303
43.081
42.84
42.586
42.325
42.058
41.789
41.52
41.252
40.986
40.724
40.467
40.215
39.969
39.729
39.493
39.262
39.032
38.805
38.579
38.353
38.128
37.903
37.677
37.45
37.223
36.997
36.771
36.547
36.324
36.103
35.886
35.673
35.466
35.266
35.076
34.896
34.728
34.573
34.432
34.305
34.194
34.099
34.021
33.961
33.918
33.892
33.883
33.891
33.914
33.953
34.006
34.073
34.153
34.245
34.348
34.46
34.579
34.703
34.83
34.957
35.083
35.205
35.323
35.434
35.536
35.628
35.708
35.775
35.829
35.868
35.893
35.904
35.902
35.887
35.861
35.825
35.78
35.725
35.663
35.592
35.515
35.432
35.344
35.251
35.156
35.057
34.955
34.851
34.745
34.637
34.528
34.419
34.31
34.201
34.091
33.982
33.873
33.766
33.659
33.554
33.451
33.35
33.25
33.151
33.054
32.96
32.869
32.782
32.698
32.619
32.543
32.47
32.4
32.333
32.267
32.202
32.14
32.08
32.022
31.965
31.911
31.858
31.808
31.76
31.716
31.675
31.638
31.604
31.574
31.548
31.524
31.504
31.487
31.472
31.461
31.453
31.448
31.447
31.448
31.451
31.455
31.459
31.463
31.467
31.471
31.475
31.478
31.481
31.484
31.487
31.489
31.491
31.492
31.492
31.492
31.493
31.494
31.496
31.498
31.502
31.506
31.512
31.52
31.532
31.55
31.576
31.616
31.674
31.753
31.862
32.005
32.19
32.423
32.711
33.057
33.465
33.936
34.466
35.052
35.687
36.363
37.068
37.791
38.519
39.239
39.937
40.601
41.22
41.784
42.287
42.721
43.086
43.378
43.598
43.749
43.833
43.856
43.823
43.741
43.617
43.457
43.269
43.059
42.832
42.594
42.348
42.098
41.846
41.595
41.345
41.097
40.851
40.606
40.362
40.119
39.876
39.633
39.391
39.149
38.908
38.668
38.43
38.194
37.96
37.727
37.495
37.265
37.038
36.811
36.587
36.365
36.145
35.929
35.717
35.51
35.308
35.113
34.925
34.747
34.58
34.425
34.285
34.16
34.052
33.96
33.886
33.829
33.788
33.765
33.758
33.768
33.796
33.84
33.901
33.976
34.065
34.164
34.274
34.391
34.515
34.643
34.772
34.901
35.025
35.144
35.255
35.358
35.45
35.531
35.599
35.653
35.693
35.72
35.734
35.736
35.726
35.705
35.673
35.631
