Trial 3:3back
34.844
35.449
36.109
36.813
37.55
38.308
39.071
39.823
40.55
41.238
41.875
42.452
42.961
43.394
43.749
44.024
44.217
44.333
44.376
44.354
44.277
44.151
43.987
43.793
43.578
43.347
43.108
42.862
42.616
42.371
42.13
41.892
41.659
41.429
41.202
40.977
40.753
40.529
40.304
40.078
39.851
39.623
39.395
39.166
38.939
38.713
38.491
38.272
38.058
37.847
37.638
37.432
37.227
37.023
36.821
36.62
36.421
36.224
36.032
35.845
35.664
35.49
35.324
35.167
35.021
34.887
34.765
34.657
34.564
34.487
34.428
34.386
34.362
34.356
34.368
34.395
34.438
34.494
34.562
34.64
34.727
34.822
34.922
35.026
35.134
35.242
35.35
35.456
35.559
35.658
35.75
35.834
35.908
35.972
36.025
36.068
36.1
36.122
36.134
36.134
36.122
36.098
36.065
36.021
35.969
35.91
35.845
35.775
35.7
35.619
35.534
35.445
35.352
35.256
35.156
35.054
34.951
34.848
34.745
34.643
34.543
34.445
34.35
34.257
34.164
34.072
33.98
33.888
33.796
33.703
33.61
33.517
33.424
33.332
33.242
33.154
33.068
32.985
32.904
32.825
32.749
32.675
32.603
32.533
32.465
32.402
32.342
32.287
32.237
32.191
32.149
32.11
32.074
32.039
32.006
31.975
31.946
31.92
31.898
31.878
31.862
31.847
31.835
31.825
31.817
31.811
31.809
31.81
31.814
31.823
31.834
31.847
31.861
31.875
31.889
31.903
31.918
31.932
31.946
31.959
31.973
31.986
31.998
32.007
32.014
32.018
32.019
32.019
32.017
32.016
32.013
32.01
32.006
32.001
31.997
31.995
31.995
32.001
32.014
32.037
32.074
32.13
32.209
32.317
32.462
32.649
32.888
33.183
33.54
33.962
34.449
34.997
35.603
36.256
36.948
37.668
38.404
39.143
39.87
40.569
41.225
41.825
42.359
42.82
43.203
43.506
43.728
43.871
43.941
43.941
43.88
43.766
43.607
43.413
43.192
42.951
42.699
42.44
42.179
41.92
41.666
41.418
41.175
40.939
40.709
40.485
40.263
40.043
39.823
39.602
39.38
39.155
38.929
38.7
38.471
38.242
38.014
37.788
37.564
37.343
37.123
36.906
36.693
36.483
36.277
36.077
35.883
35.695
35.514
35.338
35.168
35.004
34.847
34.698
34.56
34.433
34.319
34.221
34.139
34.075
34.028
33.998
33.985
33.988
34.007
34.042
34.091
34.152
34.224
34.306
34.397
34.497
34.605
34.719
34.839
34.962
35.085
35.208
35.326
35.438
35.543
35.64
35.727
35.804
35.871
35.926
35.968
35.996
36.012
36.017
36.01
35.992
35.965
35.928
35.881
35.827
35.765
35.696
35.621
35.542
35.459
35.374
35.285
35.192
35.097
34.999
34.899
34.797
34.696
34.594
34.494
34.396
34.299
34.202
34.106
34.011
33.917
33.823
33.728
33.633
33.538
33.442
33.348
33.255
33.163
33.073
32.986
32.901
32.818
32.737
32.658
32.579
32.503
32.429
32.358
32.292
32.23
32.172
32.119
32.07
32.026
31.985
31.948
31.914
31.884
31.856
31.831
31.809
31.788
31.769
31.751
31.734
31.717
31.703
31.69
31.68
31.672
31.668
31.667
31.67
31.675
31.683
31.693
31.706
31.722
31.739
31.759
31.78
31.802
31.827
31.854
31.883
31.913
31.943
31.971
31.997
32.02
32.04
32.056
32.07
32.08
32.087
32.091
32.094
32.093
32.09
32.085
32.079
32.071
32.064
32.058
32.053
32.052
32.055
32.065
32.084
32.118
32.171
32.25
32.359
32.506
32.697
32.937
33.233
33.587
34.003
34.48
35.014
35.601
36.233
36.899
37.587
38.284
38.978
39.655
40.301
40.904
41.455
41.946
42.37
42.725
43.006
43.215
43.352
43.422
43.429
43.381
43.285
43.147
42.975
42.776
42.557
42.324
42.082
41.836
41.588
41.341
41.096
40.852
40.612
40.375
40.14
39.907
39.675
39.444
39.213
38.982
38.751
38.519
38.289
38.059
37.829
37.6
37.372
37.146
36.922
36.701
36.483
36.268
36.059
35.855
35.656
35.463
35.276
35.095
34.92
34.753
34.593
34.444
34.305
34.18
34.068
33.972
33.892
33.829
33.784
33.756
33.747
33.756
33.784
33.83
33.893
33.973
34.068
34.176
34.296
34.425
34.562
34.703
34.847
34.99
35.131
35.267
35.398
35.521
35.634
35.735
35.825
35.903
35.969
36.023
36.065
36.095
36.114
36.121
36.116
36.1
36.075
36.041
36.0
35.951
35.894
35.831
35.761
35.685
35.603
35.515
35.422
35.325
35.226
35.124
35.021
34.916
34.811
34.706
34.602
34.498
34.394
34.292
34.191
34.091
33.992
33.894
33.797
33.702
33.61
33.519
33.431
33.345
33.26
33.177
33.094
33.013
32.934
32.857
32.781
32.708
32.636
32.566
32.498
32.433
32.37
32.309
32.251
32.194
32.141
32.09
32.043
31.999
31.96
31.924
31.892
31.863
31.836
31.812
31.79
31.772
31.758
31.749
31.746
31.747
31.752
31.759
31.769
31.779
31.789
31.801
31.813
31.827
31.842
31.859
31.876
31.895
31.915
31.936
31.956
31.977
31.997
32.016
32.034
32.052
32.068
32.083
32.095
32.105
32.112
32.117
32.118
32.117
32.114
32.109
32.103
32.096
32.091
32.088
32.091
32.103
32.127
32.169
32.233
32.327
32.456
32.628
32.849
33.123
33.455
33.848
34.301
34.814
35.382
35.998
36.654
37.338
38.039
38.743
39.436
40.105
40.736
41.321
41.848
42.313
42.71
43.035
43.289
43.471
43.585
43.635
43.627
43.568
43.465
43.324
43.151
42.952
42.733
42.498
42.253
42.002
41.748
41.495
41.244
40.998
40.756
40.517
40.283
40.052
39.824
39.598
39.373
39.151
38.93
38.711
38.495
38.28
38.067
37.857
37.648
37.443
37.239
37.038
36.839
36.642
36.445
36.248
36.052
35.857
35.664
35.475
35.291
35.115
34.946
34.787
34.639
34.503
34.381
34.275
34.184
34.11
34.051
34.008
33.981
33.968
33.971
33.989
34.021
34.068
34.129
34.203
34.288
34.384
34.488
34.599
34.716
34.838
34.962
35.087
35.211
35.333
35.449
35.558
35.66
35.752
35.835
35.906
35.965
36.011
36.044
36.064
36.071
36.067
36.052
36.026
35.991
35.948
35.896
35.835
35.767
35.691
35.607
35.518
35.424
35.326
35.226
35.125
35.022
34.919
34.815
34.711
34.606
34.501
34.396
34.292
34.188
34.085
33.983
33.881
33.779
33.679
33.579
33.48
33.384
33.29
33.2
33.112
33.025
32.94
32.857
32.775
32.695
32.617
32.542
32.471
32.404
32.341
32.282
32.227
32.175
32.126
32.08
32.036
31.995
31.956
31.921
31.889
31.859
31.833
31.809
31.786
31.764
31.744
31.725
31.709
31.694
31.683
31.674
31.668
31.664
31.662
31.662
31.664
31.668
31.675
31.684
31.697
31.712
31.731
31.752
31.774
31.798
31.822
31.846
31.868
31.888
31.905
31.918
31.928
31.934
31.935
31.933
31.928
31.922
31.916
31.91
31.908
31.909
31.917
31.936
31.969
32.022
32.1
32.209
32.358
32.553
32.799
33.104
33.469
33.897
34.387
34.937
35.54
36.188
36.871
37.578
38.296
39.011
39.711
40.381
41.009
41.583
42.095
42.539
42.91
43.208
43.433
43.587
43.675
43.701
43.673
43.596
43.479
43.326
43.145
42.942
42.722
42.49
42.252
42.01
41.768
41.526
41.286
41.048
40.813
40.582
40.356
40.133
39.913
39.695
39.48
39.266
39.056
38.848
38.643
38.44
38.239
38.038
37.838
37.638
37.44
37.244
37.05
36.859
36.672
36.487
36.305
36.125
35.947
35.771
35.597
35.428
35.265
35.109
34.962
34.827
34.703
34.593
34.496
34.413
34.345
34.291
34.253
34.231
34.224
34.232
34.254
34.291
34.34
34.402
34.475
34.559
34.65
34.748
34.851
34.957
35.065
35.173
35.281
35.387
35.49
35.589
35.682
35.768
35.843
35.906
35.958
35.996
36.022
36.035
36.036
36.025
36.002
35.969
35.926
35.876
35.819
35.756
35.688
35.616
35.54
35.46
35.377
35.289
35.195
35.095
34.99
34.881
34.769
34.656
34.543
34.431
34.32
34.211
34.104
34.0
33.899
33.801
33.706
33.615
33.527
33.443
33.361
33.281
33.203
33.125
33.048
32.97
32.894
32.818
32.743
32.672
32.603
32.538
32.475
32.415
32.358
32.302
32.248
32.196
32.145
32.097
32.05
32.006
31.962
31.92
31.879
31.839
31.8
31.763
31.728
31.697
31.671
31.649
31.631
31.618
31.609
31.603
31.6
31.599
31.601
31.605
31.612
31.622
31.633
31.647
31.661
31.678
31.695
31.713
31.729
31.745
31.759
31.77
31.78
31.788
31.794
31.797
31.798
31.797
31.794
31.789
31.784
31.778
31.772
31.766
31.762
31.76
31.759
31.76
31.765
31.776
31.797
31.829
31.879
31.951
32.052
32.19
32.372
32.603
32.888
33.233
33.64
34.108
34.636
35.219
35.851
36.522
37.221
37.936
38.654
39.361
40.043
40.688
41.287
41.83
42.311
42.724
43.067
43.338
43.538
43.671
43.74
43.751
43.709
43.622
43.495
43.337
43.153
42.949
42.732
42.505
42.274
42.039
41.804
41.569
41.336
41.105
40.876
40.648
40.42
40.192
39.965
39.737
39.511
39.286
39.063
38.842
38.623
38.407
38.194
37.984
37.776
37.567
37.356
37.144
36.931
36.72
36.512
36.309
36.113
35.925
35.746
35.577
35.417
35.268
35.127
34.997
34.876
34.764
34.663
34.571
34.491
34.423
34.367
34.324
34.295
34.28
34.28
34.294
34.322
34.363
34.417
34.482
34.557
34.642
34.736
34.838
34.946
35.059
35.174
35.29
35.405
35.517
35.623
35.721
35.81
35.888
35.954
36.008
36.048
36.073
36.079
36.069
36.044
36.007
35.962
35.911
35.855
35.796
35.734
35.671
35.608
35.544
35.48
35.415
35.348
35.28
35.208
35.131
35.05
34.963
34.871
34.775
34.676
34.575
34.473
34.37
34.265
34.16
34.055
33.949
33.845
33.741
33.64
33.542
33.447
33.355
33.265
33.178
33.093
33.011
32.932
32.856
32.784
32.715
32.648
32.583
32.518
32.453
32.387
32.322
32.257
32.195
32.135
32.08
32.031
31.986
31.947
31.912
31.882
31.857
31.835
31.817
31.802
31.79
31.781
31.774
31.769
31.764
31.761
31.759
31.757
31.757
31.76
31.764
31.772
31.782
31.795
31.81
31.826
31.843
31.86
31.877
31.892
31.907
31.92
31.931
31.941
31.95
31.957
31.962
31.965
31.966
31.963
31.958
31.95
31.939
31.928
31.918
31.91
31.909
31.916
31.937
31.974
32.033
32.118
32.235
32.391
32.591
32.842
33.149
33.517
33.946
34.436
34.984
35.584
36.23
36.912
37.618
38.336
39.053
39.757
40.436
41.076
41.669
42.204
42.674
43.074
43.4
43.652
43.832
43.943
43.991
43.98
43.917
43.808
43.66
43.479
43.272
43.047
42.808
42.559
42.306
42.05
41.794
41.539
41.288
41.041
40.8
40.56
40.319
40.076
39.83
39.584
39.339
39.095
38.855
38.622
38.395
38.175
37.963
37.758
37.56
37.368
37.18
36.996
36.813
36.63
36.448
36.264
36.081
35.898
35.718
35.54
35.367
35.198
35.035
34.881
34.736
34.603
34.483
34.381
34.295
34.229
34.181
34.152
34.14
34.145
34.165
34.201
34.25
34.312
34.386
34.469
34.562
34.661
34.767
34.879
34.994
35.113
35.233
35.351
35.465
35.573
35.672
35.764
35.845
35.917
35.978
36.028
36.068
36.098
36.117
36.127
36.128
36.119
36.1
36.072
36.035
35.99
35.937
35.876
35.809
35.734
35.653
35.566
35.473
35.376
35.275
35.17
35.061
34.95
34.837
34.723
34.61
34.499
34.392
34.288
34.186
34.087
33.989
33.89
33.789
33.688
33.586
33.483
33.381
33.279
33.179
33.081
32.986
32.894
32.805
32.722
32.643
32.568
32.498
32.431
32.368
32.307
32.25
32.196
32.145
32.098
32.054
32.014
31.977
31.945
31.915
31.888
31.862
31.838
31.815
31.793
31.774
31.756
31.741
31.727
31.716
31.709
31.704
31.701
31.701
31.704
31.708
31.713
31.719
31.723
31.725
31.723
31.719
31.712
31.703
31.693
31.684
31.676
31.671
31.667
31.666
31.666
31.668
31.674
31.684
31.702
31.73
31.774
31.838
31.928
32.049
32.21
32.415
32.672
32.986
33.362
33.8
34.302
34.862
35.476
36.135
36.828
37.545
38.273
38.997
39.704
40.379
41.012
41.592
42.11
42.561
42.942
43.25
43.484
43.646
43.739
43.769
43.741
43.664
43.543
43.387
43.203
42.996
42.772
42.536
42.291
42.042
41.789
41.535
41.281
41.029
40.782
40.541
40.306
40.077
39.849
39.623
39.397
39.169
38.94
38.708
38.474
38.236
37.995
37.752
37.507
37.261
37.016
36.774
36.534
36.299
36.069
35.843
35.622
35.406
35.197
34.995
34.802
34.62
34.45
34.292
34.149
34.022
33.911
33.818
33.744
33.688
33.653
33.637
33.641
33.664
33.706
33.766
33.843
33.936
34.045
34.166
34.299
34.44
34.588
34.74
34.895
35.049
35.2
35.345
35.482
35.61
35.727
35.835
35.932
36.017
36.09
36.151
36.198
36.231
36.249
36.254
36.245
36.224
36.192
36.151
36.1
36.04
35.973
35.898
35.818
35.731
35.639
35.544
35.444
35.342
35.237
35.131
35.024
34.918
34.813
34.709
34.606
34.506
34.407
34.309
34.213
34.117
34.023
33.929
33.837
33.745
33.654
33.566
33.479
33.395
33.313
33.232
33.153
33.074
32.997
32.922
32.851
32.783
32.719
32.66
32.605
32.555
32.507
32.462
32.42
32.379
32.341
32.304
32.271
32.24
32.212
32.187
32.163
32.141
32.119
32.098
32.076
32.054
32.032
32.011
31.991
31.973
31.958
31.944
31.932
31.922
31.913
31.906
31.902
31.906
31.921
31.952
32.006
32.087
32.203
32.359
32.563
32.82
33.134
33.51
33.949
34.45
35.009
35.618
36.27
36.953
37.655
38.362
39.063
39.743
40.39
40.994
41.544
42.034
42.457
42.812
43.096
43.309
43.456
43.539
43.566
43.541
43.472
43.365
43.225
43.058
42.869
42.664
42.446
42.219
41.987
41.752
41.516
41.28
41.045
40.811
40.579
40.347
40.117
39.89
39.664
39.44
39.216
38.994
38.775
38.557
38.341
38.128
37.916
37.705
37.495
37.286
37.076
36.867
36.659
36.452
36.247
36.043
35.842
35.644
35.451
35.265
35.087
34.919
34.763
34.62
34.491
34.377
34.278
34.196
34.129
34.079
34.044
34.026
34.024
34.037
34.066
34.11
34.169
34.241
34.326
34.423
34.53
34.645
34.767
34.893
35.021
35.149
35.276
35.399
35.515
35.622
35.719
35.804
35.877
35.936
35.98
36.01
36.026
36.029
36.018
35.995
35.961
35.918
35.866
35.804
35.735
35.657
35.572
35.481
35.385
35.286
35.184
35.08
34.977
34.873
34.768
34.663
34.556
34.449
34.342
34.237
34.134
34.034
33.937
33.842
33.75
33.659
33.57
33.483
33.396
33.312
33.229
33.149
33.072
32.998
32.925
32.855
32.786
32.719
32.653
32.59
32.53
32.474
32.423
32.376
32.334
32.296
32.263
32.233
32.208
32.186
32.17
32.157
32.148
32.142
32.137
32.132
32.127
32.12
32.111
32.099
32.084
32.067
32.048
32.026
32.003
31.978
31.954
31.929
31.905
31.883
31.862
31.845
31.832
31.828
31.834
31.853
31.892
31.953
32.044
32.171
32.341
32.562
32.84
33.182
33.591
34.066
34.604
35.201
35.848
36.537
37.255
37.991
38.73
39.46
40.167
40.839
41.464
42.032
42.536
42.971
43.333
43.619
43.827
43.959
44.022
44.022
43.966
43.862
43.72
43.55
43.358
43.153
42.94
42.722
42.504
42.288
42.074
41.864
41.657
41.452
41.249
41.046
40.843
40.639
40.435
40.229
40.022
39.815
39.607
39.401
39.196
38.993
38.793
38.596
38.402
38.21
38.021
37.832
37.645
37.459
37.273
37.086
36.898
36.708
36.516
36.324
36.133
35.945
35.762
35.587
35.421
35.266
35.124
34.995
34.88
34.781
34.698
34.633
34.585
34.554
34.54
34.542
34.56
34.592
34.637
34.694
34.763
34.841
34.928
35.021
35.119
35.22
35.323
35.425
35.525
35.622
35.714
35.801
35.88
35.95
36.01
36.06
36.099
36.125
36.139
36.14
36.129
36.105
36.069
36.023
35.966
35.901
35.826
35.744
35.657
35.565
35.47
35.373
35.275
35.176
35.075
34.974
34.873
34.771
34.67
34.57
34.47
34.371
34.273
34.174
34.076
33.978
33.88
33.782
33.686
33.591
33.497
33.407
33.319
33.234
33.151
33.07
32.992
32.916
32.841
32.768
32.698
32.631
32.568
32.508
32.451
32.398
32.348
32.303
32.261
32.223
32.189
32.158
32.129
32.103
32.079
32.058
32.039
32.022
32.006
31.992
31.978
31.966
31.955
31.945
31.936
31.929
31.922
31.914
31.905
31.895
31.883
31.871
31.858
31.845
31.834
31.824
31.815
31.809
31.805
31.804
31.804
31.806
31.81
31.818
31.83
31.849
31.877
31.918
31.977
32.061
32.175
32.328
32.525
32.774
33.079
33.444
33.872
34.362
34.911
35.514
36.164
36.851
37.564
38.288
39.011
39.718
40.395
41.032
41.616
42.14
42.597
42.984
43.298
43.539
43.71
43.813
43.853
43.836
43.768
43.656
43.507
43.33
43.129
42.912
42.686
42.453
42.219
41.985
41.753
41.524
41.3
41.08
40.865
40.654
40.445
40.238
40.032
39.828
39.624
39.421
39.22
39.019
38.819
38.618
38.417
38.217
38.017
37.819
37.622
37.429
37.238
37.048
36.861
36.675
36.491
36.31
36.132
35.958
35.789
35.627
35.472
35.325
35.186
35.056
34.937
34.829
34.736
34.659
34.599
34.555
34.529
34.518
34.524
34.544
34.579
34.625
34.683
34.75
34.825
34.907
34.994
35.086
35.18
35.277
35.374
35.471
35.566
35.657
35.742
35.819
35.887
35.943
35.988
36.021
36.042
36.051
36.048
36.033
36.006
35.968
35.919
35.86
35.792
35.717
35.637
35.552
35.463
35.371
35.276
35.179
35.079
34.978
34.876
34.773
34.67
34.567
34.465
34.365
34.265
34.167
34.069
33.972
33.877
33.783
33.69
33.597
33.506
33.415
33.325
33.238
33.152
33.068
32.987
32.908
32.833
32.762
32.694
32.628
32.565
32.504
32.444
32.386
32.328
32.271
32.213
32.156
32.1
32.045
31.991
31.941
31.894
31.851
31.813
31.781
31.754
31.733
31.715
31.702
31.692
31.684
31.679
31.676
31.674
31.673
31.673
31.673
31.673
31.673
31.673
31.676
31.681
31.69
31.703
31.719
31.736
31.754
31.772
31.79
31.807
31.824
31.84
31.858
31.876
31.895
31.914
31.931
31.947
31.961
31.972
31.981
31.988
31.993
31.995
31.997
31.997
31.995
31.991
31.984
31.974
31.963
31.949
31.935
31.921
31.908
31.896
31.886
31.878
31.876
31.88
31.894
31.924
31.974
32.051
32.163
32.316
32.518
32.775
33.092
33.472
33.918
34.427
34.998
35.623
36.295
37.002
37.734
38.476
39.214
39.934
40.622
41.267
41.858
42.387
42.846
43.233
43.546
43.783
43.948
44.044
44.077
44.053
43.978
43.86
43.706
43.522
43.316
43.092
42.857
42.614
42.367
42.12
41.873
41.629
41.388
41.15
40.918
40.69
40.467
40.247
40.031
39.818
39.606
39.396
39.188
38.98
38.774
38.569
38.366
38.164
37.964
37.766
37.571
37.377
37.184
36.993
36.803
36.612
36.422
36.233
36.048
35.867
35.693
35.527
35.369
35.221
35.084
34.958
34.845
34.745
34.66
34.591
34.538
34.501
34.481
34.478
34.491
34.521
34.568
34.631
34.708
34.799
34.899
35.006
35.117
35.231
35.346
35.46
35.571
35.678
35.779
35.871
35.952
36.02
36.075
36.116
36.142
36.156
36.156
36.143
36.119
36.084
36.041
35.99
35.931
35.866
35.795
35.717
35.633
35.543
35.447
35.347
35.242
35.134
35.026
34.916
34.808
34.702
34.598
34.496
34.395
34.295
34.196
34.099
34.003
33.908
33.814
33.721
33.628
33.535
33.443
33.349
33.254
33.159
33.062
32.966
32.871
32.778
32.687
32.599
32.514
32.432
32.355
32.283
32.216
32.154
32.098
32.048
32.004
31.963
31.927
31.892
31.86
31.829
31.799
31.77
31.742
31.716
31.692
31.671
31.652
31.635
31.62
31.607
31.596
31.587
31.58
31.574
31.57
31.567
31.565
31.565
31.566
31.569
31.573
31.579
31.587
31.598
31.612
31.629
31.65
31.673
31.698
31.724
31.749
31.774
31.797
31.818
31.837
31.853
31.868
31.881
31.891
31.898
31.902
31.904
31.903
31.901
31.898
31.895
31.892
31.888
31.884
31.877
31.869
31.86
31.852
31.847
31.847
31.857
31.878
31.918
31.98
32.072
32.199
32.368
32.586
32.86
33.195
33.592
34.054
34.578
35.159
35.79
36.461
37.162
37.88
38.601
39.313
40.003
40.66
41.272
41.83
42.326
42.755
43.112
43.397
43.61
43.752
43.828
43.844
43.804
43.716
43.587
43.423
43.231
43.017
42.785
42.541
42.289
42.032
41.773
41.515
41.259
41.006
40.757
40.511
40.268
40.027
39.791
39.557
39.327
39.099
38.875
38.653
38.434
38.217
38.003
37.791
37.582
37.375
37.17
36.966
36.762
36.559
36.356
36.155
35.957
35.763
35.575
35.395
35.222
35.059
34.905
34.761
34.63
34.512
34.409
34.321
34.25
34.196
34.159
34.139
34.135
34.148
34.178
34.223
