Trial 3:3back
35.313
35.286
35.257
35.226
35.19
35.15
35.106
35.059
35.009
34.956
34.9
34.842
34.781
34.718
34.654
34.589
34.524
34.46
34.395
34.331
34.269
34.207
34.148
34.09
34.034
33.98
33.926
33.872
33.819
33.765
33.711
33.654
33.596
33.536
33.476
33.418
33.364
33.317
33.28
33.257
33.252
33.269
33.312
33.383
33.485
33.617
33.782
33.977
34.2
34.45
34.722
35.014
35.32
35.636
35.958
36.28
36.598
36.908
37.207
37.49
37.755
38.0
38.222
38.42
38.591
38.737
38.857
38.952
39.024
39.074
39.105
39.118
39.116
39.101
39.073
39.035
38.989
38.936
38.879
38.816
38.749
38.678
38.603
38.523
38.439
38.351
38.258
38.162
38.061
37.955
37.844
37.73
37.613
37.494
37.375
37.256
37.139
37.024
36.911
36.8
36.692
36.588
36.488
36.394
36.306
36.226
36.153
36.087
36.027
35.974
35.928
35.887
35.852
35.822
35.797
35.777
35.761
35.75
35.742
35.737
35.736
35.737
35.739
35.741
35.742
35.742
35.74
35.736
35.73
35.723
35.714
35.703
35.69
35.677
35.663
35.648
35.633
35.617
35.599
35.579
35.556
35.531
35.505
35.477
35.448
35.417
35.385
35.35
35.312
35.27
35.224
35.176
35.126
35.074
35.022
34.97
34.919
34.867
34.815
34.763
34.712
34.66
34.608
34.555
34.502
34.448
34.395
34.341
34.288
34.234
34.178
34.12
34.061
34.001
33.94
33.878
33.817
33.757
33.697
33.639
33.583
33.529
33.478
33.428
33.379
33.333
33.292
33.257
33.23
33.215
33.215
33.234
33.276
33.343
33.437
33.56
33.713
33.897
34.111
34.352
34.619
34.906
35.208
35.519
35.836
36.153
36.466
36.77
37.062
37.339
37.599
37.84
38.058
38.254
38.426
38.575
38.701
38.802
38.881
38.938
38.974
38.991
38.99
38.974
38.945
38.905
38.856
38.8
38.737
38.669
38.596
38.518
38.437
38.353
38.266
38.175
38.079
37.978
37.872
37.763
37.649
37.532
37.411
37.29
37.168
37.046
36.926
36.807
36.691
36.578
36.468
36.364
36.264
36.17
36.083
36.003
35.929
35.862
35.801
35.746
35.697
35.653
35.613
35.578
35.547
35.52
35.496
35.476
35.461
35.448
35.437
35.428
35.42
35.412
35.403
35.395
35.386
35.376
35.365
35.353
35.338
35.322
35.305
35.286
35.266
35.245
35.223
35.199
35.174
35.148
35.119
35.088
35.055
35.019
34.981
34.942
34.902
34.861
34.819
34.778
34.736
34.694
34.652
34.608
34.562
34.515
34.466
34.416
34.365
34.312
34.258
34.202
34.144
34.085
34.023
33.959
33.896
33.833
33.771
33.711
33.654
33.6
33.55
33.501
33.455
33.409
33.363
33.315
33.266
33.216
33.166
33.116
33.066
33.017
32.97
32.923
32.877
32.832
32.79
32.751
32.72
32.699
32.694
32.707
32.742
32.803
32.892
33.01
33.159
33.338
33.546
33.781
34.041
34.322
34.62
34.931
35.25
35.572
35.892
36.206
36.509
36.796
37.063
37.307
37.526
37.719
37.886
38.026
38.14
38.23
38.298
38.345
38.372
38.383
38.378
38.36
38.332
38.295
38.251
38.201
38.145
38.084
38.019
37.949
37.874
37.794
37.709
37.619
37.524
37.425
37.323
37.218
37.109
36.997
36.884
36.77
36.654
36.538
36.423
36.309
36.199
36.091
35.986
35.886
35.791
35.702
35.619
35.542
35.472
35.409
35.353
35.304
35.261
35.224
35.192
35.165
35.141
35.12
35.104
35.091
35.083
35.08
35.08
35.084
35.09
35.098
35.107
35.116
35.124
35.13
35.134
35.136
35.135
35.131
35.124
35.115
35.102
35.087
35.068
35.047
35.024
34.999
34.972
34.944
34.916
34.888
34.858
34.827
34.794
34.761
34.727
34.691
34.655
34.618
34.579
34.538
34.496
34.452
34.407
34.36
34.312
34.264
34.215
34.165
34.116
34.067
34.018
33.97
33.922
33.874
33.827
33.78
33.733
33.686
33.639
33.592
33.543
33.493
33.441
33.389
33.336
33.281
33.226
33.171
33.115
33.06
33.008
32.958
32.912
32.871
32.838
32.814
32.802
32.805
32.826
32.866
32.931
33.02
33.135
33.277
33.447
33.644
33.867
34.113
34.379
34.66
34.954
35.257
35.563
35.87
36.172
36.466
36.748
37.012
37.258
37.481
37.681
37.856
38.005
38.128
38.226
38.301
38.354
38.388
38.404
38.404
38.39
38.364
38.327
38.281
38.227
38.165
38.096
38.02
37.939
37.853
37.763
37.671
37.577
37.48
37.382
37.283
37.181
37.077
36.971
36.863
36.752
36.639
36.524
36.408
36.292
36.178
36.066
35.96
35.859
35.765
35.676
35.594
35.518
35.449
35.387
35.332
35.285
35.247
35.217
35.194
35.179
35.171
35.171
35.178
35.192
35.209
35.231
35.254
35.277
35.298
35.318
35.335
35.35
35.363
35.373
35.381
35.388
35.392
35.395
35.396
35.394
35.389
35.38
35.366
35.347
35.324
35.299
35.272
35.245
35.219
35.194
35.168
35.141
35.114
35.085
35.053
35.019
34.983
34.944
34.903
34.86
34.816
34.771
34.725
34.677
34.628
34.577
34.524
34.47
34.415
34.361
34.307
34.254
34.203
34.151
34.1
34.049
33.996
33.942
33.887
33.831
33.775
33.718
33.662
33.607
33.554
33.503
33.454
33.408
33.365
33.324
33.286
33.254
33.229
33.214
33.21
33.22
33.246
33.292
33.36
33.453
33.574
33.722
33.898
34.101
34.328
34.579
34.85
35.137
35.436
35.744
36.054
36.363
36.665
36.955
37.23
37.486
37.72
37.931
38.117
38.277
38.412
38.522
38.609
38.673
38.716
38.74
38.748
38.742
38.724
38.696
38.658
38.611
38.555
38.492
38.423
38.347
38.267
38.183
38.096
38.008
37.92
37.831
37.74
37.648
37.556
37.461
37.365
37.266
37.165
37.062
36.957
36.85
36.743
36.636
36.529
36.425
36.324
36.229
36.14
36.059
35.986
35.92
35.862
35.81
35.763
35.722
35.685
35.653
35.626
35.603
35.584
35.571
35.562
35.556
35.552
35.551
35.553
35.555
35.558
35.559
35.56
35.559
35.556
35.552
35.546
35.539
35.532
35.523
35.514
35.505
35.495
35.484
35.471
35.454
35.434
35.409
35.381
35.348
35.313
35.275
35.237
35.196
35.153
35.107
35.058
35.007
34.953
34.898
34.842
34.785
34.729
34.672
34.617
34.562
34.509
34.458
34.407
34.356
34.306
34.256
34.206
34.156
34.107
34.06
34.012
33.965
33.92
33.875
33.83
33.786
33.742
33.697
33.651
33.603
33.552
33.5
33.447
33.393
33.34
33.289
33.242
33.202
33.171
33.151
33.148
33.163
33.199
33.259
33.346
33.461
33.606
33.78
33.985
34.218
34.477
34.759
35.057
35.368
35.686
36.007
36.325
36.636
36.935
37.221
37.489
37.737
37.96
38.159
38.334
38.484
38.609
38.711
38.788
38.844
38.88
38.897
38.896
38.881
38.853
38.816
38.77
38.719
38.663
38.603
38.541
38.475
38.406
38.333
38.256
38.175
38.09
37.999
37.904
37.804
37.7
37.593
37.483
37.372
37.26
37.149
37.038
36.927
36.817
36.709
36.603
36.501
36.403
36.309
36.221
36.138
36.061
35.99
35.925
35.866
35.812
35.764
35.721
35.682
35.648
35.617
35.589
35.566
35.545
35.527
35.512
35.5
35.491
35.484
35.48
35.478
35.479
35.482
35.485
35.488
35.491
35.492
35.492
35.49
35.487
35.483
35.476
35.467
35.454
35.438
35.418
35.394
35.366
35.336
35.303
35.269
35.233
35.195
35.157
35.117
35.077
35.036
34.995
34.952
34.908
34.863
34.816
34.768
34.72
34.672
34.625
34.579
34.533
34.489
34.443
34.398
34.351
34.303
34.253
34.202
34.152
34.102
34.051
34.001
33.95
33.898
33.846
33.792
33.737
33.681
33.623
33.564
33.503
33.441
33.38
33.319
33.262
33.211
33.169
33.138
33.119
33.116
33.129
33.16
33.212
33.287
33.388
33.517
33.674
33.859
34.071
34.308
34.567
34.843
35.132
35.429
35.729
36.028
36.322
36.605
36.875
37.129
37.366
37.582
37.778
37.952
38.106
38.237
38.346
38.433
38.5
38.546
38.573
38.583
38.577
38.558
38.527
38.487
38.438
38.384
38.327
38.269
38.211
38.152
38.092
38.032
37.97
37.907
37.842
37.773
37.701
37.625
37.546
37.463
37.376
37.285
37.19
37.091
36.989
36.886
36.783
36.679
36.577
36.478
36.382
36.289
36.201
36.119
36.044
35.975
35.912
35.856
35.806
35.762
35.725
35.693
35.666
35.643
35.623
35.604
35.587
35.57
35.554
35.54
35.527
35.517
35.507
35.499
35.49
35.481
35.471
35.458
35.444
35.426
35.406
35.382
35.355
35.327
35.296
35.263
35.228
35.193
35.155
35.115
35.07
35.022
34.972
34.92
34.867
34.816
34.767
34.72
34.675
34.634
34.594
34.557
34.521
34.484
34.447
34.406
34.362
34.315
34.265
34.212
34.157
34.099
34.038
33.975
33.91
33.844
33.777
33.709
33.64
33.571
33.5
33.431
33.362
33.296
33.233
33.173
33.115
33.061
33.008
32.956
32.905
32.854
32.803
32.751
32.699
32.647
32.595
32.545
32.496
32.452
32.414
32.384
32.366
32.363
32.38
32.418
32.481
32.57
32.687
32.831
33.003
33.203
33.429
33.678
33.948
34.234
34.532
34.838
35.146
35.453
35.754
36.044
36.32
36.578
36.814
37.027
37.216
37.38
37.521
37.637
37.731
37.803
37.856
37.891
37.908
37.911
37.901
37.88
37.85
37.812
37.766
37.715
37.658
37.596
37.529
37.459
37.386
37.312
37.236
37.159
37.081
37.001
36.92
36.836
36.751
36.665
36.577
36.488
36.398
36.307
36.214
36.118
36.023
35.927
35.833
35.741
35.651
35.565
35.483
35.407
35.338
35.275
35.219
35.17
35.129
35.095
35.068
35.049
35.037
35.031
35.031
35.035
35.041
35.048
35.055
35.061
35.065
35.068
35.069
35.067
35.063
35.056
35.047
35.035
35.023
35.01
34.998
34.985
34.971
34.956
34.939
34.922
34.903
34.883
34.862
34.84
34.818
34.794
34.769
34.743
34.715
34.684
34.651
34.614
34.573
34.529
34.481
34.43
34.379
34.328
34.279
34.23
34.182
34.135
34.088
34.041
33.995
33.949
33.903
33.857
33.811
33.765
33.719
33.674
33.63
33.586
33.541
33.494
33.446
33.397
33.347
33.297
33.247
33.198
33.148
33.098
33.048
32.998
32.95
32.903
32.856
32.812
32.771
32.736
32.708
32.69
32.686
32.695
32.721
32.766
32.83
32.917
33.027
33.16
33.318
33.5
33.706
33.934
34.181
34.446
34.724
35.01
35.301
35.59
35.875
36.151
36.414
36.661
36.889
37.097
37.282
37.444
37.582
37.697
37.79
37.863
37.917
37.953
37.974
37.981
37.974
37.955
37.926
37.888
37.842
37.79
37.734
37.674
37.611
37.545
37.475
37.403
37.327
37.249
37.167
37.081
36.991
36.898
36.801
36.703
36.602
36.502
36.402
36.304
36.208
36.114
36.024
35.936
35.852
35.771
35.695
35.624
35.559
35.499
35.444
35.395
35.351
35.313
35.279
35.25
35.225
35.204
35.184
35.167
35.152
35.138
35.125
35.113
35.103
35.095
35.088
35.082
35.077
35.073
35.068
35.063
35.057
35.05
35.043
35.034
35.024
35.013
35.001
34.987
34.971
34.953
34.931
34.906
34.879
34.848
34.814
34.777
34.739
34.699
34.657
34.616
34.574
34.533
34.492
34.451
34.409
34.366
34.32
34.272
34.222
34.17
34.118
34.064
34.009
33.954
33.898
33.841
33.783
33.724
33.665
33.606
33.546
33.486
33.427
33.37
33.314
33.26
33.208
33.157
33.105
33.053
33.002
32.951
32.901
32.853
32.81
32.772
32.743
32.724
32.717
32.724
32.748
32.789
32.85
32.934
33.041
33.175
33.334
33.52
33.73
33.962
34.211
34.474
34.747
35.024
35.299
35.568
35.827
36.074
36.305
36.519
36.716
36.895
37.056
37.198
37.322
37.428
37.518
37.591
37.65
37.693
37.724
37.743
37.749
37.744
37.73
37.706
37.673
37.634
37.588
37.539
37.487
37.433
37.378
37.322
37.265
37.206
37.146
37.083
37.018
36.95
36.878
36.803
36.723
36.64
36.555
36.469
36.384
36.298
36.214
36.13
36.049
35.97
35.894
35.823
35.757
35.695
35.638
35.586
35.539
35.496
35.457
35.422
35.391
35.364
35.34
35.317
35.295
35.274
35.254
35.235
35.216
35.2
35.185
35.172
35.161
35.151
35.143
35.135
35.126
35.116
35.103
35.087
35.067
35.043
35.017
34.989
34.96
34.93
34.9
34.87
34.839
34.808
34.775
34.741
34.705
34.668
34.63
34.59
34.551
34.511
34.471
34.432
34.391
34.35
34.308
34.266
34.225
34.184
34.142
34.101
34.059
34.017
33.975
33.931
33.886
33.84
33.793
33.745
33.696
33.647
33.597
33.548
33.499
33.451
33.402
33.353
33.303
33.253
33.203
33.155
33.109
33.064
33.02
32.979
32.942
32.909
32.882
32.861
32.848
32.844
32.85
32.87
32.906
32.959
33.033
33.127
33.245
33.386
33.547
33.729
33.928
34.144
34.372
34.611
34.856
35.106
35.357
35.604
35.846
36.079
36.3
36.507
36.697
36.87
37.024
37.16
37.276
37.373
37.451
37.511
37.552
37.577
37.588
37.586
37.574
37.553
37.525
37.492
37.453
37.411
37.365
37.315
37.263
37.208
37.152
37.093
37.033
36.972
36.91
36.846
36.782
36.718
36.652
36.585
36.517
36.447
36.374
36.299
36.221
36.142
36.062
35.983
35.905
35.829
35.756
35.685
35.618
35.555
35.497
35.445
35.398
35.356
35.318
35.283
35.251
35.221
35.193
35.167
35.143
35.121
35.103
35.086
35.072
35.058
35.046
35.035
35.023
35.01
34.996
34.981
34.965
34.947
34.928
34.91
34.89
34.87
34.848
34.824
34.797
34.768
34.737
34.704
34.671
34.637
34.601
34.564
34.527
34.489
34.45
34.411
34.37
34.327
34.284
34.24
34.196
34.151
34.107
34.064
34.02
33.976
33.933
33.888
33.841
33.794
33.746
33.697
33.649
33.602
33.555
33.51
33.466
33.423
33.381
33.34
33.3
33.261
33.223
33.188
33.153
33.119
33.085
33.051
33.016
32.98
32.943
32.906
32.868
32.831
32.794
32.759
32.726
32.696
32.669
32.647
32.63
32.618
32.612
32.613
32.624
32.647
32.685
32.739
32.812
32.903
33.015
33.146
33.297
33.467
33.654
33.856
34.069
34.293
34.523
34.757
34.991
35.223
35.45
35.668
35.875
36.067
36.243
36.401
36.54
36.661
36.764
36.849
36.918
36.972
37.011
37.039
37.057
37.067
37.069
37.065
37.055
37.04
37.02
36.993
36.962
36.927
36.89
36.85
36.808
36.764
36.719
36.671
36.621
36.569
36.515
36.459
36.401
36.34
36.277
36.21
36.141
36.071
35.999
35.926
35.853
35.782
35.713
35.646
35.582
35.522
35.464
35.409
35.356
35.306
35.257
35.211
35.169
35.13
35.096
35.066
35.041
35.018
34.998
34.979
34.963
34.948
34.936
34.927
34.92
34.916
34.914
34.914
34.914
34.915
34.914
34.91
34.903
34.892
34.876
34.855
34.831
34.804
34.775
34.744
34.713
34.682
34.65
34.616
34.581
34.546
34.511
34.475
34.438
34.401
34.365
34.33
34.297
34.266
34.236
34.209
34.181
34.153
34.125
34.096
34.066
34.035
34.003
33.971
33.938
33.906
33.873
33.84
33.807
33.773
33.736
33.699
33.66
33.621
33.583
33.546
33.511
33.48
33.451
33.426
33.402
33.381
33.359
33.337
33.315
33.291
33.266
33.24
33.212
33.183
33.155
33.126
33.098
33.069
33.039
33.008
32.977
32.946
32.918
32.892
32.872
32.859
32.855
32.861
32.882
32.917
32.969
33.04
33.129
33.236
33.364
33.51
33.675
33.857
34.054
34.264
34.483
34.709
34.94
35.172
35.403
35.63
35.849
36.059
36.258
36.443
36.614
36.769
36.909
37.033
37.143
37.238
37.317
37.38
37.428
37.462
37.481
37.488
37.485
37.472
37.453
37.429
37.401
37.371
37.339
37.304
37.268
37.229
37.188
37.144
37.097
37.044
36.988
36.927
36.863
36.794
36.722
36.647
36.569
36.49
36.411
36.332
36.254
36.179
36.107
36.037
35.971
35.909
35.852
35.8
35.752
35.71
35.673
35.64
35.61
35.583
35.559
35.537
35.518
35.502
35.487
35.475
35.463
35.453
35.444
35.436
35.429
35.424
35.419
35.415
35.411
35.407
35.401
35.395
35.387
35.379
35.37
35.36
35.348
35.335
35.32
35.302
35.283
35.262
35.238
35.212
35.183
35.153
35.12
35.087
35.053
35.019
34.984
34.949
34.912
34.873
34.831
34.787
34.743
34.697
34.651
34.605
34.56
34.515
34.473
34.432
34.393
34.355
34.318
34.281
34.245
34.208
34.171
34.134
34.096
34.058
34.02
33.981
33.941
33.901
33.861
33.821
33.78
33.74
33.699
33.658
33.617
33.577
33.538
33.499
33.461
33.423
33.386
33.351
33.317
33.286
33.259
33.236
33.22
33.209
33.207
33.214
33.232
33.264
33.311
33.375
33.456
33.555
33.672
33.809
33.964
34.137
34.324
34.524
34.736
34.956
35.182
35.408
35.633
35.854
36.066
36.268
36.457
36.631
36.788
36.929
37.053
37.16
37.253
37.331
37.396
37.446
37.484
37.508
37.521
37.524
37.518
37.505
37.485
37.46
37.431
37.397
37.358
37.316
37.271
37.224
37.173
37.121
37.067
37.011
36.952
36.891
36.828
36.764
36.698
36.632
36.565
36.499
36.433
36.367
36.301
36.236
36.172
36.109
36.049
35.989
35.932
35.878
35.826
35.777
35.732
35.691
35.654
35.62
35.589
35.563
35.541
35.522
35.506
35.491
35.479
35.467
35.457
35.449
35.443
35.44
35.438
35.436
35.433
35.429
35.422
35.411
35.397
35.379
35.359
35.338
35.317
35.296
35.276
35.257
35.238
35.22
35.202
35.184
35.163
35.139
35.113
35.083
35.052
35.018
34.982
34.945
34.906
34.865
34.824
34.784
34.744
34.704
34.665
34.626
34.587
34.547
34.508
34.469
34.43
34.392
34.355
34.319
34.284
34.249
34.214
34.177
34.14
34.102
34.065
34.027
33.991
33.955
33.922
33.89
33.859
33.83
33.8
33.768
33.735
33.7
33.665
33.63
33.596
33.563
33.53
33.499
33.468
33.438
33.407
33.377
33.346
33.315
33.284
33.256
33.231
33.213
33.203
33.203
33.215
33.242
33.283
33.342
33.42
33.518
33.637
33.778
33.94
34.123
34.324
34.54
34.769
35.007
35.25
35.496
35.74
35.979
36.211
36.434
36.645
36.842
37.024
37.191
37.344
37.48
37.601
37.705
37.792
37.864
37.92
37.961
37.989
38.005
38.009
38.004
37.99
37.969
37.943
37.912
37.878
37.841
37.802
37.761
37.72
37.678
37.636
37.594
37.553
37.509
37.464
37.416
37.365
37.311
37.254
37.193
37.131
37.066
36.999
36.931
36.863
36.795
36.728
36.663
36.598
36.535
36.476
36.419
36.364
36.312
36.263
36.219
36.18
36.145
36.116
36.092
36.072
36.054
36.037
36.022
36.008
35.995
35.982
35.97
35.959
35.948
35.936
35.925
35.913
35.901
35.89
35.878
35.866
35.854
35.841
35.827
35.81
35.791
35.769
35.744
35.716
35.686
35.653
35.618
35.583
35.546
35.507
35.466
35.422
35.375
35.325
35.273
35.221
35.17
35.121
35.074
35.029
34.986
34.945
34.904
34.864
34.824
34.785
34.746
34.707
34.668
34.629
34.59
34.55
34.511
34.472
34.434
34.395
34.356
34.317
34.278
34.238
34.199
34.161
34.123
34.086
34.049
34.013
33.978
33.944
33.91
33.876
33.842
33.807
33.771
33.734
33.695
33.655
33.616
33.577
33.539
33.502
33.467
33.435
33.405
33.38
33.361
33.347
33.34
33.344
33.36
33.392
33.44
33.507
33.595
33.703
33.831
33.979
34.145
34.328
34.528
34.741
34.965
35.199
35.439
35.682
35.925
36.164
36.395
36.617
36.826
37.022
37.202
37.368
37.518
37.651
37.77
37.872
37.961
38.035
38.094
38.14
38.173
38.193
38.201
38.199
38.187
38.166
38.14
38.108
38.072
38.03
37.984
37.935
37.884
37.832
37.779
37.726
37.674
37.621
37.568
37.514
37.459
37.402
37.343
37.28
37.214
37.143
37.069
36.992
36.914
36.837
36.762
36.69
36.621
36.556
36.495
36.438
36.386
36.338
36.295
36.255
36.22
36.188
36.158
36.13
36.103
36.077
36.051
36.026
36.002
35.977
35.952
35.924
35.896
35.867
35.838
35.81
35.783
35.759
35.737
35.715
35.695
35.674
35.653
35.631
35.608
35.583
35.556
35.527
35.497
35.464
35.43
35.395
35.358
35.32
35.281
35.241
35.2
35.159
35.116
35.072
35.028
34.982
34.935
34.885
34.835
34.785
34.736
34.687
34.641
34.596
34.552
34.51
34.468
34.426
34.383
34.34
34.296
34.252
34.208
34.164
34.119
34.074
34.029
33.984
33.937
33.891
33.843
33.796
33.749
33.703
33.659
33.617
33.576
33.536
33.496
33.456
33.416
33.377
33.338
33.3
33.264
33.229
33.195
33.163
33.132
33.102
33.072
33.041
33.009
32.976
32.944
32.913
32.887
32.867
32.854
32.85
32.857
32.877
32.912
32.966
33.041
33.139
33.262
33.409
33.579
33.77
33.979
34.205
34.443
34.69
34.943
35.198
35.451
35.698
35.936
36.164
36.381
36.584
36.772
36.945
37.1
37.24
37.363
37.471
37.564
37.643
37.709
37.762
37.803
37.83
