Trial 3:3back
33.067
33.045
33.026
33.012
33.002
32.999
33.004
33.021
33.052
33.1
33.17
33.263
33.382
33.529
33.704
33.907
34.137
34.392
34.671
34.972
35.29
35.62
35.958
36.299
36.636
36.965
37.281
37.581
37.862
38.121
38.357
38.568
38.755
38.917
39.054
39.165
39.252
39.315
39.355
39.375
39.375
39.358
39.327
39.284
39.233
39.176
39.116
39.054
38.992
38.93
38.869
38.808
38.748
38.689
38.63
38.571
38.51
38.448
38.383
38.314
38.242
38.165
38.085
38.0
37.913
37.823
37.732
37.639
37.546
37.453
37.36
37.269
37.181
37.098
37.021
36.952
36.891
36.841
36.801
36.77
36.747
36.731
36.722
36.717
36.716
36.718
36.722
36.727
36.733
36.739
36.745
36.75
36.752
36.75
36.742
36.727
36.704
36.674
36.638
36.597
36.553
36.505
36.456
36.406
36.354
36.301
36.247
36.192
36.137
36.082
36.026
35.971
35.915
35.859
35.802
35.744
35.685
35.625
35.563
35.5
35.436
35.37
35.303
35.235
35.166
35.097
35.028
34.961
34.895
34.83
34.766
34.702
34.639
34.576
34.514
34.453
34.394
34.337
34.283
34.232
34.184
34.138
34.095
34.053
34.013
33.974
33.935
33.897
33.859
33.823
33.787
33.753
33.721
33.691
33.663
33.637
33.613
33.59
33.567
33.543
33.518
33.493
33.465
33.436
33.406
33.373
33.34
33.306
33.27
33.234
33.197
33.16
33.123
33.085
33.048
33.011
32.973
32.935
32.898
32.862
32.828
32.796
32.766
32.737
32.71
32.684
32.66
32.637
32.616
32.6
32.591
32.592
32.606
32.637
32.688
32.764
32.868
33.003
33.17
33.373
33.61
33.881
34.183
34.513
34.866
35.235
35.616
36.003
36.391
36.773
37.146
37.504
37.842
38.156
38.444
38.703
38.931
39.127
39.292
39.425
39.529
39.605
39.657
39.687
39.698
39.692
39.673
39.642
39.6
39.551
39.496
39.438
39.377
39.317
39.256
39.198
39.141
39.085
39.031
38.979
38.927
38.875
38.822
38.767
38.71
38.649
38.585
38.517
38.444
38.368
38.287
38.204
38.119
38.032
37.944
37.857
37.771
37.688
37.607
37.529
37.454
37.383
37.315
37.252
37.191
37.136
37.085
37.04
37.002
36.97
36.944
36.923
36.905
36.888
36.871
36.853
36.835
36.816
36.796
36.775
36.754
36.73
36.705
36.677
36.645
36.611
36.573
36.531
36.485
36.435
36.383
36.328
36.272
36.215
36.156
36.096
36.034
35.971
35.905
35.837
35.767
35.696
35.622
35.547
35.471
35.394
35.318
35.242
35.167
35.092
35.019
34.944
34.869
34.792
34.713
34.635
34.557
34.481
34.408
34.339
34.273
34.21
34.149
34.09
34.032
33.976
33.922
33.871
33.823
33.777
33.734
33.692
33.651
33.61
33.569
33.528
33.488
33.448
33.41
33.373
33.337
33.303
33.271
33.24
33.212
33.187
33.163
33.142
33.123
33.105
33.087
33.07
33.053
33.035
33.016
32.996
32.975
32.952
32.929
32.905
32.881
32.856
32.832
32.807
32.782
32.757
32.731
32.705
32.679
32.653
32.626
32.598
32.57
32.54
32.509
32.477
32.445
32.412
32.38
32.349
32.32
32.291
32.265
32.244
32.233
32.233
32.25
32.288
32.351
32.445
32.571
32.732
32.929
33.162
33.431
33.732
34.063
34.418
34.793
35.181
35.575
35.969
36.356
36.73
37.087
37.423
37.734
38.018
38.273
38.499
38.696
38.864
39.003
39.115
39.202
39.267
39.311
39.338
39.351
39.351
39.339
39.318
39.29
39.255
39.216
39.173
39.127
39.077
39.025
38.97
38.913
38.854
38.794
38.732
38.668
38.602
38.534
38.463
38.391
38.318
38.244
38.169
38.093
38.016
37.937
37.856
37.774
37.69
37.605
37.519
37.433
37.348
37.265
37.186
37.111
37.043
36.982
36.929
36.884
36.845
36.812
36.785
36.762
36.744
36.728
36.714
36.7
36.688
36.675
36.662
36.648
36.632
36.613
36.593
36.569
36.542
36.512
36.478
36.44
36.398
36.354
36.306
36.255
36.202
36.147
36.088
36.027
35.964
35.899
35.833
35.768
35.702
35.637
35.572
35.506
35.439
35.371
35.301
35.23
35.157
35.084
35.012
34.941
34.871
34.8
34.729
34.657
34.584
34.511
34.437
34.364
34.291
34.218
34.147
34.077
34.009
33.943
33.88
33.819
33.76
33.703
33.648
33.594
33.543
33.493
33.446
33.402
33.362
33.324
33.288
33.255
33.223
33.193
33.163
33.134
33.104
33.076
33.048
33.021
32.995
32.97
32.946
32.924
32.903
32.883
32.864
32.847
32.831
32.815
32.8
32.784
32.767
32.748
32.728
32.706
32.683
32.658
32.632
32.604
32.575
32.545
32.514
32.481
32.448
32.414
32.379
32.344
32.31
32.276
32.244
32.213
32.184
32.155
32.127
32.099
32.074
32.051
32.033
32.021
32.019
32.03
32.057
32.103
32.173
32.271
32.398
32.559
32.753
32.981
33.241
33.53
33.843
34.176
34.525
34.885
35.252
35.619
35.982
36.337
36.677
36.999
37.3
37.575
37.821
38.037
38.224
38.383
38.516
38.625
38.713
38.783
38.837
38.876
38.902
38.917
38.921
38.915
38.9
38.878
38.849
38.813
38.772
38.727
38.678
38.625
38.57
38.514
38.455
38.396
38.336
38.275
38.214
38.152
38.088
38.022
37.954
37.882
37.806
37.727
37.645
37.562
37.479
37.397
37.316
37.239
37.166
37.098
37.036
36.981
36.932
36.889
36.854
36.825
36.804
36.79
36.782
36.779
36.781
36.784
36.788
36.792
36.795
36.797
36.798
36.797
36.793
36.785
36.773
36.757
36.736
36.711
36.682
36.648
36.612
36.573
36.532
36.489
36.444
36.395
36.343
36.289
36.232
36.173
36.111
36.049
35.986
35.922
35.856
35.789
35.722
35.653
35.584
35.514
35.443
35.372
35.3
35.228
35.155
35.083
35.01
34.937
34.864
34.79
34.715
34.64
34.566
34.492
34.422
34.355
34.292
34.233
34.177
34.124
34.072
34.022
33.973
33.925
33.881
33.839
33.801
33.766
33.734
33.703
33.673
33.644
33.614
33.584
33.555
33.526
33.497
33.47
33.442
33.415
33.388
33.362
33.337
33.313
33.289
33.267
33.246
33.225
33.206
33.187
33.168
33.148
33.126
33.103
33.077
33.048
33.018
32.985
32.95
32.914
32.877
32.842
32.807
32.773
32.742
32.712
32.687
32.666
32.654
32.653
32.665
32.694
32.741
32.81
32.903
33.023
33.171
33.349
33.558
33.797
34.064
34.358
34.675
35.009
35.357
35.714
36.075
36.434
36.787
37.129
37.456
37.765
38.054
38.319
38.559
38.774
38.962
39.124
39.261
39.373
39.461
39.527
39.573
39.601
39.612
39.61
39.597
39.574
39.544
39.509
39.473
39.436
39.4
39.365
39.332
39.301
39.272
39.243
39.215
39.186
39.156
39.124
39.089
39.05
39.005
38.955
38.897
38.833
38.76
38.679
38.591
38.496
38.396
38.292
38.187
38.083
37.982
37.885
37.794
37.709
37.633
37.565
37.505
37.454
37.411
37.376
37.348
37.326
37.307
37.291
37.277
37.262
37.248
37.232
37.216
37.199
37.181
37.162
37.141
37.118
37.093
37.066
37.037
37.006
36.973
36.938
36.9
36.858
36.813
36.763
36.709
36.65
36.587
36.521
36.453
36.382
36.31
36.237
36.164
36.091
36.017
35.942
35.868
35.795
35.724
35.653
35.584
35.517
35.45
35.385
35.32
35.255
35.191
35.126
35.062
34.998
34.933
34.868
34.801
34.733
34.665
34.597
34.531
34.467
34.407
34.351
34.299
34.252
34.208
34.166
34.125
34.085
34.045
34.004
33.964
33.924
33.884
33.843
33.803
33.764
33.726
33.688
33.651
33.614
33.578
33.545
33.513
33.485
33.459
33.436
33.413
33.392
33.371
33.351
33.332
33.312
33.294
33.276
33.258
33.241
33.223
33.204
33.181
33.156
33.127
33.094
33.059
33.021
32.983
32.943
32.903
32.863
32.822
32.782
32.742
32.705
32.669
32.638
32.611
32.588
32.569
32.555
32.547
32.546
32.556
32.581
32.624
32.689
32.781
32.902
33.054
33.24
33.459
33.711
33.994
34.304
34.639
34.994
35.365
35.747
36.135
36.525
36.913
37.293
37.663
38.016
38.35
38.661
38.947
39.205
39.434
39.633
39.803
39.946
40.063
40.155
40.226
40.277
40.312
40.332
40.342
40.342
40.336
40.324
40.309
40.29
40.269
40.247
40.224
40.201
40.179
40.159
40.139
40.12
40.103
40.087
40.07
40.052
40.033
40.011
39.983
39.95
39.909
39.861
39.805
39.74
39.666
39.584
39.494
39.4
39.302
39.203
39.105
39.008
38.913
38.821
38.733
38.65
38.572
38.5
38.434
38.375
38.324
38.28
38.242
38.211
38.185
38.163
38.145
38.129
38.112
38.095
38.076
38.055
38.032
38.006
37.976
37.941
37.901
37.855
37.804
37.746
37.683
37.616
37.545
37.471
37.394
37.316
37.237
37.156
37.076
36.995
36.915
36.836
36.758
36.681
36.605
36.531
36.458
36.386
36.314
36.241
36.167
36.092
36.015
35.936
35.857
35.777
35.697
35.617
35.538
35.459
35.381
35.305
35.231
35.159
35.09
35.024
34.958
34.895
34.832
34.77
34.71
34.652
34.595
34.54
34.486
34.434
34.382
34.33
34.278
34.226
34.174
34.122
34.07
34.02
33.97
33.922
33.877
33.835
33.796
33.761
33.73
33.7
33.67
33.64
33.608
33.576
33.543
33.509
33.473
33.438
33.401
33.364
33.325
33.285
33.244
33.201
33.156
33.109
33.061
33.011
32.961
32.909
32.858
32.805
32.753
32.702
32.651
32.602
32.556
32.512
32.471
32.432
32.395
32.359
32.325
32.291
32.258
32.227
32.199
32.178
32.165
32.164
32.178
32.21
32.265
32.346
32.457
32.599
32.776
32.988
33.235
33.513
33.822
34.155
34.509
34.879
35.259
35.644
36.029
36.409
36.779
37.136
37.475
37.795
38.092
38.364
38.611
38.829
39.02
39.182
39.318
39.428
39.513
39.577
39.622
39.65
39.663
39.664
39.654
39.636
39.612
39.583
39.552
39.521
39.492
39.464
39.439
39.416
39.394
39.373
39.352
39.329
39.303
39.273
39.236
39.194
39.144
39.087
39.022
38.95
38.871
38.786
38.694
38.597
38.495
38.391
38.286
38.182
38.08
37.981
37.888
37.8
37.72
37.647
37.582
37.524
37.474
37.431
37.394
37.362
37.333
37.307
37.282
37.259
37.237
37.217
37.197
37.177
37.156
37.135
37.11
37.083
37.052
37.017
36.979
36.937
36.893
36.845
36.796
36.745
36.695
36.648
36.604
36.561
36.519
36.478
36.435
36.391
36.342
36.289
36.23
36.164
36.092
36.014
35.931
35.845
35.756
35.667
35.578
35.492
35.407
35.326
35.248
35.173
35.103
35.037
34.975
34.917
34.863
34.811
34.762
34.715
34.669
34.625
34.581
34.538
34.495
34.451
34.407
34.362
34.317
34.273
34.23
34.189
34.149
34.11
34.072
34.037
34.004
33.974
33.947
33.922
33.899
33.878
33.858
33.839
33.819
33.799
33.778
33.756
33.735
33.714
33.692
33.671
33.648
33.623
33.596
33.567
33.536
33.503
33.469
33.432
33.386
33.33
33.265
33.193
33.118
33.044
32.974
32.911
32.856
32.809
32.772
32.743
32.722
32.706
32.696
32.691
32.688
32.688
32.69
32.694
32.7
32.708
32.721
32.742
32.774
32.821
32.887
32.976
33.091
33.234
33.407
33.61
33.844
34.106
34.394
34.704
35.032
35.374
35.723
36.077
36.43
36.779
37.12
37.448
37.761
38.053
38.32
38.56
38.772
38.954
39.107
39.233
39.334
39.413
39.473
39.516
39.545
39.562
39.571
39.572
39.567
39.556
39.54
39.52
39.499
39.476
39.452
39.428
39.404
39.381
39.357
39.333
39.308
39.281
39.251
39.215
39.174
39.124
39.066
38.999
38.923
38.836
38.741
38.639
38.531
38.418
38.303
38.189
38.076
37.967
37.862
37.761
37.664
37.571
37.484
37.403
37.328
37.259
37.199
37.146
37.1
37.061
37.028
36.999
36.973
36.949
36.925
36.899
36.872
36.842
36.809
36.772
36.733
36.69
36.645
36.598
36.549
36.498
36.444
36.39
36.333
36.275
36.216
36.154
36.092
36.029
35.965
35.902
35.84
35.779
35.719
35.66
35.6
35.539
35.479
35.419
35.36
35.3
35.24
35.179
35.115
35.049
34.982
34.914
34.847
34.782
34.72
34.66
34.603
34.548
34.496
34.445
34.395
34.347
34.301
34.257
34.214
34.171
34.13
34.088
34.046
34.003
33.961
33.919
33.877
33.836
33.795
33.754
33.713
33.672
33.633
33.595
33.559
33.525
33.492
33.461
33.432
33.404
33.379
33.355
33.331
33.308
33.285
33.262
33.238
33.213
33.188
33.162
33.136
33.11
33.083
33.055
33.025
32.992
32.957
32.92
32.88
32.839
32.796
32.752
32.707
32.661
32.614
32.567
32.52
32.472
32.425
32.377
32.328
32.28
32.232
32.186
32.143
32.103
32.067
32.035
32.007
31.984
31.965
31.952
31.945
31.947
31.96
31.988
32.033
32.101
32.192
32.312
32.461
32.641
32.852
33.093
33.362
33.655
33.969
34.3
34.641
34.988
35.335
35.677
36.011
36.332
36.639
36.927
37.194
37.439
37.661
37.859
38.034
38.185
38.313
38.42
38.505
38.57
38.618
38.649
38.665
38.671
38.667
38.656
38.64
38.623
38.604
38.586
38.568
38.551
38.533
38.514
38.494
38.472
38.448
38.424
38.398
38.372
38.344
38.316
38.285
38.252
38.215
38.173
38.125
38.07
38.007
37.936
37.856
37.769
37.674
37.575
37.473
37.37
37.266
37.164
37.066
36.973
36.885
36.803
36.728
36.659
36.597
36.542
36.493
36.449
36.411
36.377
36.347
36.319
36.293
36.266
36.24
36.211
36.181
36.149
36.114
36.077
36.039
35.998
35.955
35.91
35.862
35.813
35.761
35.708
35.654
35.597
35.538
35.477
35.415
35.353
35.291
35.229
35.167
35.106
35.045
34.983
34.922
34.861
34.801
34.741
34.682
34.623
34.566
34.509
34.452
34.394
34.335
34.276
34.216
34.156
34.097
34.039
33.982
33.928
33.874
33.822
33.773
33.726
33.681
33.638
33.597
33.559
33.524
33.492
33.462
33.434
33.407
33.383
33.359
33.337
33.316
33.295
33.275
33.257
33.239
33.223
33.208
33.194
33.181
33.167
33.152
33.137
33.121
33.105
33.088
33.07
33.05
33.03
33.007
32.984
32.96
32.934
32.908
32.881
32.852
32.821
32.79
32.757
32.723
32.688
32.652
32.614
32.576
32.536
32.494
32.452
32.409
32.367
32.325
32.285
32.248
32.213
32.18
32.149
32.121
32.095
32.071
32.051
32.034
32.021
32.015
32.017
32.032
32.062
32.111
32.18
32.272
32.387
32.526
32.691
32.883
33.101
33.344
33.61
33.897
34.201
34.517
34.841
35.168
35.493
35.812
36.12
36.414
36.691
36.949
37.185
37.398
37.588
37.754
37.896
38.016
38.113
38.189
38.246
38.286
38.313
38.327
38.332
38.33
38.321
38.308
38.292
38.273
38.253
38.232
38.211
38.189
38.166
38.142
38.117
38.091
38.062
38.032
38.0
37.965
37.927
37.884
37.837
37.784
37.725
37.66
37.589
37.511
37.429
37.342
37.254
37.167
37.081
36.999
36.921
36.848
36.78
36.717
36.658
36.604
36.555
36.51
36.47
36.435
36.408
36.388
36.373
36.363
36.354
36.344
36.334
36.319
36.3
36.277
36.249
36.216
36.179
36.138
36.094
36.047
35.999
35.95
35.9
35.849
35.797
35.744
35.69
35.633
35.576
35.517
35.459
35.402
35.345
35.289
35.232
35.175
35.116
35.057
34.997
34.937
34.877
34.817
34.758
34.699
34.64
34.581
34.521
34.46
34.398
34.337
34.276
34.216
34.158
34.101
34.045
33.99
33.936
33.884
33.834
33.786
33.741
33.698
33.657
33.619
33.582
33.547
33.513
33.481
33.448
33.409
33.364
33.314
33.259
33.204
33.149
33.097
33.05
33.01
32.976
32.95
32.931
32.917
32.909
32.905
32.905
32.905
32.906
32.907
32.905
32.901
32.894
32.884
32.871
32.855
32.836
32.813
32.787
32.759
32.729
32.699
32.669
32.639
32.61
32.582
32.554
32.525
32.498
32.471
32.445
32.42
32.397
32.375
32.352
32.329
32.304
32.276
32.247
32.216
32.183
32.15
32.116
32.082
32.05
32.018
31.988
31.959
31.932
31.908
31.886
31.866
31.848
31.832
31.819
31.808
31.8
31.797
31.801
31.813
31.832
31.861
31.902
31.962
32.046
32.158
32.302
32.479
32.69
32.934
33.209
33.511
33.835
34.176
34.529
34.885
35.241
35.591
35.929
36.253
36.56
36.845
37.107
37.343
37.552
37.734
37.888
38.017
38.121
38.202
38.263
38.306
38.336
38.354
38.363
38.368
38.368
38.368
38.366
38.364
38.361
38.359
38.356
38.355
38.355
38.355
38.357
38.36
38.363
38.367
38.37
38.371
38.368
38.361
38.348
38.326
38.296
38.257
38.208
38.15
38.083
38.008
37.928
37.842
37.753
37.662
37.571
37.481
37.393
37.307
37.223
37.142
37.065
36.994
36.929
36.87
36.818
36.772
36.732
36.698
36.666
36.637
36.609
36.58
36.551
36.521
36.489
36.456
36.421
36.385
36.347
36.306
36.262
36.216
36.167
36.116
36.062
36.008
35.952
35.895
35.838
35.78
35.721
35.661
35.6
35.538
35.474
35.41
35.344
35.277
35.21
35.144
35.077
35.011
34.944
34.878
34.811
34.743
34.674
34.603
34.532
34.462
34.393
34.325
34.258
34.193
34.128
34.065
34.003
33.943
33.885
33.83
33.778
33.727
33.678
33.631
33.585
33.542
33.499
33.459
33.421
33.384
33.349
33.314
33.278
33.242
33.204
33.166
33.128
33.09
33.052
33.015
32.978
32.941
32.904
32.867
32.831
32.795
32.759
32.723
32.688
32.653
32.619
32.586
32.556
32.528
32.502
32.479
32.457
32.437
32.417
32.399
32.38
32.362
32.342
32.322
32.301
32.278
32.255
32.23
32.204
32.177
32.149
32.12
32.09
32.058
32.025
31.992
31.959
31.928
31.899
31.871
31.843
31.816
31.79
31.764
31.739
31.714
31.689
31.664
31.638
31.613
31.589
31.564
31.541
31.519
31.498
31.478
31.458
31.439
31.421
31.405
31.392
31.383
31.379
31.382
31.393
31.416
31.452
31.505
31.578
31.675
31.796
31.942
32.114
32.311
32.53
32.771
33.03
33.305
33.592
33.889
34.192
34.497
34.8
35.097
35.384
35.659
35.918
36.158
36.376
36.571
36.741
36.887
37.008
37.108
37.188
37.25
37.297
37.332
37.355
37.369
37.374
37.371
37.363
37.35
37.335
37.319
37.304
37.29
37.278
37.27
37.264
37.261
37.259
37.257
37.255
37.253
37.248
37.24
37.229
37.214
37.194
37.17
37.14
37.105
37.065
37.021
36.972
36.919
36.863
36.805
36.747
36.688
36.628
36.569
36.51
36.453
36.397
36.343
36.29
36.239
36.188
36.14
36.094
36.051
36.012
35.977
35.947
35.921
35.899
35.88
35.864
35.85
35.836
35.822
35.808
35.793
35.776
35.757
35.733
35.706
35.674
35.637
35.596
35.552
35.506
35.457
35.406
35.354
35.3
35.246
35.192
35.138
35.086
35.034
34.983
34.932
34.881
34.83
34.778
34.726
34.673
34.621
34.568
34.515
34.463
34.409
34.355
34.299
34.243
34.187
34.133
34.08
34.03
33.983
33.94
33.899
33.861
33.825
33.79
33.756
33.722
33.688
33.652
33.616
33.579
33.543
33.507
33.472
33.438
33.406
33.374
33.344
33.313
33.283
33.252
33.222
33.191
33.162
33.135
33.11
33.087
33.066
33.048
33.032
33.018
33.005
32.994
32.983
32.974
32.964
32.955
32.945
32.935
32.923
32.91
32.895
32.878
32.861
32.843
32.824
32.804
32.782
32.759
32.734
32.706
32.677
32.647
32.616
32.587
32.558
32.532
32.507
32.484
32.462
32.44
32.417
32.395
32.372
32.35
32.328
32.305
32.282
32.259
32.234
32.209
32.184
32.16
32.136
32.114
32.095
32.081
32.072
32.073
32.085
32.111
32.155
32.217
32.302
32.408
32.539
32.694
32.874
33.08
33.309
33.559
33.828
34.112
34.406
34.705
35.005
35.302
35.593
35.873
36.139
36.388
36.619
36.83
37.02
37.188
37.334
37.458
37.56
37.641
37.704
37.749
37.779
37.796
37.802
37.8
37.791
37.777
37.761
37.744
37.726
37.708
37.69
37.673
37.656
37.639
37.622
37.607
37.593
37.581
37.57
37.558
37.546
37.532
37.515
37.493
37.466
37.433
37.395
37.351
37.303
37.25
37.193
37.132
37.068
37.002
36.936
36.869
36.803
36.738
36.674
36.614
36.556
36.503
36.453
36.407
36.365
36.327
36.292
36.261
36.232
36.204
36.178
36.152
36.126
36.101
36.075
36.05
36.025
35.999
35.973
35.946
35.918
35.887
35.853
35.817
35.778
35.736
35.694
35.649
35.604
35.558
35.509
35.459
35.406
35.35
35.293
35.236
35.179
35.123
35.069
35.016
34.965
34.914
34.864
34.814
34.765
34.716
34.669
34.622
34.576
34.53
34.483
34.434
34.384
34.331
34.278
34.226
34.175
34.125
34.077
34.029
33.984
33.939
33.896
33.853
33.811
33.769
33.728
33.688
33.649
33.611
33.574
33.539
33.505
33.472
33.44
33.408
33.376
33.343
33.311
33.278
33.245
33.212
33.18
33.148
33.118
33.089
33.063
33.039
33.016
32.995
32.974
32.953
32.932
32.911
32.89
32.869
32.849
32.829
32.809
32.79
32.772
32.755
32.739
32.723
32.708
