Trial 3:3back
34.633
34.629
34.626
34.624
34.622
34.618
34.614
34.609
34.601
34.591
34.579
34.564
34.546
34.526
34.504
34.48
34.453
34.425
34.396
34.366
34.335
34.304
34.273
34.242
34.211
34.179
34.148
34.118
34.088
34.06
34.032
34.005
33.977
33.949
33.919
33.888
33.855
33.821
33.787
33.753
33.719
33.688
33.659
33.633
33.612
33.595
33.583
33.576
33.575
33.579
33.59
33.608
33.634
33.67
33.717
33.773
33.842
33.921
34.012
34.113
34.225
34.346
34.477
34.615
34.759
34.908
35.06
35.213
35.366
35.517
35.665
35.809
35.946
36.077
36.198
36.31
36.411
36.502
36.581
36.649
36.707
36.755
36.794
36.825
36.848
36.865
36.876
36.882
36.883
36.881
36.875
36.867
36.858
36.848
36.838
36.828
36.819
36.811
36.805
36.799
36.795
36.791
36.787
36.783
36.778
36.77
36.761
36.751
36.738
36.723
36.706
36.687
36.665
36.641
36.613
36.582
36.547
36.509
36.468
36.424
36.379
36.332
36.284
36.236
36.189
36.143
36.1
36.059
36.022
35.988
35.959
35.933
35.913
35.897
35.886
35.88
35.877
35.879
35.884
35.893
35.904
35.917
35.932
35.948
35.964
35.981
35.997
36.012
36.026
36.039
36.05
36.059
36.065
36.069
36.071
36.069
36.065
36.057
36.047
36.034
36.019
36.002
35.983
35.962
35.94
35.917
35.893
35.868
35.842
35.817
35.792
35.768
35.744
35.722
35.699
35.677
35.654
35.63
35.606
35.582
35.557
35.531
35.505
35.478
35.451
35.423
35.394
35.365
35.335
35.305
35.275
35.244
35.212
35.181
35.149
35.117
35.085
35.053
35.022
34.99
34.958
34.926
34.894
34.863
34.833
34.804
34.776
34.751
34.726
34.703
34.68
34.659
34.639
34.621
34.605
34.59
34.578
34.567
34.556
34.547
34.537
34.528
34.519
34.51
34.501
34.491
34.482
34.473
34.463
34.453
34.442
34.431
34.42
34.408
34.396
34.384
34.371
34.359
34.347
34.336
34.327
34.318
34.31
34.304
34.298
34.293
34.289
34.286
34.283
34.28
34.275
34.27
34.263
34.254
34.244
34.231
34.217
34.2
34.182
34.162
34.139
34.115
34.089
34.062
34.034
34.007
33.979
33.953
33.928
33.903
33.88
33.858
33.839
33.823
33.811
33.803
33.801
33.805
33.817
33.837
33.867
33.909
33.962
34.027
34.106
34.197
34.302
34.419
34.548
34.689
34.84
34.999
35.166
35.338
35.512
35.686
35.857
36.024
36.183
36.335
36.476
36.607
36.728
36.837
36.936
37.024
37.102
37.169
37.227
37.276
37.315
37.348
37.374
37.394
37.409
37.421
37.43
37.437
37.441
37.443
37.444
37.443
37.44
37.437
37.433
37.428
37.424
37.419
37.413
37.408
37.402
37.396
37.389
37.382
37.373
37.363
37.352
37.339
37.324
37.307
37.288
37.266
37.242
37.216
37.188
37.157
37.123
37.087
37.048
37.009
36.969
36.93
36.892
36.855
36.82
36.787
36.757
36.73
36.707
36.687
36.671
36.661
36.655
36.655
36.659
36.666
36.677
36.689
36.703
36.718
36.733
36.747
36.762
36.776
36.789
36.802
36.813
36.822
36.83
36.836
36.839
36.839
36.837
36.831
36.821
36.809
36.794
36.776
36.756
36.735
36.712
36.689
36.664
36.638
36.611
36.583
36.554
36.524
36.492
36.46
36.428
36.396
36.365
36.334
36.304
36.274
36.244
36.214
36.184
36.153
36.122
36.091
36.06
36.029
35.998
35.967
35.937
35.908
35.879
35.851
35.824
35.797
35.77
35.742
35.714
35.686
35.658
35.629
35.601
35.574
35.547
35.52
35.495
35.471
35.447
35.425
35.404
35.385
35.366
35.35
35.334
35.32
35.307
35.296
35.285
35.276
35.268
35.26
35.252
35.242
35.232
35.221
35.209
35.197
35.183
35.168
35.153
35.137
35.122
35.106
35.09
35.075
35.059
35.043
35.027
35.011
34.996
34.981
34.966
34.952
34.938
34.924
34.911
34.897
34.883
34.869
34.855
34.841
34.828
34.816
34.805
34.796
34.788
34.781
34.774
34.766
34.758
34.749
34.738
34.724
34.709
34.691
34.67
34.648
34.625
34.6
34.575
34.549
34.524
34.501
34.48
34.46
34.444
34.432
34.424
34.42
34.423
34.432
34.45
34.476
34.514
34.562
34.623
34.696
34.782
34.88
34.991
35.114
35.249
35.394
35.549
35.711
35.879
36.05
36.223
36.393
36.561
36.722
36.877
37.023
37.159
37.285
37.4
37.504
37.596
37.677
37.748
37.808
37.858
37.898
37.929
37.95
37.962
37.967
37.965
37.958
37.946
37.932
37.916
37.901
37.886
37.874
37.864
37.856
37.849
37.844
37.84
37.837
37.833
37.83
37.827
37.823
37.82
37.816
37.81
37.803
37.794
37.782
37.767
37.748
37.724
37.697
37.667
37.632
37.594
37.553
37.51
37.465
37.42
37.374
37.329
37.286
37.246
37.208
37.173
37.141
37.113
37.089
37.069
37.053
37.041
37.033
37.029
37.028
37.03
37.035
37.043
37.054
37.066
37.079
37.092
37.106
37.119
37.13
37.139
37.145
37.149
37.148
37.145
37.138
37.128
37.115
37.099
37.08
37.058
37.034
37.006
36.977
36.945
36.911
36.876
36.84
36.804
36.769
36.735
36.7
36.667
36.634
36.601
36.57
36.539
36.508
36.478
36.448
36.419
36.39
36.361
36.332
36.304
36.274
36.245
36.214
36.182
36.15
36.118
36.085
36.053
36.022
35.991
35.961
35.932
35.902
35.874
35.846
35.818
35.79
35.763
35.735
35.708
35.681
35.653
35.625
35.598
35.571
35.544
35.519
35.495
35.472
35.451
35.431
35.413
35.395
35.378
35.362
35.346
35.33
35.315
35.3
35.285
35.271
35.258
35.245
35.231
35.217
35.202
35.186
35.169
35.152
35.134
35.114
35.095
35.075
35.055
35.035
35.015
34.996
34.977
34.958
34.941
34.924
34.909
34.895
34.883
34.872
34.861
34.85
34.838
34.825
34.81
34.794
34.777
34.758
34.738
34.717
34.695
34.671
34.645
34.618
34.589
34.559
34.528
34.496
34.464
34.433
34.401
34.37
34.34
34.311
34.284
34.259
34.237
34.219
34.205
34.196
34.192
34.196
34.207
34.228
34.259
34.3
34.353
34.418
34.496
34.586
34.689
34.804
34.93
35.065
35.209
35.359
35.513
35.67
35.826
35.981
36.133
36.28
36.42
36.552
36.675
36.789
36.892
36.984
37.066
37.138
37.2
37.253
37.295
37.329
37.354
37.371
37.38
37.383
37.379
37.37
37.357
37.341
37.321
37.3
37.278
37.256
37.233
37.211
37.19
37.169
37.149
37.13
37.111
37.093
37.075
37.057
37.038
37.018
36.997
36.974
36.95
36.925
36.897
36.866
36.833
36.796
36.757
36.714
36.669
36.622
36.573
36.525
36.476
36.428
36.382
36.339
36.298
36.261
36.228
36.2
36.177
36.158
36.144
36.136
36.131
36.132
36.136
36.144
36.155
36.168
36.183
36.199
36.215
36.231
36.246
36.259
36.269
36.277
36.281
36.283
36.281
36.277
36.27
36.261
36.25
36.238
36.223
36.206
36.187
36.165
36.142
36.117
36.091
36.064
36.037
36.008
35.98
35.95
35.921
35.892
35.862
35.831
35.8
35.769
35.737
35.704
35.671
35.638
35.605
35.571
35.536
35.501
35.465
35.428
35.39
35.353
35.314
35.276
35.237
35.199
35.162
35.126
35.091
35.057
35.026
34.995
34.967
34.941
34.917
34.896
34.878
34.863
34.851
34.841
34.833
34.825
34.818
34.811
34.803
34.794
34.784
34.774
34.763
34.752
34.74
34.727
34.714
34.7
34.684
34.668
34.651
34.633
34.615
34.597
34.579
34.562
34.546
34.531
34.517
34.503
34.49
34.478
34.465
34.452
34.44
34.427
34.415
34.404
34.392
34.379
34.367
34.354
34.342
34.329
34.317
34.304
34.291
34.275
34.258
34.239
34.218
34.195
34.17
34.143
34.113
34.081
34.047
34.012
33.977
33.941
33.907
33.874
33.842
33.813
33.787
33.764
33.745
33.731
33.723
33.722
33.729
33.745
33.771
33.809
33.858
33.921
33.997
34.086
34.187
34.3
34.423
34.555
34.695
34.841
34.99
35.141
35.292
35.441
35.585
35.724
35.856
35.98
36.097
36.205
36.303
36.393
36.474
36.547
36.611
36.667
36.715
36.756
36.79
36.818
36.841
36.86
36.876
36.888
36.898
36.906
36.912
36.918
36.924
36.93
36.936
36.942
36.948
36.952
36.955
36.956
36.955
36.951
36.946
36.938
36.928
36.916
36.901
36.884
36.863
36.839
36.812
36.781
36.746
36.708
36.666
36.621
36.574
36.524
36.473
36.422
36.371
36.32
36.271
36.223
36.178
36.136
36.098
36.065
36.038
36.016
36.0
35.99
35.984
35.983
35.984
35.988
35.993
35.998
36.004
36.01
36.015
36.019
36.023
36.026
36.027
36.028
36.028
36.027
36.025
36.022
36.018
36.014
36.007
35.999
35.988
35.975
35.96
35.942
35.922
35.9
35.876
35.85
35.823
35.796
35.768
35.739
35.71
35.68
35.65
35.621
35.591
35.561
35.531
35.501
35.471
35.442
35.412
35.383
35.355
35.327
35.299
35.271
35.244
35.217
35.191
35.165
35.14
35.115
35.091
35.068
35.044
35.019
34.994
34.968
34.941
34.913
34.885
34.856
34.827
34.797
34.768
34.738
34.709
34.679
34.65
34.622
34.594
34.568
34.542
34.517
34.494
34.472
34.45
34.428
34.406
34.385
34.364
34.343
34.324
34.305
34.287
34.27
34.253
34.236
34.22
34.204
34.188
34.173
34.158
34.143
34.129
34.114
34.1
34.085
34.071
34.057
34.044
34.031
34.019
34.008
33.998
33.988
33.979
33.971
33.963
33.955
33.947
33.938
33.927
33.915
33.902
33.887
33.87
33.851
33.831
33.808
33.784
33.759
33.732
33.705
33.677
33.648
33.618
33.588
33.558
33.528
33.499
33.471
33.445
33.421
33.399
33.381
33.365
33.352
33.344
33.342
33.346
33.358
33.381
33.414
33.459
33.516
33.586
33.668
33.764
33.872
33.992
34.123
34.263
34.413
34.569
34.731
34.896
35.061
35.225
35.385
35.541
35.689
35.829
35.959
36.078
36.186
36.281
36.365
36.437
36.498
36.549
36.591
36.623
36.647
36.665
36.676
36.683
36.687
36.688
36.687
36.686
36.684
36.682
36.68
36.677
36.674
36.67
36.666
36.662
36.657
36.651
36.646
36.639
36.632
36.624
36.616
36.606
36.595
36.582
36.568
36.551
36.532
36.51
36.485
36.457
36.425
36.391
36.353
36.313
36.271
36.226
36.18
36.133
36.084
36.036
35.989
35.944
35.902
35.866
35.834
35.808
35.788
35.772
35.761
35.754
35.751
35.75
35.751
35.754
35.758
35.763
35.768
35.774
35.78
35.786
35.791
35.795
35.799
35.801
35.801
35.799
35.795
35.789
35.781
35.772
35.761
35.747
35.731
35.713
35.691
35.666
35.638
35.607
35.575
35.542
35.508
35.473
35.439
35.406
35.373
35.342
35.313
35.284
35.258
35.232
35.208
35.185
35.161
35.138
35.114
35.09
35.066
35.042
35.018
34.995
34.971
34.947
34.924
34.9
34.876
34.851
34.825
34.798
34.771
34.744
34.716
34.689
34.662
34.635
34.609
34.583
34.557
34.533
34.51
34.49
34.471
34.455
34.441
34.429
34.418
34.409
34.401
34.394
34.388
34.382
34.377
34.372
34.366
34.359
34.351
34.34
34.328
34.314
34.299
34.283
34.266
34.248
34.23
34.212
34.193
34.173
34.154
34.134
34.114
34.094
34.075
34.056
34.037
34.018
33.998
33.979
33.96
33.94
33.92
33.9
33.88
33.86
33.84
33.821
33.803
33.785
33.767
33.75
33.733
33.716
33.699
33.683
33.667
33.651
33.636
33.621
33.606
33.592
33.577
33.563
33.548
33.533
33.517
33.501
33.484
33.465
33.445
33.423
33.4
33.375
33.35
33.324
33.299
33.275
33.252
33.231
33.213
33.2
33.19
33.186
33.187
33.195
33.211
33.237
33.273
33.322
33.383
33.457
33.543
33.641
33.751
33.872
34.003
34.141
34.287
34.438
34.593
34.749
34.906
35.061
35.213
35.36
35.5
35.632
35.752
35.862
35.959
36.043
36.116
36.177
36.226
36.266
36.296
36.319
36.334
36.343
36.347
36.347
36.343
36.336
36.327
36.317
36.305
36.293
36.281
36.269
36.258
36.248
36.239
36.231
36.224
36.219
36.216
36.213
36.21
36.207
36.204
36.2
36.194
36.187
36.177
36.164
36.147
36.126
36.1
36.07
36.035
35.996
35.954
35.909
35.863
35.816
35.77
35.725
35.682
35.643
35.607
35.576
35.549
35.526
35.506
35.491
35.479
35.47
35.465
35.463
35.465
35.469
35.476
35.485
35.494
35.503
35.512
35.52
35.527
35.532
35.535
35.536
35.534
35.529
35.521
35.509
35.494
35.477
35.456
35.434
35.409
35.384
35.357
35.33
35.303
35.276
35.249
35.223
35.197
35.171
35.147
35.122
35.098
35.075
35.052
35.03
35.008
34.985
34.963
34.941
34.918
34.896
34.874
34.852
34.83
34.809
34.789
34.77
34.751
34.731
34.711
34.691
34.67
34.649
34.628
34.606
34.583
34.56
34.536
34.512
34.487
34.462
34.437
34.412
34.388
34.364
34.342
34.321
34.302
34.285
34.269
34.254
34.241
34.228
34.216
34.205
34.195
34.184
34.174
34.163
34.153
34.143
34.133
34.123
34.112
34.101
34.089
34.075
34.061
34.045
34.029
34.012
33.994
33.976
33.959
33.943
33.927
33.912
33.897
33.883
33.87
33.859
33.849
33.842
33.837
33.834
33.834
33.834
33.836
33.838
33.839
33.839
33.839
33.837
33.834
33.828
33.82
33.811
33.799
33.784
33.769
33.752
33.733
33.714
33.694
33.673
33.651
33.629
33.607
33.586
33.564
33.543
33.523
33.503
33.484
33.467
33.453
33.44
33.43
33.422
33.416
33.411
33.408
33.406
33.408
33.413
33.423
33.439
33.461
33.49
33.527
33.572
33.626
33.688
33.761
33.843
33.934
34.033
34.14
34.254
34.374
34.497
34.624
34.751
34.878
35.003
35.124
35.239
35.349
35.45
35.544
35.627
35.701
35.765
35.818
35.861
35.894
35.918
35.934
35.941
35.94
35.934
35.922
35.905
35.884
35.861
35.836
35.81
35.785
35.761
35.738
35.716
35.695
35.674
35.653
35.632
35.612
35.592
35.573
35.554
35.535
35.515
35.495
35.474
35.452
35.429
35.405
35.381
35.357
35.334
35.311
35.288
35.267
35.246
35.227
35.21
35.195
35.182
35.17
35.162
35.155
35.151
35.15
35.152
35.155
35.161
35.167
35.175
35.183
35.191
35.2
35.21
35.22
35.231
35.243
35.256
35.269
35.281
35.292
35.303
35.313
35.322
35.331
35.339
35.347
35.354
35.359
35.363
35.364
35.363
35.359
35.353
35.344
35.332
35.318
35.303
35.286
35.269
35.25
35.232
35.212
35.192
35.171
35.149
35.125
35.099
35.071
35.041
35.009
34.976
34.941
34.905
34.867
34.828
34.787
34.746
34.704
34.661
34.619
34.578
34.536
34.496
34.455
34.415
34.376
34.336
34.298
34.259
34.22
34.181
34.144
34.107
34.072
34.04
34.011
33.984
33.961
33.942
33.926
33.913
33.904
33.898
33.895
33.896
33.901
33.908
33.918
33.93
33.943
33.958
33.972
33.988
34.003
34.019
34.034
34.05
34.065
34.078
34.089
34.098
34.104
34.107
34.107
34.104
34.099
34.093
34.085
34.076
34.066
34.056
34.045
34.034
34.022
34.009
33.996
33.983
33.97
33.957
33.944
33.931
33.917
33.904
33.891
33.877
33.862
33.847
33.831
33.814
33.794
33.772
33.748
33.72
33.69
33.657
33.621
33.585
33.547
33.509
33.472
33.436
33.401
33.369
33.339
33.312
33.288
33.267
33.25
33.236
33.225
33.218
33.216
33.219
33.228
33.244
33.267
33.299
33.339
33.391
33.454
33.53
33.618
33.719
33.833
33.959
34.096
34.242
34.397
34.558
34.723
34.89
35.057
35.222
35.384
35.54
35.69
35.833
35.967
36.092
36.206
36.308
36.399
36.477
36.544
36.6
36.646
36.683
36.712
36.735
36.751
36.762
36.768
36.77
36.77
36.767
36.762
36.757
36.752
36.746
36.74
36.735
36.729
36.724
36.72
36.715
36.711
36.706
36.7
36.693
36.684
36.674
36.662
36.647
36.63
36.611
36.589
36.565
36.538
36.509
36.477
36.443
36.407
36.369
36.33
36.289
36.248
36.207
36.166
36.125
36.086
36.049
36.014
35.983
35.955
35.932
35.913
35.898
35.888
35.883
35.881
35.883
35.889
35.898
35.911
35.927
35.946
35.966
35.988
36.01
36.032
36.053
36.073
36.092
36.108
36.12
36.13
36.135
36.136
36.133
36.126
36.115
36.1
36.082
36.061
36.039
36.015
35.989
35.962
35.933
35.904
35.874
35.844
35.812
35.78
35.747
35.714
35.681
35.648
35.616
35.586
35.557
35.529
35.502
35.477
35.452
35.427
35.402
35.378
35.353
35.328
35.303
35.277
35.25
35.222
35.192
35.163
35.133
35.103
35.074
35.044
35.015
34.987
34.959
34.934
34.909
34.887
34.866
34.846
34.827
34.809
34.792
34.775
34.759
34.743
34.729
34.715
34.7
34.686
34.672
34.658
34.643
34.629
34.616
34.604
34.593
34.583
34.573
34.563
34.553
34.542
34.53
34.518
34.505
34.492
34.477
34.462
34.447
34.431
34.414
34.398
34.38
34.362
34.343
34.324
34.304
34.284
34.264
34.245
34.226
34.209
34.193
34.178
34.164
34.151
34.139
34.128
34.118
34.107
34.095
34.083
34.071
34.057
34.042
34.026
34.009
33.99
33.97
33.949
33.927
33.905
33.882
33.858
33.835
33.813
33.793
33.774
33.757
33.742
33.73
33.721
33.717
33.718
33.727
33.743
33.769
33.804
33.851
33.909
33.979
34.063
34.161
34.271
34.395
34.53
34.675
34.828
34.988
35.153
35.321
35.489
35.656
35.82
35.978
36.129
36.271
36.404
36.526
36.637
36.737
36.824
36.9
36.964
37.017
37.059
37.091
37.113
37.128
37.137
37.141
37.141
37.139
37.135
37.13
37.124
37.118
37.112
37.106
37.101
37.096
37.092
37.088
37.083
37.078
37.072
37.065
37.058
37.049
37.039
37.027
37.014
36.998
36.98
36.959
36.936
36.91
36.881
36.849
36.815
36.779
36.743
36.705
36.666
36.627
36.589
36.551
36.515
36.481
36.449
36.418
36.389
36.362
36.337
36.315
36.297
36.283
36.273
36.268
36.267
36.271
36.278
36.289
36.302
36.317
36.334
36.352
36.371
36.39
36.409
36.427
36.444
36.458
36.469
36.476
36.479
36.478
36.472
36.461
36.446
36.427
36.405
36.379
36.351
36.321
36.289
36.256
36.223
36.19
36.158
36.126
36.096
36.067
36.041
36.015
35.991
35.967
35.944
35.919
35.893
35.865
35.835
35.805
35.773
35.74
35.708
35.675
35.643
35.61
35.578
35.546
35.514
35.483
35.452
35.421
35.391
35.362
35.333
35.304
35.276
35.249
35.222
35.197
35.172
35.148
35.126
35.103
35.082
35.06
35.039
35.019
34.999
34.98
34.962
34.946
34.93
34.915
34.901
34.887
34.874
34.862
34.849
34.837
34.824
34.811
34.796
34.781
34.764
34.746
34.726
34.705
34.684
34.662
34.64
34.619
34.598
34.578
34.558
34.538
34.519
34.499
34.479
34.459
34.44
34.422
34.406
34.391
34.377
34.365
34.353
34.343
34.334
34.324
34.314
34.304
34.293
34.281
34.267
34.251
34.232
34.211
34.186
34.159
34.129
34.097
34.064
34.03
33.996
33.963
33.931
33.902
33.875
33.851
33.829
33.811
33.797
33.787
33.781
33.78
33.786
33.798
33.816
33.843
33.879
33.924
33.978
34.044
34.121
34.209
34.309
34.419
34.54
34.67
34.808
34.953
35.103
35.257
35.412
35.567
35.719
35.867
36.01
36.146
36.275
36.394
36.504
36.604
36.693
36.771
36.836
36.891
36.933
36.966
36.988
37.002
37.009
37.01
37.008
37.002
36.995
36.986
36.977
36.968
36.959
36.951
36.944
36.937
36.93
36.923
36.917
36.91
36.902
36.894
36.885
36.874
36.86
36.844
36.825
36.801
36.774
36.744
36.711
36.674
36.636
36.595
36.553
36.51
36.465
36.419
36.372
36.325
36.279
36.234
36.191
36.152
36.118
36.089
36.065
36.047
36.036
36.03
36.029
36.033
36.039
36.048
36.059
36.07
36.082
36.093
36.105
36.116
36.125
36.133
36.14
36.145
36.147
36.148
36.146
36.143
36.137
36.129
36.12
36.107
36.092
36.075
36.057
36.036
36.014
35.991
35.967
35.942
35.915
35.888
35.86
35.831
35.801
35.771
35.742
35.712
35.683
35.655
35.628
35.601
35.575
35.548
35.521
35.494
35.466
35.439
35.413
35.387
35.361
35.335
35.309
35.283
35.257
35.231
35.203
35.175
35.146
35.116
35.086
35.055
35.023
34.991
34.957
34.923
34.888
34.854
34.821
34.789
34.758
34.729
34.702
34.675
34.65
34.625
34.602
34.58
34.559
34.539
34.522
34.506
34.492
34.48
34.469
34.46
34.452
34.444
34.437
34.43
34.423
34.417
34.411
34.405
34.399
34.394
34.39
34.385
34.382
34.378
34.374
34.37
34.364
34.357
34.349
34.34
34.329
34.317
34.305
34.291
34.276
34.26
34.242
34.223
34.202
34.18
34.156
34.131
34.105
34.078
34.049
34.02
33.99
33.961
33.931
33.903
33.875
33.848
33.822
33.798
33.775
33.756
33.739
33.728
33.722
33.723
33.733
33.753
33.786
33.832
33.891
33.964
34.049
34.147
34.257
34.378
34.509
34.648
34.795
34.948
35.104
