Trial 3:3back
33.183
33.228
33.29
33.371
33.472
33.594
33.738
33.904
34.091
34.296
34.519
34.756
35.003
35.258
35.517
35.775
36.029
36.275
36.51
36.73
36.933
37.117
37.28
37.421
37.539
37.634
37.708
37.76
37.792
37.807
37.804
37.786
37.755
37.712
37.66
37.598
37.53
37.456
37.378
37.296
37.212
37.127
37.041
36.955
36.87
36.787
36.705
36.625
36.547
36.472
36.399
36.329
36.262
36.197
36.134
36.072
36.012
35.952
35.892
35.83
35.768
35.705
35.641
35.578
35.515
35.453
35.393
35.337
35.284
35.235
35.191
35.152
35.118
35.089
35.065
35.047
35.033
35.025
35.021
35.021
35.025
35.033
35.043
35.056
35.069
35.083
35.098
35.111
35.123
35.133
35.141
35.147
35.149
35.147
35.142
35.134
35.123
35.108
35.091
35.071
35.048
35.023
34.995
34.965
34.932
34.896
34.858
34.818
34.776
34.732
34.687
34.641
34.593
34.545
34.496
34.448
34.401
34.355
34.31
34.267
34.225
34.185
34.146
34.107
34.069
34.032
33.996
33.959
33.923
33.887
33.852
33.816
33.781
33.745
33.71
33.674
33.639
33.603
33.568
33.534
33.502
33.47
33.441
33.413
33.387
33.361
33.337
33.313
33.29
33.266
33.243
33.219
33.195
33.171
33.147
33.122
33.096
33.07
33.043
33.016
32.988
32.959
32.929
32.898
32.866
32.834
32.802
32.771
32.741
32.715
32.691
32.673
32.661
32.656
32.66
32.676
32.705
32.749
32.812
32.895
33.0
33.128
33.279
33.453
33.648
33.864
34.097
34.345
34.603
34.87
35.139
35.407
35.671
35.927
36.172
36.403
36.618
36.814
36.99
37.147
37.282
37.397
37.492
37.568
37.625
37.665
37.689
37.698
37.694
37.679
37.654
37.619
37.577
37.529
37.476
37.418
37.358
37.295
37.23
37.165
37.1
37.034
36.969
36.904
36.84
36.777
36.714
36.653
36.591
36.53
36.469
36.408
36.347
36.285
36.223
36.16
36.097
36.034
35.972
35.911
35.851
35.794
35.74
35.69
35.643
35.6
35.561
35.526
35.496
35.47
35.448
35.431
35.417
35.406
35.397
35.391
35.386
35.383
35.38
35.378
35.377
35.376
35.374
35.372
35.369
35.364
35.357
35.349
35.337
35.323
35.306
35.285
35.261
35.234
35.203
35.17
35.134
35.096
35.057
35.016
34.974
34.931
34.886
34.84
34.794
34.747
34.701
34.657
34.614
34.573
34.533
34.496
34.459
34.424
34.39
34.357
34.325
34.294
34.264
34.236
34.208
34.18
34.154
34.128
34.103
34.078
34.053
34.029
34.005
33.98
33.957
33.933
33.911
33.888
33.867
33.846
33.827
33.809
33.791
33.775
33.759
33.743
33.728
33.712
33.696
33.681
33.665
33.649
33.634
33.618
33.603
33.588
33.572
33.557
33.541
33.525
33.508
33.491
33.474
33.455
33.436
33.417
33.397
33.377
33.357
33.338
33.321
33.305
33.292
33.283
33.279
33.283
33.295
33.318
33.355
33.407
33.475
33.561
33.666
33.79
33.933
34.095
34.273
34.467
34.673
34.889
35.112
35.338
35.564
35.787
36.003
36.21
36.404
36.585
36.749
36.895
37.022
37.129
37.218
37.287
37.338
37.372
37.39
37.392
37.382
37.359
37.325
37.282
37.231
37.175
37.115
37.052
36.987
36.921
36.854
36.787
36.721
36.656
36.592
36.531
36.472
36.415
36.361
36.309
36.26
36.213
36.167
36.123
36.079
36.035
35.991
35.946
35.9
35.853
35.805
35.758
35.711
35.664
35.617
35.572
35.528
35.486
35.447
35.412
35.38
35.352
35.328
35.309
35.295
35.285
35.279
35.277
35.279
35.282
35.289
35.297
35.307
35.318
35.331
35.344
35.357
35.37
35.382
35.392
35.4
35.406
35.409
35.409
35.405
35.398
35.386
35.372
35.353
35.332
35.307
35.279
35.247
35.211
35.173
35.133
35.091
35.048
35.003
34.959
34.913
34.868
34.823
34.778
34.734
34.69
34.648
34.605
34.563
34.522
34.481
34.442
34.403
34.366
34.33
34.294
34.259
34.225
34.191
34.158
34.126
34.094
34.064
34.034
34.006
33.978
33.952
33.926
33.9
33.874
33.848
33.822
33.796
33.771
33.747
33.724
33.703
33.682
33.663
33.646
33.631
33.617
33.605
33.594
33.584
33.575
33.566
33.557
33.549
33.54
33.531
33.523
33.514
33.505
33.496
33.486
33.476
33.465
33.453
33.44
33.428
33.417
33.408
33.404
33.407
33.42
33.443
33.479
33.53
33.598
33.684
33.788
33.91
34.05
34.207
34.38
34.566
34.763
34.968
35.179
35.391
35.603
35.81
36.011
36.201
36.38
36.544
36.691
36.822
36.933
37.026
37.1
37.156
37.194
37.215
37.222
37.214
37.195
37.165
37.127
37.082
37.03
36.974
36.915
36.852
36.788
36.722
36.655
36.588
36.521
36.455
36.39
36.327
36.265
36.205
36.148
36.092
36.038
35.987
35.936
35.887
35.838
35.79
35.742
35.694
35.645
35.596
35.547
35.498
35.45
35.402
35.356
35.312
35.269
35.229
35.192
35.158
35.128
35.102
35.081
35.063
35.049
35.038
35.032
35.029
35.03
35.034
35.041
35.05
35.062
35.074
35.087
35.1
35.113
35.124
35.134
35.143
35.149
35.153
35.155
35.155
35.152
35.146
35.138
35.127
35.112
35.095
35.075
35.053
35.028
35.0
34.97
34.938
34.904
34.868
34.83
34.791
34.751
34.71
34.668
34.625
34.582
34.539
34.497
34.456
34.416
34.377
34.339
34.303
34.268
34.234
34.2
34.167
34.134
34.103
34.072
34.041
34.012
33.984
33.956
33.93
33.904
33.88
33.857
33.834
33.812
33.79
33.768
33.745
33.722
33.698
33.674
33.649
33.624
33.597
33.57
33.541
33.512
33.483
33.453
33.424
33.394
33.365
33.338
33.313
33.292
33.275
33.265
33.262
33.268
33.287
33.318
33.365
33.428
33.508
33.606
33.722
33.857
34.009
34.177
34.361
34.556
34.762
34.975
35.193
35.411
35.628
35.84
36.045
36.239
36.42
36.587
36.738
36.871
36.987
37.084
37.162
37.223
37.266
37.294
37.306
37.305
37.291
37.267
37.234
37.192
37.145
37.092
37.035
36.976
36.915
36.852
36.79
36.729
36.669
36.61
36.554
36.499
36.445
36.393
36.343
36.293
36.245
36.197
36.149
36.102
36.054
36.007
35.959
35.911
35.863
35.814
35.765
35.717
35.669
35.621
35.575
35.53
35.489
35.451
35.416
35.386
35.361
35.341
35.325
35.314
35.307
35.303
35.303
35.305
35.31
35.317
35.325
35.335
35.346
35.357
35.368
35.379
35.388
35.396
35.403
35.408
35.41
35.41
35.408
35.402
35.393
35.38
35.364
35.344
35.321
35.295
35.267
35.236
35.204
35.17
35.136
35.1
35.063
35.025
34.986
34.946
34.906
34.864
34.822
34.78
34.738
34.695
34.654
34.613
34.573
34.535
34.498
34.463
34.43
34.399
34.37
34.343
34.318
34.293
34.27
34.247
34.225
34.203
34.18
34.158
34.136
34.114
34.092
34.07
34.049
34.028
34.007
33.987
33.967
33.947
33.927
33.908
33.888
33.867
33.844
33.821
33.797
33.771
33.745
33.718
33.69
33.663
33.637
33.611
33.588
33.568
33.553
33.544
33.544
33.555
33.579
33.619
33.677
33.754
33.85
33.967
34.105
34.263
34.44
34.635
34.846
35.07
35.305
35.546
35.792
36.037
36.278
36.512
36.734
36.943
37.136
37.31
37.465
37.599
37.713
37.806
37.878
37.932
37.967
37.986
37.99
37.982
37.962
37.934
37.899
37.858
37.812
37.763
37.712
37.659
37.605
37.55
37.495
37.441
37.388
37.335
37.285
37.236
37.189
37.144
37.1
37.058
37.016
36.974
36.932
36.89
36.847
36.802
36.755
36.706
36.656
36.603
36.549
36.495
36.44
36.385
36.331
36.279
36.23
36.184
36.142
36.105
36.072
36.044
36.021
36.003
35.99
35.981
35.977
35.976
35.979
35.984
35.993
36.002
36.013
36.024
36.034
36.043
36.051
36.056
36.06
36.061
36.06
36.056
36.049
36.038
36.025
36.009
35.99
35.968
35.943
35.916
35.888
35.857
35.826
35.793
35.759
35.724
35.688
35.652
35.615
35.579
35.542
35.506
35.469
35.431
35.393
35.355
35.316
35.276
35.236
35.196
35.157
35.117
35.078
35.039
35.001
34.964
34.928
34.893
34.859
34.825
34.793
34.762
34.732
34.704
34.676
34.649
34.622
34.596
34.571
34.546
34.521
34.496
34.472
34.448
34.425
34.401
34.377
34.353
34.329
34.304
34.279
34.253
34.228
34.203
34.177
34.153
34.131
34.111
34.095
34.084
34.081
34.086
34.104
34.134
34.181
34.244
34.325
34.425
34.544
34.681
34.836
35.007
35.192
35.388
35.593
35.804
36.016
36.226
36.431
36.628
36.814
36.988
37.146
37.288
37.411
37.515
37.6
37.666
37.712
37.74
37.753
37.75
37.734
37.708
37.671
37.627
37.575
37.518
37.457
37.392
37.325
37.257
37.189
37.121
37.055
36.99
36.929
36.87
36.815
36.763
36.715
36.67
36.629
36.589
36.551
36.514
36.477
36.439
36.4
36.36
36.318
36.275
36.23
36.185
36.137
36.089
36.041
35.993
35.946
35.902
35.861
35.823
35.788
35.757
35.729
35.704
35.683
35.665
35.65
35.639
35.63
35.624
35.621
35.621
35.622
35.624
35.627
35.63
35.633
35.637
35.639
35.642
35.644
35.645
35.645
35.644
35.641
35.636
35.629
35.62
35.608
35.594
35.577
35.558
35.536
35.512
35.483
35.452
35.416
35.377
35.335
35.289
35.24
35.188
35.133
35.076
35.016
34.955
34.893
34.83
34.768
34.707
34.648
34.591
34.537
34.485
34.437
34.393
34.352
34.314
34.279
34.246
34.216
34.188
34.163
34.14
34.119
34.1
34.084
34.07
34.057
34.045
34.033
34.02
34.007
33.992
33.976
33.958
33.938
33.916
33.893
33.869
33.844
33.819
33.796
33.776
33.76
33.75
33.748
33.756
33.775
33.808
33.857
33.922
34.006
34.107
34.226
34.363
34.517
34.686
34.867
35.059
35.258
35.463
35.669
35.875
36.077
36.271
36.456
36.63
36.789
36.934
37.063
37.176
37.272
37.351
37.413
37.458
37.488
37.503
37.505
37.494
37.471
37.438
37.397
37.349
37.295
37.237
37.177
37.117
37.057
36.999
36.943
36.889
36.838
36.79
36.745
36.702
36.661
36.621
36.582
36.544
36.506
36.468
36.428
36.388
36.345
36.302
36.257
36.211
36.164
36.117
36.071
36.025
35.98
35.938
35.899
35.863
35.832
35.804
35.781
35.763
35.749
35.739
35.733
35.731
35.732
35.737
35.745
35.755
35.767
35.78
35.793
35.806
35.818
35.829
35.837
35.843
35.846
35.845
35.841
35.834
35.824
35.81
35.793
35.773
35.75
35.724
35.695
35.664
35.63
35.595
35.557
35.518
35.478
35.437
35.395
35.354
35.312
35.271
35.231
35.19
35.15
35.111
35.071
35.032
34.993
34.955
34.917
34.879
34.841
34.803
34.764
34.725
34.686
34.647
34.608
34.569
34.531
34.494
34.457
34.422
34.388
34.355
34.322
34.29
34.259
34.228
34.198
34.169
34.139
34.11
34.08
34.051
34.023
33.996
33.969
33.943
33.919
33.897
33.877
33.86
33.847
33.839
33.837
33.842
33.856
33.881
33.917
33.968
34.033
34.115
34.214
34.329
34.462
34.612
34.776
34.954
35.143
35.341
35.546
35.755
35.964
36.171
36.373
36.566
36.748
36.917
37.07
37.206
37.325
37.424
37.504
37.565
37.609
37.635
37.646
37.642
37.626
37.598
37.56
37.513
37.46
37.402
37.339
37.272
37.204
37.134
37.063
36.992
36.921
36.852
36.783
36.716
36.65
36.586
36.524
36.462
36.402
36.343
36.283
36.224
36.164
36.104
36.043
35.982
35.922
35.861
35.8
35.739
35.679
35.62
35.562
35.508
35.456
35.408
35.365
35.327
35.293
35.264
35.24
35.221
35.207
35.196
35.187
35.182
35.177
35.174
35.171
35.169
35.167
35.164
35.161
35.157
35.151
35.144
35.135
35.124
35.11
35.095
35.077
35.058
35.037
35.015
34.991
34.965
34.939
34.911
34.883
34.853
34.822
34.789
34.756
34.722
34.687
34.65
34.613
34.574
34.534
34.493
34.45
34.407
34.364
34.321
34.278
34.236
34.194
34.153
34.114
34.075
34.038
34.002
33.967
33.933
33.9
33.868
33.837
33.806
33.776
33.745
33.716
33.687
33.659
33.631
33.604
33.578
33.552
33.526
33.5
33.473
33.447
33.42
33.392
33.364
33.337
33.309
33.283
33.257
33.233
33.209
33.188
33.169
33.153
33.142
33.135
33.136
33.145
33.164
33.194
33.238
33.296
33.37
33.46
33.567
33.69
33.828
33.98
34.144
34.319
34.502
34.69
34.879
35.066
35.249
35.425
35.592
35.747
35.888
36.014
36.124
36.217
36.294
36.354
36.399
36.429
36.445
36.449
36.443
36.428
36.405
36.374
36.338
36.297
36.252
36.205
36.156
36.107
36.057
36.008
35.96
35.913
35.868
35.824
35.783
35.743
35.704
35.666
35.629
35.591
35.554
35.516
35.476
35.435
35.392
35.346
35.298
35.248
35.197
35.144
35.091
35.039
34.987
34.938
34.891
34.846
34.805
34.768
34.734
34.705
34.679
34.657
34.639
34.624
34.612
34.604
34.598
34.595
34.592
34.591
34.59
34.589
34.589
34.587
34.585
34.582
34.577
34.572
34.565
34.555
34.544
34.53
34.513
34.494
34.473
34.45
34.425
34.4
34.373
34.347
34.319
34.291
34.263
34.234
34.206
34.177
34.147
34.118
34.088
34.058
34.029
34.0
33.972
33.944
33.918
33.892
33.867
33.842
33.819
33.795
33.771
33.748
33.724
33.7
33.676
33.653
33.631
33.609
33.588
33.569
33.55
33.532
33.515
33.499
33.483
33.469
33.456
33.442
33.429
33.416
33.403
33.389
33.374
33.358
33.342
33.324
33.306
33.288
33.27
33.252
33.236
33.221
33.209
33.201
33.198
33.201
33.212
33.234
33.267
33.314
33.375
33.452
33.545
33.655
33.78
33.92
34.072
34.236
34.409
34.587
34.768
34.949
35.127
35.299
35.463
35.616
35.757
35.884
35.995
36.091
36.171
36.234
36.282
36.315
36.334
36.34
36.334
36.318
36.293
36.262
36.225
36.183
36.138
36.092
36.044
35.996
35.949
35.902
35.857
35.814
35.772
35.732
35.695
35.659
35.624
35.59
35.558
35.525
35.493
35.462
35.431
35.4
35.369
35.339
35.309
35.28
35.251
35.223
35.195
35.168
35.141
35.114
35.089
35.065
35.042
35.021
35.001
34.984
34.968
34.954
34.942
34.932
34.923
34.916
34.91
34.906
34.903
34.902
34.902
34.904
34.906
34.908
34.911
34.913
34.915
34.915
34.915
34.913
34.91
34.905
34.898
34.89
34.879
34.867
34.853
34.837
34.819
34.799
34.778
34.755
34.732
34.708
34.684
34.659
34.634
34.609
34.584
34.558
34.532
34.505
34.476
34.446
34.414
34.381
34.347
34.311
34.276
34.24
34.205
34.171
34.139
34.108
34.079
34.052
34.028
34.005
33.985
33.966
33.948
33.932
33.916
33.9
33.884
33.868
33.852
33.835
33.817
33.799
33.78
33.76
33.741
33.721
33.702
33.683
33.664
33.645
33.625
33.605
33.586
33.567
33.551
33.537
33.528
33.525
33.531
33.546
33.573
33.614
33.67
33.742
33.832
33.938
34.062
34.203
34.36
34.531
34.715
34.908
35.109
35.314
35.52
35.723
35.921
36.111
36.289
36.455
36.606
36.74
36.858
36.958
37.04
37.106
37.154
37.187
37.205
37.21
37.204
37.187
37.161
37.128
37.089
37.045
36.997
36.946
36.893
36.839
36.784
36.729
36.675
36.621
36.568
36.517
36.467
36.419
36.372
36.327
36.283
36.241
36.2
36.16
36.12
36.08
36.041
36.003
35.964
35.926
35.889
35.852
35.817
35.783
35.749
35.718
35.688
35.66
35.634
35.612
35.592
35.577
35.564
35.556
35.55
35.547
35.547
35.549
35.553
35.559
35.567
35.575
35.584
35.593
35.603
35.611
35.619
35.626
35.63
35.633
35.633
35.631
35.628
35.622
35.614
35.604
35.592
35.578
35.563
35.546
35.528
35.508
35.486
35.463
35.438
35.412
35.386
35.358
35.33
35.301
35.273
35.244
35.216
35.188
35.16
35.132
35.105
35.078
35.051
35.024
34.998
34.973
34.948
34.924
34.901
34.878
34.856
34.834
34.812
34.79
34.767
34.745
34.722
34.698
34.675
34.651
34.626
34.602
34.577
34.552
34.527
34.502
34.477
34.452
34.426
34.401
34.376
34.35
34.325
34.299
34.274
34.249
34.224
34.201
34.179
34.158
34.141
34.127
34.12
34.12
34.129
34.151
34.186
34.237
34.304
34.389
34.492
34.613
34.75
34.903
35.069
35.246
35.431
35.622
35.816
36.009
36.199
36.383
36.558
36.721
36.871
37.007
37.127
37.231
37.319
37.391
37.446
37.487
37.514
37.529
37.532
37.524
37.507
37.483
37.452
37.415
37.374
37.33
37.283
37.234
37.185
37.135
37.085
37.036
36.988
36.942
36.897
36.854
36.811
36.77
36.729
36.688
36.646
36.603
36.559
36.513
36.465
36.415
36.362
36.309
36.254
36.198
36.142
36.086
36.031
35.979
35.928
35.881
35.836
35.796
35.759
35.727
35.699
35.675
35.655
35.639
35.626
35.617
35.61
35.607
35.606
35.607
35.609
35.613
35.619
35.625
35.631
35.636
35.64
35.643
35.642
35.639
35.633
35.622
35.608
35.59
35.569
35.545
35.519
35.49
35.461
35.431
35.401
35.37
35.34
35.31
35.282
35.255
35.229
35.204
35.181
35.16
35.139
35.118
35.097
35.075
35.052
35.027
35.001
34.975
34.949
34.923
34.897
34.873
34.849
34.827
34.806
34.787
34.768
34.75
34.733
34.715
34.697
34.678
34.659
34.638
34.616
34.594
34.571
34.547
34.523
34.499
34.475
34.452
34.429
34.407
34.386
34.366
34.347
34.329
34.311
34.294
34.278
34.262
34.247
34.232
34.216
34.201
34.186
34.171
34.156
34.144
34.136
34.132
34.136
34.15
34.176
34.216
34.271
34.344
34.434
34.543
34.668
34.81
34.965
35.131
35.307
35.49
35.675
35.862
36.045
36.223
36.393
36.553
36.7
36.832
36.949
37.049
37.133
37.199
37.247
37.279
37.295
37.296
37.284
37.26
37.225
37.182
37.132
37.076
37.017
36.955
36.892
36.829
36.766
36.703
36.643
36.584
36.528
36.474
36.423
36.375
36.329
36.286
36.245
36.206
36.168
36.132
36.096
36.061
36.025
35.989
35.952
35.913
35.873
35.831
35.788
35.745
35.7
35.655
35.61
35.565
35.522
35.48
35.44
35.403
35.37
35.341
35.316
35.295
35.279
35.265
35.255
35.247
35.242
35.237
35.234
35.232
35.23
35.228
35.227
35.226
35.225
35.224
35.223
35.221
35.218
35.214
35.209
35.202
35.192
35.181
35.167
35.151
35.133
35.114
35.092
35.068
35.043
35.016
34.987
34.957
34.925
34.892
34.857
34.821
34.783
34.744
34.704
34.661
34.617
34.572
34.526
34.479
34.433
34.388
34.345
34.304
34.266
34.23
34.197
34.165
34.136
34.108
34.083
34.06
34.039
34.02
34.003
33.988
33.973
33.958
33.943
33.927
33.911
33.895
33.878
33.86
33.841
33.821
33.8
33.779
33.756
33.733
33.709
33.684
33.66
33.637
33.615
33.596
33.581
33.572
33.57
33.577
33.595
33.625
33.669
33.728
33.802
33.892
33.998
34.119
34.253
34.401
34.559
34.725
34.897
35.071
35.245
35.415
35.58
35.735
35.881
36.014
36.134
36.24
36.332
36.41
36.472
36.52
36.552
36.571
36.578
36.572
36.557
36.532
36.499
36.46
36.416
36.369
36.319
36.268
36.217
36.166
36.117
36.07
36.024
35.981
35.94
35.902
35.865
35.83
35.796
35.763
35.73
35.697
35.663
35.629
35.593
35.556
35.518
35.478
35.437
35.395
35.353
35.31
35.267
35.225
35.185
35.146
35.111
35.079
35.05
35.025
35.004
34.986
34.971
34.959
34.949
34.942
34.938
34.935
34.935
34.935
34.937
34.939
34.943
34.946
34.95
34.953
34.955
34.957
34.957
34.956
34.954
34.949
34.943
34.934
34.923
34.91
34.895
34.878
34.859
34.839
34.817
34.794
34.769
34.744
34.717
34.69
34.663
34.635
34.608
34.581
34.554
34.529
34.505
34.482
34.461
34.441
34.423
34.406
34.39
34.376
34.363
34.352
34.342
34.333
34.325
34.318
34.312
34.306
34.299
34.293
34.286
34.279
34.271
34.263
34.254
34.245
34.235
34.225
34.213
34.201
34.187
34.172
34.156
34.139
34.123
34.106
34.09
34.075
34.062
34.052
34.045
34.044
34.048
34.06
34.08
34.111
34.155
34.212
34.285
34.373
34.478
34.6
34.737
34.891
35.058
35.237
35.425
35.621
35.82
36.02
36.217
36.409
36.593
36.766
36.926
37.073
37.205
37.321
37.422
37.507
37.577
37.633
37.676
37.707
37.728
37.741
37.745
37.742
37.733
37.719
37.702
37.683
37.662
37.64
37.617
37.593
37.569
37.543
37.516
37.488
37.458
37.426
37.39
37.352
37.311
37.267
37.22
37.17
37.117
37.062
37.005
36.947
36.887
36.827
36.767
36.707
36.649
36.593
36.539
36.489
36.442
36.399
36.36
36.325
36.295
36.27
36.249
36.233
36.222
36.214
36.21
36.208
36.208
36.211
36.215
36.219
36.224
36.228
36.232
36.235
36.236
36.235
36.231
36.226
36.219
36.209
36.199
36.186
36.171
36.155
36.136
36.115
36.092
36.066
36.039
36.01
35.979
35.947
35.912
