Trial 3:3back
35.475
35.452
35.434
35.422
35.414
35.408
35.405
35.402
35.403
35.408
35.416
35.427
35.438
35.446
35.451
35.451
35.445
35.433
35.413
35.384
35.347
35.304
35.256
35.206
35.155
35.105
35.056
35.008
34.962
34.916
34.87
34.825
34.779
34.732
34.683
34.632
34.58
34.527
34.473
34.418
34.361
34.301
34.241
34.181
34.124
34.069
34.017
33.968
33.922
33.88
33.841
33.806
33.775
33.748
33.723
33.699
33.675
33.648
33.619
33.589
33.559
33.528
33.499
33.472
33.447
33.426
33.41
33.399
33.393
33.39
33.392
33.394
33.396
33.395
33.389
33.379
33.366
33.351
33.334
33.316
33.299
33.283
33.271
33.263
33.257
33.253
33.249
33.244
33.237
33.228
33.216
33.2
33.18
33.156
33.127
33.096
33.062
33.028
32.993
32.96
32.927
32.895
32.864
32.836
32.81
32.789
32.778
32.779
32.796
32.832
32.891
32.976
33.091
33.238
33.417
33.627
33.865
34.129
34.412
34.709
35.015
35.324
35.63
35.927
36.21
36.474
36.713
36.925
37.106
37.254
37.367
37.448
37.498
37.522
37.524
37.508
37.48
37.443
37.401
37.357
37.315
37.274
37.237
37.201
37.169
37.14
37.115
37.093
37.073
37.055
37.037
37.019
37.002
36.983
36.965
36.946
36.926
36.905
36.882
36.857
36.831
36.804
36.775
36.744
36.712
36.681
36.651
36.622
36.594
36.566
36.537
36.507
36.475
36.441
36.403
36.361
36.313
36.26
36.2
36.136
36.068
35.999
35.93
35.862
35.797
35.736
35.679
35.629
35.585
35.549
35.521
35.498
35.482
35.471
35.465
35.464
35.467
35.471
35.478
35.485
35.492
35.497
35.497
35.494
35.487
35.477
35.465
35.452
35.437
35.422
35.408
35.395
35.383
35.369
35.354
35.336
35.314
35.288
35.255
35.214
35.163
35.102
35.03
34.95
34.863
34.772
34.68
34.59
34.506
34.428
34.36
34.302
34.254
34.213
34.178
34.146
34.115
34.085
34.056
34.026
33.997
33.967
33.936
33.904
33.871
33.837
33.801
33.767
33.734
33.703
33.674
33.646
33.621
33.598
33.576
33.556
33.536
33.516
33.495
33.473
33.45
33.425
33.399
33.373
33.347
33.324
33.303
33.287
33.277
33.271
33.269
33.268
33.266
33.263
33.256
33.249
33.24
33.23
33.219
33.208
33.195
33.18
33.163
33.145
33.124
33.103
33.079
33.054
33.025
32.99
32.951
32.909
32.866
32.823
32.784
32.749
32.721
32.7
32.689
32.691
32.708
32.743
32.799
32.88
32.989
33.127
33.295
33.492
33.718
33.967
34.238
34.525
34.823
35.126
35.429
35.725
36.008
36.274
36.52
36.743
36.942
37.116
37.264
37.386
37.485
37.563
37.62
37.66
37.684
37.694
37.69
37.674
37.648
37.615
37.575
37.532
37.485
37.434
37.381
37.326
37.27
37.215
37.163
37.114
37.068
37.025
36.986
36.952
36.923
36.9
36.882
36.869
36.859
36.852
36.847
36.844
36.841
36.835
36.826
36.812
36.791
36.765
36.731
36.69
36.641
36.585
36.523
36.456
36.387
36.316
36.245
36.173
36.104
36.038
35.978
35.923
35.876
35.835
35.801
35.775
35.755
35.742
35.735
35.733
35.734
35.735
35.735
35.733
35.728
35.72
35.71
35.697
35.681
35.662
35.641
35.619
35.597
35.577
35.559
35.543
35.53
35.519
35.51
35.501
35.492
35.48
35.464
35.443
35.416
35.382
35.342
35.295
35.244
35.189
35.13
35.069
35.008
34.947
34.888
34.83
34.775
34.721
34.667
34.613
34.56
34.506
34.453
34.4
34.349
34.297
34.244
34.191
34.138
34.087
34.039
33.995
33.956
33.921
33.891
33.865
33.843
33.825
33.81
33.794
33.777
33.757
33.734
33.71
33.683
33.655
33.623
33.591
33.56
33.531
33.505
33.485
33.469
33.459
33.454
33.452
33.453
33.454
33.453
33.451
33.446
33.437
33.423
33.404
33.381
33.356
33.33
33.304
33.279
33.257
33.236
33.216
33.198
33.18
33.162
33.142
33.121
33.098
33.075
33.051
33.031
33.016
33.009
33.014
33.036
33.077
33.144
33.239
33.366
33.527
33.722
33.95
34.208
34.488
34.786
35.095
35.408
35.717
36.016
36.297
36.555
36.785
36.987
37.16
37.304
37.419
37.509
37.574
37.618
37.645
37.659
37.662
37.656
37.644
37.625
37.603
37.578
37.553
37.528
37.502
37.474
37.443
37.41
37.374
37.336
37.294
37.248
37.197
37.141
37.079
37.014
36.949
36.887
36.83
36.779
36.734
36.696
36.664
36.638
36.616
36.599
36.586
36.573
36.56
36.543
36.52
36.487
36.444
36.392
36.33
36.26
36.183
36.102
36.016
35.928
35.841
35.757
35.679
35.608
35.548
35.497
35.457
35.427
35.406
35.394
35.391
35.396
35.404
35.414
35.425
35.434
35.441
35.447
35.45
35.451
35.452
35.451
35.449
35.448
35.447
35.449
35.451
35.455
35.46
35.464
35.466
35.462
35.453
35.435
35.41
35.376
35.332
35.28
35.221
35.155
35.083
35.005
34.924
34.84
34.757
34.675
34.596
34.52
34.446
34.375
34.306
34.238
34.172
34.108
34.046
33.986
33.928
33.87
33.814
33.759
33.706
33.658
33.615
33.578
33.545
33.517
33.492
33.471
33.453
33.438
33.425
33.414
33.404
33.392
33.377
33.356
33.33
33.3
33.267
33.231
33.194
33.157
33.121
33.088
33.06
33.035
33.013
32.994
32.976
32.958
32.94
32.922
32.905
32.887
32.87
32.855
32.843
32.837
32.841
32.856
32.888
32.94
33.016
33.118
33.249
33.412
33.606
33.831
34.084
34.36
34.652
34.954
35.26
35.564
35.859
36.141
36.403
36.64
36.852
37.035
37.191
37.32
37.424
37.506
37.569
37.615
37.647
37.668
37.679
37.68
37.675
37.662
37.643
37.619
37.588
37.553
37.512
37.466
37.417
37.364
37.31
37.257
37.203
37.15
37.098
37.047
36.998
36.953
36.912
36.875
36.841
36.813
36.789
36.771
36.758
36.748
36.738
36.727
36.711
36.691
36.664
36.631
36.589
36.538
36.477
36.407
36.329
36.244
36.154
36.061
35.969
35.88
35.797
35.719
35.649
35.587
35.535
35.491
35.455
35.426
35.405
35.391
35.384
35.384
35.389
35.397
35.407
35.418
35.429
35.44
35.45
35.457
35.463
35.467
35.47
35.473
35.478
35.484
35.489
35.494
35.497
35.496
35.49
35.479
35.462
35.437
35.405
35.363
35.312
35.254
35.19
35.121
35.049
34.975
34.9
34.824
34.749
34.676
34.605
34.536
34.469
34.404
34.339
34.276
34.213
34.151
34.091
34.033
33.979
33.926
33.877
33.831
33.789
33.751
33.718
33.69
33.665
33.643
33.622
33.602
33.58
33.558
33.533
33.507
33.477
33.444
33.408
33.37
33.331
33.294
33.259
33.226
33.195
33.168
33.143
33.121
33.101
33.082
33.066
33.051
33.037
33.027
33.022
33.026
33.045
33.083
33.146
33.238
33.363
33.523
33.718
33.945
34.201
34.479
34.774
35.078
35.386
35.689
35.982
36.26
36.52
36.758
36.972
37.16
37.323
37.462
37.578
37.672
37.745
37.797
37.831
37.847
37.85
37.84
37.821
37.796
37.768
37.74
37.713
37.689
37.669
37.652
37.637
37.62
37.602
37.58
37.556
37.529
37.498
37.464
37.426
37.387
37.348
37.311
37.277
37.248
37.222
37.201
37.182
37.165
37.148
37.129
37.109
37.086
37.06
37.029
36.993
36.952
36.906
36.854
36.797
36.735
36.671
36.603
36.533
36.459
36.382
36.304
36.227
36.155
36.088
36.03
35.981
35.942
35.912
35.892
35.881
35.878
35.881
35.888
35.896
35.902
35.907
35.909
35.91
35.909
35.907
35.902
35.893
35.882
35.866
35.849
35.83
35.81
35.789
35.767
35.745
35.721
35.696
35.668
35.636
35.6
35.561
35.517
35.468
35.414
35.355
35.29
35.22
35.146
35.069
34.99
34.911
34.834
34.76
34.689
34.623
34.56
34.501
34.447
34.397
34.351
34.306
34.262
34.215
34.163
34.107
34.046
33.985
33.925
33.869
33.817
33.769
33.727
33.691
33.662
33.64
33.626
33.617
33.611
33.607
33.603
33.597
33.589
33.576
33.56
33.537
33.51
33.477
33.439
33.396
33.35
33.303
33.256
33.213
33.176
33.148
33.131
33.127
33.14
33.173
33.226
33.302
33.401
33.525
33.675
33.853
34.058
34.288
34.538
34.807
35.088
35.379
35.672
35.964
36.249
36.521
36.775
37.007
37.214
37.393
37.546
37.672
37.77
37.843
37.893
37.923
37.936
37.935
37.923
37.902
37.873
37.838
37.799
37.759
37.721
37.684
37.649
37.617
37.588
37.563
37.542
37.526
37.513
37.505
37.498
37.492
37.486
37.478
37.466
37.45
37.428
37.402
37.372
37.34
37.304
37.266
37.225
37.183
37.14
37.096
37.052
37.008
36.962
36.915
36.865
36.813
36.758
36.703
36.647
36.591
36.536
36.481
36.428
36.377
36.328
36.281
36.233
36.185
36.135
36.086
36.036
35.989
35.946
35.906
35.872
35.844
35.823
35.81
35.804
35.805
35.81
35.819
35.829
35.839
35.847
35.852
35.853
35.848
35.839
35.824
35.805
35.781
35.753
35.72
35.684
35.643
35.599
35.551
35.501
35.45
35.4
35.35
35.302
35.255
35.207
35.158
35.108
35.056
35.002
34.945
34.885
34.82
34.753
34.684
34.614
34.545
34.476
34.409
34.343
34.281
34.223
34.171
34.126
34.086
34.053
34.025
33.999
33.976
33.952
33.928
33.904
33.878
33.852
33.823
33.791
33.756
33.721
33.686
33.653
33.625
33.602
33.588
33.584
33.593
33.617
33.659
33.722
33.806
33.914
34.043
34.191
34.357
34.538
34.734
34.943
35.161
35.386
35.614
35.841
36.065
36.282
36.489
36.685
36.867
37.032
37.178
37.305
37.411
37.497
37.564
37.613
37.644
37.659
37.66
37.65
37.63
37.601
37.565
37.521
37.471
37.417
37.36
37.304
37.249
37.198
37.153
37.114
37.082
37.057
37.039
37.025
37.017
37.011
37.009
37.009
37.007
37.003
36.994
36.979
36.956
36.928
36.894
36.855
36.812
36.764
36.712
36.655
36.595
36.532
36.466
36.399
36.33
36.26
36.19
36.12
36.053
35.989
35.928
35.87
35.815
35.764
35.717
35.674
35.636
35.602
35.572
35.547
35.527
35.511
35.501
35.495
35.494
35.498
35.507
35.521
35.538
35.556
35.576
35.595
35.61
35.619
35.621
35.615
35.601
35.58
35.553
35.52
35.481
35.435
35.384
35.328
35.269
35.21
35.15
35.092
35.036
34.983
34.932
34.886
34.843
34.806
34.772
34.741
34.71
34.677
34.641
34.601
34.558
34.512
34.463
34.413
34.361
34.31
34.259
34.211
34.165
34.124
34.086
34.051
34.018
33.985
33.95
33.913
33.871
33.826
33.778
33.728
33.68
33.635
33.595
33.564
33.544
33.537
33.544
33.566
33.607
33.667
33.748
33.85
33.972
34.114
34.275
34.452
34.644
34.848
35.062
35.28
35.499
35.715
35.925
36.125
36.313
36.489
36.651
36.798
36.929
37.043
37.14
37.221
37.288
37.34
37.378
37.403
37.414
37.414
37.403
37.385
37.36
37.329
37.293
37.254
37.214
37.175
37.138
37.105
37.075
37.048
37.025
37.003
36.984
36.967
36.95
36.932
36.914
36.894
36.872
36.848
36.822
36.792
36.759
36.722
36.681
36.636
36.589
36.541
36.491
36.439
36.387
36.333
36.278
36.223
36.169
36.118
36.068
36.018
35.968
35.919
35.872
35.826
35.781
35.738
35.696
35.657
35.621
35.59
35.564
35.546
35.536
35.533
35.538
35.548
35.562
35.577
35.592
35.607
35.618
35.627
35.632
35.632
35.628
35.621
35.611
35.597
35.578
35.556
35.529
35.5
35.469
35.435
35.4
35.362
35.322
35.28
35.237
35.194
35.152
35.112
35.074
35.034
34.992
34.947
34.898
34.847
34.792
34.735
34.677
34.619
34.563
34.51
34.462
34.419
34.38
34.345
34.312
34.281
34.251
34.219
34.186
34.152
34.117
34.08
34.041
34.001
33.961
33.922
33.884
33.849
33.816
33.784
33.754
33.724
33.697
33.672
33.651
33.634
33.621
33.611
33.606
33.607
33.619
33.642
33.681
33.739
33.817
33.917
34.039
34.184
34.349
34.535
34.737
34.952
35.176
35.402
35.627
35.846
36.055
36.249
36.426
36.583
36.717
36.828
36.918
36.988
37.04
37.076
37.099
37.111
37.116
37.116
37.114
37.111
37.107
37.101
37.094
37.084
37.073
37.059
37.042
37.022
36.999
36.974
36.949
36.924
36.899
36.873
36.847
36.819
36.791
36.763
36.735
36.709
36.684
36.661
36.64
36.621
36.605
36.592
36.581
36.571
36.559
36.543
36.521
36.49
36.448
36.395
36.332
36.26
36.183
36.103
36.022
35.945
35.872
35.806
35.747
35.697
35.656
35.625
35.602
35.586
35.577
35.574
35.576
35.58
35.587
35.596
35.605
35.614
35.621
35.624
35.624
35.62
35.613
35.605
35.594
35.58
35.564
35.545
35.526
35.507
35.489
35.472
35.457
35.44
35.421
35.398
35.37
35.336
35.298
35.256
35.209
35.158
35.103
35.044
34.983
34.921
34.859
34.799
34.741
34.688
34.638
34.591
34.546
34.503
34.462
34.423
34.385
34.348
34.311
34.273
34.236
34.199
34.162
34.125
34.09
34.057
34.028
34.005
33.987
33.974
33.965
33.958
33.952
33.948
33.943
33.938
33.93
33.919
33.902
33.879
33.85
33.815
33.777
33.737
33.7
33.666
33.636
33.61
33.589
33.57
33.555
33.544
33.536
33.534
33.537
33.547
33.564
33.591
33.633
33.693
33.775
33.881
34.014
34.171
34.351
34.552
34.769
34.998
35.234
35.472
35.706
35.93
36.143
36.339
36.518
36.676
36.812
36.928
37.023
37.098
37.156
37.196
37.219
37.229
37.228
37.219
37.205
37.188
37.171
37.154
37.139
37.124
37.11
37.098
37.085
37.072
37.057
37.038
37.014
36.986
36.954
36.919
36.882
36.842
36.802
36.762
36.725
36.692
36.664
36.641
36.621
36.602
36.584
36.566
36.546
36.525
36.502
36.476
36.446
36.411
36.369
36.322
36.267
36.205
36.137
36.064
35.988
35.913
35.84
35.772
35.713
35.662
35.62
35.588
35.565
35.551
35.543
35.541
35.543
35.548
35.552
35.555
35.555
35.555
35.553
35.55
35.546
35.541
35.535
35.53
35.526
35.524
35.523
35.522
35.52
35.516
35.508
35.498
35.483
35.465
35.442
35.413
35.378
35.336
35.286
35.228
35.165
35.097
35.027
34.956
34.885
34.817
34.751
34.691
34.635
34.583
34.535
34.491
34.449
34.407
34.364
34.321
34.278
34.235
34.194
34.154
34.117
34.085
34.058
34.036
34.017
34.0
33.984
33.968
33.951
33.932
33.911
33.887
33.859
33.83
33.797
33.763
33.727
33.691
33.656
33.623
33.593
33.568
33.546
33.527
33.51
33.495
33.483
33.476
33.475
33.482
33.499
33.528
33.573
33.638
33.724
33.834
33.967
34.124
34.302
34.498
34.709
34.932
35.162
35.394
35.623
35.843
36.051
36.245
36.421
36.577
36.712
36.826
36.916
36.985
37.033
37.064
37.08
37.083
37.078
37.067
37.054
37.039
37.023
37.008
36.994
36.981
36.969
36.957
36.945
36.932
36.918
36.9
36.88
36.856
36.83
36.803
36.775
36.746
36.716
36.685
36.653
36.622
36.593
36.564
36.537
36.511
36.485
36.461
36.437
36.415
36.394
36.373
36.351
36.326
36.295
36.258
36.215
36.166
36.111
36.05
35.984
35.913
35.839
35.766
35.696
35.632
35.576
35.529
35.493
35.466
35.447
35.433
35.423
35.417
35.415
35.414
35.415
35.417
35.419
35.423
35.428
35.435
35.443
35.451
35.459
35.466
35.47
35.471
35.469
35.463
35.453
35.439
35.422
35.401
35.375
35.343
35.305
35.261
35.21
35.154
35.095
35.034
34.973
34.915
34.858
34.803
34.752
34.705
34.661
34.62
34.582
34.545
34.507
34.466
34.42
34.37
34.317
34.263
34.21
34.159
34.112
34.068
34.028
33.993
33.964
33.942
33.927
33.917
33.909
33.903
33.895
33.883
33.868
33.848
33.824
33.796
33.765
33.733
33.7
33.667
33.635
33.602
33.57
33.538
33.507
33.477
33.448
33.422
33.4
33.384
33.376
33.378
33.394
33.424
33.471
33.539
33.63
33.745
33.885
34.048
34.232
34.434
34.651
34.879
35.114
35.35
35.581
35.802
36.007
36.194
36.361
36.509
36.638
36.747
36.838
36.913
36.973
37.015
37.042
37.054
37.053
37.043
37.025
37.006
36.987
36.972
36.96
36.954
36.952
36.954
36.958
36.964
36.969
36.974
36.977
36.977
36.972
36.963
36.949
36.931
36.909
36.884
36.858
36.831
36.805
36.783
36.763
36.746
36.73
36.713
36.694
36.673
36.647
36.618
36.583
36.542
36.496
36.444
36.388
36.33
36.27
36.211
36.153
36.097
36.041
35.989
35.94
35.896
35.856
35.82
35.786
35.753
35.722
35.691
35.661
35.634
35.609
35.588
35.57
35.557
35.548
35.542
35.539
35.539
35.54
35.543
35.546
35.548
35.55
35.551
35.548
35.541
35.528
35.509
35.483
35.452
35.416
35.377
35.334
35.288
35.242
35.194
35.147
35.102
35.059
35.018
34.977
34.935
34.891
34.844
34.795
34.744
34.69
34.632
34.572
34.508
34.444
34.38
34.318
34.26
34.208
34.162
34.122
34.088
34.06
34.035
34.014
33.996
33.979
33.962
33.944
33.925
33.905
33.885
33.865
33.845
33.827
33.81
33.794
33.777
33.761
33.743
33.72
33.689
33.649
33.603
33.55
33.496
33.441
33.39
33.346
33.31
33.282
33.263
33.251
33.245
33.244
33.248
33.256
33.268
33.282
33.299
33.318
33.342
33.373
33.415
33.47
33.543
33.637
33.755
33.898
34.066
34.259
34.473
34.705
34.948
35.198
35.447
35.691
35.922
36.139
36.338
36.514
36.668
36.797
36.904
36.988
37.053
37.103
37.139
37.164
37.181
37.191
37.195
37.196
37.193
37.188
37.181
37.174
37.167
37.16
37.153
37.144
37.135
37.123
37.108
37.089
37.066
37.04
37.01
36.978
36.944
36.908
36.874
36.841
36.813
36.789
36.769
36.753
36.74
36.73
36.72
36.71
36.698
36.682
36.661
36.633
36.596
36.55
36.496
36.435
36.368
36.298
36.224
36.149
36.075
36.004
35.937
35.877
35.821
35.769
35.722
35.678
35.638
35.602
35.57
35.543
35.52
35.502
35.486
35.472
35.46
35.448
35.438
35.429
35.423
35.42
35.419
35.421
35.426
35.432
35.44
35.449
35.456
35.46
35.46
35.455
35.442
35.422
35.395
35.36
35.318
35.27
35.219
35.166
35.112
35.058
35.005
34.952
34.899
34.846
34.794
34.743
34.692
34.641
34.587
34.531
34.475
34.417
34.36
34.304
34.251
34.201
34.153
34.109
34.065
34.024
33.985
33.949
33.917
33.888
33.862
33.837
33.813
33.788
33.764
33.74
33.716
33.694
33.673
33.653
33.635
33.617
33.602
33.588
33.574
33.563
33.552
33.543
33.534
33.526
33.519
33.511
33.5
33.488
33.473
33.458
33.445
33.434
33.428
33.425
33.424
33.422
33.417
33.405
33.386
33.361
33.329
33.294
33.256
33.216
33.176
33.137
33.098
33.061
33.026
32.994
32.967
32.944
32.924
32.908
32.895
32.889
32.894
32.913
32.954
33.022
33.121
33.255
33.425
33.628
33.863
34.125
34.409
34.709
35.017
35.326
35.63
35.92
36.192
36.439
36.658
36.846
37.004
37.132
37.232
37.306
37.358
37.391
37.408
37.413
37.409
37.399
37.386
37.373
37.361
37.35
37.34
37.33
37.321
37.312
37.304
37.295
37.283
37.267
37.246
37.222
37.195
37.168
37.14
37.113
37.086
37.06
37.036
37.014
36.993
36.973
36.954
36.935
36.914
36.893
36.87
36.844
36.816
36.784
36.747
36.704
36.656
36.603
36.547
36.486
36.424
36.36
36.296
36.233
36.172
36.113
36.056
36.002
35.95
35.903
35.859
35.818
35.781
35.747
35.715
35.685
35.657
35.629
35.604
35.583
35.567
35.557
35.553
35.553
35.556
35.562
35.57
35.58
35.59
35.599
35.603
35.603
35.598
35.586
35.569
35.544
35.513
35.476
35.433
35.386
35.336
35.283
35.231
35.179
35.128
35.079
35.03
34.983
34.937
34.891
34.844
34.794
34.742
34.686
34.628
34.567
34.505
34.441
34.369
34.288
34.2
34.107
34.012
33.921
33.836
33.762
33.7
33.653
33.618
33.593
33.578
33.57
33.569
33.575
33.585
33.597
33.608
33.619
33.629
33.638
33.645
33.649
33.649
33.644
33.632
33.614
33.59
33.562
33.532
33.5
33.47
33.442
33.417
33.398
33.383
33.373
33.368
33.367
33.37
33.372
33.373
33.369
33.359
33.345
33.325
33.303
33.279
33.252
33.225
33.197
33.169
33.141
33.113
33.083
33.053
33.021
32.988
32.951
32.913
32.875
32.839
32.807
32.78
32.761
32.751
32.753
32.772
32.811
32.873
32.963
33.082
33.231
33.411
33.621
33.859
34.122
34.404
34.7
35.003
35.306
35.602
35.887
36.155
36.405
36.633
36.838
37.018
37.174
37.306
37.414
37.5
37.565
37.61
37.637
37.647
37.643
37.626
37.6
37.566
37.525
37.48
37.433
37.386
37.341
37.299
37.26
37.221
37.183
37.146
37.11
37.076
37.046
37.02
37.0
36.986
36.978
36.975
36.975
36.977
36.976
36.97
36.958
36.938
36.911
36.878
36.839
36.795
36.746
36.692
36.634
36.572
36.51
36.449
36.388
