Trial 3:3back
34.84
34.834
34.827
34.821
34.815
34.81
34.805
34.801
34.798
34.795
34.792
34.789
34.786
34.784
34.782
34.781
34.78
34.78
34.78
34.781
34.781
34.782
34.782
34.782
34.78
34.777
34.773
34.768
34.762
34.754
34.745
34.735
34.725
34.714
34.703
34.693
34.682
34.672
34.663
34.655
34.648
34.642
34.638
34.635
34.634
34.634
34.635
34.636
34.639
34.643
34.649
34.657
34.666
34.678
34.691
34.707
34.725
34.746
34.771
34.799
34.832
34.871
34.915
34.963
35.017
35.076
35.138
35.202
35.268
35.334
35.399
35.462
35.522
35.578
35.629
35.675
35.716
35.751
35.78
35.802
35.819
35.828
35.831
35.827
35.817
35.8
35.778
35.752
35.724
35.694
35.662
35.63
35.598
35.566
35.535
35.506
35.478
35.453
35.429
35.407
35.387
35.368
35.35
35.334
35.317
35.302
35.286
35.27
35.254
35.239
35.223
35.206
35.188
35.17
35.15
35.13
35.109
35.089
35.069
35.05
35.033
35.019
35.007
34.998
34.993
34.993
34.996
35.003
35.013
35.025
35.04
35.056
35.074
35.093
35.112
35.132
35.151
35.169
35.186
35.201
35.214
35.225
35.231
35.233
35.232
35.227
35.22
35.212
35.204
35.195
35.188
35.181
35.176
35.172
35.17
35.169
35.169
35.17
35.171
35.171
35.171
35.17
35.169
35.166
35.162
35.157
35.15
35.142
35.131
35.119
35.104
35.088
35.07
35.052
35.033
35.014
34.995
34.978
34.962
34.947
34.935
34.924
34.914
34.906
34.9
34.894
34.889
34.884
34.878
34.872
34.864
34.855
34.846
34.837
34.828
34.819
34.811
34.802
34.793
34.785
34.777
34.771
34.765
34.761
34.757
34.754
34.753
34.752
34.752
34.751
34.751
34.749
34.747
34.743
34.739
34.733
34.727
34.721
34.715
34.71
34.705
34.701
34.696
34.691
34.685
34.679
34.672
34.664
34.655
34.647
34.639
34.632
34.625
34.618
34.613
34.608
34.605
34.603
34.604
34.606
34.61
34.615
34.622
34.632
34.643
34.656
34.67
34.685
34.701
34.718
34.738
34.76
34.788
34.82
34.857
34.9
34.947
35.0
35.059
35.122
35.189
35.26
35.332
35.406
35.478
35.549
35.617
35.68
35.737
35.789
35.833
35.87
35.899
35.922
35.936
35.943
35.944
35.938
35.926
35.909
35.888
35.863
35.836
35.807
35.778
35.748
35.719
35.692
35.665
35.641
35.618
35.597
35.577
35.558
35.54
35.522
35.504
35.486
35.469
35.452
35.435
35.418
35.402
35.385
35.368
35.351
35.332
35.312
35.291
35.269
35.247
35.226
35.207
35.189
35.175
35.163
35.154
35.149
35.147
35.147
35.149
35.154
35.159
35.166
35.175
35.184
35.195
35.206
35.218
35.23
35.243
35.257
35.27
35.283
35.295
35.307
35.317
35.326
35.333
35.339
35.343
35.347
35.349
35.35
35.35
35.349
35.346
35.342
35.337
35.331
35.325
35.318
35.31
35.3
35.289
35.275
35.26
35.244
35.228
35.21
35.193
35.176
35.159
35.143
35.128
35.115
35.103
35.092
35.083
35.073
35.065
35.057
35.048
35.04
35.031
35.022
35.011
35.0
34.987
34.973
34.959
34.945
34.931
34.917
34.904
34.892
34.881
34.871
34.863
34.856
34.851
34.847
34.846
34.846
34.848
34.85
34.852
34.854
34.856
34.857
34.859
34.86
34.86
34.859
34.856
34.852
34.846
34.84
34.833
34.825
34.816
34.806
34.795
34.784
34.774
34.765
34.757
34.75
34.744
34.74
34.736
34.734
34.732
34.731
34.73
34.73
34.729
34.729
34.728
34.726
34.724
34.722
34.719
34.716
34.713
34.711
34.71
34.71
34.713
34.719
34.729
34.742
34.759
34.781
34.809
34.842
34.88
34.925
34.976
35.032
35.092
35.156
35.224
35.294
35.365
35.436
35.505
35.573
35.637
35.697
35.752
35.802
35.845
35.882
35.911
35.932
35.947
35.954
35.954
35.947
35.934
35.917
35.895
35.87
35.843
35.815
35.787
35.758
35.73
35.703
35.676
35.65
35.626
35.603
35.581
35.562
35.544
35.528
35.514
35.5
35.486
35.473
35.459
35.446
35.433
35.419
35.405
35.39
35.376
35.361
35.346
35.33
35.314
35.298
35.281
35.264
35.247
35.232
35.219
35.206
35.194
35.184
35.176
35.17
35.167
35.167
35.17
35.176
35.185
35.196
35.209
35.224
35.24
35.257
35.274
35.292
35.309
35.326
35.342
35.357
35.37
35.381
35.39
35.397
35.401
35.403
35.403
35.4
35.395
35.387
35.378
35.367
35.355
35.343
35.329
35.314
35.298
35.281
35.263
35.245
35.227
35.209
35.192
35.177
35.163
35.151
35.141
35.133
35.126
35.119
35.112
35.105
35.096
35.087
35.076
35.062
35.048
35.031
35.013
34.995
34.976
34.958
34.941
34.925
34.91
34.897
34.886
34.877
34.87
34.866
34.863
34.863
34.864
34.867
34.87
34.875
34.878
34.881
34.883
34.884
34.882
34.879
34.875
34.869
34.863
34.856
34.85
34.845
34.841
34.838
34.836
34.835
34.836
34.837
34.84
34.843
34.847
34.851
34.855
34.859
34.862
34.864
34.865
34.863
34.859
34.853
34.846
34.837
34.827
34.817
34.806
34.796
34.786
34.776
34.766
34.758
34.75
34.742
34.736
34.73
34.725
34.722
34.721
34.721
34.724
34.73
34.739
34.752
34.77
34.791
34.817
34.847
34.882
34.921
34.964
35.013
35.065
35.122
35.183
35.248
35.314
35.382
35.449
35.516
35.58
35.64
35.696
35.746
35.789
35.826
35.857
35.88
35.896
35.905
35.907
35.903
35.893
35.878
35.858
35.835
35.809
35.782
35.753
35.724
35.695
35.667
35.639
35.614
35.59
35.568
35.548
35.53
35.514
35.5
35.487
35.474
35.461
35.447
35.432
35.416
35.399
35.38
35.359
35.336
35.311
35.285
35.258
35.231
35.204
35.179
35.157
35.137
35.12
35.106
35.096
35.088
35.085
35.085
35.088
35.094
35.102
35.113
35.126
35.141
35.157
35.173
35.19
35.206
35.222
35.237
35.25
35.263
35.275
35.286
35.296
35.304
35.311
35.316
35.321
35.324
35.325
35.325
35.322
35.318
35.311
35.303
35.293
35.283
35.272
35.26
35.247
35.234
35.22
35.206
35.192
35.177
35.164
35.15
35.137
35.125
35.114
35.104
35.095
35.085
35.075
35.066
35.056
35.045
35.034
35.022
35.01
34.996
34.983
34.969
34.955
34.941
34.928
34.916
34.905
34.895
34.887
34.88
34.873
34.867
34.862
34.856
34.85
34.844
34.838
34.831
34.824
34.818
34.812
34.807
34.802
34.797
34.794
34.791
34.788
34.786
34.783
34.781
34.778
34.776
34.774
34.774
34.777
34.781
34.786
34.793
34.8
34.807
34.813
34.818
34.822
34.823
34.822
34.82
34.815
34.809
34.8
34.791
34.782
34.772
34.762
34.753
34.743
34.734
34.726
34.719
34.714
34.711
34.71
34.71
34.711
34.713
34.714
34.715
34.717
34.719
34.722
34.728
34.737
34.75
34.768
34.791
34.819
34.853
34.891
34.933
34.98
35.032
35.087
35.145
35.206
35.268
35.331
35.394
35.454
35.512
35.566
35.616
35.661
35.701
35.735
35.763
35.785
35.8
35.809
35.811
35.808
35.799
35.786
35.769
35.749
35.727
35.703
35.678
35.653
35.628
35.604
35.58
35.558
35.536
35.515
35.495
35.476
35.457
35.439
35.421
35.404
35.386
35.369
35.35
35.33
35.309
35.286
35.262
35.237
35.21
35.183
35.155
35.128
35.101
35.077
35.054
35.034
35.017
35.003
34.994
34.988
34.986
34.988
34.992
35.0
35.01
35.023
35.038
35.055
35.072
35.09
35.108
35.125
35.141
35.156
35.17
35.183
35.195
35.206
35.216
35.226
35.234
35.241
35.247
35.253
35.258
35.262
35.266
35.268
35.268
35.268
35.265
35.262
35.257
35.25
35.242
35.233
35.222
35.21
35.198
35.184
35.17
35.155
35.14
35.124
35.11
35.095
35.081
35.067
35.054
35.041
35.028
35.016
35.005
34.995
34.985
34.975
34.965
34.956
34.947
34.937
34.928
34.919
34.91
34.901
34.892
34.885
34.878
34.872
34.865
34.858
34.851
34.844
34.837
34.829
34.821
34.812
34.803
34.795
34.786
34.779
34.772
34.767
34.763
34.761
34.76
34.761
34.764
34.768
34.773
34.778
34.783
34.787
34.791
34.793
34.796
34.797
34.799
34.8
34.8
34.799
34.797
34.795
34.792
34.789
34.787
34.785
34.785
34.785
34.786
34.788
34.789
34.789
34.787
34.784
34.779
34.772
34.763
34.753
34.741
34.729
34.717
34.705
34.696
34.689
34.685
34.686
34.691
34.702
34.721
34.747
34.781
34.823
34.874
34.931
34.996
35.067
35.143
35.222
35.303
35.386
35.468
35.549
35.627
35.699
35.764
35.821
35.869
35.907
35.936
35.955
35.966
35.969
35.966
35.957
35.943
35.927
35.908
35.888
35.868
35.848
35.828
35.809
35.79
35.77
35.751
35.732
35.713
35.694
35.675
35.656
35.637
35.619
35.601
35.582
35.564
35.544
35.524
35.504
35.482
35.46
35.438
35.415
35.391
35.368
35.344
35.321
35.299
35.278
35.258
35.241
35.225
35.21
35.198
35.189
35.181
35.177
35.175
35.174
35.176
35.18
35.186
35.194
35.204
35.215
35.226
35.238
35.249
35.261
35.272
35.284
35.296
35.306
35.317
35.326
35.335
35.344
35.353
35.361
35.371
35.379
35.387
35.394
35.399
35.402
35.404
35.404
35.404
35.402
35.399
35.393
35.387
35.378
35.368
35.355
35.341
35.325
35.308
35.291
35.274
35.257
35.241
35.225
35.21
35.197
35.185
35.173
35.163
35.153
35.144
35.135
35.126
35.117
35.108
35.101
35.093
35.087
35.08
35.074
35.066
35.058
35.049
35.04
35.031
35.022
35.014
35.006
35.0
34.995
34.991
34.987
34.984
34.981
34.978
34.974
34.97
34.965
34.96
34.954
34.949
34.942
34.936
34.93
34.924
34.918
34.912
34.906
34.899
34.893
34.886
34.88
34.874
34.871
34.869
34.869
34.871
34.873
34.876
34.878
34.88
34.88
34.879
34.876
34.872
34.865
34.858
34.85
34.842
34.833
34.824
34.816
34.808
34.8
34.793
34.786
34.781
34.778
34.776
34.776
34.777
34.779
34.783
34.788
34.795
34.805
34.819
34.837
34.861
34.89
34.926
34.968
35.016
35.071
35.132
35.198
35.268
35.341
35.416
35.492
35.567
35.64
35.71
35.776
35.837
35.892
35.94
35.983
36.018
36.047
36.069
36.084
36.092
36.093
36.088
36.077
36.06
36.039
36.014
35.985
35.954
35.921
35.886
35.852
35.818
35.785
35.754
35.726
35.7
35.677
35.657
35.638
35.622
35.606
35.591
35.577
35.563
35.548
35.533
35.517
35.5
35.483
35.464
35.444
35.423
35.401
35.38
35.358
35.338
35.319
35.301
35.286
35.273
35.261
35.252
35.244
35.239
35.236
35.236
35.238
35.243
35.251
35.262
35.275
35.29
35.306
35.323
35.339
35.354
35.367
35.378
35.387
35.394
35.4
35.404
35.407
35.409
35.411
35.413
35.415
35.418
35.421
35.423
35.424
35.424
35.423
35.42
35.417
35.414
35.409
35.403
35.397
35.389
35.379
35.369
35.357
35.344
35.331
35.317
35.304
35.29
35.276
35.261
35.245
35.229
35.212
35.195
35.179
35.162
35.147
35.134
35.122
35.112
35.103
35.095
35.087
35.08
35.072
35.064
35.056
35.048
35.04
35.032
35.024
35.016
35.008
35.0
34.992
34.983
34.974
34.964
34.954
34.944
34.934
34.925
34.915
34.907
34.9
34.894
34.889
34.886
34.883
34.881
34.881
34.881
34.882
34.882
34.884
34.885
34.886
34.888
34.89
34.893
34.896
34.898
34.9
34.901
34.901
34.9
34.899
34.897
34.895
34.893
34.889
34.885
34.879
34.874
34.868
34.863
34.858
34.853
34.849
34.846
34.844
34.844
34.844
34.846
34.848
34.851
34.853
34.855
34.857
34.859
34.861
34.863
34.866
34.869
34.873
34.878
34.887
34.899
34.915
34.937
34.965
34.998
35.039
35.085
35.138
35.198
35.262
35.332
35.404
35.478
35.553
35.627
35.699
35.766
35.828
35.884
35.932
35.972
36.004
36.027
36.043
36.051
36.052
36.046
36.035
36.019
35.999
35.976
35.951
35.925
35.899
35.873
35.847
35.822
35.798
35.775
35.752
35.73
35.709
35.687
35.666
35.644
35.623
35.602
35.582
35.561
35.541
35.521
35.502
35.482
35.463
35.443
35.423
35.403
35.381
35.359
35.336
35.313
35.29
35.268
35.248
35.229
35.213
35.2
35.189
35.182
35.177
35.174
35.175
35.177
35.183
35.19
35.2
35.21
35.222
35.234
35.246
35.258
35.271
35.283
35.295
35.308
35.321
35.335
35.349
35.363
35.376
35.388
35.398
35.407
35.414
35.419
35.421
35.421
35.418
35.414
35.407
35.399
35.389
35.378
35.364
35.349
35.334
35.318
35.301
35.285
35.269
35.254
35.24
35.226
35.214
35.203
35.192
35.182
35.172
35.163
35.154
35.144
35.135
35.125
35.115
35.105
35.094
35.083
35.071
35.059
35.048
35.035
35.023
35.009
34.995
34.981
34.967
34.953
34.939
34.927
34.916
34.906
34.897
34.89
34.885
34.881
34.879
34.88
34.883
34.887
34.892
34.898
34.903
34.908
34.911
34.912
34.911
34.908
34.903
34.897
34.889
34.879
34.869
34.858
34.847
34.837
34.828
34.82
34.812
34.806
34.8
34.797
34.796
34.796
34.798
34.801
34.805
34.81
34.816
34.822
34.828
34.833
34.838
34.842
34.845
34.848
34.851
34.854
34.858
34.863
34.87
34.88
34.893
34.911
34.934
34.963
34.999
35.04
35.088
35.14
35.197
35.258
35.321
35.386
35.45
35.513
35.574
35.631
35.684
35.732
35.774
35.81
35.838
35.859
35.871
35.877
35.876
35.868
35.855
35.837
35.815
35.789
35.76
35.73
35.699
35.668
35.638
35.609
35.581
35.556
35.532
35.511
35.49
35.471
35.454
35.436
35.419
35.402
35.384
35.366
35.348
35.329
35.309
35.289
35.266
35.243
35.219
35.194
35.168
35.142
35.116
35.091
35.067
35.045
35.026
35.011
34.999
34.992
34.987
34.986
34.988
34.993
35.002
35.015
35.03
35.048
35.067
35.087
35.107
35.125
35.142
35.157
35.17
35.181
35.189
35.196
35.201
35.204
35.207
35.208
35.209
35.209
35.208
35.208
35.207
35.206
35.204
35.201
35.197
35.192
35.186
35.179
35.17
35.16
35.149
35.136
35.124
35.112
35.101
35.09
35.08
35.071
35.063
35.055
35.048
35.041
35.036
35.03
35.026
35.021
35.017
35.013
35.008
35.005
35.001
34.998
34.995
34.992
34.988
34.984
34.981
34.977
34.972
34.965
34.958
34.951
34.943
34.936
34.93
34.924
34.919
34.915
34.912
34.91
34.91
34.912
34.915
34.919
34.925
34.93
34.935
34.94
34.944
34.948
34.95
34.951
34.95
34.949
34.946
34.943
34.939
34.934
34.927
34.92
34.912
34.903
34.893
34.884
34.875
34.865
34.857
34.848
34.839
34.831
34.822
34.815
34.808
34.803
34.799
34.798
34.8
34.806
34.817
34.833
34.854
34.881
34.913
34.951
34.994
35.043
35.098
35.157
35.22
35.286
35.354
35.424
35.493
35.563
35.632
35.698
35.761
35.821
35.875
35.923
35.963
35.995
36.018
36.031
36.035
36.032
36.023
36.009
35.992
35.971
35.947
35.92
35.893
35.865
35.837
35.809
35.781
35.754
35.728
35.702
35.678
35.654
35.632
35.612
35.592
35.573
35.555
35.537
35.519
35.501
35.481
35.461
35.44
35.418
35.394
35.37
35.344
35.319
35.293
35.268
35.245
35.222
35.2
35.18
35.163
35.148
35.136
35.127
35.121
35.119
35.122
35.128
35.138
35.153
35.171
35.192
35.216
35.241
35.267
35.294
35.32
35.346
35.37
35.392
35.412
35.43
35.446
35.459
35.47
35.477
35.482
35.483
35.482
35.478
35.473
35.467
35.461
35.455
35.45
35.445
35.441
35.436
35.431
35.426
35.42
35.414
35.408
35.4
35.39
35.379
35.367
35.354
35.34
35.326
35.311
35.296
35.282
35.268
35.256
35.244
35.233
35.223
35.214
35.205
35.197
35.19
35.183
35.176
35.169
35.162
35.154
35.145
35.137
35.128
35.119
35.109
35.099
35.088
35.076
35.065
35.054
35.045
35.036
35.029
35.024
35.019
35.016
35.014
35.013
35.013
35.013
35.013
35.012
35.011
35.009
35.006
35.002
34.997
34.991
34.986
34.981
34.978
34.976
34.976
34.977
34.979
34.984
34.991
35.002
35.017
35.037
35.064
35.096
35.135
35.181
35.234
35.293
35.359
35.429
35.503
35.579
35.657
35.735
35.812
35.887
35.959
36.026
36.088
36.144
36.191
36.231
36.262
36.286
36.303
36.312
36.314
36.311
36.303
36.291
36.276
36.258
36.239
36.219
36.198
36.176
36.155
36.133
36.11
36.086
36.061
36.036
36.01
35.985
35.959
35.933
35.908
35.883
35.858
35.833
35.809
35.785
35.762
35.74
35.719
35.699
35.679
35.661
35.643
35.626
35.609
35.592
35.574
35.557
35.539
35.521
35.503
35.485
35.468
35.453
35.439
35.426
35.415
35.408
35.403
35.403
35.406
35.414
35.426
35.44
35.458
35.477
35.497
35.517
35.537
35.556
35.574
35.591
35.605
35.618
35.627
35.634
35.638
35.638
35.636
35.633
35.63
35.626
35.621
35.617
35.612
35.607
35.601
35.595
35.588
35.581
35.574
35.565
35.555
35.543
35.531
35.517
35.502
35.486
35.469
35.453
35.436
35.42
35.404
35.388
35.372
35.356
35.341
35.324
35.307
35.291
35.275
35.26
35.246
35.234
35.224
35.215
35.207
35.2
35.194
35.188
35.182
35.176
35.169
35.162
35.155
35.148
35.14
35.132
35.123
35.114
35.106
35.097
35.089
35.082
35.075
35.069
35.063
35.058
35.053
35.05
35.047
35.046
35.047
35.05
35.054
35.06
35.068
35.078
35.09
35.105
35.123
35.144
35.17
35.2
35.235
35.276
35.323
35.376
35.436
35.501
35.571
35.646
35.724
35.803
35.884
35.965
36.046
36.124
36.199
36.269
36.332
36.387
36.434
36.471
36.498
36.515
36.522
36.521
36.512
36.495
36.471
36.442
36.409
36.373
36.337
36.302
36.269
36.238
36.211
36.187
36.166
36.147
36.13
36.114
36.098
36.082
36.067
36.051
36.035
36.019
36.003
35.986
35.968
35.95
35.931
35.913
35.894
35.876
35.857
35.837
35.818
35.798
35.778
35.759
35.741
35.723
35.707
35.692
35.679
35.667
35.656
35.648
35.642
35.637
35.635
35.634
35.634
35.636
35.639
35.644
35.649
35.656
35.664
35.674
35.684
35.695
35.708
35.721
35.733
35.745
35.756
35.766
35.774
35.78
35.784
35.786
35.786
35.785
35.781
35.776
35.77
35.762
35.755
35.747
35.74
35.732
35.725
35.717
35.708
35.699
35.688
35.676
35.663
35.649
35.636
35.623
35.61
35.597
35.584
35.57
35.557
35.543
35.53
35.517
35.503
35.491
35.478
35.466
35.454
35.444
35.434
35.426
35.418
35.41
35.402
35.395
35.387
35.38
35.374
35.367
35.361
35.354
35.346
35.339
35.331
35.323
35.316
35.31
35.304
35.299
35.294
35.288
35.282
35.274
35.266
35.257
35.247
35.236
35.226
35.216
35.207
35.2
35.195
35.19
35.186
35.183
35.181
35.18
35.18
35.18
35.182
35.184
35.188
35.193
35.199
35.208
35.219
35.233
35.25
35.273
35.3
35.333
35.372
35.417
35.469
35.526
35.589
35.657
35.73
35.807
35.886
35.966
36.047
36.127
36.205
36.279
36.349
36.413
36.47
36.52
36.562
36.595
36.621
36.638
36.648
36.651
36.647
36.638
36.625
36.608
36.588
36.566
36.544
36.521
36.498
36.476
36.455
36.434
36.414
36.395
36.377
36.359
36.34
36.322
36.304
36.285
36.266
36.246
36.225
36.202
36.179
36.154
36.127
36.1
36.073
36.046
36.021
35.997
35.975
35.955
35.937
35.922
35.908
35.896
35.884
35.874
35.864
35.856
35.849
35.845
35.842
35.84
35.84
35.841
35.844
35.847
35.853
35.859
35.868
35.878
35.889
35.902
35.916
35.931
35.946
35.961
35.976
35.989
36.0
36.009
36.017
36.022
36.025
36.027
36.026
36.024
36.02
36.014
36.006
35.998
35.988
35.979
35.969
35.958
35.946
35.933
35.92
35.906
35.893
35.88
35.867
35.853
35.84
35.827
35.813
35.798
35.783
35.768
35.752
35.736
35.72
35.704
35.687
35.67
35.653
35.636
35.619
35.602
35.587
35.573
35.561
35.55
35.541
35.532
35.524
35.516
35.509
35.502
35.495
35.487
35.48
35.472
35.464
35.455
35.446
35.437
35.429
35.42
35.412
35.405
35.398
35.391
35.385
35.379
35.373
35.367
35.361
35.356
35.351
35.348
35.345
35.343
35.342
35.341
35.342
35.343
35.344
35.347
35.351
35.355
35.359
35.363
35.366
35.368
35.368
35.366
35.362
35.356
35.349
35.341
35.333
35.324
35.316
35.307
35.299
35.291
35.285
35.279
35.274
35.269
35.264
35.258
35.252
35.245
35.24
35.234
35.229
35.225
35.223
35.222
35.225
35.232
35.245
35.265
35.292
35.327
35.369
35.419
35.475
35.538
35.607
35.68
35.756
35.833
35.91
35.987
36.062
36.133
36.2
36.261
36.317
36.365
36.407
36.441
36.467
36.485
36.496
36.5
36.497
36.487
36.472
36.451
36.426
36.399
36.37
36.34
36.31
36.279
36.25
36.222
36.196
36.172
36.151
