Trial 3:3back
32.018
32.227
32.485
32.797
33.166
33.594
34.08
34.622
35.215
35.85
36.52
37.213
37.919
38.624
39.318
39.986
40.619
41.205
41.737
42.207
42.611
42.944
43.207
43.401
43.526
43.589
43.592
43.541
43.445
43.308
43.139
42.941
42.722
42.486
42.239
41.983
41.723
41.462
41.2
40.938
40.678
40.42
40.164
39.91
39.657
39.405
39.154
38.906
38.659
38.415
38.172
37.932
37.692
37.453
37.215
36.978
36.746
36.518
36.295
36.077
35.864
35.657
35.456
35.262
35.074
34.893
34.72
34.555
34.4
34.256
34.124
34.006
33.903
33.816
33.745
33.69
33.651
33.63
33.625
33.637
33.667
33.712
33.774
33.85
33.941
34.045
34.16
34.283
34.413
34.547
34.683
34.819
34.953
35.084
35.209
35.328
35.439
35.539
35.63
35.709
35.775
35.828
35.867
35.891
35.902
35.898
35.881
35.852
35.812
35.761
35.701
35.632
35.554
35.47
35.379
35.283
35.183
35.08
34.975
34.868
34.759
34.649
34.538
34.427
34.316
34.207
34.101
33.999
33.9
33.804
33.712
33.621
33.53
33.439
33.349
33.26
33.173
33.087
33.003
32.919
32.837
32.754
32.671
32.589
32.508
32.429
32.352
32.277
32.205
32.136
32.07
32.007
31.949
31.894
31.845
31.801
31.761
31.726
31.695
31.668
31.646
31.628
31.612
31.599
31.588
31.577
31.567
31.556
31.546
31.537
31.53
31.525
31.521
31.518
31.514
31.511
31.506
31.502
31.497
31.492
31.488
31.484
31.481
31.477
31.473
31.469
31.466
31.465
31.466
31.47
31.477
31.487
31.502
31.524
31.555
31.6
31.661
31.743
31.852
31.993
32.172
32.395
32.667
32.993
33.376
33.818
34.317
34.869
35.469
36.11
36.781
37.472
38.169
38.862
39.538
40.186
40.796
41.359
41.866
42.312
42.693
43.006
43.25
43.428
43.54
43.591
43.585
43.528
43.427
43.286
43.112
42.911
42.689
42.45
42.199
41.938
41.672
41.403
41.134
40.866
40.601
40.338
40.078
39.821
39.566
39.315
39.066
38.821
38.577
38.336
38.096
37.859
37.625
37.394
37.165
36.938
36.711
36.486
36.262
36.04
35.822
35.607
35.397
35.193
34.997
34.811
34.635
34.469
34.314
34.172
34.043
33.928
33.83
33.748
33.683
33.636
33.608
33.598
33.606
33.632
33.674
33.731
33.802
33.886
33.982
34.089
34.205
34.328
34.455
34.585
34.716
34.845
34.971
35.094
35.21
35.32
35.422
35.514
35.595
35.664
35.721
35.765
35.796
35.814
35.821
35.817
35.801
35.773
35.734
35.685
35.626
35.559
35.485
35.404
35.317
35.224
35.125
35.022
34.917
34.809
34.7
34.59
34.48
34.371
34.263
34.157
34.053
33.951
33.853
33.756
33.662
33.569
33.477
33.388
33.303
33.219
33.138
33.057
32.977
32.897
32.816
32.735
32.654
32.574
32.496
32.421
32.35
32.281
32.216
32.154
32.095
32.04
31.988
31.939
31.894
31.851
31.81
31.771
31.734
31.699
31.667
31.637
31.611
31.588
31.568
31.551
31.537
31.526
31.516
31.508
31.502
31.496
31.492
31.488
31.484
31.479
31.473
31.466
31.458
31.45
31.442
31.434
31.425
31.417
31.41
31.405
31.405
31.411
31.425
31.451
31.492
31.55
31.63
31.738
31.877
32.054
32.273
32.542
32.863
33.241
33.676
34.168
34.713
35.307
35.941
36.608
37.297
37.996
38.692
39.373
40.028
40.644
41.213
41.728
42.181
42.57
42.891
43.144
43.33
43.452
43.512
43.517
43.471
43.38
43.248
43.083
42.89
42.674
42.441
42.195
41.94
41.678
41.414
41.149
40.885
40.623
40.364
40.108
39.854
39.602
39.353
39.106
38.863
38.624
38.388
38.155
37.924
37.693
37.464
37.235
37.006
36.777
36.549
36.321
36.093
35.867
35.645
35.427
35.215
35.01
34.813
34.626
34.451
34.289
34.141
34.01
33.894
33.795
33.713
33.648
33.6
33.569
33.555
33.558
33.578
33.613
33.663
33.728
33.805
33.896
33.999
34.113
34.238
34.37
34.508
34.65
34.793
34.935
35.074
35.207
35.333
35.45
35.556
35.649
35.728
35.793
35.843
35.876
35.894
35.896
35.884
35.858
35.819
35.771
35.714
35.651
35.58
35.504
35.424
35.341
35.256
35.169
35.08
34.989
34.895
34.798
34.698
34.597
34.494
34.39
34.285
34.178
34.07
33.961
33.853
33.746
33.642
33.541
33.444
33.35
33.259
33.171
33.085
33.002
32.922
32.843
32.766
32.69
32.616
32.544
32.472
32.403
32.334
32.268
32.205
32.143
32.083
32.026
31.972
31.921
31.875
31.833
31.795
31.762
31.734
31.708
31.684
31.661
31.639
31.615
31.592
31.569
31.546
31.524
31.502
31.479
31.457
31.434
31.41
31.386
31.36
31.336
31.312
31.292
31.276
31.266
31.264
31.272
31.292
31.328
31.384
31.466
31.577
31.726
31.917
32.155
32.447
32.794
33.198
33.659
34.175
34.743
35.355
36.005
36.682
37.376
38.073
38.763
39.433
40.072
40.669
41.218
41.709
42.138
42.5
42.794
43.019
43.177
43.271
43.306
43.287
43.219
43.11
42.965
42.791
42.593
42.377
42.147
41.906
41.658
41.405
41.151
40.895
40.639
40.384
40.13
39.878
39.628
39.38
39.135
38.892
38.651
38.411
38.172
37.934
37.696
37.457
37.217
36.978
36.739
36.501
36.265
36.031
35.801
35.575
35.354
35.139
34.932
34.735
34.549
34.377
34.219
34.078
33.953
33.845
33.756
33.684
33.631
33.596
33.578
33.577
33.592
33.622
33.666
33.725
33.797
33.882
33.979
34.087
34.204
34.329
34.461
34.598
34.738
34.88
35.019
35.154
35.284
35.407
35.523
35.63
35.726
35.81
35.878
35.931
35.968
35.988
35.992
35.981
35.956
35.918
35.869
35.809
35.742
35.667
35.587
35.502
35.414
35.321
35.226
35.128
35.03
34.932
34.834
34.738
34.643
34.549
34.455
34.361
34.267
34.173
34.079
33.985
33.892
33.799
33.708
33.618
33.53
33.443
33.359
33.277
33.198
33.123
33.051
32.982
32.916
32.854
32.796
32.74
32.688
32.637
32.587
32.539
32.491
32.443
32.395
32.348
32.301
32.255
32.209
32.164
32.121
32.079
32.039
32.001
31.966
31.932
31.901
31.872
31.848
31.827
31.81
31.798
31.792
31.794
31.805
31.828
31.869
31.93
32.018
32.137
32.292
32.487
32.728
33.02
33.364
33.762
34.213
34.715
35.263
35.849
36.465
37.101
37.745
38.387
39.015
39.62
40.19
40.716
41.191
41.611
41.969
42.266
42.499
42.67
42.78
42.835
42.838
42.795
42.71
42.589
42.437
42.259
42.062
41.849
41.625
41.393
41.157
40.918
40.677
40.436
40.197
39.96
39.725
39.492
39.261
39.031
38.803
38.576
38.35
38.125
37.899
37.673
37.445
37.216
36.986
36.755
36.523
36.29
36.058
35.828
35.602
35.383
35.171
34.97
34.781
34.604
34.441
34.295
34.166
34.057
33.967
33.898
33.85
33.822
33.815
33.828
33.861
33.914
33.985
34.073
34.177
34.294
34.423
34.562
34.709
34.862
35.019
35.178
35.335
35.488
35.634
35.773
35.902
36.019
36.122
36.211
36.283
36.34
36.381
36.408
36.422
36.422
36.41
36.386
36.349
36.302
36.246
36.182
36.11
36.031
35.947
35.858
35.765
35.669
35.57
35.469
35.368
35.267
35.166
35.067
34.97
34.874
34.78
34.688
34.596
34.507
34.419
34.333
34.25
34.168
34.088
34.01
33.933
33.856
33.782
33.708
33.636
33.563
33.491
33.418
33.346
33.274
33.203
33.134
33.068
33.004
32.943
32.885
32.827
32.771
32.717
32.664
32.613
32.564
32.516
32.471
32.429
32.392
32.361
32.34
32.328
32.329
32.346
32.381
32.438
32.524
32.644
32.803
33.007
33.261
33.569
33.93
34.347
34.816
35.334
35.895
36.492
37.115
37.753
38.395
39.03
39.646
40.232
40.779
41.28
41.728
42.119
42.452
42.724
42.938
43.093
43.194
43.243
43.245
43.205
43.127
43.018
42.883
42.727
42.553
42.366
42.168
41.961
41.75
41.535
41.318
41.1
40.88
40.66
40.44
40.22
40.001
39.783
39.566
39.349
39.133
38.919
38.706
38.495
38.286
38.079
37.873
37.669
37.465
37.263
37.062
36.862
36.666
36.472
36.284
36.101
35.925
35.757
35.599
35.45
35.313
35.186
35.071
34.971
34.885
34.815
34.762
34.727
34.711
34.713
34.734
34.773
34.831
34.905
34.995
35.098
35.211
35.333
35.461
35.592
35.724
35.855
35.982
36.102
36.214
36.315
36.403
36.477
36.536
36.579
36.606
36.619
36.617
36.602
36.576
36.539
36.491
36.434
36.369
36.296
36.216
36.131
36.04
35.946
35.847
35.746
35.643
35.538
35.432
35.325
35.219
35.113
35.011
34.911
34.813
34.718
34.623
34.529
34.435
34.342
34.251
34.161
34.073
33.987
33.905
33.824
33.747
33.673
33.603
33.536
33.474
33.415
33.36
33.307
33.258
33.21
33.164
33.119
33.073
33.027
32.98
32.933
32.886
32.84
32.794
32.751
32.709
32.668
32.629
32.592
32.557
32.526
32.5
32.48
32.465
32.458
32.458
32.468
32.49
32.527
32.581
32.659
32.766
32.908
33.09
33.316
33.59
33.913
34.289
34.715
35.191
35.712
36.268
36.854
37.459
38.073
38.687
39.29
39.872
40.424
40.938
41.408
41.827
42.191
42.497
42.746
42.937
43.074
43.158
43.196
43.189
43.145
43.069
42.964
42.838
42.693
42.534
42.363
42.186
42.005
41.821
41.636
41.452
41.268
41.085
40.902
40.72
40.539
40.358
40.177
39.996
39.814
39.634
39.456
39.28
39.105
38.933
38.761
38.59
38.418
38.247
38.075
37.903
37.733
37.564
37.398
37.236
37.078
36.924
36.775
36.632
36.496
36.366
36.244
36.132
36.029
35.937
35.856
35.788
35.734
35.694
35.669
35.659
35.664
35.684
35.715
35.758
35.81
35.872
35.941
36.015
36.094
36.175
36.255
36.334
36.408
36.478
36.543
36.602
36.655
36.699
36.734
36.759
36.773
36.775
36.767
36.748
36.719
36.68
36.633
36.578
36.516
36.448
36.375
36.296
36.213
36.126
36.035
35.942
35.846
35.749
35.65
35.548
35.444
35.339
35.234
35.129
35.025
34.923
34.823
34.726
34.631
34.537
34.445
34.355
34.266
34.181
34.1
34.022
33.948
33.877
33.81
33.747
33.689
33.633
33.581
33.533
33.487
33.444
33.402
33.362
33.322
33.284
33.246
33.211
33.178
33.147
33.118
33.09
33.063
33.036
33.011
32.985
32.959
32.931
32.902
32.871
32.838
32.806
32.774
32.744
32.716
32.69
32.667
32.646
32.628
32.615
32.608
32.608
32.619
32.643
32.683
32.745
32.831
32.947
33.1
33.293
33.532
33.818
34.153
34.537
34.967
35.438
35.946
36.483
37.039
37.606
38.173
38.73
39.266
39.774
40.245
40.672
41.049
41.374
41.645
41.862
42.025
42.136
42.2
42.22
42.201
42.147
42.064
41.955
41.825
41.679
41.52
41.353
41.18
41.004
40.829
40.655
40.485
40.318
40.154
39.995
39.84
39.688
39.539
39.392
39.248
39.105
38.963
38.823
38.683
38.544
38.404
38.264
38.123
37.981
37.837
37.691
37.545
37.397
37.248
37.1
36.953
36.809
36.668
36.533
36.402
36.279
36.162
36.053
35.95
35.855
35.769
35.691
35.624
35.567
35.521
35.487
35.464
35.451
35.449
35.455
35.471
35.496
35.528
35.568
35.613
35.664
35.718
35.775
35.833
35.891
35.948
36.001
36.049
36.092
36.127
36.153
36.169
36.176
36.172
36.159
36.136
36.102
36.058
36.004
35.941
35.871
35.795
35.716
35.634
35.55
35.464
35.379
35.293
35.207
35.121
35.035
34.946
34.856
34.764
34.671
34.576
34.482
34.39
34.299
34.21
34.123
34.038
33.954
33.873
33.793
33.716
33.641
33.568
33.498
33.431
33.366
33.305
33.246
33.19
33.136
33.086
33.038
32.992
32.949
32.908
32.869
32.833
32.799
32.768
32.74
32.718
32.706
32.704
32.711
32.724
32.74
32.756
32.769
32.777
32.778
32.772
32.758
32.736
32.707
32.674
32.639
32.603
32.569
32.537
32.508
32.482
32.462
32.447
32.437
32.432
32.433
32.439
32.45
32.467
32.49
32.523
32.567
32.626
32.703
32.802
32.927
33.084
33.275
33.505
33.777
34.091
34.45
34.852
35.293
35.768
36.272
36.794
37.325
37.856
38.376
38.877
39.349
39.785
40.179
40.525
40.82
41.062
41.25
41.387
41.474
41.515
41.515
41.478
41.409
41.313
41.194
41.059
40.912
40.756
40.595
40.432
40.267
40.103
39.94
39.78
39.622
39.466
39.313
39.161
39.011
38.863
38.715
38.569
38.423
38.277
38.131
37.984
37.835
37.684
37.531
37.376
37.219
37.062
36.905
36.749
36.594
36.442
36.294
36.149
36.007
35.869
35.736
35.609
35.492
35.384
35.287
35.202
35.128
35.066
35.016
34.98
34.958
34.949
34.952
34.967
34.992
35.026
35.069
35.121
35.18
35.244
35.311
35.381
35.451
35.52
35.586
35.65
35.709
35.762
35.807
35.845
35.875
35.898
35.913
35.92
35.918
35.907
35.888
35.86
35.826
35.787
35.742
35.693
35.64
35.582
35.521
35.455
35.387
35.316
35.242
35.165
35.086
35.004
34.92
34.834
34.746
34.656
34.566
34.477
34.388
34.302
34.218
34.136
34.057
33.981
33.907
33.834
33.763
33.693
33.624
33.557
33.49
33.424
33.359
33.294
33.228
33.162
33.093
33.024
32.953
32.883
32.814
32.748
32.684
32.624
32.569
32.518
32.473
32.433
32.398
32.369
32.343
32.322
32.305
32.29
32.278
32.269
32.262
32.255
32.248
32.24
32.233
32.227
32.223
32.222
32.224
32.229
32.235
32.241
32.247
32.251
32.253
32.253
32.252
32.249
32.246
32.241
32.236
32.23
32.225
32.22
32.215
32.209
32.204
32.199
32.197
32.199
32.209
32.23
32.265
32.317
32.391
32.489
32.617
32.778
32.978
33.22
33.506
33.836
34.208
34.62
35.066
35.539
36.032
36.536
37.041
37.54
38.021
38.477
38.898
39.279
39.614
39.9
40.134
40.317
40.449
40.532
40.57
40.565
40.522
40.446
40.34
40.211
40.064
39.902
39.729
39.55
39.368
39.185
39.003
38.824
38.648
38.475
38.305
38.137
37.973
37.813
37.658
37.507
37.359
37.215
37.073
36.933
36.796
36.661
36.527
36.393
36.257
36.119
35.977
35.832
35.684
35.532
35.377
35.218
35.057
34.894
34.731
34.572
34.417
34.271
34.133
34.008
33.895
33.797
33.715
33.651
33.603
33.574
33.562
33.566
33.585
33.618
33.664
33.723
33.794
33.875
33.963
34.058
34.158
34.26
34.364
34.468
34.57
34.67
34.766
34.858
34.944
35.022
35.093
35.155
35.207
35.249
35.282
35.305
35.32
35.324
35.319
35.304
35.281
35.249
35.209
35.161
35.107
35.048
34.984
34.917
34.848
34.778
34.706
34.632
34.558
34.483
34.407
34.331
34.254
34.178
34.102
34.029
33.958
33.89
33.825
33.764
33.707
33.653
33.602
33.555
33.512
33.474
33.441
33.41
33.383
33.358
33.336
33.316
33.296
33.277
33.258
33.239
33.221
33.202
33.183
33.166
33.148
33.132
33.116
33.102
33.088
33.075
33.063
33.052
33.045
33.04
33.039
33.038
33.038
33.037
33.034
33.029
33.022
33.013
33.001
32.988
32.973
32.957
32.942
32.93
32.923
32.923
32.934
32.957
32.995
33.053
33.134
33.241
33.378
33.549
33.758
34.007
34.296
34.623
34.987
35.382
35.803
36.243
36.693
37.143
37.587
38.015
38.422
38.8
39.144
39.45
39.714
39.935
40.113
40.246
40.338
40.39
40.406
40.389
40.343
40.273
40.181
40.07
39.945
39.806
39.656
39.498
39.335
39.168
38.999
38.829
38.66
38.492
38.326
38.163
38.003
37.847
37.693
37.544
37.397
37.253
37.111
36.969
36.827
36.683
36.537
36.39
36.239
36.085
35.927
35.767
35.605
35.442
35.282
35.125
34.974
34.832
34.698
34.575
34.463
34.363
34.276
34.203
34.143
34.099
34.069
34.056
34.059
34.077
34.111
34.159
34.219
34.289
34.368
34.455
34.547
34.643
34.741
34.84
34.936
35.03
35.118
35.201
35.276
35.342
35.398
35.443
35.477
35.501
35.516
35.521
35.517
35.504
35.483
35.455
35.421
35.382
35.338
35.289
35.237
35.181
35.122
35.059
34.993
34.925
34.853
34.779
34.703
34.625
34.548
34.471
34.395
34.319
34.245
34.173
34.101
34.032
33.964
33.898
33.833
33.769
33.706
33.643
33.582
33.522
33.464
33.407
33.353
33.301
33.251
33.201
33.152
33.103
33.056
33.011
32.968
32.925
32.884
32.843
32.803
32.763
32.725
32.688
32.651
32.615
32.58
32.547
32.515
32.486
32.459
32.435
32.414
32.396
32.382
32.372
32.366
32.365
32.373
32.391
32.424
32.475
32.548
32.649
32.78
32.944
33.146
33.387
33.669
33.992
34.353
34.75
35.176
35.627
36.094
36.568
37.041
37.504
37.949
38.369
38.755
39.103
39.407
39.665
39.876
40.04
40.16
40.237
40.275
40.278
40.248
40.19
40.108
40.006
39.888
39.758
39.619
39.473
39.324
39.172
39.019
38.868
38.72
38.576
38.436
38.3
38.168
38.04
37.915
37.792
37.67
37.55
37.431
37.313
37.198
37.083
36.969
36.854
36.738
36.619
36.497
36.372
36.242
36.109
35.972
35.831
35.689
35.547
35.405
35.268
35.135
35.01
34.893
34.787
34.692
34.61
34.542
34.487
34.446
34.417
34.401
34.397
34.403
34.421
34.448
34.485
34.529
34.579
34.635
34.696
34.761
34.829
34.897
34.966
35.032
35.095
35.153
35.205
35.252
35.294
35.33
35.361
35.385
35.402
35.411
35.412
35.404
35.389
35.367
35.339
35.305
35.265
35.219
35.167
35.111
35.051
34.987
34.92
34.851
34.78
34.707
34.633
34.557
34.48
34.403
34.323
34.242
34.159
34.076
33.993
33.912
33.833
33.758
33.685
33.614
33.544
33.476
33.408
33.343
33.278
33.216
33.155
33.097
33.042
32.99
32.941
32.895
32.854
32.816
32.782
32.751
32.723
32.696
32.671
32.647
32.624
32.601
32.578
32.554
32.53
32.505
32.478
32.449
32.42
32.392
32.363
32.336
32.312
32.291
32.273
32.262
32.257
32.262
32.277
32.306
32.354
32.424
32.52
32.646
32.807
33.006
33.245
33.527
33.853
34.218
34.62
35.054
35.512
35.987
36.471
36.954
37.427
37.88
38.304
38.692
39.04
39.341
39.595
39.801
39.96
40.074
40.146
40.179
40.178
40.145
40.085
40.002
39.899
39.781
39.65
39.51
39.363
39.211
39.057
38.903
38.752
38.603
38.458
38.317
38.18
38.046
37.916
37.788
37.664
37.543
37.425
37.311
37.2
37.093
36.988
36.885
36.784
36.682
36.581
36.478
36.374
36.268
36.157
36.042
35.922
35.798
35.669
35.538
35.406
35.275
35.146
35.022
34.904
34.794
34.693
34.604
34.528
34.465
34.416
34.381
34.36
34.35
34.352
34.364
34.387
34.42
34.461
34.51
34.564
34.622
34.683
34.747
34.813
34.879
34.944
35.005
35.061
35.11
35.153
35.19
35.222
35.248
35.268
35.282
35.29
35.292
35.288
35.278
35.262
35.24
35.211
35.176
35.134
35.086
35.033
34.975
34.912
34.845
34.774
34.699
34.622
34.544
34.465
34.386
34.308
34.23
34.153
34.076
33.998
33.921
33.844
33.767
33.691
33.616
33.541
33.467
33.394
33.321
33.249
33.179
33.11
33.043
32.979
32.916
32.856
32.798
32.744
32.692
32.644
32.601
32.562
32.527
32.497
32.472
32.45
32.431
32.415
32.402
32.391
32.383
32.376
32.371
32.367
32.366
32.366
32.368
32.371
32.373
32.376
32.377
32.375
32.37
32.36
32.346
32.329
32.309
32.287
32.265
32.245
32.228
32.216
32.21
32.211
32.222
32.243
32.276
32.325
32.391
32.479
32.592
32.736
32.914
33.13
33.387
33.685
34.024
34.403
34.817
35.259
35.723
36.201
36.684
37.164
37.632
38.081
38.5
38.886
39.23
39.529
39.781
39.983
40.136
40.24
40.298
40.314
40.291
40.235
40.149
40.038
39.906
39.759
39.601
39.436
39.268
39.1
38.933
38.768
38.607
38.451
38.299
38.152
38.009
37.871
37.738
37.608
37.483
37.363
37.246
37.133
37.021
36.911
36.8
36.69
36.58
36.468
36.356
36.241
36.124
36.005
35.882
35.758
35.632
35.507
35.382
35.258
35.136
35.019
34.906
34.799
34.7
34.61
34.529
34.458
34.398
34.348
34.312
34.288
34.277
34.282
34.3
34.331
34.371
34.42
34.475
34.538
34.605
34.677
34.751
34.825
34.898
34.969
35.037
35.101
35.159
35.211
35.256
35.291
35.318
35.336
35.344
35.343
35.334
35.317
35.292
35.262
35.227
35.188
35.146
35.102
35.056
35.007
34.955
34.899
34.84
34.776
34.709
34.638
34.566
34.491
34.413
34.333
34.25
34.165
34.079
33.992
33.905
33.817
33.73
33.643
33.557
33.473
33.391
33.312
33.235
33.161
33.091
33.023
32.957
32.893
32.831
32.771
32.712
32.654
32.596
32.54
32.484
32.432
32.382
32.337
32.296
32.26
32.228
32.199
32.174
32.152
32.132
32.114
32.1
32.089
32.081
32.075
32.072
32.071
32.072
32.075
32.081
32.089
32.1
32.114
32.131
32.151
32.172
32.196
32.22
32.246
32.271
32.296
32.319
32.342
32.362
32.382
