Trial 3:3back
34.769
34.753
34.736
34.719
34.703
34.688
34.675
34.664
34.655
34.648
34.643
34.639
34.636
34.634
34.632
34.629
34.625
34.621
34.615
34.609
34.602
34.596
34.59
34.584
34.578
34.572
34.566
34.558
34.55
34.541
34.532
34.524
34.516
34.509
34.504
34.5
34.496
34.494
34.493
34.491
34.49
34.487
34.483
34.476
34.468
34.458
34.446
34.433
34.42
34.407
34.395
34.385
34.376
34.368
34.361
34.355
34.35
34.346
34.343
34.34
34.337
34.333
34.328
34.322
34.316
34.31
34.304
34.299
34.296
34.296
34.298
34.306
34.319
34.339
34.365
34.4
34.442
34.492
34.55
34.616
34.689
34.768
34.852
34.94
35.03
35.121
35.212
35.301
35.385
35.464
35.537
35.601
35.657
35.705
35.744
35.774
35.795
35.809
35.815
35.815
35.81
35.8
35.788
35.773
35.756
35.738
35.719
35.699
35.678
35.656
35.635
35.614
35.593
35.574
35.556
35.539
35.523
35.509
35.495
35.481
35.467
35.452
35.437
35.421
35.405
35.387
35.369
35.349
35.327
35.305
35.283
35.261
35.239
35.218
35.197
35.178
35.16
35.142
35.124
35.107
35.09
35.075
35.061
35.049
35.04
35.033
35.03
35.03
35.033
35.039
35.049
35.062
35.076
35.092
35.108
35.125
35.141
35.156
35.17
35.184
35.196
35.207
35.216
35.224
35.23
35.234
35.237
35.238
35.237
35.234
35.229
35.222
35.213
35.204
35.193
35.182
35.169
35.157
35.143
35.129
35.115
35.101
35.087
35.072
35.056
35.04
35.024
35.008
34.993
34.979
34.966
34.952
34.939
34.926
34.913
34.901
34.889
34.879
34.868
34.858
34.848
34.837
34.825
34.811
34.797
34.781
34.764
34.747
34.729
34.711
34.694
34.678
34.662
34.647
34.634
34.623
34.614
34.607
34.6
34.593
34.586
34.579
34.571
34.563
34.556
34.55
34.544
34.538
34.534
34.529
34.525
34.521
34.516
34.511
34.505
34.498
34.491
34.483
34.475
34.467
34.46
34.453
34.448
34.444
34.44
34.436
34.433
34.43
34.428
34.425
34.422
34.418
34.413
34.408
34.401
34.394
34.387
34.378
34.369
34.36
34.35
34.34
34.33
34.321
34.312
34.303
34.296
34.29
34.285
34.281
34.277
34.274
34.271
34.268
34.264
34.261
34.258
34.253
34.248
34.242
34.235
34.227
34.22
34.214
34.21
34.207
34.208
34.212
34.221
34.236
34.256
34.284
34.318
34.361
34.412
34.472
34.54
34.615
34.697
34.785
34.877
34.971
35.066
35.159
35.25
35.335
35.413
35.484
35.546
35.598
35.64
35.672
35.696
35.711
35.719
35.721
35.717
35.708
35.697
35.682
35.667
35.65
35.632
35.613
35.593
35.571
35.549
35.525
35.502
35.479
35.455
35.432
35.409
35.387
35.365
35.344
35.324
35.306
35.288
35.271
35.255
35.239
35.223
35.206
35.191
35.175
35.16
35.145
35.131
35.116
35.101
35.085
35.067
35.048
35.028
35.008
34.989
34.971
34.956
34.943
34.933
34.927
34.924
34.925
34.929
34.936
34.945
34.957
34.969
34.981
34.993
35.005
35.017
35.028
35.04
35.051
35.062
35.072
35.082
35.09
35.097
35.103
35.107
35.11
35.112
35.112
35.112
35.11
35.108
35.105
35.102
35.097
35.091
35.084
35.076
35.068
35.06
35.05
35.04
35.028
35.015
34.999
34.982
34.964
34.944
34.924
34.903
34.881
34.859
34.837
34.816
34.797
34.779
34.764
34.751
34.74
34.731
34.724
34.718
34.714
34.709
34.704
34.698
34.69
34.682
34.672
34.662
34.651
34.64
34.627
34.613
34.598
34.582
34.566
34.551
34.536
34.522
34.51
34.499
34.49
34.484
34.481
34.479
34.479
34.48
34.481
34.483
34.484
34.486
34.487
34.487
34.486
34.484
34.479
34.474
34.467
34.46
34.452
34.444
34.435
34.426
34.417
34.409
34.402
34.397
34.392
34.389
34.387
34.387
34.387
34.387
34.387
34.386
34.385
34.381
34.377
34.371
34.364
34.356
34.347
34.336
34.324
34.311
34.297
34.283
34.27
34.258
34.247
34.239
34.233
34.227
34.222
34.218
34.214
34.21
34.206
34.202
34.198
34.195
34.191
34.188
34.185
34.182
34.18
34.179
34.179
34.181
34.185
34.192
34.202
34.217
34.237
34.262
34.295
34.335
34.382
34.437
34.499
34.568
34.643
34.723
34.808
34.896
34.985
35.074
35.16
35.241
35.316
35.385
35.445
35.498
35.543
35.58
35.608
35.629
35.642
35.649
35.65
35.646
35.638
35.626
35.612
35.595
35.577
35.558
35.539
35.52
35.501
35.482
35.462
35.443
35.424
35.405
35.385
35.365
35.344
35.322
35.298
35.271
35.242
35.213
35.184
35.155
35.127
35.1
35.075
35.052
35.031
35.012
34.995
34.981
34.968
34.956
34.945
34.934
34.924
34.914
34.904
34.895
34.886
34.878
34.871
34.866
34.864
34.865
34.868
34.874
34.883
34.894
34.907
34.923
34.941
34.961
34.98
35.001
35.021
35.04
35.059
35.075
35.09
35.101
35.109
35.115
35.117
35.116
35.113
35.108
35.101
35.093
35.084
35.075
35.067
35.059
35.052
35.046
35.04
35.036
35.032
35.027
35.022
35.016
35.007
34.997
34.984
34.968
34.951
34.933
34.915
34.895
34.876
34.857
34.839
34.822
34.806
34.79
34.776
34.762
34.749
34.736
34.725
34.716
34.708
34.703
34.7
34.698
34.698
34.698
34.699
34.699
34.698
34.695
34.69
34.684
34.675
34.664
34.65
34.633
34.614
34.593
34.572
34.55
34.53
34.513
34.498
34.488
34.481
34.478
34.478
34.482
34.489
34.496
34.504
34.512
34.518
34.522
34.524
34.524
34.521
34.515
34.508
34.499
34.489
34.48
34.471
34.462
34.455
34.45
34.446
34.443
34.441
34.439
34.437
34.435
34.434
34.433
34.432
34.431
34.431
34.431
34.431
34.431
34.431
34.432
34.433
34.433
34.431
34.429
34.423
34.416
34.407
34.396
34.383
34.37
34.355
34.34
34.325
34.31
34.297
34.286
34.276
34.269
34.266
34.267
34.272
34.282
34.297
34.318
34.346
34.381
34.422
34.471
34.526
34.589
34.657
34.732
34.812
34.896
34.984
35.075
35.167
35.257
35.345
35.428
35.505
35.576
35.639
35.695
35.744
35.785
35.818
35.844
35.864
35.876
35.883
35.883
35.876
35.865
35.848
35.826
35.801
35.772
35.741
35.709
35.677
35.646
35.615
35.586
35.558
35.532
35.508
35.487
35.468
35.452
35.438
35.425
35.414
35.403
35.393
35.383
35.374
35.364
35.353
35.342
35.329
35.315
35.299
35.282
35.265
35.247
35.229
35.211
35.192
35.174
35.157
35.141
35.126
35.113
35.103
35.095
35.09
35.088
35.088
35.091
35.098
35.107
35.118
35.133
35.149
35.167
35.186
35.205
35.224
35.242
35.259
35.274
35.288
35.3
35.309
35.316
35.32
35.322
35.323
35.322
35.319
35.315
35.309
35.303
35.296
35.288
35.28
35.272
35.265
35.258
35.25
35.242
35.234
35.225
35.216
35.205
35.194
35.182
35.169
35.156
35.142
35.128
35.112
35.096
35.081
35.065
35.05
35.036
35.022
35.009
34.997
34.985
34.974
34.962
34.951
34.94
34.928
34.916
34.904
34.892
34.879
34.866
34.853
34.839
34.824
34.809
34.794
34.779
34.765
34.75
34.737
34.724
34.712
34.703
34.695
34.691
34.688
34.687
34.688
34.689
34.69
34.691
34.692
34.691
34.689
34.686
34.68
34.673
34.664
34.653
34.641
34.629
34.617
34.605
34.594
34.584
34.576
34.57
34.566
34.563
34.563
34.563
34.564
34.566
34.568
34.569
34.57
34.569
34.567
34.563
34.558
34.551
34.543
34.534
34.524
34.513
34.501
34.49
34.479
34.468
34.459
34.45
34.444
34.439
34.435
34.432
34.432
34.433
34.435
34.439
34.446
34.454
34.465
34.48
34.499
34.522
34.55
34.584
34.623
34.669
34.721
34.78
34.844
34.916
34.993
35.074
35.158
35.245
35.333
35.42
35.505
35.587
35.663
35.732
35.794
35.846
35.888
35.921
35.945
35.959
35.964
35.962
35.953
35.94
35.922
35.902
35.88
35.858
35.833
35.809
35.783
35.758
35.735
35.713
35.692
35.674
35.657
35.641
35.625
35.61
35.594
35.578
35.562
35.546
35.528
35.51
35.491
35.471
35.45
35.429
35.408
35.388
35.367
35.347
35.326
35.305
35.284
35.264
35.244
35.225
35.207
35.192
35.179
35.167
35.158
35.151
35.146
35.143
35.141
35.142
35.146
35.153
35.162
35.175
35.19
35.206
35.224
35.243
35.263
35.283
35.304
35.326
35.347
35.367
35.385
35.402
35.416
35.428
35.439
35.447
35.452
35.455
35.456
35.454
35.451
35.445
35.436
35.426
35.415
35.402
35.389
35.376
35.363
35.351
35.339
35.328
35.316
35.306
35.295
35.285
35.275
35.265
35.254
35.244
35.232
35.22
35.207
35.194
35.18
35.166
35.15
35.134
35.117
35.099
35.08
35.061
35.042
35.024
35.007
34.991
34.977
34.965
34.954
34.947
34.941
34.937
34.935
34.933
34.932
34.931
34.929
34.926
34.923
34.917
34.911
34.902
34.892
34.88
34.867
34.853
34.839
34.827
34.815
34.805
34.797
34.792
34.79
34.791
34.794
34.797
34.802
34.806
34.811
34.815
34.82
34.823
34.825
34.825
34.823
34.819
34.813
34.805
34.794
34.782
34.769
34.754
34.739
34.724
34.71
34.697
34.684
34.672
34.662
34.654
34.648
34.645
34.646
34.651
34.659
34.671
34.687
34.706
34.729
34.756
34.787
34.824
34.865
34.912
34.963
35.02
35.082
35.149
35.222
35.297
35.376
35.455
35.535
35.613
35.688
35.76
35.827
35.887
35.941
35.988
36.026
36.057
36.081
36.097
36.108
36.111
36.109
36.101
36.087
36.069
36.047
36.023
35.998
35.973
35.949
35.927
35.906
35.885
35.866
35.847
35.829
35.81
35.791
35.771
35.75
35.729
35.707
35.683
35.66
35.636
35.611
35.586
35.562
35.539
35.518
35.499
35.481
35.465
35.449
35.433
35.417
35.4
35.384
35.368
35.354
35.341
35.328
35.317
35.307
35.299
35.292
35.289
35.288
35.291
35.297
35.306
35.317
35.33
35.345
35.361
35.378
35.397
35.416
35.436
35.456
35.475
35.494
35.511
35.526
35.538
35.548
35.555
35.561
35.564
35.565
35.565
35.563
35.56
35.555
35.549
35.543
35.536
35.529
35.52
35.511
35.5
35.487
35.474
35.459
35.443
35.426
35.409
35.391
35.373
35.354
35.336
35.317
35.299
35.281
35.263
35.245
35.226
35.207
35.188
35.17
35.152
35.135
35.119
35.106
35.095
35.086
35.079
35.073
35.068
35.062
35.057
35.05
35.042
35.033
35.022
35.01
34.996
34.982
34.967
34.951
34.936
34.922
34.909
34.898
34.888
34.88
34.873
34.867
34.862
34.858
34.854
34.852
34.851
34.85
34.849
34.849
34.848
34.848
34.848
34.847
34.846
34.843
34.839
34.834
34.828
34.821
34.813
34.804
34.797
34.79
34.784
34.78
34.777
34.776
34.775
34.775
34.774
34.774
34.773
34.771
34.767
34.761
34.753
34.742
34.73
34.716
34.702
34.689
34.678
34.671
34.669
34.673
34.685
34.704
34.73
34.765
34.807
34.856
34.914
34.978
35.05
35.128
35.21
35.296
35.385
35.476
35.568
35.66
35.751
35.837
35.919
35.994
36.061
36.121
36.171
36.214
36.248
36.274
36.293
36.306
36.312
36.313
36.309
36.301
36.289
36.273
36.254
36.234
36.213
36.191
36.168
36.143
36.119
36.094
36.069
36.044
36.021
35.998
35.977
35.957
35.937
35.918
35.901
35.886
35.871
35.859
35.847
35.836
35.826
35.815
35.804
35.792
35.777
35.761
35.742
35.721
35.698
35.673
35.648
35.622
35.597
35.573
35.553
35.535
35.522
35.512
35.507
35.506
35.51
35.516
35.526
35.538
35.552
35.568
35.585
35.602
35.62
35.637
35.655
35.672
35.689
35.707
35.724
35.741
35.757
35.772
35.786
35.798
35.807
35.814
35.819
35.823
35.825
35.825
35.825
35.824
35.821
35.818
35.813
35.807
35.798
35.788
35.775
35.76
35.745
35.73
35.714
35.699
35.683
35.668
35.654
35.64
35.626
35.613
35.599
35.586
35.572
35.557
35.541
35.524
35.505
35.486
35.466
35.445
35.424
35.404
35.383
35.364
35.346
35.329
35.315
35.303
35.293
35.285
35.277
35.271
35.265
35.261
35.257
35.253
35.249
35.245
35.241
35.236
35.23
35.223
35.215
35.206
35.196
35.184
35.172
35.159
35.146
35.132
35.119
35.107
35.096
35.086
35.078
35.072
35.068
35.065
35.063
35.06
35.056
35.051
35.044
35.036
35.028
35.018
35.008
34.997
34.987
34.978
34.969
34.962
34.957
34.954
34.951
34.95
34.951
34.953
34.959
34.969
34.982
35.0
35.024
35.053
35.089
35.131
35.179
35.232
35.292
35.357
35.427
35.501
35.579
35.661
35.744
35.828
35.912
35.994
36.073
36.149
36.22
36.285
36.344
36.395
36.438
36.472
36.495
36.509
36.514
36.512
36.505
36.494
36.48
36.464
36.448
36.43
36.412
36.394
36.375
36.355
36.336
36.317
36.297
36.275
36.253
36.23
36.206
36.182
36.158
36.134
36.11
36.087
36.064
36.041
36.019
35.996
35.974
35.952
35.93
35.907
35.885
35.863
35.84
35.817
35.795
35.773
35.753
35.735
35.719
35.705
35.696
35.689
35.686
35.685
35.687
35.691
35.696
35.702
35.709
35.717
35.724
35.731
35.738
35.745
35.751
35.756
35.76
35.764
35.769
35.774
35.781
35.789
35.799
35.809
35.82
35.831
35.841
35.851
35.859
35.865
35.869
35.871
35.871
35.867
35.86
35.85
35.838
35.824
35.809
35.793
35.776
35.759
35.743
35.726
35.711
35.697
35.685
35.675
35.666
35.658
35.649
35.639
35.628
35.614
35.599
35.581
35.562
35.542
35.521
35.5
35.478
35.456
35.434
35.413
35.392
35.373
35.355
35.339
35.325
35.313
35.304
35.295
35.286
35.278
35.27
35.262
35.253
35.245
35.235
35.226
35.214
35.202
35.187
35.172
35.155
35.139
35.122
35.107
35.094
35.082
35.074
35.068
35.065
35.066
35.069
35.074
35.08
35.086
35.092
35.098
35.103
35.106
35.107
35.105
35.1
35.091
35.079
35.064
35.046
35.028
35.009
34.99
34.972
34.957
34.944
34.935
34.93
34.928
34.931
34.938
34.95
34.968
34.99
35.018
35.051
35.09
35.133
35.181
35.235
35.295
35.361
35.433
35.511
35.595
35.683
35.773
35.865
35.958
36.049
36.138
36.224
36.305
36.38
36.448
36.508
36.559
36.6
36.632
36.654
36.668
36.673
36.67
36.661
36.647
36.629
36.607
36.583
36.557
36.531
36.503
36.476
36.45
36.425
36.402
36.381
36.362
36.345
36.329
36.315
36.301
36.287
36.272
36.257
36.241
36.223
36.203
36.183
36.162
36.14
36.119
36.098
36.078
36.058
36.039
36.019
36.0
35.981
35.962
35.942
35.922
35.902
35.881
35.86
35.839
35.821
35.805
35.793
35.783
35.778
35.777
35.779
35.785
35.795
35.809
35.826
35.846
35.867
35.889
35.909
35.927
35.943
35.956
35.967
35.976
35.982
35.986
35.989
35.99
35.99
35.989
35.987
35.984
35.98
35.975
35.971
35.966
35.961
35.955
35.949
35.941
35.931
35.92
35.907
35.893
35.879
35.862
35.845
35.826
35.806
35.786
35.765
35.745
35.725
35.706
35.688
35.671
35.655
35.639
35.624
35.609
35.595
35.581
35.567
35.552
35.536
35.52
35.503
35.487
35.47
35.455
35.44
35.425
35.41
35.395
35.379
35.364
35.348
35.332
35.317
35.301
35.285
35.271
35.257
35.244
35.232
35.22
35.208
35.197
35.187
35.178
35.17
35.162
35.155
35.15
35.144
35.139
35.135
35.13
35.126
35.122
35.117
35.112
35.106
35.1
35.092
35.084
35.075
35.065
35.056
35.045
35.035
35.025
35.015
35.007
34.999
34.994
34.991
34.992
34.996
35.004
35.018
35.038
35.066
35.1
35.141
35.19
35.245
35.305
35.371
35.442
35.518
35.598
35.682
35.769
35.858
35.947
36.036
36.122
36.204
36.282
36.355
36.421
36.479
36.529
36.571
36.605
36.63
36.648
36.659
36.663
36.66
36.652
36.64
36.623
36.604
36.583
36.561
36.538
36.516
36.494
36.473
36.454
36.435
36.416
36.397
36.378
36.358
36.337
36.314
36.291
36.266
36.24
36.213
36.185
36.156
36.126
36.096
36.067
36.038
36.01
35.983
35.958
35.934
35.911
35.889
35.869
35.85
35.832
35.815
35.801
35.788
35.778
35.77
35.764
35.76
35.759
35.762
35.767
35.775
35.786
35.799
35.815
35.833
35.852
35.872
35.891
35.91
35.928
35.945
35.961
35.975
35.987
35.996
36.002
36.006
36.007
36.006
36.004
35.999
35.992
35.985
35.976
35.966
35.956
35.945
35.935
35.924
35.912
35.899
35.885
35.869
35.851
35.83
35.808
35.784
35.759
35.734
35.708
35.683
35.659
35.636
35.616
35.598
35.583
35.57
35.56
35.551
35.542
35.533
35.524
35.515
35.505
35.494
35.482
35.469
35.454
35.438
35.421
35.403
35.385
35.367
35.35
35.333
35.317
35.302
35.288
35.276
35.264
35.253
35.244
35.236
35.23
35.225
35.222
35.218
35.213
35.207
35.198
35.188
35.175
35.161
35.146
35.13
35.114
35.098
35.082
35.068
35.055
35.043
35.034
35.027
35.022
35.02
35.02
35.021
35.024
35.028
35.033
35.039
35.046
35.055
35.066
35.08
35.099
35.122
35.152
35.189
35.233
35.285
35.344
35.412
35.486
35.566
35.651
35.738
35.828
35.919
36.01
36.1
36.187
36.27
36.347
36.418
36.481
36.535
36.582
36.62
36.649
36.671
36.686
36.693
36.694
36.689
36.679
36.664
36.646
36.625
36.602
36.577
36.55
36.524
36.497
36.469
36.442
36.415
36.388
36.361
36.334
36.308
36.283
36.26
36.238
36.218
36.199
36.181
36.163
36.145
36.128
36.11
36.09
36.07
36.048
36.023
35.997
35.969
35.94
35.912
35.884
35.857
35.832
35.808
35.787
35.768
35.752
35.74
35.731
35.727
35.727
35.732
35.74
35.751
35.766
35.783
35.803
35.824
35.844
35.864
35.881
35.897
35.911
35.921
35.929
35.934
35.937
35.938
35.939
35.939
35.938
35.938
35.937
35.936
35.933
35.929
35.924
35.917
35.91
35.901
35.89
35.878
35.865
35.852
35.838
35.824
35.809
35.793
35.775
35.756
35.735
35.714
35.693
35.671
35.649
35.628
35.605
35.583
35.56
35.537
35.514
35.493
35.473
35.454
35.436
35.419
35.402
35.386
35.371
35.357
35.343
35.33
35.317
35.305
35.293
35.282
35.271
35.26
35.249
35.238
35.226
35.214
35.2
35.186
35.171
35.155
35.14
35.125
35.11
35.097
35.085
35.075
35.067
35.059
35.053
35.048
35.042
35.037
35.031
35.025
35.018
35.011
35.002
34.994
34.986
34.978
34.97
34.964
34.957
34.95
34.943
34.935
34.928
34.92
34.913
34.906
34.899
34.892
34.885
34.878
34.871
34.864
34.858
34.853
34.848
34.843
34.839
34.835
34.832
34.83
34.83
34.833
34.838
34.846
34.859
34.876
34.9
34.93
34.968
35.014
35.068
35.131
35.203
35.281
35.366
35.456
35.551
35.651
35.753
35.857
35.96
36.062
36.16
36.253
36.338
36.415
36.483
36.542
36.592
36.632
36.664
36.687
36.702
36.71
36.713
36.71
36.704
36.695
36.684
36.671
36.657
36.642
36.627
36.612
36.596
36.58
36.565
36.549
36.532
36.515
36.496
36.477
36.456
36.434
36.412
36.39
36.367
36.345
36.322
36.299
36.276
36.252
36.228
36.202
36.177
36.152
36.128
36.104
36.081
36.058
36.036
36.014
35.993
35.973
35.955
35.94
35.927
35.917
35.911
35.908
35.908
35.911
35.918
35.928
35.941
35.956
35.973
35.993
36.013
36.033
36.053
36.071
36.087
36.1
36.109
36.115
36.118
36.118
36.115
36.11
36.103
36.094
36.084
36.073
36.061
36.049
36.036
36.024
36.011
35.999
35.986
35.973
35.96
35.946
35.932
35.917
35.902
35.886
35.87
35.854
35.837
35.821
35.806
35.79
35.776
35.76
35.745
35.729
35.712
35.694
35.677
35.658
35.639
35.618
35.595
35.571
35.546
35.52
35.493
35.467
35.442
35.418
35.395
35.374
35.356
35.338
35.322
35.306
35.29
35.274
35.257
35.241
35.226
35.21
35.194
35.178
35.163
35.148
35.134
35.121
35.11
35.1
35.091
35.083
35.075
35.069
35.063
35.058
35.054
35.051
35.049
35.047
35.046
35.045
35.045
35.044
35.044
35.044
35.043
35.041
35.037
35.032
35.023
35.012
34.997
34.98
34.96
34.94
34.919
34.898
34.879
34.862
34.846
34.833
34.822
34.813
34.807
34.802
34.8
34.798
34.796
34.795
34.793
34.79
34.787
34.784
34.783
34.783
34.786
34.794
34.807
34.827
34.856
34.894
34.942
35.001
35.069
35.148
35.234
35.328
35.428
35.532
35.639
35.746
35.852
35.955
36.053
36.145
36.229
36.305
36.372
36.431
36.48
36.52
36.551
36.574
36.59
36.599
36.602
36.599
36.593
36.584
36.573
36.56
36.545
36.529
36.513
36.495
36.476
36.456
36.435
36.413
36.392
36.371
36.35
36.33
36.31
36.29
36.271
36.253
36.235
36.218
36.202
36.186
36.169
36.153
36.137
36.12
36.103
36.085
36.065
36.045
36.022
35.999
35.975
35.95
35.926
