Trial 3:3back
34.085
34.066
34.054
34.049
34.049
34.054
34.064
34.077
34.093
34.111
34.131
34.15
34.168
34.184
34.196
34.205
34.21
34.209
34.204
34.192
34.175
34.151
34.122
34.086
34.044
33.996
33.942
33.884
33.82
33.753
33.683
33.61
33.534
33.457
33.378
33.298
33.217
33.134
33.051
32.966
32.881
32.795
32.71
32.626
32.542
32.46
32.38
32.303
32.227
32.153
32.081
32.011
31.942
31.874
31.807
31.741
31.677
31.613
31.551
31.491
31.433
31.377
31.324
31.273
31.225
31.179
31.135
31.095
31.056
31.021
30.988
30.957
30.928
30.901
30.874
30.849
30.823
30.798
30.773
30.748
30.723
30.699
30.674
30.649
30.624
30.598
30.572
30.545
30.518
30.49
30.462
30.433
30.403
30.374
30.345
30.317
30.291
30.268
30.25
30.239
30.238
30.25
30.276
30.322
30.39
30.483
30.605
30.758
30.944
31.163
31.416
31.701
32.016
32.356
32.719
33.099
33.492
33.891
34.29
34.685
35.068
35.435
35.782
36.104
36.398
36.662
36.894
37.093
37.26
37.393
37.494
37.564
37.606
37.62
37.609
37.575
37.52
37.447
37.357
37.254
37.139
37.015
36.883
36.745
36.603
36.46
36.316
36.173
36.032
35.895
35.761
35.631
35.505
35.383
35.265
35.15
35.038
34.928
34.819
34.712
34.605
34.498
34.392
34.286
34.18
34.076
33.974
33.874
33.779
33.688
33.603
33.524
33.452
33.387
33.331
33.283
33.244
33.214
33.192
33.179
33.173
33.174
33.181
33.194
33.21
33.228
33.248
33.269
33.29
33.31
33.327
33.342
33.355
33.364
33.37
33.372
33.371
33.366
33.358
33.345
33.328
33.306
33.28
33.249
33.214
33.174
33.129
33.081
33.028
32.972
32.913
32.851
32.786
32.719
32.649
32.578
32.505
32.432
32.358
32.283
32.209
32.134
32.061
31.988
31.916
31.844
31.773
31.703
31.635
31.567
31.502
31.438
31.377
31.318
31.263
31.212
31.164
31.12
31.081
31.045
31.012
30.983
30.957
30.934
30.913
30.895
30.878
30.863
30.849
30.836
30.822
30.809
30.796
30.783
30.77
30.757
30.744
30.731
30.718
30.705
30.693
30.68
30.668
30.656
30.643
30.63
30.615
30.599
30.581
30.56
30.538
30.514
30.487
30.46
30.431
30.401
30.372
30.344
30.319
30.299
30.285
30.281
30.29
30.316
30.361
30.43
30.526
30.651
30.808
30.999
31.224
31.483
31.774
32.095
32.442
32.812
33.2
33.6
34.008
34.417
34.822
35.217
35.596
35.956
36.291
36.598
36.873
37.116
37.323
37.496
37.634
37.738
37.81
37.852
37.867
37.856
37.824
37.773
37.705
37.623
37.53
37.428
37.319
37.204
37.086
36.966
36.844
36.722
36.599
36.478
36.358
36.24
36.124
36.011
35.9
35.792
35.685
35.581
35.478
35.376
35.275
35.175
35.075
34.977
34.879
34.783
34.69
34.6
34.513
34.43
34.352
34.279
34.213
34.154
34.101
34.057
34.021
33.994
33.975
33.964
33.961
33.965
33.975
33.991
34.011
34.035
34.063
34.092
34.122
34.152
34.181
34.208
34.232
34.253
34.271
34.285
34.296
34.302
34.304
34.301
34.294
34.281
34.265
34.244
34.218
34.188
34.155
34.118
34.077
34.034
33.988
33.94
33.89
33.839
33.787
33.733
33.678
33.621
33.564
33.505
33.444
33.382
33.318
33.253
33.187
33.12
33.053
32.986
32.919
32.853
32.789
32.725
32.662
32.602
32.542
32.484
32.428
32.374
32.323
32.273
32.226
32.181
32.139
32.1
32.064
32.03
31.999
31.97
31.944
31.92
31.898
31.879
31.861
31.844
31.828
31.812
31.796
31.78
31.764
31.746
31.728
31.71
31.692
31.674
31.656
31.639
31.621
31.604
31.587
31.57
31.553
31.535
31.518
31.5
31.482
31.465
31.449
31.433
31.419
31.407
31.399
31.394
31.396
31.405
31.424
31.456
31.502
31.567
31.654
31.766
31.906
32.077
32.28
32.517
32.787
33.091
33.425
33.788
34.174
34.578
34.997
35.423
35.852
36.276
36.692
37.092
37.472
37.829
38.158
38.457
38.723
38.956
39.153
39.316
39.444
39.539
39.604
39.639
39.648
39.634
39.599
39.546
39.478
39.397
39.305
39.205
39.098
38.986
38.871
38.754
38.636
38.52
38.405
38.292
38.183
38.076
37.974
37.875
37.779
37.687
37.597
37.509
37.423
37.338
37.253
37.168
37.082
36.995
36.907
36.818
36.727
36.637
36.546
36.458
36.371
36.288
36.209
36.136
36.069
36.009
35.956
35.91
35.872
35.842
35.819
35.803
35.794
35.792
35.795
35.803
35.815
35.83
35.848
35.867
35.887
35.906
35.925
35.942
35.957
35.969
35.977
35.981
35.982
35.978
35.97
35.957
35.938
35.913
35.882
35.845
35.804
35.758
35.708
35.652
35.593
35.529
35.462
35.392
35.32
35.246
35.17
35.093
35.016
34.939
34.862
34.786
34.71
34.636
34.564
34.492
34.422
34.353
34.286
34.219
34.154
34.09
34.028
33.967
33.908
33.85
33.795
33.741
33.69
33.64
33.592
33.546
33.502
33.459
33.418
33.378
33.34
33.302
33.267
33.232
33.198
33.165
33.132
33.099
33.068
33.036
33.005
32.975
32.945
32.915
32.885
32.856
32.826
32.797
32.769
32.741
32.714
32.688
32.663
32.638
32.615
32.592
32.57
32.549
32.528
32.507
32.486
32.464
32.443
32.422
32.402
32.384
32.368
32.356
32.351
32.354
32.368
32.398
32.445
32.515
32.61
32.734
32.887
33.072
33.29
33.542
33.826
34.141
34.484
34.851
35.239
35.642
36.054
36.471
36.887
37.296
37.692
38.07
38.426
38.756
39.057
39.327
39.564
39.767
39.936
40.07
40.172
40.242
40.283
40.296
40.284
40.25
40.196
40.125
40.04
39.943
39.837
39.723
39.604
39.482
39.357
39.233
39.109
38.986
38.867
38.75
38.636
38.526
38.419
38.315
38.215
38.117
38.021
37.928
37.835
37.743
37.652
37.561
37.469
37.376
37.283
37.189
37.096
37.003
36.912
36.822
36.736
36.654
36.576
36.503
36.436
36.377
36.326
36.283
36.25
36.225
36.21
36.202
36.202
36.208
36.219
36.234
36.253
36.274
36.296
36.319
36.341
36.362
36.381
36.397
36.41
36.42
36.425
36.426
36.423
36.415
36.403
36.386
36.364
36.337
36.305
36.269
36.228
36.184
36.135
36.082
36.026
35.966
35.903
35.836
35.767
35.696
35.623
35.549
35.474
35.399
35.324
35.25
35.176
35.103
35.031
34.96
34.891
34.824
34.757
34.692
34.629
34.566
34.504
34.444
34.384
34.326
34.268
34.211
34.156
34.102
34.049
33.998
33.949
33.902
33.856
33.811
33.769
33.728
33.689
33.651
33.615
33.581
33.547
33.513
33.48
33.447
33.414
33.38
33.347
33.313
33.28
33.247
33.214
33.182
33.15
33.119
33.088
33.059
33.03
33.002
32.974
32.946
32.917
32.889
32.86
32.831
32.802
32.774
32.745
32.716
32.688
32.66
32.633
32.607
32.582
32.56
32.542
32.529
32.524
32.529
32.546
32.581
32.635
32.712
32.816
32.95
33.114
33.311
33.542
33.804
34.098
34.421
34.769
35.14
35.529
35.93
36.339
36.75
37.157
37.555
37.937
38.3
38.639
38.949
39.229
39.475
39.686
39.863
40.004
40.111
40.185
40.227
40.241
40.227
40.19
40.131
40.054
39.962
39.856
39.739
39.614
39.483
39.347
39.208
39.067
38.925
38.783
38.642
38.503
38.366
38.231
38.099
37.97
37.843
37.719
37.597
37.477
37.359
37.243
37.127
37.014
36.9
36.788
36.676
36.566
36.457
36.35
36.246
36.146
36.051
35.961
35.878
35.802
35.734
35.674
35.623
35.581
35.547
35.522
35.504
35.494
35.489
35.491
35.498
35.509
35.524
35.543
35.564
35.587
35.61
35.633
35.654
35.674
35.69
35.703
35.713
35.717
35.717
35.712
35.702
35.686
35.665
35.638
35.604
35.565
35.519
35.468
35.411
35.35
35.284
35.215
35.143
35.068
34.992
34.914
34.836
34.759
34.681
34.605
34.529
34.455
34.382
34.31
34.239
34.168
34.099
34.032
33.965
33.9
33.836
33.774
33.714
33.656
33.6
33.545
33.492
33.441
33.391
33.342
33.294
33.248
33.204
33.161
33.12
33.08
33.041
33.003
32.966
32.931
32.896
32.863
32.832
32.802
32.774
32.748
32.724
32.7
32.678
32.657
32.636
32.616
32.597
32.578
32.558
32.539
32.519
32.498
32.476
32.454
32.43
32.406
32.38
32.354
32.328
32.302
32.278
32.257
32.241
32.231
32.229
32.239
32.265
32.31
32.377
32.471
32.594
32.748
32.936
33.157
33.413
33.701
34.021
34.368
34.74
35.132
35.539
35.955
36.374
36.792
37.201
37.598
37.975
38.329
38.656
38.953
39.216
39.444
39.637
39.795
39.918
40.007
40.064
40.093
40.095
40.074
40.033
39.975
39.901
39.814
39.717
39.61
39.496
39.375
39.249
39.119
38.987
38.853
38.718
38.584
38.45
38.318
38.188
38.059
37.932
37.808
37.685
37.564
37.444
37.326
37.208
37.091
36.976
36.861
36.747
36.634
36.523
36.414
36.309
36.209
36.115
36.028
35.949
35.878
35.816
35.763
35.72
35.686
35.661
35.645
35.638
35.64
35.648
35.664
35.685
35.71
35.74
35.771
35.804
35.837
35.869
35.899
35.926
35.949
35.967
35.981
35.989
35.991
35.987
35.977
35.961
35.939
35.911
35.878
35.839
35.796
35.748
35.695
35.638
35.578
35.514
35.448
35.379
35.309
35.237
35.165
35.092
35.018
34.944
34.87
34.796
34.721
34.648
34.576
34.506
34.438
34.371
34.306
34.242
34.179
34.116
34.055
33.995
33.936
33.879
33.824
33.771
33.719
33.67
33.624
33.579
33.536
33.495
33.457
33.419
33.383
33.348
33.314
33.281
33.249
33.217
33.187
33.157
33.129
33.102
33.076
33.051
33.027
33.004
32.983
32.964
32.946
32.931
32.916
32.902
32.888
32.874
32.86
32.844
32.827
32.808
32.789
32.767
32.743
32.718
32.692
32.666
32.64
32.617
32.597
32.584
32.581
32.589
32.614
32.659
32.728
32.824
32.95
33.109
33.304
33.535
33.804
34.11
34.45
34.821
35.221
35.643
36.083
36.536
36.994
37.453
37.906
38.348
38.773
39.176
39.552
39.897
40.208
40.483
40.721
40.921
41.083
41.208
41.298
41.354
41.38
41.378
41.351
41.3
41.229
41.141
41.038
40.923
40.799
40.668
40.532
40.392
40.251
40.108
39.966
39.824
39.683
39.543
39.405
39.27
39.137
39.007
38.88
38.756
38.635
38.517
38.401
38.286
38.172
38.059
37.946
37.834
37.722
37.61
37.5
37.392
37.287
37.186
37.089
36.998
36.914
36.837
36.769
36.709
36.659
36.617
36.585
36.562
36.547
36.54
36.541
36.548
36.561
36.579
36.599
36.623
36.647
36.673
36.697
36.72
36.741
36.759
36.774
36.785
36.791
36.793
36.789
36.781
36.767
36.748
36.723
36.692
36.655
36.612
36.563
36.508
36.448
36.383
36.314
36.241
36.166
36.089
36.01
35.928
35.845
35.761
35.676
35.591
35.506
35.422
35.338
35.256
35.176
35.097
35.021
34.946
34.873
34.802
34.733
34.666
34.601
34.536
34.474
34.413
34.354
34.298
34.244
34.192
34.143
34.096
34.051
34.008
33.968
33.93
33.893
33.857
33.823
33.788
33.755
33.722
33.69
33.659
33.629
33.601
33.573
33.546
33.519
33.493
33.466
33.438
33.411
33.384
33.357
33.33
33.303
33.276
33.249
33.223
33.197
33.171
33.144
33.117
33.09
33.061
33.032
33.004
32.977
32.952
32.931
32.916
32.91
32.915
32.935
32.973
33.034
33.121
33.238
33.386
33.569
33.788
34.042
34.332
34.656
35.012
35.396
35.803
36.229
36.668
37.114
37.561
38.002
38.433
38.847
39.239
39.604
39.94
40.241
40.506
40.734
40.923
41.073
41.186
41.263
41.305
41.316
41.297
41.252
41.184
41.096
40.991
40.873
40.744
40.606
40.462
40.313
40.162
40.009
39.857
39.706
39.556
39.409
39.264
39.122
38.981
38.843
38.706
38.57
38.434
38.3
38.166
38.033
37.901
37.77
37.639
37.509
37.38
37.253
37.127
37.003
36.883
36.767
36.657
36.553
36.457
36.37
36.291
36.222
36.162
36.113
36.073
36.043
36.021
36.008
36.001
36.001
36.006
36.015
36.029
36.046
36.065
36.085
36.106
36.127
36.146
36.164
36.178
36.188
36.195
36.196
36.193
36.183
36.168
36.146
36.118
36.083
36.042
35.995
35.942
35.884
35.821
35.754
35.684
35.611
35.537
35.46
35.382
35.303
35.223
35.144
35.065
34.986
34.909
34.832
34.758
34.685
34.613
34.543
34.473
34.405
34.336
34.268
34.201
34.134
34.069
34.005
33.944
33.885
33.827
33.769
33.712
33.655
33.597
33.539
33.479
33.419
33.357
33.295
33.233
33.17
33.108
33.047
32.986
32.926
32.867
32.81
32.753
32.696
32.64
32.582
32.524
32.465
32.404
32.343
32.282
32.221
32.16
32.1
32.041
31.983
31.926
31.87
31.815
31.761
31.709
31.657
31.606
31.556
31.507
31.459
31.413
31.37
31.329
31.29
31.256
31.227
31.206
31.194
31.194
31.212
31.249
31.31
31.398
31.518
31.672
31.862
32.088
32.351
32.649
32.981
33.342
33.729
34.137
34.56
34.992
35.428
35.862
36.288
36.701
37.096
37.469
37.815
38.133
38.419
38.671
38.887
39.068
39.213
39.322
39.396
39.439
39.452
39.437
39.396
39.334
39.25
39.15
39.034
38.907
38.77
38.626
38.476
38.324
38.17
38.016
37.862
37.711
37.561
37.415
37.271
37.13
36.991
36.855
36.72
36.586
36.453
36.32
36.188
36.055
35.924
35.793
35.662
35.534
35.407
35.284
35.164
35.049
34.94
34.839
34.745
34.659
34.583
34.516
34.458
34.409
34.369
34.338
34.315
34.3
34.294
34.294
34.301
34.313
34.33
34.352
34.376
34.403
34.431
34.459
34.487
34.514
34.538
34.559
34.576
34.588
34.593
34.592
34.585
34.57
34.547
34.517
34.479
34.434
34.382
34.324
34.26
34.19
34.116
34.037
33.956
33.872
33.786
33.699
33.612
33.527
33.442
33.36
33.279
33.2
33.124
33.049
32.976
32.904
32.834
32.764
32.694
32.625
32.556
32.487
32.419
32.351
32.285
32.222
32.161
32.103
32.048
31.997
31.949
31.904
31.86
31.818
31.777
31.736
31.696
31.657
31.618
31.579
31.54
31.502
31.466
31.43
31.397
31.364
31.334
31.306
31.28
31.257
31.236
31.217
31.2
31.183
31.166
31.149
31.131
31.112
31.092
31.072
31.052
31.033
31.016
31.003
30.994
30.99
30.994
31.008
31.034
31.076
31.137
31.222
31.333
31.474
31.649
31.858
32.104
32.387
32.707
33.061
33.448
33.863
34.302
34.759
35.229
35.706
36.183
36.655
37.114
37.557
37.977
38.369
38.732
39.061
39.354
39.61
39.83
40.012
40.158
40.268
40.346
40.392
40.41
40.402
40.371
40.319
40.248
40.163
40.064
39.956
39.839
39.717
39.592
39.464
39.336
39.208
39.081
38.956
38.832
38.71
38.589
38.469
38.35
38.232
38.114
37.995
37.876
37.755
37.633
37.51
37.387
37.264
37.143
37.025
36.909
36.798
36.692
36.592
36.5
36.416
36.342
36.278
36.224
36.179
36.144
36.119
36.102
36.094
36.094
36.102
36.117
36.139
36.165
36.196
36.231
36.267
36.305
36.342
36.379
36.412
36.443
36.469
36.49
36.505
36.514
36.515
36.51
36.496
36.476
36.447
36.411
36.368
36.318
36.261
36.199
36.132
36.061
35.986
35.909
35.829
35.748
35.667
35.585
35.502
35.42
35.337
35.256
35.175
35.094
35.015
34.935
34.857
34.779
34.702
34.626
34.552
34.479
34.408
34.339
34.273
34.21
34.149
34.091
34.035
33.982
33.93
33.881
33.834
33.788
33.743
33.7
33.657
33.615
33.572
33.53
33.487
33.445
33.403
33.361
33.32
33.28
33.242
33.204
33.168
33.134
33.1
33.068
33.037
33.007
32.977
32.948
32.92
32.891
32.864
32.836
32.808
32.781
32.752
32.724
32.694
32.665
32.635
32.607
32.582
32.562
32.55
32.549
32.563
32.595
32.648
32.728
32.838
32.981
33.159
33.374
33.627
33.919
34.248
34.611
35.007
35.43
35.877
36.342
36.819
37.301
37.783
38.258
38.72
39.163
39.581
39.97
40.326
40.645
40.926
41.167
41.368
41.528
41.648
41.729
41.773
41.784
41.763
41.714
41.641
41.548
41.437
41.312
41.175
41.031
40.88
40.725
40.567
40.409
40.251
40.094
39.939
39.787
39.639
39.494
39.353
39.215
39.08
38.947
38.817
38.687
38.559
38.431
38.304
38.176
38.048
37.92
37.793
37.667
37.542
37.421
37.303
37.189
37.082
36.98
36.887
36.802
36.726
36.66
36.604
36.559
36.523
36.498
36.482
36.474
36.474
36.481
36.493
36.509
36.527
36.546
36.566
36.585
36.602
36.616
36.627
36.634
36.637
36.636
36.629
36.617
36.6
36.578
36.552
36.521
36.486
36.446
36.401
36.351
36.295
36.234
36.168
36.097
36.022
35.943
35.861
35.777
35.689
35.6
35.51
35.419
35.328
35.237
35.148
35.058
34.969
34.881
34.794
34.707
34.622
34.538
34.455
34.375
34.297
34.222
34.15
34.081
34.014
33.951
33.89
33.833
33.778
33.726
33.676
33.628
33.583
33.538
33.496
33.455
33.415
33.376
33.339
33.303
33.268
33.233
33.199
33.165
33.132
33.099
33.066
33.032
32.998
32.963
32.928
32.892
32.855
32.817
32.779
32.74
32.701
32.662
32.622
32.582
32.542
32.503
32.464
32.426
32.392
32.36
32.335
32.317
32.309
32.315
32.337
32.38
32.446
32.541
32.668
32.828
33.025
33.26
33.533
33.844
34.19
34.569
34.977
35.409
35.858
36.319
36.786
37.25
37.706
38.147
38.568
38.964
39.33
39.665
39.964
40.227
40.453
40.641
40.793
40.91
40.992
41.042
41.063
41.055
41.023
40.968
40.894
40.804
40.699
40.582
40.455
40.321
40.182
40.038
39.892
39.745
39.599
39.455
39.313
39.175
39.039
38.906
38.776
38.649
38.524
38.401
38.279
38.159
38.039
37.919
37.799
37.679
37.558
37.438
37.318
37.199
37.083
36.97
36.861
36.758
36.659
36.568
36.483
36.407
36.339
36.28
36.231
36.19
36.157
36.132
36.113
36.102
36.096
36.095
36.099
36.106
36.116
36.128
36.14
36.153
36.165
36.177
36.188
36.197
36.203
36.206
36.203
36.196
36.182
36.161
36.134
36.099
36.057
36.009
35.955
35.895
35.829
35.759
35.685
35.607
35.526
35.441
35.354
35.266
35.176
35.087
34.998
34.911
34.824
34.739
34.656
34.573
34.491
34.409
34.328
34.246
34.165
34.083
34.003
33.923
33.844
33.766
33.69
33.617
33.546
33.476
33.409
33.344
33.281
33.221
33.164
33.11
33.06
33.013
32.969
32.928
32.889
32.851
32.814
32.778
32.743
32.707
32.67
32.634
32.597
32.56
32.524
32.489
32.457
32.425
32.395
32.367
32.339
32.312
32.285
32.257
32.23
32.201
32.172
32.141
32.108
32.074
32.037
31.998
31.958
31.916
31.873
31.831
31.79
31.752
31.718
31.69
31.671
31.664
31.673
31.7
31.751
31.828
31.935
32.075
32.252
32.466
32.719
33.009
33.336
33.696
34.086
34.502
34.937
35.387
35.845
36.305
36.759
37.203
37.629
38.033
38.409
38.754
39.065
39.339
39.575
39.772
39.931
40.051
40.136
40.187
40.208
40.199
40.166
40.111
40.036
39.944
39.839
39.723
39.597
39.464
39.325
39.181
39.035
38.888
38.741
38.595
38.452
38.312
38.176
38.044
37.916
37.791
37.67
37.55
37.433
37.315
37.199
37.081
36.964
36.846
36.729
36.612
36.496
36.381
36.268
36.158
36.051
35.949
35.854
35.764
35.683
35.61
35.546
35.492
35.449
35.416
35.393
35.38
35.375
35.377
35.387
35.402
35.421
35.443
35.468
35.493
35.519
35.544
35.568
35.588
35.605
35.617
35.626
35.63
35.629
35.625
35.616
35.603
35.586
35.566
35.541
35.512
35.479
35.44
35.394
35.342
35.281
35.213
35.135
35.049
34.953
34.848
34.734
34.612
34.484
34.35
34.212
34.072
33.93
33.787
33.646
33.507
33.372
33.241
33.116
32.997
32.885
32.779
32.679
32.587
32.5
32.419
32.344
32.273
32.206
32.142
32.081
32.023
31.966
31.912
31.859
31.807
31.757
31.709
31.661
31.615
31.571
31.528
31.487
31.447
31.41
31.374
31.341
31.308
31.277
31.247
31.218
31.189
31.16
31.131
31.101
31.071
31.04
31.007
30.974
30.938
30.903
30.867
30.832
30.798
30.769
30.745
30.728
30.722
30.73
30.754
30.798
30.867
30.963
31.09
31.251
31.447
31.679
31.949
32.255
32.595
32.968
33.369
33.794
34.238
34.695
35.16
35.625
36.085
36.532
36.963
37.372
37.754
38.106
38.425
38.709
38.956
39.168
39.343
39.482
39.587
39.66
39.702
39.716
39.705
39.67
39.615
39.543
39.456
39.357
39.248
39.131
39.009
38.882
38.754
38.625
38.497
38.371
38.248
38.128
38.012
37.901
37.793
37.689
37.588
37.488
37.39
37.292
37.193
37.094
36.992
36.889
36.783
36.677
36.571
36.465
36.361
36.26
36.162
36.068
35.98
35.898
35.824
35.759
35.703
35.657
35.621
35.593
35.575
35.564
35.561
35.563
35.571
35.584
35.601
35.62
35.642
35.666
35.69
35.715
35.739
35.762
