Trial 3:3back
32.923
32.919
32.916
32.913
32.91
32.907
32.905
32.901
32.897
32.891
32.885
32.878
32.871
32.862
32.853
32.841
32.827
32.812
32.795
32.778
32.76
32.741
32.725
32.711
32.703
32.7
32.704
32.719
32.745
32.788
32.85
32.936
33.051
33.198
33.381
33.604
33.869
34.178
34.529
34.922
35.352
35.813
36.298
36.797
37.302
37.803
38.289
38.753
39.186
39.582
39.936
40.244
40.505
40.717
40.881
40.999
41.073
41.112
41.121
41.104
41.064
41.0
40.915
40.811
40.688
40.55
40.399
40.237
40.068
39.894
39.716
39.537
39.358
39.182
39.01
38.843
38.682
38.529
38.382
38.242
38.109
37.982
37.86
37.741
37.625
37.511
37.396
37.281
37.164
37.045
36.922
36.798
36.671
36.544
36.417
36.292
36.169
36.05
35.936
35.826
35.723
35.627
35.54
35.463
35.396
35.34
35.294
35.259
35.236
35.225
35.225
35.236
35.256
35.284
35.321
35.365
35.414
35.468
35.525
35.584
35.644
35.703
35.76
35.812
35.858
35.896
35.928
35.953
35.973
35.987
35.996
35.999
35.997
35.99
35.978
35.961
35.939
35.912
35.879
35.84
35.796
35.745
35.688
35.626
35.559
35.487
35.412
35.333
35.252
35.168
35.082
34.996
34.908
34.821
34.735
34.651
34.567
34.486
34.407
34.331
34.257
34.186
34.119
34.055
33.993
33.932
33.872
33.811
33.75
33.689
33.627
33.566
33.504
33.443
33.383
33.324
33.267
33.212
33.159
33.109
33.063
33.021
32.984
32.951
32.922
32.897
32.873
32.851
32.829
32.807
32.783
32.759
32.734
32.709
32.686
32.664
32.644
32.627
32.61
32.594
32.579
32.565
32.553
32.543
32.533
32.525
32.518
32.511
32.506
32.502
32.499
32.497
32.495
32.495
32.496
32.497
32.499
32.503
32.508
32.516
32.528
32.547
32.576
32.618
32.678
32.759
32.867
33.006
33.179
33.39
33.641
33.936
34.272
34.648
35.061
35.505
35.975
36.463
36.962
37.462
37.953
38.428
38.878
39.296
39.674
40.009
40.294
40.529
40.713
40.845
40.928
40.965
40.958
40.914
40.836
40.73
40.602
40.456
40.297
40.128
39.953
39.775
39.596
39.417
39.242
39.07
38.902
38.738
38.577
38.418
38.262
38.107
37.954
37.803
37.654
37.508
37.363
37.221
37.079
36.937
36.796
36.654
36.511
36.367
36.221
36.074
35.926
35.778
35.631
35.486
35.345
35.207
35.074
34.949
34.831
34.722
34.622
34.534
34.456
34.39
34.336
34.294
34.265
34.247
34.241
34.245
34.26
34.284
34.316
34.357
34.405
34.46
34.521
34.588
34.658
34.732
34.807
34.883
34.958
35.031
35.1
35.165
35.223
35.273
35.315
35.347
35.369
35.381
35.383
35.376
35.359
35.333
35.298
35.256
35.207
35.152
35.091
35.027
34.96
34.891
34.82
34.749
34.677
34.604
34.53
34.456
34.382
34.307
34.231
34.155
34.079
34.0
33.921
33.841
33.761
33.682
33.604
33.529
33.456
33.387
33.321
33.26
33.203
33.149
33.099
33.052
33.007
32.963
32.919
32.876
32.833
32.792
32.751
32.712
32.675
32.641
32.608
32.577
32.547
32.519
32.495
32.475
32.46
32.45
32.442
32.438
32.435
32.433
32.431
32.428
32.424
32.42
32.414
32.408
32.402
32.394
32.386
32.377
32.367
32.357
32.346
32.334
32.322
32.31
32.299
32.29
32.284
32.28
32.279
32.28
32.284
32.29
32.3
32.315
32.338
32.37
32.415
32.477
32.561
32.669
32.806
32.977
33.184
33.43
33.717
34.044
34.41
34.812
35.244
35.703
36.181
36.668
37.158
37.639
38.104
38.543
38.948
39.314
39.635
39.909
40.134
40.309
40.435
40.515
40.551
40.547
40.509
40.438
40.34
40.219
40.079
39.925
39.759
39.586
39.407
39.225
39.041
38.857
38.674
38.493
38.314
38.136
37.962
37.79
37.62
37.453
37.288
37.127
36.967
36.81
36.653
36.496
36.34
36.182
36.024
35.865
35.707
35.55
35.395
35.243
35.093
34.948
34.807
34.672
34.546
34.43
34.325
34.232
34.152
34.085
34.031
33.992
33.968
33.959
33.966
33.989
34.026
34.077
34.14
34.216
34.302
34.398
34.5
34.608
34.72
34.832
34.945
35.055
35.161
35.261
35.355
35.443
35.523
35.595
35.657
35.709
35.75
35.78
35.799
35.807
35.804
35.791
35.768
35.736
35.697
35.651
35.599
35.541
35.478
35.41
35.339
35.264
35.187
35.106
35.023
34.94
34.855
34.771
34.687
34.603
34.521
34.44
34.363
34.287
34.214
34.143
34.075
34.009
33.945
33.885
33.826
33.767
33.71
33.653
33.597
33.542
33.488
33.435
33.383
33.334
33.288
33.243
33.201
33.161
33.123
33.088
33.056
33.027
33.0
32.975
32.952
32.931
32.912
32.896
32.881
32.868
32.857
32.848
32.839
32.83
32.821
32.812
32.801
32.789
32.777
32.764
32.752
32.741
32.731
32.723
32.716
32.712
32.713
32.72
32.735
32.761
32.801
32.858
32.936
33.037
33.167
33.329
33.525
33.759
34.033
34.347
34.701
35.091
35.514
35.963
36.433
36.914
37.397
37.874
38.335
38.773
39.179
39.549
39.876
40.157
40.391
40.576
40.714
40.806
40.855
40.865
40.838
40.78
40.693
40.583
40.454
40.31
40.155
39.992
39.823
39.651
39.475
39.299
39.123
38.948
38.775
38.604
38.436
38.271
38.109
37.95
37.793
37.639
37.486
37.336
37.187
37.04
36.894
36.749
36.604
36.46
36.316
36.173
36.03
35.887
35.745
35.603
35.464
35.327
35.195
35.067
34.946
34.831
34.726
34.63
34.546
34.475
34.417
34.373
34.343
34.325
34.32
34.328
34.348
34.381
34.426
34.481
34.545
34.616
34.694
34.778
34.864
34.953
35.041
35.129
35.216
35.299
35.378
35.451
35.517
35.574
35.623
35.661
35.689
35.707
35.713
35.71
35.697
35.675
35.646
35.608
35.564
35.513
35.456
35.394
35.327
35.256
35.182
35.105
35.027
34.948
34.869
34.79
34.712
34.634
34.558
34.483
34.411
34.339
34.269
34.198
34.129
34.06
33.993
33.926
33.858
33.791
33.724
33.658
33.594
33.531
33.469
33.409
33.352
33.298
33.249
33.203
33.161
33.122
33.085
33.051
33.019
32.989
32.96
32.932
32.906
32.882
32.861
32.842
32.824
32.808
32.793
32.779
32.767
32.756
32.745
32.735
32.725
32.713
32.7
32.687
32.673
32.658
32.642
32.627
32.611
32.598
32.589
32.586
32.591
32.607
32.637
32.687
32.76
32.861
32.995
33.165
33.376
33.631
33.931
34.276
34.666
35.096
35.561
36.054
36.566
37.087
37.608
38.121
38.617
39.086
39.522
39.918
40.268
40.569
40.82
41.019
41.168
41.27
41.326
41.341
41.317
41.26
41.175
41.068
40.943
40.804
40.654
40.497
40.335
40.171
40.006
39.843
39.682
39.524
39.37
39.219
39.072
38.928
38.788
38.65
38.514
38.38
38.248
38.117
37.989
37.862
37.738
37.616
37.495
37.376
37.258
37.141
37.024
36.908
36.791
36.674
36.558
36.442
36.327
36.214
36.102
35.993
35.889
35.791
35.7
35.616
35.54
35.473
35.416
35.368
35.332
35.307
35.292
35.289
35.295
35.31
35.332
35.36
35.393
35.431
35.472
35.515
35.561
35.608
35.657
35.705
35.752
35.797
35.84
35.879
35.915
35.945
35.97
35.989
36.0
36.004
36.0
35.989
35.97
35.943
35.91
35.87
35.824
35.772
35.714
35.653
35.588
35.52
35.449
35.376
35.301
35.224
35.144
35.061
34.976
34.889
34.8
34.712
34.623
34.535
34.448
34.364
34.283
34.203
34.126
34.05
33.977
33.906
33.836
33.768
33.701
33.635
33.571
33.508
33.447
33.386
33.327
33.269
33.213
33.159
33.107
33.056
33.007
32.961
32.918
32.879
32.843
32.811
32.782
32.757
32.735
32.716
32.7
32.686
32.675
32.665
32.658
32.652
32.645
32.637
32.627
32.616
32.604
32.59
32.577
32.563
32.548
32.532
32.515
32.499
32.484
32.472
32.463
32.457
32.455
32.456
32.463
32.477
32.499
32.531
32.579
32.646
32.737
32.857
33.011
33.205
33.441
33.723
34.05
34.422
34.835
35.285
35.766
36.269
36.787
37.309
37.824
38.324
38.798
39.239
39.641
39.999
40.307
40.565
40.77
40.924
41.029
41.087
41.101
41.076
41.018
40.931
40.821
40.693
40.551
40.398
40.238
40.073
39.906
39.739
39.572
39.407
39.245
39.086
38.931
38.781
38.634
38.489
38.348
38.209
38.072
37.939
37.808
37.68
37.555
37.435
37.318
37.204
37.092
36.981
36.869
36.756
36.641
36.523
36.403
36.28
36.154
36.027
35.9
35.776
35.656
35.541
35.432
35.33
35.237
35.152
35.078
35.013
34.958
34.915
34.883
34.863
34.855
34.86
34.875
34.902
34.938
34.983
35.035
35.094
35.157
35.224
35.292
35.361
35.428
35.493
35.555
35.613
35.667
35.716
35.758
35.794
35.823
35.843
35.855
35.857
35.85
35.835
35.811
35.78
35.742
35.696
35.645
35.587
35.523
35.455
35.381
35.301
35.217
35.128
35.035
34.941
34.845
34.75
34.656
34.566
34.478
34.394
34.313
34.234
34.158
34.085
34.014
33.945
33.877
33.809
33.741
33.673
33.605
33.537
33.468
33.398
33.329
33.26
33.194
33.129
33.065
33.003
32.942
32.883
32.826
32.772
32.72
32.67
32.621
32.575
32.532
32.49
32.452
32.415
32.381
32.35
32.32
32.295
32.273
32.254
32.239
32.225
32.215
32.207
32.201
32.199
32.199
32.201
32.205
32.21
32.217
32.223
32.23
32.238
32.246
32.254
32.263
32.272
32.283
32.295
32.308
32.32
32.33
32.339
32.346
32.35
32.351
32.35
32.345
32.338
32.327
32.313
32.297
32.28
32.262
32.246
32.232
32.221
32.214
32.212
32.217
32.231
32.258
32.303
32.37
32.464
32.59
32.754
32.958
33.208
33.505
33.851
34.244
34.682
35.159
35.669
36.204
36.753
37.306
37.853
38.383
38.887
39.358
39.787
40.169
40.5
40.777
41.0
41.167
41.282
41.347
41.365
41.342
41.281
41.19
41.073
40.936
40.783
40.618
40.445
40.267
40.085
39.903
39.722
39.544
39.368
39.196
39.026
38.859
38.694
38.53
38.369
38.211
38.053
37.898
37.744
37.592
37.444
37.298
37.155
37.013
36.873
36.734
36.596
36.459
36.322
36.185
36.048
35.911
35.777
35.644
35.516
35.393
35.276
35.168
35.069
34.979
34.899
34.831
34.773
34.727
34.694
34.672
34.662
34.665
34.679
34.703
34.738
34.781
34.833
34.892
34.957
35.027
35.1
35.175
35.253
35.331
35.409
35.484
35.556
35.623
35.686
35.741
35.79
35.83
35.86
35.88
35.889
35.888
35.878
35.859
35.83
35.793
35.747
35.693
35.632
35.565
35.493
35.418
35.339
35.258
35.176
35.093
35.01
34.926
34.842
34.759
34.676
34.593
34.511
34.43
34.35
34.271
34.194
34.118
34.042
33.965
33.887
33.809
33.731
33.653
33.574
33.495
33.416
33.336
33.258
33.182
33.107
33.035
32.964
32.896
32.832
32.772
32.717
32.666
32.621
32.579
32.542
32.508
32.476
32.448
32.421
32.396
32.373
32.35
32.329
32.308
32.288
32.267
32.247
32.227
32.208
32.19
32.174
32.159
32.146
32.134
32.123
32.115
32.109
32.105
32.103
32.102
32.103
32.105
32.11
32.118
32.128
32.139
32.15
32.161
32.171
32.181
32.19
32.199
32.208
32.216
32.224
32.232
32.239
32.245
32.251
32.257
32.263
32.271
32.279
32.288
32.297
32.304
32.311
32.315
32.316
32.315
32.311
32.305
32.296
32.285
32.271
32.255
32.237
32.217
32.196
32.172
32.148
32.125
32.104
32.093
32.092
32.103
32.127
32.164
32.218
32.291
32.389
32.517
32.679
32.882
33.128
33.422
33.765
34.158
34.598
35.082
35.605
36.158
36.734
37.321
37.909
38.486
39.041
39.564
40.046
40.48
40.86
41.181
41.441
41.64
41.779
41.862
41.892
41.874
41.812
41.713
41.583
41.427
41.252
41.062
40.862
40.657
40.449
40.241
40.035
39.834
39.638
39.446
39.259
39.078
38.9
38.725
38.552
38.383
38.215
38.049
37.884
37.72
37.556
37.392
37.229
37.067
36.907
36.748
36.591
36.436
36.281
36.128
35.977
35.828
35.681
35.537
35.397
35.263
35.135
35.015
34.903
34.801
34.711
34.633
34.571
34.525
34.494
34.478
34.476
34.489
34.513
34.549
34.596
34.653
34.719
34.793
34.874
34.959
35.049
35.14
35.232
35.324
35.415
35.503
35.586
35.663
35.732
35.792
35.844
35.886
35.918
35.939
35.951
35.953
35.946
35.93
35.904
35.869
35.825
35.773
35.715
35.651
35.581
35.506
35.428
35.346
35.262
35.177
35.09
35.003
34.916
34.829
34.741
34.654
34.567
34.48
34.393
34.309
34.226
34.145
34.065
33.986
33.907
33.827
33.746
33.666
33.586
33.506
33.427
33.349
33.271
33.195
33.121
33.048
32.978
32.91
32.847
32.787
32.732
32.681
32.634
32.589
32.547
32.507
32.469
32.432
32.396
32.361
32.326
32.293
32.26
32.23
32.202
32.176
32.152
32.131
32.111
32.095
32.081
32.07
32.062
32.057
32.056
32.059
32.063
32.07
32.078
32.087
32.095
32.103
32.11
32.117
32.123
32.129
32.136
32.144
32.153
32.163
32.174
32.185
32.196
32.207
32.217
32.225
32.231
32.234
32.235
32.233
32.228
32.221
32.212
32.202
32.193
32.184
32.176
32.17
32.167
32.166
32.17
32.18
32.199
32.23
32.277
32.345
32.438
32.562
32.721
32.918
33.158
33.445
33.778
34.16
34.587
35.057
35.564
36.101
36.66
37.233
37.809
38.376
38.924
39.444
39.926
40.362
40.747
41.076
41.347
41.558
41.712
41.811
41.858
41.857
41.815
41.735
41.626
41.491
41.336
41.166
40.983
40.791
40.593
40.391
40.188
39.986
39.785
39.585
39.387
39.19
38.996
38.805
38.615
38.427
38.241
38.056
37.874
37.694
37.516
37.337
37.159
36.982
36.807
36.634
36.464
36.297
36.132
35.97
35.811
35.656
35.504
35.356
35.212
35.074
34.943
34.819
34.704
34.599
34.506
34.423
34.352
34.293
34.248
34.216
34.196
34.19
34.197
34.218
34.252
34.3
34.359
34.429
34.509
34.596
34.689
34.786
34.885
34.985
35.084
35.184
35.284
35.382
35.477
35.567
35.65
35.723
35.786
35.836
35.873
35.897
35.908
35.906
35.893
35.868
35.834
35.792
35.742
35.685
35.624
35.559
35.49
35.416
35.339
35.259
35.176
35.092
35.007
34.921
34.834
34.746
34.656
34.564
34.472
34.379
34.286
34.195
34.104
34.014
33.924
33.835
33.747
33.661
33.576
33.494
33.414
33.336
33.261
33.189
33.119
33.052
32.987
32.923
32.859
32.796
32.733
32.671
32.61
32.55
32.493
32.438
32.386
32.338
32.293
32.25
32.211
32.175
32.143
32.115
32.09
32.069
32.05
32.033
32.018
32.005
31.993
31.984
31.976
31.97
31.965
31.962
31.959
31.957
31.956
31.956
31.958
31.961
31.966
31.974
31.983
31.994
32.006
32.018
32.031
32.043
32.053
32.062
32.069
32.075
32.079
32.082
32.083
32.083
32.081
32.078
32.074
32.069
32.064
32.06
32.059
32.06
32.066
32.078
32.1
32.135
32.189
32.264
32.368
32.505
32.68
32.898
33.163
33.476
33.837
34.246
34.699
35.192
35.719
36.273
36.846
37.428
38.009
38.579
39.127
39.646
40.126
40.562
40.947
41.276
41.547
41.76
41.915
42.015
42.061
42.058
42.012
41.927
41.81
41.666
41.501
41.32
41.127
40.926
40.72
40.511
40.301
40.093
39.886
39.683
39.482
39.284
39.088
38.893
38.7
38.509
38.32
38.133
37.947
37.762
37.58
37.399
37.219
37.039
36.859
36.679
36.499
36.32
36.142
35.965
35.792
35.622
35.458
35.301
35.149
35.004
34.867
34.738
34.62
34.513
34.418
34.337
34.269
34.216
34.179
34.157
34.149
34.155
34.175
34.209
34.254
34.312
34.38
34.458
34.544
34.637
34.736
34.838
34.942
35.048
35.152
35.255
35.353
35.447
35.535
35.615
35.687
35.749
35.802
35.845
35.877
35.899
35.909
35.908
35.898
35.879
35.852
35.819
35.778
35.731
35.678
35.619
35.555
35.485
35.411
35.332
35.249
35.162
35.073
34.983
34.892
34.801
34.71
34.62
34.53
34.441
34.353
34.266
34.181
34.097
34.014
33.932
33.85
33.766
33.683
33.599
33.515
33.43
33.346
33.263
33.182
33.103
33.027
32.953
32.882
32.814
32.749
32.687
32.627
32.571
32.518
32.469
32.423
32.38
32.34
32.304
32.271
32.24
32.212
32.187
32.166
32.147
32.13
32.116
32.104
32.096
32.089
32.084
32.082
32.08
32.08
32.08
32.079
32.078
32.076
32.074
32.07
32.066
32.061
32.055
32.048
32.041
32.033
32.024
32.016
32.007
31.999
31.994
31.991
31.994
32.004
32.026
32.064
32.122
32.203
32.311
32.452
32.631
32.851
33.118
33.434
33.801
34.216
34.677
35.18
35.718
36.282
36.865
37.455
38.043
38.62
39.174
39.699
40.184
40.624
41.012
41.344
41.619
41.836
41.994
42.098
42.15
42.155
42.116
42.04
41.931
41.795
41.636
41.46
41.27
41.071
40.865
40.656
40.446
40.237
40.029
39.825
39.625
39.426
39.23
39.035
38.841
38.647
38.453
38.259
38.065
37.872
37.681
37.492
37.305
37.119
36.934
36.751
36.571
36.393
36.217
36.044
35.873
35.705
35.54
35.379
35.223
35.073
34.929
34.793
34.666
34.549
34.442
34.348
34.265
34.196
34.14
34.099
34.072
34.059
34.061
34.077
34.108
34.151
34.207
34.274
34.351
34.437
34.532
34.633
34.74
34.849
34.959
35.067
35.173
35.275
35.372
35.462
35.545
35.62
35.686
35.742
35.789
35.825
35.85
35.864
35.866
35.857
35.836
35.805
35.765
35.717
35.663
35.602
35.537
35.468
35.395
35.319
35.243
35.173
35.111
35.055
35.003
34.952
34.898
34.839
34.774
34.7
34.618
34.526
34.426
34.318
34.205
34.089
33.971
33.853
33.737
33.625
33.517
33.414
33.315
33.222
33.134
33.051
32.973
32.9
32.831
32.766
32.705
32.647
32.591
32.538
32.488
32.44
32.396
32.354
32.315
32.279
32.248
32.22
32.196
32.175
32.157
32.14
32.124
32.107
32.092
32.076
32.062
32.048
32.036
32.025
32.017
32.011
32.007
32.006
32.007
32.011
32.013
32.013
32.01
32.006
32.0
31.994
31.988
31.982
31.977
31.971
31.964
31.958
31.954
31.951
31.952
31.958
31.971
31.991
32.023
32.07
32.137
32.228
32.347
32.501
32.693
32.928
33.21
33.54
33.919
34.346
34.817
35.328
35.872
36.44
37.023
37.611
38.192
38.758
39.297
39.799
40.259
40.668
41.022
41.318
41.554
41.731
41.85
41.915
41.929
41.896
41.823
41.714
41.575
41.412
41.229
41.03
40.82
40.602
40.38
40.158
39.937
39.72
39.508
39.303
39.103
38.909
38.718
38.53
38.344
38.157
37.97
37.781
37.59
37.398
37.206
37.014
36.822
36.632
36.444
36.257
36.074
35.893
35.714
35.539
35.368
35.201
35.039
34.884
34.737
34.598
34.468
34.347
34.236
34.134
34.044
33.966
33.901
33.85
33.814
33.793
33.787
33.795
33.816
33.849
33.892
33.946
34.01
34.085
34.169
34.261
34.361
34.466
34.576
34.688
34.803
34.917
35.03
35.141
35.247
35.348
35.441
35.527
35.603
35.668
35.721
35.761
35.787
35.799
35.796
35.782
35.756
35.722
35.68
35.631
35.577
35.52
35.458
35.393
35.323
35.249
35.171
35.09
35.006
34.921
34.833
34.745
34.654
34.563
34.471
34.379
34.287
34.197
34.108
34.022
33.939
33.858
33.778
33.7
33.622
33.545
33.469
33.394
33.319
33.246
33.175
33.106
33.041
32.98
32.923
32.869
32.819
32.771
32.727
32.686
32.648
32.612
32.579
32.547
32.518
32.49
32.463
32.438
32.415
32.395
32.376
32.358
32.34
32.32
32.3
32.278
32.254
32.229
32.203
32.177
32.152
32.129
32.108
32.09
32.075
32.066
32.062
32.066
32.08
32.106
32.145
32.203
32.282
32.388
32.525
32.697
32.908
33.163
33.464
33.813
34.211
34.653
35.137
35.657
36.204
36.771
37.348
37.925
38.493
39.042
39.563
40.047
40.489
40.882
41.222
41.507
41.735
41.906
42.023
42.087
42.102
42.075
42.008
41.907
41.777
41.623
41.45
41.261
41.06
40.85
40.633
40.411
40.189
39.967
39.747
39.53
39.316
39.106
38.898
38.693
38.489
38.288
38.088
37.889
37.691
37.493
37.295
37.099
36.903
36.708
36.513
36.317
36.123
35.929
35.739
35.552
35.37
35.194
35.025
34.865
34.714
34.573
34.444
34.326
34.22
34.127
34.047
33.982
33.934
33.902
33.887
33.889
33.907
33.941
33.989
34.051
34.126
34.213
34.31
34.417
34.531
34.65
34.773
34.899
35.026
35.152
35.276
35.396
35.51
35.617
35.715
35.802
35.879
35.943
35.995
36.033
36.058
36.069
36.068
36.055
36.03
35.996
35.954
35.905
35.849
35.787
35.72
35.649
35.575
35.497
35.417
35.335
35.253
35.17
35.088
35.006
34.924
34.842
34.758
34.675
34.591
34.507
34.423
34.339
34.256
34.174
34.094
34.015
33.938
33.863
33.79
33.717
33.647
33.578
33.512
33.447
33.384
33.324
33.267
33.212
33.159
33.107
