Trial 3:3back
35.315
35.261
35.208
35.155
35.103
35.052
35.001
34.952
34.905
34.859
34.815
34.772
34.729
34.686
34.642
34.598
34.553
34.508
34.464
34.42
34.377
34.337
34.298
34.262
34.23
34.199
34.171
34.144
34.118
34.092
34.068
34.044
34.02
33.997
33.974
33.951
33.929
33.909
33.893
33.878
33.866
33.855
33.844
33.833
33.821
33.808
33.794
33.779
33.761
33.742
33.721
33.699
33.676
33.653
33.631
33.609
33.589
33.57
33.552
33.535
33.519
33.505
33.49
33.476
33.46
33.443
33.425
33.405
33.385
33.364
33.342
33.319
33.296
33.272
33.249
33.228
33.207
33.187
33.167
33.148
33.129
33.11
33.091
33.072
33.052
33.031
33.009
32.986
32.962
32.936
32.91
32.883
32.855
32.828
32.8
32.774
32.75
32.73
32.715
32.704
32.7
32.705
32.724
32.761
32.818
32.898
33.005
33.14
33.303
33.496
33.717
33.964
34.234
34.523
34.827
35.141
35.462
35.784
36.102
36.413
36.713
36.998
37.267
37.519
37.751
37.962
38.152
38.323
38.474
38.608
38.724
38.825
38.909
38.979
39.036
39.079
39.112
39.133
39.146
39.15
39.149
39.142
39.132
39.119
39.104
39.086
39.066
39.044
39.021
38.998
38.973
38.948
38.922
38.896
38.87
38.843
38.814
38.781
38.746
38.71
38.677
38.647
38.619
38.589
38.554
38.512
38.46
38.398
38.325
38.24
38.145
38.042
37.933
37.821
37.708
37.598
37.491
37.388
37.292
37.202
37.121
37.046
36.978
36.916
36.859
36.806
36.76
36.718
36.683
36.653
36.629
36.607
36.588
36.57
36.551
36.532
36.51
36.485
36.457
36.426
36.392
36.357
36.32
36.282
36.243
36.202
36.161
36.12
36.078
36.036
35.993
35.948
35.902
35.852
35.801
35.749
35.696
35.643
35.589
35.535
35.48
35.424
35.368
35.313
35.258
35.203
35.147
35.089
35.03
34.969
34.908
34.848
34.788
34.731
34.676
34.625
34.577
34.533
34.495
34.46
34.43
34.402
34.377
34.354
34.332
34.312
34.292
34.274
34.256
34.24
34.223
34.207
34.189
34.169
34.148
34.125
34.102
34.078
34.052
34.025
33.997
33.968
33.938
33.908
33.879
33.851
33.825
33.799
33.773
33.748
33.722
33.698
33.674
33.652
33.633
33.615
33.598
33.582
33.567
33.552
33.539
33.526
33.514
33.503
33.491
33.479
33.466
33.451
33.436
33.418
33.399
33.377
33.354
33.329
33.302
33.275
33.247
33.219
33.191
33.162
33.132
33.102
33.072
33.041
33.011
32.981
32.952
32.925
32.899
32.876
32.856
32.838
32.824
32.813
32.807
32.807
32.817
32.838
32.872
32.923
32.993
33.084
33.199
33.34
33.505
33.697
33.912
34.151
34.411
34.688
34.979
35.277
35.58
35.883
36.181
36.471
36.75
37.017
37.267
37.5
37.712
37.903
38.073
38.223
38.354
38.465
38.558
38.633
38.694
38.741
38.776
38.8
38.814
38.818
38.813
38.801
38.784
38.764
38.742
38.719
38.696
38.672
38.65
38.629
38.61
38.591
38.573
38.554
38.535
38.514
38.493
38.469
38.443
38.412
38.376
38.336
38.291
38.242
38.189
38.13
38.067
37.999
37.926
37.85
37.77
37.686
37.598
37.509
37.419
37.33
37.243
37.157
37.075
36.994
36.918
36.847
36.781
36.721
36.667
36.618
36.574
36.536
36.503
36.474
36.448
36.424
36.4
36.377
36.353
36.329
36.304
36.278
36.25
36.22
36.189
36.154
36.111
36.063
36.009
35.951
35.89
35.828
35.766
35.706
35.648
35.593
35.541
35.492
35.445
35.401
35.359
35.317
35.275
35.233
35.189
35.145
35.1
35.054
35.009
34.963
34.917
34.87
34.823
34.776
34.729
34.684
34.639
34.597
34.557
34.518
34.483
34.449
34.416
34.383
34.351
34.32
34.29
34.261
34.232
34.204
34.175
34.145
34.114
34.082
34.051
34.02
33.99
33.961
33.934
33.907
33.881
33.855
33.829
33.802
33.776
33.75
33.725
33.701
33.678
33.655
33.634
33.613
33.591
33.57
33.547
33.524
33.501
33.48
33.46
33.441
33.424
33.407
33.391
33.373
33.354
33.334
33.313
33.29
33.266
33.241
33.215
33.188
33.161
33.133
33.106
33.08
33.056
33.033
33.011
32.992
32.975
32.96
32.947
32.936
32.925
32.914
32.902
32.889
32.875
32.86
32.844
32.827
32.808
32.789
32.768
32.747
32.725
32.704
32.683
32.662
32.642
32.621
32.598
32.575
32.552
32.532
32.516
32.505
32.502
32.509
32.527
32.561
32.612
32.684
32.779
32.898
33.041
33.209
33.401
33.616
33.853
34.11
34.382
34.667
34.959
35.253
35.547
35.836
36.117
36.387
36.642
36.88
37.098
37.297
37.475
37.633
37.772
37.889
37.987
38.068
38.133
38.185
38.226
38.256
38.278
38.292
38.3
38.303
38.302
38.296
38.287
38.274
38.259
38.242
38.225
38.208
38.191
38.173
38.156
38.14
38.125
38.11
38.094
38.075
38.054
38.029
38.001
37.968
37.929
37.883
37.829
37.768
37.702
37.632
37.557
37.478
37.395
37.307
37.214
37.117
37.018
36.92
36.826
36.738
36.656
36.583
36.519
36.465
36.419
36.379
36.346
36.319
36.296
36.276
36.259
36.242
36.225
36.207
36.188
36.169
36.148
36.126
36.103
36.079
36.054
36.03
36.004
35.977
35.95
35.92
35.888
35.853
35.816
35.778
35.739
35.698
35.656
35.614
35.573
35.531
35.491
35.45
35.408
35.363
35.317
35.269
35.218
35.167
35.114
35.061
35.008
34.955
34.902
34.851
34.801
34.753
34.705
34.659
34.614
34.57
34.529
34.49
34.454
34.42
34.388
34.357
34.325
34.294
34.264
34.235
34.209
34.186
34.165
34.146
34.128
34.111
34.095
34.08
34.066
34.051
34.035
34.019
34.0
33.981
33.959
33.937
33.913
33.888
33.861
33.833
33.804
33.776
33.748
33.721
33.694
33.668
33.642
33.617
33.592
33.569
33.548
33.528
33.509
33.491
33.473
33.456
33.44
33.426
33.414
33.403
33.392
33.381
33.37
33.357
33.344
33.33
33.315
33.298
33.278
33.256
33.231
33.206
33.181
33.155
33.13
33.105
33.08
33.054
33.029
33.004
32.982
32.961
32.943
32.925
32.908
32.892
32.876
32.862
32.849
32.839
32.829
32.82
32.81
32.801
32.791
32.781
32.771
32.762
32.752
32.742
32.73
32.718
32.706
32.694
32.684
32.676
32.672
32.674
32.683
32.702
32.735
32.784
32.852
32.94
33.051
33.185
33.343
33.525
33.731
33.958
34.202
34.461
34.731
35.007
35.287
35.565
35.837
36.1
36.35
36.586
36.806
37.008
37.192
37.356
37.501
37.628
37.737
37.83
37.907
37.969
38.017
38.053
38.079
38.096
38.105
38.106
38.1
38.086
38.067
38.044
38.017
37.987
37.953
37.919
37.884
37.85
37.817
37.786
37.757
37.729
37.703
37.677
37.65
37.621
37.59
37.556
37.518
37.475
37.428
37.376
37.318
37.255
37.187
37.116
37.042
36.966
36.892
36.819
36.749
36.682
36.621
36.564
36.513
36.467
36.426
36.392
36.363
36.34
36.32
36.303
36.287
36.27
36.253
36.234
36.214
36.193
36.171
36.148
36.124
36.1
36.075
36.052
36.028
36.005
35.98
35.953
35.925
35.894
35.859
35.821
35.78
35.736
35.69
35.642
35.592
35.542
35.492
35.443
35.395
35.348
35.302
35.257
35.213
35.17
35.127
35.083
35.039
34.994
34.949
34.904
34.857
34.81
34.762
34.712
34.66
34.608
34.556
34.506
34.458
34.414
34.372
34.333
34.297
34.264
34.235
34.208
34.185
34.163
34.143
34.124
34.106
34.088
34.071
34.052
34.033
34.012
33.991
33.97
33.948
33.928
33.909
33.891
33.874
33.856
33.837
33.818
33.799
33.781
33.764
33.748
33.733
33.72
33.707
33.694
33.681
33.667
33.651
33.633
33.611
33.585
33.557
33.528
33.496
33.463
33.43
33.396
33.362
33.329
33.296
33.264
33.236
33.21
33.187
33.168
33.151
33.137
33.126
33.118
33.112
33.108
33.103
33.097
33.09
33.082
33.074
33.066
33.057
33.045
33.032
33.016
32.997
32.978
32.958
32.937
32.915
32.891
32.867
32.842
32.818
32.795
32.775
32.757
32.741
32.724
32.707
32.689
32.67
32.652
32.636
32.622
32.61
32.603
32.602
32.611
32.633
32.672
32.732
32.815
32.924
33.06
33.222
33.412
33.627
33.866
34.126
34.402
34.692
34.991
35.295
35.602
35.905
36.202
36.487
36.758
37.013
37.25
37.469
37.667
37.846
38.005
38.145
38.267
38.372
38.461
38.535
38.596
38.644
38.682
38.709
38.727
38.737
38.742
38.742
38.739
38.733
38.726
38.719
38.71
38.7
38.689
38.677
38.665
38.652
38.638
38.623
38.607
38.59
38.571
38.55
38.527
38.499
38.468
38.433
38.394
38.35
38.301
38.247
38.187
38.123
38.055
37.986
37.915
37.844
37.772
37.698
37.623
37.546
37.468
37.391
37.314
37.237
37.162
37.089
37.019
36.953
36.891
36.833
36.78
36.731
36.686
36.644
36.605
36.569
36.535
36.503
36.473
36.444
36.417
36.39
36.364
36.339
36.313
36.287
36.259
36.229
36.196
36.162
36.125
36.085
36.042
35.997
35.949
35.9
35.849
35.797
35.743
35.687
35.63
35.571
35.512
35.452
35.393
35.336
35.281
35.229
35.179
35.131
35.085
35.041
34.999
34.958
34.918
34.877
34.835
34.791
34.747
34.702
34.657
34.614
34.573
34.535
34.499
34.465
34.432
34.4
34.369
34.337
34.305
34.275
34.244
34.215
34.185
34.157
34.129
34.101
34.074
34.047
34.022
33.996
33.97
33.944
33.916
33.888
33.86
33.832
33.803
33.775
33.747
33.72
33.694
33.67
33.649
33.63
33.612
33.593
33.574
33.555
33.536
33.517
33.498
33.479
33.459
33.439
33.419
33.399
33.379
33.361
33.343
33.327
33.309
33.292
33.273
33.254
33.236
33.217
33.198
33.178
33.16
33.142
33.126
33.111
33.097
33.083
33.068
33.051
33.032
33.01
32.987
32.962
32.935
32.906
32.877
32.848
32.819
32.789
32.761
32.733
32.708
32.685
32.665
32.649
32.638
32.633
32.636
32.649
32.675
32.718
32.779
32.861
32.967
33.097
33.254
33.435
33.641
33.868
34.113
34.374
34.646
34.928
35.214
35.502
35.786
36.065
36.335
36.592
36.836
37.064
37.274
37.466
37.639
37.793
37.929
38.047
38.148
38.233
38.303
38.359
38.402
38.433
38.454
38.466
38.47
38.466
38.458
38.444
38.426
38.403
38.378
38.35
38.32
38.29
38.261
38.231
38.204
38.178
38.153
38.129
38.105
38.079
38.051
38.021
37.986
37.946
37.902
37.853
37.798
37.739
37.674
37.605
37.532
37.456
37.377
37.296
37.214
37.133
37.053
36.975
36.901
36.83
36.762
36.698
36.639
36.584
36.534
36.489
36.447
36.409
36.374
36.341
36.311
36.281
36.253
36.225
36.198
36.172
36.147
36.121
36.097
36.072
36.049
36.027
36.005
35.983
35.961
35.939
35.914
35.888
35.86
35.83
35.796
35.758
35.716
35.669
35.62
35.567
35.512
35.455
35.396
35.335
35.273
35.211
35.149
35.087
35.026
34.966
34.906
34.847
34.791
34.738
34.689
34.643
34.601
34.563
34.529
34.498
34.47
34.444
34.419
34.392
34.364
34.335
34.305
34.276
34.246
34.216
34.185
34.154
34.121
34.089
34.058
34.029
33.999
33.97
33.941
33.912
33.884
33.858
33.834
33.812
33.792
33.774
33.759
33.747
33.737
33.73
33.724
33.718
33.712
33.706
33.698
33.689
33.678
33.664
33.648
33.629
33.609
33.586
33.561
33.536
33.511
33.486
33.461
33.436
33.411
33.387
33.362
33.338
33.314
33.291
33.269
33.247
33.226
33.205
33.185
33.166
33.146
33.127
33.107
33.086
33.065
33.043
33.022
33.002
32.982
32.963
32.944
32.926
32.909
32.893
32.876
32.86
32.842
32.823
32.803
32.781
32.758
32.736
32.714
32.695
32.679
32.669
32.667
32.678
32.703
32.748
32.818
32.919
33.051
33.215
33.406
33.623
33.863
34.121
34.392
34.672
34.956
35.241
35.523
35.799
36.065
36.321
36.564
36.792
37.004
37.2
37.378
37.539
37.683
37.809
37.919
38.012
38.09
38.155
38.206
38.245
38.274
38.295
38.307
38.312
38.309
38.3
38.284
38.263
38.237
38.207
38.173
38.136
38.098
38.058
38.019
37.979
37.939
37.899
37.859
37.817
37.774
37.729
37.681
37.632
37.581
37.528
37.473
37.416
37.357
37.296
37.233
37.168
37.101
37.032
36.958
36.881
36.804
36.727
36.655
36.587
36.527
36.475
36.43
36.394
36.366
36.346
36.332
36.322
36.315
36.311
36.307
36.303
36.297
36.29
36.281
36.271
36.26
36.248
36.236
36.222
36.206
36.188
36.167
36.144
36.118
36.089
36.056
36.021
35.982
35.942
35.901
35.859
35.815
35.771
35.724
35.677
35.629
35.58
35.531
35.481
35.428
35.374
35.318
35.262
35.205
35.149
35.094
35.038
34.983
34.928
34.873
34.82
34.77
34.721
34.674
34.628
34.584
34.542
34.502
34.465
34.431
34.4
34.371
34.343
34.317
34.292
34.268
34.245
34.222
34.198
34.174
34.149
34.123
34.096
34.068
34.039
34.012
33.986
33.962
33.939
33.918
33.898
33.88
33.862
33.844
33.825
33.806
33.787
33.767
33.747
33.727
33.707
33.688
33.669
33.651
33.633
33.615
33.598
33.581
33.565
33.55
33.534
33.519
33.504
33.489
33.475
33.461
33.446
33.432
33.417
33.401
33.384
33.365
33.346
33.326
33.306
33.285
33.264
33.243
33.222
33.203
33.184
33.166
33.146
33.126
33.106
33.084
33.06
33.036
33.011
32.986
32.96
32.935
32.911
32.887
32.866
32.848
32.834
32.826
32.825
32.835
32.857
32.896
32.954
33.035
33.14
33.272
33.431
33.618
33.831
34.067
34.324
34.598
34.886
35.183
35.486
35.79
36.093
36.392
36.683
36.964
37.231
37.482
37.715
37.93
38.127
38.305
38.464
38.604
38.724
38.827
38.913
38.984
39.041
39.084
39.116
39.136
39.146
39.146
39.137
39.121
39.099
39.073
39.043
39.011
38.977
38.942
38.907
38.874
38.843
38.815
38.79
38.766
38.742
38.719
38.695
38.667
38.636
38.6
38.559
38.513
38.46
38.401
38.334
38.261
38.182
38.099
38.012
37.923
37.831
37.739
37.648
37.561
37.478
37.401
37.329
37.262
37.2
37.144
37.092
37.045
37.002
36.962
36.924
36.889
36.855
36.823
36.792
36.763
36.734
36.705
36.677
36.648
36.62
36.592
36.564
36.535
36.506
36.476
36.447
36.417
36.387
36.355
36.32
36.283
36.242
36.2
36.154
36.105
36.052
35.996
35.937
35.877
35.816
35.754
35.693
35.632
35.573
35.515
35.459
35.405
35.353
35.302
35.253
35.204
35.157
35.111
35.066
35.023
34.979
34.936
34.893
34.851
34.81
34.77
34.731
34.692
34.653
34.614
34.575
34.537
34.5
34.464
34.43
34.398
34.369
34.344
34.321
34.301
34.283
34.265
34.248
34.232
34.215
34.197
34.178
34.158
34.136
34.113
34.089
34.064
34.04
34.015
33.991
33.968
33.945
33.923
33.9
33.878
33.855
33.832
33.809
33.785
33.762
33.739
33.715
33.691
33.668
33.646
33.624
33.603
33.581
33.558
33.533
33.506
33.478
33.448
33.417
33.385
33.353
33.322
33.292
33.264
33.239
33.216
33.196
33.179
33.166
33.155
33.146
33.138
33.13
33.122
33.111
33.098
33.083
33.064
33.043
33.019
32.994
32.969
32.942
32.917
32.892
32.869
32.849
32.833
32.824
32.824
32.835
32.861
32.903
32.967
33.053
33.165
33.303
33.469
33.661
33.88
34.123
34.387
34.669
34.965
35.271
35.583
35.896
36.205
36.507
36.8
37.078
37.34
37.584
37.807
38.01
38.191
38.351
38.49
38.609
38.71
38.793
38.86
38.911
38.949
38.974
38.989
38.995
38.992
38.981
38.964
38.942
38.916
38.887
38.856
38.821
38.785
38.748
38.712
38.676
38.641
38.609
38.577
38.547
38.518
38.49
38.461
38.431
38.398
38.362
38.321
38.277
38.227
38.171
38.11
38.043
37.97
37.893
37.811
37.726
37.639
37.548
37.457
37.366
37.277
37.191
37.109
37.033
36.961
36.895
36.836
36.78
36.726
36.674
36.626
36.582
36.543
36.509
36.48
36.456
36.434
36.415
36.397
36.38
36.362
36.343
36.322
36.298
36.272
36.244
36.214
36.183
36.149
36.115
36.079
36.042
36.003
35.964
35.923
35.88
35.834
35.786
35.735
35.683
35.63
35.576
35.521
35.465
35.408
35.351
35.293
35.236
35.179
35.123
35.069
35.017
34.967
34.918
34.87
34.824
34.779
34.737
34.696
34.658
34.622
34.588
34.556
34.525
34.495
34.466
34.438
34.411
34.385
34.36
34.334
34.307
34.279
34.25
34.22
34.191
34.162
34.135
34.109
34.084
34.059
34.036
34.013
33.99
33.968
33.944
33.92
33.897
33.874
33.853
33.832
33.811
33.79
33.771
33.752
33.736
33.72
33.704
33.688
33.671
33.653
33.633
33.613
33.593
33.572
33.551
33.53
33.509
33.488
33.468
33.449
33.43
33.411
33.391
33.371
33.35
33.328
33.307
33.286
33.265
33.245
33.226
33.208
33.191
33.176
33.162
33.149
33.135
33.12
33.104
33.085
33.064
33.04
33.015
32.989
32.963
32.938
32.912
32.888
32.863
32.838
32.813
32.789
32.764
32.74
32.717
32.696
32.678
32.663
32.654
32.654
32.665
32.691
32.736
32.803
32.894
33.011
33.154
33.326
33.526
33.753
34.005
34.28
34.572
34.878
35.193
35.513
35.832
36.146
36.451
36.743
37.019
37.277
37.516
37.733
37.929
38.103
38.254
38.383
38.49
38.576
38.644
38.696
38.734
38.761
38.777
38.783
38.782
38.774
38.761
38.743
38.72
38.694
38.665
38.635
38.603
38.571
38.537
38.502
38.467
38.431
38.394
38.356
38.316
38.275
38.232
38.187
38.141
38.093
38.041
37.985
37.925
37.86
37.789
37.715
37.636
37.555
37.471
37.386
37.301
37.216
37.134
37.055
36.98
36.911
36.848
36.79
36.737
36.69
36.649
36.612
36.58
36.551
36.525
36.5
36.475
36.451
36.428
36.405
36.381
36.357
36.331
36.304
36.278
36.252
36.225
36.198
36.17
36.14
36.109
36.077
36.044
36.01
35.975
35.938
35.899
35.858
35.815
35.769
35.721
35.67
35.616
35.561
35.506
35.449
35.392
35.334
35.276
35.216
35.157
35.097
35.039
34.982
34.926
34.87
34.814
34.76
34.709
34.659
34.612
34.566
34.523
34.482
34.443
34.406
34.372
34.341
34.311
34.282
34.254
34.226
34.2
34.176
34.153
34.131
34.11
34.092
34.075
34.059
34.045
34.031
34.017
34.003
33.988
33.972
33.956
33.94
33.925
33.91
33.895
33.879
33.862
33.843
33.824
33.805
33.785
33.764
33.744
33.723
33.701
33.679
33.657
33.636
33.614
33.591
33.568
33.545
33.522
33.5
33.479
33.458
33.438
33.42
33.403
33.389
33.377
33.367
33.36
33.353
33.347
33.341
33.336
33.329
33.322
33.311
33.298
33.281
33.261
33.24
33.217
33.193
33.167
33.14
33.11
33.08
33.051
33.022
32.994
32.966
32.938
32.909
32.88
32.852
32.827
32.803
32.78
32.759
32.741
32.729
32.726
32.734
32.758
32.8
32.863
32.951
33.065
33.207
33.375
33.571
33.791
34.034
34.296
34.575
34.867
35.168
35.473
35.776
36.074
36.365
36.644
36.909
37.158
37.389
37.603
37.798
37.973
38.127
38.261
38.374
38.468
38.543
38.601
38.642
38.668
38.68
38.68
38.67
38.652
38.626
38.594
38.558
38.518
38.476
38.432
38.387
38.34
38.293
38.245
38.196
38.146
38.098
38.049
38.0
37.95
37.899
37.846
37.791
37.734
37.676
37.616
37.552
37.486
37.416
37.344
37.269
37.192
37.114
37.037
36.96
36.885
36.812
36.744
36.68
36.621
36.568
36.521
36.48
36.445
36.416
36.393
36.378
36.37
36.368
36.371
36.375
36.379
36.381
36.38
36.373
36.362
36.345
36.323
36.297
36.269
36.238
36.207
36.174
36.14
36.103
36.065
36.024
35.981
35.937
35.891
35.845
35.797
35.748
35.698
35.648
35.597
35.548
35.499
35.449
35.398
35.347
35.294
35.241
35.188
35.133
35.078
35.021
34.963
34.904
34.846
34.788
34.732
34.677
34.623
34.572
34.524
34.48
34.439
34.401
34.366
34.334
34.306
34.28
34.255
34.233
34.212
34.192
34.172
34.152
34.133
34.115
34.098
34.083
34.068
34.054
34.04
34.028
34.016
34.005
33.995
33.985
33.975
33.964
33.952
33.938
33.924
33.908
33.891
33.872
33.851
33.829
33.806
33.783
33.761
33.738
33.715
33.692
33.668
33.646
33.623
33.601
33.579
33.556
33.534
33.511
33.489
33.467
33.445
33.423
33.402
33.381
33.362
33.344
33.328
33.313
33.297
33.28
33.262
33.243
33.223
33.201
33.178
33.153
33.126
33.099
33.071
33.045
33.02
32.997
32.974
32.953
32.932
32.913
32.892
32.871
32.849
32.827
32.806
32.789
32.778
32.777
32.789
32.817
32.864
32.932
33.025
33.145
33.293
33.472
33.679
33.913
34.172
34.452
34.749
35.061
35.382
35.709
36.037
36.362
36.68
36.987
37.281
37.559
37.819
38.059
38.28
38.481
38.661
38.82
38.958
39.075
39.172
39.252
39.314
39.362
39.396
39.418
39.429
39.43
