Trial 3:3back
32.808
32.775
32.743
32.713
32.685
32.659
32.634
32.611
32.588
32.566
32.544
32.523
32.502
32.48
32.459
32.437
32.414
32.39
32.366
32.341
32.316
32.29
32.264
32.238
32.212
32.188
32.163
32.139
32.114
32.087
32.058
32.028
31.997
31.966
31.937
31.912
31.894
31.885
31.889
31.909
31.946
32.003
32.083
32.188
32.32
32.481
32.669
32.886
33.13
33.403
33.703
34.028
34.374
34.738
35.116
35.504
35.896
36.288
36.674
37.049
37.41
37.753
38.076
38.377
38.655
38.91
39.14
39.343
39.519
39.669
39.792
39.891
39.968
40.024
40.063
40.084
40.092
40.087
40.07
40.044
40.011
39.974
39.934
39.894
39.853
39.813
39.773
39.733
39.694
39.655
39.617
39.581
39.545
39.509
39.473
39.435
39.393
39.347
39.293
39.231
39.159
39.076
38.985
38.884
38.777
38.665
38.551
38.436
38.322
38.212
38.107
38.009
37.919
37.841
37.774
37.719
37.678
37.648
37.629
37.62
37.62
37.625
37.634
37.645
37.657
37.669
37.678
37.685
37.69
37.69
37.686
37.676
37.66
37.637
37.607
37.571
37.53
37.485
37.437
37.386
37.334
37.279
37.222
37.164
37.103
37.04
36.974
36.906
36.833
36.756
36.674
36.588
36.497
36.401
36.3
36.193
36.08
35.963
35.842
35.72
35.597
35.475
35.353
35.233
35.116
35.001
34.89
34.785
34.687
34.595
34.507
34.424
34.344
34.267
34.19
34.114
34.038
33.963
33.887
33.811
33.734
33.657
33.579
33.501
33.422
33.343
33.264
33.183
33.102
33.021
32.943
32.868
32.798
32.737
32.686
32.645
32.614
32.593
32.581
32.572
32.563
32.547
32.52
32.481
32.435
32.385
32.332
32.28
32.23
32.181
32.134
32.089
32.047
32.006
31.967
31.931
31.896
31.861
31.825
31.788
31.75
31.711
31.669
31.623
31.573
31.52
31.463
31.405
31.347
31.292
31.242
31.198
31.164
31.143
31.135
31.144
31.171
31.218
31.286
31.38
31.5
31.648
31.826
32.035
32.275
32.546
32.847
33.175
33.527
33.9
34.291
34.693
35.101
35.511
35.916
36.311
36.691
37.051
37.39
37.704
37.993
38.256
38.491
38.698
38.877
39.026
39.145
39.236
39.303
39.348
39.377
39.391
39.393
39.385
39.371
39.351
39.328
39.304
39.278
39.251
39.224
39.196
39.167
39.134
39.098
39.059
39.014
38.965
38.912
38.854
38.793
38.729
38.661
38.59
38.517
38.439
38.358
38.272
38.183
38.091
37.998
37.904
37.81
37.717
37.624
37.532
37.441
37.352
37.265
37.179
37.098
37.021
36.951
36.888
36.832
36.784
36.744
36.71
36.681
36.656
36.633
36.611
36.589
36.566
36.544
36.522
36.5
36.477
36.451
36.422
36.389
36.353
36.314
36.273
36.231
36.186
36.138
36.09
36.04
35.989
35.938
35.885
35.832
35.777
35.72
35.661
35.6
35.537
35.47
35.4
35.327
35.252
35.177
35.102
35.028
34.955
34.883
34.812
34.742
34.671
34.6
34.528
34.455
34.382
34.309
34.238
34.17
34.105
34.044
33.988
33.936
33.888
33.844
33.801
33.759
33.717
33.675
33.631
33.586
33.538
33.489
33.438
33.387
33.337
33.287
33.239
33.194
33.151
33.111
33.072
33.032
32.992
32.948
32.902
32.854
32.803
32.752
32.701
32.649
32.599
32.551
32.506
32.464
32.424
32.385
32.348
32.31
32.271
32.231
32.189
32.145
32.1
32.055
32.01
31.966
31.923
31.884
31.851
31.825
31.808
31.803
31.811
31.834
31.876
31.937
32.022
32.13
32.263
32.422
32.609
32.823
33.066
33.335
33.63
33.946
34.28
34.629
34.986
35.347
35.707
36.062
36.409
36.745
37.065
37.368
37.651
37.913
38.152
38.367
38.558
38.725
38.868
38.988
39.088
39.168
39.232
39.281
39.318
39.341
39.353
39.352
39.342
39.324
39.3
39.271
39.239
39.203
39.165
39.123
39.078
39.031
38.981
38.929
38.876
38.822
38.767
38.71
38.651
38.591
38.527
38.46
38.388
38.31
38.228
38.14
38.049
37.956
37.863
37.769
37.677
37.585
37.494
37.405
37.317
37.232
37.151
37.073
37.0
36.932
36.871
36.817
36.771
36.732
36.699
36.67
36.645
36.622
36.6
36.58
36.561
36.544
36.526
36.51
36.493
36.476
36.459
36.44
36.42
36.397
36.37
36.34
36.307
36.272
36.236
36.198
36.158
36.117
36.074
36.029
35.984
35.937
35.888
35.837
35.785
35.731
35.676
35.621
35.565
35.51
35.454
35.397
35.338
35.278
35.215
35.151
35.084
35.015
34.944
34.873
34.804
34.736
34.671
34.61
34.551
34.495
34.441
34.387
34.334
34.281
34.226
34.171
34.117
34.063
34.012
33.963
33.916
33.872
33.831
33.793
33.758
33.725
33.693
33.662
33.63
33.598
33.565
33.531
33.496
33.46
33.422
33.384
33.345
33.308
33.271
33.236
33.203
33.17
33.138
33.105
33.07
33.034
32.995
32.955
32.913
32.87
32.828
32.787
32.747
32.71
32.675
32.642
32.611
32.582
32.555
32.531
32.512
32.5
32.496
32.503
32.526
32.567
32.63
32.719
32.835
32.98
33.157
33.366
33.605
33.874
34.168
34.486
34.822
35.175
35.54
35.913
36.291
36.667
37.038
37.399
37.746
38.075
38.385
38.673
38.94
39.182
39.4
39.593
39.761
39.906
40.029
40.131
40.213
40.276
40.321
40.351
40.367
40.371
40.365
40.352
40.333
40.31
40.284
40.254
40.221
40.185
40.147
40.107
40.067
40.025
39.982
39.937
39.889
39.838
39.783
39.725
39.664
39.6
39.533
39.462
39.386
39.306
39.222
39.133
39.04
38.943
38.842
38.739
38.635
38.531
38.427
38.324
38.223
38.125
38.03
37.938
37.851
37.77
37.696
37.628
37.568
37.513
37.464
37.419
37.38
37.344
37.312
37.281
37.251
37.219
37.186
37.152
37.116
37.08
37.043
37.006
36.968
36.928
36.886
36.842
36.795
36.746
36.696
36.644
36.591
36.535
36.477
36.416
36.354
36.289
36.22
36.149
36.074
35.997
35.92
35.841
35.762
35.681
35.599
35.517
35.435
35.354
35.273
35.194
35.115
35.036
34.958
34.88
34.802
34.723
34.644
34.563
34.483
34.403
34.325
34.248
34.171
34.096
34.022
33.948
33.876
33.806
33.737
33.671
33.607
33.546
33.488
33.434
33.385
33.339
33.297
33.258
33.221
33.185
33.149
33.113
33.076
33.037
32.996
32.954
32.911
32.868
32.825
32.783
32.741
32.7
32.662
32.625
32.591
32.557
32.524
32.491
32.457
32.423
32.388
32.353
32.318
32.281
32.243
32.205
32.167
32.128
32.09
32.051
32.013
31.975
31.938
31.902
31.868
31.838
31.814
31.799
31.796
31.809
31.84
31.894
31.972
32.078
32.214
32.381
32.579
32.809
33.069
33.357
33.671
34.008
34.364
34.736
35.117
35.504
35.891
36.271
36.642
36.998
37.334
37.649
37.94
38.207
38.448
38.665
38.857
39.025
39.171
39.297
39.402
39.487
39.555
39.605
39.64
39.662
39.672
39.671
39.662
39.645
39.623
39.594
39.562
39.525
39.486
39.444
39.4
39.354
39.306
39.257
39.207
39.157
39.105
39.051
38.995
38.935
38.871
38.804
38.734
38.659
38.581
38.5
38.415
38.326
38.233
38.137
38.038
37.938
37.839
37.74
37.644
37.55
37.461
37.376
37.296
37.221
37.151
37.086
37.024
36.965
36.909
36.858
36.812
36.769
36.731
36.695
36.663
36.635
36.61
36.588
36.566
36.545
36.521
36.494
36.464
36.43
36.394
36.356
36.317
36.275
36.23
36.18
36.128
36.073
36.015
35.953
35.884
35.81
35.73
35.647
35.561
35.476
35.392
35.31
35.231
35.157
35.088
35.024
34.965
34.911
34.861
34.814
34.771
34.728
34.687
34.642
34.592
34.532
34.46
34.377
34.286
34.19
34.092
33.996
33.904
33.818
33.742
33.674
33.615
33.563
33.518
33.477
33.44
33.407
33.376
33.345
33.313
33.278
33.242
33.204
33.164
33.124
33.083
33.041
32.999
32.958
32.919
32.881
32.844
32.807
32.769
32.732
32.693
32.656
32.618
32.58
32.542
32.503
32.465
32.427
32.39
32.353
32.316
32.278
32.241
32.203
32.167
32.131
32.095
32.059
32.023
31.987
31.952
31.919
31.886
31.856
31.828
31.803
31.785
31.774
31.774
31.787
31.816
31.863
31.933
32.029
32.151
32.301
32.48
32.687
32.922
33.185
33.475
33.789
34.123
34.474
34.836
35.205
35.576
35.945
36.308
36.661
37.001
37.324
37.627
37.907
38.163
38.393
38.598
38.778
38.934
39.065
39.173
39.261
39.33
39.382
39.421
39.448
39.465
39.473
39.474
39.468
39.456
39.438
39.416
39.392
39.366
39.34
39.312
39.284
39.254
39.222
39.188
39.151
39.112
39.071
39.027
38.981
38.93
38.875
38.817
38.755
38.689
38.619
38.544
38.464
38.38
38.292
38.202
38.109
38.014
37.919
37.824
37.731
37.639
37.55
37.464
37.381
37.302
37.228
37.157
37.091
37.029
36.97
36.916
36.865
36.817
36.773
36.733
36.696
36.661
36.629
36.598
36.566
36.535
36.503
36.47
36.437
36.404
36.369
36.333
36.294
36.252
36.209
36.163
36.115
36.066
36.014
35.959
35.903
35.844
35.782
35.718
35.653
35.586
35.519
35.451
35.382
35.314
35.246
35.177
35.107
35.036
34.963
34.889
34.815
34.739
34.663
34.587
34.511
34.436
34.362
34.29
34.218
34.148
34.079
34.01
33.941
33.874
33.808
33.744
33.683
33.624
33.566
33.511
33.456
33.401
33.347
33.293
33.239
33.185
33.132
33.079
33.027
32.977
32.927
32.878
32.831
32.785
32.741
32.698
32.657
32.617
32.579
32.541
32.504
32.468
32.433
32.4
32.367
32.336
32.306
32.278
32.249
32.221
32.194
32.168
32.143
32.121
32.1
32.08
32.061
32.042
32.024
32.005
31.986
31.965
31.941
31.916
31.888
31.859
31.828
31.796
31.763
31.727
31.691
31.655
31.62
31.587
31.555
31.524
31.496
31.47
31.449
31.435
31.43
31.436
31.457
31.497
31.558
31.644
31.757
31.899
32.072
32.275
32.508
32.77
33.061
33.378
33.719
34.082
34.462
34.854
35.255
35.659
36.059
36.452
36.834
37.201
37.549
37.876
38.179
38.458
38.712
38.942
39.148
39.33
39.489
39.625
39.739
39.832
39.906
39.963
40.005
40.033
40.051
40.06
40.061
40.057
40.048
40.035
40.021
40.004
39.986
39.966
39.945
39.921
39.896
39.87
39.843
39.814
39.783
39.749
39.711
39.669
39.623
39.572
39.517
39.457
39.392
39.32
39.243
39.161
39.074
38.984
38.89
38.793
38.696
38.597
38.499
38.402
38.305
38.211
38.119
38.031
37.947
37.868
37.793
37.724
37.66
37.6
37.544
37.49
37.44
37.393
37.349
37.306
37.266
37.228
37.191
37.157
37.126
37.096
37.067
37.038
37.008
36.977
36.944
36.908
36.87
36.829
36.783
36.734
36.681
36.626
36.568
36.507
36.444
36.379
36.313
36.247
36.181
36.114
36.046
35.976
35.904
35.829
35.752
35.675
35.598
35.52
35.443
35.364
35.285
35.204
35.122
35.039
34.955
34.871
34.786
34.703
34.621
34.543
34.467
34.395
34.327
34.262
34.2
34.14
34.081
34.023
33.964
33.906
33.848
33.788
33.727
33.664
33.601
33.537
33.474
33.411
33.348
33.285
33.222
33.16
33.099
33.038
32.979
32.922
32.868
32.818
32.772
32.73
32.691
32.655
32.622
32.592
32.564
32.538
32.514
32.49
32.467
32.444
32.42
32.396
32.371
32.345
32.317
32.287
32.256
32.225
32.194
32.161
32.126
32.09
32.054
32.017
31.98
31.943
31.907
31.871
31.836
31.802
31.766
31.731
31.695
31.66
31.625
31.592
31.559
31.527
31.496
31.467
31.438
31.409
31.38
31.35
31.32
31.29
31.262
31.237
31.217
31.203
31.197
31.203
31.223
31.262
31.324
31.41
31.524
31.669
31.846
32.057
32.301
32.579
32.888
33.226
33.59
33.975
34.378
34.793
35.215
35.64
36.064
36.481
36.889
37.282
37.657
38.011
38.342
38.648
38.929
39.183
39.409
39.608
39.78
39.928
40.052
40.154
40.235
40.296
40.339
40.366
40.38
40.383
40.377
40.364
40.346
40.324
40.299
40.271
40.24
40.207
40.172
40.133
40.091
40.044
39.993
39.937
39.877
39.812
39.742
39.668
39.592
39.513
39.432
39.349
39.264
39.178
39.091
39.001
38.911
38.819
38.726
38.634
38.543
38.456
38.37
38.288
38.208
38.133
38.062
37.994
37.931
37.871
37.815
37.764
37.717
37.675
37.637
37.603
37.572
37.543
37.515
37.488
37.461
37.435
37.409
37.383
37.357
37.33
37.301
37.27
37.237
37.202
37.164
37.123
37.078
37.028
36.973
36.915
36.852
36.786
36.716
36.641
36.563
36.482
36.4
36.317
36.233
36.149
36.066
35.983
35.902
35.822
35.743
35.664
35.585
35.505
35.426
35.346
35.267
35.187
35.108
35.03
34.954
34.879
34.807
34.736
34.668
34.6
34.532
34.465
34.397
34.33
34.264
34.198
34.133
34.067
34.001
33.936
33.871
33.809
33.748
33.69
33.635
33.582
33.533
33.485
33.439
33.393
33.348
33.304
33.259
33.216
33.172
33.129
33.085
33.042
32.999
32.958
32.918
32.88
32.842
32.806
32.77
32.736
32.703
32.67
32.637
32.603
32.57
32.538
32.506
32.475
32.444
32.412
32.379
32.346
32.312
32.278
32.244
32.21
32.175
32.139
32.103
32.066
32.029
31.993
31.957
31.923
31.888
31.855
31.822
31.79
31.758
31.727
31.695
31.662
31.629
31.597
31.568
31.544
31.527
31.52
31.528
31.553
31.599
31.671
31.771
31.902
32.064
32.26
32.489
32.751
33.044
33.367
33.715
34.086
34.475
34.878
35.29
35.706
36.122
36.534
36.938
37.329
37.705
38.061
38.395
38.705
38.987
39.242
39.469
39.667
39.838
39.983
40.103
40.199
40.273
40.327
40.363
40.382
40.387
40.378
40.358
40.328
40.289
40.244
40.191
40.132
40.068
40.001
39.931
39.859
39.787
39.714
39.641
39.568
39.495
39.42
39.345
39.268
39.191
39.113
39.033
38.951
38.866
38.777
38.685
38.59
38.492
38.391
38.287
38.181
38.074
37.967
37.863
37.763
37.668
37.581
37.5
37.426
37.358
37.297
37.242
37.193
37.149
37.11
37.075
37.044
37.016
36.991
36.969
36.948
36.928
36.907
36.883
36.858
36.829
36.799
36.766
36.731
36.695
36.657
36.617
36.575
36.53
36.482
36.431
36.377
36.319
36.257
36.193
36.126
36.057
35.988
35.917
35.845
35.772
35.696
35.619
35.541
35.462
35.384
35.305
35.227
35.148
35.068
34.989
34.911
34.833
34.756
34.679
34.602
34.525
34.449
34.374
34.3
34.226
34.152
34.079
34.008
33.939
33.874
33.812
33.752
33.694
33.638
33.585
33.532
33.481
33.428
33.374
33.318
33.262
33.205
33.149
33.093
33.037
32.982
32.928
32.877
32.83
32.785
32.744
32.705
32.667
32.632
32.597
32.564
32.53
32.497
32.464
32.431
32.398
32.364
32.332
32.3
32.268
32.237
32.206
32.176
32.147
32.118
32.09
32.062
32.032
32.001
31.967
31.932
31.896
31.858
31.82
31.78
31.741
31.702
31.665
31.629
31.595
31.563
31.533
31.505
31.478
31.452
31.426
31.4
31.373
31.347
31.322
31.3
31.284
31.279
31.287
31.314
31.363
31.438
31.54
31.674
31.84
32.04
32.275
32.542
32.842
33.172
33.529
33.911
34.315
34.735
35.168
35.609
36.053
36.495
36.93
37.353
37.762
38.15
38.515
38.852
39.161
39.439
39.686
39.903
40.09
40.248
40.377
40.48
40.557
40.611
40.645
40.66
40.66
40.645
40.618
40.581
40.534
40.481
40.421
40.358
40.294
40.23
40.166
40.102
40.038
39.972
39.906
39.838
39.769
39.697
39.623
39.546
39.466
39.383
39.298
39.209
39.118
39.024
38.927
38.826
38.722
38.616
38.51
38.406
38.303
38.202
38.104
38.01
37.921
37.836
37.756
37.68
37.609
37.543
37.48
37.423
37.371
37.324
37.282
37.244
37.209
37.177
37.146
37.116
37.086
37.057
37.028
36.999
36.97
36.94
36.909
36.876
36.84
36.802
36.759
36.713
36.663
36.61
36.555
36.499
36.442
36.385
36.327
36.268
36.209
36.148
36.086
36.02
35.952
35.879
35.803
35.723
35.642
35.56
35.479
35.4
35.322
35.247
35.175
35.104
35.033
34.961
34.886
34.808
34.729
34.649
34.571
34.495
34.421
34.35
34.28
34.211
34.144
34.078
34.012
33.947
33.883
33.82
33.757
33.695
33.633
33.573
33.513
33.452
33.391
33.332
33.275
33.222
33.174
33.129
33.087
33.045
33.002
32.959
32.916
32.871
32.827
32.783
32.742
32.703
32.667
32.636
32.608
32.583
32.558
32.534
32.509
32.482
32.454
32.422
32.389
32.354
32.318
32.282
32.246
32.21
32.174
32.139
32.106
32.075
32.044
32.014
31.984
31.955
31.924
31.893
31.86
31.824
31.787
31.749
31.712
31.677
31.648
31.627
31.616
31.619
31.638
31.677
31.738
31.825
31.939
32.082
32.255
32.46
32.697
32.966
33.268
33.601
33.962
34.349
34.758
35.185
35.623
36.066
36.509
36.945
37.371
37.782
38.174
38.542
38.883
39.197
39.48
39.733
39.956
40.147
40.309
40.442
40.547
40.628
40.685
40.722
40.74
40.742
40.729
40.702
40.665
40.617
40.56
40.497
40.429
40.357
40.281
40.205
40.127
40.048
39.968
39.886
39.804
39.721
39.639
39.556
39.473
39.389
39.304
39.217
39.127
39.034
38.937
38.836
38.732
38.625
38.518
38.41
38.304
38.2
38.099
38.001
37.907
37.815
37.726
37.641
37.559
37.483
37.414
37.351
37.296
37.248
37.207
37.172
37.142
37.115
37.092
37.069
37.047
37.024
37.002
36.98
36.957
36.933
36.907
36.879
36.85
36.819
36.786
36.75
36.712
36.672
36.63
36.585
36.538
36.489
36.437
36.382
36.323
36.258
36.188
36.111
36.03
35.945
35.858
35.77
35.682
35.595
35.509
35.425
35.344
35.264
35.183
35.102
35.02
34.937
34.854
34.77
34.687
34.606
34.527
34.45
34.376
34.305
34.236
34.168
34.103
34.038
33.975
33.911
33.847
33.783
33.719
33.657
33.595
33.537
33.48
33.427
33.378
33.331
33.287
33.245
33.204
33.164
33.124
33.082
33.038
32.993
32.946
32.899
32.852
32.807
32.762
32.72
32.68
32.642
32.606
32.573
32.542
32.511
32.48
32.449
32.417
32.386
32.353
32.32
32.287
32.252
32.217
32.179
32.141
32.101
32.061
32.021
31.981
31.94
31.899
31.858
31.819
31.781
31.746
31.714
31.686
31.664
31.653
31.653
31.671
31.708
31.77
31.859
31.978
32.129
32.313
32.531
32.783
33.068
33.383
33.728
34.098
34.491
34.901
35.325
35.757
36.194
36.63
37.061
37.482
37.888
38.274
38.638
38.975
39.285
39.567
39.82
40.045
40.241
40.407
40.543
40.651
40.732
40.789
40.825
40.842
40.844
40.831
40.807
40.773
40.731
40.681
40.626
40.567
40.505
40.441
40.375
40.307
40.238
40.168
40.096
40.022
39.947
39.871
39.795
39.718
39.64
39.561
39.481
39.399
39.312
39.221
39.124
39.021
38.914
38.804
38.691
38.576
38.459
38.343
38.229
38.118
38.012
37.913
37.819
37.73
37.648
37.571
37.501
37.438
37.382
37.332
37.287
37.248
37.213
37.182
37.151
37.121
37.09
37.057
37.025
36.992
36.958
36.924
36.888
36.85
36.809
36.765
36.717
36.665
36.609
36.549
36.486
36.421
36.354
36.285
36.216
36.145
36.073
35.998
35.921
35.843
35.764
35.682
35.599
35.514
35.427
35.341
35.256
35.171
35.087
35.002
34.919
34.836
34.754
34.672
34.589
34.505
34.421
34.337
34.254
34.173
34.094
34.018
33.945
33.877
33.814
33.755
33.699
33.645
33.592
33.54
33.487
33.435
33.382
33.327
33.272
33.216
33.162
33.108
33.056
33.005
32.956
32.91
32.866
32.825
32.787
32.75
32.714
32.676
32.638
32.599
32.56
32.52
32.479
32.439
32.4
32.364
32.331
32.301
32.275
32.25
32.226
32.202
32.177
32.149
32.119
32.087
32.051
32.014
31.975
31.935
31.894
31.853
31.814
31.776
31.741
31.707
31.673
31.64
31.608
31.576
31.545
31.513
31.48
31.446
31.412
31.379
31.349
31.323
31.305
31.298
31.307
31.336
31.388
31.467
31.574
31.713
31.883
32.086
32.321
32.588
32.887
33.215
33.572
33.954
34.356
34.776
35.209
35.649
36.09
36.527
36.956
37.371
37.768
38.144
38.495
38.82
39.117
39.385
39.624
39.833
40.014
40.166
40.291
40.39
40.465
40.518
40.552
40.57
40.572
40.559
40.534
40.496
40.449
40.396
40.337
40.275
40.21
40.145
40.08
40.014
39.949
39.881
39.813
39.742
39.67
39.596
39.52
39.441
39.36
39.276
39.19
39.101
39.008
38.913
38.817
38.72
38.622
38.525
38.428
38.331
38.237
38.144
38.054
37.968
37.884
37.803
37.724
37.649
37.577
37.509
37.445
37.385
37.329
37.277
37.23
37.187
37.148
37.11
37.075
37.041
37.007
36.975
36.943
36.911
36.878
36.844
36.808
36.77
36.73
36.687
36.641
36.593
36.541
36.487
36.431
36.374
36.315
36.255
36.192
36.127
36.057
35.983
35.906
35.825
35.743
35.66
35.577
35.495
35.414
35.335
35.256
35.18
35.105
