Trial 3:3back
34.757
34.745
34.732
34.719
34.703
34.686
34.667
34.648
34.63
34.614
34.598
34.581
34.563
34.542
34.52
34.496
34.471
34.445
34.419
34.393
34.369
34.348
34.33
34.316
34.305
34.297
34.292
34.29
34.289
34.289
34.291
34.293
34.294
34.295
34.296
34.294
34.289
34.28
34.267
34.251
34.233
34.213
34.193
34.171
34.146
34.12
34.092
34.063
34.034
34.006
33.98
33.958
33.937
33.918
33.899
33.881
33.862
33.841
33.819
33.795
33.771
33.747
33.725
33.706
33.691
33.681
33.677
33.682
33.696
33.72
33.755
33.803
33.864
33.939
34.028
34.131
34.248
34.376
34.514
34.661
34.814
34.972
35.133
35.293
35.45
35.602
35.747
35.883
36.009
36.126
36.232
36.327
36.411
36.484
36.548
36.602
36.646
36.683
36.713
36.735
36.751
36.76
36.764
36.763
36.757
36.749
36.737
36.721
36.703
36.683
36.659
36.633
36.605
36.576
36.545
36.514
36.48
36.445
36.408
36.37
36.332
36.293
36.255
36.217
36.18
36.143
36.107
36.072
36.037
36.003
35.969
35.936
35.902
35.869
35.835
35.802
35.769
35.738
35.707
35.679
35.652
35.628
35.606
35.586
35.569
35.555
35.543
35.534
35.528
35.523
35.52
35.52
35.521
35.524
35.529
35.535
35.542
35.549
35.558
35.567
35.578
35.589
35.601
35.612
35.622
35.63
35.635
35.637
35.637
35.633
35.625
35.614
35.597
35.573
35.544
35.511
35.474
35.437
35.399
35.362
35.325
35.289
35.253
35.219
35.186
35.155
35.126
35.099
35.073
35.048
35.022
34.996
34.97
34.943
34.916
34.888
34.858
34.827
34.795
34.761
34.727
34.694
34.662
34.631
34.602
34.572
34.543
34.515
34.487
34.46
34.433
34.408
34.383
34.359
34.336
34.314
34.293
34.273
34.255
34.238
34.22
34.204
34.187
34.17
34.154
34.14
34.128
34.119
34.112
34.106
34.102
34.099
34.097
34.093
34.089
34.084
34.077
34.068
34.058
34.046
34.034
34.023
34.012
34.002
33.992
33.984
33.975
33.967
33.958
33.949
33.939
33.927
33.914
33.899
33.882
33.865
33.846
33.828
33.809
33.79
33.771
33.752
33.733
33.713
33.692
33.672
33.652
33.633
33.616
33.6
33.584
33.57
33.556
33.545
33.536
33.53
33.527
33.527
33.532
33.544
33.563
33.593
33.634
33.687
33.754
33.835
33.928
34.034
34.153
34.283
34.422
34.569
34.72
34.874
35.029
35.182
35.332
35.477
35.615
35.745
35.865
35.973
36.071
36.158
36.234
36.301
36.359
36.409
36.452
36.486
36.514
36.535
36.55
36.561
36.569
36.574
36.577
36.577
36.575
36.57
36.562
36.55
36.535
36.515
36.492
36.466
36.437
36.406
36.374
36.342
36.309
36.277
36.244
36.211
36.176
36.14
36.103
36.065
36.028
35.992
35.957
35.922
35.888
35.856
35.825
35.796
35.77
35.745
35.723
35.704
35.688
35.674
35.663
35.654
35.646
35.641
35.639
35.64
35.645
35.652
35.663
35.679
35.698
35.72
35.746
35.772
35.8
35.829
35.859
35.892
35.928
35.966
36.004
36.042
36.078
36.112
36.141
36.164
36.182
36.192
36.194
36.189
36.176
36.156
36.129
36.096
36.056
36.011
35.962
35.909
35.853
35.796
35.739
35.682
35.627
35.575
35.526
35.479
35.434
35.392
35.351
35.312
35.274
35.238
35.202
35.168
35.133
35.1
35.066
35.031
34.996
34.96
34.924
34.888
34.853
34.818
34.785
34.752
34.72
34.69
34.662
34.636
34.613
34.592
34.574
34.56
34.549
34.541
34.535
34.532
34.53
34.529
34.529
34.532
34.537
34.543
34.55
34.556
34.562
34.567
34.569
34.569
34.567
34.562
34.554
34.544
34.532
34.517
34.501
34.483
34.464
34.444
34.424
34.403
34.383
34.365
34.349
34.334
34.321
34.307
34.293
34.277
34.259
34.238
34.216
34.192
34.168
34.144
34.12
34.097
34.074
34.052
34.032
34.012
33.994
33.976
33.957
33.936
33.915
33.892
33.871
33.853
33.84
33.832
33.831
33.838
33.855
33.882
33.919
33.968
34.029
34.102
34.186
34.282
34.387
34.503
34.626
34.756
34.89
35.026
35.163
35.297
35.426
35.55
35.667
35.777
35.88
35.976
36.064
36.144
36.213
36.272
36.322
36.363
36.395
36.42
36.44
36.456
36.467
36.472
36.473
36.467
36.455
36.436
36.412
36.381
36.346
36.307
36.266
36.223
36.181
36.14
36.099
36.06
36.021
35.984
35.948
35.913
35.878
35.844
35.81
35.776
35.741
35.706
35.67
35.634
35.596
35.558
35.52
35.483
35.447
35.412
35.381
35.353
35.33
35.311
35.297
35.286
35.28
35.278
35.279
35.284
35.292
35.304
35.319
35.335
35.353
35.372
35.392
35.413
35.433
35.453
35.471
35.488
35.503
35.516
35.526
35.535
35.542
35.548
35.552
35.554
35.553
35.55
35.543
35.532
35.518
35.501
35.48
35.456
35.428
35.397
35.364
35.329
35.294
35.258
35.223
35.188
35.155
35.124
35.095
35.067
35.04
35.014
34.988
34.963
34.938
34.914
34.891
34.87
34.852
34.836
34.821
34.806
34.79
34.773
34.755
34.735
34.715
34.694
34.671
34.647
34.62
34.592
34.564
34.536
34.51
34.487
34.466
34.448
34.432
34.419
34.407
34.397
34.387
34.378
34.368
34.358
34.35
34.342
34.336
34.33
34.323
34.316
34.307
34.297
34.286
34.274
34.262
34.25
34.238
34.225
34.212
34.197
34.182
34.165
34.147
34.129
34.112
34.095
34.08
34.065
34.049
34.032
34.015
33.998
33.98
33.962
33.944
33.925
33.906
33.886
33.867
33.849
33.832
33.816
33.801
33.788
33.776
33.765
33.756
33.749
33.743
33.739
33.736
33.735
33.737
33.742
33.751
33.764
33.784
33.81
33.844
33.886
33.938
33.999
34.071
34.154
34.248
34.354
34.47
34.596
34.728
34.866
35.009
35.153
35.298
35.442
35.585
35.723
35.856
35.983
36.101
36.21
36.308
36.394
36.469
36.531
36.58
36.618
36.645
36.663
36.673
36.674
36.668
36.654
36.633
36.604
36.57
36.532
36.491
36.45
36.41
36.372
36.337
36.306
36.279
36.257
36.238
36.22
36.204
36.187
36.171
36.153
36.134
36.114
36.093
36.071
36.047
36.021
35.991
35.957
35.92
35.882
35.843
35.805
35.769
35.734
35.702
35.672
35.645
35.622
35.603
35.588
35.576
35.567
35.56
35.556
35.553
35.554
35.556
35.562
35.57
35.579
35.591
35.603
35.617
35.63
35.644
35.655
35.664
35.671
35.675
35.678
35.68
35.68
35.679
35.676
35.672
35.667
35.66
35.651
35.639
35.625
35.608
35.588
35.565
35.538
35.507
35.473
35.438
35.401
35.363
35.327
35.293
35.259
35.228
35.198
35.169
35.141
35.115
35.09
35.066
35.044
35.023
35.004
34.986
34.97
34.955
34.942
34.929
34.916
34.903
34.889
34.874
34.857
34.838
34.818
34.797
34.774
34.75
34.724
34.698
34.673
34.648
34.624
34.601
34.579
34.558
34.539
34.521
34.505
34.491
34.478
34.466
34.454
34.443
34.432
34.421
34.411
34.401
34.393
34.386
34.379
34.372
34.365
34.357
34.351
34.348
34.348
34.35
34.354
34.36
34.365
34.37
34.373
34.373
34.37
34.365
34.356
34.344
34.33
34.313
34.295
34.276
34.254
34.231
34.207
34.181
34.154
34.127
34.1
34.074
34.05
34.027
34.007
33.987
33.968
33.948
33.929
33.911
33.893
33.877
33.86
33.845
33.83
33.816
33.805
33.796
33.79
33.788
33.79
33.795
33.805
33.82
33.842
33.873
33.913
33.963
34.023
34.096
34.18
34.275
34.382
34.5
34.627
34.76
34.899
35.039
35.18
35.32
35.456
35.588
35.714
35.833
35.944
36.046
36.139
36.22
36.292
36.355
36.409
36.454
36.491
36.52
36.541
36.555
36.563
36.565
36.562
36.555
36.545
36.532
36.517
36.501
36.483
36.465
36.447
36.43
36.414
36.398
36.382
36.366
36.35
36.334
36.319
36.304
36.29
36.274
36.258
36.24
36.221
36.201
36.18
36.159
36.136
36.112
36.087
36.061
36.034
36.007
35.978
35.948
35.918
35.887
35.858
35.829
35.8
35.772
35.745
35.718
35.692
35.668
35.646
35.627
35.611
35.598
35.588
35.581
35.578
35.577
35.578
35.581
35.585
35.591
35.598
35.606
35.614
35.623
35.631
35.639
35.645
35.651
35.654
35.655
35.653
35.648
35.64
35.629
35.613
35.593
35.568
35.54
35.508
35.473
35.436
35.397
35.356
35.313
35.269
35.225
35.181
35.136
35.092
35.048
35.006
34.966
34.931
34.899
34.871
34.848
34.827
34.809
34.792
34.778
34.766
34.756
34.746
34.737
34.728
34.719
34.709
34.699
34.688
34.677
34.665
34.653
34.641
34.628
34.613
34.597
34.58
34.561
34.54
34.518
34.494
34.469
34.444
34.42
34.397
34.377
34.359
34.343
34.327
34.313
34.3
34.289
34.28
34.274
34.27
34.267
34.266
34.266
34.265
34.264
34.262
34.259
34.255
34.249
34.243
34.236
34.228
34.22
34.211
34.202
34.193
34.182
34.172
34.161
34.151
34.141
34.134
34.13
34.128
34.127
34.126
34.122
34.114
34.102
34.085
34.064
34.039
34.011
33.979
33.944
33.908
33.87
33.834
33.801
33.771
33.746
33.725
33.708
33.695
33.686
33.68
33.678
33.679
33.683
33.69
33.701
33.716
33.736
33.761
33.793
33.834
33.884
33.944
34.014
34.093
34.182
34.28
34.387
34.501
34.622
34.747
34.875
35.004
35.132
35.259
35.383
35.503
35.617
35.725
35.825
35.917
35.999
36.073
36.139
36.196
36.244
36.282
36.31
36.331
36.344
36.35
36.352
36.35
36.345
36.337
36.326
36.313
36.297
36.278
36.257
36.234
36.21
36.186
36.16
36.135
36.109
36.086
36.066
36.049
36.033
36.016
35.999
35.98
35.958
35.935
35.91
35.884
35.856
35.827
35.798
35.767
35.737
35.706
35.676
35.646
35.619
35.593
35.569
35.546
35.526
35.51
35.498
35.489
35.483
35.48
35.48
35.484
35.49
35.5
35.513
35.53
35.55
35.573
35.597
35.623
35.649
35.674
35.7
35.723
35.745
35.763
35.778
35.788
35.795
35.799
35.801
35.8
35.797
35.792
35.784
35.773
35.761
35.749
35.736
35.723
35.71
35.697
35.683
35.668
35.652
35.635
35.616
35.595
35.572
35.545
35.516
35.483
35.448
35.41
35.37
35.329
35.287
35.244
35.199
35.155
35.112
35.069
35.03
34.993
34.96
34.93
34.904
34.881
34.862
34.847
34.835
34.825
34.818
34.811
34.804
34.796
34.786
34.775
34.762
34.749
34.735
34.721
34.709
34.698
34.69
34.684
34.68
34.678
34.677
34.676
34.674
34.67
34.665
34.659
34.653
34.648
34.643
34.639
34.634
34.627
34.618
34.607
34.593
34.577
34.56
34.541
34.522
34.502
34.483
34.466
34.452
34.44
34.431
34.423
34.418
34.413
34.408
34.404
34.398
34.391
34.382
34.371
34.357
34.341
34.323
34.304
34.285
34.265
34.245
34.223
34.201
34.18
34.159
34.14
34.125
34.116
34.113
34.118
34.132
34.154
34.187
34.233
34.292
34.365
34.452
34.551
34.662
34.782
34.91
35.045
35.184
35.325
35.467
35.606
35.74
35.868
35.989
36.102
36.205
36.299
36.383
36.459
36.525
36.583
36.631
36.67
36.701
36.724
36.738
36.744
36.742
36.733
36.717
36.696
36.673
36.648
36.623
36.597
36.572
36.546
36.52
36.494
36.469
36.446
36.424
36.403
36.384
36.365
36.347
36.329
36.309
36.288
36.264
36.238
36.209
36.179
36.147
36.115
36.084
36.053
36.023
35.994
35.966
35.938
35.912
35.889
35.869
35.853
35.841
35.833
35.828
35.826
35.827
35.831
35.838
35.846
35.856
35.867
35.877
35.887
35.897
35.905
35.912
35.917
35.921
35.925
35.929
35.933
35.935
35.936
35.936
35.933
35.927
35.919
35.905
35.888
35.867
35.842
35.816
35.788
35.758
35.724
35.686
35.646
35.606
35.566
35.528
35.493
35.46
35.431
35.406
35.386
35.369
35.355
35.343
35.332
35.322
35.31
35.297
35.281
35.262
35.24
35.216
35.19
35.163
35.135
35.106
35.077
35.047
35.017
34.988
34.96
34.933
34.907
34.881
34.856
34.831
34.809
34.789
34.772
34.757
34.744
34.732
34.721
34.71
34.7
34.689
34.679
34.669
34.659
34.648
34.639
34.629
34.621
34.614
34.608
34.602
34.597
34.591
34.584
34.576
34.568
34.562
34.556
34.55
34.545
34.54
34.533
34.525
34.515
34.503
34.491
34.477
34.461
34.445
34.427
34.408
34.391
34.374
34.36
34.347
34.335
34.325
34.317
34.308
34.301
34.293
34.286
34.278
34.27
34.26
34.25
34.238
34.225
34.212
34.199
34.186
34.172
34.157
34.141
34.125
34.109
34.094
34.082
34.075
34.073
34.078
34.089
34.107
34.129
34.156
34.188
34.225
34.269
34.322
34.385
34.459
34.545
34.642
34.75
34.867
34.993
35.126
35.263
35.403
35.545
35.686
35.824
35.957
36.083
36.201
36.308
36.405
36.489
36.563
36.628
36.682
36.725
36.758
36.781
36.792
36.794
36.786
36.77
36.745
36.714
36.678
36.637
36.594
36.55
36.507
36.466
36.429
36.395
36.365
36.338
36.314
36.293
36.274
36.257
36.24
36.222
36.203
36.18
36.155
36.127
36.096
36.064
36.031
35.996
35.962
35.928
35.895
35.863
35.833
35.805
35.78
35.757
35.737
35.719
35.704
35.693
35.686
35.683
35.685
35.691
35.7
35.711
35.724
35.738
35.753
35.769
35.785
35.8
35.812
35.821
35.828
35.832
35.833
35.831
35.827
35.82
35.81
35.798
35.784
35.769
35.753
35.737
35.721
35.703
35.685
35.665
35.645
35.624
35.603
35.583
35.563
35.543
35.522
35.501
35.477
35.453
35.428
35.402
35.376
35.348
35.317
35.285
35.25
35.214
35.177
35.143
35.111
35.083
35.058
35.037
35.018
34.999
34.981
34.963
34.943
34.923
34.902
34.88
34.857
34.834
34.81
34.786
34.761
34.737
34.712
34.689
34.667
34.646
34.628
34.613
34.6
34.59
34.581
34.572
34.564
34.556
34.549
34.542
34.538
34.534
34.53
34.526
34.521
34.515
34.509
34.501
34.492
34.481
34.47
34.457
34.445
34.433
34.422
34.41
34.399
34.388
34.377
34.366
34.356
34.346
34.336
34.327
34.318
34.308
34.299
34.288
34.276
34.263
34.25
34.237
34.223
34.21
34.197
34.184
34.169
34.153
34.136
34.119
34.103
34.086
34.07
34.053
34.035
34.018
34.001
33.985
33.971
33.958
33.946
33.936
33.927
33.919
33.913
33.91
33.909
33.913
33.921
33.935
33.955
33.984
34.021
34.069
34.127
34.197
34.279
34.373
34.478
34.594
34.719
34.852
34.991
35.133
35.277
35.418
35.556
35.688
35.813
35.931
36.04
36.141
36.234
36.318
36.394
36.462
36.521
36.571
36.611
36.642
36.663
36.674
36.676
36.67
36.657
36.638
36.613
36.584
36.55
36.513
36.474
36.432
36.39
36.347
36.306
36.266
36.226
36.188
36.152
36.117
36.085
36.056
36.03
36.006
35.985
35.964
35.943
35.922
35.899
35.874
35.847
35.817
35.786
35.753
35.719
35.684
35.651
35.618
35.587
35.559
35.534
35.511
35.492
35.476
35.465
35.458
35.456
35.459
35.467
35.479
35.494
35.511
35.532
35.556
35.582
35.609
35.636
35.662
35.685
35.706
35.723
35.736
35.746
35.752
35.755
35.754
35.75
35.744
35.736
35.725
35.711
35.695
35.675
35.652
35.625
35.597
35.568
35.54
35.514
35.49
35.467
35.445
35.423
35.401
35.379
35.356
35.333
35.31
35.285
35.259
35.233
35.206
35.179
35.152
35.127
35.103
35.08
35.059
35.038
35.017
34.995
34.972
34.949
34.925
34.901
34.875
34.849
34.823
34.797
34.772
34.749
34.728
34.709
34.691
34.674
34.659
34.645
34.632
34.621
34.612
34.603
34.596
34.59
34.586
34.585
34.586
34.588
34.593
34.599
34.605
34.611
34.615
34.618
34.62
34.62
34.62
34.618
34.615
34.61
34.603
34.595
34.584
34.572
34.559
34.545
34.531
34.516
34.501
34.486
34.471
34.456
34.443
34.431
34.419
34.407
34.396
34.385
34.374
34.365
34.357
34.35
34.345
34.34
34.337
34.336
34.338
34.344
34.356
34.374
34.398
34.429
34.468
34.516
34.573
34.641
34.719
34.808
34.907
35.013
35.127
35.247
35.372
35.499
35.626
35.753
35.876
35.994
36.107
36.212
36.309
36.399
36.482
36.558
36.628
36.692
36.752
36.807
36.857
36.903
36.942
36.974
37.0
37.018
37.029
37.032
37.028
37.019
37.006
36.988
36.966
36.939
36.909
36.876
36.842
36.807
36.774
36.741
36.708
36.677
36.646
36.615
36.584
36.554
36.523
36.491
36.457
36.422
36.384
36.344
36.304
36.264
36.225
36.188
36.152
36.119
36.088
36.059
36.034
36.011
35.993
35.978
35.965
35.955
35.947
35.941
35.938
35.939
35.944
35.952
35.963
35.975
35.988
36.003
36.018
36.034
36.049
36.064
36.078
36.09
36.101
36.11
36.116
36.119
36.12
36.117
36.112
36.103
36.09
36.075
36.057
36.037
36.016
35.993
35.968
35.94
35.91
35.879
35.846
35.814
35.783
35.752
35.722
35.692
35.664
35.636
35.61
35.584
35.56
35.535
35.51
35.485
35.46
35.434
35.407
35.38
35.351
35.323
35.294
35.265
35.237
35.208
35.18
35.152
35.123
35.095
35.067
35.039
35.011
34.985
34.96
34.937
34.916
34.898
34.88
34.862
34.843
34.825
34.807
34.79
34.776
34.764
34.753
34.744
34.736
34.727
34.719
34.71
34.702
34.695
34.689
34.684
34.681
34.681
34.682
34.684
34.687
34.688
34.688
34.686
34.682
34.675
34.666
34.654
34.64
34.625
34.61
34.596
34.583
34.572
34.567
34.569
34.575
34.583
34.59
34.595
34.593
34.583
34.565
34.54
34.508
34.472
34.433
34.394
34.358
34.325
34.3
34.285
34.282
34.293
34.32
34.363
34.422
34.499
34.594
34.705
34.83
34.968
35.117
35.273
35.434
35.598
35.761
35.923
36.081
36.233
36.377
36.512
36.636
36.749
36.849
36.939
37.017
37.084
37.141
37.189
37.227
37.257
37.279
37.294
37.304
37.309
37.309
37.306
37.3
37.291
37.28
37.267
37.253
37.237
37.221
37.202
37.182
37.159
37.134
37.107
37.079
37.049
37.017
36.983
36.949
36.914
36.88
36.847
36.815
36.783
36.752
36.72
36.689
36.657
36.625
36.593
36.562
36.532
36.504
36.478
36.453
36.431
36.411
36.395
36.381
36.37
36.361
36.356
36.353
36.352
36.352
36.352
36.353
36.354
36.354
36.352
36.349
36.344
36.34
36.337
36.337
36.338
36.34
36.343
36.344
36.343
36.338
36.331
36.321
36.309
36.296
36.282
36.267
36.252
36.236
36.221
36.205
36.189
36.172
36.152
36.131
36.107
36.08
36.051
36.02
35.986
35.952
35.916
35.88
35.844
35.81
35.776
35.744
35.713
35.684
35.655
35.627
35.6
35.573
35.546
35.521
35.496
35.472
35.448
35.424
35.401
35.378
35.356
35.333
35.31
35.287
35.261
35.233
35.203
35.172
35.141
35.109
35.078
35.049
35.02
34.994
34.969
34.946
34.924
34.905
34.886
34.87
34.854
34.839
34.826
34.815
34.806
34.799
34.795
34.792
34.789
34.786
34.782
34.777
34.771
34.765
34.757
34.75
34.741
34.733
34.724
34.715
34.706
34.697
34.687
34.676
34.662
34.646
34.627
34.606
34.582
34.557
34.53
34.502
34.473
34.444
34.415
34.387
34.36
34.335
34.313
34.294
34.28
34.27
34.266
34.268
34.277
34.295
34.322
34.359
34.407
34.466
34.535
34.614
34.705
34.806
34.917
35.037
35.165
35.298
35.435
35.574
35.714
35.854
35.993
36.127
36.257
36.382
36.5
36.611
36.714
36.81
36.897
36.977
37.053
37.125
37.193
37.253
37.306
37.349
37.381
37.402
37.411
37.407
37.394
37.37
37.34
37.306
37.268
37.229
37.189
37.15
37.113
37.078
37.046
37.016
36.987
36.958
36.929
36.899
36.867
36.834
36.799
36.763
36.726
36.687
36.648
36.609
36.569
36.529
36.49
36.451
36.414
36.378
36.342
36.307
36.272
36.239
36.208
36.181
36.157
36.137
36.121
36.108
36.098
36.09
36.085
36.081
36.079
36.077
36.076
36.076
36.076
36.077
36.078
36.079
36.08
36.08
36.08
36.078
36.076
36.074
36.072
36.07
36.067
36.064
36.058
36.051
36.041
36.029
36.015
36.0
35.983
35.964
35.942
35.917
35.888
35.855
35.82
35.783
35.743
35.703
35.661
35.619
35.577
35.535
35.495
35.456
35.419
35.384
35.351
35.321
35.292
35.266
35.241
35.219
35.197
35.176
35.155
35.134
35.112
35.091
35.069
35.048
35.026
35.004
34.981
34.956
34.93
34.904
34.877
34.85
34.823
34.795
34.767
34.738
34.709
34.682
34.656
34.631
34.607
34.584
34.562
34.543
34.526
34.512
34.5
34.491
34.483
34.477
34.472
34.467
34.462
34.457
34.451
34.445
34.441
34.437
34.434
34.431
34.428
34.424
34.419
34.413
34.406
34.396
34.385
34.372
34.355
34.337
34.316
34.294
34.27
34.246
34.221
34.194
34.165
34.135
34.104
34.075
34.046
34.02
33.996
33.974
33.955
33.94
33.928
33.92
33.915
33.915
33.919
33.929
33.945
33.969
34.0
34.042
