Trial 3:3back
35.578
35.581
35.584
35.584
35.583
35.579
35.572
35.561
35.547
35.529
35.508
35.486
35.46
35.432
35.403
35.372
35.341
35.31
35.277
35.243
35.206
35.167
35.126
35.083
35.039
34.997
34.955
34.914
34.875
34.839
34.804
34.772
34.743
34.716
34.692
34.669
34.649
34.63
34.612
34.596
34.581
34.567
34.552
34.538
34.524
34.509
34.493
34.476
34.46
34.443
34.427
34.411
34.396
34.38
34.365
34.349
34.335
34.321
34.309
34.3
34.291
34.284
34.276
34.269
34.261
34.255
34.249
34.242
34.235
34.225
34.212
34.197
34.179
34.16
34.14
34.119
34.099
34.079
34.059
34.041
34.024
34.009
33.996
33.985
33.974
33.963
33.953
33.942
33.93
33.918
33.905
33.892
33.878
33.864
33.849
33.834
33.818
33.803
33.788
33.773
33.759
33.746
33.733
33.721
33.712
33.708
33.711
33.723
33.746
33.778
33.82
33.872
33.935
34.008
34.092
34.187
34.291
34.404
34.525
34.653
34.786
34.924
35.065
35.209
35.353
35.496
35.637
35.775
35.908
36.036
36.159
36.274
36.381
36.48
36.569
36.651
36.723
36.787
36.842
36.89
36.931
36.963
36.988
37.006
37.016
37.019
37.016
37.008
36.995
36.978
36.959
36.938
36.917
36.896
36.875
36.854
36.833
36.812
36.791
36.768
36.744
36.719
36.692
36.664
36.635
36.604
36.571
36.537
36.502
36.467
36.431
36.397
36.364
36.331
36.3
36.271
36.242
36.215
36.189
36.165
36.142
36.122
36.104
36.088
36.075
36.064
36.057
36.053
36.051
36.051
36.053
36.056
36.059
36.062
36.065
36.068
36.071
36.074
36.076
36.076
36.076
36.074
36.072
36.069
36.065
36.062
36.057
36.05
36.041
36.03
36.017
36.002
35.985
35.965
35.945
35.922
35.899
35.876
35.853
35.83
35.807
35.785
35.763
35.741
35.718
35.695
35.673
35.65
35.627
35.603
35.578
35.551
35.522
35.491
35.457
35.42
35.382
35.341
35.299
35.256
35.213
35.169
35.128
35.089
35.054
35.021
34.99
34.961
34.934
34.91
34.889
34.872
34.858
34.846
34.834
34.821
34.807
34.791
34.773
34.752
34.727
34.701
34.672
34.643
34.612
34.582
34.554
34.527
34.502
34.48
34.462
34.447
34.435
34.428
34.423
34.422
34.422
34.422
34.423
34.422
34.418
34.411
34.401
34.388
34.374
34.36
34.344
34.327
34.308
34.287
34.264
34.242
34.219
34.198
34.177
34.158
34.141
34.125
34.111
34.099
34.089
34.078
34.068
34.057
34.045
34.031
34.015
33.997
33.976
33.953
33.929
33.903
33.876
33.849
33.824
33.8
33.779
33.762
33.747
33.736
33.727
33.72
33.716
33.715
33.717
33.723
33.733
33.748
33.768
33.793
33.825
33.864
33.912
33.972
34.044
34.129
34.227
34.336
34.456
34.587
34.727
34.877
35.034
35.197
35.364
35.533
35.7
35.865
36.025
36.178
36.321
36.455
36.577
36.688
36.785
36.87
36.943
37.003
37.052
37.091
37.119
37.139
37.15
37.155
37.155
37.15
37.142
37.131
37.117
37.098
37.076
37.051
37.025
36.999
36.975
36.952
36.931
36.913
36.897
36.883
36.869
36.854
36.839
36.822
36.801
36.777
36.75
36.718
36.681
36.64
36.593
36.543
36.489
36.433
36.377
36.322
36.269
36.221
36.177
36.138
36.105
36.075
36.049
36.025
36.005
35.99
35.981
35.977
35.978
35.983
35.991
36.001
36.015
36.03
36.047
36.066
36.086
36.105
36.124
36.141
36.158
36.173
36.186
36.197
36.203
36.206
36.205
36.199
36.19
36.177
36.16
36.141
36.118
36.092
36.063
36.031
35.996
35.958
35.919
35.879
35.839
35.798
35.757
35.717
35.677
35.639
35.603
35.569
35.538
35.508
35.479
35.45
35.423
35.398
35.373
35.35
35.328
35.307
35.287
35.269
35.25
35.231
35.209
35.185
35.158
35.129
35.098
35.064
35.029
34.994
34.96
34.925
34.892
34.858
34.825
34.794
34.763
34.734
34.707
34.682
34.659
34.636
34.614
34.592
34.57
34.55
34.533
34.518
34.505
34.495
34.486
34.478
34.472
34.468
34.466
34.466
34.467
34.47
34.473
34.476
34.478
34.478
34.479
34.481
34.484
34.488
34.492
34.494
34.494
34.491
34.485
34.474
34.46
34.439
34.412
34.38
34.343
34.303
34.263
34.222
34.183
34.147
34.113
34.083
34.056
34.03
34.001
33.969
33.934
33.897
33.861
33.828
33.798
33.773
33.753
33.738
33.727
33.72
33.715
33.712
33.71
33.71
33.714
33.723
33.738
33.76
33.789
33.824
33.865
33.912
33.967
34.03
34.101
34.181
34.27
34.368
34.476
34.592
34.717
34.849
34.987
35.131
35.279
35.43
35.582
35.734
35.883
36.029
36.17
36.305
36.431
36.548
36.654
36.748
36.83
36.901
36.959
37.007
37.044
37.071
37.088
37.098
37.1
37.097
37.088
37.075
37.058
37.037
37.013
36.985
36.955
36.924
36.891
36.859
36.826
36.793
36.76
36.727
36.695
36.662
36.63
36.597
36.563
36.527
36.489
36.447
36.403
36.357
36.31
36.263
36.216
36.172
36.131
36.093
36.06
36.03
36.005
35.983
35.964
35.948
35.932
35.918
35.905
35.893
35.885
35.88
35.878
35.878
35.881
35.886
35.893
35.901
35.91
35.919
35.928
35.936
35.943
35.948
35.952
35.956
35.959
35.963
35.968
35.974
35.981
35.987
35.993
35.996
35.996
35.994
35.988
35.98
35.968
35.953
35.935
35.915
35.894
35.871
35.846
35.821
35.794
35.765
35.734
35.702
35.669
35.635
35.601
35.564
35.524
35.481
35.435
35.387
35.338
35.289
35.242
35.195
35.15
35.106
35.065
35.025
34.989
34.955
34.923
34.894
34.866
34.84
34.815
34.791
34.769
34.749
34.729
34.711
34.694
34.679
34.665
34.652
34.642
34.632
34.623
34.614
34.605
34.595
34.584
34.572
34.559
34.545
34.531
34.516
34.5
34.484
34.467
34.45
34.434
34.419
34.404
34.391
34.378
34.365
34.353
34.34
34.33
34.321
34.316
34.313
34.312
34.312
34.311
34.309
34.305
34.299
34.29
34.279
34.265
34.249
34.231
34.213
34.194
34.175
34.156
34.137
34.118
34.099
34.079
34.06
34.039
34.019
33.997
33.976
33.954
33.933
33.912
33.891
33.871
33.85
33.829
33.809
33.789
33.77
33.752
33.738
33.729
33.728
33.735
33.753
33.782
33.825
33.88
33.949
34.032
34.13
34.243
34.372
34.517
34.674
34.843
35.02
35.203
35.39
35.579
35.768
35.954
36.137
36.315
36.486
36.648
36.799
36.94
37.069
37.186
37.291
37.384
37.465
37.534
37.593
37.641
37.68
37.709
37.728
37.737
37.739
37.733
37.722
37.707
37.688
37.667
37.642
37.615
37.586
37.556
37.527
37.498
37.471
37.445
37.42
37.397
37.375
37.353
37.331
37.309
37.286
37.261
37.234
37.204
37.173
37.138
37.101
37.061
37.02
36.976
36.93
36.884
36.836
36.79
36.744
36.701
36.66
36.623
36.588
36.557
36.531
36.508
36.49
36.479
36.472
36.472
36.476
36.485
36.498
36.513
36.53
36.548
36.566
36.584
36.602
36.619
36.636
36.652
36.667
36.68
36.691
36.699
36.703
36.704
36.7
36.691
36.678
36.66
36.638
36.612
36.58
36.545
36.505
36.462
36.418
36.372
36.325
36.278
36.231
36.183
36.135
36.087
36.039
35.992
35.947
35.904
35.863
35.824
35.787
35.753
35.721
35.69
35.659
35.63
35.601
35.572
35.545
35.52
35.497
35.478
35.461
35.448
35.435
35.421
35.405
35.386
35.363
35.338
35.309
35.279
35.247
35.214
35.179
35.143
35.105
35.066
35.026
34.986
34.946
34.908
34.871
34.836
34.804
34.775
34.751
34.73
34.711
34.695
34.679
34.663
34.646
34.628
34.605
34.576
34.542
34.506
34.469
34.435
34.404
34.379
34.36
34.347
34.34
34.338
34.339
34.342
34.345
34.349
34.352
34.355
34.356
34.354
34.349
34.34
34.327
34.311
34.292
34.271
34.248
34.224
34.2
34.175
34.15
34.126
34.103
34.08
34.057
34.035
34.012
33.99
33.968
33.946
33.926
33.907
33.892
33.879
33.871
33.868
33.871
33.883
33.906
33.941
33.99
34.056
34.138
34.238
34.352
34.481
34.621
34.771
34.929
35.093
35.26
35.429
35.598
35.765
35.928
36.088
36.242
36.389
36.529
36.659
36.78
36.891
36.991
37.081
37.159
37.227
37.284
37.332
37.37
37.4
37.423
37.441
37.453
37.461
37.465
37.464
37.459
37.449
37.435
37.417
37.395
37.369
37.34
37.309
37.275
37.24
37.205
37.169
37.134
37.099
37.064
37.029
36.993
36.956
36.918
36.879
36.839
36.798
36.757
36.715
36.674
36.634
36.596
36.558
36.522
36.488
36.456
36.426
36.398
36.372
36.349
36.33
36.314
36.302
36.294
36.288
36.283
36.28
36.278
36.277
36.277
36.278
36.278
36.278
36.276
36.273
36.27
36.265
36.261
36.255
36.249
36.242
36.235
36.227
36.219
36.212
36.204
36.195
36.182
36.162
36.137
36.108
36.076
36.045
36.016
35.99
35.966
35.943
35.923
35.902
35.882
35.86
35.835
35.807
35.775
35.741
35.702
35.66
35.617
35.573
35.529
35.486
35.445
35.405
35.364
35.323
35.282
35.242
35.203
35.165
35.128
35.091
35.056
35.023
34.991
34.96
34.932
34.905
34.878
34.853
34.827
34.801
34.775
34.747
34.719
34.691
34.663
34.636
34.61
34.587
34.565
34.545
34.528
34.512
34.497
34.484
34.47
34.457
34.444
34.432
34.42
34.409
34.399
34.39
34.38
34.368
34.353
34.338
34.322
34.307
34.293
34.281
34.27
34.259
34.249
34.239
34.229
34.219
34.208
34.197
34.184
34.17
34.155
34.139
34.123
34.107
34.089
34.072
34.053
34.034
34.015
33.995
33.975
33.955
33.933
33.91
33.886
33.86
33.833
33.805
33.777
33.75
33.724
33.701
33.678
33.656
33.635
33.613
33.592
33.57
33.548
33.525
33.503
33.481
33.461
33.443
33.43
33.422
33.422
33.431
33.452
33.486
33.531
33.59
33.662
33.749
33.852
33.97
34.104
34.253
34.413
34.582
34.759
34.942
35.129
35.317
35.506
35.693
35.875
36.051
36.218
36.374
36.518
36.648
36.766
36.869
36.96
37.038
37.104
37.158
37.201
37.233
37.257
37.271
37.277
37.275
37.267
37.253
37.235
37.213
37.191
37.168
37.144
37.119
37.093
37.067
37.041
37.014
36.988
36.96
36.93
36.897
36.863
36.825
36.786
36.744
36.7
36.653
36.605
36.555
36.504
36.452
36.4
36.349
36.3
36.253
36.21
36.172
36.14
36.113
36.093
36.079
36.07
36.064
36.062
36.062
36.064
36.068
36.073
36.079
36.086
36.093
36.1
36.106
36.112
36.118
36.124
36.132
36.14
36.148
36.156
36.164
36.173
36.181
36.188
36.193
36.196
36.197
36.195
36.19
36.18
36.167
36.152
36.134
36.114
36.09
36.063
36.033
36.0
35.965
35.93
35.895
35.861
35.828
35.796
35.765
35.735
35.704
35.672
35.639
35.605
35.569
35.532
35.492
35.452
35.412
35.372
35.335
35.3
35.268
35.237
35.207
35.177
35.148
35.12
35.092
35.067
35.045
35.025
35.008
34.993
34.979
34.965
34.95
34.934
34.918
34.901
34.882
34.862
34.84
34.816
34.791
34.765
34.739
34.713
34.688
34.662
34.637
34.613
34.591
34.571
34.554
34.54
34.527
34.517
34.508
34.5
34.493
34.486
34.481
34.476
34.471
34.466
34.461
34.456
34.449
34.439
34.429
34.416
34.402
34.387
34.37
34.352
34.334
34.316
34.3
34.286
34.273
34.261
34.249
34.237
34.225
34.211
34.197
34.182
34.166
34.148
34.129
34.109
34.088
34.067
34.045
34.023
34.001
33.978
33.955
33.932
33.91
33.889
33.871
33.858
33.85
33.848
33.854
33.868
33.892
33.928
33.976
34.037
34.112
34.199
34.3
34.415
34.542
34.682
34.833
34.994
35.162
35.336
35.513
35.691
35.868
36.042
36.213
36.379
36.538
36.69
36.831
36.963
37.084
37.194
37.293
37.381
37.457
37.523
37.576
37.618
37.649
37.67
37.681
37.685
37.68
37.668
37.65
37.627
37.601
37.573
37.545
37.516
37.488
37.461
37.434
37.408
37.381
37.354
37.328
37.302
37.277
37.251
37.224
37.194
37.162
37.128
37.092
37.053
37.012
36.967
36.919
36.869
36.818
36.766
36.716
36.668
36.622
36.579
36.54
36.505
36.475
36.452
36.435
36.425
36.419
36.417
36.42
36.425
36.433
36.442
36.454
36.467
36.481
36.495
36.508
36.521
36.532
36.542
36.551
36.56
36.568
36.574
36.577
36.577
36.574
36.568
36.56
36.55
36.537
36.523
36.506
36.487
36.466
36.443
36.418
36.392
36.364
36.333
36.3
36.265
36.228
36.188
36.147
36.105
36.061
36.015
35.969
35.922
35.875
35.828
35.782
35.737
35.693
35.65
35.608
35.565
35.524
35.484
35.447
35.412
35.381
35.353
35.326
35.299
35.274
35.248
35.224
35.2
35.177
35.154
35.133
35.113
35.095
35.077
35.06
35.044
35.028
35.012
34.996
34.98
34.964
34.947
34.931
34.914
34.897
34.88
34.863
34.846
34.829
34.81
34.791
34.769
34.747
34.725
34.703
34.682
34.662
34.642
34.625
34.608
34.592
34.577
34.561
34.545
34.529
34.512
34.497
34.481
34.468
34.455
34.442
34.43
34.416
34.401
34.386
34.37
34.355
34.34
34.325
34.309
34.293
34.275
34.255
34.235
34.214
34.193
34.171
34.149
34.128
34.107
34.087
34.067
34.048
34.029
34.011
33.994
33.98
33.968
33.962
33.961
33.968
33.985
34.01
34.046
34.094
34.155
34.233
34.33
34.446
34.581
34.733
34.898
35.074
35.257
35.444
35.634
35.823
36.011
36.194
36.371
36.541
36.701
36.85
36.989
37.118
37.238
37.347
37.447
37.537
37.618
37.688
37.751
37.805
37.851
37.889
37.918
37.938
37.95
37.954
37.951
37.941
37.926
37.907
37.886
37.861
37.834
37.805
37.774
37.742
37.71
37.678
37.647
37.615
37.584
37.552
37.521
37.491
37.462
37.433
37.405
37.376
37.346
37.314
37.281
37.247
37.211
37.174
37.135
37.096
37.056
37.017
36.979
36.943
36.91
36.879
36.852
36.828
36.805
36.785
36.766
36.75
36.736
36.724
36.714
36.706
36.699
36.692
36.687
36.682
36.678
36.674
36.67
36.666
36.661
36.656
36.65
36.645
36.64
36.635
36.63
36.625
36.618
36.61
36.6
36.588
36.574
36.559
36.54
36.519
36.495
36.467
36.436
36.402
36.364
36.323
36.28
36.234
36.186
36.137
36.087
36.036
35.985
35.935
35.887
35.839
35.794
35.751
35.71
35.67
35.632
35.596
35.56
35.525
35.488
35.448
35.406
35.363
35.319
35.275
35.233
35.192
35.154
35.118
35.086
35.057
35.031
35.007
34.987
34.968
34.951
34.935
34.92
34.905
34.891
34.877
34.864
34.85
34.834
34.818
34.799
34.779
34.759
34.738
34.718
34.698
34.68
34.662
34.645
34.629
34.614
34.602
34.59
34.58
34.569
34.559
34.549
34.538
34.526
34.515
34.504
34.493
34.481
34.47
34.457
34.444
34.43
34.415
34.399
34.383
34.364
34.344
34.32
34.295
34.268
34.241
34.213
34.185
34.158
34.13
34.102
34.074
34.046
34.019
33.993
33.969
33.946
33.924
33.901
33.877
33.851
33.825
33.799
33.773
33.748
33.723
33.7
33.681
33.666
33.657
33.656
33.666
33.688
33.723
33.773
33.838
33.918
34.014
34.126
34.255
34.397
34.554
34.722
34.901
35.089
35.283
35.482
35.684
35.886
36.086
36.28
36.468
36.647
36.815
36.972
37.117
37.25
37.37
37.477
37.571
37.652
37.72
37.777
37.823
37.859
37.884
37.898
37.904
37.9
37.889
37.873
37.851
37.826
37.798
37.769
37.74
37.711
37.683
37.656
37.631
37.607
37.583
37.56
37.536
37.512
37.488
37.463
37.438
37.412
37.384
37.354
37.32
37.282
37.239
37.194
37.146
37.095
37.043
36.99
36.938
36.887
36.838
36.794
36.755
36.722
36.694
36.671
36.652
36.637
36.626
36.619
36.614
36.612
36.613
36.614
36.618
36.622
36.628
36.636
36.645
36.654
36.665
36.674
36.683
36.689
36.692
36.694
36.693
36.691
36.687
36.681
36.671
36.659
36.643
36.625
36.603
36.579
36.553
36.524
36.492
36.458
36.421
36.382
36.341
36.298
36.254
36.209
36.164
36.118
36.071
36.024
35.977
35.93
35.883
35.836
35.789
35.744
35.7
35.657
35.617
35.579
35.542
35.507
35.472
35.438
35.404
35.371
35.34
35.312
35.286
35.261
35.237
35.212
35.186
35.16
35.133
35.107
35.081
35.055
35.029
35.003
34.978
34.954
34.932
34.909
34.888
34.867
34.845
34.824
34.802
34.78
34.757
34.734
34.712
34.691
34.671
34.652
34.633
34.615
34.598
34.581
34.564
34.547
34.53
34.513
34.496
34.48
34.464
34.448
34.433
34.417
34.402
34.387
34.371
34.355
34.338
34.321
34.306
34.291
34.276
34.26
34.244
34.226
34.209
34.192
34.177
34.163
34.149
34.135
34.12
34.103
34.087
34.071
34.056
34.041
34.027
34.012
33.997
33.98
33.961
33.94
33.915
33.889
33.86
33.829
33.798
33.767
33.738
33.711
33.688
33.671
33.66
33.657
33.664
33.682
33.712
33.755
33.811
33.882
33.968
34.069
34.184
34.314
34.457
34.611
34.777
34.95
35.131
35.315
35.5
35.684
35.863
36.036
36.203
36.361
36.51
36.647
36.772
36.883
36.981
37.066
37.138
37.199
37.249
37.288
37.317
37.337
37.349
37.355
37.355
37.349
37.338
37.323
37.303
37.279
37.252
37.221
37.189
37.156
37.123
37.09
37.056
37.021
36.985
36.948
36.91
36.87
36.828
36.784
36.736
36.686
36.634
36.583
36.532
36.484
36.439
36.396
36.356
36.318
36.281
36.246
36.212
36.181
36.15
36.12
36.091
36.063
36.037
36.013
35.993
35.976
35.964
35.955
35.95
35.946
35.945
35.946
35.948
35.951
35.954
35.959
35.963
35.967
35.97
35.973
35.974
35.975
35.976
35.975
35.973
35.97
35.965
35.958
35.949
35.939
35.927
35.913
35.896
35.876
35.852
35.824
35.793
35.758
35.722
35.683
35.642
35.604
35.573
35.549
35.532
35.519
35.506
35.492
35.473
35.447
35.413
35.372
35.322
35.265
35.203
35.139
35.072
35.006
34.94
34.877
34.817
34.76
34.709
34.661
34.619
34.582
34.549
34.52
34.495
34.473
34.452
34.433
34.415
34.396
34.378
34.36
34.342
34.325
34.309
34.293
34.278
34.262
34.245
34.227
34.209
34.19
34.172
34.155
34.138
34.121
34.105
34.089
34.073
34.057
34.042
34.027
34.013
33.999
33.985
33.971
33.957
33.945
33.935
33.925
33.917
33.909
33.901
33.891
33.88
33.868
33.855
33.842
33.829
33.816
33.801
33.786
33.768
33.749
33.73
33.71
33.69
33.671
33.652
33.634
33.617
33.6
33.584
33.57
33.557
33.544
33.532
33.519
33.506
33.493
33.477
33.461
33.442
33.422
33.399
33.374
33.348
33.32
33.292
33.265
33.241
33.221
33.204
33.191
33.183
33.181
33.185
33.199
33.224
33.261
33.311
33.376
33.454
33.547
33.654
33.774
33.908
34.053
34.21
34.376
34.548
34.725
34.905
35.085
35.263
35.438
35.607
35.769
35.921
36.063
36.195
36.314
36.421
36.515
36.596
36.665
36.722
36.769
36.804
36.83
36.847
36.856
36.859
36.855
36.845
36.831
36.813
36.793
36.771
36.749
36.727
36.705
36.682
36.658
36.632
36.607
36.581
36.554
36.527
36.499
36.468
36.434
36.397
36.358
36.314
36.266
36.213
36.155
36.094
36.031
35.965
35.899
35.834
35.769
35.708
35.649
35.596
35.548
35.506
35.471
35.442
35.419
35.404
35.394
35.39
35.39
35.395
35.403
35.414
35.428
35.444
35.461
35.478
35.493
35.508
35.521
35.534
35.548
35.563
35.578
35.594
35.61
35.625
35.64
35.654
35.667
35.677
35.685
35.689
35.691
35.69
35.685
35.677
35.666
35.652
35.634
35.614
35.591
35.566
35.537
35.505
35.471
35.434
35.395
35.354
35.311
35.268
35.224
35.179
35.134
35.089
35.043
34.998
34.952
34.906
34.861
34.817
34.774
34.734
34.697
34.662
34.629
34.597
34.564
34.532
34.502
34.473
34.447
34.422
34.398
34.373
34.347
34.319
34.292
34.265
34.239
34.215
34.192
34.17
34.152
34.135
34.121
34.11
34.1
34.091
34.083
34.076
34.07
34.065
34.06
34.057
34.054
34.053
34.053
34.055
34.057
34.06
34.063
34.065
34.067
34.066
34.063
34.057
34.049
34.039
34.027
34.014
33.999
33.984
33.967
33.947
33.925
33.901
33.876
33.852
33.832
33.815
33.802
33.792
33.784
33.776
33.769
33.76
33.75
33.74
33.727
33.713
33.696
33.675
33.652
33.626
33.601
33.575
33.552
33.53
33.512
33.496
33.485
33.479
33.482
33.494
33.518
33.556
33.61
33.68
33.767
33.871
33.989
34.121
34.265
34.42
34.584
34.756
34.934
35.116
35.301
35.486
35.67
35.851
36.028
36.198
36.361
36.515
36.66
36.795
36.919
37.032
37.132
37.22
37.295
37.357
37.406
37.444
37.472
37.49
37.498
37.498
37.489
37.474
37.453
37.428
37.401
37.372
37.342
37.31
37.279
37.248
37.217
37.188
37.161
37.134
37.108
37.081
37.053
