Trial 3:3back
34.33
34.312
34.294
34.278
34.263
34.249
34.235
34.221
34.206
34.189
34.172
34.156
34.14
34.127
34.115
34.105
34.097
34.089
34.081
34.074
34.067
34.06
34.055
34.053
34.054
34.06
34.072
34.091
34.119
34.157
34.205
34.263
34.333
34.412
34.503
34.604
34.716
34.838
34.97
35.111
35.259
35.412
35.568
35.725
35.882
36.036
36.185
36.328
36.463
36.588
36.703
36.806
36.896
36.973
37.037
37.09
37.133
37.168
37.195
37.214
37.227
37.232
37.233
37.228
37.219
37.206
37.19
37.171
37.15
37.128
37.105
37.079
37.052
37.022
36.99
36.956
36.922
36.886
36.849
36.812
36.775
36.739
36.704
36.669
36.634
36.598
36.56
36.52
36.477
36.433
36.385
36.335
36.284
36.233
36.184
36.137
36.095
36.059
36.029
36.005
35.987
35.974
35.965
35.96
35.956
35.954
35.952
35.951
35.951
35.951
35.952
35.954
35.956
35.96
35.965
35.971
35.976
35.981
35.985
35.987
35.987
35.985
35.98
35.972
35.96
35.945
35.927
35.906
35.883
35.858
35.831
35.803
35.773
35.744
35.715
35.685
35.654
35.622
35.589
35.556
35.521
35.485
35.447
35.407
35.367
35.326
35.285
35.245
35.206
35.169
35.134
35.102
35.073
35.046
35.02
34.994
34.967
34.94
34.912
34.884
34.856
34.829
34.803
34.781
34.767
34.762
34.765
34.773
34.782
34.791
34.795
34.794
34.787
34.773
34.753
34.727
34.695
34.659
34.62
34.58
34.539
34.499
34.459
34.422
34.389
34.362
34.339
34.32
34.305
34.293
34.281
34.27
34.259
34.247
34.236
34.226
34.218
34.213
34.213
34.218
34.229
34.247
34.272
34.305
34.346
34.397
34.46
34.534
34.621
34.72
34.833
34.958
35.095
35.242
35.397
35.559
35.723
35.889
36.052
36.21
36.358
36.495
36.621
36.733
36.834
36.922
36.999
37.065
37.122
37.171
37.213
37.248
37.275
37.295
37.308
37.314
37.314
37.309
37.299
37.283
37.262
37.239
37.215
37.19
37.165
37.139
37.113
37.087
37.061
37.035
37.01
36.983
36.956
36.928
36.9
36.872
36.844
36.815
36.785
36.752
36.717
36.679
36.639
36.595
36.549
36.502
36.455
36.41
36.366
36.325
36.286
36.25
36.217
36.186
36.159
36.133
36.109
36.087
36.067
36.05
36.035
36.024
36.015
36.009
36.005
36.004
36.006
36.009
36.013
36.016
36.018
36.017
36.014
36.007
35.998
35.986
35.971
35.956
35.939
35.923
35.907
35.893
35.879
35.864
35.848
35.831
35.812
35.792
35.769
35.745
35.718
35.688
35.655
35.62
35.584
35.546
35.507
35.468
35.43
35.393
35.358
35.324
35.293
35.261
35.231
35.2
35.17
35.14
35.11
35.079
35.049
35.017
34.986
34.955
34.923
34.892
34.862
34.831
34.802
34.774
34.747
34.721
34.696
34.673
34.65
34.628
34.606
34.585
34.564
34.544
34.524
34.504
34.486
34.468
34.45
34.432
34.412
34.391
34.369
34.346
34.322
34.3
34.279
34.261
34.247
34.236
34.228
34.221
34.215
34.209
34.201
34.191
34.179
34.167
34.153
34.141
34.129
34.121
34.116
34.118
34.127
34.145
34.171
34.207
34.253
34.311
34.38
34.461
34.553
34.656
34.771
34.897
35.032
35.176
35.325
35.48
35.639
35.8
35.961
36.12
36.273
36.418
36.555
36.684
36.802
36.91
37.006
37.09
37.162
37.223
37.273
37.314
37.344
37.366
37.38
37.387
37.39
37.389
37.385
37.378
37.368
37.354
37.336
37.314
37.286
37.254
37.218
37.18
37.14
37.1
37.058
37.017
36.978
36.94
36.905
36.872
36.841
36.81
36.778
36.743
36.705
36.663
36.616
36.566
36.513
36.459
36.405
36.354
36.306
36.262
36.221
36.184
36.151
36.123
36.099
36.079
36.063
36.05
36.042
36.036
36.033
36.03
36.028
36.027
36.025
36.024
36.023
36.022
36.023
36.025
36.027
36.03
36.032
36.033
36.031
36.026
36.016
36.002
35.982
35.958
35.929
35.897
35.863
35.829
35.794
35.761
35.729
35.7
35.673
35.647
35.621
35.596
35.568
35.539
35.506
35.47
35.432
35.393
35.353
35.313
35.274
35.236
35.2
35.165
35.13
35.096
35.06
35.024
34.985
34.946
34.906
34.866
34.828
34.791
34.758
34.727
34.698
34.671
34.645
34.619
34.594
34.567
34.539
34.508
34.477
34.444
34.411
34.378
34.346
34.315
34.287
34.261
34.238
34.219
34.203
34.189
34.178
34.169
34.161
34.153
34.146
34.137
34.127
34.117
34.107
34.098
34.09
34.086
34.086
34.09
34.099
34.113
34.132
34.157
34.189
34.228
34.276
34.334
34.405
34.489
34.588
34.701
34.828
34.965
35.113
35.267
35.426
35.586
35.747
35.905
36.059
36.208
36.352
36.487
36.615
36.734
36.843
36.942
37.031
37.108
37.174
37.23
37.275
37.309
37.333
37.347
37.351
37.346
37.333
37.313
37.289
37.26
37.224
37.179
37.129
37.075
37.019
36.964
36.911
36.861
36.815
36.773
36.735
36.699
36.666
36.634
36.601
36.567
36.532
36.495
36.458
36.42
36.382
36.344
36.307
36.269
36.232
36.195
36.157
36.118
36.081
36.044
36.008
35.974
35.942
35.912
35.886
35.862
35.841
35.823
35.808
35.796
35.788
35.783
35.782
35.784
35.79
35.798
35.807
35.816
35.825
35.833
35.839
35.843
35.844
35.843
35.839
35.832
35.823
35.811
35.796
35.779
35.759
35.737
35.713
35.686
35.657
35.624
35.588
35.55
35.508
35.463
35.416
35.368
35.32
35.271
35.225
35.18
35.139
35.1
35.064
35.03
34.998
34.966
34.934
34.901
34.867
34.831
34.795
34.757
34.719
34.68
34.642
34.604
34.568
34.534
34.503
34.473
34.445
34.418
34.39
34.362
34.335
34.307
34.281
34.255
34.232
34.211
34.193
34.178
34.166
34.156
34.146
34.137
34.127
34.117
34.107
34.097
34.086
34.075
34.063
34.052
34.041
34.031
34.022
34.013
34.004
33.997
33.991
33.988
33.99
33.996
34.01
34.033
34.067
34.112
34.17
34.241
34.326
34.423
34.533
34.656
34.791
34.941
35.107
35.289
35.483
35.685
35.89
36.093
36.29
36.478
36.655
36.82
36.971
37.109
37.232
37.341
37.436
37.518
37.588
37.646
37.694
37.732
37.76
37.78
37.793
37.798
37.797
37.791
37.78
37.764
37.744
37.72
37.695
37.668
37.64
37.61
37.58
37.549
37.517
37.484
37.449
37.413
37.375
37.336
37.295
37.252
37.206
37.158
37.109
37.059
37.01
36.963
36.918
36.875
36.834
36.795
36.756
36.717
36.679
36.639
36.598
36.557
36.516
36.477
36.438
36.402
36.367
36.336
36.307
36.283
36.264
36.249
36.238
36.23
36.224
36.218
36.212
36.205
36.197
36.186
36.174
36.16
36.146
36.132
36.116
36.101
36.084
36.065
36.045
36.021
35.995
35.965
35.933
35.899
35.861
35.822
35.78
35.736
35.692
35.646
35.601
35.557
35.514
35.473
35.433
35.394
35.356
35.319
35.282
35.245
35.207
35.169
35.129
35.089
35.049
35.009
34.97
34.933
34.897
34.864
34.832
34.802
34.773
34.746
34.719
34.692
34.666
34.639
34.612
34.585
34.557
34.529
34.501
34.476
34.453
34.432
34.413
34.394
34.376
34.358
34.338
34.318
34.295
34.271
34.246
34.221
34.199
34.179
34.16
34.143
34.127
34.111
34.096
34.082
34.067
34.051
34.034
34.015
33.995
33.977
33.96
33.946
33.934
33.924
33.916
33.913
33.913
33.919
33.93
33.949
33.977
34.014
34.063
34.125
34.2
34.288
34.389
34.504
34.632
34.774
34.929
35.096
35.272
35.456
35.645
35.837
36.028
36.215
36.395
36.566
36.727
36.878
37.019
37.15
37.269
37.377
37.473
37.559
37.633
37.695
37.747
37.787
37.815
37.833
37.841
37.84
37.831
37.815
37.794
37.767
37.739
37.709
37.679
37.65
37.622
37.593
37.564
37.533
37.502
37.47
37.435
37.399
37.361
37.322
37.281
37.239
37.196
37.15
37.103
37.053
37.001
36.948
36.893
36.837
36.78
36.724
36.667
36.612
36.558
36.506
36.456
36.409
36.365
36.323
36.285
36.249
36.216
36.186
36.159
36.136
36.118
36.104
36.094
36.087
36.081
36.076
36.071
36.065
36.057
36.047
36.035
36.021
36.006
35.99
35.973
35.955
35.937
35.919
35.901
35.884
35.866
35.847
35.827
35.804
35.778
35.749
35.716
35.679
35.638
35.595
35.55
35.503
35.457
35.412
35.366
35.321
35.276
35.231
35.186
35.141
35.095
35.049
35.003
34.957
34.911
34.867
34.823
34.78
34.737
34.695
34.652
34.61
34.569
34.527
34.486
34.446
34.409
34.375
34.345
34.319
34.295
34.274
34.254
34.236
34.219
34.203
34.187
34.17
34.152
34.134
34.116
34.097
34.077
34.054
34.03
34.005
33.98
33.957
33.936
33.917
33.901
33.886
33.873
33.861
33.849
33.835
33.821
33.804
33.785
33.767
33.748
33.732
33.717
33.705
33.694
33.684
33.675
33.667
33.659
33.652
33.647
33.647
33.654
33.671
33.698
33.739
33.794
33.862
33.945
34.041
34.15
34.272
34.409
34.559
34.722
34.896
35.079
35.27
35.464
35.661
35.856
36.049
36.236
36.415
36.584
36.742
36.887
37.017
37.133
37.235
37.321
37.392
37.449
37.494
37.528
37.552
37.567
37.574
37.573
37.566
37.553
37.537
37.517
37.494
37.469
37.44
37.409
37.376
37.34
37.301
37.259
37.213
37.165
37.116
37.066
37.017
36.966
36.915
36.864
36.814
36.764
36.715
36.666
36.618
36.57
36.522
36.474
36.426
36.378
36.329
36.28
36.231
36.182
36.133
36.087
36.043
36.003
35.966
35.934
35.908
35.886
35.869
35.857
35.848
35.843
35.839
35.836
35.834
35.83
35.824
35.817
35.808
35.8
35.791
35.783
35.775
35.767
35.759
35.75
35.738
35.724
35.706
35.684
35.658
35.629
35.597
35.561
35.522
35.482
35.439
35.394
35.348
35.302
35.256
35.211
35.167
35.124
35.083
35.043
35.002
34.962
34.92
34.877
34.833
34.787
34.741
34.695
34.65
34.605
34.562
34.518
34.476
34.433
34.391
34.349
34.307
34.266
34.227
34.19
34.157
34.126
34.098
34.073
34.051
34.03
34.009
33.989
33.969
33.949
33.93
33.912
33.895
33.879
33.865
33.851
33.838
33.826
33.813
33.8
33.784
33.765
33.744
33.72
33.695
33.67
33.647
33.626
33.607
33.59
33.575
33.562
33.551
33.54
33.531
33.523
33.515
33.507
33.501
33.496
33.494
33.496
33.505
33.52
33.544
33.576
33.619
33.672
33.737
33.816
33.908
34.013
34.131
34.261
34.404
34.559
34.724
34.897
35.077
35.261
35.448
35.635
35.821
36.001
36.173
36.335
36.486
36.625
36.75
36.862
36.961
37.047
37.12
37.181
37.231
37.269
37.297
37.314
37.322
37.32
37.304
37.272
37.226
37.17
37.108
37.044
36.981
36.923
36.87
36.824
36.786
36.756
36.732
36.713
36.697
36.684
36.671
36.657
36.641
36.62
36.595
36.564
36.527
36.483
36.432
36.373
36.307
36.237
36.163
36.087
36.013
35.942
35.876
35.816
35.763
35.717
35.677
35.643
35.614
35.589
35.568
35.55
35.536
35.526
35.52
35.517
35.517
35.519
35.523
35.529
35.536
35.544
35.553
35.561
35.567
35.57
35.569
35.563
35.552
35.536
35.516
35.491
35.464
35.435
35.406
35.379
35.352
35.327
35.301
35.275
35.246
35.215
35.182
35.146
35.109
35.069
35.029
34.987
34.946
34.905
34.863
34.821
34.778
34.735
34.691
34.648
34.605
34.564
34.523
34.482
34.443
34.404
34.366
34.33
34.296
34.263
34.233
34.205
34.179
34.156
34.135
34.116
34.097
34.079
34.061
34.041
34.019
33.996
33.971
33.947
33.923
33.9
33.879
33.86
33.842
33.825
33.81
33.794
33.779
33.765
33.751
33.738
33.725
33.713
33.702
33.691
33.681
33.673
33.666
33.662
33.661
33.664
33.671
33.685
33.707
33.739
33.783
33.839
33.91
33.995
34.095
34.209
34.336
34.474
34.622
34.779
34.941
35.109
35.28
35.454
35.628
35.801
35.971
36.137
36.298
36.451
36.597
36.734
36.861
36.977
37.081
37.172
37.248
37.31
37.357
37.389
37.407
37.412
37.408
37.394
37.374
37.348
37.318
37.286
37.252
37.219
37.186
37.154
37.123
37.092
37.061
37.03
36.995
36.956
36.912
36.863
36.811
36.756
36.7
36.644
36.588
36.533
36.479
36.426
36.373
36.32
36.266
36.211
36.157
36.103
36.051
36.001
35.954
35.911
35.872
35.837
35.806
35.78
35.757
35.737
35.719
35.702
35.685
35.668
35.651
35.634
35.619
35.607
35.598
35.592
35.59
35.59
35.594
35.601
35.61
35.619
35.627
35.634
35.636
35.634
35.626
35.612
35.593
35.568
35.538
35.505
35.469
35.43
35.391
35.35
35.309
35.268
35.227
35.187
35.147
35.108
35.069
35.03
34.992
34.953
34.915
34.876
34.836
34.796
34.755
34.714
34.672
34.629
34.587
34.546
34.507
34.468
34.431
34.395
34.36
34.324
34.29
34.256
34.223
34.191
34.161
34.132
34.105
34.079
34.054
34.03
34.007
33.985
33.964
33.945
33.929
33.916
33.906
33.897
33.887
33.877
33.864
33.847
33.828
33.806
33.783
33.759
33.734
33.709
33.685
33.661
33.639
33.618
33.598
33.579
33.561
33.544
33.531
33.52
33.514
33.514
33.521
33.536
33.559
33.593
33.637
33.694
33.762
33.845
33.942
34.054
34.18
34.319
34.469
34.629
34.798
34.975
35.159
35.348
35.541
35.737
35.934
36.128
36.318
36.501
36.674
36.837
36.986
37.121
37.241
37.346
37.435
37.51
37.571
37.619
37.655
37.679
37.693
37.697
37.694
37.685
37.671
37.653
37.627
37.593
37.552
37.505
37.454
37.402
37.349
37.297
37.247
37.199
37.156
37.116
37.081
37.049
37.02
36.993
36.966
36.939
36.909
36.876
36.838
36.795
36.747
36.693
36.634
36.572
36.507
36.442
36.379
36.318
36.262
36.212
36.168
36.129
36.097
36.069
36.046
36.027
36.009
35.993
35.978
35.964
35.951
35.939
35.928
35.918
35.91
35.903
35.898
35.893
35.889
35.884
35.878
35.87
35.859
35.846
35.828
35.807
35.782
35.755
35.726
35.695
35.664
35.633
35.601
35.568
35.535
35.501
35.465
35.428
35.389
35.349
35.308
35.267
35.227
35.189
35.152
35.116
35.081
35.046
35.01
34.972
34.933
34.892
34.848
34.801
34.752
34.701
34.648
34.595
34.542
34.49
34.439
34.39
34.344
34.302
34.263
34.227
34.193
34.161
34.13
34.102
34.075
34.051
34.029
34.008
33.99
33.973
33.96
33.95
33.942
33.934
33.925
33.917
33.908
33.897
33.884
33.87
33.854
33.838
33.823
33.809
33.796
33.784
33.771
33.757
33.743
33.727
33.71
33.692
33.673
33.656
33.64
33.627
33.618
33.612
33.61
33.612
33.618
33.63
33.648
33.679
33.726
33.794
33.881
33.988
34.113
34.253
34.405
34.569
34.741
34.919
35.103
35.292
35.482
35.674
35.865
36.054
36.24
36.42
36.592
36.756
36.91
37.053
37.185
37.305
37.415
37.513
37.599
37.673
37.735
37.786
37.827
37.857
37.877
37.888
37.89
37.884
37.87
37.851
37.827
37.799
37.767
37.733
37.697
37.661
37.623
37.585
37.546
37.506
37.465
37.423
37.379
37.334
37.288
37.241
37.192
37.144
37.094
37.043
36.992
36.939
36.886
36.831
36.776
36.721
36.666
36.612
36.558
36.504
36.451
36.398
36.345
36.292
36.241
36.192
36.145
36.102
36.064
36.028
35.997
35.968
35.942
35.92
35.901
35.886
35.873
35.863
35.856
35.849
35.844
35.836
35.827
35.813
35.795
35.774
35.75
35.723
35.694
35.664
35.632
35.597
35.561
35.522
35.481
35.436
35.389
35.342
35.294
35.247
35.203
35.161
35.122
35.085
35.05
35.017
34.985
34.952
34.917
34.881
34.842
34.802
34.762
34.722
34.683
34.646
34.612
34.58
34.551
34.526
34.502
34.479
34.457
34.434
34.409
34.382
34.353
34.323
34.292
34.261
34.231
34.203
34.178
34.156
34.136
34.118
34.101
34.084
34.067
34.048
34.028
34.006
33.983
33.96
33.937
33.916
33.897
33.879
33.863
33.847
33.831
33.813
33.793
33.771
33.747
33.723
33.699
33.676
33.654
33.633
33.613
33.593
33.575
33.556
33.538
33.52
33.504
33.49
33.479
33.474
33.477
33.488
33.508
33.541
33.585
33.643
33.714
33.8
33.9
34.013
34.14
34.282
34.437
34.606
34.786
34.976
35.174
35.377
35.582
35.788
35.991
36.188
36.376
36.555
36.723
36.878
37.021
37.149
37.262
37.361
37.446
37.517
37.576
37.622
37.657
37.681
37.695
37.698
37.693
37.68
37.659
37.632
37.6
37.564
37.525
37.484
37.441
37.398
37.353
37.307
37.262
37.216
37.172
37.127
37.083
37.037
36.989
36.939
36.886
36.83
36.771
36.71
36.649
36.588
36.527
36.468
36.41
36.354
36.298
36.245
36.194
36.145
36.098
36.055
36.016
35.981
35.95
35.923
35.9
35.88
35.863
35.85
35.84
35.833
35.83
35.83
35.833
35.837
35.842
35.849
35.855
35.86
35.863
35.864
35.864
35.862
35.859
35.854
35.847
35.838
35.826
35.812
35.795
35.773
35.747
35.715
35.679
35.639
35.596
35.551
35.505
35.459
35.412
35.366
35.322
35.28
35.24
35.203
35.167
35.133
35.101
35.069
35.036
35.001
34.962
34.922
34.879
34.835
34.792
34.749
34.708
34.668
34.63
34.593
34.559
34.524
34.489
34.452
34.414
34.375
34.336
34.298
34.263
34.229
34.198
34.17
34.144
34.12
34.097
34.074
34.051
34.028
34.005
33.983
33.961
33.939
33.918
33.898
33.878
33.859
33.841
33.823
33.806
33.789
33.771
33.754
33.735
33.717
33.699
33.682
33.666
33.654
33.643
33.636
33.632
33.632
33.636
33.646
33.661
33.682
33.711
33.75
33.802
33.869
33.952
34.051
34.166
34.297
34.443
34.602
34.774
34.955
35.144
35.339
35.535
35.733
35.927
36.117
36.3
36.473
36.635
36.785
36.922
37.045
37.153
37.247
37.325
37.389
37.437
37.472
37.493
37.504
37.504
37.496
37.483
37.465
37.444
37.421
37.397
37.372
37.347
37.32
37.291
37.26
37.224
37.185
37.141
37.093
37.039
36.982
36.922
36.86
36.795
36.729
36.662
36.592
36.52
36.447
36.374
36.3
36.227
36.155
36.087
36.022
35.961
35.903
35.849
35.799
35.752
35.71
35.672
35.638
35.608
35.583
35.563
35.547
35.536
35.529
35.524
35.52
35.518
35.517
35.519
35.521
35.525
35.531
35.537
35.543
35.55
35.556
35.56
35.562
35.561
35.557
35.55
35.541
35.529
35.513
35.493
35.47
35.442
35.412
35.379
35.344
35.308
35.271
35.234
35.198
35.162
35.127
35.091
35.053
35.013
34.972
34.929
34.885
34.839
34.794
34.749
34.706
34.664
34.624
34.583
34.542
34.502
34.461
34.422
34.384
34.347
34.31
34.275
34.241
34.209
34.179
34.151
34.124
34.099
34.074
34.051
34.03
34.008
33.987
33.963
33.939
33.914
33.889
33.864
33.842
33.82
33.801
33.784
33.769
33.756
33.744
33.733
33.721
33.71
33.699
33.688
33.677
33.667
33.658
33.65
33.645
33.644
33.648
33.657
33.673
33.696
33.726
33.765
33.812
33.871
33.943
34.029
34.13
34.248
34.384
34.536
34.703
34.883
35.073
35.27
35.472
35.674
35.875
36.073
36.267
36.455
36.635
36.807
36.969
37.119
37.255
37.377
37.484
37.577
37.656
37.722
37.774
37.812
37.836
37.848
37.847
37.835
37.812
37.78
37.742
37.7
37.656
37.612
37.57
37.528
37.488
37.449
37.413
37.378
37.344
37.31
37.273
37.233
37.189
37.14
37.088
37.032
36.973
36.911
36.847
36.782
36.718
36.655
36.593
36.53
36.467
36.404
36.342
36.281
36.222
36.166
36.114
36.066
36.024
35.989
35.962
35.94
35.925
35.915
35.91
35.91
35.913
35.917
35.921
35.925
35.926
35.924
35.919
35.912
35.902
35.891
35.88
35.87
35.861
35.854
35.847
35.839
35.829
35.817
35.801
35.782
35.759
35.732
35.702
35.669
35.634
35.596
35.556
35.514
35.469
35.422
35.368
35.308
35.244
35.18
35.117
35.057
35.001
34.949
34.9
34.856
34.816
34.779
34.744
34.713
34.685
34.658
34.634
34.61
34.585
34.56
34.534
34.505
34.475
34.442
34.407
34.372
34.336
34.299
34.263
34.226
34.19
34.155
34.12
34.085
34.053
34.021
33.992
33.966
33.943
33.923
33.907
33.893
33.881
33.87
33.86
33.85
33.84
33.829
33.816
33.801
33.784
33.766
33.747
33.729
33.712
33.696
33.681
33.669
33.661
33.659
33.663
33.674
33.696
33.728
33.774
33.833
33.906
33.994
34.098
34.217
34.353
34.503
34.668
34.847
35.038
35.24
35.449
35.665
35.883
36.101
36.317
36.528
36.733
36.93
37.117
37.293
37.456
37.606
37.741
37.863
37.969
38.06
38.136
38.197
38.243
38.276
38.294
38.301
38.295
38.281
38.257
38.226
38.19
38.15
38.106
38.06
38.012
37.963
37.913
37.864
37.815
37.769
37.724
37.681
37.638
37.595
37.552
37.509
37.464
37.417
37.366
37.311
37.253
37.192
37.128
37.061
36.992
36.923
36.855
36.789
36.726
36.667
