Trial 3:3back
36.262
36.349
36.433
36.512
36.586
36.653
36.711
36.753
36.779
36.787
36.78
36.759
36.729
36.691
36.649
36.605
36.559
36.513
36.467
36.42
36.373
36.327
36.279
36.229
36.178
36.124
36.068
36.008
35.944
35.876
35.804
35.729
35.651
35.571
35.49
35.407
35.325
35.244
35.166
35.092
35.02
34.952
34.886
34.821
34.759
34.699
34.641
34.584
34.528
34.473
34.419
34.365
34.311
34.257
34.203
34.149
34.095
34.042
33.99
33.939
33.889
33.84
33.792
33.746
33.699
33.652
33.606
33.561
33.518
33.479
33.446
33.421
33.407
33.406
33.423
33.459
33.519
33.607
33.726
33.881
34.074
34.308
34.584
34.901
35.259
35.652
36.076
36.523
36.986
37.456
37.925
38.385
38.827
39.245
39.631
39.981
40.291
40.559
40.782
40.961
41.097
41.192
41.248
41.27
41.259
41.22
41.155
41.07
40.967
40.851
40.725
40.592
40.455
40.315
40.175
40.036
39.898
39.761
39.627
39.493
39.361
39.23
39.1
38.971
38.845
38.721
38.598
38.475
38.351
38.227
38.101
37.975
37.847
37.719
37.59
37.461
37.333
37.205
37.077
36.95
36.824
36.703
36.585
36.472
36.365
36.266
36.175
36.094
36.024
35.965
35.916
35.878
35.849
35.83
35.82
35.82
35.828
35.846
35.872
35.907
35.949
35.998
36.053
36.115
36.18
36.25
36.322
36.395
36.468
36.54
36.608
36.672
36.729
36.78
36.822
36.854
36.877
36.89
36.895
36.89
36.877
36.856
36.828
36.793
36.753
36.708
36.659
36.606
36.548
36.486
36.42
36.349
36.275
36.198
36.118
36.036
35.952
35.868
35.784
35.701
35.619
35.539
35.46
35.382
35.306
35.231
35.157
35.084
35.011
34.939
34.866
34.795
34.725
34.657
34.591
34.528
34.467
34.408
34.35
34.294
34.24
34.187
34.137
34.091
34.047
34.005
33.965
33.926
33.888
33.849
33.811
33.773
33.735
33.698
33.662
33.627
33.595
33.567
33.545
33.533
33.532
33.547
33.582
33.642
33.732
33.856
34.019
34.225
34.474
34.768
35.105
35.482
35.894
36.334
36.794
37.266
37.74
38.207
38.658
39.085
39.482
39.844
40.165
40.445
40.681
40.872
41.019
41.126
41.194
41.226
41.227
41.2
41.15
41.078
40.99
40.888
40.775
40.654
40.529
40.399
40.267
40.135
40.003
39.872
39.742
39.613
39.485
39.357
39.23
39.104
38.98
38.856
38.735
38.614
38.495
38.376
38.259
38.142
38.026
37.908
37.79
37.671
37.554
37.439
37.328
37.219
37.112
37.006
36.901
36.796
36.693
36.591
36.491
36.394
36.301
36.215
36.135
36.064
36.003
35.954
35.917
35.893
35.882
35.883
35.897
35.921
35.956
35.999
36.051
36.108
36.169
36.233
36.297
36.36
36.422
36.48
36.535
36.586
36.633
36.675
36.713
36.744
36.768
36.785
36.793
36.793
36.783
36.764
36.735
36.695
36.645
36.585
36.515
36.437
36.351
36.258
36.16
36.059
35.957
35.857
35.759
35.666
35.579
35.5
35.432
35.374
35.329
35.294
35.268
35.25
35.238
35.227
35.215
35.201
35.18
35.154
35.121
35.081
35.034
34.981
34.922
34.857
34.788
34.716
34.641
34.565
34.49
34.415
34.342
34.271
34.202
34.137
34.075
34.019
33.968
33.921
33.88
33.842
33.807
33.775
33.744
33.714
33.684
33.653
33.622
33.592
33.562
33.533
33.506
33.48
33.458
33.442
33.435
33.439
33.457
33.492
33.55
33.634
33.75
33.901
34.09
34.321
34.594
34.908
35.262
35.652
36.073
36.518
36.979
37.449
37.917
38.376
38.818
39.233
39.617
39.963
40.268
40.53
40.746
40.918
41.046
41.132
41.181
41.195
41.177
41.132
41.064
40.975
40.871
40.752
40.624
40.487
40.346
40.203
40.059
39.915
39.774
39.634
39.497
39.363
39.232
39.102
38.975
38.85
38.725
38.6
38.476
38.351
38.227
38.102
37.976
37.849
37.722
37.594
37.466
37.338
37.21
37.082
36.955
36.83
36.709
36.595
36.49
36.395
36.309
36.232
36.161
36.097
36.04
35.989
35.944
35.905
35.873
35.847
35.828
35.816
35.813
35.817
35.83
35.852
35.881
35.919
35.964
36.015
36.071
36.13
36.191
36.252
36.312
36.368
36.418
36.462
36.498
36.526
36.545
36.555
36.556
36.549
36.533
36.51
36.481
36.446
36.405
36.36
36.311
36.258
36.201
36.141
36.076
36.007
35.933
35.854
35.772
35.688
35.602
35.514
35.426
35.339
35.252
35.167
35.084
35.004
34.928
34.855
34.785
34.719
34.657
34.598
34.542
34.487
34.433
34.38
34.328
34.276
34.225
34.172
34.12
34.066
34.012
33.958
33.904
33.851
33.801
33.752
33.707
33.664
33.624
33.587
33.552
33.52
33.491
33.465
33.442
33.42
33.4
33.382
33.364
33.349
33.335
33.322
33.309
33.296
33.284
33.272
33.26
33.247
33.235
33.223
33.212
33.202
33.192
33.182
33.173
33.166
33.163
33.166
33.179
33.203
33.243
33.304
33.388
33.5
33.645
33.825
34.043
34.301
34.598
34.932
35.3
35.698
36.119
36.557
37.004
37.451
37.891
38.315
38.717
39.089
39.428
39.729
39.99
40.207
40.381
40.512
40.601
40.651
40.663
40.643
40.592
40.515
40.415
40.297
40.165
40.021
39.87
39.716
39.56
39.404
39.25
39.099
38.952
38.809
38.67
38.534
38.402
38.272
38.144
38.019
37.894
37.771
37.649
37.526
37.403
37.279
37.155
37.029
36.902
36.775
36.648
36.52
36.395
36.271
36.149
36.027
35.908
35.791
35.679
35.573
35.475
35.387
35.311
35.247
35.197
35.16
35.137
35.127
35.129
35.142
35.166
35.199
35.241
35.29
35.345
35.406
35.47
35.538
35.609
35.68
35.75
35.819
35.886
35.949
36.007
36.058
36.101
36.135
36.161
36.177
36.184
36.183
36.174
36.158
36.134
36.102
36.063
36.017
35.963
35.904
35.839
35.77
35.698
35.625
35.55
35.473
35.397
35.321
35.245
35.17
35.097
35.024
34.952
34.88
34.809
34.738
34.668
34.599
34.529
34.457
34.385
34.311
34.238
34.166
34.095
34.025
33.958
33.894
33.833
33.778
33.727
33.681
33.639
33.598
33.56
33.524
33.489
33.454
33.422
33.391
33.361
33.333
33.305
33.278
33.252
33.228
33.205
33.183
33.162
33.143
33.125
33.111
33.099
33.091
33.085
33.083
33.083
33.084
33.087
33.09
33.093
33.094
33.094
33.093
33.089
33.084
33.078
33.071
33.063
33.054
33.044
33.033
33.022
33.011
33.001
32.991
32.983
32.977
32.975
32.979
32.991
33.013
33.048
33.1
33.172
33.268
33.391
33.545
33.732
33.955
34.214
34.509
34.837
35.197
35.583
35.99
36.411
36.836
37.26
37.673
38.07
38.442
38.784
39.092
39.362
39.591
39.779
39.925
40.03
40.097
40.127
40.123
40.09
40.03
39.948
39.846
39.73
39.601
39.462
39.316
39.165
39.011
38.857
38.704
38.553
38.405
38.261
38.12
37.983
37.849
37.719
37.591
37.466
37.342
37.219
37.097
36.975
36.853
36.732
36.611
36.49
36.371
36.251
36.131
36.01
35.889
35.77
35.652
35.536
35.423
35.314
35.211
35.116
35.031
34.957
34.895
34.846
34.81
34.787
34.777
34.779
34.793
34.817
34.851
34.895
34.947
35.005
35.069
35.137
35.208
35.282
35.355
35.428
35.498
35.565
35.626
35.682
35.731
35.773
35.807
35.834
35.852
35.862
35.865
35.86
35.847
35.827
35.8
35.765
35.724
35.678
35.626
35.57
35.51
35.448
35.385
35.321
35.257
35.193
35.128
35.062
34.995
34.926
34.855
34.783
34.709
34.635
34.561
34.487
34.414
34.344
34.276
34.212
34.151
34.093
34.038
33.986
33.935
33.886
33.839
33.791
33.744
33.699
33.654
33.611
33.57
33.528
33.487
33.446
33.405
33.365
33.326
33.287
33.25
33.215
33.181
33.151
33.123
33.098
33.077
33.059
33.044
33.032
33.023
33.015
33.009
33.004
33.001
32.998
32.996
32.994
32.992
32.992
32.991
32.992
32.993
32.996
32.999
33.004
33.009
33.016
33.022
33.029
33.033
33.036
33.036
33.033
33.027
33.018
33.007
32.994
32.98
32.966
32.952
32.94
32.93
32.925
32.925
32.933
32.951
32.981
33.028
33.096
33.188
33.31
33.465
33.656
33.886
34.155
34.461
34.801
35.171
35.565
35.977
36.4
36.825
37.245
37.651
38.038
38.399
38.73
39.027
39.284
39.501
39.676
39.809
39.901
39.955
39.973
39.959
39.918
39.852
39.766
39.663
39.545
39.416
39.279
39.137
38.992
38.845
38.699
38.555
38.414
38.276
38.142
38.011
37.881
37.753
37.626
37.5
37.376
37.254
37.133
37.013
36.895
36.779
36.664
36.55
36.438
36.326
36.214
36.101
35.989
35.878
35.768
35.66
35.555
35.455
35.359
35.268
35.185
35.11
35.045
34.99
34.948
34.917
34.898
34.89
34.892
34.905
34.927
34.959
34.999
35.048
35.103
35.166
35.233
35.302
35.373
35.444
35.513
35.581
35.644
35.702
35.755
35.802
35.842
35.876
35.902
35.92
35.93
35.933
35.927
35.914
35.893
35.864
35.829
35.787
35.739
35.686
35.627
35.563
35.496
35.427
35.356
35.285
35.214
35.142
35.07
34.996
34.922
34.847
34.773
34.7
34.627
34.556
34.486
34.417
34.35
34.284
34.22
34.157
34.095
34.035
33.975
33.917
33.859
33.803
33.749
33.697
33.648
33.599
33.552
33.506
33.462
33.417
33.373
33.329
33.286
33.244
33.204
33.165
33.128
33.094
33.061
33.031
33.004
32.981
32.962
32.946
32.933
32.924
32.918
32.915
32.915
32.919
32.924
32.931
32.941
32.951
32.962
32.973
32.981
32.989
32.994
32.999
33.004
33.01
33.014
33.019
33.023
33.027
33.031
33.034
33.037
33.039
33.041
33.042
33.042
33.041
33.038
33.033
33.027
33.019
33.009
32.996
32.982
32.965
32.946
32.927
32.907
32.888
32.871
32.855
32.844
32.839
32.842
32.857
32.884
32.928
32.993
33.082
33.201
33.353
33.541
33.766
34.03
34.332
34.67
35.041
35.441
35.861
36.296
36.737
37.176
37.605
38.016
38.402
38.756
39.073
39.348
39.58
39.767
39.909
40.008
40.065
40.084
40.069
40.024
39.953
39.859
39.748
39.622
39.487
39.345
39.199
39.051
38.903
38.756
38.611
38.469
38.328
38.19
38.055
37.923
37.794
37.667
37.543
37.421
37.302
37.185
37.07
36.955
36.839
36.722
36.604
36.484
36.362
36.239
36.115
35.992
35.87
35.752
35.639
35.53
35.426
35.329
35.238
35.156
35.081
35.016
34.961
34.915
34.879
34.853
34.839
34.836
34.845
34.868
34.91
34.97
35.045
35.132
35.226
35.323
35.419
35.51
35.595
35.671
35.737
35.793
35.838
35.873
35.898
35.913
35.92
35.92
35.912
35.897
35.877
35.852
35.824
35.793
35.759
35.721
35.681
35.638
35.591
35.543
35.493
35.441
35.386
35.33
35.271
35.21
35.146
35.081
35.014
34.946
34.877
34.807
34.737
34.665
34.593
34.52
34.446
34.371
34.297
34.223
34.152
34.084
34.017
33.953
33.891
33.832
33.775
33.721
33.669
33.619
33.57
33.524
33.478
33.433
33.389
33.344
33.299
33.253
33.208
33.163
33.12
33.08
33.044
33.011
32.983
32.96
32.942
32.929
32.919
32.911
32.905
32.899
32.894
32.89
32.887
32.884
32.882
32.88
32.877
32.876
32.875
32.876
32.878
32.882
32.889
32.897
32.907
32.918
32.93
32.942
32.954
32.964
32.972
32.977
32.979
32.979
32.976
32.972
32.965
32.956
32.943
32.929
32.914
32.897
32.88
32.864
32.847
32.832
32.82
32.811
32.808
32.812
32.825
32.85
32.89
32.949
33.033
33.151
33.304
33.495
33.725
33.995
34.304
34.647
35.021
35.419
35.836
36.263
36.693
37.118
37.531
37.925
38.293
38.63
38.932
39.195
39.419
39.603
39.747
39.852
39.922
39.957
39.961
39.937
39.886
39.812
39.718
39.609
39.487
39.357
39.22
39.081
38.941
38.802
38.665
38.529
38.394
38.261
38.13
38.002
37.875
37.752
37.629
37.508
37.388
37.27
37.152
37.035
36.918
36.801
36.683
36.566
36.451
36.336
36.222
36.108
35.995
35.882
35.771
35.661
35.555
35.453
35.358
35.269
35.19
35.121
35.061
35.011
34.971
34.94
34.919
34.908
34.906
34.913
34.928
34.95
34.979
35.015
35.058
35.108
35.163
35.224
35.288
35.354
35.42
35.486
35.549
35.608
35.662
35.709
35.75
35.785
35.814
35.836
35.851
35.858
35.857
35.85
35.834
35.812
35.782
35.745
35.702
35.653
35.599
35.542
35.482
35.42
35.355
35.289
35.222
35.153
35.083
35.012
34.94
34.866
34.792
34.717
34.644
34.572
34.502
34.433
34.366
34.298
34.231
34.163
34.094
34.026
33.958
33.89
33.825
33.761
33.7
33.642
33.587
33.533
33.482
33.432
33.384
33.338
33.295
33.253
33.213
33.176
33.141
33.108
33.079
33.051
33.025
33.001
32.979
32.958
32.94
32.924
32.91
32.899
32.89
32.883
32.876
32.87
32.864
32.858
32.852
32.847
32.843
32.84
32.839
32.839
32.841
32.845
32.849
32.855
32.86
32.867
32.875
32.883
32.892
32.901
32.91
32.917
32.924
32.929
32.933
32.935
32.934
32.931
32.926
32.919
32.911
32.901
32.891
32.88
32.868
32.855
32.841
32.826
32.81
32.795
32.782
32.773
32.77
32.775
32.79
32.819
32.865
32.932
33.025
33.148
33.304
33.496
33.728
34.0
34.312
34.662
35.046
35.46
35.895
36.347
36.806
37.265
37.715
38.147
38.552
38.926
39.263
39.557
39.806
40.009
40.165
40.276
40.345
40.375
40.37
40.333
40.269
40.182
40.077
39.958
39.828
39.69
39.546
39.399
39.251
39.102
38.954
38.806
38.659
38.514
38.369
38.226
38.083
37.941
37.799
37.659
37.522
37.386
37.253
37.123
36.995
36.87
36.747
36.625
36.505
36.386
36.269
36.154
36.04
35.928
35.818
35.712
35.609
35.51
35.417
35.33
35.25
35.178
35.114
35.058
35.011
34.974
34.947
34.93
34.923
34.925
34.937
34.957
34.987
35.025
35.071
35.125
35.185
35.251
35.321
35.395
35.47
35.545
35.618
35.687
35.751
35.809
35.861
35.904
35.939
35.965
35.983
35.992
35.993
35.986
35.971
35.948
35.919
35.882
35.839
35.787
35.726
35.656
35.578
35.494
35.407
35.318
35.229
35.144
35.063
34.988
34.916
34.849
34.785
34.723
34.665
34.61
34.556
34.501
34.445
34.387
34.328
34.268
34.207
34.144
34.08
34.016
33.951
33.887
33.825
33.764
33.704
33.644
33.586
33.529
33.474
33.421
33.369
33.319
33.272
33.227
33.185
33.147
33.112
33.079
33.049
33.022
32.995
32.97
32.945
32.921
32.898
32.877
32.858
32.842
32.826
32.812
32.8
32.79
32.783
32.779
32.777
32.778
32.782
32.788
32.797
32.808
32.82
32.833
32.846
32.858
32.869
32.878
32.884
32.887
32.887
32.883
32.875
32.866
32.854
32.84
32.825
32.808
32.79
32.772
32.755
32.738
32.723
32.707
32.691
32.675
32.658
32.641
32.622
32.601
32.579
32.556
32.529
32.5
32.466
32.43
32.391
32.353
32.315
32.281
32.25
32.225
32.208
32.202
32.21
32.235
32.282
32.354
32.457
32.594
32.769
32.986
33.247
33.553
33.903
34.295
34.723
35.183
35.667
36.166
36.672
37.175
37.668
38.142
38.589
39.002
39.374
39.699
39.973
40.195
40.364
40.482
40.55
40.573
40.555
40.503
40.422
40.317
40.196
40.062
39.918
39.77
39.619
39.467
39.317
39.167
39.02
38.874
38.731
38.589
38.448
38.309
38.17
38.033
37.899
37.766
37.636
37.508
37.382
37.258
37.136
37.015
36.894
36.773
36.651
36.528
36.404
36.28
36.155
36.03
35.906
35.784
35.665
35.549
35.439
35.334
35.236
35.147
35.068
34.999
34.943
34.9
34.871
34.856
34.854
34.865
34.887
34.92
34.962
35.014
35.073
35.139
35.211
35.287
35.366
35.446
35.526
35.603
35.678
35.748
35.814
35.875
35.931
35.98
36.021
36.054
36.078
36.094
36.101
36.099
36.09
36.073
36.048
36.018
35.981
35.938
35.889
35.835
35.776
35.715
35.65
35.584
35.517
35.45
35.381
35.313
35.244
35.174
35.105
35.035
34.963
34.889
34.814
34.737
34.659
34.579
34.499
34.418
34.337
34.257
34.179
34.103
34.029
33.958
33.891
33.827
33.768
33.712
33.66
33.613
33.572
33.54
33.516
33.499
33.484
33.471
33.456
33.437
33.414
33.385
33.35
33.309
33.263
33.212
33.16
33.107
33.054
33.003
32.955
32.913
32.876
32.845
32.821
32.805
32.796
32.793
32.796
32.804
32.814
32.825
32.837
32.848
32.86
32.87
32.881
32.89
32.899
32.906
32.912
32.916
32.919
32.921
32.923
32.925
32.929
32.933
32.94
32.949
32.962
32.982
33.009
33.047
33.1
33.169
33.26
33.377
33.523
33.702
33.917
34.169
34.459
34.787
35.15
35.544
35.965
36.404
36.856
37.311
37.761
38.199
38.617
39.007
39.364
39.682
39.958
40.191
40.378
40.521
40.618
40.672
40.687
40.666
40.614
40.535
40.433
40.312
40.176
40.028
39.872
39.709
39.541
39.372
39.204
39.038
38.877
38.72
38.567
38.42
38.276
38.138
38.003
37.872
37.744
37.617
37.49
37.364
37.238
37.112
36.984
36.856
36.725
36.594
36.462
36.331
36.2
36.07
35.943
35.819
35.7
35.587
35.48
35.381
35.291
35.21
35.14
35.081
35.036
35.002
34.981
34.971
34.974
34.987
35.011
35.044
35.087
35.139
35.199
35.267
35.342
35.423
35.509
35.597
35.687
35.777
35.865
35.949
36.028
36.101
36.166
36.222
36.268
36.304
36.328
36.342
36.347
36.343
36.33
36.308
36.279
36.244
36.201
36.152
36.097
36.037
35.973
35.906
35.836
35.765
35.692
35.618
35.543
35.469
35.394
35.318
35.24
35.161
35.081
35.0
34.917
34.835
34.754
34.674
34.596
34.521
34.449
34.378
34.309
34.241
34.173
34.107
34.041
33.977
33.917
33.867
33.826
33.792
33.765
33.74
33.717
33.693
33.667
33.638
33.605
33.568
33.528
33.485
33.441
33.397
33.353
33.31
33.268
33.228
33.191
33.157
33.126
33.099
33.075
33.054
33.036
33.02
33.006
32.993
32.982
32.973
32.965
32.959
32.955
32.952
32.95
32.949
32.95
32.954
32.962
32.977
33.003
33.043
33.102
33.186
33.297
33.44
33.619
33.836
34.095
34.395
34.736
35.117
35.532
35.975
36.441
36.92
37.405
37.886
38.356
38.804
39.225
39.61
39.949
40.237
40.473
40.657
40.792
40.881
40.929
40.94
40.921
40.877
40.811
40.728
40.63
40.522
40.405
40.282
40.156
40.028
39.898
39.766
39.634
39.5
39.366
39.231
39.094
38.956
38.816
38.676
38.535
38.395
38.254
38.115
37.977
37.842
37.71
37.581
37.455
37.331
37.209
37.089
36.97
36.852
36.734
36.616
36.498
36.382
36.267
36.156
36.048
35.944
35.843
35.746
35.655
35.569
35.491
35.422
35.364
35.316
35.28
35.257
35.246
35.246
35.258
35.279
35.308
35.347
35.393
35.446
35.503
35.563
35.626
35.69
35.754
35.816
35.876
35.933
35.985
36.033
36.076
36.111
36.139
36.158
36.169
36.171
36.163
36.146
36.12
36.087
36.048
36.002
35.951
35.893
35.83
35.762
35.691
35.617
35.539
35.46
35.379
35.297
35.216
35.135
35.055
34.975
34.896
34.818
34.741
34.664
34.589
34.514
34.441
34.371
34.303
34.237
34.175
34.115
34.058
34.003
33.951
33.9
33.85
33.8
33.752
33.704
33.658
33.614
33.57
33.528
33.487
33.448
33.411
33.377
33.345
33.316
33.288
33.263
33.24
33.218
33.196
33.176
33.155
33.134
33.111
33.088
33.063
33.038
33.011
32.984
32.956
32.929
32.904
32.88
32.857
32.837
32.82
32.806
32.797
32.792
32.793
32.803
32.824
32.857
32.907
32.975
33.066
33.184
33.334
33.52
33.747
34.014
34.324
34.675
35.066
35.493
35.95
36.43
36.924
37.424
37.921
38.405
38.868
39.302
39.7
40.056
40.366
40.628
40.84
41.003
41.118
41.189
41.217
41.208
41.166
41.096
41.003
40.89
40.763
40.625
40.481
40.334
40.186
40.039
39.894
39.752
39.612
39.475
39.341
39.21
39.081
38.953
38.826
38.701
38.576
38.454
38.334
38.215
38.098
37.982
37.867
37.751
37.635
37.519
37.403
37.286
37.168
37.05
36.93
36.81
36.69
36.569
36.448
36.329
36.212
36.101
35.996
35.899
35.81
35.73
35.66
35.6
35.551
35.513
35.487
35.472
35.47
35.479
35.499
35.527
35.564
35.607
35.656
35.709
35.765
35.823
35.883
35.945
36.006
36.067
36.126
36.181
36.232
36.278
36.318
36.35
36.373
36.386
36.389
36.381
36.364
36.337
36.3
36.255
36.203
36.144
36.08
36.012
35.94
35.863
35.784
35.702
35.619
35.535
35.449
35.364
35.279
35.194
35.11
35.027
34.944
34.862
34.781
34.7
34.62
34.54
34.46
34.381
34.304
34.229
34.156
34.084
34.014
33.947
33.882
33.819
33.759
33.699
33.641
33.584
33.529
33.476
33.425
33.377
33.33
33.285
33.241
33.2
33.162
33.127
33.095
33.066
33.041
33.018
32.998
32.98
32.965
32.952
32.942
32.934
32.927
