Trial 3:3back
37.371
37.304
37.24
37.176
37.114
37.052
36.991
36.93
36.87
36.811
36.754
36.699
36.648
36.599
36.553
36.511
36.474
36.441
36.413
36.39
36.372
36.357
36.345
36.334
36.325
36.315
36.302
36.286
36.264
36.236
36.203
36.163
36.118
36.069
36.015
35.958
35.898
35.836
35.772
35.708
35.645
35.584
35.526
35.47
35.417
35.367
35.319
35.273
35.23
35.189
35.149
35.11
35.071
35.033
34.994
34.954
34.912
34.869
34.824
34.777
34.729
34.678
34.627
34.577
34.527
34.478
34.432
34.39
34.351
34.316
34.285
34.258
34.234
34.213
34.193
34.173
34.153
34.132
34.11
34.085
34.059
34.032
34.004
33.976
33.95
33.924
33.899
33.876
33.854
33.833
33.814
33.798
33.783
33.771
33.761
33.753
33.746
33.74
33.735
33.729
33.723
33.715
33.704
33.691
33.674
33.653
33.627
33.594
33.555
33.512
33.466
33.419
33.372
33.327
33.285
33.248
33.216
33.19
33.171
33.157
33.148
33.145
33.145
33.148
33.152
33.157
33.162
33.167
33.171
33.173
33.173
33.17
33.164
33.156
33.144
33.13
33.113
33.093
33.07
33.044
33.016
32.985
32.952
32.917
32.883
32.848
32.814
32.784
32.758
32.738
32.727
32.727
32.742
32.773
32.826
32.9
33.0
33.127
33.28
33.459
33.662
33.887
34.132
34.393
34.665
34.944
35.226
35.505
35.778
36.042
36.295
36.532
36.754
36.957
37.142
37.308
37.457
37.59
37.708
37.812
37.903
37.982
38.049
38.105
38.152
38.189
38.217
38.237
38.249
38.254
38.253
38.246
38.235
38.218
38.198
38.175
38.149
38.121
38.093
38.064
38.035
38.006
37.977
37.947
37.916
37.883
37.847
37.808
37.764
37.717
37.665
37.61
37.552
37.49
37.426
37.36
37.291
37.22
37.148
37.076
37.003
36.932
36.863
36.796
36.731
36.67
36.613
36.561
36.514
36.471
36.432
36.396
36.363
36.331
36.303
36.278
36.256
36.238
36.223
36.211
36.201
36.191
36.183
36.174
36.164
36.154
36.142
36.128
36.112
36.094
36.075
36.053
36.029
36.002
35.971
35.937
35.898
35.855
35.808
35.759
35.707
35.652
35.597
35.541
35.485
35.428
35.371
35.314
35.259
35.204
35.151
35.098
35.047
34.998
34.952
34.908
34.867
34.829
34.794
34.761
34.73
34.702
34.676
34.653
34.632
34.614
34.599
34.585
34.573
34.562
34.551
34.54
34.527
34.512
34.492
34.467
34.437
34.402
34.362
34.318
34.272
34.225
34.178
34.132
34.087
34.045
34.005
33.968
33.935
33.906
33.881
33.859
33.841
33.827
33.814
33.804
33.796
33.789
33.782
33.777
33.772
33.768
33.764
33.76
33.755
33.75
33.744
33.735
33.723
33.707
33.687
33.663
33.634
33.601
33.565
33.525
33.484
33.441
33.4
33.36
33.323
33.29
33.261
33.236
33.216
33.198
33.182
33.167
33.152
33.137
33.123
33.11
33.1
33.092
33.088
33.089
33.096
33.109
33.131
33.162
33.206
33.264
33.338
33.431
33.543
33.674
33.825
33.996
34.187
34.398
34.625
34.867
35.121
35.383
35.65
35.917
36.181
36.439
36.689
36.929
37.156
37.368
37.564
37.743
37.902
38.042
38.161
38.261
38.34
38.401
38.445
38.475
38.492
38.497
38.492
38.478
38.456
38.43
38.4
38.367
38.333
38.297
38.261
38.224
38.187
38.151
38.115
38.081
38.047
38.014
37.981
37.947
37.914
37.879
37.843
37.803
37.759
37.711
37.656
37.596
37.531
37.461
37.387
37.31
37.231
37.15
37.069
36.989
36.912
36.841
36.776
36.716
36.663
36.615
36.573
36.537
36.506
36.479
36.455
36.434
36.413
36.392
36.371
36.349
36.327
36.304
36.28
36.255
36.229
36.203
36.178
36.153
36.127
36.1
36.072
36.042
36.01
35.976
35.94
35.9
35.857
35.81
35.76
35.706
35.649
35.592
35.536
35.482
35.431
35.384
35.342
35.303
35.269
35.238
35.209
35.181
35.153
35.122
35.088
35.051
35.008
34.961
34.909
34.854
34.794
34.731
34.666
34.598
34.531
34.464
34.401
34.343
34.29
34.244
34.204
34.171
34.144
34.123
34.108
34.097
34.091
34.088
34.088
34.089
34.09
34.091
34.091
34.089
34.087
34.082
34.076
34.066
34.054
34.036
34.014
33.988
33.958
33.925
33.889
33.851
33.812
33.773
33.735
33.699
33.664
33.631
33.599
33.569
33.542
33.519
33.501
33.488
33.479
33.474
33.473
33.474
33.476
33.478
33.478
33.476
33.47
33.461
33.447
33.429
33.408
33.382
33.353
33.322
33.288
33.253
33.219
33.185
33.152
33.122
33.094
33.068
33.044
33.022
33.0
32.98
32.962
32.944
32.929
32.914
32.9
32.889
32.88
32.874
32.872
32.876
32.888
32.909
32.942
32.99
33.056
33.142
33.251
33.384
33.544
33.731
33.944
34.182
34.441
34.717
35.007
35.307
35.611
35.914
36.214
36.505
36.783
37.045
37.287
37.508
37.708
37.887
38.045
38.183
38.303
38.406
38.493
38.566
38.624
38.671
38.705
38.729
38.742
38.747
38.744
38.735
38.72
38.702
38.68
38.654
38.627
38.598
38.568
38.537
38.506
38.476
38.446
38.418
38.39
38.363
38.334
38.304
38.271
38.235
38.196
38.154
38.109
38.059
38.006
37.95
37.891
37.829
37.763
37.693
37.62
37.544
37.466
37.386
37.306
37.225
37.145
37.067
36.99
36.917
36.848
36.784
36.726
36.673
36.626
36.585
36.549
36.517
36.49
36.467
36.447
36.431
36.416
36.403
36.39
36.376
36.359
36.34
36.317
36.29
36.258
36.222
36.181
36.136
36.085
36.03
35.973
35.915
35.856
35.799
35.743
35.69
35.639
35.592
35.549
35.51
35.474
35.441
35.411
35.382
35.353
35.324
35.294
35.261
35.224
35.183
35.138
35.089
35.036
34.981
34.923
34.864
34.806
34.749
34.693
34.641
34.592
34.547
34.508
34.473
34.443
34.415
34.389
34.365
34.342
34.319
34.296
34.274
34.252
34.23
34.208
34.186
34.163
34.14
34.116
34.092
34.068
34.044
34.02
33.996
33.973
33.95
33.927
33.905
33.884
33.864
33.845
33.827
33.81
33.793
33.778
33.765
33.754
33.744
33.737
33.73
33.724
33.718
33.711
33.701
33.689
33.675
33.657
33.637
33.614
33.588
33.561
33.531
33.501
33.468
33.435
33.401
33.365
33.328
33.291
33.254
33.219
33.185
33.154
33.127
33.103
33.083
33.064
33.047
33.03
33.014
33.0
32.989
32.981
32.979
32.983
32.996
33.021
33.06
33.115
33.188
33.282
33.398
33.536
33.696
33.877
34.079
34.3
34.539
34.793
35.058
35.332
35.611
35.892
36.171
36.443
36.706
36.957
37.193
37.413
37.615
37.797
37.959
38.102
38.225
38.328
38.413
38.48
38.53
38.565
38.586
38.596
38.595
38.586
38.57
38.548
38.52
38.489
38.455
38.422
38.39
38.36
38.331
38.304
38.279
38.255
38.232
38.209
38.185
38.161
38.135
38.106
38.074
38.037
37.995
37.947
37.892
37.83
37.763
37.691
37.616
37.539
37.462
37.385
37.31
37.238
37.168
37.102
37.037
36.973
36.909
36.847
36.785
36.725
36.667
36.611
36.559
36.511
36.466
36.426
36.39
36.359
36.334
36.313
36.297
36.285
36.275
36.267
36.26
36.253
36.242
36.227
36.206
36.179
36.144
36.103
36.056
36.004
35.95
35.893
35.835
35.777
35.72
35.665
35.612
35.562
35.514
35.468
35.425
35.385
35.347
35.312
35.277
35.243
35.208
35.169
35.127
35.081
35.029
34.972
34.913
34.851
34.789
34.728
34.669
34.614
34.562
34.514
34.471
34.431
34.396
34.366
34.34
34.319
34.303
34.29
34.281
34.275
34.272
34.27
34.268
34.265
34.259
34.251
34.239
34.225
34.209
34.191
34.172
34.151
34.128
34.103
34.076
34.047
34.017
33.987
33.956
33.925
33.895
33.864
33.835
33.807
33.78
33.755
33.733
33.712
33.691
33.671
33.65
33.628
33.604
33.577
33.548
33.518
33.486
33.453
33.421
33.391
33.361
33.334
33.308
33.284
33.262
33.243
33.225
33.208
33.193
33.178
33.163
33.149
33.136
33.123
33.113
33.107
33.106
33.111
33.126
33.154
33.198
33.261
33.347
33.458
33.595
33.759
33.949
34.163
34.4
34.656
34.927
35.209
35.498
35.79
36.08
36.363
36.635
36.893
37.133
37.352
37.55
37.725
37.877
38.009
38.121
38.217
38.298
38.366
38.423
38.469
38.504
38.529
38.544
38.549
38.546
38.534
38.514
38.487
38.454
38.415
38.372
38.326
38.279
38.231
38.184
38.139
38.097
38.057
38.02
37.984
37.948
37.91
37.871
37.827
37.779
37.725
37.665
37.6
37.529
37.453
37.374
37.292
37.21
37.128
37.048
36.97
36.897
36.827
36.762
36.701
36.644
36.589
36.538
36.488
36.441
36.397
36.355
36.316
36.282
36.252
36.227
36.207
36.192
36.181
36.173
36.168
36.164
36.16
36.157
36.153
36.148
36.138
36.125
36.106
36.08
36.048
36.01
35.966
35.917
35.864
35.808
35.75
35.691
35.633
35.577
35.522
35.47
35.42
35.372
35.326
35.281
35.239
35.198
35.157
35.117
35.075
35.032
34.987
34.939
34.89
34.84
34.79
34.74
34.692
34.645
34.6
34.557
34.516
34.477
34.44
34.405
34.371
34.338
34.306
34.275
34.244
34.214
34.187
34.162
34.141
34.124
34.11
34.099
34.091
34.086
34.083
34.081
34.08
34.079
34.076
34.072
34.065
34.055
34.042
34.027
34.009
33.99
33.97
33.948
33.925
33.9
33.872
33.842
33.811
33.777
33.742
33.705
33.668
33.631
33.594
33.558
33.524
33.489
33.456
33.422
33.389
33.358
33.33
33.304
33.284
33.27
33.264
33.267
33.281
33.308
33.351
33.411
33.491
33.592
33.714
33.858
34.024
34.21
34.414
34.634
34.868
35.112
35.362
35.616
35.87
36.121
36.366
36.602
36.826
37.036
37.229
37.402
37.556
37.689
37.802
37.895
37.968
38.024
38.064
38.09
38.104
38.108
38.103
38.09
38.071
38.048
38.021
37.992
37.961
37.929
37.895
37.859
37.82
37.778
37.733
37.684
37.632
37.575
37.516
37.453
37.387
37.321
37.253
37.184
37.116
37.046
36.977
36.907
36.837
36.768
36.7
36.631
36.564
36.497
36.431
36.366
36.302
36.24
36.18
36.124
36.07
36.022
35.978
35.94
35.907
35.879
35.856
35.839
35.826
35.817
35.81
35.805
35.801
35.797
35.793
35.787
35.778
35.762
35.738
35.706
35.668
35.626
35.582
35.537
35.492
35.449
35.408
35.37
35.336
35.304
35.274
35.245
35.217
35.189
35.16
35.13
35.099
35.065
35.029
34.991
34.949
34.905
34.858
34.809
34.758
34.707
34.657
34.608
34.562
34.517
34.476
34.435
34.396
34.358
34.321
34.286
34.25
34.216
34.183
34.152
34.123
34.097
34.073
34.052
34.034
34.019
34.005
33.992
33.979
33.966
33.953
33.941
33.928
33.915
33.902
33.887
33.869
33.849
33.826
33.801
33.782
33.771
33.77
33.775
33.784
33.792
33.798
33.799
33.794
33.781
33.762
33.736
33.704
33.667
33.626
33.584
33.54
33.498
33.456
33.417
33.379
33.343
33.31
33.28
33.253
33.229
33.208
33.191
33.176
33.166
33.16
33.162
33.172
33.194
33.231
33.284
33.357
33.449
33.563
33.699
33.856
34.035
34.236
34.457
34.695
34.948
35.212
35.483
35.757
36.03
36.299
36.561
36.812
37.048
37.267
37.468
37.649
37.809
37.947
38.066
38.166
38.247
38.311
38.359
38.393
38.416
38.427
38.43
38.424
38.411
38.393
38.372
38.346
38.316
38.283
38.247
38.208
38.167
38.125
38.085
38.046
38.009
37.974
37.941
37.909
37.878
37.846
37.812
37.774
37.732
37.683
37.627
37.564
37.492
37.412
37.325
37.231
37.133
37.033
36.932
36.832
36.736
36.645
36.561
36.486
36.42
36.363
36.316
36.277
36.244
36.217
36.193
36.172
36.151
36.13
36.107
36.082
36.055
36.026
35.994
35.963
35.932
35.903
35.876
35.85
35.824
35.8
35.777
35.755
35.732
35.709
35.685
35.659
35.631
35.598
35.561
35.518
35.471
35.419
35.363
35.303
35.241
35.178
35.116
35.055
34.996
34.941
34.889
34.842
34.798
34.757
34.719
34.682
34.647
34.612
34.576
34.539
34.501
34.462
34.421
34.379
34.334
34.288
34.241
34.194
34.148
34.103
34.061
34.022
33.987
33.956
33.931
33.911
33.894
33.881
33.872
33.864
33.859
33.855
33.853
33.85
33.848
33.845
33.84
33.832
33.821
33.806
33.787
33.764
33.737
33.707
33.676
33.644
33.613
33.583
33.556
33.531
33.51
33.491
33.475
33.46
33.445
33.43
33.413
33.395
33.376
33.356
33.336
33.316
33.295
33.273
33.249
33.223
33.195
33.166
33.136
33.106
33.077
33.049
33.023
32.999
32.978
32.96
32.943
32.929
32.918
32.909
32.902
32.899
32.899
32.903
32.915
32.934
32.965
33.01
33.071
33.151
33.25
33.369
33.51
33.672
33.855
34.058
34.279
34.517
34.769
35.029
35.297
35.568
35.84
36.111
36.378
36.636
36.884
37.119
37.339
37.542
37.727
37.891
38.033
38.153
38.25
38.327
38.384
38.424
38.449
38.461
38.462
38.454
38.439
38.419
38.394
38.366
38.335
38.302
38.267
38.23
38.192
38.155
38.117
38.081
38.046
38.013
37.981
37.95
37.922
37.893
37.863
37.831
37.793
37.749
37.699
37.641
37.574
37.5
37.418
37.329
37.235
37.138
37.04
36.943
36.849
36.759
36.675
36.597
36.524
36.459
36.401
36.351
36.307
36.27
36.239
36.212
36.188
36.167
36.148
36.129
36.11
36.091
36.071
36.049
36.027
36.004
35.979
35.954
35.927
35.898
35.868
35.836
35.803
35.769
35.734
35.698
35.66
35.621
35.58
35.537
35.493
35.449
35.403
35.358
35.312
35.266
35.219
35.172
35.123
35.074
35.024
34.972
34.919
34.864
34.811
34.757
34.706
34.656
34.608
34.561
34.516
34.472
34.43
34.389
34.35
34.313
34.277
34.243
34.21
34.179
34.15
34.123
34.098
34.075
34.054
34.035
34.018
34.002
33.986
33.969
33.951
33.932
33.91
33.886
33.86
33.831
33.801
33.769
33.737
33.704
33.671
33.639
33.607
33.577
33.55
33.524
33.501
33.48
33.459
33.439
33.419
33.398
33.376
33.352
33.327
33.302
33.277
33.252
33.227
33.203
33.178
33.153
33.128
33.103
33.078
33.053
33.03
33.008
32.988
32.971
32.958
32.948
32.942
32.94
32.94
32.941
32.942
32.942
32.941
32.937
32.931
32.922
32.911
32.897
32.88
32.86
32.837
32.812
32.785
32.76
32.738
32.722
32.714
32.719
32.74
32.779
32.841
32.928
33.041
33.18
33.345
33.535
33.747
33.98
34.229
34.492
34.763
35.041
35.321
35.599
35.869
36.129
36.375
36.604
36.814
37.003
37.171
37.317
37.444
37.55
37.64
37.714
37.774
37.822
37.859
37.886
37.903
37.911
37.91
37.901
37.886
37.864
37.837
37.807
37.776
37.745
37.715
37.687
37.662
37.64
37.621
37.604
37.588
37.57
37.55
37.525
37.495
37.458
37.415
37.365
37.308
37.245
37.178
37.106
37.032
36.958
36.883
36.81
36.738
36.668
36.601
36.537
36.475
36.416
36.36
36.305
36.252
36.2
36.15
36.101
36.053
36.008
35.965
35.925
35.887
35.852
35.819
35.792
35.768
35.75
35.736
35.725
35.718
35.712
35.706
35.701
35.695
35.687
35.676
35.662
35.643
35.62
35.593
35.561
35.525
35.484
35.437
35.386
35.33
35.27
35.207
35.142
35.077
35.012
34.949
34.887
34.828
34.773
34.723
34.676
34.632
34.592
34.555
34.52
34.488
34.458
34.431
34.404
34.38
34.356
34.332
34.306
34.279
34.251
34.22
34.188
34.154
34.118
34.081
34.043
34.003
33.963
33.922
33.882
33.844
33.808
33.776
33.749
33.726
33.707
33.692
33.68
33.671
33.663
33.657
33.651
33.644
33.636
33.628
33.618
33.606
33.593
33.578
33.562
33.545
33.527
33.507
33.487
33.466
33.445
33.425
33.404
33.385
33.366
33.347
33.33
33.312
33.294
33.278
33.262
33.247
33.232
33.217
33.203
33.189
33.174
33.159
33.142
33.124
33.104
33.083
33.061
33.037
33.011
32.983
32.952
32.919
32.883
32.847
32.811
32.777
32.745
32.718
32.696
32.68
32.671
32.668
32.673
32.687
32.712
32.748
32.799
32.866
32.951
33.056
33.181
33.327
33.492
33.677
33.879
34.095
34.322
34.557
34.795
35.035
35.272
35.504
35.728
35.944
36.149
36.342
36.522
36.69
36.844
36.986
37.114
37.228
37.328
37.413
37.485
37.542
37.587
37.619
37.639
37.648
37.647
37.638
37.622
37.601
37.577
37.55
37.522
37.493
37.464
37.436
37.41
37.386
37.364
37.342
37.32
37.296
37.269
37.237
37.2
37.157
37.109
37.056
36.999
36.939
36.877
36.814
36.75
36.685
36.62
36.556
36.493
36.431
36.372
36.315
36.261
36.21
36.161
36.115
36.071
36.03
35.992
35.957
35.925
35.896
35.87
35.848
35.828
35.81
35.793
35.776
35.758
35.738
35.718
35.696
35.673
35.649
35.625
35.6
35.574
35.547
35.519
35.49
35.46
35.43
35.398
35.366
35.333
35.3
35.266
35.231
35.197
35.162
35.126
35.087
35.046
35.003
34.957
34.909
34.859
34.808
34.756
34.703
34.649
34.595
34.542
34.491
34.441
34.394
34.349
34.308
34.268
34.23
34.195
34.161
34.13
34.1
34.072
34.045
34.018
33.993
33.969
33.947
33.927
33.911
33.897
33.885
33.876
33.869
33.863
33.857
33.852
33.845
33.836
33.824
33.809
33.789
33.767
33.741
33.713
33.683
33.652
33.62
33.587
33.555
33.525
33.496
33.469
33.446
33.426
33.41
33.397
33.389
33.383
33.379
33.377
33.376
33.373
33.369
33.363
33.353
33.34
33.324
33.305
33.283
33.259
33.233
33.205
33.176
33.147
33.117
33.089
33.063
33.04
33.02
33.004
32.991
32.981
32.975
32.972
32.972
32.972
32.972
32.969
32.963
32.953
32.937
32.916
32.89
32.86
32.827
32.791
32.755
32.717
32.681
32.647
32.618
32.596
32.585
32.587
32.605
32.642
32.7
32.783
32.892
33.03
33.198
33.393
33.615
33.859
34.122
34.399
34.687
34.979
35.271
35.559
35.838
36.104
36.355
36.589
36.805
37.0
37.176
37.333
37.471
37.593
37.7
37.793
37.876
37.948
38.011
38.065
38.11
38.146
38.174
38.194
38.207
38.213
38.212
38.205
38.193
38.178
38.16
38.14
38.118
38.096
38.074
38.053
38.032
38.01
37.989
37.966
37.941
37.915
37.888
37.859
37.828
37.795
37.758
37.718
37.672
37.622
37.565
37.504
37.437
37.367
37.293
37.217
37.14
37.065
36.992
36.922
36.856
36.796
36.74
36.689
36.642
36.601
36.563
36.528
36.497
36.469
36.442
36.418
36.394
36.372
36.349
36.327
36.306
36.284
36.263
36.243
36.223
36.203
36.182
36.159
36.134
36.106
36.074
36.039
36.0
35.956
35.909
35.859
35.807
35.753
35.698
35.645
35.593
35.543
35.495
35.45
35.407
35.366
35.325
35.285
35.243
35.199
35.153
35.103
35.051
34.996
34.939
34.879
34.818
34.756
34.696
34.638
34.584
34.535
34.493
34.459
34.432
34.411
34.396
34.386
34.38
34.378
34.376
34.375
34.371
34.363
34.35
34.331
34.305
34.273
34.238
34.199
34.158
34.117
34.076
34.037
34.001
33.969
33.942
33.921
33.904
33.891
33.882
33.875
33.869
33.864
33.857
33.847
33.834
33.817
33.795
33.769
33.74
33.708
33.676
33.644
33.612
33.583
33.556
33.532
33.513
33.498
33.486
33.477
33.472
33.468
33.465
33.462
33.458
33.452
33.442
33.43
33.414
33.395
33.373
33.348
33.321
33.291
33.259
33.227
33.193
33.161
33.13
33.101
33.074
33.05
33.029
33.01
32.993
32.977
32.96
32.943
32.924
32.904
32.883
32.862
32.841
32.822
32.805
32.792
32.785
32.787
32.802
32.831
32.879
32.949
33.042
33.159
33.303
33.473
33.669
33.888
34.127
34.383
34.651
34.926
35.205
35.482
35.755
36.019
36.271
36.509
36.73
36.933
37.118
37.286
37.435
37.567
37.683
37.785
37.873
37.949
38.014
38.068
38.11
38.142
38.164
38.177
38.182
38.182
38.176
38.165
38.149
38.13
38.108
38.084
38.059
38.034
38.01
37.986
37.963
37.942
37.922
37.903
37.884
37.865
37.844
37.819
37.792
37.761
37.726
37.686
37.641
37.589
37.533
37.471
37.405
37.338
37.269
37.2
37.132
37.067
37.006
36.948
36.895
36.847
36.802
36.761
36.722
36.686
36.652
36.619
36.587
36.554
36.52
36.486
36.451
36.416
36.382
36.348
36.316
36.285
36.256
36.23
36.207
36.186
36.167
36.148
36.128
36.108
36.087
36.062
36.035
36.004
35.968
35.929
35.885
35.838
35.787
35.734
35.679
35.624
35.568
35.514
35.462
35.411
35.362
35.314
35.267
35.221
35.174
35.127
35.08
35.031
34.982
34.933
34.884
34.834
34.784
34.734
34.684
34.636
34.589
34.546
34.505
34.469
34.435
34.406
34.38
34.359
34.341
34.326
34.313
34.302
34.29
34.277
34.264
34.249
34.232
34.214
34.193
34.169
34.141
34.11
34.077
34.041
34.004
33.966
33.928
33.889
33.853
33.819
33.789
33.765
33.746
33.731
33.721
