Trial 3:3back
35.442
35.508
35.567
35.618
35.66
35.693
35.718
35.733
35.739
35.737
35.727
35.71
35.688
35.661
35.631
35.599
35.566
35.534
35.504
35.476
35.45
35.428
35.409
35.393
35.381
35.372
35.366
35.363
35.362
35.363
35.363
35.363
35.362
35.359
35.354
35.346
35.334
35.316
35.294
35.268
35.24
35.211
35.183
35.157
35.134
35.114
35.098
35.086
35.078
35.075
35.077
35.084
35.097
35.113
35.132
35.154
35.177
35.201
35.224
35.246
35.264
35.278
35.288
35.292
35.291
35.285
35.274
35.261
35.245
35.227
35.207
35.185
35.161
35.138
35.115
35.094
35.074
35.056
35.041
35.027
35.017
35.008
35.002
34.998
34.996
34.996
34.996
34.994
34.99
34.983
34.974
34.961
34.945
34.925
34.902
34.877
34.851
34.822
34.794
34.766
34.74
34.718
34.7
34.686
34.674
34.663
34.654
34.648
34.643
34.64
34.638
34.637
34.636
34.634
34.632
34.628
34.623
34.617
34.608
34.597
34.584
34.567
34.549
34.529
34.51
34.492
34.476
34.462
34.452
34.446
34.445
34.452
34.466
34.488
34.519
34.558
34.606
34.662
34.727
34.8
34.88
34.965
35.054
35.144
35.234
35.322
35.407
35.486
35.56
35.626
35.684
35.733
35.774
35.807
35.831
35.846
35.855
35.856
35.852
35.844
35.831
35.815
35.798
35.78
35.763
35.747
35.733
35.719
35.706
35.694
35.684
35.674
35.664
35.655
35.646
35.635
35.623
35.609
35.591
35.57
35.547
35.522
35.496
35.468
35.441
35.414
35.388
35.366
35.347
35.332
35.321
35.313
35.309
35.308
35.311
35.317
35.326
35.338
35.352
35.367
35.382
35.396
35.408
35.418
35.425
35.429
35.429
35.425
35.419
35.411
35.4
35.388
35.375
35.362
35.348
35.336
35.326
35.317
35.309
35.302
35.296
35.292
35.288
35.286
35.283
35.279
35.274
35.268
35.261
35.252
35.241
35.227
35.209
35.188
35.164
35.139
35.111
35.083
35.055
35.027
34.998
34.969
34.942
34.916
34.892
34.871
34.852
34.836
34.823
34.812
34.803
34.796
34.79
34.785
34.781
34.777
34.773
34.767
34.76
34.751
34.741
34.728
34.714
34.698
34.68
34.66
34.639
34.615
34.591
34.566
34.544
34.523
34.505
34.491
34.48
34.473
34.47
34.473
34.48
34.494
34.513
34.539
34.569
34.605
34.647
34.695
34.749
34.809
34.874
34.943
35.016
35.091
35.168
35.247
35.325
35.403
35.48
35.554
35.622
35.682
35.729
35.766
35.792
35.809
35.821
35.828
35.834
35.839
35.846
35.855
35.867
35.881
35.897
35.912
35.927
35.941
35.951
35.958
35.961
35.958
35.949
35.935
35.916
35.893
35.867
35.839
35.81
35.78
35.75
35.72
35.691
35.663
35.638
35.616
35.597
35.581
35.569
35.561
35.555
35.551
35.55
35.552
35.555
35.559
35.563
35.567
35.57
35.572
35.573
35.572
35.569
35.564
35.556
35.546
35.534
35.518
35.501
35.482
35.464
35.447
35.433
35.422
35.414
35.412
35.413
35.419
35.427
35.437
35.448
35.458
35.467
35.474
35.478
35.48
35.477
35.469
35.457
35.44
35.418
35.393
35.365
35.334
35.301
35.266
35.231
35.196
35.162
35.129
35.099
35.071
35.047
35.025
35.007
34.992
34.981
34.973
34.968
34.966
34.966
34.968
34.969
34.97
34.968
34.963
34.956
34.944
34.93
34.912
34.892
34.869
34.844
34.818
34.792
34.767
34.743
34.72
34.701
34.683
34.667
34.653
34.642
34.633
34.627
34.624
34.623
34.624
34.626
34.629
34.634
34.639
34.646
34.655
34.666
34.681
34.698
34.72
34.747
34.78
34.818
34.862
34.913
34.969
35.032
35.1
35.173
35.25
35.33
35.413
35.496
35.579
35.66
35.737
35.811
35.879
35.94
35.993
36.037
36.071
36.096
36.112
36.12
36.119
36.11
36.095
36.074
36.047
36.015
35.98
35.944
35.907
35.872
35.838
35.808
35.78
35.756
35.735
35.717
35.704
35.695
35.689
35.687
35.686
35.685
35.685
35.685
35.684
35.682
35.678
35.671
35.661
35.648
35.631
35.612
35.591
35.568
35.543
35.518
35.493
35.469
35.446
35.427
35.41
35.398
35.391
35.387
35.388
35.393
35.405
35.425
35.454
35.491
35.532
35.575
35.616
35.651
35.679
35.698
35.706
35.703
35.691
35.669
35.64
35.605
35.565
35.521
35.475
35.429
35.383
35.339
35.299
35.262
35.229
35.2
35.176
35.156
35.142
35.131
35.124
35.119
35.116
35.112
35.109
35.106
35.103
35.098
35.091
35.081
35.068
35.052
35.033
35.011
34.988
34.964
34.937
34.91
34.881
34.852
34.824
34.798
34.774
34.753
34.734
34.719
34.706
34.695
34.687
34.68
34.675
34.673
34.673
34.675
34.679
34.682
34.685
34.686
34.685
34.681
34.674
34.664
34.649
34.631
34.611
34.59
34.569
34.551
34.538
34.531
34.531
34.54
34.559
34.588
34.628
34.678
34.74
34.812
34.894
34.984
35.081
35.183
35.288
35.392
35.493
35.589
35.678
35.758
35.828
35.888
35.937
35.975
36.003
36.021
36.029
36.028
36.02
36.005
35.987
35.965
35.942
35.917
35.892
35.867
35.844
35.823
35.804
35.788
35.775
35.765
35.757
35.75
35.743
35.736
35.728
35.719
35.708
35.694
35.677
35.656
35.632
35.606
35.578
35.55
35.521
35.493
35.466
35.44
35.416
35.395
35.376
35.362
35.351
35.345
35.343
35.344
35.349
35.357
35.368
35.382
35.397
35.414
35.43
35.445
35.458
35.468
35.476
35.48
35.481
35.479
35.474
35.466
35.455
35.442
35.428
35.412
35.396
35.38
35.365
35.35
35.337
35.327
35.32
35.316
35.314
35.314
35.315
35.316
35.317
35.316
35.314
35.309
35.302
35.291
35.278
35.26
35.24
35.217
35.192
35.165
35.137
35.108
35.078
35.048
35.019
34.992
34.966
34.943
34.922
34.904
34.889
34.876
34.865
34.855
34.848
34.842
34.837
34.833
34.828
34.823
34.816
34.808
34.798
34.785
34.769
34.751
34.729
34.706
34.68
34.652
34.623
34.594
34.567
34.544
34.528
34.52
34.52
34.527
34.541
34.559
34.58
34.605
34.632
34.663
34.697
34.734
34.776
34.821
34.871
34.926
34.985
35.047
35.112
35.178
35.246
35.314
35.382
35.449
35.513
35.574
35.632
35.685
35.733
35.776
35.812
35.843
35.867
35.885
35.898
35.905
35.909
35.909
35.906
35.9
35.892
35.88
35.864
35.845
35.824
35.8
35.774
35.746
35.717
35.687
35.658
35.629
35.6
35.574
35.549
35.526
35.506
35.487
35.469
35.451
35.433
35.416
35.4
35.386
35.374
35.365
35.357
35.352
35.348
35.346
35.346
35.348
35.353
35.358
35.364
35.37
35.376
35.38
35.385
35.388
35.391
35.393
35.395
35.395
35.396
35.398
35.401
35.405
35.411
35.419
35.429
35.441
35.453
35.464
35.475
35.485
35.493
35.499
35.503
35.503
35.499
35.491
35.479
35.461
35.439
35.412
35.38
35.345
35.308
35.268
35.228
35.187
35.148
35.112
35.078
35.047
35.02
34.997
34.979
34.964
34.954
34.948
34.944
34.943
34.943
34.944
34.945
34.944
34.941
34.935
34.927
34.915
34.898
34.878
34.855
34.83
34.804
34.778
34.752
34.726
34.701
34.678
34.657
34.639
34.625
34.614
34.606
34.6
34.598
34.598
34.601
34.607
34.616
34.628
34.641
34.657
34.675
34.697
34.722
34.752
34.787
34.827
34.872
34.924
34.982
35.045
35.115
35.189
35.269
35.353
35.441
35.53
35.619
35.706
35.79
35.869
35.942
36.008
36.066
36.115
36.156
36.189
36.214
36.231
36.241
36.245
36.241
36.231
36.216
36.196
36.172
36.144
36.114
36.08
36.046
36.01
35.974
35.938
35.901
35.865
35.831
35.8
35.773
35.749
35.73
35.715
35.704
35.698
35.694
35.692
35.69
35.687
35.683
35.676
35.668
35.658
35.645
35.631
35.614
35.595
35.575
35.554
35.534
35.515
35.498
35.484
35.473
35.466
35.464
35.466
35.471
35.481
35.495
35.512
35.531
35.551
35.574
35.596
35.617
35.635
35.651
35.661
35.667
35.667
35.662
35.652
35.638
35.621
35.6
35.576
35.55
35.521
35.489
35.457
35.423
35.391
35.359
35.33
35.304
35.281
35.261
35.245
35.232
35.222
35.215
35.209
35.204
35.199
35.194
35.188
35.182
35.175
35.167
35.156
35.143
35.126
35.107
35.085
35.061
35.036
35.01
34.984
34.957
34.931
34.905
34.882
34.861
34.843
34.828
34.816
34.807
34.8
34.796
34.793
34.793
34.793
34.794
34.795
34.795
34.793
34.789
34.785
34.78
34.775
34.773
34.773
34.777
34.785
34.8
34.822
34.853
34.893
34.943
35.003
35.073
35.152
35.239
35.334
35.433
35.535
35.639
35.741
35.841
35.935
36.022
36.1
36.169
36.228
36.275
36.31
36.335
36.348
36.351
36.344
36.33
36.308
36.279
36.244
36.206
36.165
36.123
36.083
36.045
36.011
35.981
35.954
35.93
35.91
35.894
35.882
35.875
35.871
35.87
35.871
35.872
35.873
35.871
35.868
35.861
35.85
35.835
35.815
35.791
35.763
35.733
35.701
35.668
35.636
35.605
35.577
35.552
35.531
35.514
35.502
35.494
35.491
35.492
35.498
35.506
35.516
35.528
35.54
35.553
35.565
35.576
35.586
35.594
35.6
35.604
35.605
35.602
35.597
35.588
35.575
35.558
35.537
35.512
35.485
35.455
35.424
35.391
35.359
35.328
35.3
35.281
35.27
35.269
35.275
35.285
35.297
35.307
35.314
35.316
35.311
35.299
35.28
35.253
35.218
35.178
35.133
35.085
35.035
34.985
34.936
34.887
34.841
34.798
34.758
34.723
34.693
34.669
34.649
34.633
34.622
34.615
34.611
34.609
34.609
34.61
34.613
34.615
34.617
34.617
34.615
34.61
34.602
34.592
34.58
34.565
34.548
34.529
34.509
34.49
34.474
34.462
34.458
34.461
34.475
34.499
34.534
34.58
34.637
34.704
34.782
34.871
34.967
35.07
35.178
35.289
35.399
35.507
35.611
35.707
35.794
35.87
35.933
35.983
36.021
36.046
36.059
36.063
36.058
36.044
36.024
35.999
35.97
35.94
35.91
35.88
35.851
35.823
35.798
35.775
35.755
35.738
35.724
35.713
35.704
35.699
35.694
35.69
35.686
35.679
35.671
35.66
35.645
35.627
35.606
35.581
35.554
35.524
35.494
35.461
35.429
35.397
35.366
35.339
35.314
35.295
35.28
35.27
35.266
35.267
35.272
35.281
35.293
35.309
35.326
35.344
35.361
35.376
35.389
35.401
35.41
35.417
35.421
35.421
35.418
35.412
35.402
35.389
35.374
35.358
35.341
35.323
35.306
35.29
35.274
35.259
35.246
35.235
35.224
35.215
35.206
35.198
35.192
35.187
35.181
35.176
35.168
35.158
35.146
35.131
35.114
35.092
35.067
35.038
35.007
34.975
34.942
34.909
34.876
34.845
34.816
34.789
34.765
34.744
34.725
34.709
34.697
34.688
34.683
34.68
34.68
34.681
34.682
34.682
34.681
34.677
34.672
34.666
34.657
34.646
34.632
34.617
34.601
34.585
34.57
34.555
34.543
34.534
34.529
34.528
34.535
34.549
34.572
34.606
34.651
34.707
34.773
34.847
34.929
35.019
35.115
35.215
35.317
35.418
35.516
35.609
35.696
35.776
35.847
35.908
35.958
35.998
36.027
36.047
36.056
36.058
36.052
36.042
36.034
36.033
36.04
36.052
36.067
36.082
36.092
36.097
36.093
36.082
36.064
36.039
36.01
35.975
35.938
35.898
35.857
35.816
35.774
35.732
35.69
35.648
35.608
35.569
35.532
35.498
35.467
35.438
35.414
35.394
35.378
35.366
35.358
35.354
35.354
35.358
35.365
35.376
35.39
35.405
35.422
35.439
35.454
35.468
35.479
35.489
35.497
35.502
35.503
35.501
35.495
35.487
35.476
35.463
35.449
35.432
35.414
35.394
35.375
35.356
35.338
35.321
35.307
35.294
35.283
35.274
35.266
35.261
35.257
35.255
35.255
35.253
35.25
35.244
35.234
35.22
35.202
35.179
35.152
35.12
35.086
35.05
35.013
34.976
34.94
34.906
34.875
34.848
34.824
34.803
34.784
34.767
34.752
34.739
34.729
34.722
34.717
34.714
34.712
34.711
34.709
34.706
34.701
34.696
34.687
34.675
34.659
34.639
34.617
34.592
34.566
34.54
34.516
34.493
34.473
34.457
34.446
34.442
34.445
34.457
34.478
34.509
34.551
34.602
34.663
34.733
34.812
34.899
34.992
35.088
35.187
35.286
35.384
35.478
35.568
35.652
35.729
35.799
35.859
35.91
35.952
35.985
36.01
36.028
36.039
36.045
36.046
36.043
36.037
36.029
36.018
36.006
35.993
35.981
35.968
35.956
35.943
35.93
35.917
35.904
35.89
35.875
35.858
35.839
35.819
35.796
35.772
35.747
35.72
35.692
35.662
35.631
35.601
35.571
35.543
35.517
35.492
35.47
35.45
35.432
35.419
35.409
35.403
35.399
35.398
35.398
35.399
35.401
35.403
35.407
35.41
35.414
35.417
35.42
35.422
35.422
35.421
35.419
35.416
35.412
35.407
35.402
35.401
35.405
35.415
35.431
35.451
35.471
35.491
35.507
35.517
35.522
35.52
35.511
35.496
35.475
35.448
35.416
35.381
35.343
35.303
35.262
35.221
35.181
35.141
35.103
35.066
35.03
34.996
34.966
34.938
34.915
34.896
34.88
34.867
34.857
34.849
34.845
34.842
34.842
34.841
34.841
34.839
34.835
34.829
34.822
34.812
34.802
34.789
34.775
34.759
34.74
34.721
34.701
34.68
34.661
34.643
34.627
34.612
34.6
34.59
34.584
34.582
34.584
34.591
34.602
34.618
34.64
34.668
34.702
34.744
34.792
34.847
34.909
34.977
35.049
35.125
35.204
35.284
35.365
35.446
35.524
35.599
35.67
35.737
35.798
35.853
35.903
35.947
35.985
36.017
36.044
36.065
36.08
36.092
36.099
36.102
36.101
36.095
36.084
36.07
36.051
36.029
36.004
35.976
35.946
35.913
35.88
35.845
35.81
35.776
35.743
35.71
35.679
35.649
35.621
35.595
35.571
35.55
35.532
35.517
35.502
35.49
35.479
35.47
35.463
35.457
35.453
35.449
35.444
35.439
35.432
35.425
35.416
35.406
35.395
35.383
35.371
35.358
35.346
35.334
35.325
35.318
35.313
35.31
35.309
35.309
35.311
35.313
35.317
35.322
35.328
35.334
35.341
35.348
35.353
35.356
35.357
35.355
35.349
35.34
35.327
35.31
35.289
35.266
35.24
35.211
35.181
35.15
35.118
35.086
35.055
35.024
34.996
34.971
34.949
34.93
34.915
34.904
34.896
34.891
34.889
34.89
34.891
34.892
34.891
34.888
34.882
34.874
34.863
34.849
34.833
34.814
34.792
34.767
34.741
34.714
34.688
34.663
34.64
34.62
34.603
34.588
34.575
34.565
34.557
34.553
34.551
34.552
34.554
34.558
34.563
34.567
34.571
34.574
34.576
34.577
34.577
34.577
34.577
34.579
34.583
34.593
34.608
34.631
34.662
34.702
34.751
34.81
34.878
34.954
35.037
35.127
35.221
35.318
35.415
35.511
35.603
35.69
35.77
35.842
35.904
35.955
35.994
36.02
36.035
36.039
36.033
36.019
35.996
35.967
35.932
35.893
35.85
35.806
35.762
35.72
35.68
35.644
35.611
35.584
35.561
35.543
35.528
35.517
35.508
35.501
35.495
35.49
35.486
35.481
35.475
35.468
35.458
35.447
35.433
35.418
35.4
35.382
35.362
35.341
35.32
35.298
35.276
35.254
35.235
35.219
35.207
35.198
35.194
35.193
35.195
35.201
35.209
35.22
35.233
35.247
35.262
35.277
35.29
35.301
35.31
35.315
35.317
35.316
35.312
35.303
35.29
35.273
35.251
35.225
35.198
35.169
35.14
35.111
35.083
35.057
35.032
35.009
34.989
34.972
34.957
34.945
34.934
34.926
34.919
34.913
34.908
34.902
34.895
34.886
34.874
34.86
34.842
34.822
34.798
34.773
34.746
34.719
34.69
34.663
34.636
34.612
34.59
34.571
34.555
34.542
34.531
34.523
34.517
34.513
34.51
34.508
34.507
34.507
34.506
34.504
34.5
34.494
34.487
34.479
34.468
34.456
34.442
34.427
34.411
34.395
34.378
34.363
34.349
34.339
34.333
34.332
34.338
34.353
34.377
34.411
34.456
34.51
34.573
34.645
34.723
34.808
34.897
34.99
35.084
35.177
35.268
35.353
35.431
35.501
35.561
35.613
35.654
35.685
35.707
35.719
35.721
35.716
35.704
35.687
35.667
35.644
35.62
35.594
35.569
35.545
35.523
35.503
35.485
35.47
35.457
35.443
35.43
35.416
35.4
35.383
35.364
35.343
35.319
35.293
35.266
35.238
35.208
35.178
35.149
35.121
35.094
35.07
35.048
35.029
35.013
35.001
34.994
34.991
34.992
34.997
35.006
35.017
35.031
35.046
35.063
35.081
35.098
35.115
35.13
35.138
35.132
35.112
35.079
35.035
34.986
34.936
34.888
34.846
34.815
34.794
34.787
34.791
34.806
34.831
34.862
34.899
34.938
34.977
35.014
35.048
35.077
35.1
35.115
35.122
35.121
35.113
35.097
35.076
35.048
35.017
34.982
34.946
34.91
34.874
34.839
34.807
34.776
34.749
34.724
34.702
34.682
34.666
34.652
34.641
34.633
34.627
34.623
34.619
34.617
34.616
34.614
34.613
34.611
34.607
34.602
34.594
34.582
34.567
34.55
34.531
34.511
34.489
34.466
34.443
34.42
34.398
34.378
34.362
34.35
34.343
34.342
34.348
34.36
34.38
34.406
34.44
34.481
34.528
34.581
34.638
34.701
34.767
34.838
34.912
34.989
35.067
35.144
35.221
35.294
35.362
35.425
35.481
35.53
35.573
35.609
35.638
35.661
35.679
35.691
35.699
35.702
35.701
35.697
35.689
35.679
35.666
35.651
35.632
35.612
35.589
35.565
35.54
35.512
35.482
35.449
35.414
35.378
35.342
35.307
35.274
35.243
35.213
35.186
35.161
35.139
35.119
35.103
35.09
35.08
35.072
35.067
35.065
35.065
35.067
35.071
35.075
35.08
35.084
35.087
35.089
35.089
35.088
35.085
35.082
35.079
35.075
35.071
35.066
35.061
35.057
35.054
35.053
35.052
35.053
35.055
35.058
35.064
35.071
35.079
35.087
35.095
35.103
35.108
35.111
35.11
35.105
35.097
35.085
35.069
35.049
35.025
34.998
34.967
34.935
34.901
34.866
34.832
34.799
34.769
34.742
34.718
34.698
34.682
34.669
34.66
34.653
34.649
34.646
34.645
34.645
34.646
34.647
34.648
34.648
34.646
34.641
34.633
34.62
34.605
34.586
34.565
34.542
34.519
34.495
34.473
34.453
34.435
34.42
34.406
34.394
34.385
34.378
34.374
34.374
34.377
34.384
34.396
34.412
34.434
34.462
34.495
34.535
34.58
34.631
34.686
34.746
34.81
34.878
34.948
35.02
35.093
35.166
35.238
35.309
35.378
35.443
35.504
35.56
35.61
35.656
35.697
35.731
35.76
35.783
35.8
35.812
35.817
35.818
35.815
35.806
35.793
35.776
35.754
35.728
35.699
35.667
35.632
35.594
35.554
35.513
35.47
35.426
35.385
35.346
35.31
35.279
35.252
35.229
35.21
35.194
35.181
35.171
35.166
35.163
35.164
35.167
35.171
35.176
35.179
35.182
35.184
35.185
35.183
35.181
35.177
35.171
35.163
35.154
35.144
35.134
35.126
35.118
35.111
35.106
35.103
35.102
35.105
35.111
35.12
35.13
35.143
35.155
35.168
35.18
35.19
35.198
35.204
35.207
35.205
35.199
35.188
35.172
35.152
35.129
35.102
35.073
35.042
35.009
34.976
34.943
34.912
34.882
34.855
34.831
34.811
34.793
34.779
34.768
34.759
34.752
34.746
34.741
34.736
34.731
34.726
34.72
34.713
34.705
34.694
34.682
34.668
34.651
34.632
34.609
34.583
34.554
34.525
34.495
34.467
34.441
34.418
34.398
34.381
34.368
34.359
34.354
34.352
34.353
34.356
34.362
34.369
34.378
34.39
34.405
34.423
34.446
34.472
34.502
34.537
34.577
34.621
34.67
34.724
34.783
34.847
34.915
34.985
35.058
35.131
35.204
35.276
35.346
35.414
35.477
35.537
35.591
35.64
35.681
35.716
35.744
35.763
35.775
35.779
35.776
35.765
35.748
35.726
35.698
35.667
35.634
35.598
35.562
35.525
35.49
35.456
35.425
35.397
35.372
35.349
35.329
35.312
35.296
35.283
35.271
35.261
35.253
35.246
35.239
35.233
35.227
35.22
35.213
35.206
35.2
35.196
35.194
35.193
35.192
35.19
35.185
35.177
35.166
35.154
35.139
35.125
35.11
35.097
35.085
35.075
35.068
35.064
35.063
35.064
35.068
35.075
35.083
35.091
35.098
35.103
35.106
35.105
35.101
35.093
35.081
35.066
35.048
35.026
35.002
34.976
34.948
34.918
34.89
34.862
34.837
34.814
34.793
34.775
34.758
34.743
34.73
34.718
34.708
34.698
34.689
34.679
34.669
34.658
34.645
34.632
34.618
34.604
34.59
34.574
34.557
34.538
34.517
34.495
34.471
34.446
34.421
34.396
34.372
34.351
34.331
34.314
34.301
34.291
34.284
34.28
34.278
34.277
34.277
34.279
34.281
34.283
34.286
34.288
34.291
34.294
34.296
34.299
34.303
34.309
34.32
34.336
34.358
34.388
34.426
34.472
34.528
34.593
34.666
34.748
34.836
34.928
35.022
35.116
35.209
35.299
35.386
35.467
35.542
35.608
35.665
35.711
35.746
35.77
35.785
35.79
35.786
35.773
35.753
35.726
35.694
35.658
35.62
35.58
35.54
35.502
35.466
35.432
