Trial 3:3back
34.124
34.111
34.098
34.085
34.072
34.06
34.048
34.038
34.028
34.019
34.009
33.999
33.99
33.98
33.97
33.959
33.949
33.94
33.934
33.93
33.931
33.939
33.955
33.981
34.018
34.066
34.126
34.198
34.28
34.37
34.468
34.572
34.681
34.792
34.904
35.017
35.128
35.237
35.342
35.442
35.537
35.628
35.714
35.795
35.872
35.945
36.016
36.083
36.148
36.209
36.267
36.321
36.37
36.415
36.454
36.487
36.515
36.538
36.554
36.564
36.568
36.567
36.561
36.552
36.54
36.526
36.512
36.498
36.483
36.467
36.45
36.433
36.416
36.399
36.381
36.364
36.347
36.329
36.312
36.293
36.275
36.256
36.237
36.216
36.195
36.172
36.146
36.119
36.089
36.057
36.023
35.986
35.948
35.91
35.873
35.837
35.803
35.771
35.741
35.715
35.693
35.674
35.66
35.649
35.643
35.64
35.641
35.645
35.653
35.663
35.675
35.688
35.701
35.714
35.728
35.74
35.752
35.762
35.768
35.771
35.77
35.762
35.749
35.73
35.705
35.675
35.642
35.604
35.564
35.521
35.477
35.431
35.387
35.345
35.307
35.273
35.243
35.217
35.194
35.175
35.158
35.143
35.129
35.116
35.101
35.085
35.067
35.047
35.025
35.001
34.976
34.949
34.922
34.896
34.871
34.848
34.826
34.805
34.785
34.764
34.743
34.721
34.699
34.677
34.655
34.635
34.615
34.596
34.578
34.56
34.542
34.523
34.503
34.484
34.465
34.447
34.429
34.412
34.397
34.384
34.373
34.365
34.36
34.357
34.355
34.353
34.35
34.347
34.344
34.338
34.329
34.316
34.299
34.278
34.253
34.223
34.191
34.158
34.126
34.096
34.07
34.049
34.035
34.028
34.03
34.041
34.064
34.098
34.144
34.203
34.273
34.354
34.446
34.547
34.656
34.77
34.888
35.008
35.128
35.247
35.365
35.481
35.594
35.705
35.813
35.918
36.019
36.118
36.212
36.299
36.381
36.455
36.521
36.58
36.63
36.674
36.709
36.736
36.755
36.767
36.772
36.772
36.768
36.761
36.752
36.742
36.732
36.722
36.712
36.702
36.693
36.684
36.676
36.667
36.657
36.645
36.633
36.619
36.604
36.589
36.575
36.562
36.548
36.535
36.52
36.505
36.487
36.468
36.447
36.422
36.394
36.363
36.329
36.293
36.256
36.218
36.179
36.141
36.105
36.07
36.038
36.009
35.982
35.959
35.938
35.921
35.907
35.898
35.892
35.89
35.891
35.896
35.903
35.911
35.921
35.932
35.943
35.955
35.965
35.972
35.977
35.979
35.976
35.97
35.958
35.941
35.92
35.893
35.863
35.83
35.794
35.757
35.719
35.683
35.649
35.616
35.586
35.558
35.533
35.51
35.487
35.465
35.443
35.418
35.39
35.358
35.322
35.283
35.243
35.2
35.158
35.115
35.073
35.032
34.995
34.961
34.931
34.906
34.886
34.87
34.857
34.847
34.839
34.832
34.827
34.821
34.814
34.806
34.796
34.784
34.771
34.755
34.737
34.717
34.695
34.672
34.646
34.617
34.586
34.553
34.52
34.487
34.455
34.428
34.406
34.388
34.376
34.368
34.364
34.362
34.363
34.364
34.363
34.362
34.36
34.357
34.352
34.345
34.336
34.324
34.309
34.291
34.271
34.248
34.223
34.198
34.172
34.147
34.122
34.1
34.082
34.067
34.058
34.056
34.062
34.075
34.096
34.127
34.166
34.217
34.278
34.351
34.435
34.529
34.632
34.742
34.858
34.979
35.105
35.233
35.364
35.494
35.624
35.752
35.878
36.0
36.117
36.229
36.334
36.431
36.519
36.597
36.667
36.727
36.778
36.818
36.849
36.87
36.881
36.885
36.881
36.872
36.858
36.842
36.825
36.809
36.795
36.783
36.774
36.768
36.765
36.764
36.764
36.765
36.766
36.764
36.761
36.753
36.742
36.726
36.706
36.682
36.655
36.626
36.595
36.563
36.531
36.497
36.462
36.426
36.388
36.35
36.311
36.272
36.233
36.193
36.155
36.118
36.085
36.055
36.031
36.011
35.997
35.988
35.984
35.984
35.988
35.994
36.001
36.007
36.011
36.011
36.008
36.001
35.99
35.976
35.958
35.938
35.918
35.896
35.875
35.854
35.835
35.819
35.805
35.793
35.783
35.775
35.769
35.762
35.755
35.745
35.731
35.712
35.688
35.659
35.624
35.584
35.54
35.494
35.446
35.397
35.348
35.299
35.253
35.21
35.173
35.141
35.113
35.089
35.069
35.05
35.034
35.018
35.002
34.987
34.97
34.95
34.928
34.902
34.875
34.846
34.816
34.787
34.759
34.733
34.71
34.69
34.672
34.658
34.645
34.635
34.627
34.62
34.613
34.604
34.593
34.578
34.561
34.542
34.52
34.496
34.47
34.443
34.415
34.387
34.36
34.335
34.313
34.295
34.281
34.272
34.268
34.268
34.27
34.275
34.281
34.288
34.293
34.293
34.283
34.265
34.239
34.207
34.172
34.136
34.101
34.069
34.042
34.021
34.007
34.003
34.008
34.023
34.049
34.086
34.134
34.194
34.267
34.351
34.446
34.552
34.666
34.786
34.913
35.044
35.177
35.312
35.448
35.582
35.715
35.844
35.968
36.087
36.2
36.306
36.404
36.494
36.576
36.65
36.715
36.771
36.817
36.855
36.885
36.907
36.923
36.933
36.937
36.938
36.934
36.927
36.917
36.904
36.887
36.869
36.848
36.826
36.804
36.783
36.762
36.742
36.724
36.707
36.693
36.68
36.668
36.657
36.644
36.623
36.592
36.551
36.503
36.45
36.395
36.338
36.283
36.232
36.185
36.145
36.112
36.084
36.061
36.042
36.025
36.01
35.996
35.983
35.971
35.961
35.953
35.947
35.942
35.94
35.94
35.942
35.946
35.951
35.959
35.967
35.976
35.984
35.992
35.998
36.002
36.004
36.003
35.999
35.992
35.981
35.967
35.949
35.928
35.904
35.878
35.849
35.819
35.789
35.759
35.729
35.701
35.673
35.646
35.619
35.59
35.559
35.526
35.491
35.453
35.412
35.368
35.323
35.276
35.231
35.187
35.145
35.107
35.073
35.043
35.017
34.995
34.975
34.958
34.941
34.926
34.91
34.894
34.877
34.858
34.838
34.816
34.791
34.765
34.737
34.708
34.677
34.645
34.612
34.581
34.552
34.527
34.506
34.489
34.474
34.463
34.455
34.449
34.445
34.442
34.438
34.434
34.428
34.42
34.411
34.4
34.387
34.372
34.356
34.34
34.323
34.307
34.292
34.279
34.267
34.256
34.246
34.237
34.228
34.221
34.214
34.209
34.208
34.211
34.221
34.238
34.264
34.3
34.348
34.408
34.483
34.572
34.676
34.794
34.924
35.065
35.214
35.37
35.528
35.684
35.834
35.974
36.105
36.226
36.337
36.438
36.531
36.615
36.69
36.758
36.818
36.871
36.918
36.959
36.995
37.026
37.051
37.069
37.081
37.086
37.085
37.077
37.064
37.048
37.029
37.01
36.989
36.969
36.95
36.932
36.914
36.896
36.877
36.856
36.833
36.807
36.779
36.749
36.717
36.683
36.648
36.611
36.574
36.537
36.501
36.466
36.432
36.397
36.364
36.331
36.299
36.268
36.238
36.209
36.18
36.153
36.128
36.103
36.081
36.059
36.039
36.019
36.001
35.984
35.969
35.956
35.945
35.936
35.928
35.92
35.912
35.904
35.895
35.885
35.877
35.87
35.864
35.86
35.859
35.86
35.862
35.865
35.867
35.869
35.868
35.863
35.854
35.839
35.818
35.792
35.759
35.72
35.676
35.627
35.574
35.519
35.464
35.41
35.359
35.311
35.267
35.227
35.191
35.159
35.131
35.105
35.081
35.059
35.035
35.01
34.983
34.955
34.925
34.894
34.861
34.827
34.793
34.759
34.725
34.692
34.66
34.63
34.601
34.575
34.55
34.527
34.504
34.48
34.457
34.432
34.406
34.38
34.353
34.328
34.304
34.282
34.262
34.246
34.234
34.225
34.219
34.215
34.211
34.207
34.204
34.2
34.196
34.192
34.186
34.178
34.169
34.156
34.141
34.123
34.102
34.08
34.058
34.036
34.016
33.999
33.986
33.978
33.976
33.98
33.991
34.01
34.035
34.067
34.105
34.149
34.199
34.255
34.319
34.389
34.466
34.549
34.64
34.738
34.844
34.959
35.083
35.216
35.356
35.503
35.656
35.813
35.973
36.132
36.29
36.444
36.592
36.731
36.859
36.976
37.079
37.17
37.248
37.313
37.367
37.41
37.443
37.466
37.481
37.488
37.488
37.482
37.471
37.454
37.433
37.409
37.381
37.353
37.323
37.295
37.268
37.243
37.219
37.199
37.18
37.164
37.148
37.133
37.117
37.1
37.082
37.06
37.034
37.003
36.965
36.921
36.871
36.818
36.763
36.705
36.647
36.589
36.533
36.479
36.43
36.386
36.349
36.318
36.294
36.275
36.261
36.251
36.245
36.242
36.241
36.243
36.246
36.251
36.256
36.262
36.266
36.268
36.266
36.26
36.251
36.238
36.221
36.201
36.179
36.156
36.132
36.109
36.087
36.066
36.046
36.026
36.008
35.99
35.973
35.956
35.938
35.919
35.899
35.877
35.853
35.826
35.796
35.764
35.73
35.696
35.661
35.627
35.592
35.557
35.521
35.483
35.444
35.405
35.366
35.327
35.288
35.25
35.212
35.174
35.135
35.096
35.055
35.012
34.968
34.923
34.878
34.834
34.791
34.75
34.711
34.675
34.641
34.612
34.587
34.567
34.55
34.537
34.527
34.52
34.514
34.51
34.506
34.502
34.497
34.491
34.482
34.471
34.458
34.442
34.423
34.401
34.376
34.35
34.322
34.293
34.263
34.236
34.211
34.19
34.176
34.167
34.164
34.165
34.17
34.177
34.184
34.191
34.196
34.198
34.197
34.192
34.183
34.173
34.163
34.155
34.15
34.149
34.153
34.163
34.179
34.204
34.237
34.281
34.334
34.399
34.475
34.563
34.662
34.771
34.888
35.013
35.146
35.286
35.43
35.577
35.727
35.878
36.028
36.178
36.324
36.466
36.602
36.732
36.852
36.964
37.067
37.161
37.245
37.318
37.378
37.426
37.461
37.485
37.498
37.502
37.497
37.484
37.464
37.439
37.409
37.374
37.336
37.295
37.251
37.204
37.157
37.109
37.062
37.017
36.974
36.932
36.892
36.854
36.819
36.785
36.753
36.723
36.692
36.662
36.631
36.6
36.568
36.535
36.5
36.463
36.422
36.379
36.335
36.291
36.248
36.207
36.169
36.133
36.101
36.072
36.045
36.021
36.0
35.981
35.965
35.952
35.941
35.931
35.923
35.915
35.909
35.902
35.895
35.887
35.875
35.859
35.84
35.818
35.794
35.768
35.741
35.712
35.682
35.652
35.622
35.593
35.566
35.541
35.519
35.5
35.483
35.468
35.455
35.442
35.428
35.412
35.393
35.371
35.345
35.314
35.277
35.235
35.187
35.134
35.078
35.019
34.96
34.901
34.845
34.791
34.741
34.696
34.655
34.618
34.585
34.555
34.53
34.507
34.489
34.472
34.458
34.445
34.431
34.415
34.398
34.378
34.356
34.332
34.305
34.278
34.249
34.22
34.192
34.166
34.142
34.12
34.101
34.083
34.067
34.05
34.033
34.014
33.994
33.975
33.956
33.938
33.921
33.905
33.89
33.877
33.866
33.856
33.848
33.841
33.835
33.829
33.822
33.816
33.809
33.801
33.793
33.782
33.77
33.756
33.742
33.726
33.71
33.696
33.686
33.683
33.688
33.704
33.732
33.773
33.827
33.896
33.978
34.074
34.183
34.304
34.434
34.572
34.715
34.86
35.007
35.153
35.297
35.435
35.567
35.69
35.805
35.911
36.01
36.101
36.184
36.261
36.33
36.391
36.445
36.491
36.531
36.562
36.585
36.599
36.605
36.603
36.592
36.574
36.548
36.517
36.482
36.443
36.404
36.365
36.326
36.289
36.254
36.222
36.193
36.167
36.142
36.119
36.096
36.074
36.051
36.027
36.002
35.974
35.943
35.909
35.872
35.833
35.791
35.747
35.702
35.654
35.604
35.555
35.506
35.459
35.413
35.37
35.33
35.295
35.266
35.242
35.224
35.213
35.206
35.205
35.207
35.213
35.222
35.234
35.248
35.262
35.276
35.289
35.3
35.308
35.311
35.311
35.306
35.295
35.281
35.262
35.24
35.215
35.188
35.159
35.13
35.102
35.074
35.048
35.021
34.995
34.968
34.94
34.91
34.878
34.843
34.804
34.762
34.718
34.672
34.625
34.578
34.532
34.487
34.445
34.408
34.375
34.349
34.328
34.312
34.298
34.286
34.275
34.263
34.249
34.232
34.212
34.187
34.158
34.125
34.088
34.048
34.007
33.966
33.927
33.891
33.86
33.834
33.814
33.799
33.788
33.782
33.778
33.777
33.777
33.778
33.777
33.774
33.768
33.76
33.748
33.733
33.715
33.694
33.672
33.649
33.626
33.603
33.581
33.561
33.544
33.529
33.519
33.512
33.51
33.512
33.518
33.531
33.55
33.576
33.611
33.654
33.705
33.764
33.833
33.91
33.996
34.09
34.192
34.3
34.415
34.533
34.655
34.779
34.904
35.026
35.146
35.261
35.37
35.472
35.567
35.654
35.733
35.804
35.868
35.925
35.976
36.02
36.057
36.088
36.113
36.134
36.149
36.161
36.169
36.173
36.175
36.173
36.168
36.16
36.148
36.132
36.111
36.085
36.054
36.018
35.978
35.935
35.89
35.842
35.792
35.741
35.691
35.644
35.599
35.556
35.514
35.475
35.437
35.402
35.369
35.336
35.304
35.273
35.243
35.214
35.186
35.159
35.134
35.112
35.092
35.076
35.062
35.052
35.045
35.04
35.039
35.04
35.044
35.052
35.062
35.074
35.085
35.096
35.105
35.113
35.117
35.118
35.113
35.104
35.09
35.072
35.052
35.03
35.006
34.982
34.958
34.936
34.916
34.899
34.884
34.873
34.864
34.855
34.846
34.836
34.823
34.806
34.784
34.757
34.724
34.685
34.643
34.596
34.547
34.497
34.446
34.397
34.352
34.312
34.279
34.253
34.232
34.217
34.206
34.199
34.193
34.189
34.186
34.18
34.172
34.161
34.146
34.129
34.109
34.086
34.061
34.034
34.007
33.98
33.953
33.928
33.906
33.886
33.868
33.853
33.84
33.829
33.817
33.806
33.795
33.783
33.771
33.758
33.745
33.732
33.718
33.703
33.689
33.677
33.666
33.656
33.647
33.638
33.63
33.621
33.612
33.602
33.591
33.579
33.568
33.559
33.554
33.554
33.561
33.575
33.6
33.637
33.687
33.75
33.826
33.914
34.015
34.126
34.246
34.375
34.511
34.653
34.798
34.943
35.087
35.227
35.364
35.493
35.616
35.729
35.834
35.927
36.011
36.085
36.15
36.205
36.251
36.288
36.319
36.344
36.367
36.387
36.404
36.419
36.43
36.437
36.439
36.436
36.428
36.413
36.394
36.371
36.343
36.312
36.278
36.242
36.205
36.169
36.134
36.102
36.073
36.046
36.023
36.002
35.983
35.966
35.951
35.936
35.921
35.905
35.885
35.861
35.833
35.802
35.767
35.729
35.689
35.648
35.606
35.565
35.525
35.489
35.456
35.428
35.406
35.389
35.378
35.374
35.375
35.381
35.391
35.403
35.417
35.432
35.447
35.46
35.472
35.48
35.485
35.486
35.484
35.477
35.466
35.449
35.428
35.403
35.376
35.347
35.317
35.285
35.253
35.22
35.186
35.15
35.113
35.075
35.037
34.999
34.963
34.927
34.895
34.864
34.837
34.812
34.789
34.77
34.753
34.738
34.726
34.716
34.706
34.696
34.686
34.675
34.662
34.645
34.624
34.599
34.568
34.534
34.496
34.455
34.413
34.37
34.327
34.287
34.25
34.216
34.188
34.165
34.148
34.136
34.129
34.125
34.124
34.125
34.127
34.127
34.126
34.122
34.116
34.106
34.092
34.074
34.053
34.03
34.005
33.981
33.957
33.934
33.914
33.897
33.883
33.871
33.863
33.856
33.852
33.848
33.846
33.845
33.845
33.846
33.848
33.851
33.855
33.861
33.868
33.879
33.894
33.913
33.938
33.968
34.006
34.051
34.102
34.161
34.227
34.301
34.381
34.468
34.561
34.659
34.761
34.867
34.977
35.091
35.207
35.325
35.442
35.559
35.675
35.787
35.897
36.002
36.1
36.191
36.272
36.343
36.404
36.455
36.497
36.531
36.556
36.573
36.581
36.583
36.579
36.569
36.557
36.541
36.522
36.501
36.478
36.454
36.429
36.403
36.378
36.353
36.329
36.308
36.289
36.273
36.258
36.245
36.233
36.221
36.208
36.194
36.178
36.16
36.138
36.114
36.086
36.055
36.02
35.982
35.942
35.9
35.859
35.82
35.783
35.749
35.718
35.69
35.667
35.649
35.635
35.626
35.621
35.618
35.616
35.615
35.613
35.611
35.608
35.603
35.595
35.584
35.57
35.555
35.539
35.524
35.51
35.497
35.484
35.474
35.464
35.457
35.451
35.445
35.44
35.435
35.43
35.422
35.411
35.397
35.379
35.358
35.333
35.306
35.275
35.242
35.206
35.168
35.128
35.088
35.048
35.009
34.971
34.935
34.899
34.865
34.832
34.8
34.77
34.741
34.711
34.681
34.651
34.621
34.591
34.562
34.534
34.508
34.483
34.46
34.439
34.419
34.402
34.385
34.368
34.351
34.336
34.322
34.311
34.301
34.292
34.283
34.273
34.263
34.251
34.238
34.222
34.205
34.187
34.169
34.152
34.137
34.125
34.116
34.109
34.106
34.105
34.106
34.108
34.109
34.108
34.105
34.098
34.087
34.073
34.054
34.032
34.007
33.979
33.95
33.921
33.894
33.87
33.852
33.841
33.838
33.845
33.864
33.894
33.935
33.986
34.046
34.115
34.193
34.279
34.372
34.473
34.579
34.691
34.808
34.927
35.049
35.171
35.293
35.413
35.532
35.647
35.758
35.863
35.962
36.053
36.138
36.214
36.283
36.345
36.398
36.444
36.482
36.513
36.536
36.552
36.563
36.568
36.569
36.566
36.56
36.553
36.545
36.536
36.527
36.519
36.51
36.5
36.49
36.48
36.468
36.455
36.438
36.419
36.396
36.371
36.344
36.314
36.283
36.251
36.218
36.184
36.15
36.115
36.079
36.043
36.006
35.968
35.931
35.894
35.857
35.822
35.79
35.761
35.737
35.718
35.706
35.699
35.698
35.703
35.711
35.723
35.738
35.754
35.771
35.786
35.799
35.81
35.816
35.818
35.815
35.808
35.796
35.781
35.762
35.739
35.713
35.686
35.658
35.629
35.601
35.575
35.551
35.529
35.511
35.496
35.484
35.476
35.468
35.461
35.452
35.439
35.423
35.401
35.375
35.345
35.312
35.277
35.242
35.206
35.171
35.138
35.107
35.078
35.052
35.029
35.007
34.987
34.966
34.944
34.921
34.896
34.869
34.84
34.809
34.775
34.74
34.705
34.669
34.636
34.605
34.578
34.555
34.537
34.523
34.515
34.511
34.511
34.516
34.524
34.533
34.54
34.544
34.543
34.537
34.525
34.507
34.482
34.452
34.418
34.381
34.343
34.305
34.269
34.237
34.21
34.188
34.172
34.163
34.159
34.16
34.166
34.175
34.188
34.203
34.221
34.241
34.263
34.287
34.313
34.343
34.378
34.421
34.473
34.535
34.607
34.69
34.781
34.881
34.988
35.101
35.218
35.339
35.461
35.583
35.703
35.819
35.929
36.032
36.129
36.217
36.297
36.369
36.432
36.487
36.533
36.57
36.601
36.626
36.648
36.668
36.685
36.702
36.717
36.731
36.743
36.752
36.759
36.762
36.761
36.756
36.747
36.732
36.713
36.689
36.659
36.625
36.588
36.549
36.508
36.467
36.425
36.382
36.338
36.295
36.253
36.213
36.174
36.135
36.098
36.062
36.027
35.994
35.963
35.934
35.907
35.884
35.862
35.844
35.829
35.816
35.806
35.798
35.791
35.784
35.778
35.771
35.764
35.758
35.754
35.75
35.749
35.75
35.753
35.758
35.764
35.77
35.777
35.784
35.791
35.797
35.801
35.803
35.802
35.799
35.793
35.783
35.77
35.754
35.735
35.712
35.687
35.659
35.63
35.599
35.569
35.539
35.51
35.482
35.455
35.428
35.401
35.373
35.343
35.311
35.276
35.238
35.198
35.154
35.106
35.057
35.006
34.956
34.907
34.86
34.815
34.773
34.735
34.703
34.676
34.655
34.64
34.629
34.621
34.615
34.61
34.604
34.598
34.591
34.582
34.571
34.557
34.541
34.521
34.498
34.472
34.446
34.419
34.393
34.369
34.347
34.327
34.309
34.293
34.278
34.267
34.258
34.251
34.247
34.245
34.243
34.242
34.242
34.242
34.241
34.24
34.239
34.24
34.241
34.243
34.248
34.257
34.27
34.289
34.317
34.354
34.402
34.46
34.529
34.609
34.701
34.806
34.922
35.049
35.187
35.332
35.484
35.639
35.796
35.952
36.103
36.249
36.386
36.513
36.629
36.734
36.827
36.909
36.979
37.036
37.082
37.116
37.141
37.157
37.165
37.167
37.162
37.152
37.136
37.116
37.093
37.068
37.042
37.016
36.992
36.971
36.951
36.935
36.921
36.909
36.898
36.889
36.88
36.871
36.861
36.849
36.832
36.813
36.791
36.767
36.74
36.711
36.68
36.646
36.61
36.572
36.532
36.49
36.449
36.408
36.367
36.329
36.293
36.26
36.231
36.204
36.18
36.159
36.141
36.126
36.114
36.103
36.094
36.086
36.078
36.07
36.063
36.056
36.05
36.044
36.04
36.039
36.04
36.042
36.045
36.049
36.052
36.056
36.058
36.058
36.056
36.051
36.039
36.022
35.999
35.971
35.937
35.9
35.86
35.819
35.776
35.732
35.688
35.646
35.605
35.566
35.529
35.495
35.464
35.435
35.408
35.38
35.354
35.327
35.3
35.273
35.245
35.217
35.188
35.16
35.137
35.121
35.113
35.11
35.109
35.108
35.105
35.097
35.084
35.064
35.037
35.003
34.963
34.918
34.868
34.816
34.763
34.71
34.659
34.61
34.564
34.521
34.482
34.448
34.419
34.394
34.375
34.361
34.352
34.349
34.348
34.351
34.353
34.356
34.356
34.354
34.347
34.338
34.323
34.305
34.282
34.256
34.229
34.202
34.179
