Trial 3:3back
33.019
32.998
32.975
32.95
32.924
32.896
32.867
32.837
32.806
32.774
32.74
32.706
32.671
32.637
32.603
32.57
32.537
32.505
32.474
32.444
32.415
32.387
32.358
32.329
32.3
32.272
32.245
32.22
32.201
32.19
32.189
32.205
32.241
32.302
32.391
32.511
32.663
32.849
33.065
33.312
33.587
33.885
34.203
34.536
34.88
35.23
35.582
35.93
36.27
36.595
36.903
37.189
37.452
37.689
37.899
38.082
38.236
38.364
38.465
38.541
38.594
38.627
38.643
38.645
38.636
38.618
38.595
38.568
38.54
38.512
38.487
38.465
38.447
38.433
38.425
38.421
38.421
38.423
38.426
38.429
38.431
38.432
38.43
38.424
38.412
38.395
38.371
38.34
38.301
38.254
38.2
38.138
38.07
37.996
37.917
37.834
37.75
37.665
37.581
37.5
37.424
37.352
37.287
37.226
37.17
37.118
37.072
37.03
36.993
36.96
36.929
36.902
36.878
36.856
36.837
36.818
36.799
36.779
36.757
36.732
36.704
36.674
36.64
36.602
36.561
36.517
36.469
36.419
36.366
36.311
36.255
36.198
36.138
36.077
36.015
35.952
35.888
35.825
35.762
35.699
35.636
35.571
35.506
35.439
35.372
35.306
35.24
35.175
35.111
35.049
34.988
34.927
34.866
34.806
34.745
34.685
34.625
34.567
34.511
34.458
34.409
34.361
34.317
34.274
34.233
34.193
34.152
34.112
34.072
34.033
33.994
33.957
33.922
33.888
33.857
33.828
33.8
33.774
33.748
33.722
33.697
33.672
33.648
33.623
33.598
33.575
33.552
33.53
33.508
33.486
33.464
33.441
33.417
33.39
33.362
33.333
33.304
33.275
33.245
33.216
33.187
33.158
33.13
33.1
33.07
33.039
33.008
32.977
32.945
32.913
32.881
32.85
32.819
32.791
32.766
32.747
32.734
32.731
32.739
32.761
32.8
32.859
32.94
33.045
33.177
33.337
33.524
33.738
33.977
34.237
34.516
34.81
35.113
35.422
35.733
36.039
36.338
36.625
36.899
37.153
37.381
37.578
37.743
37.877
37.983
38.064
38.125
38.169
38.2
38.222
38.235
38.244
38.25
38.253
38.256
38.259
38.264
38.271
38.279
38.289
38.299
38.31
38.322
38.333
38.342
38.348
38.35
38.347
38.338
38.321
38.296
38.262
38.219
38.168
38.11
38.044
37.972
37.894
37.811
37.723
37.631
37.536
37.44
37.344
37.25
37.161
37.077
36.998
36.925
36.858
36.798
36.743
36.695
36.651
36.612
36.577
36.546
36.517
36.491
36.466
36.443
36.421
36.399
36.377
36.353
36.329
36.304
36.276
36.246
36.214
36.178
36.14
36.099
36.054
36.006
35.954
35.898
35.841
35.783
35.725
35.667
35.608
35.548
35.487
35.425
35.362
35.299
35.236
35.174
35.114
35.056
34.998
34.94
34.881
34.822
34.764
34.705
34.646
34.588
34.529
34.47
34.41
34.351
34.293
34.237
34.182
34.129
34.078
34.029
33.982
33.937
33.894
33.854
33.817
33.781
33.747
33.714
33.682
33.651
33.621
33.591
33.561
33.53
33.498
33.465
33.431
33.396
33.361
33.326
33.291
33.255
33.219
33.183
33.146
33.11
33.074
33.039
33.006
32.974
32.944
32.915
32.887
32.861
32.836
32.814
32.795
32.78
32.77
32.764
32.765
32.772
32.787
32.812
32.848
32.897
32.962
33.045
33.148
33.273
33.419
33.588
33.777
33.985
34.21
34.449
34.698
34.954
35.212
35.47
35.722
35.964
36.193
36.405
36.6
36.776
36.933
37.07
37.187
37.286
37.369
37.435
37.488
37.527
37.556
37.577
37.59
37.597
37.599
37.598
37.593
37.587
37.58
37.574
37.569
37.564
37.56
37.556
37.552
37.547
37.54
37.531
37.52
37.508
37.494
37.477
37.458
37.435
37.408
37.376
37.341
37.299
37.251
37.197
37.137
37.072
37.002
36.926
36.845
36.76
36.673
36.586
36.499
36.415
36.336
36.262
36.195
36.135
36.082
36.037
35.999
35.969
35.945
35.926
35.911
35.897
35.884
35.871
35.858
35.842
35.825
35.806
35.785
35.762
35.736
35.706
35.674
35.638
35.6
35.558
35.513
35.466
35.416
35.363
35.309
35.252
35.193
35.132
35.071
35.009
34.948
34.885
34.823
34.762
34.701
34.64
34.581
34.524
34.471
34.421
34.375
34.332
34.292
34.255
34.221
34.188
34.156
34.125
34.094
34.065
34.035
34.004
33.973
33.94
33.906
33.87
33.832
33.793
33.752
33.711
33.67
33.628
33.588
33.549
33.511
33.475
33.44
33.406
33.373
33.342
33.313
33.285
33.259
33.233
33.209
33.188
33.168
33.15
33.133
33.117
33.101
33.084
33.065
33.045
33.024
33.003
32.982
32.961
32.94
32.921
32.905
32.892
32.886
32.888
32.901
32.927
32.968
33.027
33.106
33.206
33.329
33.474
33.641
33.829
34.034
34.255
34.487
34.727
34.972
35.218
35.462
35.7
35.93
36.148
36.351
36.539
36.709
36.86
36.993
37.106
37.2
37.277
37.335
37.377
37.404
37.418
37.422
37.417
37.407
37.393
37.377
37.36
37.344
37.329
37.315
37.302
37.29
37.278
37.268
37.258
37.249
37.24
37.231
37.22
37.209
37.195
37.179
37.158
37.132
37.101
37.065
37.023
36.975
36.92
36.86
36.794
36.724
36.652
36.577
36.502
36.427
36.353
36.279
36.205
36.132
36.061
35.992
35.926
35.864
35.806
35.752
35.702
35.656
35.615
35.579
35.548
35.522
35.499
35.481
35.464
35.45
35.436
35.422
35.408
35.392
35.375
35.355
35.331
35.303
35.272
35.237
35.197
35.151
35.1
35.045
34.986
34.926
34.866
34.805
34.745
34.686
34.627
34.57
34.514
34.459
34.404
34.351
34.298
34.246
34.197
34.148
34.102
34.058
34.016
33.976
33.938
33.901
33.866
33.831
33.797
33.764
33.73
33.696
33.661
33.625
33.591
33.557
33.525
33.494
33.465
33.438
33.412
33.386
33.36
33.335
33.308
33.282
33.256
33.229
33.202
33.176
33.151
33.126
33.102
33.078
33.054
33.03
33.006
32.981
32.957
32.932
32.908
32.883
32.86
32.837
32.816
32.798
32.789
32.789
32.796
32.808
32.821
32.832
32.841
32.845
32.843
32.836
32.823
32.805
32.782
32.756
32.728
32.701
32.677
32.659
32.651
32.656
32.679
32.721
32.785
32.873
32.986
33.123
33.283
33.464
33.666
33.885
34.118
34.361
34.609
34.859
35.107
35.349
35.581
35.798
35.998
36.181
36.344
36.487
36.61
36.714
36.8
36.868
36.921
36.961
36.989
37.008
37.02
37.026
37.027
37.024
37.018
37.011
37.004
36.997
36.993
36.99
36.989
36.99
36.993
36.998
37.003
37.008
37.012
37.014
37.015
37.017
37.023
37.03
37.036
37.038
37.034
37.021
36.997
36.96
36.911
36.849
36.775
36.689
36.593
36.492
36.387
36.283
36.182
36.085
35.994
35.91
35.834
35.766
35.706
35.652
35.608
35.571
35.541
35.518
35.5
35.485
35.473
35.463
35.454
35.445
35.435
35.424
35.411
35.398
35.383
35.367
35.35
35.333
35.315
35.295
35.273
35.248
35.221
35.192
35.16
35.125
35.087
35.046
35.003
34.958
34.91
34.859
34.805
34.75
34.694
34.638
34.582
34.525
34.469
34.413
34.358
34.303
34.248
34.193
34.14
34.088
34.038
33.989
33.943
33.901
33.862
33.828
33.798
33.771
33.748
33.727
33.707
33.688
33.669
33.651
33.63
33.609
33.585
33.559
33.531
33.503
33.474
33.446
33.419
33.393
33.368
33.342
33.318
33.295
33.273
33.253
33.234
33.216
33.199
33.183
33.166
33.15
33.134
33.118
33.102
33.084
33.067
33.048
33.029
33.009
32.989
32.969
32.948
32.929
32.909
32.889
32.869
32.848
32.825
32.803
32.78
32.757
32.735
32.712
32.691
32.669
32.648
32.625
32.597
32.564
32.526
32.485
32.444
32.403
32.365
32.332
32.303
32.28
32.263
32.252
32.249
32.253
32.267
32.291
32.329
32.383
32.455
32.547
32.661
32.796
32.953
33.13
33.324
33.535
33.758
33.991
34.23
34.472
34.712
34.948
35.176
35.394
35.599
35.789
35.961
36.115
36.25
36.365
36.46
36.537
36.596
36.64
36.67
36.689
36.699
36.701
36.699
36.692
36.682
36.671
36.658
36.646
36.636
36.628
36.621
36.617
36.615
36.614
36.614
36.615
36.616
36.616
36.615
36.611
36.605
36.596
36.582
36.565
36.543
36.517
36.485
36.447
36.404
36.356
36.303
36.247
36.187
36.123
36.058
35.991
35.923
35.856
35.789
35.724
35.662
35.603
35.548
35.497
35.45
35.408
35.372
35.341
35.316
35.294
35.276
35.262
35.251
35.243
35.237
35.231
35.225
35.218
35.21
35.2
35.187
35.171
35.154
35.134
35.111
35.086
35.057
35.025
34.99
34.952
34.91
34.864
34.817
34.768
34.717
34.665
34.613
34.56
34.509
34.458
34.409
34.36
34.313
34.268
34.224
34.182
34.141
34.1
34.061
34.023
33.986
33.949
33.913
33.878
33.844
33.811
33.78
33.751
33.723
33.696
33.67
33.645
33.62
33.596
33.574
33.551
33.529
33.507
33.485
33.463
33.439
33.416
33.391
33.367
33.343
33.319
33.295
33.271
33.248
33.225
33.204
33.184
33.166
33.149
33.133
33.117
33.101
33.085
33.068
33.05
33.03
33.01
32.989
32.969
32.949
32.929
32.908
32.888
32.869
32.849
32.829
32.808
32.786
32.765
32.743
32.722
32.7
32.68
32.661
32.644
32.626
32.61
32.594
32.58
32.563
32.542
32.517
32.49
32.464
32.443
32.429
32.426
32.438
32.467
32.517
32.588
32.683
32.8
32.941
33.103
33.283
33.48
33.69
33.91
34.134
34.359
34.58
34.793
34.995
35.184
35.358
35.514
35.652
35.773
35.876
35.963
36.034
36.089
36.129
36.157
36.173
36.179
36.177
36.17
36.159
36.146
36.133
36.119
36.105
36.091
36.078
36.065
36.052
36.04
36.029
36.018
36.009
36.002
35.995
35.988
35.982
35.975
35.967
35.957
35.944
35.926
35.903
35.875
35.84
35.799
35.752
35.7
35.645
35.586
35.526
35.466
35.407
35.352
35.3
35.254
35.212
35.175
35.144
35.117
35.095
35.078
35.065
35.056
35.05
35.047
35.045
35.044
35.042
35.039
35.035
35.031
35.025
35.018
35.009
34.999
34.989
34.977
34.964
34.95
34.935
34.918
34.9
34.88
34.858
34.834
34.807
34.778
34.746
34.71
34.672
34.63
34.587
34.541
34.492
34.442
34.39
34.339
34.289
34.239
34.191
34.146
34.103
34.063
34.025
33.99
33.957
33.927
33.9
33.874
33.85
33.827
33.806
33.785
33.765
33.745
33.725
33.704
33.684
33.665
33.646
33.629
33.613
33.597
33.581
33.565
33.548
33.531
33.514
33.497
33.48
33.463
33.446
33.429
33.41
33.391
33.37
33.35
33.328
33.307
33.287
33.266
33.247
33.227
33.21
33.194
33.179
33.165
33.153
33.142
33.131
33.12
33.108
33.096
33.084
33.07
33.056
33.043
33.029
33.016
33.004
32.992
32.981
32.971
32.96
32.949
32.937
32.923
32.91
32.896
32.882
32.867
32.853
32.839
32.826
32.815
32.808
32.806
32.811
32.824
32.847
32.882
32.932
33.0
33.088
33.199
33.332
33.486
33.659
33.849
34.052
34.265
34.484
34.706
34.927
35.145
35.355
35.554
35.739
35.908
36.059
36.192
36.306
36.4
36.475
36.532
36.574
36.602
36.62
36.629
36.632
36.632
36.63
36.628
36.626
36.624
36.623
36.623
36.624
36.626
36.629
36.632
36.636
36.641
36.646
36.65
36.653
36.656
36.656
36.655
36.65
36.641
36.629
36.613
36.592
36.566
36.535
36.498
36.457
36.413
36.365
36.314
36.262
36.207
36.152
36.097
36.041
35.985
35.93
35.876
35.825
35.777
35.733
35.691
35.654
35.621
35.593
35.57
35.55
35.535
35.522
35.512
35.504
35.497
35.491
35.485
35.48
35.475
35.468
35.46
35.45
35.438
35.423
35.406
35.387
35.366
35.342
35.316
35.288
35.255
35.219
35.18
35.138
35.093
35.047
35.0
34.952
34.903
34.855
34.807
34.759
34.713
34.669
34.627
34.588
34.552
34.518
34.486
34.456
34.428
34.401
34.375
34.35
34.326
34.303
34.281
34.26
34.239
34.218
34.197
34.174
34.151
34.126
34.1
34.072
34.042
34.01
33.977
33.942
33.907
33.872
33.839
33.806
33.775
33.747
33.72
33.694
33.669
33.646
33.624
33.603
33.584
33.566
33.549
33.534
33.521
33.509
33.498
33.488
33.48
33.472
33.464
33.457
33.449
33.44
33.432
33.423
33.413
33.402
33.388
33.374
33.358
33.34
33.321
33.3
33.278
33.255
33.231
33.208
33.185
33.163
33.143
33.122
33.102
33.08
33.059
33.037
33.015
32.993
32.972
32.953
32.936
32.92
32.908
32.9
32.899
32.906
32.921
32.945
32.977
33.021
33.077
33.147
33.233
33.337
33.458
33.596
33.751
33.92
34.104
34.3
34.506
34.72
34.939
35.159
35.378
35.591
35.795
35.988
36.166
36.33
36.476
36.605
36.715
36.806
36.88
36.937
36.98
37.011
37.03
37.04
37.043
37.041
37.036
37.028
37.017
37.005
36.993
36.98
36.968
36.958
36.949
36.943
36.94
36.941
36.945
36.953
36.962
36.973
36.985
36.995
37.003
37.007
37.005
36.998
36.984
36.965
36.938
36.905
36.865
36.821
36.771
36.716
36.658
36.599
36.54
36.482
36.425
36.37
36.316
36.265
36.217
36.171
36.127
36.087
36.05
36.015
35.984
35.955
35.927
35.898
35.87
35.841
35.813
35.785
35.757
35.731
35.704
35.678
35.652
35.625
35.597
35.569
35.541
35.512
35.482
35.451
35.419
35.388
35.356
35.325
35.294
35.263
35.232
35.201
35.17
35.138
35.106
35.075
35.044
35.013
34.981
34.949
34.915
34.88
34.843
34.804
34.763
34.721
34.678
34.635
34.59
34.545
34.498
34.451
34.405
34.359
34.315
34.272
34.231
34.192
34.154
34.118
34.084
34.051
34.022
33.994
33.968
33.944
33.921
33.898
33.877
33.855
33.834
33.812
33.789
33.768
33.746
33.725
33.704
33.684
33.665
33.646
33.627
33.607
33.586
33.565
33.543
33.52
33.496
33.472
33.448
33.423
33.397
33.37
33.343
33.317
33.293
33.27
33.249
33.23
33.211
33.194
33.176
33.158
33.141
33.125
33.11
33.096
33.082
33.07
33.058
33.048
33.037
33.027
33.016
33.005
32.992
32.977
32.96
32.942
32.922
32.901
32.879
32.856
32.831
32.806
32.781
32.755
32.729
32.701
32.675
32.649
32.626
32.606
32.59
32.578
32.573
32.574
32.583
32.602
32.633
32.679
32.743
32.827
32.933
33.062
33.215
33.39
33.587
33.804
34.037
34.283
34.538
34.798
35.059
35.317
35.567
35.806
36.032
36.242
36.432
36.603
36.751
36.876
36.979
37.058
37.117
37.156
37.179
37.188
37.184
37.171
37.151
37.125
37.096
37.065
37.033
37.002
36.971
36.942
36.914
36.888
36.865
36.846
36.83
36.817
36.806
36.799
36.794
36.79
36.786
36.783
36.777
36.77
36.761
36.748
36.732
36.713
36.69
36.664
36.633
36.599
36.561
36.521
36.477
36.432
36.384
36.335
36.284
36.234
36.184
36.135
36.09
36.048
36.012
35.98
35.953
35.932
35.916
35.905
35.898
35.896
35.898
35.904
35.913
35.925
35.937
35.949
35.961
35.972
35.982
35.99
35.994
35.995
35.992
35.984
35.972
35.956
35.934
35.909
35.879
35.846
35.809
35.77
35.727
35.682
35.636
35.589
35.541
35.492
35.443
35.398
35.357
35.32
35.286
35.255
35.226
35.198
35.171
35.144
35.117
35.09
35.062
35.033
35.003
34.972
34.94
34.907
34.873
34.836
34.798
34.76
34.721
34.683
34.645
34.61
34.576
34.545
34.514
34.483
34.454
34.427
34.402
34.379
34.358
34.339
34.321
34.304
34.287
34.271
34.254
34.238
34.223
34.207
34.191
34.174
34.156
34.14
34.123
34.107
34.091
34.075
34.059
34.043
34.025
34.007
33.989
33.971
33.954
33.937
33.921
33.905
33.888
33.87
33.852
33.833
33.813
33.794
33.775
33.757
33.739
33.722
33.707
33.695
33.687
33.685
33.689
33.704
33.731
33.773
33.831
33.909
34.007
34.126
34.266
34.426
34.604
34.799
35.008
35.229
35.456
35.686
35.916
36.141
36.358
36.564
36.756
36.932
37.092
37.235
37.361
37.47
37.563
37.638
37.698
37.743
37.773
37.791
37.798
37.796
37.787
37.773
37.755
37.733
37.711
37.688
37.666
37.645
37.628
37.613
37.6
37.588
37.577
37.568
37.56
37.552
37.544
37.534
37.521
37.505
37.484
37.459
37.429
37.393
37.354
37.31
37.262
37.211
37.156
37.099
37.041
36.983
36.926
36.87
36.818
36.768
36.722
36.681
36.643
36.609
36.578
36.551
36.527
36.504
36.484
36.464
36.446
36.428
36.411
36.395
36.378
36.361
36.344
36.327
36.309
36.291
36.272
36.252
36.231
36.209
36.185
36.162
36.14
36.119
36.098
36.078
36.058
36.038
36.017
35.995
35.972
35.947
35.918
35.886
35.851
35.81
35.766
35.718
35.668
35.616
35.562
35.507
35.451
35.395
35.34
35.29
35.243
35.2
35.161
35.124
35.088
35.053
35.017
34.98
34.944
34.907
34.87
34.832
34.794
34.757
34.72
34.684
34.649
34.616
34.584
34.553
34.524
34.495
34.468
34.44
34.413
34.386
34.359
34.333
34.306
34.28
34.254
34.229
34.204
34.18
34.157
34.134
34.11
34.086
34.061
34.035
34.006
33.976
33.945
33.912
33.88
33.847
33.815
33.783
33.753
33.724
33.696
33.67
33.645
33.623
33.601
33.582
33.563
33.547
33.531
33.517
33.503
33.491
33.48
33.469
33.459
33.449
33.441
33.436
33.438
33.447
33.467
33.502
33.556
33.63
33.727
33.848
33.995
34.166
34.362
34.581
34.819
35.074
35.341
35.617
35.897
36.176
36.45
36.714
36.964
37.198
37.412
37.606
37.78
37.933
38.066
38.18
38.277
38.356
38.42
38.47
38.507
38.533
38.55
38.557
38.558
38.554
38.545
38.533
38.518
38.501
38.483
38.466
38.449
38.435
38.422
38.41
38.399
38.388
38.377
38.364
38.35
38.333
38.313
38.29
38.265
38.237
38.205
38.17
38.131
38.09
38.045
37.996
37.943
37.887
37.828
37.767
37.703
37.639
37.573
37.509
37.446
37.387
37.333
37.283
37.239
37.2
37.166
37.136
37.11
37.086
37.063
37.041
37.02
36.998
36.977
36.954
36.93
36.905
36.879
36.852
36.824
36.794
36.765
36.734
36.703
36.669
36.634
36.597
36.559
36.519
36.479
36.437
36.395
36.354
36.311
36.268
36.222
36.175
36.125
36.073
36.02
35.964
35.907
35.848
35.787
35.726
35.662
35.598
35.532
35.468
35.405
35.345
35.286
35.227
35.171
35.116
35.065
35.016
34.97
34.927
34.888
34.853
34.821
34.793
34.769
34.747
34.728
34.71
34.692
34.672
34.651
34.629
34.605
34.58
34.553
34.527
34.5
34.473
34.446
34.419
34.391
34.365
34.338
34.312
34.285
34.257
34.228
34.197
34.165
34.132
34.098
34.065
34.033
34.0
33.968
33.937
33.905
33.873
33.842
33.812
33.783
33.755
33.728
33.7
33.673
33.644
33.615
33.586
33.556
33.524
33.493
33.46
33.428
33.395
33.363
33.331
33.3
33.269
33.241
33.217
33.198
33.188
33.19
33.206
33.239
33.293
33.371
33.474
33.605
33.763
33.948
34.16
34.397
34.656
34.933
35.225
35.527
35.835
36.144
36.448
36.744
37.027
37.294
37.541
37.766
37.965
38.138
38.286
38.409
38.509
38.587
38.646
38.686
38.711
38.723
38.723
38.715
38.7
38.68
38.657
38.634
38.61
38.589
38.569
38.552
38.537
38.525
38.516
38.509
38.505
38.503
38.503
38.502
38.5
38.495
38.485
38.47
38.448
38.418
38.38
38.332
38.276
38.212
38.142
38.066
37.986
37.903
37.817
37.73
37.643
37.558
37.476
37.396
37.321
37.251
37.187
37.13
37.079
37.035
36.998
36.966
36.939
36.915
36.894
36.874
36.857
36.84
36.822
36.805
36.785
36.765
36.742
36.717
36.69
36.66
36.63
36.598
36.565
36.532
36.498
36.462
36.424
36.385
36.343
36.3
36.254
36.207
36.158
36.105
36.05
35.992
35.931
35.867
35.799
35.729
35.656
35.58
35.501
35.42
35.337
35.254
35.171
35.089
35.008
34.934
34.87
34.817
34.773
34.736
34.703
34.672
34.64
34.605
34.565
34.52
34.469
34.414
34.354
34.292
34.227
34.161
34.095
34.03
33.968
33.91
33.858
33.81
33.769
33.732
33.699
33.669
33.642
33.616
33.592
33.567
33.542
33.515
33.488
33.459
33.429
33.398
33.367
33.338
33.309
33.282
33.255
33.229
33.203
33.176
33.149
33.122
33.093
33.064
33.036
33.007
32.979
32.95
32.921
32.893
32.865
32.836
32.807
32.78
32.754
32.731
32.71
32.69
32.672
32.654
32.636
32.62
32.606
32.594
32.587
32.586
32.594
32.613
32.647
32.699
32.774
32.873
32.999
33.153
33.333
33.54
33.771
34.024
34.297
34.586
34.887
35.194
35.504
35.811
36.111
36.4
36.675
36.933
37.172
37.392
37.592
37.771
37.93
38.069
38.187
38.287
38.369
38.433
38.482
38.517
38.539
38.55
38.552
38.547
38.535
38.519
38.5
38.48
38.459
38.439
38.42
38.403
38.388
38.373
38.36
38.346
38.331
38.315
38.296
38.277
38.255
38.231
38.203
38.171
38.134
38.091
