Trial 3:3back
35.402
35.375
35.353
35.334
35.319
35.308
35.299
35.293
35.288
35.284
35.28
35.275
35.268
35.258
35.247
35.232
35.215
35.194
35.171
35.146
35.12
35.093
35.067
35.042
35.021
35.004
34.991
34.985
34.983
34.986
34.993
35.005
35.02
35.039
35.06
35.084
35.11
35.136
35.161
35.183
35.2
35.214
35.223
35.227
35.225
35.217
35.202
35.181
35.157
35.13
35.102
35.073
35.043
35.015
34.988
34.963
34.94
34.92
34.902
34.887
34.875
34.865
34.857
34.852
34.848
34.845
34.843
34.841
34.838
34.833
34.826
34.817
34.805
34.789
34.77
34.749
34.725
34.699
34.672
34.644
34.617
34.59
34.566
34.545
34.527
34.512
34.502
34.494
34.488
34.484
34.481
34.479
34.477
34.477
34.477
34.478
34.478
34.477
34.476
34.474
34.472
34.47
34.469
34.47
34.474
34.483
34.498
34.518
34.546
34.583
34.629
34.684
34.748
34.82
34.899
34.984
35.075
35.168
35.263
35.356
35.448
35.535
35.615
35.681
35.731
35.763
35.778
35.781
35.773
35.758
35.739
35.718
35.697
35.679
35.666
35.656
35.651
35.649
35.649
35.65
35.651
35.652
35.652
35.65
35.647
35.641
35.633
35.623
35.611
35.599
35.586
35.572
35.558
35.543
35.526
35.508
35.49
35.47
35.45
35.429
35.407
35.385
35.363
35.342
35.321
35.301
35.284
35.27
35.259
35.251
35.245
35.242
35.242
35.246
35.254
35.264
35.277
35.292
35.308
35.326
35.344
35.362
35.377
35.391
35.401
35.408
35.41
35.405
35.393
35.376
35.355
35.33
35.304
35.276
35.249
35.223
35.199
35.177
35.159
35.144
35.133
35.126
35.123
35.123
35.125
35.129
35.132
35.136
35.138
35.138
35.135
35.129
35.119
35.105
35.087
35.067
35.045
35.021
34.996
34.97
34.943
34.916
34.889
34.862
34.837
34.813
34.792
34.772
34.756
34.742
34.731
34.724
34.718
34.715
34.714
34.714
34.716
34.718
34.72
34.722
34.724
34.727
34.732
34.739
34.749
34.763
34.782
34.808
34.84
34.881
34.93
34.987
35.051
35.123
35.201
35.285
35.372
35.462
35.552
35.641
35.728
35.81
35.887
35.959
36.025
36.083
36.133
36.174
36.205
36.225
36.237
36.239
36.232
36.216
36.193
36.162
36.125
36.084
36.04
35.994
35.948
35.904
35.864
35.827
35.795
35.768
35.745
35.729
35.718
35.711
35.707
35.705
35.703
35.701
35.698
35.693
35.686
35.678
35.667
35.655
35.64
35.622
35.602
35.579
35.555
35.53
35.506
35.481
35.458
35.437
35.417
35.401
35.389
35.382
35.38
35.384
35.393
35.406
35.422
35.442
35.465
35.489
35.513
35.535
35.555
35.57
35.581
35.587
35.587
35.583
35.574
35.561
35.544
35.524
35.501
35.476
35.449
35.422
35.396
35.371
35.349
35.329
35.307
35.281
35.25
35.216
35.179
35.143
35.109
35.08
35.056
35.038
35.026
35.019
35.017
35.017
35.019
35.021
35.023
35.022
35.018
35.011
35.0
34.986
34.968
34.948
34.926
34.902
34.877
34.853
34.83
34.809
34.79
34.774
34.759
34.746
34.736
34.728
34.723
34.72
34.72
34.722
34.726
34.734
34.745
34.759
34.778
34.802
34.833
34.87
34.915
34.967
35.027
35.096
35.172
35.254
35.343
35.435
35.53
35.626
35.722
35.816
35.906
35.991
36.068
36.137
36.197
36.247
36.286
36.314
36.333
36.343
36.344
36.339
36.327
36.308
36.285
36.257
36.225
36.191
36.154
36.117
36.079
36.043
36.008
35.977
35.949
35.925
35.905
35.888
35.873
35.861
35.851
35.843
35.837
35.83
35.824
35.817
35.808
35.798
35.786
35.773
35.757
35.74
35.721
35.699
35.676
35.653
35.629
35.605
35.581
35.558
35.537
35.517
35.501
35.488
35.479
35.476
35.476
35.48
35.487
35.496
35.507
35.519
35.533
35.548
35.564
35.579
35.593
35.606
35.616
35.623
35.625
35.622
35.615
35.603
35.586
35.565
35.54
35.513
35.483
35.452
35.421
35.391
35.362
35.334
35.308
35.285
35.263
35.244
35.228
35.213
35.2
35.188
35.176
35.163
35.15
35.136
35.121
35.104
35.085
35.063
35.04
35.015
34.99
34.964
34.937
34.91
34.882
34.854
34.826
34.8
34.775
34.753
34.733
34.716
34.702
34.69
34.679
34.671
34.665
34.661
34.659
34.657
34.656
34.656
34.656
34.656
34.658
34.661
34.667
34.675
34.688
34.705
34.728
34.757
34.794
34.838
34.892
34.956
35.028
35.108
35.195
35.288
35.383
35.481
35.579
35.676
35.771
35.863
35.949
36.029
36.1
36.164
36.218
36.262
36.295
36.319
36.332
36.336
36.331
36.318
36.298
36.272
36.241
36.206
36.169
36.13
36.093
36.058
36.025
35.995
35.968
35.944
35.923
35.905
35.889
35.877
35.866
35.855
35.843
35.83
35.815
35.798
35.78
35.762
35.744
35.726
35.708
35.69
35.672
35.654
35.636
35.619
35.603
35.587
35.574
35.561
35.552
35.544
35.538
35.536
35.536
35.539
35.544
35.552
35.562
35.574
35.587
35.6
35.614
35.626
35.637
35.644
35.648
35.648
35.646
35.64
35.63
35.616
35.598
35.575
35.548
35.52
35.49
35.461
35.433
35.406
35.381
35.356
35.334
35.313
35.296
35.281
35.268
35.258
35.25
35.243
35.238
35.234
35.229
35.223
35.216
35.205
35.192
35.174
35.153
35.128
35.1
35.07
35.039
35.009
34.978
34.949
34.921
34.895
34.872
34.851
34.833
34.818
34.805
34.795
34.788
34.783
34.78
34.779
34.78
34.782
34.784
34.786
34.786
34.784
34.779
34.772
34.762
34.749
34.734
34.718
34.701
34.684
34.67
34.659
34.653
34.655
34.666
34.686
34.717
34.759
34.812
34.876
34.951
35.035
35.128
35.227
35.331
35.438
35.546
35.653
35.756
35.853
35.944
36.025
36.096
36.156
36.204
36.24
36.265
36.279
36.283
36.277
36.263
36.242
36.215
36.186
36.155
36.124
36.094
36.065
36.039
36.016
35.996
35.979
35.965
35.952
35.94
35.929
35.917
35.903
35.888
35.87
35.851
35.83
35.806
35.779
35.75
35.718
35.684
35.649
35.612
35.575
35.539
35.505
35.474
35.447
35.423
35.404
35.391
35.383
35.381
35.383
35.389
35.4
35.415
35.432
35.452
35.471
35.489
35.503
35.514
35.521
35.524
35.521
35.514
35.502
35.485
35.466
35.444
35.422
35.4
35.379
35.36
35.342
35.326
35.312
35.299
35.288
35.279
35.271
35.264
35.256
35.248
35.239
35.23
35.219
35.206
35.191
35.174
35.155
35.132
35.107
35.077
35.045
35.01
34.973
34.936
34.898
34.86
34.824
34.79
34.759
34.731
34.707
34.686
34.668
34.654
34.642
34.633
34.625
34.62
34.617
34.616
34.616
34.617
34.617
34.615
34.612
34.605
34.595
34.581
34.563
34.542
34.52
34.497
34.472
34.447
34.423
34.401
34.381
34.366
34.355
34.349
34.349
34.355
34.368
34.389
34.414
34.439
34.464
34.49
34.52
34.556
34.602
34.66
34.729
34.81
34.9
34.997
35.1
35.207
35.315
35.422
35.526
35.622
35.71
35.787
35.854
35.909
35.953
35.986
36.01
36.025
36.032
36.032
36.027
36.019
36.007
35.994
35.979
35.963
35.945
35.925
35.902
35.877
35.85
35.82
35.788
35.753
35.715
35.675
35.634
35.591
35.549
35.507
35.469
35.434
35.402
35.375
35.35
35.329
35.31
35.295
35.282
35.272
35.263
35.257
35.252
35.249
35.248
35.248
35.25
35.254
35.259
35.264
35.269
35.272
35.275
35.277
35.28
35.284
35.288
35.291
35.294
35.296
35.298
35.3
35.302
35.303
35.303
35.303
35.303
35.303
35.303
35.304
35.304
35.304
35.302
35.299
35.294
35.286
35.276
35.262
35.245
35.223
35.199
35.171
35.142
35.112
35.08
35.048
35.015
34.984
34.954
34.927
34.902
34.879
34.858
34.84
34.825
34.813
34.803
34.795
34.788
34.782
34.777
34.772
34.767
34.761
34.753
34.744
34.732
34.718
34.701
34.682
34.661
34.639
34.615
34.591
34.566
34.541
34.518
34.496
34.477
34.461
34.45
34.443
34.44
34.442
34.449
34.46
34.476
34.497
34.523
34.553
34.588
34.627
34.671
34.72
34.773
34.832
34.896
34.964
35.036
35.112
35.19
35.269
35.348
35.428
35.507
35.583
35.657
35.726
35.79
35.849
35.902
35.948
35.988
36.021
36.049
36.069
36.082
36.088
36.085
36.076
36.059
36.037
36.01
35.977
35.94
35.9
35.857
35.812
35.767
35.723
35.68
35.64
35.602
35.568
35.538
35.511
35.489
35.469
35.452
35.438
35.426
35.417
35.408
35.401
35.394
35.388
35.38
35.371
35.361
35.349
35.337
35.325
35.313
35.302
35.291
35.283
35.276
35.27
35.266
35.265
35.265
35.267
35.272
35.277
35.283
35.29
35.298
35.305
35.313
35.321
35.328
35.336
35.349
35.37
35.4
35.434
35.47
35.503
35.528
35.544
35.547
35.539
35.517
35.485
35.442
35.391
35.335
35.274
35.212
35.15
35.091
35.036
34.987
34.945
34.911
34.885
34.865
34.852
34.843
34.839
34.839
34.841
34.844
34.846
34.845
34.842
34.836
34.826
34.812
34.796
34.776
34.754
34.729
34.702
34.675
34.647
34.62
34.594
34.571
34.551
34.534
34.519
34.507
34.497
34.49
34.485
34.482
34.481
34.484
34.488
34.495
34.505
34.519
34.538
34.562
34.593
34.631
34.675
34.727
34.786
34.851
34.923
35.0
35.082
35.169
35.259
35.35
35.443
35.536
35.627
35.716
35.803
35.884
35.96
36.028
36.089
36.143
36.188
36.226
36.257
36.279
36.293
36.299
36.297
36.287
36.27
36.247
36.219
36.187
36.151
36.112
36.071
36.03
35.99
35.951
35.914
35.879
35.846
35.815
35.787
35.762
35.74
35.722
35.706
35.692
35.679
35.667
35.655
35.642
35.629
35.615
35.6
35.585
35.57
35.555
35.539
35.523
35.507
35.491
35.476
35.463
35.451
35.441
35.435
35.431
35.432
35.435
35.442
35.451
35.462
35.473
35.484
35.496
35.507
35.519
35.53
35.541
35.551
35.559
35.564
35.566
35.565
35.561
35.553
35.541
35.525
35.506
35.484
35.459
35.433
35.406
35.379
35.353
35.329
35.308
35.288
35.271
35.257
35.245
35.234
35.225
35.217
35.209
35.202
35.194
35.185
35.174
35.162
35.147
35.13
35.11
35.089
35.064
35.038
35.011
34.982
34.952
34.922
34.893
34.864
34.838
34.815
34.795
34.777
34.764
34.753
34.745
34.739
34.734
34.732
34.73
34.729
34.729
34.728
34.727
34.726
34.725
34.724
34.726
34.731
34.739
34.754
34.774
34.802
34.837
34.88
34.933
34.996
35.069
35.151
35.241
35.337
35.439
35.544
35.652
35.76
35.866
35.971
36.071
36.166
36.254
36.334
36.405
36.466
36.517
36.558
36.587
36.606
36.614
36.613
36.602
36.584
36.56
36.53
36.494
36.447
36.391
36.325
36.255
36.183
36.114
36.052
36.0
35.959
35.93
35.913
35.908
35.912
35.925
35.944
35.968
35.993
36.017
36.038
36.055
36.066
36.071
36.07
36.061
36.046
36.025
35.999
35.97
35.94
35.909
35.879
35.852
35.828
35.808
35.792
35.782
35.777
35.777
35.782
35.792
35.805
35.823
35.843
35.865
35.887
35.909
35.929
35.946
35.959
35.966
35.967
35.962
35.95
35.933
35.911
35.885
35.855
35.822
35.786
35.749
35.711
35.675
35.641
35.609
35.581
35.556
35.535
35.516
35.5
35.486
35.473
35.46
35.448
35.436
35.422
35.408
35.392
35.374
35.355
35.333
35.308
35.281
35.25
35.218
35.184
35.149
35.115
35.081
35.049
35.02
34.993
34.969
34.95
34.935
34.923
34.914
34.908
34.904
34.901
34.9
34.9
34.902
34.904
34.905
34.905
34.903
34.899
34.892
34.882
34.87
34.854
34.837
34.818
34.798
34.779
34.762
34.749
34.742
34.743
34.755
34.778
34.814
34.863
34.925
35.0
35.087
35.184
35.29
35.403
35.521
35.64
35.759
35.873
35.982
36.084
36.178
36.263
36.338
36.401
36.452
36.49
36.517
36.533
36.539
36.536
36.526
36.51
36.49
36.467
36.443
36.417
36.391
36.365
36.339
36.314
36.289
36.265
36.243
36.222
36.202
36.183
36.163
36.144
36.123
36.101
36.079
36.055
36.029
36.001
35.971
35.938
35.904
35.868
35.832
35.796
35.762
35.73
35.701
35.675
35.652
35.633
35.62
35.613
35.611
35.613
35.62
35.629
35.641
35.655
35.67
35.685
35.7
35.713
35.723
35.731
35.735
35.736
35.733
35.726
35.716
35.703
35.687
35.669
35.649
35.628
35.607
35.586
35.565
35.546
35.527
35.509
35.492
35.477
35.462
35.449
35.436
35.424
35.412
35.397
35.38
35.361
35.34
35.316
35.29
35.262
35.231
35.198
35.164
35.129
35.092
35.055
35.019
34.983
34.951
34.921
34.893
34.869
34.846
34.826
34.809
34.794
34.78
34.768
34.756
34.746
34.736
34.727
34.718
34.708
34.698
34.688
34.676
34.663
34.647
34.629
34.609
34.588
34.565
34.541
34.516
34.491
34.466
34.444
34.423
34.405
34.389
34.377
34.366
34.358
34.352
34.349
34.348
34.349
34.35
34.353
34.358
34.366
34.378
34.396
34.421
34.453
34.493
34.539
34.594
34.656
34.725
34.8
34.881
34.968
35.06
35.157
35.256
35.355
35.451
35.544
35.632
35.714
35.788
35.856
35.916
35.968
36.011
36.046
36.071
36.086
36.093
36.093
36.084
36.068
36.044
36.014
35.978
35.938
35.895
35.85
35.804
35.759
35.715
35.674
35.637
35.604
35.575
35.549
35.527
35.507
35.49
35.474
35.459
35.444
35.43
35.415
35.4
35.384
35.366
35.348
35.329
35.311
35.292
35.275
35.26
35.248
35.238
35.23
35.223
35.217
35.213
35.21
35.208
35.208
35.21
35.212
35.217
35.224
35.233
35.245
35.258
35.273
35.289
35.305
35.32
35.332
35.342
35.35
35.354
35.355
35.352
35.345
35.332
35.315
35.294
35.271
35.244
35.216
35.185
35.153
35.121
35.089
35.057
35.027
34.999
34.972
34.948
34.926
34.906
34.887
34.871
34.856
34.844
34.832
34.82
34.808
34.795
34.78
34.762
34.741
34.717
34.691
34.665
34.639
34.612
34.586
34.56
34.535
34.51
34.487
34.466
34.448
34.432
34.42
34.41
34.403
34.399
34.397
34.398
34.4
34.403
34.406
34.407
34.407
34.405
34.399
34.392
34.382
34.37
34.356
34.343
34.33
34.32
34.314
34.313
34.319
34.333
34.357
34.391
34.435
34.491
34.557
34.634
34.721
34.816
34.918
35.024
35.134
35.243
35.351
35.454
35.551
35.641
35.721
35.791
35.849
35.896
35.932
35.957
35.971
35.976
35.972
35.962
35.947
35.928
35.906
35.882
35.857
35.832
35.808
35.785
35.763
35.742
35.72
35.699
35.677
35.655
35.634
35.612
35.591
35.568
35.545
35.52
35.493
35.465
35.436
35.406
35.373
35.34
35.305
35.269
35.235
35.203
35.173
35.149
35.129
35.115
35.107
35.104
35.105
35.112
35.122
35.136
35.155
35.176
35.199
35.223
35.247
35.269
35.288
35.304
35.317
35.327
35.333
35.334
35.331
35.323
35.312
35.299
35.284
35.27
35.256
35.244
35.233
35.224
35.217
35.211
35.205
35.201
35.196
35.19
35.183
35.174
35.163
35.15
35.135
35.117
35.096
35.073
35.049
35.022
34.994
34.965
34.935
34.904
34.873
34.843
34.813
34.785
34.759
34.736
34.716
34.699
34.686
34.675
34.667
34.66
34.654
34.65
34.646
34.642
34.638
34.633
34.627
34.619
34.608
34.594
34.578
34.56
34.541
34.521
34.5
34.477
34.454
34.432
34.41
34.39
34.374
34.361
34.354
34.35
34.351
34.356
34.366
34.381
34.4
34.425
34.456
34.492
34.533
34.581
34.634
34.695
34.762
34.835
34.915
35.001
35.09
35.183
35.277
35.371
35.463
35.553
35.64
35.722
35.8
35.871
35.937
35.995
36.045
36.088
36.125
36.154
36.178
36.197
36.209
36.216
36.218
36.215
36.207
36.194
36.176
36.153
36.125
36.093
36.056
36.017
35.975
35.932
35.89
35.849
35.81
35.773
35.739
35.708
35.68
35.654
35.631
35.609
35.59
35.571
35.555
35.54
35.526
35.513
35.502
35.493
35.485
35.478
35.471
35.466
35.46
35.455
35.45
35.445
35.44
35.432
35.424
35.415
35.405
35.397
35.39
35.386
35.385
35.386
35.39
35.395
35.402
35.411
35.422
35.434
35.446
35.458
35.468
35.475
35.48
35.482
35.48
35.475
35.466
35.453
35.435
35.412
35.386
35.355
35.323
35.288
35.253
35.218
35.183
35.15
35.119
35.091
35.065
35.041
35.021
35.003
34.987
34.974
34.963
34.955
34.947
34.941
34.936
34.931
34.925
34.918
34.91
34.9
34.888
34.874
34.857
34.838
34.816
34.792
34.767
34.74
34.712
34.685
34.66
34.636
34.614
34.596
34.58
34.567
34.558
34.553
34.551
34.553
34.557
34.563
34.569
34.575
34.58
34.584
34.586
34.585
34.582
34.576
34.567
34.556
34.546
34.537
34.532
34.532
34.539
34.555
34.58
34.616
34.665
34.726
34.801
34.888
34.987
35.095
35.21
35.33
35.453
35.578
35.701
35.821
35.935
36.041
36.135
36.215
36.281
36.332
36.368
36.392
36.404
36.407
36.402
36.39
36.372
36.351
36.328
36.304
36.28
36.257
36.234
36.214
36.195
36.178
36.163
36.149
36.136
36.123
36.111
36.098
36.085
36.071
36.056
36.04
36.023
36.003
35.979
35.953
35.923
35.891
35.856
35.819
35.782
35.744
35.708
35.675
35.645
35.62
35.601
35.589
35.582
35.582
35.586
35.596
35.609
35.626
35.646
35.668
35.691
35.713
35.733
35.751
35.765
35.777
35.785
35.789
35.789
35.785
35.776
35.764
35.749
35.73
35.709
35.686
35.662
35.638
35.615
35.592
35.571
35.551
35.534
35.519
35.506
35.493
35.481
35.468
35.455
35.44
35.423
35.404
35.384
35.361
35.336
35.309
35.281
35.25
35.218
35.185
35.151
35.116
35.081
35.046
35.011
34.979
34.948
34.92
34.895
34.873
34.853
34.837
34.824
34.814
34.807
34.803
34.801
34.8
34.8
34.798
34.795
34.79
34.781
34.769
34.754
34.735
34.714
34.69
34.665
34.639
34.612
34.587
34.564
34.543
34.526
34.512
34.501
34.493
34.488
34.486
34.487
34.491
34.496
34.502
34.509
34.516
34.522
34.528
34.535
34.544
34.556
34.572
34.592
34.617
34.647
34.685
34.73
34.784
34.847
34.919
34.999
35.088
35.185
35.287
35.394
35.505
35.617
35.728
35.838
35.943
36.043
36.136
36.222
36.299
36.366
36.42
36.462
36.49
36.506
36.509
36.502
36.485
36.459
36.426
36.388
36.345
36.299
36.25
36.201
36.153
36.106
36.062
36.021
35.984
35.95
35.921
35.896
35.875
35.859
35.845
35.834
35.826
35.82
35.814
35.809
35.803
35.794
35.783
35.768
35.751
35.73
35.707
35.683
35.659
35.635
35.612
35.592
35.573
35.557
35.545
35.537
35.534
35.534
35.538
35.545
35.555
35.567
35.582
35.598
35.616
35.634
35.652
35.668
35.681
35.691
35.696
35.698
35.696
35.689
35.678
35.663
35.644
35.621
35.596
35.568
35.539
35.508
35.477
35.446
35.416
35.386
35.358
35.331
35.307
35.284
35.264
35.245
35.229
35.214
35.202
35.19
35.179
35.167
35.154
35.139
35.121
35.1
35.075
35.047
35.016
34.983
34.949
34.914
34.878
34.841
34.805
34.771
34.74
34.711
34.686
34.667
34.654
34.648
34.649
34.653
34.66
34.666
34.672
34.676
34.679
34.679
34.676
34.671
34.662
34.649
34.631
34.609
34.584
34.555
34.525
34.495
34.464
34.434
34.408
34.384
34.365
34.35
34.339
34.331
34.328
34.328
34.331
34.337
34.347
34.36
34.377
34.398
34.424
34.455
34.492
34.537
34.589
34.65
34.717
34.79
34.869
34.954
35.045
35.14
35.237
35.336
35.434
35.53
35.623
35.713
35.798
35.878
35.951
36.018
36.077
36.127
36.17
36.204
36.231
36.251
36.263
36.267
36.263
36.252
36.234
36.209
36.179
36.142
36.1
36.053
36.003
35.952
35.901
35.853
35.807
35.765
35.727
35.693
35.664
35.639
35.617
35.6
35.584
35.57
35.558
35.546
35.535
35.525
35.515
35.505
35.494
35.483
35.472
35.46
35.448
35.434
35.42
35.405
35.391
35.379
35.37
35.362
35.356
35.354
35.354
35.359
35.368
35.379
35.394
35.41
35.429
35.448
35.469
35.491
35.512
35.532
35.549
35.563
35.573
35.578
35.579
35.576
35.568
35.555
35.538
35.514
35.487
35.455
35.42
35.383
35.345
35.306
35.268
35.23
35.193
35.158
35.126
35.097
35.073
35.052
35.035
35.022
35.011
35.003
34.997
34.992
34.987
34.982
34.975
34.965
34.952
34.936
34.915
34.891
34.863
34.832
34.799
34.766
34.732
34.699
34.667
34.637
34.61
34.586
34.564
34.547
34.534
34.523
34.516
34.512
34.51
34.511
34.514
34.519
34.525
34.53
34.534
34.537
34.538
34.537
34.534
34.527
34.518
34.506
34.493
34.478
34.465
34.456
34.451
34.454
34.465
34.486
34.516
34.559
34.613
34.679
34.755
34.842
34.938
35.041
35.149
35.261
35.374
35.487
35.599
35.707
35.81
35.906
35.994
36.073
36.142
36.201
36.251
36.292
36.324
