Trial 3:3back
35.361
35.338
35.318
35.298
35.281
35.265
35.25
35.237
35.226
35.216
35.208
35.201
35.195
35.19
35.185
35.179
35.173
35.165
35.157
35.147
35.136
35.125
35.113
35.102
35.091
35.08
35.069
35.059
35.049
35.039
35.028
35.018
35.008
34.999
34.99
34.981
34.974
34.966
34.96
34.956
34.952
34.95
34.949
34.948
34.948
34.948
34.947
34.946
34.945
34.942
34.939
34.935
34.93
34.926
34.922
34.92
34.921
34.926
34.937
34.955
34.983
35.022
35.072
35.135
35.211
35.3
35.4
35.511
35.629
35.753
35.881
36.009
36.134
36.255
36.367
36.47
36.562
36.641
36.706
36.757
36.795
36.818
36.829
36.826
36.812
36.788
36.754
36.713
36.665
36.613
36.557
36.498
36.438
36.376
36.315
36.255
36.198
36.144
36.093
36.045
36.002
35.963
35.928
35.897
35.869
35.844
35.822
35.801
35.782
35.763
35.744
35.723
35.702
35.679
35.654
35.628
35.601
35.574
35.546
35.519
35.494
35.47
35.45
35.433
35.419
35.409
35.402
35.4
35.4
35.404
35.411
35.422
35.435
35.451
35.469
35.49
35.511
35.533
35.556
35.578
35.6
35.62
35.64
35.659
35.675
35.689
35.699
35.706
35.71
35.71
35.707
35.7
35.69
35.677
35.662
35.644
35.624
35.603
35.582
35.561
35.54
35.519
35.499
35.479
35.46
35.442
35.424
35.407
35.39
35.373
35.355
35.337
35.318
35.298
35.28
35.262
35.245
35.229
35.214
35.201
35.189
35.178
35.168
35.159
35.151
35.143
35.135
35.127
35.117
35.108
35.099
35.09
35.081
35.073
35.065
35.059
35.052
35.046
35.039
35.032
35.025
35.017
35.009
35.001
34.993
34.985
34.978
34.971
34.966
34.961
34.957
34.954
34.952
34.951
34.951
34.951
34.951
34.951
34.95
34.947
34.943
34.937
34.93
34.922
34.915
34.91
34.907
34.909
34.917
34.935
34.964
35.006
35.061
35.131
35.215
35.312
35.421
35.538
35.663
35.792
35.923
36.052
36.178
36.296
36.404
36.5
36.582
36.649
36.7
36.735
36.756
36.762
36.754
36.735
36.706
36.668
36.623
36.573
36.519
36.462
36.404
36.345
36.286
36.229
36.173
36.119
36.069
36.021
35.977
35.938
35.902
35.872
35.846
35.824
35.805
35.789
35.774
35.761
35.747
35.733
35.717
35.698
35.677
35.653
35.626
35.596
35.565
35.533
35.502
35.472
35.445
35.421
35.4
35.384
35.373
35.367
35.364
35.365
35.37
35.377
35.388
35.401
35.417
35.434
35.454
35.474
35.496
35.519
35.541
35.564
35.585
35.605
35.623
35.639
35.652
35.661
35.667
35.67
35.669
35.665
35.658
35.647
35.633
35.617
35.599
35.58
35.559
35.538
35.516
35.494
35.473
35.451
35.431
35.411
35.392
35.373
35.355
35.338
35.321
35.304
35.288
35.273
35.257
35.242
35.226
35.212
35.198
35.186
35.176
35.168
35.16
35.154
35.149
35.144
35.14
35.135
35.13
35.124
35.117
35.109
35.1
35.091
35.081
35.071
35.062
35.053
35.045
35.039
35.034
35.031
35.028
35.026
35.025
35.024
35.023
35.022
35.02
35.018
35.015
35.011
35.005
34.999
34.993
34.987
34.98
34.973
34.965
34.957
34.949
34.94
34.931
34.921
34.912
34.903
34.895
34.887
34.88
34.874
34.871
34.871
34.876
34.888
34.908
34.937
34.976
35.028
35.092
35.17
35.261
35.364
35.477
35.599
35.727
35.858
35.989
36.117
36.239
36.353
36.456
36.547
36.624
36.686
36.734
36.767
36.785
36.789
36.781
36.76
36.73
36.691
36.644
36.59
36.531
36.468
36.402
36.335
36.268
36.202
36.138
36.078
36.022
35.97
35.925
35.885
35.851
35.821
35.796
35.774
35.754
35.736
35.718
35.699
35.679
35.658
35.633
35.607
35.577
35.546
35.513
35.479
35.445
35.412
35.38
35.351
35.326
35.304
35.287
35.274
35.267
35.265
35.27
35.279
35.294
35.313
35.335
35.36
35.387
35.416
35.445
35.476
35.507
35.537
35.566
35.593
35.618
35.64
35.658
35.673
35.684
35.691
35.695
35.694
35.689
35.681
35.67
35.657
35.642
35.625
35.608
35.589
35.569
35.549
35.528
35.506
35.485
35.463
35.441
35.418
35.397
35.375
35.353
35.331
35.309
35.288
35.268
35.249
35.231
35.214
35.198
35.184
35.171
35.16
35.149
35.139
35.13
35.121
35.113
35.105
35.097
35.089
35.083
35.077
35.071
35.067
35.063
35.06
35.056
35.053
35.049
35.045
35.04
35.035
35.029
35.023
35.016
35.009
35.003
34.996
34.99
34.983
34.978
34.972
34.968
34.964
34.962
34.96
34.959
34.959
34.959
34.958
34.957
34.954
34.95
34.943
34.936
34.927
34.917
34.908
34.898
34.89
34.884
34.881
34.882
34.889
34.902
34.924
34.956
35.0
35.056
35.126
35.21
35.307
35.416
35.536
35.663
35.795
35.929
36.062
36.192
36.315
36.428
36.529
36.617
36.691
36.75
36.793
36.821
36.834
36.834
36.821
36.797
36.763
36.719
36.668
36.611
36.551
36.488
36.425
36.362
36.3
36.241
36.185
36.132
36.084
36.04
36.0
35.965
35.933
35.905
35.879
35.855
35.834
35.813
35.793
35.772
35.751
35.728
35.702
35.675
35.646
35.616
35.585
35.555
35.525
35.496
35.47
35.446
35.424
35.406
35.391
35.38
35.372
35.368
35.367
35.37
35.376
35.387
35.401
35.419
35.44
35.462
35.486
35.511
35.536
35.561
35.585
35.608
35.63
35.649
35.666
35.68
35.69
35.696
35.699
35.698
35.694
35.687
35.676
35.662
35.646
35.628
35.608
35.587
35.565
35.542
35.518
35.495
35.471
35.447
35.424
35.401
35.38
35.359
35.339
35.32
35.301
35.284
35.267
35.252
35.239
35.226
35.215
35.204
35.193
35.183
35.173
35.163
35.152
35.142
35.132
35.121
35.109
35.098
35.087
35.077
35.067
35.058
35.049
35.041
35.034
35.026
35.019
35.012
35.004
34.997
34.989
34.981
34.973
34.966
34.959
34.954
34.948
34.943
34.939
34.935
34.931
34.928
34.925
34.923
34.92
34.918
34.914
34.91
34.905
34.899
34.892
34.885
34.876
34.868
34.859
34.849
34.841
34.834
34.829
34.827
34.83
34.837
34.852
34.875
34.907
34.951
35.007
35.077
35.159
35.254
35.361
35.479
35.606
35.739
35.877
36.015
36.15
36.281
36.403
36.514
36.613
36.698
36.767
36.82
36.856
36.877
36.882
36.873
36.851
36.819
36.778
36.731
36.678
36.622
36.564
36.506
36.448
36.392
36.338
36.287
36.239
36.196
36.155
36.118
36.083
36.052
36.022
35.996
35.971
35.948
35.926
35.905
35.885
35.866
35.848
35.83
35.813
35.794
35.775
35.754
35.731
35.706
35.679
35.651
35.623
35.595
35.568
35.543
35.521
35.503
35.489
35.479
35.473
35.471
35.473
35.479
35.489
35.502
35.517
35.534
35.554
35.574
35.596
35.619
35.641
35.662
35.683
35.702
35.719
35.734
35.745
35.754
35.76
35.764
35.765
35.764
35.76
35.754
35.745
35.732
35.717
35.7
35.679
35.657
35.633
35.607
35.581
35.555
35.529
35.504
35.48
35.457
35.436
35.417
35.399
35.382
35.367
35.352
35.336
35.32
35.303
35.285
35.267
35.249
35.232
35.215
35.2
35.186
35.174
35.164
35.156
35.15
35.144
35.14
35.136
35.132
35.127
35.121
35.114
35.106
35.097
35.088
35.079
35.07
35.061
35.054
35.047
35.041
35.037
35.033
35.029
35.026
35.022
35.018
35.012
35.006
34.998
34.991
34.982
34.974
34.964
34.954
34.944
34.934
34.924
34.915
34.908
34.901
34.895
34.891
34.887
34.884
34.882
34.882
34.885
34.89
34.9
34.916
34.938
34.969
35.011
35.064
35.129
35.208
35.3
35.403
35.516
35.637
35.764
35.894
36.024
36.153
36.277
36.393
36.499
36.593
36.674
36.739
36.789
36.824
36.844
36.851
36.845
36.827
36.8
36.764
36.721
36.673
36.621
36.566
36.509
36.45
36.391
36.334
36.277
36.222
36.17
36.121
36.076
36.035
35.998
35.965
35.937
35.912
35.891
35.871
35.852
35.834
35.814
35.794
35.773
35.75
35.725
35.698
35.669
35.639
35.608
35.577
35.547
35.517
35.49
35.466
35.445
35.428
35.415
35.406
35.401
35.401
35.403
35.409
35.418
35.43
35.445
35.465
35.487
35.512
35.539
35.567
35.595
35.622
35.647
35.67
35.689
35.705
35.717
35.725
35.727
35.725
35.718
35.708
35.694
35.677
35.657
35.636
35.613
35.588
35.564
35.539
35.514
35.491
35.47
35.45
35.432
35.416
35.402
35.388
35.375
35.363
35.35
35.337
35.323
35.309
35.294
35.278
35.262
35.246
35.23
35.214
35.2
35.186
35.172
35.159
35.147
35.136
35.126
35.116
35.108
35.1
35.092
35.084
35.077
35.07
35.064
35.057
35.05
35.042
35.035
35.028
35.022
35.016
35.011
35.007
35.003
35.0
34.997
34.995
34.992
34.989
34.985
34.982
34.978
34.974
34.969
34.965
34.961
34.958
34.955
34.953
34.951
34.949
34.946
34.943
34.938
34.932
34.925
34.918
34.91
34.901
34.892
34.883
34.875
34.867
34.861
34.857
34.854
34.856
34.861
34.873
34.894
34.925
34.968
35.024
35.095
35.181
35.28
35.391
35.513
35.643
35.779
35.917
36.053
36.185
36.309
36.423
36.525
36.613
36.685
36.742
36.784
36.811
36.824
36.824
36.813
36.791
36.761
36.723
36.678
36.628
36.573
36.515
36.455
36.393
36.331
36.27
36.21
36.152
36.097
36.046
35.998
35.956
35.917
35.883
35.853
35.826
35.802
35.78
35.759
35.739
35.719
35.698
35.676
35.653
35.627
35.599
35.57
35.54
35.51
35.48
35.452
35.426
35.402
35.383
35.366
35.355
35.347
35.342
35.342
35.344
35.349
35.357
35.368
35.382
35.4
35.419
35.442
35.466
35.492
35.519
35.547
35.574
35.599
35.623
35.643
35.66
35.674
35.682
35.687
35.688
35.686
35.679
35.669
35.656
35.64
35.622
35.603
35.582
35.561
35.539
35.516
35.493
35.469
35.446
35.422
35.399
35.377
35.356
35.335
35.314
35.295
35.276
35.259
35.243
35.23
35.217
35.206
35.196
35.187
35.178
35.169
35.16
35.151
35.141
35.132
35.122
35.112
35.102
35.092
35.081
35.07
35.06
35.049
35.039
35.028
35.018
35.008
34.999
34.989
34.979
34.969
34.96
34.953
34.946
34.94
34.935
34.932
34.929
34.928
34.926
34.925
34.924
34.922
34.92
34.918
34.916
34.913
34.909
34.904
34.899
34.894
34.888
34.882
34.876
34.871
34.866
34.861
34.857
34.853
34.848
34.843
34.836
34.829
34.822
34.814
34.806
34.8
34.795
34.793
34.796
34.806
34.824
34.852
34.892
34.945
35.011
35.091
35.183
35.289
35.405
35.529
35.661
35.795
35.931
36.064
36.192
36.312
36.424
36.524
36.611
36.684
36.742
36.785
36.811
36.823
36.821
36.805
36.777
36.738
36.691
36.635
36.574
36.508
36.44
36.372
36.303
36.235
36.169
36.106
36.047
35.992
35.942
35.897
35.856
35.819
35.785
35.755
35.727
35.701
35.676
35.652
35.628
35.605
35.581
35.556
35.529
35.502
35.473
35.444
35.415
35.386
35.358
35.332
35.309
35.29
35.274
35.263
35.256
35.253
35.255
35.262
35.273
35.288
35.307
35.328
35.352
35.377
35.403
35.429
35.454
35.479
35.502
35.523
35.544
35.562
35.578
35.593
35.604
35.614
35.62
35.622
35.622
35.618
35.612
35.603
35.591
35.576
35.558
35.537
35.515
35.49
35.465
35.439
35.412
35.386
35.36
35.335
35.311
35.289
35.269
35.25
35.234
35.219
35.204
35.19
35.176
35.162
35.147
35.132
35.116
35.1
35.085
35.069
35.054
35.039
35.025
35.013
35.002
34.991
34.981
34.972
34.964
34.957
34.951
34.946
34.941
34.937
34.934
34.931
34.928
34.926
34.923
34.92
34.917
34.913
34.908
34.903
34.897
34.89
34.882
34.873
34.864
34.854
34.845
34.835
34.827
34.819
34.813
34.808
34.803
34.799
34.795
34.79
34.785
34.778
34.77
34.762
34.753
34.744
34.734
34.725
34.716
34.708
34.701
34.694
34.687
34.681
34.675
34.67
34.666
34.664
34.665
34.671
34.684
34.705
34.736
34.779
34.836
34.909
34.996
35.098
35.213
35.34
35.477
35.621
35.768
35.915
36.06
36.198
36.327
36.444
36.546
36.632
36.702
36.755
36.79
36.809
36.813
36.802
36.779
36.745
36.702
36.652
36.597
36.539
36.478
36.416
36.354
36.293
36.233
36.176
36.121
36.069
36.02
35.975
35.933
35.895
35.861
35.83
35.803
35.779
35.757
35.737
35.719
35.701
35.684
35.666
35.647
35.627
35.605
35.582
35.556
35.529
35.501
35.473
35.445
35.419
35.395
35.373
35.355
35.341
35.331
35.326
35.323
35.325
35.329
35.336
35.346
35.358
35.371
35.385
35.4
35.415
35.431
35.448
35.465
35.483
35.502
35.521
35.54
35.558
35.575
35.59
35.603
35.612
35.619
35.621
35.62
35.616
35.608
35.597
35.583
35.567
35.549
35.529
35.508
35.487
35.465
35.443
35.42
35.397
35.372
35.347
35.323
35.298
35.275
35.254
35.234
35.215
35.198
35.182
35.168
35.154
35.142
35.129
35.117
35.105
35.092
35.079
35.067
35.053
35.04
35.027
35.014
35.001
34.989
34.978
34.968
34.959
34.952
34.946
34.941
34.937
34.934
34.931
34.928
34.925
34.922
34.918
34.913
34.908
34.902
34.896
34.89
34.884
34.878
34.873
34.869
34.865
34.862
34.858
34.854
34.85
34.845
34.84
34.834
34.828
34.82
34.813
34.806
34.799
34.794
34.789
34.784
34.78
34.777
34.774
34.771
34.769
34.766
34.763
34.761
34.759
34.759
34.76
34.765
34.776
34.795
34.823
34.862
34.915
34.982
35.063
35.158
35.266
35.385
35.513
35.647
35.785
35.922
36.055
36.181
36.298
36.404
36.497
36.576
36.639
36.686
36.717
36.733
36.735
36.723
36.7
36.666
36.625
36.575
36.519
36.458
36.393
36.326
36.259
36.193
36.13
36.07
36.014
35.961
35.913
35.868
35.827
35.789
35.755
35.723
35.693
35.666
35.64
35.616
35.593
35.57
35.548
35.525
35.503
35.479
35.455
35.43
35.405
35.379
35.353
35.328
35.303
35.28
35.258
35.239
35.222
35.209
35.199
35.193
35.19
35.191
35.196
35.205
35.217
35.233
35.252
35.274
35.298
35.324
35.35
35.377
35.403
35.427
35.449
35.468
35.484
35.497
35.507
35.513
35.516
35.516
35.513
35.508
35.5
35.49
35.478
35.463
35.446
35.428
35.408
35.388
35.367
35.346
35.324
35.302
35.28
35.257
35.233
35.209
35.185
35.16
35.136
35.111
35.087
35.064
35.043
35.023
35.005
34.988
34.973
34.959
34.946
34.935
34.924
34.915
34.907
34.898
34.89
34.882
34.873
34.863
34.852
34.841
34.829
34.817
34.806
34.795
34.786
34.778
34.773
34.769
34.766
34.764
34.762
34.76
34.758
34.755
34.752
34.748
34.744
34.739
34.733
34.728
34.723
34.719
34.715
34.71
34.706
34.703
34.7
34.697
34.694
34.69
34.687
34.683
34.678
34.673
34.668
34.662
34.656
34.65
34.643
34.635
34.627
34.619
34.611
34.604
34.598
34.594
34.593
34.595
34.603
34.617
34.64
34.673
34.717
34.775
34.846
34.931
35.029
35.14
35.261
35.391
35.526
35.664
35.801
35.934
36.061
36.178
36.284
36.377
36.456
36.52
36.569
36.602
36.621
36.625
36.617
36.596
36.565
36.524
36.475
36.419
36.358
36.292
36.222
36.151
36.08
36.01
35.943
35.878
35.818
35.761
35.71
35.662
35.619
35.58
35.544
35.512
35.483
35.456
35.432
35.409
35.388
35.367
35.345
35.323
35.299
35.274
35.247
35.219
35.189
35.16
35.13
35.102
35.075
35.052
35.031
35.015
35.004
34.998
34.998
35.003
35.013
35.028
35.048
35.07
35.096
35.124
35.153
35.183
35.213
35.243
35.271
35.298
35.322
35.345
35.365
35.383
35.399
35.412
35.422
35.429
35.433
35.433
35.43
35.424
35.414
35.401
35.385
35.366
35.346
35.324
35.302
35.278
35.255
35.231
35.207
35.182
35.158
35.133
35.108
35.084
35.061
35.038
35.017
34.996
34.976
34.958
34.941
34.925
34.911
34.899
34.888
34.879
34.87
34.863
34.856
34.848
34.841
34.832
34.823
34.813
34.803
34.792
34.782
34.771
34.761
34.752
34.743
34.736
34.731
34.726
34.723
34.719
34.715
34.711
34.706
34.701
34.695
34.69
34.684
34.679
34.674
34.671
34.669
34.668
34.668
34.668
34.669
34.67
34.671
34.671
34.671
34.669
34.666
34.662
34.658
34.653
34.648
34.642
34.637
34.632
34.627
34.622
34.615
34.607
34.598
34.588
34.577
34.565
34.554
34.544
34.536
34.532
34.533
34.542
34.559
34.587
34.626
34.678
34.744
34.824
34.918
35.025
35.144
35.272
35.407
35.546
35.686
35.823
35.956
36.081
36.196
36.299
36.389
36.463
36.521
36.562
36.586
36.594
36.587
36.566
36.532
36.487
36.433
36.372
36.304
36.232
36.158
36.082
36.007
35.933
35.861
35.794
35.731
35.672
35.618
35.57
35.526
35.488
35.453
35.421
35.393
35.366
35.341
35.318
35.295
35.272
35.248
35.222
35.195
35.166
35.135
35.104
35.072
35.04
35.009
34.98
34.953
34.93
34.911
34.897
34.888
34.886
34.89
34.898
34.911
34.928
34.949
34.972
34.997
35.024
35.051
35.079
35.108
35.137
35.165
35.193
35.219
35.244
35.268
35.29
35.309
35.325
35.337
35.345
35.35
35.351
35.349
35.343
35.335
35.325
35.312
35.298
35.283
35.267
35.25
35.232
35.212
35.192
35.171
35.149
35.126
35.102
35.079
35.055
35.031
35.007
34.984
34.961
34.939
34.918
34.897
34.878
34.86
34.843
34.826
34.811
34.796
34.782
34.769
34.756
34.745
34.734
34.725
34.717
34.71
34.704
34.699
34.695
34.691
34.688
34.685
34.682
34.678
34.674
34.67
34.665
34.659
34.652
34.645
34.637
34.629
34.621
34.613
34.604
34.597
34.591
34.586
34.582
34.58
34.579
34.579
34.579
34.579
34.581
34.583
34.586
34.588
34.589
34.59
34.59
34.589
34.587
34.583
34.577
34.571
34.564
34.558
34.552
34.546
34.54
34.534
34.529
34.526
34.523
34.522
34.523
34.527
34.537
34.552
34.577
34.612
34.659
34.719
34.794
34.884
34.988
35.106
35.235
35.374
35.521
35.671
35.82
35.967
36.106
36.234
36.35
36.451
36.535
36.601
36.648
36.678
36.69
36.687
36.669
36.638
36.595
36.543
36.482
36.415
36.343
36.268
36.191
36.114
36.039
35.965
35.895
35.828
35.765
35.706
35.653
35.604
35.561
35.523
35.489
35.46
35.435
35.412
35.392
35.372
35.353
35.334
35.313
35.29
35.264
35.236
35.205
35.173
35.14
35.108
35.077
35.048
35.021
34.997
34.977
34.961
34.95
34.944
34.943
34.947
34.956
34.968
34.985
35.005
35.028
35.054
35.082
35.112
35.144
35.176
35.209
35.241
35.272
35.301
35.328
35.353
35.375
35.393
35.408
35.418
35.425
35.427
35.426
35.42
35.411
35.399
35.383
35.365
35.345
35.324
35.301
35.277
35.253
35.228
35.203
35.178
35.153
35.129
35.106
35.085
35.065
35.047
35.029
35.012
34.996
34.98
34.964
34.948
34.933
34.917
34.901
34.885
34.869
34.853
34.837
34.823
34.81
34.799
34.788
34.78
34.772
34.767
34.762
34.758
34.755
34.753
34.752
34.751
34.75
34.75
34.749
34.748
34.747
34.746
34.743
34.739
34.734
34.728
34.721
34.714
34.707
34.699
34.692
34.686
34.679
34.673
34.667
34.662
34.656
34.652
34.649
34.646
34.645
34.644
34.643
34.643
34.642
34.642
34.641
34.64
34.638
34.637
34.634
34.631
34.628
34.624
34.62
34.615
34.612
34.612
34.615
34.625
34.642
34.669
34.709
34.762
34.831
34.916
35.015
35.128
35.254
35.39
35.533
35.681
35.83
35.978
36.119
36.251
36.371
36.477
36.568
36.64
36.695
36.731
36.75
36.752
36.738
36.712
36.674
36.627
36.573
36.513
36.448
36.381
36.312
36.242
36.172
36.104
36.037
35.973
35.911
35.852
35.796
35.743
35.694
35.648
35.606
35.566
35.53
35.497
35.465
35.436
35.408
35.381
35.354
35.328
35.301
35.274
35.246
35.217
35.189
35.16
35.133
35.107
35.083
35.062
35.045
35.032
35.022
35.017
35.017
35.02
35.028
35.04
35.055
35.073
35.094
35.118
35.143
35.171
35.199
35.229
35.26
35.291
35.321
35.35
35.377
35.403
35.425
35.445
35.461
35.475
35.484
35.49
35.491
35.489
35.484
35.475
35.464
35.45
35.434
35.416
35.396
35.376
35.355
35.334
35.313
35.292
35.27
35.248
35.227
35.205
35.185
35.165
35.146
35.127
35.11
35.093
35.075
35.058
35.04
35.023
35.006
34.989
34.973
34.957
34.942
34.927
34.913
34.901
34.889
34.879
34.869
34.861
34.854
34.847
34.84
34.834
34.827
34.821
34.815
34.809
34.803
34.798
34.794
34.79
34.787
34.784
34.783
34.781
34.78
34.778
34.775
34.772
34.767
34.762
34.757
34.752
34.747
34.742
34.737
34.732
34.728
34.724
34.72
34.717
34.713
34.71
34.705
34.7
34.694
34.688
34.682
34.675
34.669
34.663
34.659
34.655
