Trial 3:3back
35.477
35.44
35.403
35.368
35.333
35.3
35.268
35.236
35.203
35.17
35.136
35.101
35.064
35.026
34.986
34.946
34.906
34.866
34.827
34.788
34.751
34.715
34.68
34.646
34.612
34.579
34.547
34.515
34.484
34.455
34.428
34.402
34.377
34.353
34.331
34.309
34.289
34.271
34.255
34.241
34.228
34.218
34.21
34.204
34.198
34.193
34.188
34.182
34.174
34.165
34.154
34.141
34.126
34.108
34.089
34.069
34.048
34.026
34.004
33.981
33.959
33.937
33.916
33.893
33.871
33.847
33.824
33.799
33.774
33.748
33.722
33.696
33.67
33.645
33.622
33.602
33.586
33.574
33.568
33.568
33.577
33.595
33.624
33.664
33.717
33.783
33.864
33.959
34.068
34.192
34.329
34.477
34.636
34.801
34.971
35.144
35.317
35.488
35.654
35.815
35.969
36.114
36.251
36.377
36.491
36.595
36.686
36.765
36.831
36.884
36.926
36.956
36.976
36.986
36.988
36.983
36.973
36.957
36.938
36.917
36.893
36.869
36.844
36.82
36.796
36.772
36.748
36.725
36.701
36.676
36.651
36.624
36.596
36.566
36.534
36.498
36.46
36.417
36.37
36.318
36.261
36.199
36.134
36.066
35.997
35.928
35.861
35.795
35.734
35.676
35.622
35.574
35.532
35.495
35.463
35.436
35.414
35.398
35.386
35.379
35.377
35.38
35.388
35.399
35.415
35.434
35.457
35.482
35.508
35.536
35.564
35.591
35.618
35.643
35.665
35.683
35.698
35.708
35.714
35.715
35.712
35.705
35.694
35.68
35.664
35.644
35.623
35.6
35.575
35.548
35.521
35.493
35.465
35.437
35.409
35.381
35.353
35.326
35.298
35.27
35.242
35.212
35.181
35.15
35.116
35.082
35.047
35.012
34.976
34.94
34.905
34.871
34.838
34.806
34.775
34.745
34.716
34.687
34.658
34.628
34.597
34.565
34.531
34.497
34.462
34.426
34.391
34.356
34.323
34.292
34.262
34.235
34.211
34.188
34.167
34.148
34.13
34.113
34.096
34.08
34.064
34.048
34.032
34.017
34.003
33.989
33.977
33.964
33.953
33.942
33.93
33.917
33.904
33.889
33.872
33.852
33.83
33.805
33.776
33.744
33.709
33.671
33.632
33.593
33.554
33.517
33.482
33.45
33.42
33.394
33.371
33.351
33.335
33.324
33.317
33.316
33.323
33.338
33.363
33.4
33.451
33.517
33.599
33.698
33.813
33.943
34.088
34.246
34.415
34.593
34.779
34.969
35.16
35.351
35.54
35.723
35.9
36.069
36.228
36.376
36.512
36.636
36.746
36.842
36.926
36.996
37.054
37.1
37.136
37.161
37.177
37.185
37.187
37.183
37.174
37.161
37.145
37.126
37.105
37.083
37.059
37.035
37.011
36.986
36.961
36.936
36.911
36.885
36.859
36.832
36.805
36.777
36.747
36.716
36.682
36.644
36.603
36.558
36.51
36.458
36.403
36.345
36.285
36.224
36.163
36.102
36.043
35.986
35.932
35.882
35.837
35.797
35.763
35.734
35.71
35.692
35.679
35.672
35.669
35.67
35.674
35.681
35.69
35.701
35.713
35.727
35.741
35.756
35.771
35.786
35.8
35.813
35.826
35.837
35.847
35.855
35.861
35.863
35.863
35.86
35.854
35.845
35.832
35.816
35.797
35.774
35.748
35.719
35.688
35.653
35.617
35.579
35.539
35.5
35.461
35.423
35.387
35.352
35.318
35.286
35.255
35.225
35.196
35.167
35.139
35.11
35.081
35.051
35.02
34.988
34.956
34.923
34.889
34.856
34.822
34.787
34.753
34.719
34.685
34.652
34.62
34.588
34.557
34.526
34.496
34.465
34.436
34.407
34.38
34.354
34.329
34.306
34.284
34.265
34.246
34.229
34.213
34.197
34.18
34.164
34.146
34.128
34.109
34.089
34.068
34.047
34.026
34.005
33.985
33.966
33.948
33.932
33.917
33.903
33.89
33.876
33.862
33.847
33.832
33.814
33.794
33.772
33.748
33.721
33.693
33.664
33.635
33.607
33.58
33.556
33.534
33.515
33.5
33.489
33.483
33.483
33.488
33.5
33.52
33.55
33.59
33.643
33.71
33.791
33.886
33.997
34.123
34.263
34.415
34.579
34.751
34.93
35.113
35.298
35.481
35.661
35.834
35.999
36.154
36.296
36.426
36.542
36.645
36.733
36.809
36.873
36.925
36.967
37.0
37.024
37.04
37.048
37.049
37.044
37.033
37.017
36.996
36.972
36.945
36.916
36.886
36.856
36.826
36.797
36.768
36.741
36.715
36.69
36.666
36.643
36.621
36.599
36.577
36.554
36.529
36.503
36.475
36.443
36.409
36.372
36.331
36.288
36.241
36.191
36.14
36.088
36.036
35.984
35.934
35.887
35.843
35.804
35.768
35.738
35.713
35.692
35.676
35.664
35.656
35.652
35.651
35.653
35.658
35.665
35.674
35.685
35.698
35.714
35.731
35.75
35.768
35.787
35.805
35.822
35.837
35.849
35.858
35.864
35.866
35.865
35.859
35.851
35.839
35.823
35.805
35.785
35.762
35.738
35.712
35.684
35.655
35.624
35.592
35.559
35.524
35.487
35.45
35.412
35.373
35.335
35.298
35.261
35.227
35.194
35.163
35.134
35.107
35.081
35.055
35.03
35.005
34.98
34.955
34.929
34.903
34.878
34.853
34.828
34.804
34.78
34.757
34.733
34.709
34.684
34.658
34.63
34.601
34.572
34.542
34.512
34.483
34.454
34.427
34.402
34.378
34.356
34.335
34.317
34.3
34.285
34.272
34.259
34.248
34.237
34.226
34.213
34.2
34.186
34.171
34.156
34.141
34.125
34.11
34.095
34.079
34.063
34.047
34.029
34.011
33.991
33.97
33.947
33.923
33.895
33.866
33.835
33.803
33.77
33.738
33.707
33.677
33.648
33.622
33.599
33.578
33.561
33.547
33.538
33.532
33.532
33.537
33.548
33.566
33.593
33.629
33.677
33.737
33.811
33.899
34.003
34.121
34.253
34.398
34.554
34.719
34.89
35.065
35.24
35.413
35.581
35.742
35.895
36.038
36.171
36.292
36.401
36.498
36.583
36.656
36.717
36.767
36.806
36.834
36.853
36.863
36.866
36.863
36.853
36.84
36.822
36.801
36.777
36.751
36.724
36.695
36.664
36.633
36.602
36.57
36.539
36.508
36.478
36.449
36.42
36.393
36.366
36.34
36.313
36.284
36.254
36.22
36.183
36.142
36.097
36.048
35.997
35.942
35.886
35.829
35.774
35.72
35.669
35.623
35.582
35.547
35.517
35.493
35.475
35.461
35.452
35.448
35.447
35.45
35.456
35.465
35.475
35.488
35.501
35.515
35.531
35.547
35.562
35.577
35.592
35.604
35.614
35.623
35.629
35.634
35.636
35.636
35.634
35.629
35.622
35.613
35.601
35.587
35.571
35.554
35.535
35.515
35.493
35.469
35.443
35.415
35.387
35.357
35.326
35.295
35.264
35.233
35.203
35.172
35.142
35.112
35.081
35.048
35.015
34.979
34.942
34.904
34.864
34.824
34.783
34.743
34.703
34.664
34.626
34.59
34.556
34.524
34.494
34.466
34.441
34.416
34.392
34.368
34.346
34.323
34.301
34.279
34.257
34.235
34.213
34.192
34.17
34.148
34.125
34.103
34.081
34.059
34.038
34.017
33.997
33.976
33.956
33.935
33.915
33.894
33.873
33.853
33.833
33.813
33.795
33.777
33.759
33.743
33.727
33.712
33.697
33.683
33.668
33.653
33.637
33.619
33.6
33.58
33.557
33.533
33.508
33.481
33.455
33.429
33.404
33.382
33.363
33.349
33.339
33.335
33.337
33.346
33.363
33.388
33.422
33.466
33.521
33.587
33.665
33.756
33.859
33.974
34.101
34.238
34.383
34.535
34.691
34.849
35.007
35.163
35.315
35.461
35.6
35.73
35.851
35.962
36.062
36.152
36.229
36.296
36.351
36.396
36.43
36.455
36.471
36.48
36.48
36.475
36.463
36.447
36.426
36.403
36.377
36.351
36.323
36.295
36.267
36.239
36.21
36.181
36.151
36.119
36.087
36.053
36.019
35.984
35.947
35.909
35.869
35.827
35.783
35.735
35.685
35.632
35.576
35.517
35.455
35.392
35.328
35.264
35.201
35.141
35.084
35.031
34.985
34.945
34.913
34.889
34.873
34.864
34.863
34.868
34.878
34.892
34.909
34.928
34.947
34.967
34.986
35.004
35.022
35.039
35.056
35.071
35.085
35.098
35.109
35.12
35.129
35.136
35.141
35.144
35.145
35.143
35.139
35.132
35.123
35.111
35.097
35.081
35.062
35.042
35.02
34.997
34.971
34.944
34.915
34.885
34.852
34.819
34.784
34.748
34.713
34.678
34.645
34.613
34.582
34.553
34.525
34.499
34.473
34.447
34.423
34.398
34.373
34.348
34.321
34.295
34.267
34.239
34.211
34.183
34.155
34.129
34.103
34.078
34.053
34.029
34.005
33.982
33.958
33.935
33.912
33.889
33.867
33.845
33.825
33.805
33.787
33.77
33.754
33.741
33.729
33.718
33.709
33.701
33.693
33.685
33.676
33.666
33.655
33.642
33.628
33.614
33.598
33.583
33.568
33.553
33.538
33.524
33.509
33.495
33.479
33.463
33.446
33.428
33.407
33.385
33.361
33.335
33.308
33.282
33.256
33.231
33.209
33.192
33.179
33.173
33.175
33.185
33.206
33.237
33.279
33.333
33.4
33.479
33.572
33.677
33.794
33.923
34.062
34.21
34.366
34.528
34.695
34.863
35.032
35.197
35.358
35.513
35.659
35.794
35.918
36.029
36.127
36.212
36.282
36.34
36.386
36.421
36.445
36.461
36.47
36.471
36.468
36.461
36.45
36.437
36.422
36.405
36.389
36.373
36.358
36.344
36.331
36.32
36.308
36.297
36.285
36.273
36.258
36.24
36.221
36.199
36.174
36.148
36.12
36.091
36.06
36.027
35.993
35.956
35.917
35.875
35.832
35.785
35.737
35.687
35.637
35.587
35.539
35.494
35.452
35.414
35.38
35.352
35.329
35.312
35.299
35.292
35.288
35.289
35.293
35.299
35.308
35.318
35.33
35.344
35.359
35.375
35.392
35.408
35.423
35.437
35.448
35.457
35.463
35.465
35.463
35.458
35.45
35.44
35.426
35.411
35.395
35.377
35.358
35.337
35.315
35.291
35.265
35.238
35.208
35.177
35.144
35.109
35.074
35.039
35.005
34.971
34.938
34.907
34.879
34.852
34.827
34.804
34.782
34.761
34.74
34.718
34.696
34.673
34.649
34.623
34.597
34.569
34.54
34.51
34.481
34.452
34.423
34.395
34.367
34.341
34.315
34.29
34.267
34.245
34.225
34.207
34.19
34.174
34.159
34.144
34.129
34.115
34.099
34.084
34.068
34.052
34.036
34.019
34.003
33.986
33.968
33.951
33.934
33.916
33.899
33.883
33.867
33.851
33.837
33.822
33.808
33.794
33.78
33.764
33.748
33.73
33.71
33.689
33.666
33.642
33.616
33.589
33.561
33.531
33.501
33.471
33.441
33.412
33.384
33.358
33.335
33.314
33.296
33.281
33.269
33.261
33.257
33.257
33.263
33.276
33.296
33.326
33.366
33.419
33.485
33.565
33.659
33.767
33.888
34.022
34.166
34.32
34.482
34.65
34.822
34.995
35.168
35.34
35.508
35.67
35.825
35.971
36.108
36.233
36.345
36.444
36.53
36.602
36.66
36.706
36.74
36.764
36.778
36.783
36.781
36.773
36.76
36.743
36.723
36.701
36.679
36.656
36.633
36.611
36.591
36.571
36.552
36.534
36.516
36.498
36.48
36.46
36.438
36.414
36.388
36.359
36.327
36.292
36.256
36.216
36.174
36.129
36.082
36.033
35.981
35.928
35.875
35.821
35.768
35.717
35.668
35.621
35.579
35.541
35.507
35.478
35.455
35.436
35.422
35.412
35.406
35.405
35.407
35.412
35.42
35.431
35.443
35.457
35.471
35.487
35.504
35.522
35.54
35.56
35.58
35.6
35.62
35.638
35.654
35.667
35.676
35.681
35.681
35.676
35.666
35.651
35.632
35.608
35.581
35.551
35.52
35.487
35.453
35.42
35.388
35.356
35.325
35.294
35.263
35.232
35.201
35.169
35.137
35.103
35.07
35.036
35.001
34.967
34.933
34.9
34.868
34.836
34.806
34.778
34.751
34.726
34.702
34.679
34.656
34.633
34.609
34.584
34.557
34.529
34.5
34.47
34.438
34.407
34.374
34.341
34.308
34.276
34.245
34.215
34.187
34.161
34.139
34.118
34.099
34.083
34.068
34.053
34.041
34.029
34.017
34.007
33.996
33.985
33.973
33.961
33.949
33.936
33.922
33.908
33.894
33.879
33.865
33.85
33.836
33.822
33.808
33.795
33.783
33.771
33.759
33.747
33.735
33.721
33.706
33.689
33.672
33.653
33.634
33.615
33.595
33.575
33.554
33.532
33.51
33.485
33.46
33.433
33.406
33.378
33.351
33.324
33.299
33.276
33.256
33.24
33.229
33.224
33.226
33.235
33.255
33.285
33.327
33.383
33.453
33.538
33.638
33.752
33.881
34.023
34.176
34.337
34.506
34.68
34.856
35.032
35.206
35.376
35.541
35.698
35.846
35.983
36.107
36.219
36.317
36.402
36.472
36.529
36.573
36.605
36.625
36.636
36.637
36.631
36.618
36.6
36.579
36.554
36.528
36.501
36.474
36.447
36.421
36.395
36.371
36.346
36.323
36.299
36.275
36.25
36.224
36.196
36.166
36.133
36.098
36.06
36.02
35.977
35.931
35.883
35.833
35.781
35.728
35.672
35.617
35.561
35.505
35.451
35.399
35.349
35.304
35.263
35.226
35.194
35.167
35.145
35.128
35.116
35.108
35.104
35.105
35.111
35.12
35.132
35.147
35.164
35.183
35.203
35.224
35.245
35.266
35.288
35.308
35.327
35.343
35.357
35.366
35.372
35.372
35.368
35.359
35.345
35.326
35.303
35.276
35.246
35.214
35.181
35.147
35.113
35.08
35.047
35.017
34.987
34.958
34.93
34.901
34.872
34.842
34.81
34.778
34.745
34.712
34.679
34.645
34.612
34.579
34.547
34.516
34.485
34.456
34.428
34.402
34.377
34.353
34.33
34.307
34.286
34.264
34.243
34.222
34.2
34.177
34.154
34.131
34.107
34.084
34.06
34.036
34.013
33.99
33.968
33.946
33.925
33.905
33.886
33.867
33.848
33.83
33.813
33.796
33.78
33.764
33.75
33.736
33.724
33.713
33.702
33.693
33.683
33.675
33.665
33.655
33.644
33.631
33.616
33.599
33.58
33.56
33.538
33.514
33.489
33.464
33.438
33.411
33.385
33.36
33.335
33.31
33.287
33.264
33.242
33.221
33.201
33.181
33.163
33.145
33.129
33.114
33.103
33.094
33.089
33.087
33.09
33.097
33.108
33.126
33.15
33.182
33.222
33.272
33.334
33.408
33.495
33.595
33.708
33.834
33.97
34.116
34.269
34.428
34.589
34.752
34.914
35.073
35.227
35.373
35.511
35.638
35.753
35.856
35.945
36.021
36.083
36.132
36.168
36.193
36.208
36.213
36.21
36.201
36.186
36.167
36.145
36.121
36.096
36.07
36.045
36.019
35.993
35.967
35.941
35.913
35.885
35.855
35.824
35.791
35.757
35.722
35.687
35.651
35.615
35.578
35.54
35.503
35.464
35.424
35.383
35.339
35.295
35.248
35.201
35.153
35.105
35.057
35.011
34.966
34.925
34.887
34.853
34.824
34.8
34.781
34.768
34.759
34.754
34.754
34.758
34.765
34.775
34.788
34.803
34.82
34.839
34.858
34.879
34.9
34.921
34.94
34.959
34.975
34.99
35.004
35.016
35.025
35.032
35.037
35.039
35.039
35.035
35.028
35.019
35.007
34.992
34.975
34.955
34.934
34.91
34.884
34.856
34.826
34.794
34.76
34.725
34.689
34.653
34.616
34.58
34.544
34.51
34.476
34.444
34.413
34.384
34.357
34.33
34.304
34.279
34.253
34.228
34.202
34.175
34.147
34.118
34.088
34.057
34.026
33.995
33.965
33.935
33.906
33.877
33.85
33.823
33.797
33.772
33.749
33.727
33.707
33.689
33.672
33.656
33.641
33.627
33.614
33.602
33.592
33.582
33.574
33.567
33.561
33.556
33.552
33.549
33.547
33.546
33.544
33.543
33.541
33.538
33.534
33.53
33.524
33.518
33.512
33.506
33.5
33.493
33.486
33.478
33.47
33.46
33.449
33.435
33.42
33.403
33.383
33.361
33.337
33.312
33.286
33.26
33.233
33.206
33.179
33.153
33.129
33.105
33.083
33.064
33.047
33.033
33.021
33.012
33.006
33.005
33.008
33.018
33.035
33.061
33.098
33.146
33.208
33.284
33.374
33.479
33.598
33.731
33.877
34.033
34.199
34.372
34.549
34.729
34.908
35.085
35.257
35.423
35.58
35.728
35.864
35.988
36.099
36.198
36.283
36.357
36.419
36.469
36.51
36.54
36.56
36.572
36.577
36.575
36.567
36.554
36.537
36.518
36.496
36.472
36.446
36.42
36.393
36.365
36.338
36.312
36.286
36.26
36.235
36.211
36.187
36.164
36.141
36.118
36.095
36.072
36.049
36.023
35.996
35.967
35.934
35.898
35.859
35.817
35.773
35.727
35.68
35.633
35.588
35.544
35.503
35.465
35.431
35.4
35.373
35.349
35.33
35.315
35.305
35.297
35.294
35.295
35.299
35.307
35.317
35.33
35.345
35.36
35.375
35.391
35.405
35.419
35.431
35.442
35.452
35.461
35.467
35.473
35.477
35.479
35.479
35.477
35.473
35.465
35.454
35.44
35.422
35.401
35.377
35.352
35.325
35.298
35.269
35.241
35.212
35.183
35.155
35.126
35.099
35.072
35.045
35.019
34.993
34.967
34.941
34.914
34.887
34.86
34.831
34.802
34.773
34.745
34.716
34.689
34.662
34.637
34.612
34.589
34.566
34.544
34.523
34.503
34.482
34.46
34.437
34.413
34.389
34.363
34.337
34.31
34.285
34.26
34.237
34.215
34.196
34.179
34.165
34.154
34.144
34.136
34.129
34.123
34.118
34.113
34.107
34.1
34.092
34.082
34.071
34.059
34.045
34.031
34.016
34.001
33.986
33.972
33.958
33.946
33.934
33.923
33.914
33.905
33.897
33.888
33.88
33.871
33.862
33.852
33.841
33.829
33.817
33.803
33.788
33.772
33.755
33.737
33.717
33.698
33.678
33.658
33.639
33.62
33.603
33.587
33.573
33.56
33.55
33.544
33.541
33.543
33.552
33.568
33.595
33.632
33.682
33.747
33.828
33.924
34.038
34.168
34.314
34.473
34.644
34.823
35.01
35.199
35.39
35.578
35.761
35.937
36.103
36.258
36.4
36.529
36.643
36.743
36.828
36.9
36.958
37.003
37.036
37.057
37.069
37.072
37.068
37.058
37.045
37.028
37.009
36.989
36.968
36.947
36.925
36.902
36.88
36.856
36.833
36.809
36.785
36.761
36.736
36.71
36.683
36.655
36.626
36.597
36.567
36.536
36.504
36.471
36.437
36.401
36.364
36.325
36.285
36.243
36.199
36.155
36.109
36.063
36.017
35.971
35.926
35.883
35.842
35.804
35.77
35.741
35.718
35.702
35.692
35.689
35.692
35.7
35.712
35.729
35.749
35.771
35.795
35.819
35.845
35.871
35.896
35.92
35.942
35.962
35.979
35.993
36.003
36.009
36.01
36.007
35.999
35.987
35.971
35.952
35.929
35.905
35.88
35.853
35.825
35.797
35.768
35.74
35.711
35.682
35.654
35.624
35.594
35.563
35.531
35.5
35.468
35.437
35.405
35.374
35.343
35.313
35.283
35.253
35.223
35.194
35.165
35.137
35.108
35.081
35.054
35.028
35.002
34.978
34.953
34.929
34.906
34.881
34.856
34.831
34.804
34.777
34.75
34.722
34.696
34.67
34.645
34.622
34.601
34.582
34.564
34.548
34.533
34.518
34.504
34.49
34.477
34.463
34.45
34.437
34.424
34.411
34.397
34.383
34.369
34.355
34.34
34.325
34.31
34.294
34.277
34.26
34.243
34.225
34.206
34.188
34.17
34.151
34.133
34.115
34.096
34.078
34.058
34.038
34.017
33.994
33.97
33.944
33.917
33.89
33.863
33.836
33.81
33.785
33.761
33.738
33.716
33.694
33.672
33.65
33.628
33.607
33.586
33.567
33.55
33.536
33.526
33.522
33.527
33.541
33.566
33.603
33.653
33.717
33.794
33.884
33.986
34.101
34.227
34.361
34.502
34.65
34.802
34.955
35.11
35.263
35.412
35.558
35.697
35.827
35.949
36.059
36.159
36.246
36.322
36.385
36.437
36.476
36.505
36.524
36.534
36.536
36.531
36.521
36.505
36.486
36.463
36.437
36.41
36.381
36.35
36.318
36.286
36.254
36.221
36.189
36.157
36.125
36.094
36.063
36.031
35.997
35.963
35.927
35.889
35.849
35.806
35.761
35.714
35.665
35.613
35.56
35.506
35.45
35.393
35.336
35.28
35.226
35.176
35.129
35.088
35.052
35.024
35.002
34.987
34.979
34.977
34.982
34.993
35.009
35.03
35.054
35.081
35.11
35.14
35.171
35.202
35.233
35.263
35.292
35.319
35.344
35.366
35.386
35.403
35.416
35.424
35.429
35.428
35.424
35.416
35.404
35.39
35.373
35.353
35.331
35.307
35.281
35.252
35.221
35.188
35.155
35.12
35.084
35.048
35.012
34.976
34.94
34.905
34.87
34.836
34.802
34.769
34.736
34.702
34.668
34.633
34.598
34.563
34.529
34.495
34.461
34.429
34.398
34.368
34.339
34.311
34.285
34.259
34.233
34.207
34.18
34.154
34.127
34.101
34.076
34.051
34.028
34.005
33.983
33.962
33.942
33.923
33.904
33.887
33.87
33.854
33.838
33.824
33.811
33.799
33.788
33.778
33.77
33.763
33.757
33.751
33.746
33.742
33.737
33.733
33.728
33.723
33.716
33.708
33.698
33.684
33.667
33.647
33.623
33.597
33.568
33.537
33.506
33.474
33.442
33.412
33.383
33.356
33.331
33.309
33.289
33.273
33.26
33.252
33.249
33.252
33.262
33.281
33.308
33.346
33.394
33.454
33.528
33.615
33.716
33.83
33.956
34.094
34.241
34.396
34.556
34.718
34.882
35.043
35.202
35.355
