Trial 3:3back
40.108
39.922
39.732
39.542
39.351
39.162
38.974
38.79
38.609
38.432
38.258
38.088
37.923
37.762
37.605
37.452
37.302
37.153
37.003
36.852
36.699
36.545
36.389
36.233
36.077
35.925
35.778
35.639
35.51
35.393
35.288
35.198
35.121
35.057
35.008
34.972
34.95
34.94
34.942
34.954
34.974
35.002
35.036
35.076
35.118
35.163
35.209
35.254
35.301
35.346
35.388
35.427
35.459
35.485
35.502
35.511
35.51
35.501
35.484
35.459
35.426
35.385
35.337
35.282
35.219
35.15
35.076
34.998
34.916
34.833
34.749
34.666
34.582
34.5
34.419
34.339
34.259
34.178
34.097
34.016
33.934
33.854
33.776
33.698
33.622
33.546
33.472
33.399
33.327
33.255
33.183
33.111
33.04
32.968
32.896
32.825
32.755
32.685
32.615
32.546
32.477
32.411
32.346
32.283
32.222
32.162
32.104
32.048
31.995
31.945
31.898
31.854
31.812
31.772
31.733
31.695
31.657
31.62
31.583
31.547
31.513
31.481
31.451
31.422
31.395
31.369
31.344
31.318
31.291
31.263
31.234
31.204
31.173
31.142
31.111
31.082
31.053
31.027
31.003
30.98
30.961
30.945
30.933
30.929
30.934
30.952
30.989
31.049
31.14
31.267
31.439
31.663
31.943
32.284
32.688
33.153
33.676
34.251
34.87
35.524
36.202
36.891
37.58
38.255
38.905
39.521
40.093
40.615
41.08
41.486
41.83
42.112
42.334
42.499
42.61
42.673
42.692
42.673
42.621
42.541
42.437
42.313
42.174
42.02
41.856
41.683
41.503
41.318
41.129
40.938
40.746
40.555
40.366
40.178
39.993
39.809
39.626
39.445
39.267
39.092
38.921
38.752
38.585
38.419
38.253
38.087
37.921
37.755
37.589
37.424
37.26
37.097
36.937
36.78
36.627
36.478
36.334
36.197
36.066
35.943
35.828
35.722
35.625
35.539
35.463
35.399
35.345
35.304
35.275
35.258
35.253
35.259
35.274
35.298
35.327
35.36
35.395
35.429
35.461
35.489
35.513
35.531
35.544
35.55
35.55
35.543
35.53
35.51
35.483
35.449
35.408
35.36
35.305
35.245
35.18
35.109
35.035
34.956
34.874
34.789
34.701
34.612
34.521
34.429
34.336
34.244
34.154
34.066
33.979
33.892
33.804
33.715
33.625
33.534
33.442
33.349
33.256
33.163
33.069
32.976
32.882
32.788
32.696
32.605
32.516
32.431
32.35
32.273
32.201
32.134
32.071
32.011
31.954
31.9
31.849
31.8
31.754
31.71
31.669
31.63
31.592
31.555
31.52
31.487
31.456
31.426
31.398
31.372
31.349
31.327
31.307
31.288
31.269
31.251
31.232
31.212
31.192
31.171
31.148
31.122
31.093
31.062
31.029
30.995
30.96
30.925
30.889
30.853
30.816
30.781
30.747
30.717
30.691
30.672
30.663
30.666
30.687
30.73
30.801
30.906
31.054
31.252
31.506
31.822
32.202
32.646
33.154
33.718
34.33
34.981
35.659
36.353
37.049
37.737
38.405
39.044
39.643
40.196
40.696
41.139
41.524
41.85
42.118
42.332
42.494
42.609
42.681
42.715
42.718
42.693
42.645
42.579
42.498
42.406
42.305
42.197
42.085
41.971
41.855
41.739
41.623
41.507
41.39
41.273
41.154
41.032
40.907
40.78
40.651
40.519
40.386
40.252
40.118
39.984
39.848
39.711
39.573
39.434
39.292
39.148
39.0
38.851
38.701
38.55
38.399
38.249
38.1
37.953
37.809
37.668
37.528
37.391
37.256
37.124
36.997
36.876
36.761
36.654
36.557
36.471
36.396
36.333
36.283
36.244
36.215
36.195
36.182
36.175
36.171
36.169
36.167
36.163
36.158
36.151
36.141
36.127
36.109
36.087
36.06
36.027
35.989
35.946
35.898
35.844
35.784
35.718
35.647
35.571
35.491
35.407
35.318
35.223
35.125
35.023
34.917
34.809
34.7
34.589
34.478
34.367
34.255
34.145
34.036
33.929
33.825
33.724
33.626
33.53
33.437
33.347
33.258
33.171
33.083
32.995
32.907
32.819
32.73
32.642
32.554
32.465
32.374
32.281
32.187
32.093
32.001
31.911
31.824
31.74
31.66
31.585
31.515
31.45
31.39
31.337
31.288
31.244
31.205
31.172
31.143
31.119
31.098
31.08
31.066
31.055
31.046
31.039
31.033
31.028
31.022
31.016
31.01
31.003
30.996
30.989
30.979
30.967
30.952
30.935
30.915
30.894
30.872
30.851
30.83
30.811
30.794
30.778
30.763
30.749
30.737
30.725
30.717
30.711
30.711
30.716
30.729
30.754
30.793
30.852
30.939
31.061
31.225
31.437
31.706
32.034
32.426
32.882
33.398
33.971
34.591
35.249
35.934
36.634
37.338
38.033
38.707
39.35
39.952
40.506
41.005
41.447
41.829
42.152
42.416
42.624
42.78
42.887
42.95
42.975
42.966
42.929
42.868
42.788
42.691
42.582
42.464
42.337
42.203
42.064
41.922
41.777
41.632
41.485
41.338
41.193
41.049
40.907
40.769
40.635
40.506
40.381
40.262
40.147
40.037
39.931
39.827
39.723
39.617
39.508
39.395
39.276
39.15
39.016
38.874
38.725
38.57
38.411
38.248
38.085
37.922
37.763
37.61
37.463
37.324
37.195
37.075
36.964
36.862
36.77
36.686
36.61
36.541
36.479
36.422
36.372
36.329
36.292
36.263
36.241
36.227
36.221
36.221
36.228
36.237
36.249
36.26
36.269
36.273
36.271
36.261
36.243
36.216
36.18
36.135
36.083
36.022
35.955
35.882
35.804
35.722
35.634
35.542
35.444
35.34
35.232
35.119
35.002
34.881
34.757
34.631
34.504
34.378
34.253
34.131
34.013
33.9
33.792
33.688
33.589
33.493
33.4
33.312
33.228
33.147
33.07
32.997
32.926
32.856
32.787
32.719
32.65
32.581
32.51
32.437
32.365
32.293
32.222
32.152
32.084
32.016
31.95
31.885
31.823
31.763
31.708
31.656
31.608
31.565
31.527
31.493
31.464
31.439
31.418
31.399
31.383
31.368
31.353
31.339
31.324
31.309
31.293
31.276
31.257
31.237
31.217
31.196
31.175
31.153
31.131
31.108
31.085
31.062
31.039
31.013
30.985
30.953
30.918
30.88
30.841
30.799
30.757
30.713
30.669
30.625
30.583
30.542
30.504
30.471
30.445
30.428
30.425
30.437
30.471
30.532
30.625
30.758
30.937
31.171
31.465
31.823
32.249
32.74
33.293
33.9
34.554
35.243
35.954
36.675
37.393
38.095
38.77
39.407
39.996
40.533
41.012
41.431
41.791
42.094
42.343
42.54
42.688
42.793
42.856
42.882
42.875
42.838
42.775
42.692
42.59
42.472
42.342
42.202
42.054
41.901
41.745
41.589
41.434
41.282
41.132
40.985
40.842
40.7
40.561
40.424
40.288
40.154
40.021
39.889
39.758
39.628
39.499
39.37
39.238
39.103
38.964
38.818
38.664
38.503
38.333
38.158
37.977
37.795
37.612
37.432
37.257
37.09
36.932
36.785
36.651
36.527
36.416
36.317
36.229
36.151
36.082
36.023
35.972
35.929
35.891
35.858
35.832
35.81
35.793
35.781
35.772
35.765
35.76
35.755
35.747
35.735
35.718
35.695
35.666
35.633
35.595
35.553
35.505
35.451
35.389
35.32
35.242
35.158
35.067
34.972
34.872
34.769
34.666
34.562
34.458
34.356
34.255
34.157
34.061
33.966
33.871
33.779
33.689
33.601
33.514
33.427
33.341
33.255
33.168
33.081
32.994
32.907
32.821
32.735
32.651
32.568
32.487
32.409
32.332
32.256
32.181
32.108
32.039
31.973
31.912
31.856
31.803
31.755
31.709
31.664
31.621
31.578
31.535
31.491
31.447
31.403
31.358
31.314
31.27
31.226
31.182
31.139
31.097
31.055
31.014
30.975
30.939
30.905
30.872
30.839
30.807
30.777
30.748
30.721
30.696
30.673
30.652
30.633
30.615
30.597
30.581
30.565
30.549
30.533
30.518
30.503
30.49
30.476
30.463
30.45
30.436
30.423
30.409
30.394
30.377
30.358
30.336
30.313
30.288
30.261
30.232
30.203
30.172
30.14
30.108
30.076
30.046
30.017
29.989
29.963
29.938
29.916
29.896
29.881
29.87
29.864
29.867
29.881
29.91
29.963
30.045
30.166
30.334
30.558
30.848
31.209
31.644
32.154
32.734
33.379
34.077
34.816
35.582
36.36
37.137
37.897
38.626
39.313
39.95
40.532
41.054
41.512
41.905
42.23
42.491
42.691
42.833
42.921
42.962
42.961
42.924
42.858
42.767
42.658
42.534
42.4
42.257
42.11
41.958
41.804
41.65
41.496
41.342
41.189
41.037
40.885
40.732
40.579
40.424
40.269
40.113
39.958
39.803
39.651
39.5
39.353
39.209
39.068
38.929
38.792
38.655
38.517
38.378
38.236
38.09
37.94
37.787
37.63
37.471
37.31
37.15
36.993
36.841
36.698
36.563
36.44
36.33
36.234
36.151
36.082
36.026
35.983
35.951
35.927
35.912
35.902
35.897
35.895
35.895
35.897
35.901
35.905
35.91
35.914
35.918
35.924
35.929
35.934
35.934
35.93
35.917
35.896
35.864
35.821
35.766
35.699
35.624
35.54
35.45
35.356
35.259
35.16
35.06
34.959
34.858
34.757
34.657
34.558
34.46
34.362
34.264
34.167
34.07
33.974
33.878
33.783
33.688
33.592
33.495
33.396
33.296
33.196
33.094
32.992
32.89
32.789
32.688
32.59
32.496
32.406
32.319
32.237
32.159
32.085
32.013
31.946
31.884
31.825
31.771
31.721
31.672
31.625
31.579
31.532
31.484
31.435
31.385
31.336
31.287
31.239
31.193
31.147
31.102
31.057
31.014
30.973
30.935
30.9
30.869
30.842
30.819
30.801
30.787
30.776
30.769
30.763
30.759
30.755
30.751
30.747
30.743
30.738
30.733
30.727
30.721
30.715
30.71
30.707
30.703
30.701
30.699
30.698
30.698
30.699
30.702
30.707
30.712
30.717
30.722
30.727
30.731
30.735
30.737
30.736
30.733
30.727
30.719
30.709
30.699
30.689
30.682
30.68
30.686
30.704
30.741
30.801
30.89
31.017
31.189
31.413
31.698
32.047
32.464
32.948
33.495
34.098
34.747
35.43
36.135
36.847
37.553
38.24
38.896
39.51
40.074
40.582
41.029
41.415
41.739
42.002
42.209
42.362
42.465
42.523
42.541
42.523
42.475
42.402
42.308
42.194
42.066
41.924
41.771
41.61
41.442
41.266
41.085
40.9
40.713
40.524
40.336
40.148
39.961
39.776
39.592
39.411
39.231
39.054
38.879
38.708
38.539
38.373
38.211
38.05
37.891
37.733
37.574
37.414
37.252
37.087
36.921
36.754
36.588
36.424
36.265
36.113
35.97
35.837
35.716
35.608
35.513
35.43
35.361
35.306
35.263
35.234
35.217
35.211
35.216
35.232
35.257
35.292
35.334
35.383
35.438
35.493
35.545
35.593
35.633
35.664
35.688
35.702
35.709
35.708
35.7
35.687
35.669
35.647
35.621
35.592
35.558
35.52
35.477
35.427
35.371
35.307
35.235
35.157
35.072
34.982
34.887
34.79
34.69
34.589
34.487
34.383
34.278
34.173
34.068
33.963
33.858
33.754
33.65
33.548
33.448
33.35
33.254
33.162
33.073
32.986
32.902
32.821
32.741
32.662
32.584
32.508
32.433
32.359
32.287
32.216
32.146
32.075
32.005
31.933
31.86
31.787
31.715
31.643
31.574
31.507
31.442
31.382
31.327
31.279
31.237
31.203
31.175
31.154
31.137
31.122
31.11
31.097
31.083
31.067
31.048
31.027
31.003
30.979
30.953
30.928
30.904
30.881
30.86
30.841
30.824
30.809
30.796
30.784
30.774
30.763
30.752
30.741
30.729
30.716
30.703
30.69
30.677
30.666
30.654
30.643
30.631
30.618
30.604
30.59
30.575
30.559
30.543
30.525
30.506
30.486
30.465
30.444
30.424
30.405
30.389
30.377
30.374
30.381
30.404
30.447
30.517
30.621
30.767
30.966
31.225
31.553
31.952
32.425
32.968
33.577
34.243
34.955
35.703
36.472
37.249
38.019
38.769
39.486
40.157
40.774
41.329
41.816
42.234
42.581
42.859
43.073
43.227
43.327
43.378
43.387
43.361
43.305
43.226
43.127
43.012
42.887
42.754
42.616
42.474
42.328
42.181
42.032
41.883
41.733
41.583
41.432
41.281
41.129
40.978
40.827
40.676
40.526
40.376
40.227
40.077
39.926
39.774
39.621
39.465
39.307
39.147
38.985
38.82
38.654
38.488
38.322
38.159
37.999
37.843
37.692
37.546
37.405
37.27
37.141
37.016
36.897
36.783
36.675
36.574
36.479
36.391
36.31
36.238
36.176
36.124
36.082
36.051
36.032
36.023
36.025
36.034
36.051
36.071
36.091
36.11
36.124
36.132
36.132
36.124
36.108
36.085
36.056
36.022
35.982
35.938
35.888
35.834
35.775
35.71
35.64
35.565
35.485
35.401
35.314
35.224
35.133
35.04
34.948
34.856
34.764
34.673
34.582
34.491
34.4
34.309
34.219
34.128
34.038
33.946
33.854
33.761
33.668
33.574
33.481
33.388
33.295
33.202
33.109
33.016
32.922
32.828
32.734
32.642
32.551
32.463
32.379
32.298
32.22
32.145
32.073
32.003
31.937
31.875
31.818
31.764
31.712
31.662
31.612
31.561
31.509
31.455
31.401
31.346
31.292
31.239
31.189
31.14
31.093
31.049
31.006
30.966
30.93
30.897
30.869
30.845
30.823
30.805
30.789
30.776
30.765
30.756
30.748
30.739
30.731
30.72
30.708
30.694
30.677
30.657
30.633
30.608
30.58
30.551
30.521
30.491
30.462
30.435
30.411
30.389
30.372
30.359
30.35
30.345
30.344
30.344
30.347
30.351
30.355
30.359
30.364
30.368
30.371
30.372
30.373
30.372
30.372
30.371
30.373
30.378
30.39
30.41
30.444
30.497
30.576
30.689
30.846
31.057
31.33
31.674
32.093
32.589
33.159
33.798
34.497
35.245
36.028
36.831
37.639
38.437
39.21
39.946
40.635
41.267
41.838
42.342
42.778
43.148
43.452
43.693
43.875
44.003
44.083
44.119
44.116
44.079
44.014
43.925
43.816
43.691
43.553
43.406
43.25
43.09
42.926
42.759
42.591
42.422
42.252
42.08
41.908
41.735
41.562
41.389
41.217
41.047
40.879
40.715
40.555
40.399
40.248
40.1
39.956
39.816
39.676
39.538
39.399
39.259
39.116
38.97
38.819
38.663
38.502
38.338
38.171
38.004
37.836
37.672
37.513
37.363
37.223
37.095
36.981
36.88
36.795
36.723
36.665
36.621
36.589
36.568
36.555
36.549
36.547
36.548
36.551
36.556
36.561
36.564
36.566
36.566
36.563
36.555
36.542
36.523
36.499
36.469
36.432
36.388
36.337
36.278
36.213
36.14
36.06
35.975
35.884
35.789
35.69
35.587
35.481
35.372
35.261
35.147
35.032
34.916
34.799
34.683
34.567
34.452
34.338
34.225
34.113
34.003
33.894
33.788
33.685
33.583
33.484
33.386
33.29
33.195
33.1
33.005
32.91
32.815
32.721
32.63
32.542
32.458
32.379
32.305
32.236
32.173
32.116
32.063
32.015
31.969
31.925
31.883
31.84
31.797
31.753
31.71
31.668
31.627
31.587
31.548
31.509
31.469
31.43
31.391
31.353
31.315
31.278
31.243
31.21
31.179
31.151
31.124
31.099
31.076
31.055
31.036
31.021
31.009
31.0
30.993
30.987
30.981
30.975
30.971
30.967
30.964
30.962
30.961
30.96
30.958
30.955
30.951
30.945
30.938
30.928
30.918
30.906
30.894
30.881
30.868
30.856
30.844
30.835
30.827
30.82
30.814
30.808
30.802
30.795
30.788
30.781
30.773
30.764
30.754
30.742
30.729
30.715
30.702
30.691
30.682
30.678
30.682
30.694
30.719
30.762
30.828
30.926
31.062
31.246
31.488
31.797
32.179
32.639
33.177
33.787
34.463
35.194
35.965
36.762
37.568
38.367
39.145
39.889
40.585
41.225
41.799
42.305
42.738
43.098
43.386
43.607
43.765
43.864
43.912
43.915
43.88
43.812
43.719
43.604
43.472
43.328
43.173
43.01
42.842
42.669
42.494
42.315
42.136
41.955
41.775
41.594
41.413
41.233
41.054
40.876
40.699
40.523
40.349
40.176
40.005
39.836
39.668
39.503
39.341
39.181
39.024
38.869
38.717
38.566
38.415
38.264
38.112
37.957
37.802
37.645
37.489
37.334
37.184
37.04
36.904
36.778
36.662
36.559
36.468
36.39
36.325
36.273
36.233
36.205
36.187
36.179
36.179
36.187
36.201
36.219
36.24
36.262
36.285
36.307
36.328
36.346
36.361
36.371
36.377
36.375
36.366
36.349
36.322
36.286
36.24
36.185
36.12
36.048
35.97
35.888
35.804
35.718
35.631
35.543
35.455
35.365
35.274
35.183
35.092
35.001
34.909
34.816
34.723
34.628
34.531
34.433
34.332
34.23
34.125
34.018
33.911
33.803
33.697
33.593
33.492
33.394
33.299
33.208
33.121
33.038
32.958
32.881
32.807
32.733
32.661
32.589
32.517
32.446
32.375
32.303
32.23
32.157
32.084
32.013
31.944
31.877
31.812
31.75
31.691
31.636
31.584
31.536
31.492
31.45
31.412
31.375
31.34
31.307
31.275
31.245
31.217
31.189
31.163
31.138
31.113
31.089
31.065
31.041
31.017
30.998
30.988
30.985
30.989
30.998
31.009
31.019
31.026
31.028
31.025
31.014
30.997
30.972
30.941
30.905
30.866
30.826
30.787
30.752
30.721
30.695
30.673
30.654
30.639
30.625
30.613
30.602
30.594
30.588
30.585
30.585
30.587
30.589
30.59
30.589
30.586
30.579
30.57
30.56
30.55
30.541
30.535
30.532
30.534
30.545
30.567
30.604
30.663
30.751
30.874
31.041
31.262
31.544
31.896
32.322
32.824
33.399
34.042
34.743
35.49
36.268
37.062
37.855
38.631
39.375
40.075
40.719
41.3
41.811
42.25
42.615
42.907
43.131
43.293
43.396
43.449
43.457
43.428
43.367
43.28
43.174
43.051
42.915
42.771
42.619
42.461
42.298
42.13
41.958
41.78
41.597
41.41
41.217
41.021
40.822
40.62
40.418
40.217
40.018
39.822
39.629
39.439
39.253
39.071
38.892
38.716
38.544
38.375
38.21
38.047
37.886
37.727
37.57
37.416
37.263
37.113
36.967
36.825
36.691
36.564
36.446
36.339
36.243
36.161
36.091
36.035
35.99
35.959
35.939
35.931
35.935
35.949
35.975
36.011
36.059
36.116
36.18
36.246
36.313
36.377
36.437
36.488
36.53
36.561
36.581
36.589
36.585
36.568
36.54
36.501
36.451
36.392
36.325
36.251
36.173
36.09
36.005
35.916
35.825
35.733
35.639
35.543
35.445
35.346
35.244
35.139
35.033
34.925
34.818
34.711
34.603
34.495
34.385
34.274
34.163
34.05
33.937
33.825
33.712
33.601
33.492
33.385
33.282
33.182
33.085
32.991
32.899
32.81
32.723
32.638
32.556
32.475
32.396
32.319
32.243
32.169
32.098
32.029
31.963
31.899
31.834
31.769
31.702
31.635
31.568
31.503
31.441
31.384
31.331
31.285
31.245
31.21
31.18
31.155
31.132
31.113
31.096
31.081
31.068
31.057
31.047
31.038
31.029
31.019
31.01
31.0
30.99
30.98
30.972
30.964
30.957
30.952
30.947
30.943
30.94
30.937
30.934
30.932
30.929
30.927
30.926
30.926
30.926
30.929
30.933
30.939
30.946
30.954
30.961
30.967
30.972
30.976
30.978
30.979
30.979
30.978
30.976
30.975
30.975
30.976
30.979
30.986
30.999
31.023
31.061
31.119
31.204
31.323
31.486
31.701
31.975
32.314
32.722
33.202
33.752
34.367
35.041
35.764
36.523
37.305
38.094
38.875
39.634
40.356
41.031
41.648
42.202
42.687
43.102
43.446
43.722
43.933
44.084
44.181
44.229
44.234
44.201
44.136
44.043
43.928
43.795
43.645
43.482
43.31
43.13
42.943
42.751
42.554
42.354
42.15
41.945
41.739
41.533
41.327
41.123
40.922
40.724
40.529
40.338
40.151
39.968
39.789
39.613
39.44
39.267
39.095
38.923
38.751
38.579
38.408
38.237
38.067
37.899
37.733
37.571
37.414
37.265
37.123
36.991
36.868
36.756
36.653
36.562
36.481
36.412
36.353
36.304
36.265
36.235
36.215
36.205
36.203
36.21
36.227
36.253
36.286
36.324
36.366
36.41
36.453
36.494
36.531
36.564
36.59
36.609
36.621
36.625
36.622
36.613
36.597
36.575
36.544
36.505
36.456
36.399
36.333
36.259
36.178
36.092
36.001
35.906
35.809
35.71
35.608
35.507
35.404
35.301
35.197
35.091
34.984
34.876
34.768
34.659
34.55
34.441
34.33
34.219
34.107
33.995
33.884
33.778
33.675
33.576
33.482
33.391
33.302
33.216
33.131
33.048
32.964
32.882
32.799
32.717
32.635
32.555
32.477
32.4
32.325
32.25
32.177
32.105
32.034
31.965
31.897
31.831
31.767
31.707
31.649
31.595
31.546
31.501
31.46
31.422
31.388
31.356
31.326
31.297
31.269
31.243
31.219
31.196
31.174
31.153
31.134
31.115
31.095
31.076
31.058
31.04
31.023
31.008
30.995
30.983
30.973
30.963
30.953
30.943
30.933
30.923
30.915
30.908
30.904
30.903
30.904
30.908
30.916
30.924
30.932
30.938
30.941
30.942
30.94
30.936
30.932
30.927
30.922
30.916
30.91
30.903
30.895
30.884
30.871
30.856
30.841
30.828
30.817
30.81
30.809
30.815
30.831
30.859
30.902
30.968
31.062
31.193
31.369
31.599
31.892
32.256
32.695
33.212
33.805
34.468
35.193
35.969
36.781
37.614
38.454
39.284
40.09
40.859
41.578
42.237
42.83
43.352
43.8
44.173
44.474
44.705
44.873
44.983
45.041
45.053
45.028
44.97
44.885
44.781
44.661
44.53
44.393
44.251
44.106
43.959
43.81
43.659
43.506
43.351
43.194
