Trial 3:3back
35.051
35.052
35.054
35.055
35.057
35.06
35.062
35.064
35.066
35.067
35.067
35.067
35.066
35.064
35.06
35.057
35.053
35.05
35.048
35.046
35.045
35.045
35.045
35.045
35.044
35.042
35.038
35.033
35.027
35.021
35.014
35.006
34.998
34.99
34.982
34.974
34.965
34.956
34.947
34.937
34.927
34.918
34.908
34.9
34.892
34.887
34.883
34.882
34.882
34.885
34.891
34.902
34.919
34.943
34.976
35.018
35.071
35.136
35.212
35.299
35.396
35.503
35.617
35.737
35.861
35.985
36.107
36.223
36.332
36.43
36.517
36.59
36.649
36.691
36.718
36.73
36.726
36.71
36.681
36.642
36.595
36.541
36.483
36.423
36.361
36.299
36.239
36.181
36.126
36.075
36.028
35.986
35.948
35.916
35.887
35.863
35.842
35.823
35.806
35.79
35.774
35.759
35.743
35.727
35.71
35.692
35.673
35.652
35.629
35.605
35.579
35.552
35.524
35.497
35.471
35.447
35.425
35.407
35.392
35.38
35.373
35.369
35.369
35.374
35.382
35.394
35.409
35.426
35.445
35.465
35.487
35.51
35.534
35.557
35.58
35.602
35.622
35.64
35.655
35.669
35.679
35.685
35.687
35.684
35.677
35.666
35.652
35.634
35.615
35.594
35.572
35.551
35.529
35.507
35.485
35.464
35.442
35.421
35.4
35.38
35.361
35.342
35.324
35.307
35.29
35.273
35.257
35.24
35.224
35.207
35.19
35.174
35.158
35.142
35.129
35.116
35.106
35.097
35.09
35.084
35.079
35.076
35.073
35.071
35.069
35.068
35.066
35.064
35.061
35.059
35.056
35.052
35.049
35.046
35.043
35.041
35.04
35.04
35.041
35.042
35.043
35.044
35.046
35.048
35.051
35.054
35.057
35.06
35.061
35.062
35.062
35.061
35.058
35.054
35.048
35.042
35.034
35.027
35.019
35.012
35.006
35.001
34.996
34.991
34.987
34.983
34.979
34.975
34.972
34.968
34.964
34.959
34.954
34.948
34.942
34.934
34.926
34.918
34.909
34.9
34.892
34.884
34.876
34.869
34.862
34.858
34.858
34.863
34.877
34.9
34.934
34.981
35.04
35.112
35.197
35.294
35.401
35.517
35.638
35.763
35.889
36.011
36.129
36.238
36.338
36.425
36.499
36.559
36.604
36.635
36.651
36.655
36.646
36.627
36.599
36.564
36.522
36.475
36.423
36.369
36.313
36.256
36.198
36.141
36.084
36.029
35.976
35.925
35.878
35.833
35.793
35.756
35.723
35.694
35.668
35.645
35.625
35.606
35.589
35.572
35.555
35.538
35.519
35.5
35.479
35.456
35.432
35.406
35.38
35.355
35.331
35.309
35.292
35.279
35.271
35.269
35.273
35.283
35.297
35.316
35.339
35.364
35.39
35.417
35.445
35.473
35.5
35.524
35.547
35.566
35.583
35.597
35.608
35.616
35.621
35.624
35.624
35.621
35.616
35.609
35.6
35.59
35.577
35.563
35.546
35.529
35.511
35.492
35.472
35.452
35.431
35.409
35.386
35.363
35.339
35.314
35.288
35.262
35.237
35.212
35.188
35.166
35.146
35.128
35.112
35.098
35.085
35.075
35.065
35.058
35.051
35.046
35.041
35.035
35.029
35.023
35.016
35.008
35.001
34.993
34.985
34.978
34.971
34.965
34.959
34.955
34.951
34.949
34.948
34.949
34.952
34.956
34.961
34.967
34.973
34.98
34.986
34.991
34.997
35.001
35.004
35.005
35.005
35.003
35.0
34.996
34.99
34.985
34.979
34.974
34.969
34.965
34.961
34.959
34.957
34.956
34.954
34.952
34.949
34.945
34.94
34.933
34.925
34.917
34.907
34.897
34.887
34.877
34.867
34.857
34.848
34.839
34.831
34.823
34.816
34.811
34.807
34.806
34.807
34.811
34.819
34.83
34.847
34.869
34.899
34.938
34.988
35.049
35.123
35.21
35.308
35.416
35.532
35.655
35.781
35.909
36.035
36.157
36.272
36.378
36.472
36.553
36.619
36.67
36.706
36.728
36.736
36.732
36.717
36.691
36.656
36.614
36.566
36.514
36.459
36.403
36.348
36.294
36.241
36.19
36.142
36.097
36.055
36.016
35.98
35.948
35.918
35.893
35.87
35.851
35.834
35.82
35.807
35.795
35.783
35.77
35.757
35.743
35.727
35.71
35.691
35.67
35.648
35.623
35.598
35.573
35.549
35.527
35.505
35.486
35.469
35.455
35.444
35.436
35.432
35.43
35.432
35.437
35.446
35.457
35.471
35.487
35.504
35.521
35.538
35.555
35.571
35.587
35.602
35.616
35.629
35.64
35.649
35.655
35.659
35.66
35.659
35.655
35.649
35.639
35.626
35.611
35.593
35.572
35.55
35.526
35.501
35.476
35.45
35.425
35.401
35.378
35.356
35.335
35.316
35.298
35.281
35.266
35.252
35.238
35.224
35.211
35.197
35.183
35.17
35.157
35.146
35.135
35.125
35.116
35.108
35.099
35.091
35.084
35.076
35.07
35.065
35.06
35.057
35.054
35.052
35.049
35.046
35.043
35.039
35.035
35.031
35.027
35.023
35.019
35.015
35.011
35.008
35.005
35.003
35.002
35.001
35.001
35.001
35.002
35.003
35.005
35.007
35.009
35.012
35.015
35.017
35.019
35.019
35.019
35.017
35.015
35.011
35.007
35.002
34.997
34.991
34.986
34.979
34.973
34.966
34.958
34.951
34.943
34.937
34.931
34.924
34.918
34.911
34.904
34.896
34.889
34.882
34.875
34.869
34.864
34.86
34.857
34.854
34.853
34.853
34.855
34.861
34.871
34.887
34.91
34.943
34.985
35.039
35.104
35.182
35.272
35.373
35.485
35.604
35.73
35.859
35.988
36.113
36.232
36.342
36.442
36.529
36.602
36.66
36.702
36.728
36.74
36.737
36.721
36.694
36.658
36.615
36.565
36.511
36.454
36.395
36.336
36.277
36.22
36.165
36.113
36.064
36.02
35.979
35.941
35.908
35.877
35.849
35.825
35.802
35.782
35.764
35.747
35.731
35.715
35.698
35.682
35.665
35.647
35.629
35.609
35.588
35.566
35.543
35.518
35.493
35.468
35.443
35.42
35.4
35.383
35.37
35.361
35.358
35.358
35.364
35.373
35.385
35.399
35.416
35.433
35.452
35.471
35.491
35.511
35.53
35.547
35.564
35.579
35.592
35.603
35.611
35.618
35.622
35.623
35.622
35.617
35.608
35.597
35.582
35.566
35.547
35.527
35.506
35.483
35.459
35.434
35.409
35.382
35.355
35.327
35.3
35.273
35.247
35.222
35.197
35.174
35.152
35.131
35.112
35.095
35.079
35.066
35.055
35.046
35.038
35.032
35.027
35.023
35.02
35.017
35.014
35.011
35.007
35.004
35.001
34.998
34.995
34.993
34.99
34.987
34.984
34.98
34.975
34.97
34.965
34.96
34.954
34.95
34.946
34.942
34.939
34.937
34.934
34.931
34.929
34.926
34.924
34.922
34.92
34.919
34.919
34.92
34.92
34.921
34.922
34.922
34.922
34.921
34.921
34.92
34.92
34.919
34.919
34.918
34.917
34.914
34.911
34.907
34.904
34.9
34.895
34.891
34.886
34.881
34.875
34.87
34.863
34.855
34.846
34.836
34.826
34.816
34.806
34.796
34.786
34.777
34.769
34.761
34.755
34.75
34.745
34.741
34.738
34.734
34.731
34.728
34.725
34.722
34.719
34.715
34.712
34.71
34.71
34.713
34.72
34.732
34.751
34.777
34.814
34.861
34.922
34.997
35.085
35.188
35.302
35.426
35.559
35.697
35.837
35.975
36.11
36.236
36.352
36.455
36.544
36.617
36.673
36.712
36.735
36.742
36.735
36.714
36.681
36.638
36.587
36.53
36.469
36.405
36.34
36.276
36.214
36.154
36.096
36.041
35.989
35.939
35.891
35.847
35.806
35.77
35.737
35.709
35.683
35.661
35.642
35.626
35.611
35.599
35.588
35.578
35.568
35.557
35.545
35.531
35.515
35.497
35.479
35.459
35.438
35.417
35.396
35.377
35.359
35.344
35.332
35.323
35.318
35.315
35.316
35.32
35.328
35.338
35.351
35.366
35.383
35.401
35.421
35.442
35.462
35.483
35.502
35.52
35.536
35.55
35.561
35.57
35.575
35.577
35.575
35.569
35.559
35.545
35.529
35.51
35.489
35.467
35.443
35.42
35.396
35.372
35.349
35.326
35.303
35.281
35.26
35.239
35.218
35.198
35.178
35.157
35.136
35.115
35.094
35.073
35.053
35.035
35.017
35.002
34.989
34.977
34.967
34.958
34.951
34.945
34.94
34.936
34.934
34.932
34.93
34.928
34.926
34.924
34.921
34.918
34.915
34.911
34.908
34.905
34.902
34.899
34.897
34.895
34.894
34.893
34.893
34.893
34.894
34.896
34.898
34.901
34.904
34.907
34.91
34.913
34.914
34.914
34.912
34.908
34.903
34.897
34.889
34.88
34.871
34.861
34.852
34.842
34.834
34.825
34.818
34.811
34.804
34.8
34.796
34.795
34.795
34.795
34.797
34.799
34.801
34.804
34.805
34.807
34.808
34.808
34.808
34.808
34.806
34.805
34.803
34.8
34.797
34.793
34.789
34.785
34.782
34.778
34.775
34.772
34.77
34.769
34.769
34.769
34.769
34.769
34.768
34.768
34.766
34.763
34.759
34.754
34.747
34.739
34.731
34.723
34.715
34.708
34.702
34.697
34.694
34.694
34.697
34.706
34.721
34.745
34.777
34.821
34.877
34.945
35.026
35.121
35.227
35.344
35.47
35.601
35.736
35.87
36.001
36.127
36.244
36.35
36.443
36.522
36.586
36.634
36.666
36.683
36.686
36.675
36.653
36.62
36.578
36.529
36.473
36.413
36.351
36.286
36.221
36.158
36.096
36.036
35.98
35.928
35.879
35.835
35.794
35.757
35.723
35.693
35.666
35.642
35.62
35.602
35.585
35.571
35.558
35.545
35.532
35.519
35.504
35.488
35.47
35.45
35.428
35.404
35.378
35.352
35.325
35.3
35.276
35.254
35.236
35.221
35.212
35.208
35.209
35.216
35.228
35.245
35.265
35.288
35.313
35.339
35.367
35.395
35.422
35.448
35.473
35.496
35.517
35.535
35.55
35.562
35.569
35.571
35.569
35.564
35.554
35.542
35.528
35.511
35.493
35.473
35.452
35.431
35.409
35.386
35.363
35.34
35.316
35.292
35.268
35.244
35.219
35.194
35.168
35.143
35.117
35.093
35.069
35.047
35.025
35.005
34.986
34.967
34.95
34.934
34.918
34.904
34.891
34.88
34.869
34.86
34.853
34.846
34.841
34.836
34.832
34.828
34.824
34.821
34.82
34.819
34.818
34.819
34.82
34.822
34.824
34.826
34.828
34.83
34.832
34.834
34.836
34.837
34.838
34.839
34.84
34.84
34.84
34.838
34.836
34.833
34.83
34.827
34.824
34.822
34.821
34.82
34.82
34.821
34.821
34.821
34.821
34.821
34.821
34.821
34.822
34.823
34.824
34.826
34.827
34.828
34.828
34.827
34.826
34.823
34.82
34.815
34.81
34.805
34.799
34.794
34.787
34.781
34.774
34.767
34.759
34.751
34.744
34.736
34.728
34.721
34.714
34.708
34.702
34.698
34.695
34.692
34.691
34.69
34.69
34.69
34.69
34.691
34.691
34.69
34.689
34.686
34.681
34.675
34.668
34.66
34.652
34.645
34.638
34.634
34.631
34.633
34.639
34.65
34.668
34.694
34.73
34.777
34.837
34.91
34.997
35.097
35.209
35.332
35.464
35.603
35.745
35.888
36.028
36.161
36.285
36.398
36.497
36.581
36.649
36.7
36.735
36.753
36.757
36.746
36.722
36.686
36.64
36.586
36.524
36.458
36.389
36.32
36.251
36.183
36.119
36.058
36.002
35.95
35.904
35.862
35.824
35.79
35.759
35.729
35.702
35.676
35.652
35.629
35.608
35.587
35.566
35.546
35.526
35.506
35.487
35.469
35.451
35.433
35.415
35.397
35.379
35.361
35.343
35.325
35.308
35.292
35.278
35.266
35.256
35.249
35.245
35.243
35.243
35.247
35.252
35.26
35.27
35.282
35.297
35.313
35.331
35.351
35.371
35.392
35.412
35.433
35.452
35.471
35.487
35.501
35.513
35.521
35.525
35.524
35.519
35.509
35.495
35.477
35.455
35.431
35.405
35.378
35.349
35.32
35.291
35.264
35.237
35.212
35.188
35.165
35.143
35.122
35.102
35.084
35.068
35.053
35.039
35.025
35.012
34.998
34.984
34.971
34.957
34.943
34.929
34.915
34.902
34.889
34.876
34.865
34.855
34.846
34.838
34.833
34.829
34.827
34.827
34.828
34.83
34.833
34.835
34.837
34.839
34.84
34.841
34.841
34.842
34.842
34.843
34.844
34.846
34.847
34.848
34.848
34.848
34.847
34.846
34.845
34.842
34.839
34.836
34.832
34.827
34.823
34.818
34.815
34.811
34.808
34.805
34.803
34.8
34.798
34.795
34.791
34.788
34.783
34.778
34.773
34.769
34.764
34.76
34.757
34.755
34.754
34.753
34.754
34.755
34.757
34.759
34.76
34.761
34.76
34.759
34.756
34.752
34.746
34.738
34.728
34.718
34.708
34.697
34.687
34.678
34.669
34.661
34.653
34.647
34.64
34.635
34.631
34.629
34.628
34.628
34.631
34.635
34.643
34.654
34.671
34.695
34.727
34.768
34.819
34.882
34.957
35.043
35.141
35.25
35.368
35.494
35.625
35.757
35.888
36.014
36.133
36.241
36.337
36.419
36.486
36.536
36.57
36.588
36.59
36.577
36.552
36.516
36.472
36.421
36.365
36.306
36.245
36.183
36.121
36.06
36.002
35.945
35.892
35.841
35.793
35.747
35.703
35.661
35.622
35.585
35.551
35.519
35.49
35.462
35.436
35.412
35.389
35.367
35.345
35.325
35.305
35.286
35.268
35.249
35.23
35.21
35.191
35.172
35.154
35.137
35.121
35.108
35.097
35.089
35.084
35.082
35.084
35.089
35.098
35.111
35.126
35.144
35.164
35.186
35.209
35.233
35.258
35.282
35.307
35.331
35.354
35.375
35.394
35.408
35.419
35.427
35.43
35.43
35.426
35.418
35.408
35.394
35.378
35.36
35.34
35.319
35.296
35.272
35.248
35.224
35.199
35.175
35.15
35.126
35.103
35.08
35.057
35.034
35.012
34.99
34.968
34.948
34.928
34.908
34.89
34.873
34.857
34.843
34.83
34.819
34.809
34.801
34.794
34.789
34.785
34.781
34.779
34.777
34.775
34.773
34.771
34.769
34.766
34.763
34.76
34.756
34.752
34.747
34.742
34.737
34.732
34.728
34.725
34.723
34.721
34.72
34.72
34.721
34.722
34.725
34.728
34.732
34.737
34.742
34.748
34.753
34.757
34.76
34.761
34.762
34.762
34.762
34.761
34.76
34.759
34.758
34.756
34.755
34.754
34.753
34.752
34.752
34.752
34.753
34.754
34.756
34.758
34.759
34.76
34.759
34.758
34.756
34.753
34.749
34.744
34.738
34.731
34.723
34.716
34.708
34.7
34.693
34.686
34.68
34.674
34.669
34.664
34.66
34.656
34.652
34.649
34.646
34.645
34.644
34.645
34.647
34.653
34.663
34.68
34.704
34.739
34.785
34.844
34.917
35.005
35.106
35.219
35.342
35.473
35.609
35.748
35.884
36.016
36.14
36.253
36.353
36.438
36.506
36.557
36.592
36.611
36.615
36.605
36.582
36.548
36.504
36.453
36.396
36.335
36.273
36.21
36.148
36.088
36.029
35.974
35.921
35.872
35.825
35.782
35.742
35.705
35.671
35.641
35.613
35.587
35.564
35.542
35.521
35.502
35.483
35.464
35.446
35.427
35.409
35.39
35.37
35.35
35.327
35.304
35.279
35.254
35.229
35.204
35.18
35.159
35.142
35.128
35.12
35.117
35.118
35.124
35.134
35.148
35.165
35.184
35.207
35.232
35.259
35.288
35.318
35.346
35.374
35.399
35.421
35.44
35.456
35.468
35.477
35.482
35.483
35.48
35.473
35.463
35.45
35.435
35.417
35.398
35.378
35.358
35.337
35.317
35.296
35.275
35.254
35.232
35.21
35.188
35.166
35.144
35.121
35.098
35.076
35.053
35.03
35.007
34.985
34.964
34.944
34.926
34.909
34.895
34.882
34.871
34.861
34.853
34.845
34.838
34.832
34.826
34.82
34.815
34.81
34.805
34.8
34.796
34.793
34.79
34.789
34.79
34.791
34.794
34.798
34.802
34.807
34.812
34.816
34.821
34.825
34.829
34.832
34.835
34.836
34.837
34.837
34.837
34.838
34.839
34.842
34.844
34.847
34.85
34.852
34.853
34.853
34.851
34.848
34.843
34.837
34.831
34.823
34.816
34.808
34.802
34.796
34.79
34.785
34.781
34.778
34.774
34.772
34.769
34.766
34.762
34.757
34.752
34.746
34.74
34.734
34.728
34.723
34.717
34.711
34.705
34.699
34.694
34.689
34.686
34.684
34.686
34.691
34.701
34.719
34.744
34.779
34.825
34.882
34.952
35.033
35.127
35.231
35.343
35.46
35.581
35.701
35.819
35.932
36.038
36.134
36.219
36.292
36.352
36.399
36.432
36.452
36.46
36.455
36.44
36.416
36.383
36.343
36.297
36.245
36.19
36.132
36.073
36.013
35.955
35.897
35.842
35.79
35.741
35.696
35.654
35.616
35.581
35.551
35.524
35.5
35.48
35.463
35.448
35.434
35.421
35.407
35.393
35.377
35.36
35.341
35.32
35.297
35.274
35.249
35.224
35.199
35.175
35.153
35.133
35.118
35.107
35.1
35.098
35.1
35.107
35.117
35.13
35.147
35.167
35.19
35.216
35.243
35.271
35.299
35.327
35.354
35.38
35.403
35.423
35.441
35.455
35.466
35.473
35.477
35.478
35.475
35.468
35.459
35.448
35.434
35.418
35.401
35.383
35.363
35.343
35.322
35.301
35.279
35.258
35.236
35.215
35.193
35.172
35.15
35.128
35.106
35.084
35.063
35.042
35.023
35.005
34.988
34.972
34.958
34.946
34.934
34.924
34.915
34.906
34.898
34.889
34.881
34.873
34.865
34.859
34.855
34.852
34.85
34.85
34.85
34.851
34.853
34.855
34.857
34.859
34.862
34.865
34.868
34.871
34.873
34.874
34.874
34.873
34.871
34.869
34.867
34.865
34.863
34.862
34.86
34.859
34.857
34.856
34.854
34.852
34.851
34.85
34.85
34.85
34.849
34.849
34.848
34.846
34.844
34.842
34.84
34.838
34.835
34.833
34.83
34.827
34.823
34.82
34.815
34.81
34.803
34.797
34.79
34.782
34.775
34.769
34.763
34.759
34.756
34.754
34.754
34.755
34.759
34.764
34.774
34.788
34.808
34.835
34.87
34.915
34.97
35.036
35.113
35.199
35.294
35.396
35.502
35.612
35.722
35.831
35.935
36.034
36.124
36.203
36.271
36.326
36.368
36.395
36.41
36.412
36.401
36.38
36.349
36.31
36.263
36.21
36.153
36.093
36.031
35.971
35.911
35.854
35.801
35.751
35.704
35.662
35.623
35.587
35.556
35.528
35.503
35.482
35.463
35.446
35.43
35.415
35.401
35.386
35.372
35.357
35.342
35.327
35.311
35.294
35.277
35.259
35.241
35.224
35.207
35.191
35.178
35.167
35.159
35.154
35.152
35.153
35.157
35.164
35.173
35.184
35.196
35.211
35.226
35.243
35.261
35.279
35.298
35.317
35.336
35.356
35.375
35.392
35.408
35.422
35.434
35.442
35.448
35.451
35.451
35.448
35.443
35.436
35.425
35.412
35.397
35.379
35.36
35.338
35.315
35.291
35.266
35.241
35.215
35.188
35.163
35.138
35.114
35.092
35.071
35.051
35.033
35.017
35.002
34.988
34.976
34.964
34.953
34.943
34.934
34.925
34.918
34.911
34.905
34.9
34.895
34.89
34.884
34.879
34.872
34.866
34.859
34.853
34.846
34.841
34.837
34.834
34.832
34.832
34.833
34.834
34.837
34.839
34.842
34.846
34.849
34.851
34.854
34.855
34.857
34.858
34.859
34.86
34.861
34.863
34.865
34.867
34.87
34.872
34.875
34.877
34.879
34.88
34.88
34.879
34.878
34.876
34.874
34.871
34.868
34.864
34.86
34.855
34.85
34.844
34.837
34.829
34.82
34.81
34.8
34.791
34.781
34.772
34.763
34.754
34.748
34.742
34.739
34.739
34.743
34.751
34.764
34.783
34.809
34.844
34.887
34.94
35.002
35.074
35.156
35.246
35.343
35.446
35.552
35.659
35.764
35.864
35.959
36.046
36.124
36.191
36.248
36.293
36.326
36.347
36.357
36.356
36.345
36.324
36.295
36.259
36.217
36.169
36.118
36.064
36.009
35.953
35.898
35.845
35.794
35.747
35.704
35.665
35.63
35.599
35.572
35.547
35.527
35.509
35.493
35.479
35.466
35.453
35.44
35.425
35.41
35.393
35.374
35.354
35.332
35.309
35.286
35.262
35.239
35.218
35.2
35.184
35.172
35.165
35.162
35.164
35.171
35.182
35.195
35.211
35.229
35.248
35.268
35.289
35.31
35.331
35.352
35.372
35.391
35.409
35.426
35.441
35.455
35.468
35.478
35.486
35.492
35.496
35.497
35.496
35.492
35.485
35.477
35.466
35.454
35.44
35.425
35.409
35.392
35.374
35.355
35.337
35.32
35.303
35.286
35.27
35.254
35.237
35.22
35.203
35.185
35.166
35.147
35.129
35.11
35.093
35.077
35.062
35.05
35.039
35.031
35.025
35.02
35.016
35.013
35.011
35.008
35.005
35.001
34.998
34.994
34.992
34.991
34.99
34.99
34.99
34.99
34.99
34.99
34.989
34.988
34.987
34.985
34.983
34.981
34.978
34.975
34.972
34.969
34.966
34.963
34.961
34.959
34.958
34.957
34.957
34.958
34.959
34.96
34.961
34.961
34.962
34.961
34.96
34.959
34.957
34.955
34.954
34.952
34.949
34.946
34.943
34.938
34.933
34.928
34.923
34.917
34.912
34.906
34.9
34.894
34.888
34.881
34.874
34.868
34.862
34.857
34.853
34.852
34.854
34.86
34.871
34.889
34.915
34.95
34.996
35.052
35.119
35.196
35.281
35.373
35.472
35.575
35.68
35.785
35.888
35.986
36.076
36.158
36.23
36.29
36.338
36.374
36.399
36.412
36.413
