Trial 3:3back
32.831
32.812
32.794
32.775
32.756
32.738
32.72
32.704
32.689
32.676
32.665
32.657
32.649
32.643
32.639
32.638
32.639
32.643
32.652
32.665
32.686
32.717
32.761
32.821
32.901
33.005
33.138
33.303
33.504
33.742
34.019
34.334
34.686
35.07
35.484
35.921
36.376
36.843
37.314
37.784
38.245
38.69
39.113
39.506
39.866
40.188
40.471
40.711
40.908
41.061
41.171
41.239
41.267
41.257
41.213
41.138
41.037
40.913
40.771
40.614
40.445
40.269
40.086
39.9
39.71
39.519
39.327
39.138
38.952
38.771
38.596
38.43
38.273
38.124
37.982
37.847
37.717
37.591
37.468
37.346
37.223
37.099
36.972
36.843
36.709
36.572
36.432
36.29
36.146
36.003
35.862
35.725
35.593
35.467
35.351
35.244
35.148
35.065
34.994
34.936
34.892
34.859
34.837
34.825
34.82
34.821
34.826
34.833
34.841
34.849
34.857
34.865
34.873
34.883
34.892
34.902
34.911
34.922
34.931
34.939
34.945
34.947
34.945
34.938
34.925
34.905
34.879
34.848
34.813
34.773
34.728
34.678
34.624
34.566
34.506
34.443
34.378
34.312
34.246
34.179
34.113
34.047
33.983
33.92
33.86
33.802
33.746
33.69
33.636
33.583
33.53
33.477
33.425
33.373
33.321
33.269
33.218
33.169
33.121
33.074
33.029
32.984
32.941
32.899
32.859
32.821
32.786
32.754
32.726
32.702
32.681
32.664
32.649
32.637
32.625
32.614
32.602
32.589
32.576
32.561
32.547
32.534
32.522
32.512
32.503
32.495
32.488
32.48
32.472
32.464
32.457
32.449
32.442
32.436
32.432
32.435
32.448
32.472
32.508
32.555
32.613
32.685
32.771
32.876
33.004
33.157
33.341
33.558
33.813
34.106
34.437
34.804
35.205
35.636
36.091
36.562
37.043
37.526
38.003
38.466
38.908
39.324
39.707
40.055
40.363
40.629
40.852
41.03
41.164
41.255
41.304
41.315
41.289
41.232
41.146
41.035
40.903
40.754
40.593
40.421
40.244
40.063
39.88
39.697
39.515
39.335
39.158
38.985
38.817
38.655
38.499
38.351
38.21
38.076
37.947
37.823
37.702
37.582
37.462
37.339
37.214
37.084
36.949
36.809
36.667
36.522
36.373
36.217
36.05
35.878
35.703
35.533
35.37
35.22
35.086
34.972
34.878
34.805
34.753
34.72
34.704
34.703
34.714
34.733
34.759
34.788
34.818
34.847
34.873
34.895
34.913
34.927
34.937
34.943
34.948
34.951
34.952
34.951
34.949
34.945
34.938
34.927
34.911
34.889
34.861
34.826
34.785
34.739
34.687
34.631
34.573
34.514
34.453
34.392
34.331
34.27
34.21
34.15
34.089
34.026
33.962
33.898
33.832
33.766
33.7
33.633
33.567
33.502
33.437
33.372
33.309
33.248
33.185
33.122
33.056
32.991
32.926
32.865
32.808
32.758
32.715
32.679
32.649
32.624
32.603
32.585
32.57
32.557
32.546
32.536
32.526
32.517
32.506
32.494
32.48
32.465
32.448
32.43
32.409
32.388
32.367
32.347
32.329
32.313
32.3
32.291
32.284
32.279
32.276
32.276
32.277
32.28
32.283
32.287
32.291
32.296
32.301
32.308
32.318
32.331
32.351
32.379
32.419
32.474
32.547
32.644
32.769
32.925
33.117
33.347
33.617
33.927
34.277
34.664
35.083
35.528
35.993
36.471
36.953
37.432
37.898
38.346
38.768
39.157
39.511
39.824
40.094
40.321
40.503
40.642
40.74
40.799
40.823
40.813
40.773
40.706
40.614
40.502
40.371
40.224
40.064
39.895
39.718
39.537
39.354
39.17
38.987
38.807
38.63
38.457
38.289
38.126
37.967
37.812
37.662
37.514
37.369
37.224
37.08
36.934
36.787
36.639
36.49
36.342
36.194
36.05
35.909
35.773
35.644
35.52
35.403
35.293
35.19
35.093
35.003
34.919
34.84
34.767
34.7
34.639
34.584
34.536
34.498
34.469
34.449
34.44
34.439
34.447
34.463
34.484
34.508
34.533
34.556
34.575
34.59
34.6
34.605
34.607
34.607
34.605
34.602
34.599
34.596
34.594
34.592
34.588
34.582
34.573
34.56
34.542
34.517
34.484
34.444
34.397
34.343
34.284
34.221
34.154
34.087
34.019
33.953
33.888
33.826
33.766
33.709
33.653
33.599
33.547
33.495
33.443
33.391
33.337
33.283
33.229
33.175
33.122
33.07
33.02
32.974
32.932
32.894
32.86
32.83
32.802
32.776
32.75
32.724
32.699
32.675
32.653
32.631
32.611
32.592
32.575
32.561
32.548
32.536
32.524
32.51
32.495
32.479
32.463
32.448
32.434
32.424
32.416
32.41
32.407
32.407
32.409
32.414
32.42
32.429
32.439
32.451
32.464
32.477
32.491
32.507
32.524
32.544
32.568
32.599
32.638
32.689
32.755
32.84
32.948
33.085
33.253
33.457
33.699
33.981
34.304
34.664
35.059
35.481
35.924
36.38
36.841
37.301
37.751
38.185
38.598
38.984
39.338
39.656
39.935
40.173
40.37
40.524
40.637
40.711
40.746
40.746
40.713
40.65
40.558
40.443
40.305
40.15
39.979
39.796
39.604
39.406
39.204
39.0
38.795
38.593
38.395
38.202
38.015
37.834
37.659
37.49
37.326
37.167
37.011
36.857
36.706
36.556
36.409
36.262
36.116
35.972
35.83
35.691
35.554
35.42
35.289
35.16
35.035
34.913
34.798
34.69
34.591
34.502
34.424
34.357
34.303
34.261
34.231
34.213
34.206
34.207
34.217
34.232
34.252
34.275
34.299
34.324
34.349
34.375
34.402
34.428
34.455
34.482
34.509
34.534
34.558
34.58
34.597
34.609
34.616
34.616
34.609
34.596
34.576
34.549
34.517
34.48
34.439
34.395
34.348
34.3
34.251
34.202
34.153
34.103
34.052
33.999
33.945
33.89
33.833
33.775
33.717
33.661
33.605
33.551
33.499
33.449
33.402
33.357
33.316
33.276
33.239
33.203
33.168
33.133
33.097
33.061
33.025
32.989
32.953
32.917
32.881
32.848
32.817
32.79
32.765
32.743
32.724
32.706
32.689
32.672
32.655
32.638
32.62
32.601
32.583
32.565
32.55
32.536
32.525
32.517
32.511
32.506
32.503
32.501
32.499
32.497
32.496
32.495
32.497
32.502
32.512
32.529
32.557
32.597
32.653
32.728
32.825
32.947
33.098
33.281
33.499
33.754
34.047
34.377
34.743
35.14
35.564
36.009
36.469
36.936
37.403
37.863
38.308
38.731
39.125
39.485
39.806
40.087
40.324
40.517
40.666
40.773
40.839
40.866
40.857
40.815
40.744
40.647
40.528
40.391
40.238
40.074
39.901
39.721
39.537
39.349
39.161
38.973
38.788
38.606
38.427
38.25
38.077
37.907
37.74
37.577
37.418
37.261
37.108
36.956
36.806
36.656
36.507
36.359
36.212
36.068
35.927
35.789
35.655
35.523
35.395
35.27
35.15
35.035
34.926
34.823
34.728
34.641
34.564
34.497
34.441
34.395
34.359
34.333
34.315
34.304
34.3
34.3
34.306
34.316
34.329
34.345
34.362
34.381
34.401
34.422
34.442
34.462
34.482
34.501
34.518
34.533
34.542
34.547
34.545
34.536
34.521
34.499
34.472
34.44
34.403
34.364
34.321
34.278
34.233
34.189
34.144
34.099
34.054
34.01
33.967
33.923
33.879
33.834
33.788
33.739
33.687
33.632
33.575
33.517
33.459
33.402
33.346
33.294
33.245
33.2
33.159
33.121
33.087
33.054
33.023
32.991
32.957
32.923
32.887
32.85
32.812
32.776
32.744
32.717
32.697
32.683
32.673
32.667
32.662
32.658
32.653
32.646
32.635
32.621
32.604
32.583
32.559
32.535
32.511
32.488
32.467
32.45
32.436
32.426
32.419
32.415
32.413
32.412
32.414
32.42
32.43
32.446
32.47
32.507
32.559
32.629
32.721
32.838
32.986
33.168
33.388
33.648
33.949
34.29
34.67
35.084
35.526
35.989
36.467
36.95
37.431
37.9
38.351
38.776
39.171
39.531
39.851
40.131
40.368
40.563
40.717
40.831
40.907
40.946
40.951
40.924
40.87
40.791
40.69
40.572
40.439
40.294
40.138
39.973
39.802
39.626
39.446
39.264
39.08
38.897
38.713
38.53
38.348
38.167
37.99
37.816
37.647
37.482
37.321
37.164
37.011
36.864
36.72
36.581
36.445
36.312
36.182
36.053
35.925
35.798
35.672
35.549
35.428
35.311
35.198
35.091
34.989
34.894
34.805
34.724
34.651
34.586
34.529
34.479
34.438
34.405
34.381
34.366
34.359
34.359
34.366
34.377
34.392
34.41
34.429
34.449
34.469
34.49
34.509
34.527
34.542
34.556
34.567
34.575
34.58
34.581
34.578
34.569
34.555
34.535
34.509
34.478
34.443
34.404
34.36
34.313
34.264
34.214
34.163
34.112
34.062
34.012
33.962
33.911
33.86
33.808
33.755
33.702
33.648
33.595
33.543
33.492
33.441
33.39
33.34
33.291
33.244
33.197
33.152
33.108
33.066
33.026
32.989
32.954
32.921
32.89
32.861
32.834
32.807
32.782
32.758
32.735
32.715
32.696
32.679
32.665
32.654
32.645
32.638
32.631
32.624
32.616
32.607
32.594
32.579
32.562
32.543
32.523
32.504
32.484
32.467
32.452
32.441
32.433
32.427
32.424
32.423
32.424
32.427
32.432
32.441
32.457
32.482
32.519
32.572
32.645
32.743
32.869
33.028
33.222
33.454
33.727
34.04
34.391
34.777
35.194
35.635
36.095
36.563
37.032
37.494
37.94
38.364
38.76
39.121
39.444
39.727
39.968
40.168
40.326
40.443
40.521
40.563
40.57
40.545
40.491
40.411
40.309
40.186
40.048
39.898
39.738
39.572
39.402
39.229
39.056
38.882
38.708
38.536
38.365
38.195
38.026
37.859
37.694
37.531
37.368
37.206
37.046
36.888
36.732
36.578
36.426
36.277
36.132
35.99
35.852
35.719
35.589
35.462
35.34
35.222
35.108
35.001
34.899
34.804
34.714
34.631
34.554
34.483
34.418
34.36
34.309
34.266
34.232
34.205
34.186
34.174
34.169
34.171
34.18
34.194
34.213
34.236
34.262
34.291
34.321
34.351
34.38
34.408
34.434
34.456
34.473
34.485
34.493
34.495
34.493
34.487
34.477
34.463
34.445
34.422
34.396
34.364
34.329
34.29
34.248
34.203
34.156
34.107
34.057
34.006
33.956
33.906
33.855
33.806
33.756
33.707
33.658
33.611
33.565
33.522
33.48
33.441
33.403
33.366
33.33
33.293
33.257
33.221
33.186
33.152
33.118
33.085
33.054
33.025
32.999
32.975
32.953
32.933
32.914
32.896
32.878
32.861
32.843
32.826
32.808
32.79
32.771
32.753
32.735
32.718
32.701
32.685
32.669
32.653
32.636
32.62
32.605
32.592
32.583
32.578
32.578
32.583
32.596
32.617
32.649
32.693
32.75
32.823
32.916
33.03
33.171
33.34
33.541
33.779
34.054
34.368
34.718
35.102
35.514
35.949
36.4
36.858
37.316
37.765
38.197
38.604
38.982
39.324
39.627
39.889
40.108
40.282
40.413
40.502
40.551
40.562
40.54
40.486
40.406
40.302
40.176
40.031
39.87
39.697
39.515
39.327
39.136
38.944
38.752
38.564
38.379
38.198
38.022
37.849
37.682
37.519
37.36
37.204
37.05
36.899
36.749
36.599
36.45
36.3
36.149
35.997
35.846
35.695
35.546
35.401
35.262
35.13
35.007
34.893
34.789
34.696
34.614
34.541
34.478
34.423
34.375
34.335
34.301
34.273
34.252
34.239
34.233
34.234
34.243
34.257
34.278
34.304
34.334
34.367
34.402
34.438
34.473
34.506
34.535
34.561
34.582
34.599
34.612
34.62
34.625
34.627
34.625
34.62
34.613
34.604
34.593
34.579
34.561
34.54
34.516
34.487
34.456
34.421
34.382
34.34
34.296
34.249
34.199
34.147
34.094
34.04
33.986
33.933
33.88
33.827
33.775
33.724
33.675
33.626
33.578
33.531
33.486
33.443
33.403
33.365
33.331
33.299
33.268
33.239
33.21
33.182
33.154
33.126
33.099
33.072
33.045
33.018
32.993
32.969
32.946
32.926
32.909
32.893
32.88
32.867
32.855
32.842
32.83
32.817
32.803
32.79
32.776
32.764
32.754
32.748
32.749
32.758
32.778
32.81
32.857
32.921
33.005
33.113
33.246
33.409
33.603
33.833
34.097
34.397
34.73
35.096
35.491
35.909
36.344
36.79
37.239
37.682
38.113
38.524
38.908
39.259
39.575
39.851
40.085
40.276
40.424
40.529
40.595
40.624
40.618
40.581
40.517
40.43
40.323
40.198
40.06
39.908
39.748
39.579
39.403
39.22
39.033
38.841
38.648
38.452
38.256
38.061
37.869
37.68
37.495
37.315
37.139
36.97
36.806
36.648
36.495
36.348
36.205
36.067
35.934
35.803
35.676
35.552
35.431
35.313
35.198
35.088
34.983
34.884
34.791
34.706
34.629
34.56
34.502
34.452
34.412
34.382
34.36
34.349
34.345
34.349
34.359
34.373
34.39
34.411
34.432
34.452
34.472
34.49
34.508
34.524
34.54
34.555
34.57
34.586
34.601
34.615
34.627
34.638
34.644
34.646
34.643
34.635
34.621
34.602
34.576
34.545
34.507
34.466
34.42
34.372
34.321
34.27
34.22
34.171
34.125
34.08
34.037
33.996
33.956
33.915
33.874
33.831
33.788
33.743
33.698
33.653
33.608
33.563
33.518
33.474
33.431
33.389
33.348
33.309
33.271
33.235
33.201
33.17
33.142
33.117
33.095
33.073
33.053
33.033
33.013
32.993
32.972
32.95
32.928
32.905
32.883
32.86
32.838
32.818
32.8
32.783
32.767
32.751
32.737
32.724
32.713
32.704
32.698
32.696
32.697
32.701
32.708
32.718
32.732
32.751
32.778
32.814
32.863
32.929
33.014
33.123
33.259
33.427
33.628
33.865
34.14
34.451
34.8
35.181
35.592
36.026
36.478
36.941
37.405
37.865
38.31
38.735
39.131
39.494
39.819
40.104
40.348
40.55
40.711
40.83
40.91
40.952
40.959
40.934
40.882
40.804
40.704
40.585
40.45
40.302
40.145
39.98
39.81
39.638
39.466
39.293
39.121
38.949
38.779
38.609
38.441
38.275
38.111
37.95
37.792
37.636
37.484
37.334
37.186
37.042
36.901
36.763
36.627
36.493
36.359
36.226
36.094
35.963
35.833
35.706
35.583
35.465
35.353
35.249
35.152
35.063
34.984
34.912
34.85
34.797
34.752
34.715
34.684
34.66
34.642
34.63
34.624
34.623
34.628
34.637
34.65
34.667
34.687
34.708
34.73
34.752
34.774
34.795
34.812
34.826
34.835
34.838
34.836
34.828
34.815
34.796
34.772
34.745
34.714
34.681
34.646
34.611
34.575
34.54
34.507
34.478
34.45
34.423
34.396
34.367
34.334
34.298
34.256
34.209
34.156
34.098
34.037
33.972
33.906
33.84
33.775
33.713
33.654
33.598
33.546
33.498
33.455
33.416
33.379
33.345
33.312
33.28
33.248
33.218
33.188
33.159
33.131
33.105
33.08
33.056
33.033
33.012
32.992
32.973
32.955
32.939
32.925
32.912
32.9
32.889
32.878
32.868
32.859
32.85
32.841
32.831
32.822
32.813
32.807
32.805
32.808
32.821
32.844
32.88
32.932
33.003
33.095
33.213
33.359
33.536
33.747
33.993
34.275
34.594
34.948
35.335
35.75
36.189
36.643
37.106
37.569
38.024
38.463
38.878
39.265
39.617
39.932
40.205
40.434
40.619
40.759
40.856
40.912
40.932
40.919
40.875
40.804
40.711
40.598
40.47
40.33
40.18
40.023
39.861
39.696
39.529
39.362
39.195
39.03
38.866
38.703
38.543
38.383
38.226
38.07
37.915
37.76
37.606
37.453
37.303
37.156
37.011
36.869
36.73
36.594
36.462
36.332
36.206
36.082
35.961
35.842
35.725
35.61
35.5
35.395
35.296
35.204
35.119
35.041
34.972
34.91
34.857
34.811
34.774
34.746
34.725
34.712
34.706
34.705
34.709
34.717
34.73
34.746
34.766
34.788
34.812
34.834
34.854
34.871
34.884
34.891
34.893
34.89
34.882
34.869
34.852
34.831
34.807
34.782
34.754
34.726
34.696
34.664
34.631
34.595
34.558
34.518
34.475
34.429
34.381
34.331
34.279
34.224
34.168
34.112
34.055
33.999
33.944
33.89
33.838
33.787
33.739
33.693
33.65
33.608
33.569
33.531
33.494
33.458
33.423
33.388
33.354
33.319
33.284
33.249
33.215
33.181
33.148
33.116
33.088
33.061
33.037
33.015
32.995
32.98
32.977
32.987
33.008
33.035
33.065
33.095
33.12
33.137
33.145
33.144
33.133
33.113
33.085
33.052
33.015
32.978
32.944
32.915
32.896
32.89
32.9
32.932
32.986
33.068
33.18
33.325
33.507
33.728
33.987
34.286
34.623
34.996
35.4
35.831
36.28
36.741
37.206
37.666
38.112
38.538
38.937
39.303
39.63
39.917
40.16
40.36
40.516
40.629
40.7
40.733
40.729
40.693
40.628
40.538
40.426
40.295
40.151
39.996
39.832
39.661
39.487
39.311
39.136
38.961
38.79
38.622
38.457
38.297
38.141
37.987
37.834
37.683
37.533
37.385
37.238
37.092
36.948
36.806
36.666
36.529
36.393
36.261
36.132
36.005
35.882
35.761
35.644
35.531
35.423
35.321
35.225
35.136
35.054
34.981
34.914
34.856
34.807
34.767
34.737
34.716
34.702
34.696
34.697
34.703
34.714
34.729
34.747
34.767
34.789
34.812
34.836
34.859
34.883
34.905
34.925
34.943
34.957
34.966
34.971
34.97
34.965
34.955
34.941
34.922
34.899
34.871
34.838
34.801
34.761
34.717
34.671
34.622
34.572
34.519
34.465
34.409
34.352
34.296
34.239
34.184
34.13
34.078
34.027
33.979
33.933
33.888
33.845
33.802
33.76
33.718
33.677
33.637
33.597
33.558
33.52
33.483
33.448
33.414
33.381
33.35
33.321
33.293
33.267
33.242
33.22
33.199
33.179
33.161
33.143
33.127
33.11
33.092
33.074
33.056
33.037
33.018
32.999
32.982
32.967
32.953
32.942
32.933
32.928
32.926
32.929
32.938
32.952
32.975
33.007
33.053
33.115
33.196
33.301
33.435
33.601
33.801
34.037
34.312
34.624
34.972
35.353
35.76
36.189
36.631
37.078
37.524
37.959
38.376
38.768
39.13
39.457
39.745
39.993
40.203
40.375
40.51
40.608
40.67
40.696
40.688
40.648
40.577
40.479
40.357
40.215
40.058
39.888
39.71
39.524
39.334
39.142
38.949
38.758
38.57
38.386
38.208
38.037
37.873
37.716
37.566
37.423
37.284
37.149
37.015
36.883
36.752
36.619
36.485
36.348
36.21
36.069
35.929
35.788
35.65
35.515
35.387
35.265
35.153
35.049
34.956
34.873
34.801
34.74
34.689
34.648
34.616
34.593
34.579
34.573
34.573
34.58
34.591
34.608
34.628
34.653
34.681
34.711
34.742
34.773
34.803
34.83
34.854
34.874
34.889
34.898
34.901
34.899
34.891
34.878
34.861
34.839
34.814
34.786
34.753
34.718
34.68
34.64
34.599
34.558
34.515
34.473
34.429
34.384
34.338
34.288
34.237
34.185
34.132
34.079
34.026
33.974
33.922
33.871
33.821
33.773
33.726
33.681
33.638
33.596
33.555
33.515
33.477
33.441
33.405
33.37
33.335
33.3
33.266
33.234
33.205
33.177
33.151
33.127
33.105
33.084
33.064
33.045
33.026
33.007
32.988
32.968
32.948
32.927
32.907
32.888
32.87
32.855
32.843
32.835
32.832
32.834
32.844
32.862
32.889
32.927
32.977
33.045
33.133
33.244
33.383
33.553
33.759
34.003
34.285
34.606
34.963
35.354
35.772
36.213
36.668
37.13
37.59
38.042
38.477
38.887
39.268
39.612
39.918
40.182
40.402
40.577
40.709
40.798
40.847
40.859
40.837
40.785
40.706
40.606
40.488
40.354
40.208
40.053
39.891
39.724
39.555
39.384
39.214
39.046
38.881
38.718
38.559
38.403
38.251
38.101
37.954
37.809
37.665
37.522
37.379
37.236
37.093
36.95
36.807
36.665
36.523
36.381
36.239
36.098
35.959
35.822
35.69
35.564
35.445
35.336
35.236
35.147
35.069
35.002
34.947
34.902
34.866
34.839
34.819
34.806
34.798
34.794
34.792
34.793
34.795
34.799
34.804
34.81
34.82
34.831
34.845
34.86
34.876
34.892
34.907
34.919
34.929
34.935
34.938
34.936
34.93
34.919
34.903
34.882
34.855
34.823
34.786
34.744
34.697
34.648
34.595
34.54
34.484
34.427
34.369
34.311
34.252
34.193
34.133
34.073
34.013
33.953
33.893
33.833
33.774
33.717
33.662
33.609
33.559
33.512
33.468
33.428
33.39
33.355
33.321
33.29
33.259
33.228
33.197
33.165
33.131
33.097
33.063
33.029
32.996
32.965
32.936
32.91
32.885
32.863
32.843
32.826
32.81
32.795
32.78
32.766
32.752
32.738
32.724
32.712
32.7
32.689
32.68
32.672
32.668
32.669
32.676
32.692
32.72
32.762
32.821
32.901
33.004
33.134
33.296
33.492
33.726
33.997
34.307
34.655
35.039
35.453
35.893
36.352
36.824
37.301
37.774
38.236
38.68
39.097
39.482
39.831
40.141
40.409
40.634
40.815
40.953
41.049
41.104
41.122
41.105
41.057
40.983
40.886
40.769
40.635
40.489
40.334
40.173
40.007
39.838
39.669
39.499
39.331
39.165
39.0
38.839
38.682
38.529
38.38
38.235
38.094
37.957
37.822
37.689
37.556
37.424
37.293
37.161
37.029
36.895
36.76
36.624
36.487
36.35
36.214
36.079
35.948
35.821
35.699
35.582
35.471
35.368
35.273
35.186
35.109
35.041
34.983
34.935
34.895
34.864
34.839
34.821
34.809
34.803
34.801
34.803
34.809
34.818
34.829
34.842
34.857
34.873
34.889
34.904
34.919
34.931
34.94
34.946
34.947
34.942
34.93
