Trial 3:3back
34.653
34.654
34.658
34.668
34.684
34.71
34.746
34.794
34.855
34.929
35.018
35.12
35.234
35.36
35.494
35.633
35.775
35.916
36.054
36.186
36.308
36.419
36.516
36.597
36.662
36.71
36.741
36.756
36.754
36.737
36.706
36.663
36.61
36.548
36.479
36.405
36.329
36.251
36.174
36.097
36.022
35.951
35.885
35.824
35.767
35.716
35.669
35.627
35.588
35.553
35.52
35.49
35.462
35.436
35.41
35.385
35.361
35.336
35.31
35.284
35.257
35.23
35.201
35.172
35.144
35.116
35.09
35.065
35.043
35.024
35.009
34.998
34.991
34.989
34.993
35.001
35.013
35.03
35.05
35.073
35.098
35.126
35.154
35.183
35.212
35.241
35.269
35.296
35.322
35.347
35.368
35.388
35.404
35.418
35.429
35.438
35.443
35.445
35.444
35.439
35.43
35.419
35.405
35.388
35.37
35.349
35.327
35.304
35.279
35.254
35.229
35.203
35.177
35.151
35.125
35.1
35.075
35.052
35.031
35.012
34.994
34.978
34.962
34.948
34.934
34.921
34.909
34.897
34.885
34.874
34.862
34.851
34.84
34.828
34.817
34.806
34.795
34.785
34.776
34.768
34.76
34.754
34.748
34.744
34.74
34.737
34.734
34.732
34.73
34.728
34.726
34.724
34.722
34.72
34.717
34.714
34.71
34.706
34.701
34.696
34.691
34.686
34.681
34.676
34.671
34.666
34.662
34.657
34.653
34.648
34.643
34.639
34.634
34.63
34.626
34.623
34.621
34.62
34.62
34.623
34.63
34.643
34.664
34.694
34.735
34.789
34.858
34.94
35.037
35.146
35.267
35.398
35.534
35.674
35.815
35.953
36.086
36.211
36.326
36.427
36.513
36.584
36.638
36.676
36.698
36.705
36.697
36.676
36.643
36.599
36.546
36.487
36.421
36.351
36.279
36.205
36.13
36.056
35.982
35.912
35.846
35.783
35.725
35.671
35.62
35.573
35.529
35.489
35.451
35.415
35.382
35.351
35.321
35.292
35.264
35.236
35.208
35.18
35.152
35.123
35.095
35.067
35.039
35.014
34.99
34.969
34.951
34.938
34.93
34.927
34.931
34.94
34.955
34.977
35.003
35.034
35.069
35.107
35.146
35.186
35.226
35.265
35.302
35.336
35.367
35.394
35.418
35.438
35.454
35.466
35.474
35.479
35.48
35.477
35.472
35.463
35.451
35.436
35.418
35.397
35.374
35.35
35.325
35.299
35.272
35.245
35.219
35.193
35.168
35.144
35.121
35.1
35.079
35.06
35.041
35.023
35.006
34.99
34.974
34.958
34.944
34.93
34.917
34.904
34.892
34.881
34.87
34.86
34.85
34.839
34.829
34.819
34.809
34.8
34.791
34.783
34.776
34.77
34.765
34.761
34.757
34.754
34.751
34.749
34.746
34.743
34.74
34.737
34.733
34.73
34.726
34.721
34.717
34.713
34.709
34.705
34.702
34.699
34.696
34.694
34.693
34.69
34.688
34.684
34.681
34.677
34.672
34.667
34.663
34.661
34.66
34.661
34.667
34.677
34.694
34.719
34.754
34.8
34.857
34.927
35.009
35.103
35.208
35.323
35.447
35.577
35.71
35.844
35.976
36.103
36.222
36.332
36.43
36.515
36.587
36.643
36.684
36.711
36.722
36.719
36.703
36.673
36.633
36.582
36.524
36.46
36.392
36.322
36.251
36.182
36.113
36.047
35.983
35.921
35.863
35.808
35.757
35.71
35.668
35.63
35.595
35.565
35.537
35.513
35.491
35.47
35.451
35.431
35.409
35.386
35.362
35.335
35.307
35.277
35.246
35.215
35.185
35.157
35.132
35.111
35.094
35.084
35.078
35.078
35.083
35.092
35.106
35.124
35.145
35.169
35.194
35.221
35.248
35.276
35.303
35.33
35.355
35.38
35.403
35.424
35.443
35.46
35.474
35.485
35.493
35.497
35.498
35.495
35.488
35.477
35.463
35.446
35.427
35.406
35.385
35.363
35.342
35.32
35.298
35.277
35.255
35.234
35.213
35.192
35.173
35.154
35.137
35.12
35.104
35.088
35.073
35.059
35.045
35.031
35.018
35.005
34.992
34.98
34.968
34.956
34.944
34.933
34.922
34.912
34.903
34.894
34.886
34.879
34.871
34.864
34.856
34.848
34.839
34.831
34.822
34.814
34.806
34.799
34.793
34.788
34.783
34.779
34.777
34.774
34.773
34.771
34.77
34.769
34.766
34.762
34.756
34.749
34.74
34.731
34.722
34.713
34.704
34.696
34.689
34.682
34.675
34.67
34.665
34.66
34.655
34.65
34.645
34.642
34.64
34.641
34.647
34.661
34.684
34.718
34.765
34.825
34.9
34.99
35.093
35.209
35.336
35.472
35.614
35.758
35.902
36.042
36.176
36.301
36.414
36.513
36.596
36.663
36.713
36.746
36.763
36.764
36.751
36.725
36.688
36.641
36.585
36.523
36.455
36.384
36.311
36.238
36.165
36.095
36.028
35.965
35.907
35.853
35.804
35.76
35.72
35.684
35.653
35.624
35.598
35.574
35.551
35.53
35.51
35.49
35.471
35.451
35.431
35.41
35.389
35.366
35.342
35.318
35.293
35.268
35.245
35.223
35.204
35.189
35.178
35.171
35.17
35.173
35.181
35.193
35.209
35.228
35.251
35.275
35.302
35.328
35.355
35.382
35.408
35.434
35.458
35.48
35.502
35.522
35.539
35.554
35.566
35.574
35.579
35.58
35.578
35.571
35.561
35.548
35.533
35.517
35.499
35.481
35.462
35.442
35.422
35.402
35.382
35.362
35.343
35.323
35.304
35.285
35.267
35.249
35.232
35.215
35.2
35.185
35.171
35.158
35.144
35.131
35.117
35.104
35.091
35.078
35.066
35.054
35.044
35.033
35.023
35.014
35.004
34.994
34.984
34.974
34.964
34.954
34.944
34.934
34.924
34.913
34.903
34.893
34.885
34.877
34.87
34.865
34.861
34.858
34.855
34.854
34.853
34.852
34.851
34.85
34.848
34.846
34.842
34.838
34.832
34.825
34.818
34.81
34.803
34.796
34.789
34.783
34.777
34.772
34.767
34.762
34.758
34.756
34.756
34.759
34.768
34.784
34.809
34.844
34.891
34.95
35.023
35.108
35.206
35.316
35.436
35.564
35.697
35.833
35.967
36.097
36.22
36.334
36.437
36.526
36.601
36.661
36.705
36.734
36.747
36.746
36.732
36.706
36.669
36.623
36.569
36.509
36.444
36.376
36.305
36.235
36.165
36.097
36.031
35.969
35.909
35.853
35.801
35.753
35.71
35.672
35.637
35.606
35.578
35.553
35.529
35.507
35.485
35.464
35.443
35.422
35.4
35.377
35.353
35.328
35.303
35.277
35.252
35.228
35.206
35.187
35.171
35.16
35.154
35.153
35.156
35.164
35.176
35.192
35.211
35.233
35.257
35.282
35.308
35.335
35.362
35.389
35.414
35.439
35.462
35.484
35.503
35.52
35.534
35.545
35.554
35.56
35.562
35.561
35.557
35.548
35.536
35.521
35.503
35.483
35.462
35.44
35.418
35.396
35.374
35.352
35.33
35.309
35.288
35.266
35.245
35.223
35.2
35.177
35.155
35.133
35.112
35.091
35.071
35.052
35.035
35.019
35.005
34.992
34.98
34.968
34.958
34.948
34.938
34.929
34.92
34.911
34.902
34.894
34.886
34.878
34.871
34.864
34.858
34.852
34.847
34.841
34.835
34.829
34.822
34.816
34.809
34.803
34.797
34.791
34.785
34.779
34.773
34.767
34.761
34.756
34.75
34.745
34.74
34.736
34.731
34.727
34.724
34.721
34.719
34.717
34.715
34.714
34.711
34.709
34.706
34.703
34.699
34.694
34.691
34.689
34.692
34.701
34.719
34.746
34.786
34.84
34.908
34.991
35.087
35.197
35.317
35.447
35.582
35.72
35.857
35.991
36.119
36.238
36.345
36.438
36.518
36.581
36.628
36.659
36.673
36.673
36.66
36.635
36.599
36.553
36.5
36.441
36.377
36.31
36.241
36.173
36.105
36.039
35.975
35.914
35.856
35.802
35.752
35.705
35.662
35.623
35.586
35.552
35.519
35.489
35.459
35.431
35.403
35.376
35.35
35.323
35.297
35.27
35.243
35.216
35.19
35.164
35.14
35.118
35.098
35.081
35.067
35.057
35.051
35.05
35.053
35.062
35.076
35.093
35.115
35.14
35.167
35.197
35.228
35.259
35.29
35.32
35.348
35.373
35.397
35.419
35.438
35.456
35.471
35.484
35.494
35.501
35.506
35.508
35.506
35.502
35.495
35.484
35.471
35.455
35.437
35.417
35.397
35.376
35.355
35.335
35.316
35.298
35.281
35.264
35.247
35.231
35.213
35.195
35.177
35.159
35.14
35.121
35.103
35.086
35.071
35.056
35.044
35.034
35.025
35.018
35.013
35.008
35.004
34.999
34.995
34.99
34.986
34.981
34.977
34.972
34.967
34.961
34.954
34.947
34.938
34.929
34.918
34.906
34.894
34.881
34.868
34.856
34.844
34.833
34.823
34.814
34.807
34.801
34.795
34.791
34.788
34.785
34.783
34.781
34.78
34.779
34.777
34.774
34.771
34.768
34.764
34.76
34.755
34.75
34.746
34.742
34.741
34.742
34.747
34.758
34.776
34.804
34.844
34.897
34.963
35.044
35.139
35.246
35.364
35.49
35.62
35.753
35.884
36.012
36.134
36.246
36.346
36.433
36.506
36.564
36.607
36.635
36.648
36.647
36.633
36.607
36.571
36.525
36.472
36.412
36.348
36.282
36.214
36.147
36.081
36.017
35.956
35.899
35.846
35.797
35.751
35.71
35.672
35.637
35.606
35.578
35.552
35.528
35.504
35.481
35.457
35.433
35.408
35.382
35.357
35.331
35.305
35.279
35.253
35.228
35.203
35.18
35.16
35.142
35.127
35.116
35.108
35.105
35.106
35.112
35.123
35.137
35.155
35.176
35.199
35.223
35.248
35.275
35.301
35.328
35.355
35.381
35.406
35.43
35.452
35.471
35.487
35.5
35.51
35.516
35.518
35.517
35.511
35.502
35.489
35.473
35.454
35.433
35.41
35.387
35.362
35.336
35.311
35.286
35.262
35.24
35.219
35.199
35.181
35.163
35.146
35.13
35.113
35.097
35.081
35.065
35.05
35.034
35.019
35.004
34.989
34.975
34.961
34.947
34.934
34.921
34.909
34.897
34.886
34.876
34.867
34.859
34.853
34.848
34.844
34.841
34.84
34.838
34.837
34.835
34.833
34.831
34.829
34.826
34.823
34.819
34.815
34.811
34.806
34.801
34.796
34.79
34.784
34.777
34.77
34.761
34.753
34.744
34.734
34.726
34.718
34.711
34.706
34.702
34.7
34.7
34.701
34.704
34.707
34.71
34.714
34.718
34.723
34.731
34.744
34.764
34.794
34.835
34.888
34.954
35.033
35.125
35.23
35.346
35.47
35.6
35.734
35.868
35.999
36.124
36.241
36.349
36.444
36.526
36.594
36.648
36.686
36.71
36.72
36.716
36.699
36.672
36.635
36.59
36.537
36.479
36.417
36.352
36.285
36.218
36.153
36.091
36.032
35.976
35.924
35.877
35.834
35.796
35.761
35.731
35.704
35.68
35.659
35.64
35.622
35.604
35.587
35.57
35.552
35.533
35.514
35.493
35.471
35.448
35.424
35.4
35.376
35.352
35.33
35.31
35.292
35.278
35.268
35.262
35.26
35.263
35.27
35.282
35.297
35.315
35.335
35.357
35.38
35.404
35.427
35.45
35.472
35.495
35.517
35.537
35.556
35.573
35.587
35.599
35.609
35.615
35.618
35.618
35.615
35.609
35.599
35.586
35.57
35.551
35.531
35.509
35.487
35.464
35.442
35.419
35.397
35.376
35.355
35.334
35.315
35.296
35.276
35.257
35.238
35.22
35.202
35.185
35.168
35.152
35.138
35.124
35.112
35.102
35.092
35.083
35.074
35.066
35.058
35.05
35.041
35.032
35.023
35.014
35.006
34.997
34.988
34.98
34.971
34.963
34.955
34.947
34.94
34.933
34.926
34.921
34.916
34.912
34.91
34.908
34.906
34.905
34.904
34.903
34.9
34.896
34.89
34.883
34.875
34.867
34.858
34.849
34.839
34.83
34.821
34.812
34.804
34.796
34.789
34.783
34.777
34.773
34.77
34.769
34.773
34.781
34.797
34.822
34.858
34.906
34.967
35.041
35.129
35.229
35.341
35.463
35.591
35.724
35.858
35.99
36.117
36.237
36.345
36.441
36.524
36.592
36.645
36.682
36.705
36.713
36.708
36.69
36.661
36.623
36.577
36.525
36.468
36.407
36.344
36.28
36.216
36.153
36.092
36.034
35.979
35.927
35.879
35.833
35.792
35.753
35.719
35.687
35.659
35.633
35.61
35.589
35.568
35.549
35.529
35.508
35.487
35.464
35.44
35.415
35.388
35.362
35.335
35.31
35.286
35.266
35.249
35.236
35.227
35.222
35.221
35.224
35.231
35.242
35.257
35.274
35.294
35.317
35.342
35.367
35.394
35.421
35.448
35.473
35.498
35.52
35.54
35.557
35.572
35.583
35.591
35.595
35.595
35.592
35.585
35.574
35.561
35.544
35.525
35.505
35.482
35.458
35.433
35.407
35.381
35.354
35.328
35.303
35.278
35.254
35.233
35.212
35.194
35.176
35.16
35.144
35.129
35.114
35.099
35.084
35.068
35.052
35.035
35.018
35.002
34.985
34.97
34.956
34.943
34.931
34.921
34.911
34.902
34.894
34.886
34.878
34.87
34.864
34.858
34.853
34.849
34.847
34.845
34.845
34.845
34.846
34.847
34.848
34.848
34.847
34.844
34.84
34.835
34.83
34.824
34.818
34.812
34.806
34.8
34.795
34.789
34.784
34.778
34.772
34.767
34.762
34.756
34.751
34.746
34.74
34.734
34.728
34.722
34.717
34.712
34.707
34.703
34.699
34.697
34.696
34.698
34.704
34.717
34.737
34.767
34.809
34.864
34.933
35.017
35.116
35.228
35.353
35.486
35.625
35.766
35.906
36.04
36.168
36.285
36.389
36.48
36.554
36.613
36.655
36.68
36.69
36.686
36.669
36.64
36.601
36.554
36.499
36.439
36.373
36.305
36.236
36.165
36.096
36.028
35.963
35.902
35.845
35.794
35.747
35.705
35.668
35.635
35.605
35.579
35.555
35.532
35.51
35.488
35.465
35.442
35.418
35.392
35.366
35.337
35.308
35.279
35.25
35.222
35.196
35.172
35.152
35.134
35.121
35.112
35.106
35.104
35.106
35.112
35.121
35.135
35.152
35.173
35.197
35.224
35.253
35.283
35.315
35.347
35.378
35.408
35.437
35.463
35.485
35.504
35.52
35.532
35.54
35.545
35.547
35.545
35.54
35.532
35.52
35.505
35.488
35.469
35.448
35.427
35.406
35.385
35.364
35.345
35.326
35.308
35.291
35.274
35.257
35.24
35.223
35.206
35.188
35.171
35.153
35.135
35.118
35.101
35.085
35.069
35.054
35.038
35.024
35.009
34.996
34.983
34.97
34.957
34.944
34.932
34.921
34.91
34.901
34.893
34.886
34.88
34.874
34.869
34.864
34.858
34.852
34.845
34.838
34.831
34.825
34.819
34.813
34.808
34.802
34.796
34.79
34.785
34.78
34.776
34.773
34.769
34.766
34.762
34.758
34.753
34.748
34.741
34.734
34.725
34.716
34.706
34.697
34.688
34.68
34.673
34.668
34.664
34.663
34.665
34.672
34.685
34.706
34.735
34.775
34.827
34.894
34.974
35.067
35.173
35.29
35.417
35.549
35.685
35.821
35.954
36.08
36.197
36.303
36.395
36.473
36.536
36.582
36.612
36.626
36.625
36.611
36.584
36.547
36.501
36.449
36.391
36.329
36.264
36.198
36.132
36.067
36.005
35.946
35.891
35.841
35.794
35.75
35.711
35.675
35.641
35.611
35.582
35.555
35.53
35.506
35.482
35.457
35.433
35.408
35.382
35.356
35.328
35.3
35.271
35.242
35.213
35.184
35.158
35.133
35.112
35.094
35.081
35.072
35.069
35.07
35.078
35.09
35.106
35.127
35.15
35.176
35.202
35.23
35.257
35.285
35.312
35.338
35.363
35.387
35.409
35.429
35.446
35.461
35.473
35.483
35.488
35.49
35.489
35.484
35.475
35.462
35.447
35.429
35.41
35.389
35.368
35.346
35.324
35.303
35.281
35.259
35.238
35.217
35.195
35.173
35.152
35.129
35.107
35.086
35.065
35.046
35.028
35.012
34.997
34.982
34.969
34.956
34.943
34.93
34.918
34.905
34.893
34.881
34.869
34.858
34.848
34.838
34.828
34.819
34.811
34.803
34.796
34.79
34.784
34.779
34.775
34.77
34.766
34.762
34.758
34.754
34.75
34.746
34.742
34.739
34.736
34.734
34.733
34.734
34.734
34.735
34.735
34.734
34.733
34.731
34.729
34.726
34.724
34.721
34.717
34.712
34.707
34.701
34.694
34.685
34.676
34.665
34.654
34.643
34.633
34.624
34.617
34.613
34.612
34.616
34.624
34.639
34.662
34.693
34.735
34.789
34.856
34.937
35.03
35.136
35.254
35.382
35.517
35.656
35.797
35.936
36.071
36.199
36.316
36.42
36.509
36.581
36.638
36.678
36.702
36.711
36.706
36.687
36.657
36.616
36.567
36.511
36.449
36.384
36.316
36.247
36.178
36.11
36.044
35.982
35.923
35.869
35.819
35.774
35.733
35.698
35.667
35.641
35.617
35.597
35.579
35.562
35.545
35.528
35.51
35.491
35.471
35.45
35.427
35.404
35.379
35.355
35.331
35.307
35.284
35.263
35.245
35.229
35.217
35.208
35.203
35.202
35.206
35.213
35.224
35.239
35.257
35.278
35.301
35.325
35.35
35.374
35.399
35.422
35.444
35.465
35.483
35.499
35.512
35.523
35.531
35.537
35.54
35.542
35.542
35.54
35.537
35.53
35.521
35.508
35.493
35.475
35.454
35.433
35.41
35.386
35.363
35.339
35.316
35.293
35.27
35.247
35.225
35.203
35.182
35.161
35.14
35.12
35.102
35.084
35.067
35.05
35.036
35.022
35.011
35.001
34.992
34.984
34.977
34.971
34.964
34.957
34.95
34.942
34.933
34.925
34.915
34.906
34.897
34.888
34.88
34.872
34.865
34.859
34.853
34.846
34.84
34.832
34.825
34.818
34.811
34.804
34.796
34.789
34.783
34.777
34.772
34.767
34.762
34.758
34.754
34.751
34.749
34.746
34.745
34.744
34.743
34.742
34.741
34.74
34.737
34.733
34.728
34.722
34.714
34.705
34.694
34.684
34.674
34.665
34.656
34.65
34.647
34.647
34.653
34.666
34.687
34.719
34.763
34.819
34.889
34.972
35.067
35.175
35.293
35.419
35.552
35.687
35.823
35.955
36.081
36.198
36.304
36.397
36.475
36.537
36.584
36.615
36.629
36.628
36.614
36.588
36.551
36.504
36.451
36.391
36.328
36.263
36.196
36.128
36.062
35.998
35.936
35.877
35.822
35.77
35.721
35.675
35.633
35.595
35.561
35.531
35.504
35.479
35.458
35.438
35.419
35.401
35.382
35.362
35.34
35.316
35.289
35.259
35.228
35.196
35.166
35.137
35.11
35.088
35.07
35.056
35.048
35.044
35.044
35.049
35.057
35.069
35.084
35.101
35.121
35.143
35.167
35.192
35.219
35.246
35.274
35.3
35.325
35.349
35.37
35.389
35.404
35.416
35.425
35.43
35.432
35.43
35.425
35.417
35.407
35.395
35.381
35.364
35.347
35.328
35.308
35.288
35.267
35.245
35.224
35.202
35.179
35.157
35.135
35.113
35.092
35.072
35.053
35.035
35.017
34.999
34.983
34.966
34.951
34.937
34.924
34.911
34.899
34.889
34.88
34.871
34.863
34.856
34.848
34.84
34.832
34.823
34.814
34.804
34.795
34.786
34.777
34.769
34.762
34.755
34.748
34.742
34.736
34.73
34.725
34.719
34.714
34.709
34.705
34.703
34.701
34.701
34.703
34.705
34.709
34.712
34.715
34.718
34.72
34.721
34.721
34.718
34.714
34.707
34.699
34.689
34.679
34.668
34.656
34.643
34.63
34.617
34.605
34.594
34.583
34.573
34.565
34.558
34.554
34.552
34.552
34.556
34.564
34.579
34.6
34.63
34.671
34.722
34.785
34.861
34.949
35.049
35.16
35.281
35.408
35.541
35.675
35.808
35.936
36.059
36.171
36.273
36.36
36.432
36.489
36.528
36.551
36.559
36.552
36.533
36.502
36.461
36.411
36.354
36.291
36.225
36.156
36.086
36.016
35.947
35.88
35.814
35.752
35.693
35.638
35.588
35.541
35.5
35.462
35.429
35.4
35.375
35.353
35.334
35.318
35.302
35.287
35.271
35.253
35.232
35.209
35.184
35.158
35.13
35.103
35.075
35.049
35.025
35.004
34.987
34.974
34.967
34.964
34.967
34.975
34.987
35.004
35.025
35.049
35.076
35.106
35.137
35.169
35.202
35.234
35.266
35.295
35.321
35.344
35.365
35.381
35.394
35.404
35.41
35.413
35.414
35.411
35.405
35.397
35.385
35.37
35.353
35.334
35.313
35.289
35.265
35.239
35.214
35.189
35.164
35.141
35.118
35.097
35.077
35.057
35.039
35.021
35.003
34.985
34.968
34.952
34.937
34.923
34.911
34.899
34.887
34.876
34.864
34.851
34.838
34.824
34.809
34.795
34.782
34.77
34.76
34.75
34.743
34.737
34.733
34.73
34.73
34.73
34.731
34.733
34.735
34.736
34.737
34.737
34.736
34.735
34.732
34.728
34.723
34.718
34.713
34.707
34.7
34.695
34.689
34.684
34.679
34.675
34.67
34.666
34.661
34.657
34.653
34.648
34.644
34.641
34.638
34.634
34.631
34.626
34.621
34.616
34.611
34.607
34.604
34.605
34.61
34.621
34.641
34.67
34.711
34.765
34.832
34.914
35.008
35.114
35.231
35.355
35.483
35.614
35.743
35.87
35.989
36.099
36.197
36.283
36.355
36.413
36.456
36.485
36.5
36.501
36.488
36.463
36.427
36.381
36.327
36.267
36.202
36.134
36.065
35.996
35.928
35.862
35.8
35.741
35.686
35.635
35.587
35.543
35.502
35.464
35.429
35.397
35.367
35.339
35.313
35.286
35.26
35.233
35.206
35.177
35.147
35.115
35.082
35.048
35.015
34.983
34.952
34.926
34.903
34.886
34.873
34.867
34.867
