Trial 3:3back
35.253
35.409
35.563
35.713
35.857
35.991
36.116
36.228
36.33
36.42
36.499
36.567
36.626
36.675
36.716
36.75
36.778
36.801
36.819
36.833
36.844
36.851
36.856
36.858
36.857
36.854
36.847
36.838
36.824
36.808
36.789
36.767
36.744
36.719
36.693
36.665
36.637
36.607
36.576
36.545
36.513
36.48
36.446
36.412
36.379
36.347
36.316
36.286
36.257
36.228
36.198
36.168
36.137
36.104
36.071
36.037
36.001
35.965
35.93
35.897
35.866
35.837
35.81
35.784
35.76
35.739
35.72
35.703
35.689
35.677
35.667
35.658
35.651
35.644
35.638
35.632
35.626
35.621
35.615
35.609
35.603
35.597
35.59
35.582
35.572
35.56
35.544
35.526
35.505
35.48
35.453
35.422
35.389
35.354
35.318
35.282
35.245
35.208
35.17
35.132
35.093
35.054
35.014
34.975
34.936
34.898
34.861
34.824
34.789
34.755
34.721
34.687
34.651
34.615
34.579
34.543
34.509
34.476
34.445
34.415
34.388
34.363
34.34
34.318
34.298
34.277
34.256
34.234
34.213
34.191
34.17
34.15
34.13
34.111
34.093
34.076
34.06
34.045
34.029
34.011
33.992
33.972
33.951
33.93
33.908
33.884
33.86
33.836
33.813
33.79
33.77
33.751
33.735
33.721
33.709
33.7
33.693
33.69
33.691
33.696
33.708
33.727
33.754
33.791
33.836
33.891
33.954
34.026
34.108
34.198
34.296
34.401
34.513
34.63
34.752
34.877
35.004
35.13
35.253
35.374
35.489
35.6
35.704
35.801
35.892
35.975
36.051
36.119
36.18
36.234
36.279
36.317
36.345
36.365
36.377
36.381
36.379
36.37
36.358
36.341
36.322
36.301
36.279
36.255
36.229
36.202
36.173
36.143
36.113
36.082
36.052
36.022
35.992
35.962
35.931
35.898
35.862
35.824
35.784
35.741
35.698
35.652
35.606
35.559
35.512
35.466
35.421
35.376
35.333
35.292
35.254
35.219
35.188
35.161
35.139
35.12
35.106
35.096
35.09
35.087
35.086
35.088
35.09
35.094
35.098
35.102
35.104
35.106
35.105
35.102
35.096
35.087
35.076
35.063
35.05
35.036
35.022
35.009
34.995
34.982
34.969
34.956
34.943
34.928
34.913
34.895
34.876
34.855
34.833
34.811
34.789
34.768
34.747
34.727
34.706
34.683
34.659
34.633
34.604
34.574
34.542
34.508
34.474
34.44
34.406
34.373
34.339
34.305
34.271
34.238
34.205
34.173
34.143
34.115
34.09
34.068
34.051
34.036
34.024
34.014
34.004
33.994
33.982
33.97
33.956
33.94
33.923
33.906
33.887
33.869
33.851
33.833
33.815
33.796
33.777
33.758
33.74
33.721
33.703
33.684
33.666
33.65
33.637
33.627
33.619
33.613
33.609
33.605
33.601
33.598
33.595
33.594
33.594
33.596
33.602
33.611
33.627
33.65
33.681
33.721
33.769
33.827
33.895
33.972
34.058
34.153
34.255
34.364
34.479
34.6
34.725
34.853
34.985
35.116
35.246
35.372
35.494
35.609
35.718
35.819
35.912
35.997
36.074
36.142
36.202
36.255
36.3
36.336
36.364
36.385
36.398
36.404
36.405
36.402
36.395
36.385
36.372
36.358
36.342
36.326
36.31
36.292
36.275
36.257
36.239
36.221
36.203
36.186
36.168
36.15
36.131
36.111
36.09
36.068
36.045
36.019
35.991
35.96
35.927
35.892
35.855
35.816
35.776
35.734
35.692
35.652
35.613
35.578
35.545
35.514
35.485
35.459
35.436
35.415
35.396
35.38
35.365
35.352
35.342
35.335
35.332
35.332
35.335
35.341
35.348
35.356
35.363
35.368
35.372
35.373
35.371
35.367
35.36
35.35
35.339
35.324
35.307
35.286
35.263
35.238
35.211
35.182
35.152
35.12
35.088
35.055
35.022
34.99
34.96
34.931
34.905
34.88
34.856
34.833
34.811
34.788
34.765
34.741
34.715
34.688
34.66
34.631
34.601
34.57
34.538
34.504
34.468
34.431
34.394
34.358
34.322
34.289
34.258
34.229
34.204
34.183
34.164
34.148
34.132
34.117
34.101
34.084
34.068
34.051
34.035
34.02
34.006
33.994
33.983
33.974
33.966
33.961
33.958
33.956
33.955
33.955
33.955
33.954
33.953
33.95
33.947
33.944
33.941
33.939
33.937
33.934
33.931
33.926
33.922
33.918
33.914
33.913
33.915
33.92
33.931
33.947
33.969
33.999
34.035
34.08
34.132
34.193
34.262
34.341
34.428
34.523
34.625
34.733
34.845
34.961
35.079
35.197
35.314
35.429
35.541
35.648
35.75
35.848
35.941
36.029
36.111
36.187
36.256
36.319
36.374
36.423
36.464
36.499
36.527
36.55
36.566
36.576
36.582
36.583
36.58
36.572
36.562
36.548
36.533
36.518
36.502
36.486
36.469
36.45
36.43
36.41
36.388
36.366
36.344
36.321
36.298
36.277
36.258
36.24
36.222
36.205
36.188
36.171
36.153
36.134
36.114
36.094
36.072
36.049
36.026
36.001
35.976
35.95
35.925
35.899
35.874
35.85
35.828
35.811
35.798
35.79
35.785
35.785
35.787
35.792
35.799
35.806
35.814
35.821
35.828
35.833
35.838
35.842
35.845
35.847
35.846
35.843
35.837
35.828
35.817
35.805
35.79
35.774
35.757
35.737
35.717
35.696
35.674
35.651
35.628
35.605
35.582
35.562
35.542
35.524
35.507
35.49
35.474
35.458
35.443
35.428
35.411
35.394
35.375
35.354
35.333
35.311
35.289
35.266
35.244
35.222
35.2
35.179
35.158
35.139
35.122
35.106
35.092
35.08
35.068
35.056
35.043
35.028
35.009
34.984
34.954
34.917
34.876
34.831
34.783
34.733
34.683
34.633
34.584
34.537
34.493
34.451
34.411
34.375
34.34
34.306
34.275
34.245
34.218
34.193
34.17
34.149
34.129
34.109
34.09
34.071
34.051
34.032
34.012
33.993
33.974
33.957
33.943
33.933
33.927
33.927
33.934
33.949
33.973
34.007
34.051
34.105
34.167
34.239
34.318
34.405
34.499
34.599
34.704
34.813
34.925
35.038
35.152
35.265
35.375
35.484
35.588
35.689
35.785
35.876
35.962
36.043
36.117
36.185
36.247
36.304
36.356
36.403
36.447
36.486
36.521
36.553
36.58
36.605
36.626
36.642
36.653
36.659
36.66
36.656
36.647
36.634
36.618
36.6
36.58
36.56
36.54
36.52
36.501
36.483
36.467
36.451
36.435
36.42
36.404
36.388
36.371
36.352
36.33
36.305
36.278
36.249
36.219
36.187
36.155
36.122
36.09
36.059
36.029
36.0
35.971
35.941
35.912
35.884
35.857
35.833
35.811
35.792
35.777
35.765
35.757
35.752
35.75
35.75
35.751
35.753
35.755
35.757
35.757
35.755
35.752
35.746
35.737
35.725
35.711
35.694
35.675
35.654
35.631
35.605
35.578
35.548
35.515
35.48
35.441
35.4
35.357
35.312
35.266
35.22
35.173
35.129
35.085
35.044
35.004
34.967
34.933
34.902
34.874
34.848
34.824
34.802
34.782
34.763
34.745
34.726
34.706
34.685
34.661
34.634
34.604
34.572
34.538
34.501
34.462
34.421
34.381
34.342
34.304
34.268
34.233
34.2
34.168
34.137
34.107
34.078
34.05
34.022
33.996
33.971
33.949
33.929
33.913
33.899
33.887
33.877
33.869
33.861
33.856
33.851
33.847
33.845
33.843
33.843
33.846
33.851
33.859
33.869
33.882
33.899
33.921
33.947
33.98
34.02
34.066
34.121
34.184
34.256
34.336
34.425
34.52
34.621
34.726
34.835
34.946
35.059
35.171
35.282
35.392
35.498
35.601
35.698
35.789
35.874
35.949
36.016
36.073
36.121
36.16
36.19
36.212
36.227
36.236
36.239
36.237
36.232
36.225
36.216
36.207
36.197
36.185
36.172
36.156
36.138
36.118
36.095
36.07
36.043
36.016
35.988
35.961
35.935
35.911
35.887
35.863
35.838
35.813
35.786
35.757
35.726
35.692
35.654
35.615
35.573
35.529
35.484
35.438
35.392
35.347
35.304
35.263
35.223
35.184
35.147
35.112
35.079
35.049
35.022
34.999
34.979
34.961
34.946
34.934
34.923
34.914
34.908
34.904
34.903
34.905
34.91
34.918
34.928
34.94
34.953
34.965
34.977
34.987
34.994
35.0
35.003
35.004
35.004
35.003
35.002
35.003
35.004
35.007
35.01
35.014
35.019
35.021
35.022
35.021
35.017
35.01
35.0
34.986
34.969
34.949
34.928
34.904
34.878
34.849
34.819
34.787
34.754
34.721
34.69
34.66
34.632
34.606
34.583
34.562
34.545
34.53
34.516
34.503
34.49
34.474
34.457
34.438
34.417
34.394
34.369
34.342
34.313
34.285
34.256
34.227
34.199
34.17
34.14
34.111
34.081
34.053
34.027
34.003
33.982
33.966
33.954
33.946
33.942
33.943
33.949
33.96
33.976
33.998
34.027
34.064
34.109
34.162
34.223
34.292
34.367
34.449
34.536
34.627
34.72
34.815
34.911
35.007
35.104
35.201
35.298
35.393
35.485
35.575
35.66
35.74
35.814
35.883
35.946
36.003
36.055
36.103
36.15
36.196
36.239
36.28
36.316
36.346
36.369
36.385
36.393
36.394
36.389
36.377
36.36
36.339
36.315
36.289
36.26
36.229
36.196
36.163
36.13
36.099
36.07
36.044
36.02
35.998
35.978
35.957
35.936
35.915
35.893
35.869
35.841
35.812
35.78
35.747
35.714
35.68
35.647
35.613
35.58
35.547
35.517
35.488
35.462
35.439
35.418
35.4
35.387
35.377
35.37
35.367
35.365
35.364
35.365
35.367
35.369
35.372
35.375
35.379
35.382
35.386
35.389
35.393
35.394
35.393
35.389
35.384
35.376
35.365
35.352
35.335
35.317
35.297
35.276
35.254
35.23
35.206
35.182
35.157
35.132
35.108
35.085
35.063
35.043
35.022
34.999
34.974
34.947
34.92
34.892
34.864
34.837
34.811
34.785
34.76
34.736
34.714
34.693
34.673
34.655
34.637
34.621
34.604
34.588
34.572
34.557
34.541
34.524
34.507
34.489
34.471
34.453
34.434
34.415
34.396
34.376
34.356
34.337
34.319
34.302
34.285
34.269
34.253
34.238
34.225
34.212
34.201
34.191
34.182
34.174
34.167
34.162
34.159
34.159
34.163
34.172
34.187
34.21
34.242
34.283
34.332
34.388
34.452
34.522
34.601
34.686
34.778
34.876
34.978
35.082
35.186
35.29
35.392
35.49
35.586
35.676
35.762
35.843
35.918
35.988
36.052
36.11
36.164
36.215
36.264
36.31
36.354
36.394
36.427
36.454
36.473
36.485
36.489
36.487
36.478
36.464
36.444
36.421
36.395
36.367
36.34
36.313
36.287
36.264
36.244
36.226
36.211
36.198
36.187
36.176
36.166
36.156
36.145
36.133
36.119
36.102
36.081
36.055
36.024
35.989
35.95
35.908
35.865
35.821
35.776
35.732
35.69
35.65
35.612
35.576
35.544
35.515
35.488
35.465
35.445
35.427
35.411
35.397
35.385
35.376
35.367
35.359
35.352
35.345
35.337
35.327
35.317
35.306
35.295
35.283
35.273
35.263
35.252
35.242
35.232
35.222
35.211
35.199
35.186
35.171
35.155
35.138
35.12
35.102
35.084
35.064
35.041
35.016
34.988
34.958
34.927
34.894
34.86
34.824
34.788
34.752
34.717
34.683
34.649
34.615
34.581
34.547
34.513
34.48
34.448
34.416
34.384
34.353
34.322
34.291
34.262
34.232
34.204
34.176
34.148
34.119
34.091
34.063
34.036
34.01
33.983
33.957
33.932
33.908
33.886
33.866
33.849
33.833
33.818
33.805
33.793
33.781
33.769
33.757
33.745
33.733
33.721
33.71
33.699
33.689
33.68
33.673
33.667
33.663
33.662
33.664
33.671
33.683
33.701
33.725
33.757
33.797
33.846
33.903
33.968
34.041
34.12
34.205
34.296
34.391
34.489
34.589
34.691
34.793
34.893
34.992
35.087
35.176
35.259
35.334
35.401
35.46
35.509
35.549
35.58
35.605
35.623
35.638
35.649
35.658
35.665
35.671
35.676
35.681
35.686
35.692
35.697
35.702
35.705
35.708
35.71
35.71
35.708
35.703
35.696
35.686
35.673
35.658
35.639
35.619
35.596
35.572
35.547
35.521
35.495
35.47
35.445
35.42
35.396
35.372
35.346
35.321
35.295
35.27
35.246
35.222
35.199
35.177
35.155
35.135
35.116
35.099
35.086
35.075
35.067
35.061
35.057
35.056
35.057
35.059
35.061
35.062
35.062
35.061
35.06
35.058
35.057
35.055
35.052
35.049
35.047
35.044
35.041
35.037
35.033
35.027
35.019
35.01
35.0
34.989
34.977
34.964
34.95
34.936
34.923
34.909
34.896
34.883
34.868
34.852
34.834
34.816
34.796
34.776
34.755
34.734
34.713
34.691
34.669
34.646
34.623
34.6
34.576
34.553
34.53
34.508
34.486
34.465
34.446
34.427
34.409
34.391
34.373
34.355
34.337
34.318
34.299
34.28
34.261
34.24
34.219
34.197
34.173
34.148
34.123
34.097
34.069
34.04
34.01
33.98
33.949
33.919
33.89
33.864
33.839
33.816
33.796
33.779
33.765
33.754
33.746
33.738
33.731
33.724
33.716
33.709
33.702
33.696
33.691
33.686
33.683
33.68
33.68
33.682
33.687
33.696
33.709
33.727
33.751
33.781
33.819
33.865
33.92
33.984
34.054
34.13
34.211
34.295
34.38
34.466
34.551
34.634
34.714
34.79
34.861
34.927
34.987
35.042
35.091
35.134
35.171
35.203
35.23
35.252
35.268
35.279
35.285
35.285
35.281
35.274
35.264
35.253
35.24
35.225
35.21
35.195
35.18
35.166
35.152
35.138
35.126
35.113
35.101
35.089
35.077
35.065
35.053
35.04
35.026
35.012
34.999
34.985
34.97
34.955
34.94
34.926
34.913
34.9
34.889
34.877
34.866
34.856
34.846
34.837
34.829
34.82
34.812
34.804
34.797
34.79
34.785
34.78
34.776
34.774
34.774
34.775
34.779
34.784
34.79
34.798
34.807
34.816
34.827
34.838
34.849
34.858
34.866
34.87
34.871
34.868
34.861
34.85
34.836
34.819
34.8
34.78
34.759
34.74
34.723
34.706
34.69
34.673
34.656
34.64
34.624
34.609
34.595
34.581
34.569
34.557
34.545
34.534
34.522
34.509
34.496
34.482
34.468
34.452
34.435
34.417
34.398
34.379
34.36
34.34
34.32
34.299
34.278
34.256
34.233
34.209
34.185
34.161
34.138
34.116
34.096
34.078
34.062
34.047
34.035
34.022
34.011
33.999
33.987
33.975
33.962
33.95
33.937
33.925
33.913
33.903
33.895
33.89
33.885
33.882
33.879
33.876
33.874
33.873
33.875
33.878
33.885
33.896
33.911
33.93
33.954
33.983
34.017
34.055
34.098
34.144
34.192
34.242
34.294
34.348
34.404
34.462
34.52
34.578
34.636
34.693
34.749
34.803
34.855
34.905
34.952
34.997
35.04
35.08
35.118
35.152
35.183
35.21
35.233
35.251
35.266
35.275
35.28
35.281
35.276
35.268
35.256
35.243
35.228
35.213
35.195
35.177
35.159
35.14
35.122
35.105
35.09
35.076
35.064
35.054
35.046
35.04
35.035
35.031
35.027
35.021
35.014
35.005
34.994
34.98
34.963
34.944
34.924
34.901
34.878
34.855
34.832
34.808
34.784
34.759
34.734
34.71
34.688
34.666
34.647
34.632
34.62
34.613
34.609
34.609
34.611
34.614
34.616
34.619
34.622
34.627
34.632
34.636
34.641
34.644
34.646
34.646
34.645
34.642
34.636
34.627
34.615
34.601
34.585
34.568
34.551
34.533
34.516
34.5
34.486
34.474
34.464
34.455
34.448
34.44
34.433
34.425
34.417
34.408
34.399
34.39
34.381
34.373
34.365
34.359
34.352
34.346
34.339
34.331
34.323
34.315
34.305
34.294
34.282
34.27
34.259
34.247
34.237
34.227
34.218
34.209
34.199
34.188
34.175
34.162
34.149
34.137
34.125
34.114
34.103
34.094
34.085
34.075
34.065
34.053
34.041
34.028
34.014
34.0
33.986
33.973
33.961
33.949
33.939
33.929
33.92
33.913
33.907
33.903
33.902
33.904
33.909
33.918
33.931
33.948
33.971
34.0
34.033
34.07
34.11
34.152
34.198
34.246
34.298
34.353
34.41
34.47
34.533
34.597
34.662
34.725
34.786
34.845
34.901
34.952
35.0
35.043
35.081
35.114
35.142
35.166
35.185
35.2
35.21
35.216
35.218
35.215
35.208
35.198
35.185
35.17
35.154
35.138
35.123
35.11
35.098
35.088
35.078
35.069
35.06
35.051
35.043
35.035
35.026
35.017
35.008
35.0
34.992
34.985
34.977
34.969
34.96
34.949
34.937
34.924
34.911
34.898
34.884
34.869
34.854
34.839
34.825
34.813
34.802
34.792
34.783
34.775
34.768
34.763
34.758
34.754
34.751
34.75
34.752
34.756
34.766
34.785
34.813
34.848
34.887
34.927
34.963
34.993
35.015
35.027
35.029
35.021
35.005
34.981
34.952
34.92
34.886
34.85
34.814
34.779
34.746
34.716
34.689
34.665
34.646
34.629
34.616
34.605
34.597
34.591
34.585
34.581
34.576
34.572
34.568
34.563
34.559
34.555
34.551
34.545
34.54
34.532
34.524
34.514
34.502
34.488
34.471
34.453
34.432
34.41
34.389
34.368
34.348
34.331
34.314
34.3
34.286
34.274
34.264
34.254
34.247
34.24
34.236
34.234
34.235
34.237
34.24
34.244
34.248
34.251
34.253
34.254
34.252
34.247
34.241
34.231
34.219
34.206
34.191
34.176
34.161
34.146
34.132
34.12
34.11
34.103
34.099
34.098
34.103
34.113
34.131
34.155
34.187
34.225
34.27
34.32
34.376
34.436
34.499
34.564
34.63
34.697
34.764
34.831
34.897
34.961
35.023
35.079
35.132
35.179
35.221
35.258
35.291
35.318
35.34
35.358
35.372
35.384
35.393
35.401
35.407
35.412
35.415
35.417
35.417
35.415
35.41
35.401
35.39
35.376
35.361
35.346
35.332
35.319
35.307
35.296
35.285
35.275
35.264
35.254
35.243
35.231
35.217
35.203
35.19
35.177
35.164
35.153
35.141
35.13
35.118
35.105
35.091
35.076
35.059
35.042
35.024
35.007
34.99
34.975
34.963
34.953
34.945
34.939
34.935
34.932
34.931
34.932
34.934
34.938
34.94
34.942
34.943
34.942
34.941
34.94
34.94
34.94
34.941
34.943
34.946
34.951
34.956
34.961
34.966
34.971
34.975
34.979
34.982
34.985
34.986
34.984
34.979
34.972
34.963
34.954
34.945
34.936
34.926
34.918
34.909
34.9
34.891
34.883
34.875
34.866
34.857
34.848
34.84
34.833
34.826
34.818
34.81
34.801
34.79
34.778
34.765
34.75
34.734
34.718
34.702
34.686
34.672
34.658
34.645
34.632
34.62
34.608
34.597
34.587
34.577
34.567
34.557
34.545
34.532
34.52
34.507
34.494
34.482
34.47
34.458
34.447
34.437
34.428
34.419
34.411
34.401
34.391
34.382
34.373
34.36
34.342
34.32
34.296
34.274
34.255
34.244
34.241
34.249
34.27
34.302
34.348
34.406
34.475
34.554
34.64
34.73
34.823
34.917
35.009
35.099
35.184
35.262
35.333
35.396
35.451
35.498
35.536
35.568
35.592
35.609
35.62
35.626
35.627
35.626
35.621
35.615
35.608
35.602
35.596
35.591
35.589
35.587
35.588
35.59
35.592
35.595
35.596
35.597
35.597
35.596
35.593
35.588
35.582
35.574
35.564
35.552
35.537
35.52
35.499
35.476
35.45
35.422
35.392
35.362
35.331
35.301
35.273
35.247
35.225
35.206
35.192
35.182
35.174
35.169
35.166
35.165
35.166
35.168
35.171
35.174
35.177
35.181
35.184
35.186
35.185
35.182
35.177
35.17
35.162
35.155
35.148
35.142
35.136
35.13
35.126
35.123
35.122
35.122
35.124
35.126
35.128
35.133
35.138
35.144
35.149
35.154
35.158
35.16
35.161
35.161
35.16
35.155
35.147
35.135
35.122
35.106
35.088
35.07
35.052
35.035
35.019
35.006
34.994
34.985
34.977
34.969
34.962
34.957
34.952
34.948
34.945
34.941
34.937
34.932
34.927
34.92
34.911
34.899
34.886
34.871
34.854
34.838
34.822
34.807
34.793
34.78
34.768
34.758
34.748
34.738
34.728
34.716
34.705
34.694
34.682
34.671
34.661
34.653
34.645
34.639
34.635
34.634
34.636
34.642
34.651
34.664
34.68
34.701
34.726
34.756
34.79
34.828
34.87
34.914
34.962
35.013
35.069
35.128
35.192
35.259
35.329
35.402
35.475
35.548
35.62
35.689
35.753
35.811
35.862
35.904
35.94
35.968
35.989
36.005
36.015
36.02
36.02
36.017
36.011
36.003
35.995
35.986
35.977
35.969
35.962
35.957
35.953
35.95
35.947
35.943
35.937
35.931
35.924
35.917
35.91
35.901
35.892
35.881
35.87
35.857
35.843
35.826
35.807
35.786
35.762
35.738
35.712
35.686
35.661
35.637
35.615
35.595
35.578
35.564
35.552
35.543
35.536
35.531
35.528
35.528
35.529
35.534
35.54
35.547
35.556
35.564
35.572
35.577
35.58
35.58
35.575
35.565
35.552
35.536
35.517
35.499
35.482
35.467
35.455
35.445
35.438
35.435
35.436
35.439
35.445
35.452
35.46
35.469
35.479
35.488
35.496
35.503
35.507
35.508
35.507
35.503
35.496
35.485
35.471
35.453
35.433
35.412
35.388
35.364
35.339
35.313
35.285
35.258
35.231
35.206
35.183
35.163
35.145
35.131
35.121
35.114
35.112
35.111
35.11
35.109
35.107
35.103
35.096
35.087
35.075
35.061
35.044
35.027
35.008
34.989
34.969
34.949
34.929
34.909
34.889
34.87
34.853
34.838
34.824
34.813
34.803
34.796
34.793
34.792
34.795
34.801
34.811
34.825
34.843
34.865
34.893
34.926
34.965
35.009
35.059
35.113
35.17
35.231
35.295
