Trial 3:3back
35.401
35.363
35.326
35.288
35.249
35.21
35.171
35.134
35.099
35.068
35.037
35.005
34.972
34.936
34.899
34.862
34.824
34.788
34.752
34.719
34.687
34.658
34.632
34.609
34.589
34.571
34.556
34.544
34.532
34.52
34.507
34.494
34.481
34.466
34.451
34.436
34.42
34.403
34.386
34.369
34.353
34.338
34.324
34.311
34.3
34.29
34.282
34.273
34.265
34.258
34.251
34.244
34.238
34.232
34.227
34.221
34.214
34.207
34.199
34.189
34.179
34.168
34.156
34.144
34.132
34.123
34.114
34.106
34.099
34.093
34.085
34.076
34.065
34.052
34.036
34.019
33.998
33.976
33.952
33.926
33.9
33.874
33.849
33.825
33.803
33.784
33.768
33.754
33.744
33.736
33.73
33.728
33.73
33.738
33.754
33.781
33.82
33.873
33.94
34.022
34.119
34.232
34.361
34.505
34.662
34.83
35.005
35.184
35.365
35.545
35.721
35.892
36.056
36.212
36.356
36.49
36.611
36.719
36.815
36.897
36.967
37.025
37.07
37.104
37.127
37.14
37.143
37.138
37.126
37.107
37.083
37.054
37.023
36.991
36.957
36.923
36.889
36.854
36.818
36.781
36.742
36.702
36.659
36.615
36.57
36.524
36.478
36.431
36.386
36.341
36.297
36.254
36.212
36.172
36.132
36.093
36.054
36.016
35.978
35.94
35.903
35.867
35.833
35.801
35.771
35.744
35.719
35.696
35.676
35.659
35.644
35.631
35.621
35.612
35.606
35.603
35.602
35.603
35.608
35.616
35.626
35.638
35.652
35.666
35.681
35.696
35.71
35.723
35.734
35.743
35.749
35.752
35.752
35.749
35.743
35.733
35.722
35.707
35.691
35.672
35.651
35.628
35.605
35.579
35.553
35.525
35.495
35.464
35.433
35.4
35.368
35.335
35.302
35.27
35.237
35.204
35.17
35.136
35.102
35.069
35.038
35.008
34.98
34.952
34.926
34.899
34.873
34.846
34.819
34.793
34.767
34.743
34.718
34.694
34.669
34.643
34.618
34.593
34.568
34.545
34.524
34.504
34.486
34.47
34.456
34.445
34.435
34.426
34.418
34.411
34.404
34.397
34.39
34.383
34.375
34.368
34.36
34.351
34.342
34.334
34.326
34.319
34.312
34.306
34.299
34.291
34.283
34.272
34.26
34.246
34.231
34.216
34.202
34.188
34.175
34.163
34.152
34.14
34.129
34.119
34.108
34.097
34.086
34.074
34.061
34.049
34.036
34.023
34.01
33.996
33.982
33.966
33.949
33.929
33.907
33.883
33.857
33.832
33.807
33.785
33.767
33.752
33.742
33.737
33.738
33.747
33.765
33.796
33.842
33.905
33.985
34.083
34.196
34.323
34.464
34.617
34.779
34.95
35.126
35.305
35.483
35.658
35.826
35.987
36.14
36.283
36.416
36.538
36.649
36.748
36.835
36.91
36.972
37.021
37.057
37.082
37.095
37.098
37.092
37.078
37.057
37.031
37.001
36.969
36.936
36.903
36.869
36.835
36.8
36.764
36.725
36.685
36.643
36.599
36.554
36.508
36.463
36.419
36.376
36.335
36.294
36.254
36.215
36.174
36.134
36.093
36.052
36.011
35.97
35.929
35.888
35.848
35.809
35.772
35.736
35.704
35.675
35.65
35.628
35.609
35.593
35.581
35.572
35.567
35.566
35.57
35.576
35.586
35.598
35.612
35.627
35.644
35.663
35.682
35.701
35.72
35.737
35.752
35.764
35.774
35.781
35.786
35.789
35.79
35.787
35.782
35.774
35.763
35.748
35.732
35.713
35.692
35.67
35.646
35.619
35.59
35.559
35.529
35.498
35.468
35.436
35.404
35.37
35.335
35.298
35.26
35.221
35.182
35.143
35.103
35.063
35.022
34.981
34.939
34.898
34.858
34.82
34.785
34.75
34.717
34.685
34.655
34.628
34.602
34.578
34.556
34.537
34.518
34.5
34.484
34.471
34.46
34.452
34.447
34.443
34.44
34.438
34.436
34.433
34.43
34.427
34.422
34.416
34.409
34.4
34.39
34.379
34.366
34.352
34.338
34.325
34.315
34.308
34.305
34.304
34.305
34.305
34.305
34.304
34.303
34.302
34.299
34.295
34.289
34.28
34.269
34.255
34.239
34.223
34.204
34.185
34.164
34.142
34.119
34.095
34.071
34.046
34.021
33.996
33.97
33.943
33.915
33.886
33.858
33.829
33.8
33.771
33.742
33.713
33.684
33.656
33.629
33.604
33.583
33.566
33.554
33.548
33.549
33.56
33.582
33.618
33.667
33.732
33.812
33.907
34.017
34.142
34.28
34.431
34.592
34.762
34.939
35.119
35.301
35.48
35.656
35.825
35.986
36.138
36.279
36.408
36.522
36.622
36.707
36.777
36.831
36.872
36.9
36.916
36.921
36.915
36.901
36.878
36.847
36.812
36.772
36.729
36.684
36.637
36.588
36.538
36.489
36.439
36.39
36.342
36.295
36.248
36.202
36.157
36.112
36.067
36.022
35.978
35.935
35.892
35.847
35.802
35.755
35.707
35.658
35.61
35.563
35.518
35.474
35.433
35.394
35.357
35.323
35.293
35.268
35.248
35.233
35.221
35.213
35.209
35.208
35.21
35.218
35.229
35.245
35.263
35.283
35.304
35.325
35.347
35.371
35.397
35.423
35.449
35.472
35.492
35.506
35.515
35.519
35.519
35.515
35.507
35.496
35.481
35.463
35.441
35.417
35.392
35.367
35.342
35.318
35.292
35.265
35.237
35.207
35.176
35.145
35.114
35.082
35.049
35.016
34.98
34.942
34.902
34.862
34.822
34.785
34.751
34.718
34.687
34.655
34.623
34.591
34.559
34.529
34.5
34.471
34.444
34.416
34.388
34.359
34.33
34.303
34.277
34.253
34.232
34.213
34.196
34.179
34.164
34.15
34.137
34.126
34.116
34.107
34.099
34.091
34.082
34.073
34.064
34.056
34.049
34.042
34.036
34.029
34.022
34.014
34.005
33.996
33.987
33.978
33.969
33.96
33.952
33.943
33.935
33.927
33.92
33.913
33.906
33.898
33.891
33.883
33.875
33.867
33.858
33.85
33.843
33.839
33.836
33.835
33.834
33.834
33.833
33.83
33.823
33.814
33.802
33.787
33.771
33.752
33.733
33.712
33.69
33.666
33.642
33.617
33.593
33.57
33.548
33.528
33.509
33.491
33.475
33.461
33.45
33.443
33.44
33.442
33.45
33.466
33.491
33.528
33.578
33.641
33.719
33.811
33.919
34.04
34.175
34.321
34.477
34.641
34.81
34.981
35.152
35.322
35.486
35.645
35.794
35.933
36.06
36.175
36.277
36.367
36.443
36.507
36.557
36.595
36.621
36.635
36.639
36.634
36.621
36.601
36.576
36.547
36.512
36.474
36.432
36.387
36.339
36.289
36.237
36.184
36.131
36.077
36.023
35.969
35.916
35.862
35.808
35.753
35.698
35.641
35.583
35.524
35.464
35.403
35.343
35.285
35.229
35.176
35.126
35.08
35.039
35.004
34.974
34.949
34.93
34.916
34.906
34.901
34.899
34.902
34.908
34.919
34.933
34.952
34.973
34.998
35.025
35.054
35.085
35.118
35.152
35.187
35.221
35.254
35.285
35.314
35.34
35.362
35.379
35.393
35.402
35.408
35.411
35.41
35.406
35.399
35.389
35.377
35.362
35.345
35.325
35.304
35.281
35.257
35.231
35.202
35.172
35.141
35.109
35.077
35.043
35.008
34.973
34.938
34.902
34.867
34.831
34.797
34.763
34.729
34.696
34.662
34.628
34.594
34.562
34.53
34.5
34.47
34.441
34.412
34.384
34.357
34.332
34.307
34.284
34.262
34.241
34.221
34.2
34.18
34.16
34.14
34.121
34.104
34.088
34.074
34.061
34.05
34.042
34.037
34.035
34.036
34.038
34.041
34.043
34.044
34.044
34.042
34.039
34.036
34.033
34.029
34.024
34.02
34.015
34.01
34.005
33.999
33.994
33.99
33.985
33.979
33.971
33.962
33.951
33.938
33.925
33.91
33.895
33.878
33.86
33.841
33.822
33.803
33.784
33.767
33.75
33.735
33.724
33.716
33.71
33.708
33.709
33.714
33.724
33.739
33.761
33.79
33.827
33.875
33.933
34.003
34.086
34.182
34.29
34.409
34.538
34.675
34.82
34.97
35.124
35.281
35.437
35.59
35.738
35.878
36.01
36.133
36.245
36.347
36.436
36.514
36.578
36.631
36.672
36.701
36.72
36.73
36.732
36.728
36.718
36.703
36.683
36.658
36.629
36.596
36.56
36.521
36.478
36.432
36.383
36.331
36.277
36.221
36.164
36.108
36.051
35.994
35.936
35.878
35.819
35.76
35.702
35.646
35.592
35.539
35.487
35.436
35.387
35.339
35.294
35.253
35.216
35.183
35.156
35.132
35.113
35.098
35.087
35.082
35.082
35.088
35.098
35.113
35.133
35.156
35.183
35.213
35.247
35.284
35.322
35.361
35.401
35.44
35.478
35.515
35.552
35.589
35.624
35.658
35.688
35.714
35.735
35.751
35.762
35.768
35.768
35.764
35.754
35.739
35.719
35.696
35.67
35.643
35.615
35.587
35.559
35.53
35.499
35.465
35.428
35.388
35.347
35.305
35.262
35.218
35.174
35.13
35.087
35.045
35.005
34.968
34.934
34.902
34.871
34.841
34.811
34.781
34.752
34.723
34.696
34.671
34.648
34.626
34.605
34.585
34.566
34.548
34.532
34.518
34.505
34.494
34.485
34.475
34.465
34.455
34.446
34.438
34.434
34.432
34.434
34.438
34.443
34.449
34.455
34.461
34.467
34.473
34.48
34.487
34.495
34.502
34.509
34.515
34.521
34.527
34.532
34.536
34.538
34.538
34.536
34.532
34.526
34.518
34.509
34.498
34.485
34.471
34.454
34.437
34.419
34.401
34.383
34.366
34.35
34.337
34.327
34.32
34.318
34.324
34.337
34.361
34.396
34.444
34.506
34.584
34.676
34.784
34.907
35.042
35.189
35.345
35.51
35.68
35.854
36.028
36.201
36.37
36.534
36.692
36.841
36.98
37.109
37.226
37.33
37.42
37.494
37.553
37.598
37.631
37.653
37.666
37.672
37.671
37.666
37.656
37.642
37.625
37.603
37.578
37.549
37.517
37.482
37.445
37.405
37.362
37.317
37.271
37.224
37.177
37.13
37.085
37.041
36.997
36.954
36.91
36.866
36.821
36.775
36.729
36.683
36.636
36.589
36.541
36.492
36.442
36.393
36.346
36.301
36.26
36.224
36.193
36.167
36.146
36.131
36.122
36.12
36.124
36.135
36.149
36.167
36.187
36.209
36.231
36.255
36.28
36.307
36.334
36.36
36.384
36.406
36.425
36.443
36.458
36.471
36.482
36.49
36.493
36.493
36.49
36.483
36.474
36.462
36.446
36.422
36.388
36.348
36.302
36.253
36.205
36.16
36.118
36.082
36.049
36.019
35.992
35.965
35.939
35.912
35.886
35.858
35.83
35.798
35.764
35.726
35.685
35.641
35.596
35.55
35.503
35.458
35.413
35.369
35.327
35.287
35.251
35.219
35.19
35.165
35.144
35.124
35.107
35.09
35.074
35.057
35.04
35.023
35.005
34.986
34.967
34.948
34.929
34.911
34.894
34.878
34.865
34.853
34.844
34.838
34.833
34.831
34.829
34.828
34.827
34.826
34.822
34.816
34.808
34.797
34.783
34.767
34.749
34.729
34.708
34.685
34.661
34.637
34.613
34.59
34.567
34.546
34.526
34.507
34.487
34.468
34.45
34.432
34.414
34.397
34.379
34.362
34.344
34.328
34.314
34.302
34.295
34.294
34.3
34.316
34.344
34.385
34.44
34.512
34.6
34.704
34.824
34.959
35.105
35.26
35.423
35.591
35.762
35.936
36.11
36.283
36.454
36.619
36.779
36.931
37.075
37.21
37.336
37.45
37.553
37.644
37.722
37.788
37.84
37.881
37.91
37.929
37.939
37.939
37.931
37.916
37.895
37.869
37.838
37.802
37.763
37.72
37.676
37.632
37.587
37.543
37.501
37.461
37.424
37.388
37.355
37.323
37.292
37.26
37.228
37.195
37.16
37.123
37.085
37.046
37.004
36.961
36.916
36.87
36.824
36.778
36.734
36.691
36.651
36.613
36.579
36.549
36.523
36.503
36.488
36.479
36.475
36.474
36.478
36.485
36.494
36.506
36.52
36.535
36.55
36.566
36.58
36.593
36.606
36.617
36.626
36.634
36.641
36.645
36.648
36.648
36.646
36.641
36.634
36.624
36.611
36.596
36.577
36.555
36.53
36.502
36.472
36.44
36.406
36.37
36.332
36.293
36.252
36.21
36.166
36.123
36.079
36.035
35.991
35.947
35.902
35.857
35.813
35.768
35.725
35.683
35.641
35.6
35.559
35.517
35.476
35.435
35.395
35.356
35.318
35.282
35.246
35.212
35.179
35.148
35.117
35.088
35.061
35.035
35.011
34.987
34.963
34.941
34.92
34.901
34.883
34.866
34.852
34.838
34.825
34.813
34.803
34.795
34.789
34.785
34.782
34.78
34.778
34.774
34.769
34.763
34.756
34.75
34.744
34.738
34.73
34.721
34.71
34.698
34.684
34.67
34.656
34.642
34.627
34.611
34.592
34.57
34.546
34.519
34.491
34.463
34.435
34.407
34.379
34.35
34.32
34.288
34.256
34.225
34.196
34.169
34.146
34.127
34.114
34.107
34.108
34.119
34.142
34.178
34.229
34.294
34.375
34.469
34.578
34.701
34.836
34.981
35.134
35.295
35.462
35.633
35.806
35.98
36.153
36.322
36.486
36.644
36.793
36.931
37.056
37.169
37.268
37.355
37.429
37.491
37.539
37.576
37.6
37.614
37.617
37.612
37.601
37.584
37.563
37.537
37.506
37.471
37.434
37.395
37.356
37.318
37.28
37.242
37.203
37.163
37.12
37.076
37.032
36.987
36.943
36.899
36.853
36.805
36.755
36.704
36.652
36.601
36.552
36.505
36.459
36.413
36.367
36.32
36.274
36.229
36.188
36.15
36.116
36.084
36.054
36.027
36.003
35.984
35.973
35.968
35.97
35.976
35.985
35.995
36.006
36.018
36.031
36.045
36.061
36.076
36.091
36.103
36.114
36.122
36.128
36.133
36.136
36.138
36.137
36.133
36.126
36.115
36.102
36.087
36.07
36.052
36.031
36.006
35.978
35.945
35.907
35.867
35.825
35.783
35.74
35.697
35.655
35.614
35.573
35.533
35.495
35.458
35.422
35.387
35.352
35.317
35.28
35.242
35.204
35.167
35.13
35.095
35.062
35.028
34.994
34.959
34.924
34.889
34.855
34.821
34.789
34.757
34.726
34.695
34.665
34.636
34.609
34.584
34.561
34.54
34.521
34.502
34.483
34.466
34.448
34.432
34.415
34.4
34.384
34.368
34.352
34.335
34.319
34.303
34.288
34.273
34.258
34.244
34.229
34.214
34.201
34.188
34.176
34.165
34.155
34.146
34.137
34.129
34.121
34.114
34.106
34.098
34.089
34.078
34.066
34.052
34.034
34.015
33.994
33.971
33.947
33.922
33.895
33.867
33.839
33.81
33.782
33.754
33.727
33.702
33.68
33.664
33.655
33.652
33.658
33.673
33.699
33.737
33.787
33.852
33.93
34.021
34.125
34.24
34.367
34.505
34.653
34.808
34.969
35.135
35.301
35.468
35.632
35.794
35.952
36.104
36.249
36.385
36.512
36.626
36.727
36.817
36.894
36.959
37.014
37.058
37.091
37.113
37.125
37.13
37.129
37.124
37.115
37.103
37.088
37.068
37.043
37.013
36.979
36.94
36.898
36.853
36.807
36.761
36.715
36.669
36.623
36.577
36.533
36.489
36.446
36.402
36.356
36.308
36.257
36.205
36.152
36.099
36.046
35.995
35.945
35.897
35.853
35.812
35.777
35.748
35.725
35.708
35.698
35.693
35.693
35.697
35.705
35.718
35.734
35.753
35.775
35.798
35.822
35.846
35.87
35.893
35.915
35.936
35.955
35.973
35.987
35.998
36.005
36.008
36.008
36.004
35.999
35.991
35.98
35.968
35.954
35.937
35.918
35.897
35.873
35.848
35.82
35.79
35.759
35.726
35.693
35.658
35.623
35.587
35.549
35.511
35.471
35.43
35.389
35.348
35.307
35.267
35.227
35.187
35.148
35.109
35.07
35.032
34.995
34.959
34.925
34.893
34.863
34.835
34.808
34.783
34.758
34.734
34.711
34.688
34.666
34.643
34.621
34.599
34.578
34.558
34.54
34.522
34.506
34.491
34.477
34.464
34.452
34.441
34.43
34.421
34.411
34.403
34.393
34.384
34.373
34.362
34.351
34.34
34.329
34.319
34.308
34.298
34.288
34.276
34.264
34.251
34.238
34.225
34.213
34.2
34.186
34.171
34.154
34.136
34.118
34.099
34.081
34.063
34.045
34.026
34.007
33.987
33.968
33.951
33.937
33.93
33.93
33.939
33.96
33.992
34.038
34.099
34.176
34.269
34.381
34.509
34.652
34.808
34.975
35.149
35.328
35.512
35.697
35.882
36.063
36.239
36.408
36.567
36.716
36.853
36.979
37.094
37.196
37.287
37.365
37.431
37.484
37.528
37.563
37.59
37.609
37.62
37.623
37.617
37.604
37.585
37.561
37.536
37.51
37.483
37.455
37.425
37.393
37.359
37.324
37.29
37.258
37.226
37.194
37.16
37.124
37.087
37.049
37.011
36.974
36.937
36.9
36.862
36.821
36.778
36.735
36.692
36.652
36.613
36.577
36.543
36.509
36.476
36.443
36.413
36.386
36.365
36.348
36.338
36.332
36.33
36.332
36.335
36.341
36.351
36.363
36.378
36.393
36.409
36.423
36.435
36.446
36.456
36.466
36.476
36.487
36.496
36.503
36.506
36.506
36.502
36.495
36.484
36.469
36.449
36.424
36.392
36.357
36.317
36.277
36.236
36.195
36.154
36.113
36.07
36.027
35.984
35.941
35.899
35.86
35.822
35.785
35.749
35.712
35.673
35.634
35.594
35.553
35.513
35.474
35.436
35.398
35.36
35.322
35.283
35.244
35.204
35.164
35.124
35.084
35.043
35.003
34.964
34.927
34.893
34.863
34.836
34.811
34.787
34.765
34.745
34.726
34.71
34.696
34.683
34.672
34.663
34.653
34.644
34.634
34.624
34.613
34.601
34.587
34.573
34.557
34.539
34.521
34.501
34.481
34.46
34.439
34.418
34.397
34.376
34.355
34.333
34.31
34.287
34.264
34.24
34.216
34.192
34.167
34.142
34.116
34.09
34.064
34.038
34.011
33.982
33.954
33.925
33.897
33.87
33.846
33.824
33.807
33.793
33.785
33.783
33.79
33.806
33.833
33.873
33.927
33.996
34.081
34.184
34.302
34.436
34.585
34.748
34.922
35.105
35.297
35.493
35.692
35.89
36.087
36.279
36.464
36.64
36.805
36.958
37.098
37.224
37.335
37.431
37.513
37.58
37.635
37.677
37.708
37.73
37.742
37.747
37.745
37.737
37.725
37.707
37.686
37.662
37.635
37.605
37.574
37.541
37.508
37.474
37.441
37.407
37.372
37.337
37.301
37.263
37.225
37.185
37.144
37.102
37.057
37.011
36.963
36.914
36.864
36.814
36.765
36.719
36.676
36.637
36.603
36.574
36.549
36.526
36.503
36.477
36.444
36.401
36.35
36.292
36.232
36.174
36.122
36.079
36.046
36.026
36.017
36.02
36.033
36.055
36.083
36.116
36.153
36.19
36.227
36.261
36.291
36.315
36.333
36.344
36.349
36.348
36.34
36.326
36.306
36.28
36.248
36.213
36.174
36.134
36.093
36.052
36.011
35.97
35.93
35.89
35.85
35.81
35.769
35.728
35.685
35.641
35.597
35.551
35.506
35.461
35.415
35.37
35.325
35.28
35.233
35.186
35.14
35.095
35.051
35.009
34.969
34.931
34.893
34.856
34.82
34.786
34.753
34.723
34.695
34.669
34.643
34.618
34.593
34.568
34.543
34.52
34.497
34.475
34.454
34.433
34.414
34.394
34.374
34.356
34.337
34.32
34.303
34.287
34.272
34.258
34.245
34.232
34.222
34.212
34.203
34.196
34.189
34.183
34.177
34.171
34.166
34.16
34.153
34.145
34.136
34.127
34.116
34.103
34.089
34.074
34.056
34.037
34.014
33.989
33.959
33.927
33.891
33.853
33.814
33.775
33.736
33.698
33.66
33.621
33.583
33.546
33.51
33.478
33.45
33.426
33.408
33.397
33.393
33.399
33.416
33.446
33.493
33.556
33.638
33.737
33.853
33.985
34.132
34.292
34.466
34.651
34.846
35.051
35.261
35.471
35.679
35.881
36.075
36.259
36.431
36.59
36.735
36.863
36.973
37.068
37.147
37.213
37.268
37.314
37.351
37.379
37.4
37.413
37.42
37.421
37.418
37.411
37.398
37.381
37.357
37.327
37.291
37.252
37.209
37.165
37.119
37.072
37.023
36.973
36.919
36.865
36.809
36.754
36.699
36.644
36.587
36.529
36.467
36.404
36.339
36.275
36.213
36.154
36.098
36.045
35.996
35.951
35.912
35.878
35.851
35.83
35.814
35.802
35.792
35.784
35.776
35.77
35.767
35.768
35.771
35.777
35.784
35.791
35.798
35.804
35.812
35.821
35.832
35.844
35.856
35.867
35.876
35.882
35.885
35.886
35.885
35.882
35.876
35.868
35.856
35.839
35.818
35.794
35.768
35.74
35.71
35.679
35.646
35.61
35.573
35.534
35.494
35.454
35.414
35.374
35.333
35.291
35.248
35.205
35.161
35.118
35.076
35.036
34.996
34.958
34.922
34.887
34.853
34.819
34.786
34.754
34.723
34.693
34.664
34.636
34.608
34.581
34.554
34.527
34.498
34.468
34.439
34.415
34.398
34.386
34.38
34.377
34.375
34.373
34.368
34.36
34.348
34.333
34.314
34.293
34.271
34.248
34.224
34.201
34.178
34.156
34.136
34.118
34.103
34.091
34.081
34.073
34.067
34.063
34.059
34.056
34.054
34.052
34.049
34.044
34.038
34.03
34.018
34.004
33.988
33.969
33.948
33.926
33.903
33.878
33.852
33.823
33.794
33.765
33.736
33.709
33.683
33.658
33.634
33.61
33.585
33.56
33.535
33.511
33.49
33.473
33.462
33.458
33.461
33.473
33.497
33.535
33.589
33.659
33.748
33.854
33.978
34.117
34.271
34.438
34.616
34.802
34.995
35.19
35.386
35.579
35.768
35.951
36.127
