Trial 3:3back
32.818
32.798
32.781
32.768
32.76
32.759
32.767
32.786
32.82
32.871
32.942
33.035
33.154
33.299
33.471
33.669
33.894
34.141
34.409
34.693
34.989
35.294
35.602
35.91
36.214
36.51
36.794
37.066
37.32
37.556
37.772
37.967
38.139
38.287
38.413
38.517
38.6
38.664
38.709
38.738
38.753
38.756
38.747
38.729
38.704
38.672
38.637
38.597
38.553
38.506
38.456
38.403
38.348
38.292
38.237
38.184
38.132
38.082
38.034
37.987
37.939
37.891
37.841
37.789
37.735
37.678
37.619
37.555
37.489
37.421
37.35
37.276
37.202
37.126
37.05
36.974
36.9
36.828
36.76
36.696
36.637
36.582
36.533
36.488
36.449
36.414
36.383
36.355
36.331
36.308
36.285
36.264
36.242
36.219
36.195
36.169
36.142
36.113
36.084
36.054
36.024
35.994
35.963
35.932
35.901
35.868
35.836
35.802
35.767
35.729
35.688
35.644
35.595
35.542
35.486
35.427
35.365
35.302
35.239
35.177
35.117
35.057
34.998
34.94
34.881
34.822
34.763
34.704
34.646
34.59
34.536
34.484
34.433
34.385
34.338
34.293
34.251
34.212
34.175
34.142
34.112
34.084
34.059
34.035
34.012
33.99
33.969
33.947
33.926
33.904
33.882
33.86
33.838
33.815
33.792
33.769
33.746
33.722
33.7
33.678
33.656
33.635
33.615
33.596
33.577
33.558
33.541
33.524
33.508
33.493
33.479
33.466
33.453
33.441
33.427
33.413
33.398
33.38
33.361
33.341
33.318
33.294
33.269
33.242
33.215
33.189
33.162
33.136
33.11
33.084
33.057
33.031
33.005
32.98
32.955
32.929
32.901
32.872
32.842
32.81
32.78
32.75
32.722
32.696
32.673
32.651
32.632
32.614
32.596
32.579
32.562
32.545
32.529
32.512
32.495
32.477
32.461
32.445
32.431
32.422
32.417
32.421
32.438
32.473
32.529
32.609
32.718
32.855
33.023
33.219
33.443
33.693
33.966
34.26
34.57
34.892
35.221
35.553
35.883
36.206
36.517
36.813
37.091
37.347
37.58
37.787
37.969
38.126
38.258
38.368
38.456
38.525
38.577
38.613
38.634
38.643
38.64
38.629
38.61
38.585
38.556
38.523
38.488
38.449
38.407
38.364
38.319
38.273
38.227
38.182
38.139
38.096
38.053
38.011
37.967
37.922
37.874
37.823
37.767
37.706
37.641
37.572
37.499
37.423
37.344
37.262
37.18
37.097
37.015
36.935
36.857
36.784
36.715
36.651
36.592
36.539
36.493
36.454
36.421
36.395
36.374
36.36
36.35
36.344
36.341
36.342
36.344
36.348
36.35
36.352
36.351
36.346
36.337
36.322
36.303
36.28
36.252
36.221
36.186
36.149
36.11
36.069
36.027
35.983
35.939
35.893
35.847
35.8
35.753
35.705
35.657
35.61
35.562
35.513
35.464
35.414
35.362
35.311
35.26
35.209
35.158
35.107
35.055
35.003
34.949
34.895
34.841
34.785
34.728
34.672
34.616
34.561
34.507
34.456
34.408
34.363
34.323
34.285
34.252
34.223
34.198
34.176
34.157
34.142
34.129
34.118
34.108
34.097
34.086
34.074
34.059
34.042
34.024
34.003
33.98
33.956
33.93
33.906
33.882
33.858
33.837
33.816
33.798
33.781
33.765
33.751
33.738
33.727
33.717
33.709
33.701
33.694
33.687
33.679
33.669
33.659
33.646
33.632
33.617
33.601
33.584
33.565
33.545
33.524
33.502
33.479
33.456
33.433
33.41
33.387
33.364
33.341
33.317
33.29
33.26
33.227
33.191
33.156
33.123
33.094
33.07
33.055
33.05
33.057
33.08
33.122
33.186
33.276
33.392
33.537
33.71
33.91
34.136
34.386
34.654
34.937
35.23
35.529
35.83
36.128
36.42
36.701
36.97
37.223
37.458
37.674
37.87
38.046
38.202
38.338
38.456
38.556
38.639
38.706
38.757
38.795
38.819
38.832
38.834
38.826
38.809
38.784
38.754
38.719
38.681
38.641
38.599
38.557
38.514
38.472
38.428
38.384
38.338
38.29
38.241
38.189
38.134
38.076
38.014
37.949
37.879
37.805
37.728
37.645
37.559
37.469
37.376
37.282
37.189
37.098
37.012
36.931
36.856
36.788
36.727
36.675
36.63
36.591
36.557
36.529
36.504
36.482
36.461
36.443
36.428
36.414
36.404
36.395
36.387
36.38
36.372
36.363
36.351
36.337
36.32
36.299
36.276
36.251
36.223
36.193
36.159
36.124
36.086
36.046
36.003
35.958
35.912
35.865
35.817
35.769
35.72
35.671
35.62
35.569
35.517
35.465
35.412
35.358
35.305
35.251
35.198
35.145
35.093
35.042
34.992
34.943
34.894
34.844
34.795
34.745
34.696
34.648
34.602
34.558
34.516
34.478
34.443
34.411
34.382
34.354
34.328
34.302
34.276
34.251
34.225
34.199
34.174
34.15
34.127
34.104
34.083
34.062
34.042
34.021
34.002
33.983
33.964
33.947
33.931
33.918
33.908
33.899
33.892
33.887
33.882
33.877
33.871
33.864
33.857
33.848
33.838
33.827
33.815
33.801
33.786
33.771
33.755
33.738
33.721
33.704
33.687
33.67
33.653
33.637
33.621
33.607
33.594
33.582
33.57
33.557
33.543
33.527
33.508
33.485
33.459
33.43
33.397
33.361
33.323
33.285
33.248
33.214
33.186
33.168
33.162
33.173
33.204
33.258
33.339
33.448
33.588
33.759
33.959
34.189
34.445
34.725
35.024
35.336
35.658
35.985
36.312
36.634
36.947
37.248
37.533
37.8
38.048
38.275
38.482
38.669
38.835
38.982
39.11
39.219
39.311
39.386
39.446
39.49
39.521
39.539
39.546
39.544
39.533
39.515
39.492
39.465
39.434
39.401
39.364
39.325
39.284
39.241
39.198
39.155
39.113
39.072
39.034
38.997
38.963
38.93
38.897
38.864
38.83
38.793
38.752
38.705
38.652
38.592
38.525
38.45
38.37
38.283
38.191
38.096
37.999
37.9
37.801
37.705
37.613
37.525
37.442
37.365
37.295
37.232
37.177
37.131
37.093
37.061
37.033
37.008
36.985
36.963
36.94
36.918
36.896
36.873
36.849
36.822
36.794
36.763
36.73
36.695
36.658
36.619
36.579
36.537
36.495
36.452
36.41
36.368
36.325
36.28
36.234
36.185
36.134
36.08
36.023
35.964
35.903
35.841
35.778
35.714
35.65
35.585
35.52
35.454
35.39
35.326
35.265
35.207
35.153
35.102
35.054
35.009
34.967
34.927
34.889
34.853
34.818
34.784
34.751
34.72
34.69
34.661
34.633
34.606
34.58
34.553
34.527
34.501
34.476
34.45
34.424
34.398
34.371
34.342
34.311
34.279
34.245
34.213
34.181
34.15
34.122
34.096
34.073
34.053
34.034
34.018
34.003
33.989
33.974
33.958
33.94
33.921
33.9
33.876
33.851
33.824
33.796
33.767
33.738
33.709
33.681
33.654
33.627
33.601
33.577
33.553
33.53
33.508
33.486
33.464
33.442
33.419
33.396
33.371
33.345
33.317
33.287
33.257
33.227
33.195
33.163
33.131
33.099
33.07
33.045
33.027
33.019
33.025
33.048
33.091
33.158
33.25
33.371
33.52
33.699
33.906
34.142
34.403
34.685
34.987
35.303
35.629
35.96
36.292
36.619
36.937
37.242
37.529
37.796
38.042
38.266
38.469
38.653
38.817
38.962
39.089
39.197
39.287
39.36
39.415
39.455
39.48
39.494
39.496
39.489
39.474
39.452
39.425
39.395
39.362
39.327
39.291
39.255
39.221
39.188
39.157
39.128
39.1
39.074
39.049
39.023
38.995
38.964
38.929
38.889
38.843
38.791
38.733
38.667
38.594
38.514
38.429
38.337
38.242
38.142
38.039
37.934
37.827
37.72
37.614
37.51
37.409
37.312
37.222
37.14
37.065
36.998
36.939
36.889
36.845
36.807
36.774
36.744
36.716
36.691
36.666
36.641
36.615
36.587
36.559
36.53
36.5
36.469
36.436
36.402
36.367
36.331
36.294
36.256
36.218
36.178
36.138
36.097
36.054
36.009
35.962
35.912
35.859
35.805
35.749
35.691
35.631
35.57
35.509
35.446
35.383
35.32
35.256
35.194
35.132
35.073
35.015
34.959
34.905
34.854
34.807
34.763
34.721
34.682
34.647
34.614
34.581
34.55
34.518
34.487
34.456
34.424
34.394
34.364
34.335
34.307
34.279
34.253
34.227
34.201
34.176
34.15
34.125
34.1
34.075
34.05
34.027
34.005
33.983
33.961
33.94
33.919
33.898
33.876
33.853
33.829
33.804
33.778
33.752
33.726
33.702
33.679
33.657
33.637
33.619
33.603
33.587
33.573
33.56
33.547
33.533
33.519
33.505
33.489
33.473
33.456
33.437
33.418
33.399
33.377
33.354
33.33
33.305
33.279
33.253
33.226
33.199
33.172
33.145
33.118
33.091
33.065
33.039
33.014
32.989
32.964
32.94
32.918
32.897
32.879
32.866
32.858
32.858
32.869
32.893
32.933
32.992
33.072
33.176
33.306
33.462
33.645
33.856
34.092
34.352
34.632
34.93
35.241
35.56
35.882
36.203
36.518
36.823
37.115
37.39
37.646
37.882
38.096
38.289
38.458
38.604
38.726
38.827
38.908
38.971
39.017
39.049
39.068
39.076
39.076
39.068
39.054
39.035
39.013
38.989
38.962
38.935
38.907
38.879
38.85
38.82
38.791
38.761
38.729
38.696
38.66
38.622
38.582
38.538
38.491
38.441
38.388
38.331
38.27
38.205
38.135
38.059
37.977
37.889
37.797
37.702
37.604
37.506
37.409
37.315
37.225
37.14
37.061
36.987
36.919
36.858
36.802
36.754
36.711
36.674
36.64
36.61
36.582
36.556
36.53
36.504
36.477
36.451
36.424
36.396
36.369
36.341
36.314
36.285
36.253
36.217
36.177
36.133
36.085
36.034
35.982
35.929
35.875
35.82
35.766
35.712
35.66
35.608
35.557
35.505
35.454
35.403
35.352
35.301
35.25
35.2
35.151
35.102
35.052
35.002
34.951
34.901
34.85
34.8
34.751
34.703
34.657
34.612
34.568
34.526
34.485
34.445
34.405
34.367
34.328
34.291
34.254
34.218
34.185
34.153
34.123
34.095
34.068
34.044
34.02
33.997
33.975
33.954
33.933
33.911
33.89
33.869
33.848
33.827
33.805
33.782
33.757
33.732
33.704
33.676
33.648
33.62
33.593
33.567
33.543
33.522
33.504
33.488
33.476
33.465
33.456
33.446
33.437
33.428
33.417
33.405
33.391
33.376
33.358
33.339
33.317
33.293
33.268
33.242
33.217
33.194
33.173
33.155
33.14
33.127
33.116
33.106
33.097
33.087
33.077
33.066
33.053
33.039
33.023
33.005
32.986
32.966
32.944
32.92
32.895
32.869
32.844
32.818
32.793
32.77
32.749
32.731
32.718
32.711
32.714
32.728
32.757
32.803
32.869
32.957
33.069
33.207
33.371
33.56
33.773
34.008
34.263
34.535
34.819
35.112
35.412
35.713
36.012
36.305
36.589
36.862
37.121
37.365
37.591
37.798
37.984
38.149
38.29
38.41
38.507
38.585
38.643
38.684
38.71
38.722
38.724
38.716
38.701
38.681
38.658
38.633
38.607
38.581
38.555
38.528
38.501
38.472
38.443
38.412
38.38
38.347
38.313
38.28
38.245
38.208
38.169
38.127
38.083
38.034
37.98
37.92
37.855
37.783
37.706
37.624
37.536
37.446
37.354
37.263
37.173
37.085
37.0
36.919
36.842
36.769
36.702
36.64
36.583
36.532
36.486
36.445
36.409
36.377
36.349
36.323
36.299
36.277
36.254
36.232
36.209
36.185
36.16
36.133
36.106
36.076
36.045
36.011
35.976
35.94
35.903
35.866
35.826
35.786
35.744
35.701
35.656
35.611
35.565
35.517
35.469
35.421
35.372
35.322
35.272
35.222
35.17
35.117
35.063
35.006
34.948
34.888
34.827
34.767
34.707
34.65
34.597
34.548
34.502
34.461
34.424
34.391
34.36
34.333
34.308
34.286
34.265
34.247
34.23
34.214
34.197
34.18
34.162
34.143
34.122
34.101
34.08
34.059
34.037
34.016
33.995
33.972
33.949
33.926
33.901
33.875
33.849
33.821
33.792
33.763
33.734
33.704
33.676
33.647
33.619
33.591
33.565
33.54
33.515
33.491
33.468
33.445
33.422
33.4
33.377
33.355
33.334
33.312
33.291
33.271
33.251
33.232
33.214
33.196
33.179
33.164
33.15
33.137
33.125
33.114
33.103
33.091
33.08
33.067
33.054
33.04
33.026
33.012
32.998
32.983
32.968
32.953
32.936
32.92
32.902
32.884
32.865
32.847
32.829
32.813
32.796
32.781
32.766
32.752
32.739
32.727
32.717
32.71
32.706
32.708
32.716
32.733
32.76
32.799
32.855
32.93
33.027
33.149
33.297
33.471
33.671
33.894
34.139
34.401
34.676
34.96
35.25
35.539
35.825
36.102
36.369
36.627
36.88
37.124
37.359
37.579
37.781
37.963
38.12
38.25
38.352
38.425
38.472
38.495
38.496
38.478
38.445
38.401
38.348
38.289
38.227
38.166
38.107
38.05
37.997
37.947
37.902
37.862
37.826
37.794
37.765
37.738
37.712
37.686
37.658
37.628
37.594
37.556
37.513
37.463
37.408
37.347
37.28
37.208
37.132
37.053
36.972
36.892
36.813
36.736
36.663
36.594
36.53
36.473
36.421
36.375
36.334
36.298
36.266
36.238
36.213
36.19
36.17
36.152
36.135
36.118
36.102
36.087
36.074
36.061
36.048
36.034
36.019
36.003
35.985
35.967
35.947
35.925
35.901
35.875
35.847
35.817
35.783
35.746
35.704
35.657
35.605
35.549
35.488
35.424
35.357
35.29
35.222
35.156
35.093
35.031
34.97
34.911
34.852
34.795
34.738
34.683
34.63
34.579
34.532
34.487
34.447
34.411
34.377
34.346
34.318
34.291
34.266
34.242
34.219
34.198
34.178
34.159
34.141
34.125
34.108
34.091
34.074
34.055
34.036
34.015
33.994
33.973
33.951
33.93
33.91
33.89
33.87
33.852
33.835
33.819
33.805
33.792
33.78
33.769
33.757
33.745
33.732
33.719
33.705
33.692
33.678
33.663
33.649
33.633
33.615
33.595
33.573
33.548
33.522
33.494
33.464
33.434
33.402
33.369
33.335
33.299
33.263
33.227
33.193
33.161
33.131
33.105
33.082
33.062
33.043
33.026
33.009
32.992
32.973
32.954
32.932
32.908
32.883
32.856
32.829
32.8
32.772
32.745
32.718
32.693
32.67
32.651
32.635
32.624
32.618
32.618
32.626
32.644
32.672
32.714
32.773
32.851
32.951
33.076
33.226
33.402
33.605
33.831
34.079
34.344
34.623
34.912
35.206
35.499
35.79
36.075
36.351
36.615
36.865
37.1
37.318
37.52
37.707
37.878
38.034
38.173
38.295
38.4
38.487
38.557
38.611
38.648
38.672
38.682
38.682
38.671
38.652
38.626
38.595
38.559
38.519
38.478
38.437
38.398
38.36
38.326
38.294
38.265
38.238
38.212
38.187
38.163
38.136
38.108
38.076
38.04
37.998
37.953
37.903
37.849
37.791
37.73
37.665
37.596
37.523
37.447
37.367
37.285
37.2
37.115
37.03
36.948
36.868
36.793
36.722
36.658
36.598
36.544
36.494
36.448
36.405
36.365
36.326
36.288
36.252
36.217
36.182
36.148
36.114
36.081
36.047
36.014
35.98
35.945
35.91
35.872
35.833
35.793
35.751
35.708
35.664
35.62
35.575
35.531
35.486
35.44
35.393
35.345
35.297
35.248
35.197
35.145
35.093
35.04
34.987
34.934
34.88
34.827
34.775
34.725
34.678
34.634
34.593
34.555
34.517
34.481
34.444
34.406
34.367
34.326
34.284
34.241
34.198
34.155
34.111
34.07
34.031
33.994
33.958
33.925
33.895
33.868
33.843
33.821
33.801
33.783
33.766
33.751
33.736
33.721
33.705
33.688
33.67
33.652
33.632
33.612
33.59
33.568
33.546
33.522
33.497
33.47
33.442
33.414
33.385
33.356
33.328
33.301
33.275
33.252
33.229
33.209
33.191
33.174
33.159
33.145
33.132
33.12
33.108
33.097
33.084
33.071
33.057
33.041
33.024
33.005
32.985
32.963
32.94
32.916
32.89
32.863
32.835
32.806
32.777
32.748
32.719
32.69
32.663
32.637
32.611
32.586
32.563
32.541
32.52
32.501
32.483
32.465
32.448
32.432
32.418
32.409
32.406
32.414
32.434
32.472
32.529
32.608
32.714
32.845
33.003
33.185
33.39
33.617
33.861
34.118
34.386
34.661
34.94
35.218
35.492
35.759
36.016
36.26
36.489
36.703
36.898
37.075
37.233
37.371
37.489
37.591
37.676
37.747
37.806
37.855
37.894
37.924
37.946
37.96
37.967
37.968
37.965
37.956
37.944
37.929
37.913
37.894
37.876
37.858
37.841
37.826
37.811
37.798
37.784
37.77
37.756
37.74
37.722
37.7
37.673
37.642
37.606
37.564
37.515
37.458
37.393
37.323
37.246
37.165
37.081
36.996
36.911
36.826
36.742
36.661
36.582
36.507
36.436
36.369
36.307
36.25
36.197
36.148
36.105
36.065
36.03
35.997
35.966
35.936
35.907
35.878
35.849
35.82
35.79
35.761
35.732
35.701
35.671
35.639
35.607
35.574
35.54
35.504
35.466
35.427
35.387
35.346
35.306
35.267
35.229
35.194
35.16
35.126
35.093
35.058
35.022
34.983
34.941
34.895
34.846
34.793
34.737
34.678
34.619
34.56
34.501
34.443
34.387
34.333
34.282
34.233
34.188
34.147
34.109
34.077
34.048
34.023
34.0
33.979
33.958
33.937
33.915
33.893
33.869
33.843
33.816
33.788
33.758
33.727
33.695
33.663
33.63
33.598
33.565
33.534
33.503
33.474
33.445
33.417
33.391
33.366
33.342
33.319
33.298
33.278
33.262
33.253
33.248
33.248
33.249
33.25
33.248
33.242
33.23
33.213
33.191
33.164
33.134
33.102
33.068
33.035
33.002
32.969
32.938
32.908
32.88
32.855
32.832
32.811
32.793
32.776
32.761
32.745
32.73
32.715
32.698
32.681
32.663
32.645
32.625
32.605
32.583
32.561
32.538
32.515
32.49
32.465
32.439
32.413
32.389
32.366
32.344
32.323
32.304
32.287
32.271
32.258
32.25
32.247
32.254
32.272
32.305
32.354
32.422
32.511
32.622
32.757
32.914
33.093
33.291
33.506
33.736
33.976
34.223
34.474
34.725
34.974
35.218
35.455
35.682
35.898
36.102
36.294
36.472
36.638
36.789
36.926
37.046
37.151
37.24
37.315
37.377
37.429
37.471
37.505
37.531
37.552
37.567
37.577
37.584
37.586
37.584
37.578
37.569
37.556
37.539
37.52
37.499
37.479
37.459
37.441
37.424
37.408
37.393
37.38
37.365
37.349
37.33
37.308
37.281
37.25
37.213
37.17
37.122
37.07
37.013
36.953
36.891
36.826
36.761
36.694
36.628
36.562
36.497
36.435
36.375
36.319
36.267
36.219
36.175
36.134
36.095
36.059
36.025
35.992
35.961
35.931
35.903
35.877
35.853
35.83
35.808
35.787
35.767
35.747
35.727
35.708
35.689
35.67
35.65
35.629
35.607
35.584
35.558
35.531
35.5
35.467
35.429
35.387
35.342
35.294
35.243
35.191
35.137
35.082
35.027
34.972
34.919
34.866
34.814
34.764
34.715
34.668
34.623
34.581
34.541
34.502
34.464
34.426
34.388
34.349
34.309
34.269
34.228
34.188
34.148
34.11
34.073
34.039
34.008
33.98
33.954
33.931
33.911
33.891
33.873
33.854
33.835
33.815
33.795
33.773
33.751
33.729
33.707
33.684
33.662
33.639
33.615
33.591
33.566
33.542
33.518
33.496
33.475
33.456
33.437
33.418
33.4
33.381
33.361
33.341
33.32
33.3
33.28
33.262
33.244
33.228
33.213
33.199
33.186
33.173
33.16
33.147
33.133
33.118
33.101
33.082
33.06
33.035
33.007
32.976
32.943
32.909
32.875
32.842
32.809
32.778
32.75
32.724
32.701
32.681
32.665
32.651
32.64
32.631
32.625
32.621
32.62
32.623
32.632
32.65
32.681
32.725
32.786
32.865
32.965
33.087
33.229
33.393
33.575
33.776
33.992
34.222
34.461
34.709
34.96
35.213
35.463
35.708
35.944
36.17
36.382
36.579
36.759
36.921
37.067
37.198
37.316
37.42
37.512
37.592
37.66
37.718
37.766
37.804
37.832
37.851
37.862
37.865
37.862
37.853
37.841
37.828
37.815
37.802
37.79
37.778
37.767
37.757
37.747
37.738
37.729
37.718
37.705
37.69
37.672
37.65
37.624
37.593
37.559
37.519
37.474
37.424
37.368
37.308
37.244
37.177
37.108
37.04
36.972
36.906
36.842
36.78
36.722
36.667
36.617
36.57
36.527
36.489
36.453
36.42
36.389
36.359
36.331
36.302
36.273
36.244
36.213
36.182
36.151
36.12
36.089
36.058
36.027
35.996
35.964
35.933
35.902
35.871
35.84
35.809
35.778
35.746
35.714
35.68
35.645
35.608
35.57
35.529
35.487
35.442
35.396
35.349
35.301
35.251
35.201
35.149
35.096
35.042
34.987
34.932
34.877
34.824
34.771
34.72
34.67
34.623
34.576
34.532
34.49
34.45
34.414
34.381
34.351
34.323
34.297
34.272
34.248
34.224
34.199
34.174
34.147
34.12
34.092
34.063
34.033
34.002
33.97
33.939
33.909
33.88
33.852
33.826
33.801
33.778
33.756
33.735
33.716
33.699
33.683
33.668
33.655
33.642
33.629
33.615
33.599
33.58
33.556
33.529
33.498
33.465
33.432
33.398
33.365
33.334
33.305
33.277
33.251
33.227
33.205
33.185
33.165
33.147
33.129
33.111
33.094
33.078
33.062
33.047
33.032
33.018
33.004
32.99
32.976
32.964
32.952
32.941
32.929
32.918
32.904
32.889
32.871
32.852
32.829
32.805
32.78
32.754
32.728
32.703
32.679
32.657
32.639
32.627
32.623
32.629
32.65
32.687
32.744
32.823
32.925
33.054
33.208
33.388
33.591
33.816
34.06
34.318
