Trial 3:3back
35.202
35.185
35.171
35.16
35.152
35.147
35.143
35.141
35.138
35.135
35.131
35.125
35.119
35.112
35.104
35.097
35.089
35.081
35.073
35.066
35.059
35.053
35.046
35.038
35.031
35.024
35.017
35.012
35.008
35.005
35.003
35.002
35.001
35.001
35.001
34.999
34.994
34.987
34.977
34.965
34.951
34.936
34.92
34.904
34.888
34.873
34.859
34.847
34.838
34.832
34.828
34.827
34.829
34.833
34.839
34.845
34.852
34.859
34.864
34.867
34.868
34.866
34.86
34.85
34.838
34.822
34.806
34.789
34.773
34.757
34.742
34.729
34.718
34.709
34.703
34.699
34.697
34.696
34.697
34.7
34.703
34.706
34.709
34.711
34.71
34.707
34.7
34.688
34.674
34.657
34.639
34.62
34.601
34.585
34.572
34.562
34.556
34.554
34.555
34.56
34.566
34.574
34.581
34.586
34.587
34.586
34.583
34.578
34.572
34.564
34.556
34.548
34.54
34.533
34.527
34.524
34.52
34.517
34.514
34.51
34.505
34.5
34.495
34.49
34.486
34.483
34.482
34.484
34.489
34.497
34.508
34.522
34.537
34.554
34.572
34.594
34.619
34.648
34.685
34.731
34.788
34.858
34.942
35.039
35.147
35.265
35.39
35.519
35.647
35.773
35.894
36.007
36.11
36.202
36.282
36.349
36.405
36.449
36.482
36.505
36.518
36.522
36.519
36.508
36.492
36.471
36.446
36.418
36.389
36.359
36.329
36.3
36.274
36.249
36.228
36.209
36.194
36.183
36.175
36.17
36.169
36.17
36.173
36.177
36.182
36.187
36.192
36.195
36.196
36.195
36.192
36.185
36.175
36.161
36.143
36.121
36.096
36.067
36.035
36.002
35.967
35.931
35.894
35.858
35.823
35.79
35.759
35.73
35.705
35.683
35.665
35.651
35.643
35.64
35.641
35.646
35.654
35.665
35.675
35.686
35.695
35.702
35.707
35.711
35.712
35.713
35.714
35.715
35.716
35.719
35.723
35.726
35.729
35.73
35.728
35.724
35.715
35.701
35.681
35.656
35.627
35.596
35.563
35.531
35.5
35.471
35.446
35.423
35.404
35.389
35.377
35.367
35.359
35.351
35.344
35.336
35.329
35.321
35.314
35.305
35.295
35.283
35.27
35.256
35.24
35.222
35.205
35.186
35.168
35.15
35.135
35.123
35.114
35.108
35.103
35.101
35.099
35.098
35.097
35.095
35.093
35.089
35.084
35.077
35.069
35.06
35.05
35.038
35.026
35.012
34.999
34.986
34.973
34.963
34.955
34.948
34.944
34.941
34.94
34.94
34.94
34.941
34.94
34.938
34.934
34.929
34.922
34.913
34.899
34.882
34.861
34.839
34.815
34.791
34.768
34.747
34.728
34.713
34.701
34.694
34.691
34.692
34.695
34.7
34.706
34.713
34.718
34.722
34.724
34.722
34.716
34.707
34.697
34.685
34.674
34.663
34.653
34.644
34.637
34.632
34.629
34.627
34.625
34.623
34.62
34.611
34.595
34.569
34.537
34.501
34.463
34.429
34.399
34.377
34.364
34.359
34.363
34.374
34.39
34.411
34.433
34.457
34.481
34.503
34.522
34.537
34.549
34.556
34.56
34.56
34.557
34.551
34.544
34.534
34.524
34.511
34.498
34.484
34.47
34.456
34.444
34.434
34.426
34.422
34.422
34.426
34.435
34.449
34.469
34.495
34.528
34.567
34.615
34.672
34.738
34.814
34.899
34.993
35.094
35.201
35.312
35.426
35.541
35.656
35.77
35.88
35.984
36.08
36.169
36.248
36.317
36.375
36.422
36.456
36.48
36.494
36.498
36.495
36.486
36.47
36.449
36.423
36.393
36.362
36.33
36.299
36.271
36.245
36.224
36.206
36.192
36.182
36.175
36.169
36.164
36.159
36.154
36.148
36.142
36.136
36.13
36.124
36.117
36.111
36.105
36.098
36.09
36.079
36.066
36.049
36.028
36.004
35.976
35.946
35.915
35.885
35.856
35.828
35.802
35.779
35.757
35.737
35.718
35.701
35.685
35.67
35.656
35.645
35.636
35.629
35.624
35.622
35.623
35.627
35.633
35.64
35.649
35.657
35.665
35.673
35.68
35.686
35.69
35.693
35.692
35.69
35.686
35.68
35.671
35.662
35.655
35.651
35.649
35.65
35.651
35.651
35.648
35.64
35.627
35.609
35.586
35.559
35.529
35.496
35.46
35.423
35.387
35.352
35.318
35.288
35.26
35.235
35.213
35.194
35.177
35.161
35.147
35.134
35.122
35.11
35.1
35.091
35.084
35.077
35.072
35.067
35.061
35.055
35.05
35.046
35.043
35.04
35.038
35.036
35.034
35.031
35.027
35.022
35.015
35.006
34.996
34.985
34.973
34.959
34.945
34.931
34.916
34.902
34.889
34.876
34.864
34.853
34.842
34.832
34.822
34.812
34.802
34.793
34.783
34.774
34.765
34.758
34.753
34.751
34.752
34.755
34.76
34.768
34.776
34.783
34.789
34.792
34.791
34.786
34.777
34.764
34.747
34.728
34.707
34.686
34.666
34.649
34.634
34.621
34.611
34.603
34.596
34.591
34.586
34.583
34.581
34.579
34.577
34.575
34.573
34.571
34.569
34.566
34.563
34.558
34.552
34.543
34.532
34.52
34.505
34.491
34.476
34.463
34.452
34.443
34.436
34.432
34.429
34.428
34.429
34.431
34.435
34.44
34.445
34.449
34.453
34.456
34.458
34.458
34.457
34.454
34.45
34.444
34.437
34.429
34.42
34.411
34.401
34.393
34.385
34.377
34.37
34.36
34.349
34.336
34.322
34.309
34.296
34.285
34.275
34.268
34.266
34.269
34.278
34.292
34.311
34.335
34.364
34.4
34.441
34.491
34.548
34.616
34.693
34.781
34.88
34.989
35.108
35.233
35.362
35.492
35.62
35.743
35.859
35.966
36.061
36.143
36.212
36.267
36.308
36.337
36.354
36.359
36.354
36.339
36.316
36.288
36.257
36.225
36.193
36.164
36.137
36.114
36.095
36.079
36.068
36.06
36.055
36.053
36.052
36.053
36.056
36.059
36.063
36.066
36.068
36.07
36.07
36.069
36.066
36.061
36.055
36.046
36.036
36.023
36.009
35.994
35.978
35.96
35.94
35.918
35.895
35.869
35.841
35.813
35.784
35.756
35.728
35.702
35.679
35.657
35.639
35.623
35.61
35.6
35.592
35.585
35.579
35.573
35.568
35.563
35.559
35.555
35.554
35.554
35.557
35.562
35.568
35.576
35.584
35.592
35.601
35.61
35.616
35.62
35.622
35.621
35.617
35.61
35.601
35.588
35.573
35.555
35.534
35.51
35.485
35.459
35.433
35.407
35.382
35.359
35.339
35.322
35.307
35.294
35.282
35.271
35.259
35.247
35.233
35.218
35.201
35.184
35.166
35.149
35.133
35.118
35.106
35.096
35.089
35.085
35.081
35.078
35.074
35.068
35.061
35.052
35.042
35.032
35.022
35.014
35.007
35.001
34.996
34.993
34.991
34.99
34.988
34.985
34.98
34.973
34.965
34.955
34.945
34.934
34.922
34.91
34.899
34.888
34.878
34.868
34.858
34.848
34.837
34.825
34.813
34.803
34.795
34.789
34.785
34.783
34.782
34.781
34.78
34.778
34.776
34.773
34.769
34.765
34.759
34.752
34.744
34.735
34.724
34.713
34.701
34.689
34.675
34.661
34.646
34.631
34.617
34.605
34.593
34.582
34.572
34.563
34.556
34.55
34.546
34.542
34.54
34.54
34.542
34.543
34.546
34.548
34.55
34.552
34.551
34.549
34.545
34.539
34.531
34.521
34.511
34.501
34.491
34.482
34.474
34.468
34.464
34.462
34.463
34.465
34.469
34.473
34.476
34.478
34.477
34.475
34.471
34.466
34.46
34.453
34.447
34.441
34.436
34.435
34.435
34.436
34.438
34.44
34.442
34.442
34.441
34.437
34.43
34.422
34.412
34.403
34.394
34.389
34.388
34.394
34.408
34.429
34.46
34.501
34.551
34.611
34.681
34.762
34.852
34.952
35.061
35.175
35.294
35.415
35.535
35.654
35.768
35.875
35.973
36.061
36.138
36.203
36.258
36.302
36.335
36.36
36.375
36.381
36.38
36.373
36.359
36.341
36.318
36.292
36.262
36.23
36.197
36.162
36.128
36.094
36.061
36.03
36.002
35.976
35.954
35.935
35.918
35.904
35.893
35.883
35.876
35.869
35.864
35.859
35.853
35.846
35.837
35.828
35.818
35.809
35.799
35.787
35.773
35.755
35.735
35.711
35.684
35.654
35.623
35.592
35.562
35.536
35.514
35.497
35.484
35.477
35.475
35.478
35.484
35.492
35.503
35.514
35.525
35.536
35.548
35.559
35.57
35.581
35.59
35.598
35.604
35.609
35.611
35.61
35.607
35.599
35.589
35.575
35.56
35.545
35.53
35.517
35.504
35.491
35.478
35.465
35.45
35.435
35.418
35.4
35.381
35.362
35.342
35.322
35.304
35.286
35.27
35.256
35.242
35.23
35.219
35.207
35.194
35.18
35.164
35.147
35.128
35.108
35.088
35.069
35.05
35.032
35.017
35.005
34.996
34.99
34.986
34.984
34.985
34.987
34.99
34.994
34.996
34.996
34.995
34.99
34.983
34.972
34.959
34.942
34.922
34.901
34.879
34.858
34.839
34.822
34.809
34.799
34.793
34.791
34.792
34.796
34.8
34.806
34.811
34.816
34.82
34.823
34.824
34.823
34.818
34.81
34.798
34.783
34.766
34.747
34.73
34.713
34.699
34.688
34.68
34.676
34.675
34.677
34.68
34.685
34.689
34.694
34.699
34.701
34.701
34.697
34.691
34.683
34.673
34.662
34.65
34.638
34.627
34.617
34.608
34.601
34.596
34.591
34.587
34.582
34.577
34.571
34.557
34.534
34.503
34.468
34.432
34.399
34.371
34.349
34.335
34.33
34.333
34.342
34.356
34.375
34.396
34.418
34.439
34.46
34.479
34.497
34.511
34.522
34.53
34.534
34.536
34.535
34.533
34.529
34.524
34.517
34.508
34.5
34.491
34.483
34.474
34.464
34.454
34.444
34.435
34.426
34.418
34.411
34.406
34.402
34.401
34.401
34.405
34.412
34.421
34.434
34.451
34.474
34.502
34.538
34.582
34.634
34.695
34.767
34.85
34.944
35.047
35.16
35.28
35.405
35.533
35.662
35.79
35.914
36.032
36.142
36.242
36.329
36.404
36.466
36.514
36.549
36.572
36.583
36.584
36.577
36.563
36.544
36.521
36.497
36.47
36.442
36.413
36.384
36.355
36.327
36.298
36.272
36.247
36.226
36.209
36.197
36.19
36.189
36.191
36.196
36.202
36.209
36.215
36.219
36.22
36.218
36.213
36.204
36.196
36.194
36.203
36.22
36.244
36.269
36.291
36.307
36.314
36.309
36.291
36.259
36.216
36.163
36.102
36.037
35.971
35.907
35.846
35.791
35.743
35.705
35.675
35.655
35.642
35.637
35.637
35.642
35.65
35.663
35.677
35.692
35.706
35.719
35.73
35.739
35.746
35.75
35.753
35.753
35.752
35.748
35.742
35.734
35.724
35.711
35.696
35.678
35.66
35.641
35.623
35.604
35.585
35.565
35.546
35.526
35.507
35.487
35.468
35.448
35.428
35.407
35.386
35.365
35.344
35.324
35.303
35.283
35.264
35.246
35.229
35.214
35.2
35.188
35.177
35.167
35.158
35.151
35.145
35.139
35.132
35.124
35.114
35.102
35.089
35.075
35.06
35.044
35.028
35.012
34.997
34.984
34.974
34.967
34.963
34.962
34.964
34.968
34.972
34.974
34.976
34.976
34.973
34.97
34.964
34.956
34.948
34.94
34.933
34.927
34.922
34.917
34.91
34.9
34.886
34.869
34.851
34.831
34.811
34.791
34.772
34.754
34.74
34.729
34.723
34.721
34.724
34.731
34.741
34.754
34.767
34.781
34.794
34.804
34.811
34.816
34.818
34.818
34.815
34.81
34.803
34.795
34.786
34.778
34.769
34.76
34.752
34.744
34.739
34.735
34.733
34.732
34.732
34.731
34.73
34.728
34.725
34.72
34.713
34.704
34.693
34.68
34.665
34.65
34.636
34.622
34.61
34.6
34.591
34.584
34.579
34.577
34.576
34.576
34.577
34.579
34.58
34.583
34.584
34.585
34.585
34.584
34.584
34.587
34.595
34.608
34.623
34.639
34.654
34.666
34.674
34.678
34.677
34.67
34.658
34.642
34.622
34.599
34.575
34.552
34.528
34.506
34.487
34.472
34.464
34.463
34.47
34.486
34.511
34.543
34.584
34.634
34.691
34.757
34.831
34.914
35.007
35.109
35.22
35.34
35.468
35.601
35.736
35.87
35.998
36.119
36.23
36.328
36.412
36.481
36.536
36.577
36.605
36.622
36.629
36.628
36.62
36.605
36.585
36.561
36.533
36.502
36.47
36.438
36.406
36.375
36.347
36.322
36.301
36.284
36.27
36.258
36.25
36.244
36.24
36.237
36.234
36.232
36.229
36.226
36.223
36.219
36.215
36.21
36.203
36.195
36.185
36.174
36.16
36.145
36.128
36.109
36.087
36.063
36.038
36.01
35.981
35.951
35.92
35.889
35.858
35.829
35.803
35.78
35.761
35.746
35.736
35.73
35.728
35.728
35.732
35.737
35.744
35.75
35.757
35.765
35.773
35.782
35.791
35.798
35.803
35.805
35.804
35.8
35.793
35.786
35.777
35.769
35.76
35.752
35.742
35.732
35.72
35.706
35.69
35.671
35.65
35.628
35.604
35.58
35.556
35.533
35.511
35.491
35.473
35.456
35.439
35.421
35.402
35.381
35.358
35.336
35.316
35.299
35.286
35.276
35.269
35.265
35.261
35.258
35.254
35.249
35.242
35.231
35.218
35.201
35.184
35.165
35.145
35.126
35.107
35.091
35.078
35.069
35.063
35.059
35.058
35.057
35.057
35.057
35.057
35.057
35.056
35.055
35.053
35.05
35.046
35.04
35.033
35.024
35.014
35.003
34.992
34.981
34.97
34.958
34.947
34.935
34.923
34.911
34.899
34.887
34.877
34.868
34.86
34.853
34.848
34.844
34.84
34.836
34.833
34.831
34.828
34.826
34.822
34.817
34.811
34.803
34.794
34.785
34.776
34.767
34.759
34.752
34.743
34.735
34.726
34.718
34.709
34.701
34.693
34.686
34.68
34.675
34.672
34.669
34.666
34.663
34.66
34.658
34.655
34.652
34.647
34.642
34.635
34.628
34.62
34.614
34.609
34.605
34.603
34.603
34.605
34.609
34.615
34.623
34.63
34.637
34.642
34.644
34.644
34.642
34.638
34.632
34.624
34.617
34.611
34.606
34.603
34.6
34.598
34.597
34.597
34.595
34.592
34.586
34.578
34.568
34.557
34.546
34.535
34.524
34.516
34.51
34.506
34.504
34.504
34.506
34.509
34.512
34.516
34.52
34.526
34.534
34.546
34.562
34.585
34.62
34.666
34.723
34.794
34.875
34.967
35.068
35.176
35.291
35.412
35.535
35.66
35.785
35.907
36.024
36.135
36.237
36.33
36.412
36.483
36.542
36.589
36.623
36.647
36.66
36.664
36.658
36.644
36.622
36.594
36.563
36.528
36.492
36.456
36.42
36.385
36.351
36.319
36.29
36.262
36.238
36.215
36.195
36.177
36.161
36.148
36.136
36.126
36.117
36.107
36.097
36.087
36.076
36.065
36.053
36.04
36.027
36.013
35.999
35.983
35.967
35.951
35.932
35.912
35.889
35.864
35.837
35.81
35.782
35.756
35.731
35.709
35.69
35.676
35.664
35.656
35.65
35.646
35.645
35.646
35.648
35.652
35.658
35.664
35.672
35.68
35.69
35.701
35.712
35.723
35.733
35.741
35.748
35.753
35.755
35.755
35.752
35.747
35.738
35.727
35.714
35.699
35.683
35.667
35.649
35.631
35.612
35.592
35.572
35.553
35.536
35.522
35.51
35.498
35.487
35.475
35.462
35.447
35.429
35.409
35.387
35.365
35.343
35.321
35.299
35.278
35.258
35.24
35.223
35.208
35.195
35.183
35.172
35.162
35.152
35.141
35.131
35.122
35.113
35.104
35.095
35.087
35.078
35.07
35.063
35.055
35.049
35.044
35.039
35.036
35.033
35.03
35.026
35.02
35.012
35.001
34.989
34.975
34.96
34.944
34.928
34.912
34.898
34.885
34.875
34.868
34.864
34.862
34.863
34.865
34.867
34.869
34.87
34.869
34.866
34.861
34.854
34.845
34.836
34.826
34.816
34.806
34.798
34.791
34.785
34.78
34.776
34.774
34.772
34.77
34.769
34.767
34.764
34.762
34.758
34.754
34.75
34.745
34.74
34.736
34.731
34.725
34.718
34.711
34.703
34.694
34.684
34.675
34.666
34.659
34.653
34.649
34.646
34.644
34.642
34.641
34.64
34.639
34.636
34.627
34.611
34.588
34.561
34.532
34.502
34.475
34.452
34.436
34.426
34.423
34.428
34.438
34.453
34.472
34.494
34.517
34.54
34.561
34.581
34.598
34.611
34.622
34.628
34.63
34.628
34.621
34.61
34.597
34.583
34.569
34.556
34.545
34.536
34.529
34.526
34.529
34.538
34.554
34.576
34.603
34.635
34.672
34.713
34.76
34.812
34.871
34.937
35.011
35.092
35.182
35.281
35.388
35.502
35.622
35.746
35.872
35.997
36.121
36.24
36.352
36.455
36.547
36.625
36.688
36.736
36.769
36.789
36.796
36.794
36.783
36.766
36.746
36.729
36.719
36.717
36.719
36.723
36.727
36.726
36.72
36.707
36.686
36.658
36.623
36.583
36.538
36.49
36.44
36.389
36.339
36.291
36.246
36.204
36.169
36.139
36.115
36.097
36.084
36.075
36.07
36.067
36.065
36.063
36.061
36.056
36.049
36.039
36.026
36.01
35.992
35.972
35.95
35.925
35.899
35.871
35.845
35.82
35.797
35.778
35.762
35.751
35.743
35.739
35.737
35.737
35.739
35.742
35.746
35.75
35.756
35.762
35.769
35.774
35.779
35.783
35.785
35.786
35.785
35.783
35.779
35.774
35.767
35.757
35.746
35.731
35.714
35.695
35.675
35.654
35.631
35.608
35.585
35.562
35.54
35.52
35.503
35.489
35.476
35.464
35.453
35.444
35.435
35.426
35.417
35.408
35.398
35.385
35.37
35.355
35.338
35.321
35.303
35.286
35.27
35.256
35.244
35.233
35.224
35.215
35.206
35.196
35.185
35.173
35.16
35.147
35.135
35.123
35.112
35.102
35.092
35.084
35.075
35.067
35.059
35.05
35.04
35.03
35.018
35.006
34.993
34.981
34.969
34.959
34.951
34.945
34.941
34.937
34.935
34.933
34.93
34.926
34.92
34.91
34.897
34.882
34.865
34.847
34.829
34.812
34.796
34.782
34.772
34.764
34.759
34.756
34.756
34.757
34.76
34.764
34.768
34.771
34.772
34.772
34.77
34.767
34.762
34.756
34.749
34.742
34.734
34.725
34.718
34.71
34.703
34.697
34.69
34.683
34.677
34.671
34.667
34.664
34.661
34.659
34.657
34.656
34.655
34.654
34.651
34.648
34.644
34.639
34.634
34.628
34.621
34.613
34.603
34.594
34.584
34.576
34.569
34.563
34.558
34.555
34.552
34.551
34.55
34.549
34.547
34.545
34.541
34.536
34.531
34.526
34.522
34.52
34.519
34.52
34.524
34.529
34.534
34.538
34.541
34.542
34.54
34.537
34.532
34.525
34.519
34.512
34.505
34.499
34.495
34.492
34.491
34.49
34.49
34.49
34.49
34.489
34.487
34.485
34.482
34.479
34.477
34.478
34.483
34.494
34.513
34.542
34.582
34.633
34.698
34.775
34.864
34.966
35.08
35.203
35.333
35.47
35.61
35.752
35.891
36.027
36.155
36.274
36.383
36.48
36.562
36.631
36.685
36.725
36.752
36.768
36.774
36.77
36.758
36.739
36.715
36.686
36.654
36.621
36.587
36.553
36.52
36.488
36.457
36.428
36.4
36.374
36.35
36.326
36.304
36.285
36.269
36.258
36.25
36.246
36.244
36.244
36.245
36.248
36.25
36.253
36.255
36.256
36.253
36.247
36.236
36.221
36.202
36.177
36.147
36.113
36.075
36.035
35.995
35.955
35.918
35.883
35.853
35.827
35.807
35.793
35.783
35.777
35.774
35.772
35.77
35.769
35.768
35.768
35.771
35.776
35.785
35.795
35.805
35.816
35.826
35.833
35.837
35.838
35.835
35.83
35.821
35.81
35.798
35.784
35.769
35.754
35.739
35.724
35.709
35.693
35.675
35.655
35.634
35.611
35.587
35.562
35.537
35.512
35.487
35.463
35.441
35.422
35.404
35.389
35.376
35.365
35.356
35.348
35.341
35.334
35.327
35.319
35.311
35.302
35.293
35.282
35.27
35.256
35.241
35.225
35.208
35.192
35.175
35.159
35.145
35.131
35.119
35.109
35.1
35.093
35.086
35.079
35.073
35.066
35.06
35.054
35.046
35.038
35.029
35.019
35.007
34.995
34.983
34.971
34.96
34.95
34.943
34.939
34.937
34.937
34.938
34.94
34.943
34.945
34.946
34.946
34.945
34.942
34.939
34.934
34.929
34.924
34.92
34.916
34.911
34.906
34.899
34.891
34.88
34.867
34.852
34.836
34.819
34.802
34.785
34.766
34.747
34.727
34.709
34.693
34.679
34.669
34.661
34.656
34.653
34.652
34.653
34.656
34.659
34.663
34.667
34.671
34.674
34.677
34.68
34.681
34.681
34.679
34.674
34.667
34.657
34.646
34.634
34.622
34.61
34.599
34.589
34.581
34.577
34.576
34.577
34.58
34.584
34.591
34.597
34.602
34.606
34.607
34.606
34.603
34.598
34.591
34.583
34.574
34.563
34.552
34.54
34.529
34.519
34.51
34.502
34.496
34.493
34.491
34.493
34.496
34.5
34.504
34.508
34.511
34.512
34.512
34.51
34.508
34.504
34.498
34.492
34.485
34.478
34.471
34.465
34.463
34.464
34.472
34.486
34.509
34.542
34.584
34.638
34.704
34.782
34.87
34.969
35.077
35.194
35.316
35.445
35.576
35.71
35.842
35.971
36.096
36.214
36.325
36.427
36.519
36.599
36.667
36.721
36.763
36.791
36.805
36.807
36.798
36.779
36.751
36.716
36.676
36.633
36.589
36.546
36.504
36.464
36.427
36.393
36.362
36.335
36.312
36.292
36.275
36.263
36.253
36.246
36.242
