Trial 3:3back
34.978
34.952
34.925
34.897
34.867
34.836
34.804
34.77
34.736
34.702
34.668
34.635
34.604
34.575
34.549
34.524
34.502
34.482
34.462
34.441
34.42
34.398
34.374
34.349
34.323
34.295
34.266
34.237
34.209
34.182
34.156
34.131
34.108
34.085
34.061
34.036
34.011
33.984
33.958
33.932
33.905
33.88
33.854
33.831
33.809
33.789
33.771
33.755
33.74
33.726
33.713
33.701
33.69
33.682
33.678
33.681
33.693
33.715
33.749
33.797
33.861
33.942
34.042
34.16
34.297
34.45
34.619
34.799
34.987
35.18
35.375
35.57
35.759
35.942
36.114
36.274
36.419
36.55
36.664
36.764
36.849
36.92
36.975
37.017
37.044
37.056
37.056
37.044
37.021
36.989
36.948
36.901
36.849
36.795
36.739
36.684
36.632
36.581
36.533
36.488
36.446
36.407
36.37
36.335
36.299
36.262
36.224
36.183
36.14
36.094
36.047
35.999
35.948
35.896
35.843
35.787
35.73
35.672
35.615
35.559
35.506
35.455
35.408
35.366
35.329
35.298
35.271
35.249
35.232
35.219
35.211
35.207
35.206
35.208
35.212
35.218
35.223
35.229
35.234
35.237
35.239
35.239
35.238
35.234
35.229
35.222
35.212
35.201
35.187
35.172
35.156
35.139
35.121
35.101
35.079
35.054
35.027
34.998
34.969
34.941
34.915
34.891
34.869
34.849
34.831
34.813
34.797
34.782
34.766
34.75
34.734
34.715
34.693
34.669
34.643
34.614
34.584
34.553
34.52
34.486
34.45
34.412
34.373
34.332
34.292
34.253
34.216
34.181
34.149
34.119
34.091
34.065
34.041
34.02
34.002
33.985
33.97
33.957
33.944
33.931
33.918
33.903
33.887
33.868
33.847
33.823
33.797
33.769
33.739
33.708
33.677
33.647
33.62
33.597
33.578
33.566
33.562
33.567
33.583
33.612
33.655
33.713
33.786
33.874
33.978
34.096
34.226
34.369
34.523
34.687
34.858
35.037
35.219
35.404
35.589
35.772
35.951
36.123
36.286
36.44
36.581
36.71
36.824
36.922
37.004
37.068
37.115
37.146
37.164
37.168
37.16
37.14
37.109
37.069
37.021
36.968
36.91
36.849
36.786
36.724
36.663
36.606
36.552
36.501
36.454
36.409
36.365
36.323
36.28
36.237
36.193
36.149
36.105
36.06
36.016
35.971
35.925
35.88
35.836
35.794
35.755
35.717
35.682
35.649
35.616
35.584
35.553
35.523
35.493
35.464
35.437
35.411
35.388
35.367
35.349
35.334
35.321
35.31
35.302
35.296
35.291
35.288
35.285
35.283
35.281
35.279
35.278
35.279
35.282
35.284
35.286
35.288
35.287
35.284
35.278
35.268
35.254
35.236
35.216
35.194
35.169
35.143
35.114
35.082
35.048
35.011
34.972
34.933
34.895
34.858
34.825
34.795
34.767
34.743
34.721
34.701
34.683
34.665
34.647
34.628
34.608
34.586
34.562
34.535
34.506
34.474
34.44
34.406
34.37
34.333
34.295
34.256
34.217
34.178
34.14
34.105
34.071
34.039
34.009
33.982
33.957
33.936
33.917
33.9
33.885
33.872
33.862
33.852
33.841
33.83
33.816
33.8
33.78
33.757
33.731
33.7
33.668
33.633
33.599
33.567
33.537
33.514
33.499
33.497
33.508
33.535
33.581
33.646
33.73
33.835
33.958
34.098
34.253
34.42
34.596
34.78
34.969
35.16
35.35
35.538
35.721
35.898
36.067
36.227
36.373
36.506
36.623
36.725
36.813
36.886
36.945
36.99
37.023
37.044
37.054
37.054
37.046
37.029
37.005
36.974
36.939
36.899
36.854
36.807
36.758
36.706
36.653
36.599
36.546
36.494
36.441
36.388
36.335
36.279
36.222
36.164
36.104
36.043
35.982
35.922
35.865
35.811
35.759
35.711
35.667
35.626
35.588
35.555
35.526
35.5
35.475
35.451
35.428
35.405
35.382
35.361
35.34
35.32
35.302
35.287
35.275
35.265
35.258
35.253
35.25
35.247
35.244
35.242
35.239
35.235
35.23
35.225
35.219
35.212
35.204
35.196
35.188
35.178
35.169
35.16
35.152
35.142
35.131
35.119
35.105
35.09
35.076
35.062
35.049
35.036
35.021
35.006
34.988
34.968
34.945
34.918
34.889
34.856
34.82
34.782
34.742
34.701
34.661
34.622
34.586
34.553
34.523
34.496
34.471
34.448
34.427
34.407
34.388
34.37
34.352
34.333
34.314
34.293
34.271
34.246
34.22
34.193
34.165
34.138
34.111
34.085
34.061
34.038
34.015
33.994
33.973
33.953
33.933
33.913
33.893
33.872
33.851
33.829
33.807
33.784
33.761
33.739
33.719
33.703
33.692
33.688
33.694
33.711
33.74
33.785
33.846
33.924
34.02
34.135
34.267
34.415
34.579
34.756
34.944
35.141
35.343
35.547
35.748
35.942
36.126
36.297
36.453
36.592
36.715
36.82
36.909
36.981
37.037
37.078
37.105
37.117
37.117
37.107
37.086
37.058
37.022
36.98
36.933
36.882
36.827
36.769
36.711
36.652
36.594
36.538
36.483
36.43
36.38
36.331
36.284
36.238
36.192
36.147
36.102
36.057
36.013
35.968
35.923
35.875
35.826
35.776
35.725
35.673
35.62
35.566
35.513
35.461
35.412
35.366
35.324
35.286
35.252
35.224
35.2
35.181
35.167
35.157
35.151
35.147
35.147
35.149
35.152
35.157
35.163
35.169
35.174
35.178
35.181
35.181
35.178
35.174
35.168
35.159
35.149
35.135
35.12
35.102
35.082
35.062
35.041
35.021
35.001
34.982
34.963
34.943
34.925
34.907
34.89
34.874
34.859
34.845
34.829
34.812
34.792
34.769
34.743
34.715
34.683
34.65
34.615
34.578
34.541
34.504
34.468
34.433
34.398
34.365
34.334
34.303
34.272
34.24
34.208
34.176
34.146
34.117
34.091
34.067
34.046
34.028
34.012
33.997
33.983
33.968
33.951
33.932
33.911
33.886
33.858
33.828
33.795
33.761
33.726
33.692
33.659
33.627
33.599
33.574
33.552
33.534
33.519
33.508
33.504
33.507
33.518
33.54
33.574
33.62
33.681
33.756
33.848
33.958
34.087
34.233
34.395
34.571
34.758
34.953
35.151
35.351
35.55
35.743
35.93
36.108
36.274
36.428
36.566
36.689
36.796
36.887
36.962
37.023
37.069
37.102
37.122
37.129
37.126
37.111
37.087
37.055
37.015
36.97
36.92
36.868
36.815
36.761
36.705
36.649
36.593
36.536
36.48
36.424
36.369
36.314
36.259
36.203
36.147
36.09
36.033
35.977
35.921
35.867
35.813
35.762
35.712
35.664
35.617
35.571
35.528
35.486
35.447
35.409
35.375
35.343
35.316
35.295
35.277
35.264
35.252
35.242
35.234
35.228
35.224
35.221
35.219
35.216
35.212
35.207
35.201
35.193
35.185
35.176
35.167
35.157
35.147
35.137
35.127
35.115
35.102
35.088
35.073
35.057
35.042
35.027
35.013
34.999
34.987
34.977
34.969
34.96
34.951
34.94
34.927
34.911
34.892
34.87
34.846
34.818
34.788
34.756
34.723
34.688
34.653
34.618
34.584
34.549
34.514
34.478
34.442
34.405
34.369
34.334
34.3
34.268
34.238
34.211
34.187
34.166
34.149
34.134
34.119
34.103
34.086
34.065
34.042
34.017
33.99
33.96
33.928
33.896
33.862
33.829
33.796
33.764
33.735
33.709
33.686
33.667
33.65
33.635
33.622
33.611
33.601
33.594
33.589
33.588
33.591
33.601
33.618
33.646
33.687
33.744
33.818
33.912
34.024
34.155
34.303
34.468
34.647
34.838
35.039
35.246
35.456
35.665
35.87
36.067
36.254
36.428
36.588
36.732
36.858
36.965
37.055
37.127
37.181
37.219
37.24
37.245
37.236
37.213
37.179
37.135
37.085
37.03
36.97
36.907
36.841
36.774
36.707
36.641
36.576
36.513
36.452
36.395
36.34
36.289
36.24
36.193
36.147
36.1
36.052
36.003
35.952
35.899
35.844
35.788
35.731
35.674
35.619
35.566
35.515
35.469
35.426
35.389
35.354
35.323
35.295
35.268
35.243
35.219
35.198
35.179
35.161
35.146
35.133
35.122
35.114
35.108
35.105
35.104
35.105
35.108
35.113
35.119
35.124
35.129
35.132
35.133
35.132
35.128
35.124
35.119
35.112
35.103
35.092
35.079
35.062
35.042
35.019
34.995
34.969
34.942
34.915
34.887
34.857
34.825
34.791
34.756
34.72
34.684
34.649
34.615
34.582
34.55
34.519
34.489
34.461
34.435
34.411
34.389
34.368
34.347
34.326
34.305
34.284
34.262
34.241
34.219
34.197
34.173
34.147
34.12
34.091
34.061
34.03
33.999
33.968
33.94
33.914
33.89
33.869
33.848
33.829
33.81
33.791
33.771
33.751
33.729
33.706
33.681
33.655
33.627
33.598
33.569
33.541
33.514
33.49
33.47
33.454
33.442
33.437
33.44
33.453
33.479
33.519
33.577
33.652
33.746
33.858
33.988
34.134
34.297
34.474
34.662
34.859
35.062
35.266
35.469
35.667
35.858
36.039
36.209
36.366
36.509
36.636
36.747
36.842
36.921
36.983
37.029
37.059
37.074
37.075
37.065
37.044
37.016
36.982
36.942
36.897
36.849
36.799
36.748
36.698
36.647
36.596
36.544
36.492
36.438
36.385
36.332
36.279
36.226
36.175
36.125
36.075
36.027
35.979
35.93
35.88
35.829
35.777
35.723
35.67
35.618
35.566
35.516
35.468
35.423
35.382
35.345
35.312
35.284
35.26
35.24
35.224
35.212
35.202
35.194
35.187
35.181
35.176
35.172
35.171
35.171
35.175
35.18
35.188
35.198
35.209
35.221
35.233
35.244
35.254
35.262
35.268
35.272
35.274
35.274
35.271
35.265
35.257
35.246
35.231
35.213
35.193
35.168
35.141
35.112
35.081
35.05
35.02
34.99
34.963
34.937
34.913
34.889
34.867
34.845
34.823
34.8
34.776
34.751
34.724
34.697
34.67
34.644
34.618
34.593
34.569
34.546
34.523
34.5
34.477
34.452
34.426
34.399
34.372
34.343
34.312
34.282
34.251
34.222
34.194
34.168
34.142
34.118
34.093
34.069
34.045
34.021
33.998
33.976
33.954
33.933
33.915
33.9
33.89
33.886
33.892
33.909
33.939
33.984
34.045
34.122
34.215
34.325
34.451
34.595
34.753
34.925
35.107
35.297
35.491
35.687
35.881
36.071
36.252
36.422
36.579
36.723
36.852
36.966
37.063
37.144
37.209
37.257
37.29
37.311
37.319
37.317
37.305
37.285
37.258
37.223
37.181
37.133
37.08
37.022
36.961
36.899
36.835
36.771
36.708
36.646
36.586
36.526
36.468
36.41
36.353
36.295
36.237
36.179
36.121
36.062
36.003
35.942
35.881
35.82
35.76
35.702
35.646
35.593
35.544
35.5
35.461
35.428
35.401
35.38
35.362
35.348
35.337
35.328
35.322
35.318
35.316
35.316
35.317
35.319
35.323
35.327
35.333
35.339
35.344
35.348
35.351
35.351
35.35
35.347
35.341
35.333
35.323
35.311
35.297
35.281
35.262
35.242
35.222
35.201
35.181
35.162
35.143
35.125
35.107
35.089
35.071
35.053
35.034
35.013
34.99
34.965
34.939
34.911
34.882
34.85
34.817
34.782
34.746
34.711
34.677
34.644
34.611
34.578
34.546
34.512
34.477
34.44
34.403
34.365
34.327
34.291
34.258
34.228
34.202
34.179
34.159
34.144
34.131
34.12
34.11
34.099
34.086
34.07
34.051
34.028
34.001
33.97
33.936
33.9
33.863
33.828
33.797
33.771
33.755
33.75
33.76
33.785
33.829
33.891
33.974
34.078
34.203
34.347
34.51
34.689
34.882
35.086
35.297
35.511
35.724
35.933
36.133
36.322
36.496
36.656
36.799
36.927
37.039
37.135
37.216
37.282
37.334
37.372
37.397
37.41
37.411
37.402
37.383
37.355
37.32
37.279
37.233
37.182
37.127
37.07
37.01
36.95
36.888
36.827
36.766
36.707
36.648
36.591
36.536
36.482
36.429
36.377
36.326
36.274
36.223
36.171
36.118
36.064
36.008
35.952
35.895
35.837
35.779
35.723
35.668
35.616
35.566
35.52
35.477
35.439
35.406
35.38
35.36
35.347
35.341
35.34
35.345
35.355
35.37
35.388
35.408
35.428
35.445
35.46
35.47
35.475
35.474
35.468
35.456
35.44
35.42
35.398
35.374
35.349
35.323
35.296
35.269
35.241
35.215
35.19
35.166
35.142
35.119
35.096
35.074
35.051
35.029
35.008
34.986
34.966
34.947
34.929
34.911
34.893
34.873
34.852
34.828
34.801
34.772
34.741
34.707
34.671
34.632
34.59
34.547
34.504
34.461
34.418
34.376
34.335
34.295
34.257
34.22
34.186
34.155
34.127
34.1
34.076
34.055
34.035
34.017
34.001
33.984
33.965
33.944
33.921
33.895
33.867
33.837
33.805
33.772
33.738
33.705
33.673
33.644
33.622
33.608
33.607
33.62
33.647
33.692
33.755
33.837
33.939
34.06
34.199
34.356
34.529
34.715
34.912
35.118
35.329
35.543
35.757
35.967
36.171
36.366
36.549
36.718
36.87
37.003
37.116
37.209
37.281
37.334
37.368
37.387
37.39
37.38
37.359
37.329
37.29
37.246
37.197
37.144
37.09
37.034
36.978
36.922
36.868
36.813
36.759
36.704
36.649
36.595
36.542
36.49
36.44
36.393
36.347
36.304
36.263
36.221
36.179
36.135
36.089
36.041
35.992
35.94
35.888
35.835
35.782
35.732
35.684
35.639
35.599
35.564
35.533
35.508
35.489
35.473
35.462
35.452
35.444
35.436
35.429
35.423
35.419
35.415
35.413
35.413
35.413
35.413
35.414
35.415
35.415
35.415
35.414
35.414
35.413
35.411
35.407
35.402
35.394
35.385
35.375
35.362
35.348
35.333
35.316
35.297
35.277
35.255
35.231
35.204
35.176
35.146
35.114
35.081
35.047
35.014
34.979
34.943
34.907
34.871
34.834
34.798
34.763
34.728
34.695
34.663
34.634
34.606
34.58
34.556
34.532
34.508
34.484
34.457
34.428
34.397
34.362
34.326
34.29
34.252
34.215
34.179
34.144
34.111
34.081
34.053
34.029
34.008
33.989
33.974
33.96
33.947
33.933
33.919
33.902
33.884
33.864
33.842
33.82
33.797
33.777
33.761
33.751
33.751
33.762
33.788
33.83
33.89
33.971
34.072
34.193
34.334
34.492
34.665
34.851
35.047
35.251
35.459
35.668
35.875
36.075
36.265
36.442
36.605
36.753
36.884
37.0
37.102
37.189
37.261
37.32
37.365
37.396
37.413
37.416
37.406
37.383
37.35
37.307
37.258
37.204
37.147
37.09
37.033
36.979
36.927
36.877
36.829
36.782
36.737
36.693
36.649
36.605
36.561
36.516
36.469
36.421
36.372
36.321
36.269
36.216
36.163
36.111
36.059
36.008
35.959
35.911
35.865
35.821
35.78
35.743
35.708
35.676
35.647
35.621
35.599
35.58
35.565
35.551
35.541
35.533
35.529
35.528
35.531
35.536
35.543
35.551
35.56
35.567
35.573
35.578
35.58
35.579
35.576
35.57
35.562
35.551
35.539
35.525
35.51
35.494
35.477
35.46
35.441
35.421
35.4
35.377
35.353
35.327
35.3
35.271
35.24
35.208
35.174
35.141
35.107
35.074
35.042
35.009
34.977
34.944
34.911
34.879
34.847
34.815
34.785
34.756
34.729
34.703
34.679
34.656
34.634
34.612
34.59
34.568
34.544
34.518
34.49
34.461
34.431
34.4
34.369
34.338
34.308
34.277
34.245
34.212
34.177
34.14
34.102
34.064
34.027
33.993
33.96
33.931
33.905
33.884
33.868
33.86
33.861
33.872
33.895
33.932
33.983
34.049
34.13
34.225
34.335
34.46
34.599
34.75
34.913
35.084
35.261
35.441
35.622
35.801
35.976
36.143
36.301
36.448
36.583
36.704
36.811
36.903
36.979
37.04
37.087
37.12
37.14
37.148
37.145
37.132
37.11
37.08
37.044
37.002
36.957
36.908
36.857
36.804
36.749
36.694
36.639
36.586
36.533
36.481
36.43
36.38
36.33
36.282
36.234
36.187
36.14
36.093
36.045
35.994
35.942
35.887
35.83
35.772
35.713
35.654
35.596
35.54
35.487
35.439
35.397
35.361
35.332
35.308
35.291
35.278
35.269
35.264
35.261
35.259
35.259
35.259
35.261
35.263
35.266
35.269
35.271
35.272
35.269
35.263
35.255
35.245
35.233
35.22
35.206
35.191
35.175
35.158
35.141
35.124
35.106
35.088
35.07
35.053
35.035
35.018
35.002
34.987
34.972
34.958
34.944
34.931
34.918
34.904
34.89
34.874
34.857
34.838
34.816
34.791
34.761
34.729
34.695
34.66
34.622
34.584
34.544
34.503
34.462
34.422
34.383
34.347
34.313
34.282
34.253
34.225
34.199
34.172
34.146
34.121
34.096
34.073
34.051
34.03
34.01
33.991
33.973
33.955
33.937
33.92
33.902
33.883
33.863
33.841
33.818
33.794
33.77
33.747
33.725
33.705
33.688
33.675
33.668
33.668
33.678
33.7
33.735
33.784
33.85
33.933
34.032
34.148
34.28
34.426
34.585
34.755
34.934
35.118
35.304
35.49
35.673
35.848
36.012
36.161
36.294
36.41
36.508
36.588
36.651
36.7
36.733
36.754
36.764
36.764
36.754
36.736
36.708
36.673
36.631
36.583
36.531
36.477
36.422
36.365
36.309
36.253
36.199
36.147
36.097
36.048
36.0
35.954
35.909
35.864
35.82
35.776
35.732
35.687
35.643
35.599
35.556
35.515
35.474
35.434
35.395
35.359
35.323
35.29
35.258
35.227
35.198
35.17
35.144
35.118
35.092
35.067
35.042
35.021
35.002
34.988
34.978
34.974
34.974
34.979
34.989
35.003
35.019
35.036
35.052
35.066
35.078
35.087
35.093
35.097
35.096
35.092
35.085
35.074
35.061
35.046
35.029
35.011
34.993
34.974
34.955
34.934
34.912
34.889
34.864
34.84
34.816
34.792
34.77
34.748
34.726
34.705
34.683
34.662
34.641
34.621
34.6
34.579
34.557
34.534
34.512
34.488
34.465
34.44
34.415
34.391
34.366
34.343
34.319
34.295
34.269
34.24
34.209
34.177
34.144
34.111
34.079
34.049
34.021
33.997
33.976
33.959
33.944
33.932
33.921
33.911
33.901
33.889
33.874
33.856
33.836
33.813
33.788
33.764
33.74
33.718
33.7
33.687
33.681
33.684
33.698
33.725
33.767
33.823
33.894
33.98
34.081
34.196
34.326
34.467
34.619
34.78
34.948
35.121
35.295
35.467
35.635
35.795
35.945
36.083
36.207
36.317
36.413
36.496
36.566
36.621
36.664
36.694
36.713
36.72
36.717
36.705
36.685
36.659
36.627
36.592
36.554
36.512
36.469
36.424
36.377
36.328
36.276
36.223
36.169
36.114
36.059
36.003
35.947
35.893
35.839
35.788
35.738
35.688
35.64
35.593
35.547
35.503
35.461
35.421
35.382
35.345
35.31
35.279
35.251
35.227
35.209
35.194
35.183
35.175
35.169
35.162
35.156
35.149
35.142
35.136
35.13
35.124
35.119
35.114
35.109
35.103
35.098
35.093
35.089
35.086
35.085
35.085
35.088
35.093
35.1
35.108
35.116
35.124
35.13
35.135
35.137
35.135
35.129
35.119
35.103
35.084
35.061
35.038
35.014
34.99
34.966
34.942
34.917
34.89
34.863
34.834
34.804
34.773
34.741
34.708
34.674
34.639
34.604
34.569
34.535
34.503
34.472
34.444
34.417
34.392
34.368
34.346
34.326
34.307
34.289
34.271
34.254
34.236
34.22
34.203
34.186
34.168
34.148
34.128
34.107
34.085
34.063
34.041
34.019
33.996
33.972
33.947
33.92
33.893
33.864
33.835
33.807
33.779
33.754
33.731
33.711
33.697
33.689
33.69
33.703
33.729
33.772
33.832
33.911
34.01
34.127
34.261
34.41
34.572
34.743
34.922
35.103
35.286
35.465
35.639
35.803
35.957
36.099
36.228
36.345
36.449
36.539
36.616
36.68
36.732
36.772
36.8
36.815
36.819
36.813
36.798
36.776
36.749
36.717
36.68
36.64
36.596
36.55
36.503
36.456
36.409
36.363
36.32
36.279
36.241
36.206
36.171
36.138
36.104
36.068
36.032
35.994
35.956
35.917
35.878
35.839
35.8
35.761
35.722
35.684
35.645
35.606
35.569
35.534
35.501
35.471
35.444
35.421
35.4
35.382
35.367
35.356
35.346
35.34
35.335
35.333
35.332
35.333
35.335
35.338
35.341
35.344
35.348
35.353
35.358
35.363
35.368
35.372
35.373
35.372
35.368
35.363
35.356
35.35
35.343
35.336
35.329
35.322
35.313
35.302
35.289
35.273
35.254
35.232
35.207
35.18
35.152
35.123
35.093
35.063
35.032
35.001
34.971
34.941
34.912
34.885
34.857
34.831
34.804
34.778
34.753
34.727
34.703
34.679
34.656
34.634
34.613
34.591
34.57
34.548
34.526
34.504
34.482
34.459
34.437
34.414
34.391
34.369
34.347
34.325
34.304
34.283
34.263
34.242
34.221
34.2
34.179
34.156
34.132
34.106
34.08
34.054
34.029
34.004
33.983
33.965
33.951
33.945
33.946
33.958
33.983
34.022
34.078
34.15
34.239
34.345
34.467
34.606
34.758
34.922
35.096
35.275
35.456
35.634
35.806
35.971
36.126
36.269
36.4
36.516
36.619
36.71
36.787
36.854
36.907
36.949
36.977
36.994
37.0
36.997
36.985
36.966
36.943
36.916
36.886
36.856
36.824
36.792
36.757
36.721
36.683
36.644
36.603
36.563
36.522
36.482
36.441
36.399
36.357
36.315
36.271
36.228
36.184
36.14
36.096
36.052
36.009
35.966
35.923
35.881
35.839
35.797
35.756
35.716
35.678
35.642
35.609
35.579
35.554
35.532
35.514
35.5
35.49
35.484
35.481
35.481
35.483
35.485
35.488
35.489
35.49
35.489
35.488
35.487
35.486
35.486
35.486
35.486
35.486
35.485
35.485
35.483
35.479
35.474
35.467
