Trial 3:3back
35.08
35.029
34.974
34.916
34.859
34.804
34.751
34.703
34.66
34.622
34.59
34.563
34.542
34.526
34.513
34.503
34.493
34.483
34.472
34.459
34.444
34.426
34.405
34.382
34.355
34.328
34.3
34.274
34.25
34.229
34.212
34.198
34.189
34.183
34.18
34.179
34.179
34.178
34.177
34.173
34.168
34.159
34.148
34.135
34.118
34.1
34.081
34.061
34.04
34.021
34.002
33.984
33.967
33.952
33.939
33.929
33.922
33.919
33.921
33.929
33.943
33.967
34.001
34.05
34.12
34.211
34.322
34.452
34.596
34.751
34.914
35.081
35.251
35.419
35.584
35.745
35.9
36.048
36.188
36.319
36.44
36.551
36.65
36.736
36.808
36.867
36.913
36.944
36.962
36.967
36.961
36.944
36.919
36.887
36.851
36.811
36.771
36.73
36.691
36.653
36.615
36.578
36.541
36.503
36.464
36.424
36.383
36.34
36.295
36.25
36.204
36.157
36.112
36.067
36.023
35.982
35.942
35.905
35.871
35.842
35.816
35.795
35.778
35.765
35.755
35.747
35.741
35.737
35.734
35.731
35.729
35.728
35.727
35.728
35.731
35.736
35.743
35.752
35.762
35.772
35.784
35.796
35.808
35.821
35.834
35.847
35.857
35.865
35.869
35.87
35.865
35.854
35.836
35.811
35.779
35.74
35.696
35.647
35.595
35.541
35.486
35.431
35.378
35.327
35.278
35.231
35.186
35.142
35.099
35.056
35.013
34.969
34.924
34.879
34.834
34.788
34.742
34.696
34.652
34.609
34.569
34.53
34.494
34.461
34.432
34.405
34.383
34.364
34.347
34.332
34.319
34.306
34.293
34.28
34.266
34.252
34.236
34.22
34.205
34.189
34.175
34.161
34.149
34.139
34.131
34.124
34.119
34.115
34.11
34.105
34.099
34.091
34.081
34.07
34.058
34.045
34.03
34.016
34.0
33.984
33.968
33.954
33.942
33.935
33.931
33.933
33.942
33.958
33.983
34.019
34.066
34.126
34.201
34.291
34.396
34.517
34.652
34.801
34.961
35.13
35.306
35.486
35.668
35.849
36.027
36.2
36.366
36.523
36.67
36.807
36.931
37.042
37.138
37.219
37.284
37.332
37.362
37.376
37.373
37.356
37.324
37.281
37.228
37.169
37.105
37.04
36.975
36.912
36.852
36.796
36.744
36.696
36.652
36.611
36.573
36.538
36.505
36.474
36.445
36.416
36.386
36.355
36.322
36.288
36.251
36.212
36.171
36.129
36.087
36.046
36.008
35.973
35.943
35.919
35.902
35.891
35.886
35.888
35.894
35.903
35.916
35.929
35.942
35.953
35.962
35.969
35.971
35.971
35.967
35.96
35.951
35.94
35.929
35.918
35.908
35.9
35.894
35.889
35.885
35.88
35.872
35.862
35.846
35.824
35.796
35.76
35.717
35.668
35.613
35.555
35.495
35.434
35.375
35.318
35.265
35.215
35.17
35.129
35.093
35.06
35.03
35.001
34.973
34.944
34.913
34.88
34.844
34.805
34.765
34.723
34.682
34.642
34.604
34.569
34.537
34.508
34.483
34.461
34.442
34.426
34.412
34.4
34.389
34.38
34.373
34.365
34.358
34.352
34.345
34.337
34.329
34.32
34.31
34.3
34.288
34.275
34.261
34.247
34.231
34.216
34.2
34.186
34.171
34.158
34.144
34.131
34.117
34.102
34.086
34.069
34.052
34.034
34.016
34.002
33.994
34.0
34.023
34.064
34.124
34.202
34.296
34.404
34.525
34.657
34.798
34.947
35.1
35.258
35.416
35.573
35.728
35.879
36.024
36.162
36.291
36.411
36.521
36.62
36.709
36.788
36.858
36.92
36.973
37.018
37.054
37.081
37.099
37.106
37.102
37.088
37.063
37.028
36.984
36.932
36.875
36.814
36.75
36.687
36.624
36.563
36.505
36.449
36.397
36.349
36.303
36.258
36.215
36.174
36.135
36.096
36.058
36.022
35.985
35.95
35.915
35.881
35.848
35.817
35.787
35.759
35.733
35.708
35.686
35.664
35.644
35.627
35.612
35.6
35.593
35.591
35.593
35.6
35.61
35.624
35.639
35.655
35.669
35.681
35.689
35.693
35.69
35.683
35.67
35.652
35.631
35.607
35.582
35.557
35.533
35.51
35.488
35.467
35.445
35.42
35.393
35.361
35.325
35.284
35.237
35.186
35.131
35.073
35.012
34.951
34.891
34.832
34.776
34.723
34.676
34.634
34.597
34.565
34.538
34.515
34.493
34.473
34.451
34.427
34.4
34.369
34.333
34.294
34.251
34.205
34.159
34.115
34.072
34.034
34.0
33.972
33.949
33.933
33.922
33.915
33.912
33.911
33.911
33.911
33.91
33.907
33.901
33.893
33.882
33.869
33.855
33.84
33.826
33.814
33.803
33.797
33.801
33.814
33.837
33.867
33.9
33.932
33.96
33.98
33.99
33.987
33.972
33.943
33.902
33.851
33.793
33.731
33.668
33.608
33.556
33.513
33.483
33.469
33.472
33.494
33.536
33.598
33.68
33.782
33.901
34.035
34.183
34.342
34.51
34.683
34.86
35.037
35.212
35.383
35.547
35.703
35.848
35.982
36.103
36.211
36.306
36.388
36.457
36.513
36.557
36.588
36.606
36.612
36.606
36.59
36.564
36.529
36.486
36.437
36.382
36.322
36.259
36.193
36.126
36.061
35.997
35.937
35.881
35.831
35.786
35.748
35.715
35.686
35.661
35.638
35.615
35.592
35.566
35.538
35.508
35.474
35.439
35.404
35.368
35.334
35.303
35.276
35.255
35.24
35.23
35.225
35.225
35.228
35.234
35.243
35.253
35.265
35.277
35.289
35.3
35.311
35.32
35.328
35.336
35.342
35.348
35.352
35.355
35.357
35.358
35.356
35.354
35.35
35.344
35.336
35.324
35.309
35.29
35.266
35.237
35.203
35.163
35.118
35.069
35.016
34.962
34.906
34.851
34.795
34.742
34.69
34.641
34.594
34.551
34.51
34.472
34.436
34.403
34.371
34.341
34.312
34.284
34.257
34.229
34.202
34.174
34.146
34.117
34.089
34.06
34.031
34.003
33.977
33.954
33.934
33.919
33.908
33.899
33.893
33.89
33.887
33.885
33.883
33.88
33.875
33.868
33.857
33.844
33.828
33.808
33.785
33.761
33.737
33.714
33.693
33.676
33.663
33.653
33.646
33.641
33.638
33.637
33.638
33.64
33.643
33.646
33.651
33.656
33.664
33.676
33.693
33.717
33.751
33.796
33.855
33.929
34.02
34.128
34.254
34.395
34.55
34.716
34.888
35.064
35.238
35.408
35.57
35.721
35.857
35.977
36.08
36.167
36.237
36.291
36.332
36.358
36.372
36.376
36.37
36.357
36.338
36.314
36.286
36.255
36.221
36.184
36.145
36.103
36.057
36.01
35.96
35.908
35.856
35.804
35.755
35.708
35.664
35.624
35.587
35.553
35.521
35.49
35.46
35.431
35.401
35.371
35.34
35.31
35.279
35.248
35.218
35.189
35.161
35.135
35.112
35.091
35.074
35.061
35.052
35.047
35.048
35.054
35.064
35.08
35.101
35.125
35.152
35.181
35.209
35.237
35.262
35.282
35.296
35.304
35.306
35.301
35.291
35.275
35.254
35.229
35.201
35.171
35.14
35.109
35.079
35.05
35.023
34.998
34.975
34.954
34.933
34.911
34.886
34.858
34.826
34.789
34.747
34.7
34.649
34.595
34.54
34.487
34.436
34.389
34.347
34.31
34.279
34.253
34.233
34.217
34.204
34.191
34.179
34.165
34.149
34.131
34.11
34.088
34.064
34.039
34.014
33.99
33.966
33.945
33.927
33.913
33.902
33.896
33.893
33.894
33.897
33.902
33.908
33.914
33.917
33.917
33.914
33.906
33.894
33.876
33.855
33.83
33.802
33.774
33.747
33.723
33.703
33.687
33.678
33.674
33.677
33.685
33.7
33.724
33.759
33.805
33.863
33.93
34.005
34.087
34.175
34.268
34.367
34.471
34.58
34.695
34.816
34.944
35.077
35.214
35.355
35.497
35.639
35.778
35.911
36.037
36.153
36.256
36.346
36.42
36.479
36.524
36.553
36.568
36.571
36.563
36.545
36.519
36.486
36.448
36.406
36.36
36.312
36.264
36.216
36.169
36.123
36.08
36.039
36.0
35.963
35.926
35.889
35.852
35.813
35.774
35.734
35.694
35.654
35.616
35.579
35.546
35.517
35.493
35.474
35.46
35.45
35.446
35.446
35.449
35.455
35.462
35.469
35.475
35.481
35.485
35.488
35.489
35.489
35.488
35.488
35.487
35.488
35.49
35.494
35.5
35.507
35.515
35.522
35.528
35.532
35.532
35.529
35.521
35.508
35.49
35.467
35.439
35.408
35.373
35.337
35.299
35.26
35.221
35.182
35.143
35.106
35.07
35.035
35.0
34.965
34.93
34.894
34.858
34.821
34.784
34.746
34.706
34.666
34.625
34.583
34.542
34.501
34.462
34.425
34.389
34.355
34.324
34.295
34.268
34.243
34.221
34.201
34.182
34.165
34.15
34.135
34.122
34.11
34.099
34.088
34.078
34.068
34.059
34.051
34.042
34.032
34.022
34.01
33.998
33.985
33.973
33.961
33.95
33.939
33.93
33.921
33.913
33.905
33.897
33.888
33.877
33.866
33.853
33.841
33.828
33.817
33.809
33.805
33.807
33.817
33.835
33.864
33.904
33.957
34.025
34.109
34.207
34.318
34.442
34.576
34.719
34.868
35.021
35.176
35.33
35.48
35.626
35.765
35.896
36.017
36.129
36.23
36.322
36.404
36.476
36.538
36.589
36.629
36.657
36.674
36.678
36.67
36.651
36.621
36.583
36.536
36.483
36.426
36.367
36.308
36.25
36.193
36.14
36.09
36.044
36.001
35.963
35.927
35.893
35.862
35.831
35.8
35.768
35.735
35.701
35.665
35.628
35.591
35.555
35.519
35.484
35.451
35.422
35.396
35.374
35.356
35.343
35.334
35.329
35.329
35.331
35.337
35.345
35.355
35.364
35.374
35.382
35.388
35.392
35.393
35.391
35.386
35.379
35.369
35.356
35.343
35.329
35.317
35.305
35.296
35.287
35.28
35.272
35.264
35.253
35.24
35.222
35.2
35.172
35.138
35.099
35.055
35.006
34.955
34.902
34.849
34.798
34.749
34.705
34.664
34.627
34.594
34.566
34.54
34.517
34.496
34.475
34.454
34.43
34.404
34.374
34.341
34.304
34.265
34.224
34.183
34.144
34.107
34.074
34.047
34.025
34.01
34.0
33.996
33.997
34.001
34.006
34.012
34.016
34.018
34.016
34.011
34.001
33.988
33.973
33.956
33.938
33.921
33.904
33.889
33.876
33.866
33.859
33.854
33.852
33.853
33.855
33.857
33.859
33.859
33.856
33.849
33.837
33.822
33.804
33.783
33.761
33.74
33.722
33.708
33.701
33.702
33.715
33.74
33.779
33.833
33.902
33.99
34.094
34.215
34.349
34.493
34.645
34.801
34.957
35.113
35.265
35.413
35.555
35.689
35.815
35.933
36.04
36.137
36.222
36.295
36.357
36.407
36.446
36.475
36.494
36.504
36.505
36.497
36.481
36.457
36.426
36.389
36.348
36.303
36.257
36.209
36.161
36.113
36.066
36.022
35.98
35.942
35.907
35.877
35.849
35.824
35.801
35.778
35.754
35.728
35.698
35.663
35.624
35.581
35.534
35.486
35.439
35.394
35.353
35.319
35.292
35.275
35.268
35.271
35.284
35.305
35.332
35.362
35.394
35.424
35.452
35.474
35.492
35.503
35.509
35.51
35.507
35.503
35.497
35.49
35.484
35.479
35.475
35.474
35.473
35.474
35.476
35.476
35.475
35.47
35.46
35.446
35.427
35.401
35.37
35.334
35.293
35.249
35.203
35.155
35.108
35.061
35.014
34.97
34.926
34.885
34.846
34.809
34.774
34.74
34.708
34.677
34.647
34.619
34.593
34.568
34.545
34.523
34.502
34.482
34.463
34.445
34.427
34.409
34.392
34.376
34.361
34.348
34.336
34.327
34.319
34.313
34.308
34.304
34.3
34.296
34.289
34.281
34.27
34.257
34.242
34.226
34.21
34.195
34.18
34.166
34.154
34.143
34.133
34.124
34.117
34.112
34.107
34.103
34.1
34.098
34.097
34.096
34.095
34.096
34.099
34.104
34.113
34.127
34.148
34.178
34.217
34.269
34.335
34.415
34.51
34.621
34.745
34.881
35.026
35.178
35.333
35.488
35.639
35.783
35.917
36.041
36.152
36.25
36.334
36.404
36.462
36.506
36.538
36.561
36.575
36.581
36.583
36.579
36.572
36.561
36.546
36.527
36.504
36.476
36.443
36.405
36.363
36.317
36.268
36.217
36.164
36.113
36.062
36.015
35.972
35.932
35.895
35.86
35.828
35.798
35.767
35.736
35.705
35.672
35.64
35.607
35.575
35.545
35.517
35.492
35.471
35.455
35.443
35.436
35.433
35.435
35.439
35.447
35.457
35.47
35.484
35.499
35.517
35.534
35.552
35.569
35.584
35.597
35.608
35.617
35.624
35.629
35.631
35.631
35.628
35.622
35.613
35.601
35.584
35.564
35.541
35.516
35.489
35.461
35.433
35.405
35.377
35.349
35.321
35.291
35.259
35.227
35.192
35.157
35.119
35.08
35.038
34.995
34.95
34.905
34.86
34.817
34.777
34.741
34.71
34.682
34.659
34.639
34.622
34.607
34.593
34.579
34.564
34.548
34.531
34.512
34.491
34.47
34.447
34.424
34.401
34.38
34.361
34.344
34.33
34.32
34.314
34.311
34.311
34.313
34.316
34.318
34.319
34.318
34.314
34.307
34.296
34.282
34.266
34.248
34.229
34.209
34.191
34.174
34.159
34.148
34.139
34.133
34.13
34.131
34.136
34.146
34.162
34.184
34.213
34.251
34.299
34.357
34.427
34.509
34.604
34.711
34.832
34.965
35.108
35.261
35.421
35.587
35.754
35.921
36.084
36.239
36.384
36.517
36.636
36.739
36.826
36.896
36.95
36.988
37.012
37.023
37.023
37.014
36.997
36.973
36.944
36.911
36.874
36.835
36.796
36.757
36.719
36.682
36.646
36.612
36.579
36.547
36.516
36.485
36.452
36.417
36.379
36.339
36.297
36.253
36.209
36.165
36.123
36.082
36.044
36.01
35.98
35.955
35.935
35.918
35.905
35.895
35.889
35.887
35.887
35.888
35.89
35.891
35.893
35.894
35.895
35.896
35.897
35.899
35.902
35.907
35.914
35.923
35.935
35.947
35.959
35.969
35.976
35.977
35.972
35.962
35.946
35.923
35.896
35.864
35.829
35.794
35.758
35.722
35.688
35.656
35.625
35.597
35.57
35.545
35.52
35.496
35.471
35.445
35.415
35.381
35.342
35.3
35.253
35.202
35.15
35.096
35.044
34.994
34.948
34.908
34.873
34.844
34.821
34.804
34.792
34.782
34.774
34.765
34.754
34.741
34.726
34.707
34.686
34.663
34.638
34.613
34.588
34.564
34.542
34.522
34.505
34.491
34.481
34.474
34.471
34.472
34.474
34.478
34.482
34.486
34.488
34.487
34.483
34.475
34.464
34.449
34.429
34.406
34.381
34.353
34.325
34.296
34.269
34.243
34.218
34.196
34.177
34.162
34.152
34.149
34.153
34.167
34.19
34.224
34.271
34.33
34.404
34.49
34.591
34.705
34.832
34.97
35.117
35.274
35.436
35.602
35.77
35.937
36.103
36.264
36.419
36.567
36.704
36.829
36.941
37.036
37.115
37.177
37.222
37.251
37.266
37.268
37.259
37.241
37.215
37.184
37.149
37.111
37.073
37.035
36.998
36.962
36.929
36.898
36.869
36.841
36.813
36.785
36.755
36.724
36.692
36.657
36.622
36.585
36.548
36.511
36.475
36.442
36.41
36.382
36.356
36.333
36.312
36.294
36.276
36.26
36.245
36.232
36.22
36.21
36.201
36.193
36.185
36.179
36.173
36.168
36.163
36.158
36.153
36.148
36.145
36.143
36.142
36.143
36.147
36.151
36.156
36.161
36.164
36.166
36.165
36.161
36.153
36.138
36.115
36.084
36.044
35.996
35.942
35.884
35.825
35.766
35.711
35.659
35.612
35.571
35.536
35.506
35.48
35.458
35.438
35.419
35.399
35.378
35.353
35.324
35.288
35.248
35.204
35.156
35.107
35.058
35.011
34.967
34.926
34.89
34.859
34.832
34.81
34.791
34.774
34.759
34.746
34.733
34.72
34.707
34.693
34.678
34.662
34.645
34.628
34.61
34.593
34.577
34.563
34.55
34.54
34.531
34.524
34.518
34.512
34.506
34.5
34.493
34.485
34.476
34.464
34.45
34.434
34.414
34.392
34.368
34.342
34.315
34.288
34.263
34.24
34.221
34.206
34.197
34.195
34.2
34.213
34.235
34.266
34.309
34.364
34.431
34.511
34.604
34.709
34.826
34.954
35.092
35.238
35.39
35.546
35.704
35.861
36.016
36.166
36.312
36.451
36.582
36.703
36.813
36.911
36.996
37.066
37.121
37.161
37.186
37.197
37.193
37.177
37.15
37.114
37.071
37.024
36.973
36.922
36.872
36.824
36.78
36.741
36.707
36.677
36.651
36.627
36.604
36.581
36.555
36.526
36.493
36.455
36.413
36.367
36.32
36.271
36.223
36.177
36.133
36.092
36.054
36.02
35.99
35.963
35.942
35.924
35.911
35.901
35.895
35.892
35.892
35.893
35.895
35.897
35.897
35.896
35.893
35.888
35.882
35.875
35.867
35.86
35.854
35.849
35.845
35.842
35.839
35.837
35.832
35.826
35.816
35.802
35.784
35.76
35.731
35.697
35.657
35.613
35.565
35.516
35.465
35.414
35.365
35.317
35.271
35.227
35.186
35.147
35.111
35.074
35.038
35.001
34.963
34.922
34.878
34.832
34.783
34.733
34.681
34.63
34.581
34.534
34.492
34.455
34.422
34.396
34.374
34.356
34.343
34.333
34.324
34.315
34.306
34.296
34.284
34.27
34.253
34.234
34.213
34.192
34.17
34.15
34.131
34.113
34.099
34.087
34.077
34.07
34.067
34.067
34.07
34.075
34.08
34.083
34.084
34.082
34.074
34.062
34.045
34.023
33.997
33.969
33.941
33.914
33.892
33.876
33.868
33.869
33.88
33.904
33.941
33.992
34.057
34.137
34.23
34.337
34.457
34.587
34.727
34.876
35.032
35.193
35.356
35.521
35.683
35.841
35.991
36.132
36.261
36.378
36.481
36.57
36.647
36.711
36.763
36.803
36.831
36.85
36.858
36.857
36.846
36.827
36.799
36.765
36.724
36.678
36.629
36.578
36.527
36.477
36.43
36.387
36.349
36.317
36.29
36.268
36.249
36.233
36.216
36.198
36.176
36.148
36.115
36.075
36.031
35.981
35.928
35.875
35.823
35.774
35.731
35.696
35.668
35.65
35.639
35.638
35.644
35.656
35.673
35.692
35.712
35.73
35.746
35.758
35.766
35.771
35.772
35.77
35.767
35.762
35.757
35.751
35.746
35.742
35.738
35.733
35.727
35.72
35.711
35.699
35.684
35.666
35.644
35.617
35.586
35.551
35.513
35.473
35.432
35.389
35.346
35.303
35.26
35.217
35.175
35.134
35.093
35.052
35.012
34.971
34.931
34.892
34.853
34.816
34.779
34.742
34.706
34.671
34.636
34.602
34.567
34.534
34.501
34.469
34.439
34.412
34.387
34.366
34.348
34.334
34.323
34.316
34.311
34.308
34.307
34.305
34.302
34.297
34.288
34.276
34.259
34.239
34.216
34.192
34.166
34.141
34.117
34.096
34.077
34.061
34.05
34.043
34.04
34.041
34.045
34.052
34.062
34.075
34.091
34.111
34.135
34.164
34.201
34.245
34.3
34.366
34.444
34.537
34.643
34.763
34.896
35.042
35.198
35.363
35.532
35.703
35.872
36.035
36.189
36.332
36.46
36.572
36.667
36.744
36.801
36.835
36.846
36.837
36.812
36.776
36.734
36.69
36.649
36.613
36.583
36.559
36.542
36.529
36.52
36.512
36.503
36.492
36.478
36.46
36.436
36.407
36.373
36.335
36.293
36.248
36.201
36.154
36.106
36.059
36.015
35.973
35.934
35.899
35.867
35.839
35.814
35.793
35.775
35.761
35.749
35.739
35.731
35.724
35.718
35.712
35.706
35.7
35.695
35.691
35.689
35.69
35.694
35.7
35.711
35.724
35.739
35.754
35.769
35.782
35.791
35.794
35.79
35.779
35.761
35.737
35.706
35.672
35.634
35.594
35.553
35.513
35.475
35.439
35.406
35.374
35.345
35.316
35.288
35.259
35.228
35.196
35.16
35.12
35.077
35.03
34.981
34.928
34.875
34.821
34.769
34.719
34.673
34.631
34.595
34.564
34.538
34.516
34.498
34.482
34.468
34.454
34.44
34.424
34.406
34.385
34.361
34.336
34.31
34.284
34.259
34.237
34.216
34.199
34.184
34.173
34.166
34.161
34.16
34.16
34.161
34.162
34.162
34.161
34.157
34.149
34.139
34.124
34.107
34.087
34.066
34.044
34.023
34.002
33.984
33.969
33.957
33.95
33.947
33.949
33.957
33.97
33.988
34.013
34.046
34.087
34.138
34.199
34.272
34.359
34.459
34.573
34.702
34.844
34.998
35.161
35.332
35.506
35.68
35.852
36.019
36.179
36.328
36.466
36.591
36.701
36.796
36.876
36.94
36.987
37.019
37.034
37.036
37.025
37.003
36.972
36.934
36.891
36.843
36.794
36.745
36.697
36.65
36.606
36.564
36.525
36.488
36.452
36.418
36.385
36.35
36.315
36.277
36.237
36.193
36.146
36.098
36.048
35.998
35.949
35.904
35.863
35.827
35.797
35.773
35.755
35.742
35.733
35.727
35.723
35.72
35.716
35.711
35.705
35.698
35.69
35.682
35.675
35.671
35.668
35.668
35.671
35.676
35.68
35.678
35.666
35.645
35.616
35.581
35.545
35.51
35.478
35.451
35.428
35.41
35.395
35.383
35.373
35.362
35.352
35.34
35.325
35.308
35.288
35.265
35.238
35.207
35.174
35.137
35.098
35.057
35.015
34.973
34.93
34.888
34.847
34.806
34.765
34.725
34.685
34.644
34.605
34.566
34.527
34.489
34.452
34.417
34.385
34.357
34.332
34.311
34.293
34.279
34.267
34.257
34.249
34.241
34.232
34.221
34.208
34.193
34.177
34.16
34.144
34.128
34.113
34.099
34.087
34.078
