Trial 3:3back
33.199
33.174
33.152
33.132
33.114
33.096
33.077
33.057
33.037
33.017
32.999
32.983
32.969
32.956
32.944
32.931
32.917
32.902
32.884
32.864
32.841
32.814
32.785
32.753
32.719
32.684
32.649
32.616
32.587
32.562
32.541
32.526
32.517
32.516
32.526
32.552
32.599
32.671
32.773
32.908
33.079
33.288
33.534
33.813
34.122
34.453
34.799
35.151
35.501
35.84
36.162
36.463
36.739
36.989
37.211
37.404
37.568
37.705
37.817
37.904
37.971
38.019
38.049
38.064
38.067
38.059
38.043
38.022
37.996
37.965
37.931
37.892
37.85
37.806
37.759
37.711
37.661
37.61
37.561
37.515
37.473
37.438
37.407
37.382
37.363
37.35
37.341
37.338
37.338
37.34
37.339
37.333
37.319
37.296
37.263
37.22
37.168
37.108
37.041
36.968
36.89
36.809
36.727
36.645
36.56
36.472
36.382
36.291
36.2
36.11
36.023
35.94
35.862
35.791
35.727
35.673
35.628
35.593
35.568
35.551
35.541
35.537
35.538
35.543
35.551
35.56
35.571
35.582
35.59
35.596
35.598
35.597
35.593
35.587
35.579
35.568
35.554
35.537
35.517
35.494
35.467
35.434
35.394
35.345
35.287
35.22
35.143
35.059
34.971
34.88
34.789
34.698
34.608
34.521
34.438
34.359
34.285
34.214
34.144
34.075
34.005
33.936
33.867
33.801
33.739
33.681
33.628
33.58
33.536
33.496
33.459
33.424
33.392
33.362
33.334
33.308
33.285
33.263
33.243
33.226
33.212
33.202
33.194
33.189
33.184
33.178
33.171
33.161
33.148
33.131
33.111
33.089
33.065
33.041
33.016
32.991
32.966
32.941
32.915
32.887
32.856
32.822
32.786
32.749
32.716
32.692
32.681
32.691
32.729
32.801
32.91
33.057
33.242
33.463
33.717
33.997
34.298
34.612
34.935
35.259
35.578
35.889
36.187
36.468
36.73
36.971
37.188
37.381
37.549
37.693
37.813
37.91
37.987
38.044
38.084
38.108
38.12
38.121
38.114
38.1
38.079
38.052
38.02
37.985
37.946
37.904
37.861
37.819
37.78
37.746
37.716
37.692
37.671
37.653
37.638
37.624
37.613
37.601
37.588
37.573
37.554
37.531
37.503
37.471
37.435
37.396
37.355
37.311
37.264
37.214
37.162
37.108
37.05
36.99
36.926
36.858
36.785
36.708
36.626
36.54
36.452
36.363
36.275
36.19
36.11
36.036
35.971
35.914
35.866
35.828
35.799
35.778
35.766
35.759
35.758
35.761
35.763
35.765
35.763
35.758
35.751
35.742
35.733
35.722
35.71
35.696
35.681
35.663
35.644
35.624
35.601
35.575
35.544
35.507
35.462
35.409
35.349
35.283
35.214
35.143
35.07
34.999
34.929
34.862
34.797
34.735
34.674
34.613
34.553
34.492
34.43
34.367
34.303
34.238
34.173
34.109
34.046
33.984
33.923
33.863
33.806
33.754
33.706
33.663
33.625
33.59
33.558
33.529
33.503
33.482
33.466
33.455
33.447
33.444
33.441
33.438
33.435
33.431
33.425
33.417
33.408
33.397
33.384
33.369
33.352
33.332
33.31
33.287
33.264
33.241
33.218
33.194
33.168
33.141
33.111
33.077
33.041
33.002
32.963
32.926
32.893
32.865
32.847
32.841
32.85
32.88
32.933
33.011
33.117
33.253
33.42
33.618
33.847
34.105
34.385
34.682
34.99
35.303
35.616
35.923
36.22
36.5
36.759
36.993
37.201
37.382
37.534
37.659
37.757
37.832
37.884
37.915
37.929
37.929
37.919
37.902
37.882
37.86
37.839
37.82
37.804
37.791
37.78
37.769
37.758
37.746
37.733
37.717
37.7
37.68
37.657
37.631
37.602
37.571
37.539
37.507
37.475
37.445
37.416
37.388
37.361
37.335
37.311
37.287
37.262
37.235
37.204
37.169
37.13
37.085
37.034
36.977
36.914
36.846
36.773
36.696
36.616
36.535
36.456
36.38
36.309
36.243
36.183
36.129
36.082
36.041
36.004
35.971
35.941
35.915
35.891
35.87
35.852
35.839
35.832
35.83
35.832
35.837
35.845
35.853
35.862
35.87
35.874
35.871
35.861
35.841
35.813
35.776
35.733
35.684
35.63
35.572
35.511
35.447
35.385
35.326
35.269
35.214
35.159
35.102
35.043
34.982
34.92
34.857
34.794
34.731
34.668
34.606
34.545
34.485
34.427
34.372
34.321
34.274
34.23
34.189
34.149
34.11
34.071
34.033
33.995
33.958
33.921
33.887
33.854
33.826
33.801
33.78
33.763
33.75
33.74
33.73
33.72
33.708
33.693
33.675
33.655
33.633
33.609
33.584
33.559
33.534
33.509
33.487
33.466
33.446
33.425
33.402
33.375
33.343
33.308
33.269
33.231
33.193
33.16
33.135
33.121
33.118
33.129
33.154
33.197
33.259
33.343
33.451
33.582
33.737
33.914
34.113
34.332
34.569
34.819
35.079
35.343
35.606
35.862
36.106
36.334
36.544
36.731
36.894
37.032
37.145
37.234
37.302
37.351
37.383
37.401
37.408
37.405
37.394
37.378
37.358
37.336
37.313
37.289
37.266
37.243
37.222
37.201
37.181
37.161
37.141
37.119
37.095
37.069
37.041
37.012
36.983
36.955
36.928
36.901
36.877
36.856
36.839
36.825
36.814
36.802
36.788
36.768
36.742
36.707
36.663
36.611
36.553
36.49
36.424
36.358
36.291
36.226
36.162
36.099
36.037
35.975
35.916
35.86
35.81
35.764
35.724
35.691
35.664
35.645
35.633
35.626
35.623
35.626
35.631
35.637
35.642
35.643
35.641
35.636
35.628
35.619
35.605
35.588
35.566
35.54
35.509
35.475
35.438
35.401
35.365
35.329
35.294
35.257
35.22
35.184
35.147
35.11
35.072
35.03
34.984
34.935
34.882
34.825
34.765
34.702
34.636
34.569
34.501
34.433
34.366
34.302
34.239
34.177
34.115
34.054
33.992
33.931
33.872
33.817
33.767
33.725
33.69
33.661
33.639
33.62
33.605
33.592
33.581
33.57
33.56
33.55
33.539
33.527
33.513
33.497
33.48
33.463
33.449
33.436
33.426
33.416
33.405
33.392
33.375
33.354
33.329
33.302
33.273
33.243
33.215
33.189
33.166
33.146
33.131
33.117
33.103
33.088
33.072
33.053
33.033
33.013
32.995
32.982
32.977
32.983
33.001
33.034
33.086
33.16
33.257
33.381
33.533
33.71
33.909
34.128
34.361
34.606
34.858
35.114
35.37
35.623
35.867
36.097
36.309
36.5
36.668
36.813
36.934
37.032
37.108
37.163
37.2
37.222
37.23
37.226
37.211
37.189
37.161
37.13
37.097
37.062
37.029
36.996
36.966
36.938
36.913
36.893
36.878
36.866
36.854
36.841
36.825
36.804
36.78
36.755
36.73
36.706
36.683
36.662
36.643
36.626
36.612
36.598
36.585
36.57
36.551
36.527
36.495
36.457
36.411
36.358
36.299
36.234
36.164
36.091
36.016
35.939
35.863
35.788
35.717
35.651
35.591
35.539
35.494
35.459
35.431
35.408
35.39
35.376
35.366
35.358
35.353
35.351
35.351
35.352
35.354
35.357
35.359
35.362
35.366
35.371
35.377
35.384
35.39
35.393
35.391
35.382
35.365
35.342
35.313
35.277
35.238
35.194
35.147
35.099
35.051
35.004
34.96
34.917
34.876
34.834
34.79
34.741
34.69
34.635
34.58
34.525
34.471
34.418
34.368
34.322
34.28
34.241
34.205
34.17
34.135
34.098
34.061
34.022
33.984
33.946
33.909
33.874
33.841
33.812
33.785
33.762
33.742
33.723
33.707
33.692
33.679
33.664
33.648
33.63
33.609
33.586
33.565
33.545
33.527
33.511
33.497
33.482
33.466
33.447
33.426
33.401
33.373
33.342
33.309
33.276
33.245
33.215
33.19
33.171
33.159
33.156
33.164
33.185
33.219
33.268
33.335
33.422
33.531
33.662
33.816
33.99
34.183
34.39
34.609
34.835
35.064
35.291
35.512
35.722
35.919
36.1
36.263
36.408
36.533
36.638
36.723
36.787
36.83
36.856
36.868
36.869
36.861
36.845
36.824
36.799
36.771
36.74
36.706
36.671
36.634
36.597
36.558
36.52
36.481
36.444
36.408
36.373
36.341
36.311
36.284
36.263
36.247
36.236
36.228
36.224
36.219
36.212
36.2
36.181
36.155
36.122
36.084
36.042
35.997
35.95
35.903
35.855
35.807
35.758
35.709
35.658
35.605
35.551
35.494
35.435
35.377
35.321
35.268
35.221
35.179
35.142
35.112
35.089
35.074
35.066
35.065
35.07
35.08
35.092
35.105
35.118
35.128
35.138
35.145
35.15
35.153
35.153
35.151
35.146
35.139
35.131
35.122
35.113
35.102
35.089
35.072
35.05
35.024
34.994
34.958
34.915
34.867
34.813
34.756
34.697
34.638
34.581
34.528
34.478
34.432
34.387
34.342
34.298
34.255
34.212
34.171
34.132
34.094
34.058
34.024
33.991
33.96
33.931
33.905
33.88
33.856
33.831
33.806
33.779
33.752
33.726
33.701
33.679
33.659
33.642
33.625
33.609
33.591
33.572
33.55
33.526
33.5
33.472
33.443
33.413
33.382
33.353
33.324
33.295
33.267
33.24
33.212
33.185
33.158
33.132
33.108
33.089
33.078
33.078
33.092
33.124
33.175
33.247
33.341
33.458
33.599
33.76
33.94
34.136
34.343
34.56
34.782
35.007
35.233
35.455
35.67
35.872
36.057
36.225
36.374
36.503
36.614
36.707
36.78
36.834
36.87
36.889
36.894
36.888
36.874
36.854
36.828
36.799
36.767
36.734
36.7
36.666
36.635
36.605
36.578
36.551
36.525
36.498
36.473
36.45
36.431
36.415
36.403
36.395
36.391
36.39
36.392
36.394
36.396
36.396
36.392
36.384
36.372
36.356
36.334
36.306
36.271
36.228
36.177
36.121
36.061
36.0
35.939
35.878
35.818
35.76
35.704
35.653
35.606
35.563
35.523
35.486
35.451
35.42
35.391
35.365
35.343
35.325
35.312
35.303
35.3
35.303
35.31
35.32
35.331
35.342
35.349
35.352
35.351
35.346
35.339
35.33
35.32
35.31
35.299
35.287
35.275
35.261
35.246
35.229
35.211
35.188
35.161
35.127
35.087
35.041
34.989
34.934
34.877
34.82
34.764
34.709
34.654
34.6
34.547
34.494
34.443
34.392
34.342
34.293
34.245
34.198
34.154
34.111
34.071
34.034
34.001
33.972
33.946
33.923
33.905
33.889
33.877
33.868
33.859
33.851
33.841
33.832
33.823
33.816
33.81
33.805
33.799
33.791
33.78
33.766
33.75
33.729
33.707
33.682
33.656
33.628
33.598
33.567
33.535
33.503
33.474
33.45
33.433
33.426
33.43
33.446
33.476
33.521
33.584
33.665
33.767
33.89
34.033
34.195
34.376
34.572
34.78
34.996
35.216
35.435
35.648
35.853
36.045
36.223
36.385
36.528
36.65
36.75
36.828
36.887
36.929
36.958
36.975
36.985
36.988
36.988
36.984
36.978
36.969
36.957
36.943
36.926
36.904
36.878
36.847
36.812
36.776
36.74
36.707
36.677
36.652
36.632
36.618
36.609
36.605
36.604
36.604
36.605
36.604
36.6
36.592
36.579
36.561
36.538
36.51
36.477
36.44
36.402
36.361
36.32
36.278
36.234
36.189
36.142
36.095
36.047
36.001
35.955
35.909
35.863
35.817
35.771
35.726
35.682
35.641
35.605
35.574
35.548
35.529
35.515
35.505
35.498
35.495
35.493
35.492
35.49
35.486
35.478
35.466
35.453
35.439
35.426
35.416
35.408
35.404
35.403
35.404
35.406
35.408
35.407
35.401
35.389
35.369
35.342
35.309
35.271
35.229
35.186
35.141
35.096
35.051
35.006
34.961
34.918
34.875
34.831
34.786
34.737
34.687
34.634
34.58
34.526
34.475
34.427
34.384
34.347
34.314
34.285
34.256
34.228
34.2
34.172
34.144
34.116
34.088
34.06
34.032
34.006
33.981
33.96
33.942
33.926
33.912
33.899
33.886
33.871
33.855
33.838
33.821
33.804
33.788
33.773
33.759
33.746
33.732
33.719
33.705
33.691
33.676
33.659
33.64
33.619
33.597
33.574
33.555
33.539
33.531
33.532
33.546
33.575
33.62
33.682
33.764
33.865
33.986
34.125
34.281
34.45
34.63
34.818
35.013
35.21
35.408
35.604
35.793
35.973
36.142
36.299
36.442
36.572
36.686
36.784
36.865
36.928
36.974
37.004
37.02
37.025
37.02
37.007
36.987
36.963
36.937
36.912
36.889
36.87
36.856
36.845
36.839
36.834
36.83
36.825
36.819
36.809
36.798
36.784
36.767
36.749
36.73
36.71
36.692
36.675
36.658
36.643
36.629
36.616
36.603
36.589
36.571
36.55
36.523
36.492
36.455
36.413
36.367
36.316
36.263
36.208
36.15
36.092
36.034
35.979
35.927
35.879
35.833
35.79
35.75
35.713
35.68
35.65
35.623
35.597
35.571
35.547
35.524
35.504
35.487
35.474
35.465
35.461
35.46
35.462
35.465
35.469
35.47
35.47
35.467
35.46
35.448
35.431
35.41
35.386
35.36
35.333
35.306
35.278
35.249
35.218
35.185
35.149
35.112
35.073
35.031
34.987
34.941
34.894
34.845
34.797
34.751
34.708
34.669
34.631
34.594
34.556
34.515
34.473
34.429
34.383
34.337
34.29
34.244
34.199
34.157
34.117
34.081
34.049
34.02
33.993
33.967
33.941
33.914
33.883
33.851
33.819
33.788
33.76
33.736
33.718
33.706
33.699
33.696
33.696
33.7
33.703
33.706
33.705
33.701
33.692
33.68
33.666
33.653
33.64
33.628
33.616
33.604
33.589
33.571
33.548
33.523
33.495
33.467
33.439
33.413
33.389
33.368
33.351
33.339
33.332
33.333
33.343
33.363
33.394
33.439
33.499
33.575
33.667
33.777
33.906
34.052
34.215
34.389
34.573
34.761
34.95
35.138
35.322
35.498
35.662
35.813
35.947
36.065
36.167
36.252
36.32
36.371
36.408
36.432
36.446
36.453
36.453
36.45
36.445
36.438
36.43
36.42
36.409
36.397
36.384
36.371
36.356
36.339
36.32
36.299
36.278
36.258
36.24
36.226
36.217
36.21
36.205
36.201
36.195
36.186
36.174
36.159
36.14
36.118
36.094
36.068
36.042
36.016
35.991
35.967
35.943
35.919
35.894
35.869
35.842
35.813
35.778
35.738
35.692
35.643
35.592
35.54
35.492
35.447
35.407
35.371
35.337
35.307
35.278
35.252
35.228
35.207
35.189
35.174
35.161
35.15
35.142
35.136
35.134
35.136
35.141
35.149
35.157
35.163
35.168
35.169
35.165
35.156
35.145
35.13
35.114
35.098
35.08
35.063
35.045
35.027
35.007
34.984
34.957
34.928
34.895
34.86
34.822
34.784
34.744
34.702
34.659
34.614
34.568
34.524
34.484
34.446
34.412
34.379
34.348
34.315
34.282
34.248
34.213
34.179
34.148
34.119
34.093
34.069
34.048
34.03
34.014
34.001
33.989
33.978
33.967
33.956
33.945
33.934
33.923
33.913
33.903
33.892
33.882
33.871
33.861
33.85
33.84
33.831
33.822
33.813
33.802
33.788
33.771
33.752
33.732
33.712
33.695
33.682
33.673
33.665
33.654
33.641
33.623
33.601
33.576
33.549
33.523
33.499
33.481
33.469
33.465
33.472
33.49
33.523
33.571
33.636
33.716
33.811
33.92
34.043
34.178
34.325
34.481
34.643
34.808
34.973
35.135
35.293
35.443
35.584
35.713
35.828
35.928
36.011
36.08
36.135
36.178
36.212
36.236
36.253
36.263
36.265
36.263
36.257
36.247
36.234
36.218
36.199
36.176
36.15
36.124
36.098
36.074
36.054
36.04
36.03
36.024
36.021
36.019
36.018
36.015
36.01
36.001
35.989
35.973
35.954
35.933
35.911
35.888
35.864
35.841
35.819
35.798
35.777
35.755
35.729
35.699
35.664
35.624
35.578
35.529
35.477
35.424
35.372
35.325
35.283
35.245
35.213
35.187
35.165
35.149
35.137
35.127
35.119
35.11
35.101
35.091
35.082
35.076
35.074
35.077
35.083
35.093
35.105
35.118
35.129
35.139
35.145
35.148
35.148
35.143
35.133
35.118
35.1
35.078
35.054
35.027
34.998
34.967
34.935
34.901
34.867
34.832
34.796
34.758
34.718
34.677
34.635
34.591
34.546
34.5
34.454
34.41
34.368
34.328
34.29
34.253
34.219
34.187
34.158
34.133
34.11
34.087
34.065
34.041
34.017
33.991
33.966
33.943
33.921
33.901
33.883
33.867
33.853
33.84
33.826
33.813
33.798
33.783
33.767
33.751
33.734
33.717
33.701
33.686
33.672
33.659
33.647
33.633
33.618
33.602
33.585
33.568
33.551
33.535
33.521
33.511
33.503
33.498
33.496
33.498
33.506
33.524
33.554
33.596
33.653
33.724
33.81
33.91
34.024
34.151
34.29
34.439
34.595
34.756
34.92
35.085
35.246
35.4
35.545
35.679
35.801
35.911
36.009
36.095
36.171
36.238
36.296
36.346
36.387
36.418
36.439
36.449
36.45
36.442
36.427
36.406
36.382
36.355
36.329
36.303
36.278
36.257
36.238
36.221
36.206
36.191
36.176
36.16
36.144
36.128
36.113
36.1
36.087
36.076
36.066
36.059
36.054
36.05
36.047
36.04
36.03
36.014
35.995
35.972
35.946
35.915
35.881
35.842
35.799
35.753
35.704
35.655
35.604
35.556
35.51
35.466
35.425
35.386
35.35
35.318
35.291
35.271
35.255
35.244
35.235
35.228
35.224
35.221
35.221
35.223
35.226
35.231
35.237
35.244
35.252
35.259
35.264
35.266
35.265
35.259
35.249
35.234
35.215
35.194
35.17
35.145
35.119
35.092
35.065
35.036
35.005
34.973
34.938
34.902
34.865
34.825
34.785
34.744
34.703
34.665
34.629
34.596
34.568
34.543
34.521
34.5
34.477
34.453
34.426
34.396
34.364
34.329
34.295
34.262
34.232
34.206
34.186
34.17
34.159
34.15
34.141
34.131
34.12
34.105
34.088
34.068
34.048
34.028
34.008
33.988
33.969
33.95
33.931
33.913
33.895
33.878
33.861
33.842
33.821
33.799
33.777
33.756
33.737
33.722
33.709
33.698
33.689
33.68
33.668
33.655
33.64
33.627
33.618
33.616
33.624
33.643
33.676
33.724
33.788
33.87
33.967
34.079
34.204
34.342
34.491
34.649
34.815
34.986
35.161
35.336
35.509
35.678
35.84
35.992
36.134
36.263
36.38
36.482
36.569
36.64
36.695
36.734
36.762
36.778
36.785
36.784
36.776
36.761
36.741
36.719
36.696
36.676
36.66
36.648
36.64
36.633
36.626
36.621
36.615
36.609
36.602
36.596
36.588
36.58
36.57
36.558
36.546
36.535
36.524
36.513
36.502
36.493
36.483
36.474
36.463
36.45
36.434
36.414
36.388
36.357
36.32
36.278
36.23
36.18
36.126
36.07
36.014
35.96
35.908
35.861
35.818
35.778
35.74
35.703
35.667
35.633
35.602
35.576
35.556
35.545
35.539
35.538
35.539
35.543
35.547
35.551
35.553
35.554
35.553
35.549
35.543
35.536
35.527
35.518
35.508
35.497
35.486
35.472
35.456
35.436
35.413
35.384
35.352
35.315
35.275
35.232
35.186
35.141
35.096
35.054
35.013
34.974
34.936
34.898
34.859
34.819
34.778
34.737
34.697
34.658
34.62
34.582
34.544
34.506
34.469
34.434
34.402
34.374
34.351
34.33
34.309
34.29
34.271
34.253
34.236
34.22
34.205
34.19
34.176
34.162
34.149
34.137
34.126
34.115
34.105
34.094
34.082
34.068
34.053
34.038
34.021
34.004
33.985
33.964
33.941
33.914
33.887
33.86
33.834
33.809
33.786
33.764
33.742
33.718
33.693
33.666
33.639
33.616
33.599
33.59
33.591
33.601
33.622
33.656
33.704
33.77
33.858
33.969
34.102
34.256
34.429
34.616
34.813
35.017
35.223
35.428
35.628
35.82
36.002
36.169
36.318
36.45
36.562
36.656
36.731
36.789
36.832
36.864
36.887
36.905
36.919
36.93
36.94
36.949
36.957
36.963
36.968
36.97
36.97
36.966
36.958
36.946
36.929
36.908
36.887
36.866
36.848
36.833
36.82
36.811
36.803
36.797
36.791
36.786
36.779
36.769
36.755
36.737
36.714
36.686
36.653
36.616
36.577
36.536
36.494
36.452
36.409
36.366
36.323
36.28
36.235
36.188
36.14
36.091
36.042
35.994
35.948
35.905
35.865
35.829
35.798
35.771
35.751
35.737
35.728
35.724
35.723
35.724
35.724
35.724
35.722
35.719
35.714
35.707
35.699
35.689
35.677
35.664
35.65
35.637
35.624
35.611
35.596
35.579
35.558
35.534
35.507
35.477
35.445
35.412
35.378
35.343
35.308
35.274
35.24
35.208
35.175
35.142
35.107
35.069
35.029
34.985
34.94
34.893
34.848
34.805
34.765
34.727
34.691
34.656
34.624
34.592
34.562
34.532
34.503
34.473
34.442
34.411
34.378
34.346
34.316
34.29
34.268
34.252
34.239
34.228
34.218
34.207
34.196
34.183
34.17
34.154
34.138
34.12
34.103
34.086
34.072
34.059
34.048
34.04
34.032
34.024
34.015
34.004
33.988
33.969
33.947
33.924
33.9
33.876
33.852
33.829
33.807
33.787
33.771
33.761
33.756
33.76
33.774
33.8
33.841
33.898
33.975
34.073
34.194
34.337
34.5
34.678
34.87
35.07
35.275
35.482
35.687
35.886
36.075
36.251
36.413
36.559
36.691
36.808
36.91
36.998
37.074
37.138
37.194
37.246
37.294
37.338
37.378
37.412
37.439
37.456
37.462
37.457
37.442
37.416
37.38
37.337
37.288
37.236
37.185
37.135
37.087
37.044
37.006
36.974
36.947
36.926
36.909
36.897
36.887
36.879
36.87
36.861
36.851
36.842
36.832
36.822
36.812
36.8
36.785
36.766
36.742
36.712
36.677
36.637
36.59
36.537
36.479
36.418
36.356
36.293
36.233
36.176
36.124
36.077
36.037
36.001
35.971
35.944
35.923
