Trial 3:3back
34.926
34.91
34.892
34.874
34.855
34.834
34.814
34.795
34.778
34.762
34.75
34.74
34.735
34.734
34.736
34.741
34.75
34.761
34.774
34.789
34.805
34.821
34.838
34.854
34.868
34.88
34.89
34.897
34.901
34.901
34.897
34.89
34.88
34.868
34.855
34.841
34.826
34.811
34.795
34.779
34.763
34.747
34.73
34.713
34.696
34.678
34.66
34.642
34.624
34.606
34.587
34.568
34.548
34.528
34.507
34.486
34.465
34.443
34.422
34.4
34.379
34.359
34.34
34.322
34.304
34.288
34.274
34.26
34.248
34.238
34.228
34.219
34.211
34.202
34.194
34.185
34.175
34.165
34.153
34.141
34.128
34.114
34.1
34.087
34.074
34.061
34.049
34.036
34.024
34.011
33.998
33.985
33.972
33.958
33.945
33.931
33.918
33.905
33.893
33.882
33.871
33.861
33.85
33.839
33.829
33.819
33.809
33.801
33.794
33.79
33.789
33.791
33.798
33.81
33.828
33.854
33.887
33.927
33.977
34.035
34.103
34.18
34.266
34.361
34.464
34.572
34.684
34.798
34.913
35.027
35.139
35.246
35.347
35.441
35.526
35.602
35.666
35.718
35.759
35.788
35.808
35.818
35.82
35.816
35.808
35.796
35.78
35.764
35.746
35.73
35.714
35.699
35.685
35.673
35.663
35.654
35.646
35.64
35.634
35.63
35.626
35.623
35.621
35.62
35.619
35.619
35.619
35.619
35.619
35.619
35.618
35.615
35.612
35.607
35.599
35.59
35.579
35.567
35.553
35.537
35.521
35.505
35.488
35.473
35.458
35.446
35.435
35.428
35.423
35.421
35.422
35.425
35.429
35.434
35.439
35.444
35.449
35.453
35.456
35.458
35.459
35.458
35.455
35.45
35.443
35.434
35.423
35.411
35.396
35.379
35.36
35.339
35.317
35.295
35.273
35.251
35.23
35.21
35.192
35.175
35.16
35.146
35.133
35.12
35.108
35.097
35.085
35.073
35.061
35.047
35.032
35.015
34.997
34.978
34.958
34.938
34.917
34.897
34.878
34.859
34.841
34.824
34.807
34.791
34.776
34.761
34.748
34.735
34.723
34.711
34.7
34.689
34.678
34.668
34.659
34.65
34.642
34.633
34.623
34.613
34.602
34.59
34.578
34.566
34.553
34.54
34.528
34.515
34.504
34.492
34.481
34.471
34.461
34.453
34.445
34.438
34.432
34.426
34.419
34.413
34.405
34.396
34.386
34.374
34.359
34.343
34.325
34.305
34.284
34.262
34.24
34.218
34.196
34.177
34.16
34.147
34.139
34.138
34.143
34.156
34.178
34.208
34.248
34.296
34.355
34.423
34.501
34.589
34.684
34.788
34.897
35.012
35.129
35.247
35.365
35.481
35.593
35.699
35.799
35.89
35.972
36.044
36.104
36.154
36.193
36.222
36.241
36.251
36.254
36.251
36.241
36.227
36.211
36.192
36.173
36.154
36.136
36.121
36.107
36.095
36.086
36.078
36.073
36.07
36.068
36.069
36.071
36.075
36.08
36.086
36.092
36.098
36.103
36.105
36.106
36.105
36.101
36.094
36.084
36.072
36.058
36.041
36.022
36.002
35.982
35.962
35.942
35.924
35.907
35.89
35.876
35.863
35.853
35.845
35.84
35.837
35.837
35.84
35.845
35.851
35.859
35.868
35.877
35.886
35.893
35.899
35.902
35.902
35.898
35.891
35.88
35.866
35.85
35.831
35.811
35.79
35.767
35.744
35.72
35.698
35.676
35.655
35.635
35.616
35.597
35.58
35.562
35.544
35.527
35.508
35.489
35.47
35.45
35.429
35.408
35.387
35.366
35.346
35.325
35.304
35.284
35.264
35.244
35.225
35.206
35.186
35.167
35.147
35.128
35.108
35.088
35.068
35.047
35.025
35.003
34.982
34.961
34.94
34.919
34.9
34.881
34.863
34.846
34.83
34.816
34.803
34.791
34.781
34.771
34.763
34.756
34.75
34.743
34.737
34.729
34.722
34.713
34.704
34.694
34.684
34.674
34.664
34.653
34.642
34.631
34.619
34.607
34.594
34.58
34.566
34.551
34.536
34.521
34.506
34.49
34.474
34.457
34.438
34.418
34.396
34.374
34.352
34.33
34.308
34.288
34.27
34.254
34.242
34.234
34.232
34.237
34.25
34.272
34.303
34.344
34.397
34.461
34.536
34.623
34.72
34.827
34.942
35.064
35.19
35.32
35.451
35.58
35.707
35.827
35.94
36.042
36.134
36.214
36.282
36.337
36.379
36.409
36.428
36.436
36.434
36.424
36.408
36.387
36.362
36.336
36.309
36.282
36.257
36.235
36.215
36.199
36.186
36.176
36.169
36.164
36.161
36.16
36.16
36.16
36.16
36.159
36.156
36.152
36.145
36.137
36.127
36.115
36.1
36.084
36.065
36.046
36.025
36.004
35.984
35.963
35.942
35.922
35.903
35.885
35.87
35.857
35.848
35.842
35.839
35.839
35.843
35.849
35.858
35.869
35.882
35.895
35.909
35.922
35.936
35.948
35.959
35.967
35.972
35.975
35.975
35.972
35.967
35.958
35.948
35.935
35.92
35.903
35.885
35.865
35.845
35.825
35.804
35.784
35.764
35.743
35.722
35.701
35.679
35.657
35.636
35.615
35.595
35.576
35.557
35.538
35.519
35.501
35.483
35.465
35.447
35.43
35.413
35.396
35.379
35.362
35.345
35.328
35.309
35.29
35.27
35.25
35.228
35.206
35.184
35.162
35.139
35.117
35.095
35.073
35.051
35.031
35.012
34.994
34.978
34.964
34.952
34.941
34.931
34.923
34.915
34.907
34.9
34.893
34.885
34.877
34.868
34.858
34.848
34.836
34.823
34.809
34.794
34.779
34.763
34.747
34.731
34.716
34.702
34.688
34.674
34.662
34.65
34.638
34.627
34.615
34.602
34.588
34.574
34.56
34.544
34.529
34.512
34.495
34.477
34.459
34.442
34.426
34.411
34.398
34.387
34.38
34.376
34.376
34.382
34.395
34.417
34.447
34.487
34.539
34.601
34.674
34.759
34.854
34.959
35.074
35.196
35.324
35.455
35.588
35.719
35.848
35.97
36.084
36.188
36.281
36.361
36.428
36.481
36.522
36.551
36.569
36.578
36.579
36.573
36.561
36.546
36.529
36.51
36.49
36.471
36.452
36.435
36.419
36.405
36.392
36.382
36.372
36.363
36.355
36.347
36.339
36.33
36.322
36.313
36.304
36.294
36.283
36.271
36.259
36.246
36.232
36.216
36.2
36.183
36.164
36.144
36.123
36.102
36.079
36.056
36.034
36.012
35.992
35.974
35.958
35.945
35.934
35.927
35.922
35.921
35.923
35.928
35.936
35.944
35.954
35.963
35.971
35.978
35.983
35.986
35.987
35.985
35.98
35.973
35.962
35.948
35.931
35.911
35.889
35.866
35.84
35.814
35.787
35.761
35.734
35.708
35.683
35.658
35.635
35.611
35.587
35.563
35.538
35.513
35.487
35.462
35.436
35.411
35.386
35.361
35.336
35.311
35.286
35.262
35.239
35.218
35.197
35.177
35.159
35.141
35.125
35.11
35.096
35.083
35.072
35.061
35.051
35.041
35.032
35.024
35.017
35.011
35.007
35.004
35.001
34.999
34.997
34.995
34.992
34.989
34.985
34.98
34.974
34.968
34.96
34.951
34.942
34.933
34.925
34.917
34.91
34.904
34.899
34.893
34.887
34.879
34.87
34.859
34.846
34.831
34.814
34.794
34.773
34.749
34.723
34.695
34.665
34.635
34.605
34.575
34.546
34.518
34.491
34.467
34.445
34.427
34.413
34.403
34.399
34.401
34.411
34.43
34.458
34.498
34.549
34.613
34.689
34.777
34.877
34.986
35.104
35.229
35.358
35.49
35.62
35.748
35.871
35.985
36.09
36.183
36.264
36.33
36.383
36.421
36.446
36.458
36.458
36.448
36.431
36.406
36.378
36.346
36.313
36.28
36.249
36.219
36.191
36.165
36.143
36.123
36.107
36.093
36.082
36.074
36.069
36.065
36.064
36.063
36.063
36.063
36.062
36.06
36.057
36.051
36.043
36.032
36.018
36.002
35.984
35.964
35.941
35.918
35.894
35.87
35.846
35.823
35.801
35.781
35.764
35.748
35.735
35.726
35.72
35.718
35.721
35.728
35.738
35.752
35.768
35.785
35.803
35.821
35.838
35.852
35.863
35.871
35.874
35.873
35.869
35.86
35.848
35.834
35.818
35.8
35.781
35.761
35.74
35.718
35.696
35.673
35.651
35.629
35.606
35.584
35.562
35.54
35.52
35.5
35.481
35.462
35.444
35.425
35.407
35.388
35.368
35.348
35.328
35.307
35.287
35.266
35.246
35.227
35.208
35.189
35.171
35.152
35.133
35.114
35.095
35.075
35.056
35.036
35.016
34.997
34.976
34.956
34.936
34.916
34.896
34.876
34.856
34.835
34.815
34.796
34.776
34.758
34.739
34.721
34.704
34.686
34.669
34.652
34.634
34.617
34.599
34.581
34.564
34.547
34.53
34.513
34.496
34.479
34.462
34.446
34.431
34.417
34.404
34.392
34.38
34.368
34.355
34.342
34.328
34.313
34.296
34.278
34.258
34.236
34.213
34.19
34.165
34.14
34.116
34.092
34.07
34.05
34.032
34.018
34.007
34.002
34.002
34.008
34.023
34.045
34.078
34.121
34.176
34.243
34.323
34.416
34.52
34.636
34.761
34.894
35.033
35.175
35.319
35.461
35.6
35.733
35.858
35.974
36.079
36.172
36.253
36.322
36.378
36.42
36.452
36.472
36.482
36.484
36.479
36.467
36.45
36.43
36.408
36.384
36.361
36.337
36.314
36.292
36.271
36.252
36.234
36.219
36.205
36.193
36.183
36.174
36.166
36.16
36.155
36.152
36.15
36.149
36.149
36.148
36.147
36.145
36.141
36.134
36.124
36.112
36.098
36.081
36.061
36.041
36.02
35.998
35.978
35.959
35.941
35.926
35.912
35.901
35.892
35.886
35.882
35.881
35.882
35.886
35.892
35.899
35.908
35.916
35.924
35.929
35.933
35.934
35.931
35.926
35.917
35.904
35.888
35.869
35.847
35.824
35.8
35.776
35.752
35.729
35.706
35.684
35.662
35.641
35.62
35.6
35.578
35.556
35.533
35.509
35.484
35.459
35.434
35.409
35.383
35.358
35.333
35.308
35.284
35.26
35.237
35.215
35.193
35.173
35.153
35.134
35.116
35.098
35.081
35.063
35.046
35.028
35.01
34.992
34.974
34.956
34.939
34.921
34.903
34.884
34.866
34.848
34.83
34.813
34.797
34.782
34.767
34.753
34.74
34.726
34.713
34.7
34.687
34.673
34.659
34.644
34.629
34.613
34.597
34.581
34.566
34.551
34.537
34.523
34.509
34.496
34.482
34.468
34.454
34.439
34.423
34.407
34.389
34.37
34.351
34.33
34.309
34.288
34.266
34.244
34.223
34.202
34.181
34.162
34.143
34.127
34.112
34.099
34.089
34.082
34.08
34.084
34.094
34.112
34.14
34.177
34.225
34.285
34.356
34.439
34.533
34.637
34.75
34.87
34.995
35.123
35.252
35.379
35.501
35.618
35.726
35.825
35.913
35.99
36.054
36.105
36.144
36.171
36.187
36.193
36.191
36.181
36.165
36.144
36.12
36.095
36.068
36.04
36.012
35.985
35.958
35.931
35.906
35.881
35.858
35.836
35.817
35.798
35.782
35.766
35.752
35.739
35.728
35.718
35.709
35.702
35.696
35.69
35.684
35.676
35.668
35.657
35.645
35.631
35.615
35.598
35.58
35.561
35.543
35.525
35.509
35.494
35.483
35.474
35.468
35.465
35.465
35.467
35.47
35.476
35.483
35.491
35.5
35.508
35.516
35.523
35.528
35.531
35.531
35.529
35.523
35.515
35.504
35.49
35.474
35.456
35.435
35.414
35.392
35.369
35.347
35.325
35.304
35.283
35.263
35.242
35.222
35.202
35.182
35.161
35.14
35.118
35.094
35.069
35.044
35.018
34.992
34.965
34.938
34.91
34.883
34.855
34.827
34.801
34.775
34.751
34.728
34.707
34.686
34.667
34.648
34.629
34.612
34.595
34.579
34.564
34.549
34.534
34.519
34.504
34.489
34.473
34.458
34.442
34.426
34.409
34.393
34.376
34.358
34.34
34.321
34.302
34.284
34.265
34.246
34.228
34.211
34.195
34.18
34.167
34.154
34.143
34.133
34.125
34.117
34.11
34.103
34.097
34.089
34.081
34.071
34.06
34.047
34.032
34.016
33.997
33.977
33.954
33.93
33.905
33.879
33.854
33.831
33.81
33.791
33.776
33.763
33.754
33.748
33.748
33.755
33.768
33.789
33.818
33.856
33.904
33.962
34.031
34.11
34.199
34.298
34.406
34.52
34.641
34.764
34.889
35.014
35.135
35.251
35.36
35.46
35.549
35.627
35.693
35.747
35.788
35.819
35.838
35.848
35.848
35.84
35.824
35.802
35.776
35.747
35.717
35.687
35.657
35.628
35.601
35.576
35.553
35.532
35.513
35.496
35.481
35.466
35.452
35.439
35.426
35.412
35.399
35.386
35.373
35.36
35.348
35.335
35.322
35.308
35.294
35.278
35.262
35.245
35.228
35.21
35.19
35.17
35.15
35.131
35.114
35.099
35.087
35.078
35.071
35.068
35.067
35.069
35.074
35.081
35.091
35.102
35.114
35.127
35.138
35.148
35.157
35.164
35.169
35.171
35.171
35.169
35.164
35.157
35.149
35.139
35.127
35.114
35.099
35.083
35.066
35.049
35.031
35.013
34.996
34.978
34.96
34.943
34.926
34.909
34.891
34.874
34.856
34.838
34.819
34.801
34.782
34.764
34.746
34.728
34.71
34.691
34.673
34.654
34.636
34.618
34.6
34.582
34.564
34.545
34.526
34.507
34.488
34.469
34.45
34.431
34.412
34.394
34.376
34.361
34.346
34.332
34.32
34.307
34.296
34.286
34.276
34.266
34.257
34.248
34.239
34.23
34.22
34.211
34.201
34.192
34.183
34.174
34.164
34.154
34.144
34.134
34.123
34.113
34.102
34.09
34.078
34.065
34.051
34.037
34.022
34.007
33.992
33.977
33.962
33.949
33.936
33.925
33.916
33.909
33.903
33.9
33.901
33.907
33.918
33.937
33.964
33.999
34.044
34.1
34.166
34.243
34.33
34.427
34.532
34.643
34.759
34.879
35.0
35.12
35.236
35.348
35.453
35.549
35.634
35.709
35.772
35.823
35.861
35.887
35.902
35.907
35.903
35.892
35.876
35.856
35.834
35.811
35.789
35.767
35.748
35.731
35.715
35.702
35.689
35.677
35.664
35.652
35.638
35.624
35.609
35.592
35.575
35.556
35.536
35.516
35.495
35.474
35.453
35.431
35.408
35.384
35.358
35.331
35.302
35.272
35.241
35.209
35.176
35.145
35.114
35.086
35.06
35.038
35.022
35.011
35.007
35.008
35.015
35.026
35.042
35.06
35.08
35.101
35.121
35.139
35.154
35.164
35.17
35.169
35.163
35.15
35.131
35.107
35.077
35.043
35.006
34.967
34.928
34.889
34.851
34.815
34.782
34.751
34.723
34.697
34.673
34.651
34.631
34.612
34.594
34.577
34.561
34.546
34.53
34.515
34.5
34.485
34.47
34.454
34.439
34.424
34.408
34.392
34.377
34.361
34.344
34.328
34.312
34.296
34.28
34.264
34.249
34.234
34.22
34.206
34.193
34.182
34.171
34.163
34.155
34.148
34.142
34.137
34.133
34.129
34.127
34.125
34.125
34.127
34.129
34.131
34.134
34.136
34.138
34.139
34.138
34.136
34.133
34.126
34.118
34.107
34.094
34.079
34.063
34.046
34.027
34.008
33.99
33.973
33.957
33.945
33.936
33.93
33.928
33.93
33.937
33.949
33.969
33.995
34.031
34.075
34.128
34.191
34.262
34.342
34.429
34.524
34.624
34.73
34.84
34.952
35.065
35.177
35.286
35.391
35.488
35.578
35.658
35.728
35.785
35.831
35.864
35.885
35.895
35.894
35.885
35.867
35.843
35.813
35.78
35.746
35.711
35.677
35.644
35.614
35.587
35.562
35.54
35.52
35.502
35.486
35.471
35.456
35.442
35.427
35.412
35.397
35.383
35.369
35.355
35.342
35.328
35.314
35.299
35.282
35.264
35.244
35.222
35.199
35.174
35.147
35.119
35.092
35.065
35.04
35.018
34.999
34.984
34.974
34.968
34.966
34.969
34.976
34.987
35.001
35.018
35.037
35.056
35.074
35.092
35.109
35.124
35.137
35.147
35.154
35.157
35.157
35.152
35.145
35.134
35.121
35.106
35.09
35.073
35.055
35.037
35.019
35.002
34.986
34.972
34.958
34.946
34.934
34.923
34.912
34.901
34.89
34.879
34.868
34.856
34.844
34.831
34.817
34.803
34.787
34.771
34.753
34.735
34.717
34.699
34.68
34.662
34.645
34.628
34.612
34.596
34.581
34.565
34.55
34.534
34.517
34.501
34.485
34.47
34.456
34.443
34.431
34.421
34.412
34.404
34.397
34.392
34.387
34.383
34.378
34.372
34.365
34.357
34.346
34.334
34.32
34.304
34.287
34.269
34.25
34.232
34.214
34.197
34.181
34.165
34.152
34.139
34.128
34.119
34.112
34.108
34.106
34.107
34.113
34.123
34.14
34.165
34.199
34.242
34.296
34.36
34.435
34.52
34.615
34.718
34.828
34.943
35.062
35.181
35.3
35.416
35.527
35.631
35.727
35.813
35.889
35.953
36.005
36.045
36.073
36.09
36.096
36.093
36.082
36.065
36.043
36.018
35.992
35.965
35.94
35.917
35.896
35.878
35.862
35.849
35.838
35.829
35.822
35.816
35.812
35.808
35.805
35.802
35.799
35.796
35.793
35.79
35.787
35.784
35.782
35.78
35.778
35.775
35.771
35.765
35.756
35.744
35.729
35.71
35.69
35.668
35.646
35.624
35.604
35.587
35.572
35.56
35.552
35.548
35.547
35.549
35.553
35.558
35.564
35.571
35.578
35.584
35.589
35.593
35.595
35.596
35.596
35.593
35.588
35.581
35.571
35.559
35.544
35.527
35.508
35.488
35.466
35.443
35.42
35.397
35.375
35.354
35.334
35.314
35.295
35.276
35.258
35.241
35.223
35.206
35.19
35.173
35.157
35.141
35.125
35.108
35.09
35.072
35.054
35.035
35.016
34.996
34.975
34.954
34.933
34.912
34.892
34.872
34.853
34.834
34.815
34.797
34.78
34.763
34.748
34.734
34.721
34.71
34.7
34.692
34.684
34.678
34.673
34.668
34.663
34.658
34.653
34.648
34.642
34.636
34.629
34.621
34.612
34.602
34.589
34.573
34.555
34.536
34.517
34.497
34.477
34.458
34.441
34.426
34.414
34.404
34.396
34.392
34.39
34.391
34.395
34.404
34.418
34.439
34.469
34.507
34.554
34.612
34.681
34.76
34.85
34.949
35.056
35.17
35.287
35.408
35.529
35.649
35.766
35.878
35.982
36.078
36.164
36.238
36.3
36.349
36.386
36.412
36.427
36.432
36.428
36.417
36.4
36.378
36.352
36.325
36.297
36.268
36.241
36.215
36.192
36.171
36.154
36.139
36.127
36.118
36.11
36.104
36.099
36.096
36.093
36.091
36.089
36.086
36.083
36.08
36.075
36.069
36.061
36.05
36.037
36.022
36.005
35.987
35.967
35.946
35.923
35.899
35.876
35.854
35.833
35.813
35.796
35.782
35.77
35.761
35.756
35.753
35.754
35.758
35.764
35.773
35.783
35.794
35.806
35.817
35.828
35.837
35.844
35.849
35.851
35.849
35.843
35.834
35.822
35.807
35.791
35.773
35.753
35.733
35.713
35.692
35.673
35.654
35.636
35.618
35.601
35.585
35.568
35.552
35.536
35.52
35.503
35.486
35.468
35.45
35.431
35.411
35.39
35.37
35.349
35.329
35.308
35.288
35.268
35.247
35.228
35.208
35.19
35.171
35.153
35.136
35.119
35.103
35.088
35.074
35.061
35.049
35.037
35.025
35.014
35.004
34.994
34.983
34.973
34.963
34.953
34.942
34.931
34.919
34.906
34.892
34.877
34.862
34.846
34.831
34.816
34.801
34.787
34.774
34.761
34.749
34.738
34.726
34.715
34.703
34.691
34.679
34.666
34.653
34.639
34.623
34.605
34.587
34.568
34.55
34.532
34.516
34.502
34.491
34.485
34.484
34.489
34.502
34.523
34.554
34.594
34.645
34.707
34.78
34.864
34.958
35.063
35.177
35.297
35.423
35.551
35.68
35.806
35.928
36.044
36.152
36.249
36.334
36.407
36.467
36.514
36.549
36.572
36.585
36.589
36.584
36.573
36.556
36.536
36.512
36.487
36.462
36.438
36.416
36.395
36.377
36.362
36.349
36.338
36.329
36.323
36.319
36.316
36.314
36.312
36.31
36.308
36.305
36.302
36.299
36.295
36.291
36.286
36.278
36.269
36.258
36.245
36.23
36.214
36.197
36.179
36.16
36.141
36.123
36.106
36.09
36.077
36.067
36.058
36.053
36.049
36.049
36.051
36.056
36.063
36.074
36.086
36.1
36.115
36.129
36.141
36.151
36.158
36.162
36.161
36.155
36.146
36.133
36.116
36.097
36.075
36.051
36.026
36.0
35.974
35.949
35.924
35.9
35.878
35.857
35.838
35.821
35.805
35.789
35.775
35.76
35.745
35.73
35.714
35.699
35.683
35.666
35.649
35.63
35.611
35.591
35.57
35.549
35.527
35.504
35.482
35.459
35.437
35.416
35.395
35.375
35.356
35.338
35.322
35.306
35.291
35.276
35.262
35.249
35.237
35.225
35.214
35.204
35.194
35.185
35.176
35.167
35.158
35.149
35.138
35.126
35.113
35.1
35.088
35.075
35.064
35.053
35.042
35.032
35.023
35.013
35.003
34.992
34.98
34.966
34.95
34.933
34.914
34.893
34.873
34.852
34.831
34.809
34.787
34.766
34.744
34.724
34.705
34.689
34.675
34.665
34.657
34.654
34.655
34.662
34.674
34.694
34.721
34.757
34.803
34.858
34.924
35.001
35.088
35.184
35.289
35.401
35.517
35.635
35.753
35.868
35.978
36.081
36.175
36.258
36.329
36.389
36.437
36.473
36.499
36.514
36.52
36.518
36.509
36.493
36.473
36.449
36.422
36.394
36.365
36.336
36.306
36.278
36.25
36.225
36.201
36.181
36.163
36.149
36.138
36.129
36.121
36.115
36.11
36.105
36.101
36.098
