Trial 3:3back
40.857
40.988
41.074
41.117
41.119
41.084
41.014
40.913
40.786
40.636
40.468
40.284
40.087
39.88
39.666
39.448
39.229
39.01
38.794
38.582
38.374
38.171
37.972
37.776
37.583
37.393
37.206
37.022
36.839
36.658
36.478
36.3
36.124
35.951
35.782
35.616
35.456
35.301
35.153
35.011
34.877
34.75
34.631
34.521
34.42
34.327
34.242
34.168
34.103
34.051
34.011
33.984
33.968
33.964
33.971
33.987
34.012
34.044
34.082
34.129
34.188
34.255
34.329
34.405
34.481
34.552
34.614
34.664
34.699
34.72
34.727
34.72
34.702
34.674
34.638
34.596
34.551
34.502
34.451
34.399
34.345
34.291
34.235
34.179
34.122
34.065
34.009
33.953
33.898
33.844
33.793
33.743
33.694
33.646
33.597
33.548
33.498
33.448
33.397
33.346
33.297
33.248
33.202
33.156
33.113
33.072
33.031
32.992
32.953
32.913
32.874
32.836
32.797
32.76
32.723
32.689
32.657
32.627
32.599
32.573
32.548
32.525
32.502
32.48
32.459
32.44
32.423
32.408
32.398
32.395
32.401
32.418
32.45
32.502
32.578
32.682
32.818
32.988
33.196
33.443
33.729
34.054
34.417
34.815
35.245
35.702
36.18
36.673
37.174
37.676
38.172
38.654
39.115
39.547
39.945
40.303
40.617
40.884
41.102
41.269
41.387
41.458
41.484
41.467
41.41
41.318
41.196
41.046
40.873
40.682
40.477
40.262
40.041
39.817
39.592
39.37
39.152
38.939
38.732
38.531
38.336
38.147
37.964
37.786
37.611
37.439
37.269
37.099
36.93
36.761
36.592
36.424
36.256
36.089
35.923
35.758
35.597
35.439
35.286
35.137
34.995
34.861
34.736
34.623
34.521
34.432
34.355
34.29
34.236
34.191
34.154
34.125
34.105
34.093
34.09
34.095
34.108
34.129
34.158
34.192
34.231
34.272
34.315
34.356
34.395
34.43
34.462
34.489
34.512
34.529
34.541
34.546
34.545
34.538
34.525
34.506
34.482
34.453
34.417
34.376
34.332
34.284
34.234
34.181
34.127
34.071
34.013
33.953
33.891
33.829
33.765
33.701
33.637
33.574
33.512
33.452
33.394
33.34
33.288
33.239
33.191
33.144
33.098
33.051
33.004
32.956
32.908
32.861
32.814
32.769
32.726
32.686
32.649
32.616
32.586
32.559
32.534
32.51
32.489
32.468
32.449
32.431
32.413
32.396
32.38
32.365
32.353
32.345
32.342
32.346
32.36
32.388
32.434
32.502
32.596
32.722
32.883
33.085
33.327
33.613
33.942
34.313
34.723
35.168
35.641
36.137
36.648
37.167
37.685
38.195
38.688
39.159
39.6
40.005
40.367
40.683
40.95
41.168
41.335
41.453
41.523
41.548
41.532
41.48
41.395
41.283
41.147
40.992
40.821
40.64
40.45
40.254
40.054
39.852
39.649
39.446
39.244
39.044
38.845
38.649
38.455
38.264
38.077
37.894
37.715
37.541
37.371
37.207
37.047
36.891
36.737
36.585
36.434
36.283
36.132
35.98
35.828
35.677
35.53
35.387
35.249
35.118
34.994
34.879
34.772
34.675
34.587
34.51
34.443
34.386
34.338
34.299
34.268
34.245
34.23
34.221
34.22
34.224
34.235
34.253
34.276
34.305
34.339
34.376
34.414
34.452
34.487
34.518
34.544
34.564
34.577
34.582
34.579
34.568
34.55
34.525
34.495
34.462
34.426
34.388
34.348
34.306
34.262
34.216
34.166
34.114
34.058
33.999
33.936
33.87
33.803
33.736
33.668
33.602
33.538
33.475
33.412
33.351
33.292
33.234
33.18
33.127
33.076
33.028
32.982
32.939
32.897
32.857
32.819
32.783
32.746
32.71
32.673
32.637
32.6
32.564
32.527
32.491
32.456
32.421
32.387
32.354
32.324
32.297
32.273
32.253
32.237
32.228
32.226
32.233
32.248
32.275
32.315
32.371
32.446
32.545
32.672
32.834
33.032
33.272
33.556
33.882
34.252
34.663
35.11
35.587
36.087
36.602
37.124
37.644
38.153
38.645
39.11
39.544
39.94
40.295
40.604
40.865
41.077
41.24
41.356
41.427
41.455
41.446
41.401
41.326
41.224
41.098
40.953
40.792
40.62
40.437
40.248
40.054
39.856
39.657
39.457
39.258
39.06
38.865
38.674
38.487
38.303
38.122
37.945
37.77
37.597
37.426
37.255
37.083
36.911
36.74
36.57
36.401
36.234
36.071
35.913
35.758
35.608
35.463
35.323
35.19
35.063
34.944
34.833
34.732
34.64
34.557
34.485
34.425
34.375
34.338
34.31
34.294
34.286
34.285
34.291
34.3
34.313
34.328
34.345
34.364
34.384
34.406
34.427
34.45
34.471
34.491
34.506
34.518
34.524
34.525
34.52
34.509
34.493
34.473
34.449
34.422
34.391
34.357
34.321
34.283
34.243
34.199
34.153
34.104
34.052
33.997
33.939
33.879
33.817
33.756
33.693
33.63
33.568
33.506
33.445
33.385
33.326
33.268
33.212
33.157
33.103
33.046
32.98
32.907
32.827
32.745
32.664
32.588
32.52
32.461
32.413
32.375
32.348
32.33
32.32
32.314
32.312
32.312
32.313
32.314
32.315
32.315
32.313
32.31
32.306
32.299
32.29
32.277
32.263
32.247
32.23
32.216
32.206
32.204
32.214
32.24
32.284
32.352
32.447
32.574
32.737
32.938
33.18
33.465
33.793
34.161
34.568
35.008
35.477
35.967
36.472
36.984
37.495
37.998
38.485
38.947
39.379
39.775
40.128
40.437
40.698
40.909
41.071
41.185
41.253
41.279
41.265
41.215
41.134
41.026
40.894
40.744
40.577
40.397
40.205
40.005
39.798
39.588
39.375
39.162
38.951
38.742
38.535
38.33
38.13
37.933
37.74
37.551
37.367
37.189
37.014
36.842
36.673
36.504
36.338
36.173
36.01
35.85
35.692
35.538
35.388
35.242
35.101
34.966
34.839
34.719
34.607
34.504
34.412
34.331
34.263
34.208
34.164
34.132
34.112
34.101
34.098
34.102
34.113
34.128
34.146
34.169
34.194
34.221
34.25
34.282
34.314
34.347
34.378
34.407
34.433
34.456
34.475
34.49
34.502
34.509
34.511
34.507
34.498
34.483
34.463
34.437
34.404
34.366
34.322
34.274
34.221
34.164
34.104
34.042
33.98
33.918
33.856
33.796
33.736
33.679
33.623
33.568
33.515
33.461
33.409
33.358
33.308
33.26
33.215
33.172
33.134
33.097
33.062
33.029
32.998
32.968
32.939
32.91
32.88
32.851
32.82
32.788
32.755
32.72
32.685
32.65
32.614
32.58
32.547
32.516
32.489
32.464
32.442
32.424
32.409
32.4
32.396
32.399
32.412
32.437
32.476
32.532
32.609
32.71
32.839
32.999
33.194
33.426
33.695
34.003
34.349
34.731
35.144
35.587
36.053
36.536
37.028
37.522
38.011
38.485
38.939
39.363
39.753
40.103
40.409
40.668
40.877
41.036
41.148
41.214
41.236
41.217
41.161
41.072
40.953
40.809
40.644
40.462
40.265
40.057
39.842
39.621
39.397
39.173
38.951
38.733
38.519
38.312
38.11
37.915
37.728
37.546
37.37
37.198
37.03
36.865
36.7
36.535
36.369
36.203
36.035
35.868
35.701
35.535
35.374
35.217
35.068
34.927
34.795
34.673
34.56
34.458
34.365
34.281
34.208
34.145
34.094
34.054
34.026
34.009
34.005
34.012
34.029
34.055
34.088
34.127
34.169
34.212
34.256
34.298
34.339
34.378
34.413
34.445
34.473
34.498
34.518
34.535
34.548
34.557
34.563
34.565
34.561
34.553
34.538
34.518
34.494
34.464
34.429
34.388
34.343
34.292
34.237
34.179
34.118
34.057
33.995
33.934
33.875
33.817
33.761
33.708
33.657
33.608
33.558
33.508
33.458
33.408
33.357
33.308
33.259
33.211
33.165
33.12
33.076
33.035
32.997
32.961
32.926
32.894
32.863
32.833
32.805
32.777
32.749
32.722
32.694
32.666
32.637
32.608
32.58
32.554
32.531
32.513
32.5
32.494
32.498
32.515
32.547
32.598
32.671
32.772
32.903
33.069
33.273
33.518
33.806
34.136
34.507
34.913
35.351
35.815
36.299
36.796
37.298
37.798
38.287
38.758
39.202
39.613
39.986
40.317
40.604
40.843
41.035
41.179
41.278
41.332
41.345
41.32
41.261
41.171
41.056
40.919
40.763
40.591
40.406
40.211
40.009
39.802
39.592
39.383
39.175
38.972
38.773
38.58
38.393
38.212
38.036
37.866
37.699
37.535
37.372
37.21
37.046
36.88
36.712
36.541
36.37
36.197
36.023
35.852
35.684
35.521
35.364
35.215
35.075
34.945
34.826
34.719
34.622
34.536
34.461
34.396
34.341
34.296
34.259
34.231
34.212
34.201
34.197
34.2
34.211
34.229
34.253
34.282
34.316
34.354
34.395
34.437
34.476
34.512
34.541
34.563
34.576
34.578
34.572
34.558
34.538
34.514
34.486
34.456
34.424
34.392
34.358
34.322
34.284
34.244
34.2
34.153
34.102
34.049
33.993
33.935
33.878
33.821
33.765
33.71
33.656
33.603
33.55
33.498
33.447
33.396
33.346
33.296
33.246
33.198
33.151
33.106
33.063
33.02
32.979
32.939
32.9
32.862
32.823
32.785
32.748
32.713
32.68
32.648
32.619
32.592
32.567
32.544
32.523
32.504
32.486
32.47
32.455
32.441
32.429
32.418
32.41
32.407
32.413
32.438
32.486
32.562
32.666
32.8
32.964
33.158
33.384
33.642
33.934
34.26
34.62
35.013
35.434
35.879
36.343
36.819
37.301
37.781
38.254
38.712
39.15
39.56
39.938
40.278
40.577
40.832
41.043
41.208
41.328
41.404
41.439
41.434
41.393
41.319
41.214
41.084
40.934
40.767
40.588
40.4
40.208
40.014
39.819
39.625
39.434
39.246
39.063
38.883
38.708
38.535
38.364
38.195
38.028
37.863
37.698
37.535
37.373
37.212
37.052
36.891
36.731
36.57
36.41
36.25
36.091
35.932
35.777
35.625
35.479
35.338
35.205
35.081
34.968
34.863
34.769
34.684
34.609
34.545
34.492
34.448
34.414
34.389
34.372
34.364
34.363
34.369
34.383
34.403
34.428
34.456
34.487
34.517
34.547
34.574
34.598
34.618
34.634
34.646
34.653
34.656
34.653
34.646
34.634
34.618
34.597
34.573
34.544
34.512
34.476
34.437
34.395
34.35
34.301
34.249
34.192
34.132
34.068
34.001
33.931
33.86
33.787
33.715
33.646
33.579
33.516
33.457
33.403
33.352
33.303
33.256
33.21
33.164
33.117
33.071
33.025
32.979
32.935
32.892
32.851
32.813
32.776
32.741
32.707
32.673
32.639
32.606
32.576
32.559
32.555
32.563
32.581
32.605
32.629
32.65
32.664
32.669
32.664
32.65
32.628
32.599
32.567
32.536
32.513
32.5
32.506
32.535
32.594
32.689
32.825
33.004
33.231
33.505
33.826
34.192
34.597
35.037
35.506
35.996
36.499
37.009
37.515
38.012
38.49
38.942
39.363
39.747
40.09
40.389
40.641
40.847
41.008
41.124
41.2
41.237
41.238
41.206
41.143
41.054
40.94
40.806
40.655
40.488
40.311
40.126
39.934
39.739
39.541
39.342
39.145
38.949
38.757
38.569
38.384
38.203
38.026
37.853
37.684
37.518
37.355
37.194
37.035
36.876
36.716
36.556
36.396
36.236
36.078
35.922
35.769
35.62
35.475
35.337
35.206
35.082
34.967
34.861
34.763
34.674
34.596
34.527
34.469
34.421
34.384
34.356
34.337
34.326
34.322
34.324
34.332
34.344
34.36
34.377
34.397
34.418
34.441
34.464
34.487
34.509
34.529
34.548
34.563
34.573
34.577
34.576
34.569
34.555
34.535
34.51
34.48
34.446
34.409
34.368
34.324
34.278
34.23
34.179
34.124
34.067
34.008
33.947
33.884
33.821
33.757
33.694
33.631
33.571
33.511
33.453
33.397
33.343
33.291
33.242
33.195
33.151
33.111
33.072
33.035
32.998
32.961
32.924
32.886
32.848
32.809
32.77
32.73
32.69
32.65
32.611
32.575
32.542
32.511
32.484
32.458
32.435
32.414
32.395
32.378
32.364
32.352
32.341
32.331
32.322
32.313
32.307
32.302
32.301
32.304
32.313
32.33
32.358
32.398
32.454
32.529
32.628
32.752
32.907
33.096
33.322
33.587
33.893
34.239
34.623
35.041
35.488
35.957
36.442
36.934
37.426
37.91
38.377
38.821
39.234
39.61
39.945
40.236
40.479
40.674
40.819
40.916
40.966
40.973
40.94
40.871
40.77
40.642
40.492
40.323
40.139
39.945
39.743
39.538
39.332
39.127
38.924
38.727
38.534
38.348
38.167
37.991
37.82
37.652
37.487
37.321
37.155
36.988
36.82
36.65
36.479
36.308
36.137
35.969
35.803
35.642
35.486
35.338
35.197
35.065
34.94
34.824
34.717
34.618
34.528
34.446
34.374
34.311
34.258
34.215
34.182
34.161
34.15
34.148
34.156
34.17
34.191
34.217
34.247
34.28
34.315
34.351
34.387
34.422
34.457
34.49
34.52
34.546
34.57
34.589
34.602
34.609
34.611
34.607
34.599
34.585
34.567
34.543
34.516
34.483
34.447
34.406
34.362
34.314
34.263
34.21
34.154
34.096
34.038
33.98
33.923
33.866
33.81
33.754
33.699
33.645
33.592
33.539
33.488
33.437
33.388
33.339
33.291
33.244
33.199
33.154
33.111
33.069
33.029
32.991
32.955
32.923
32.895
32.87
32.848
32.828
32.809
32.789
32.769
32.748
32.726
32.703
32.68
32.658
32.636
32.615
32.595
32.577
32.561
32.548
32.536
32.527
32.52
32.517
32.52
32.529
32.547
32.576
32.619
32.68
32.761
32.867
33.005
33.178
33.391
33.644
33.938
34.272
34.642
35.044
35.473
35.923
36.387
36.858
37.327
37.788
38.232
38.656
39.053
39.419
39.749
40.042
40.294
40.504
40.673
40.799
40.885
40.932
40.941
40.915
40.859
40.775
40.667
40.539
40.394
40.236
40.067
39.889
39.705
39.516
39.324
39.128
38.931
38.733
38.536
38.341
38.147
37.957
37.77
37.588
37.411
37.239
37.073
36.911
36.754
36.601
36.45
36.3
36.152
36.005
35.858
35.713
35.569
35.426
35.288
35.154
35.026
34.906
34.794
34.694
34.605
34.528
34.464
34.412
34.371
34.342
34.323
34.313
34.311
34.317
34.328
34.345
34.364
34.385
34.408
34.431
34.455
34.48
34.505
34.53
34.556
34.58
34.603
34.622
34.638
34.647
34.651
34.647
34.636
34.619
34.594
34.564
34.529
34.492
34.451
34.41
34.367
34.323
34.277
34.23
34.182
34.131
34.079
34.024
33.968
33.91
33.851
33.792
33.734
33.678
33.625
33.575
33.527
33.481
33.438
33.396
33.356
33.315
33.274
33.233
33.192
33.151
33.11
33.07
33.032
32.994
32.958
32.923
32.888
32.855
32.824
32.795
32.768
32.744
32.72
32.695
32.669
32.643
32.616
32.59
32.563
32.537
32.512
32.489
32.471
32.457
32.45
32.449
32.454
32.468
32.49
32.524
32.572
32.636
32.723
32.834
32.974
33.147
33.358
33.608
33.899
34.23
34.6
35.004
35.437
35.892
36.363
36.842
37.323
37.796
38.256
38.696
39.109
39.49
39.835
40.142
40.407
40.631
40.812
40.952
41.05
41.108
41.128
41.112
41.063
40.984
40.88
40.752
40.607
40.447
40.276
40.097
39.913
39.725
39.537
39.35
39.165
38.984
38.806
38.631
38.46
38.291
38.125
37.961
37.799
37.638
37.479
37.322
37.165
37.01
36.858
36.708
36.561
36.415
36.27
36.126
35.983
35.839
35.697
35.556
35.418
35.284
35.156
35.034
34.922
34.819
34.729
34.651
34.585
34.53
34.486
34.451
34.424
34.404
34.392
34.385
34.384
34.388
34.397
34.41
34.428
34.45
34.475
34.502
34.53
34.556
34.58
34.6
34.614
34.623
34.626
34.623
34.615
34.603
34.587
34.567
34.545
34.521
34.496
34.468
34.438
34.405
34.367
34.325
34.278
34.226
34.17
34.111
34.05
33.986
33.922
33.858
33.795
33.733
33.673
33.615
33.559
33.506
33.454
33.404
33.355
33.308
33.263
33.219
33.176
33.134
33.094
33.055
33.018
32.983
32.948
32.915
32.883
32.853
32.823
32.793
32.764
32.734
32.706
32.677
32.651
32.627
32.607
32.59
32.576
32.564
32.555
32.548
32.541
32.532
32.522
32.509
32.495
32.481
32.469
32.46
32.459
32.466
32.486
32.521
32.574
32.649
32.75
32.881
33.045
33.245
33.485
33.766
34.088
34.451
34.85
35.283
35.742
36.221
36.711
37.204
37.69
38.163
38.616
39.041
39.432
39.783
40.092
40.353
40.564
40.723
40.835
40.902
40.93
40.922
40.884
40.82
40.733
40.627
40.507
40.374
40.231
40.082
39.927
39.768
39.606
39.442
39.276
39.109
38.94
38.771
38.602
38.432
38.262
38.093
37.924
37.757
37.593
37.43
37.271
37.112
36.955
36.799
36.643
36.487
36.332
36.178
36.026
35.878
35.733
35.592
35.456
35.325
35.2
35.081
34.969
34.864
34.768
34.68
34.601
34.531
34.469
34.417
34.375
34.341
34.315
34.296
34.283
34.276
34.275
34.28
34.289
34.303
34.32
34.341
34.362
34.385
34.407
34.427
34.444
34.457
34.467
34.472
34.475
34.473
34.469
34.461
34.45
34.434
34.415
34.391
34.363
34.331
34.295
34.257
34.215
34.17
34.122
34.07
34.017
33.962
33.906
33.849
33.791
33.733
33.674
33.614
33.554
33.494
33.434
33.376
33.319
33.264
33.213
33.165
33.121
33.081
33.046
33.013
32.983
32.953
32.923
32.892
32.861
32.828
32.795
32.761
32.728
32.697
32.668
32.64
32.616
32.594
32.573
32.554
32.535
32.516
32.497
32.479
32.462
32.445
32.429
32.415
32.403
32.394
32.386
32.38
32.376
32.373
32.373
32.374
32.379
32.391
32.414
32.454
32.513
32.595
32.705
32.847
33.022
33.233
33.483
33.771
34.097
34.459
34.853
35.273
35.714
36.17
36.634
37.099
37.558
38.002
38.428
38.827
39.195
39.528
39.822
40.074
40.284
40.451
40.576
40.659
40.705
40.714
40.691
40.637
40.556
40.45
40.324
40.181
40.024
39.854
39.675
39.489
39.296
39.1
38.9
38.7
38.5
38.302
38.106
37.914
37.727
37.545
37.368
37.197
37.033
36.873
36.719
36.569
36.423
36.28
36.139
35.999
35.86
35.723
35.588
35.453
35.321
35.193
35.07
34.953
34.843
34.74
34.646
34.559
34.481
34.412
34.351
34.299
34.257
34.224
34.199
34.182
34.174
34.173
34.181
34.196
34.219
34.25
34.285
34.324
34.363
34.403
34.441
34.476
34.507
34.534
34.556
34.573
34.585
34.592
34.593
34.588
34.578
34.562
34.539
34.51
34.476
34.438
34.396
34.352
34.306
34.26
34.214
34.168
34.122
34.076
34.03
33.983
33.935
33.886
33.833
33.778
33.722
33.665
33.608
33.552
33.498
33.445
33.395
33.347
33.302
33.259
33.219
33.18
33.142
33.105
33.07
33.036
33.004
32.974
32.946
32.919
32.894
32.869
32.845
32.823
32.801
32.782
32.763
32.747
32.731
32.717
32.704
32.692
32.679
32.666
32.653
32.64
32.627
32.616
32.605
32.597
32.593
32.592
32.597
32.609
32.632
32.667
32.718
32.787
32.877
32.993
33.136
33.311
33.519
33.763
34.044
34.361
34.714
35.098
35.509
35.941
36.389
36.846
37.303
37.755
38.192
38.608
38.998
39.354
39.673
39.951
40.186
40.377
40.524
40.626
40.687
40.707
40.69
40.638
40.555
40.443
40.308
40.154
39.984
39.804
39.615
39.423
39.228
39.033
38.838
38.645
38.455
38.267
38.082
37.899
37.719
37.54
37.364
37.19
37.017
36.846
36.677
36.509
36.343
36.179
36.019
35.861
35.708
35.561
35.419
35.283
35.153
35.029
34.913
34.804
34.703
34.61
34.526
34.451
34.384
34.327
34.279
34.24
34.209
34.187
34.174
34.169
34.172
34.183
34.201
34.225
34.253
34.285
34.32
34.357
34.396
34.434
34.471
34.506
34.538
34.565
34.589
34.609
34.625
34.636
34.639
34.637
34.626
34.603
34.567
34.52
34.464
34.402
34.338
34.275
34.213
34.156
34.104
34.058
34.018
33.982
33.949
33.918
33.889
33.86
33.831
33.8
33.767
33.731
33.693
33.652
33.611
33.57
33.529
33.488
33.448
33.408
33.368
33.328
33.288
33.249
33.21
33.172
33.135
33.1
33.065
33.033
33.003
32.976
32.951
32.927
32.903
32.879
32.857
32.835
32.814
32.796
32.778
32.763
32.75
32.738
32.727
32.718
32.712
32.709
32.711
32.719
32.735
32.763
32.805
32.866
32.947
33.054
33.189
33.357
33.56
33.801
34.081
34.399
34.755
35.143
35.559
35.997
36.451
36.914
37.377
37.833
38.275
38.695
39.086
39.442
39.758
40.031
40.26
40.445
40.585
40.682
40.739
40.758
40.742
40.694
40.619
40.519
40.399
40.262
40.113
39.952
39.783
39.609
39.43
39.251
39.071
38.891
38.712
38.535
38.36
38.187
38.016
37.848
37.683
37.52
37.361
37.204
37.048
36.894
36.741
36.587
36.433
36.277
36.12
35.963
35.807
35.653
35.503
35.358
35.221
35.092
34.975
34.868
34.772
34.686
34.61
34.543
34.485
34.435
34.394
34.359
34.331
34.311
34.297
34.292
34.294
34.304
34.32
34.343
34.37
34.4
34.431
34.461
34.488
34.512
34.531
34.545
34.555
34.561
34.564
34.565
34.564
34.562
34.557
34.551
34.542
34.529
34.512
34.49
34.464
34.434
34.399
34.359
34.315
34.267
34.216
34.161
34.104
34.046
33.988
33.93
33.874
33.818
33.765
33.714
33.665
33.618
33.573
33.529
33.487
33.446
33.405
33.365
33.326
33.289
33.252
33.218
33.184
33.152
33.121
33.092
33.063
