Trial 3:3back
36.514
36.429
36.347
36.267
36.189
36.115
36.042
35.973
35.906
35.842
35.78
35.72
35.663
35.608
35.554
35.503
35.452
35.403
35.355
35.308
35.261
35.216
35.171
35.128
35.085
35.045
35.007
34.972
34.941
34.914
34.891
34.872
34.858
34.847
34.84
34.837
34.837
34.841
34.847
34.856
34.868
34.881
34.896
34.912
34.928
34.945
34.962
34.978
34.994
35.008
35.019
35.028
35.034
35.037
35.037
35.035
35.031
35.024
35.015
35.004
34.99
34.974
34.955
34.934
34.912
34.889
34.864
34.838
34.81
34.781
34.75
34.718
34.684
34.649
34.614
34.578
34.543
34.509
34.475
34.443
34.413
34.383
34.355
34.328
34.302
34.276
34.251
34.227
34.202
34.176
34.151
34.125
34.098
34.071
34.044
34.017
33.989
33.961
33.933
33.905
33.878
33.852
33.828
33.805
33.784
33.764
33.745
33.726
33.709
33.692
33.675
33.659
33.643
33.627
33.612
33.597
33.582
33.569
33.557
33.549
33.544
33.544
33.552
33.568
33.596
33.638
33.695
33.769
33.861
33.971
34.099
34.245
34.407
34.584
34.772
34.968
35.17
35.373
35.575
35.772
35.96
36.136
36.299
36.446
36.576
36.687
36.779
36.853
36.907
36.944
36.964
36.967
36.955
36.93
36.894
36.847
36.793
36.732
36.667
36.599
36.53
36.46
36.39
36.32
36.252
36.184
36.119
36.054
35.991
35.93
35.869
35.81
35.753
35.696
35.642
35.589
35.539
35.492
35.449
35.409
35.374
35.341
35.312
35.286
35.262
35.24
35.217
35.195
35.172
35.147
35.122
35.096
35.068
35.041
35.013
34.986
34.96
34.937
34.916
34.898
34.885
34.875
34.869
34.866
34.866
34.87
34.876
34.884
34.893
34.903
34.913
34.922
34.93
34.937
34.942
34.947
34.951
34.954
34.958
34.96
34.961
34.961
34.959
34.955
34.95
34.941
34.93
34.916
34.901
34.883
34.864
34.844
34.822
34.799
34.775
34.75
34.723
34.696
34.668
34.639
34.609
34.578
34.546
34.515
34.485
34.457
34.431
34.407
34.386
34.366
34.348
34.33
34.311
34.292
34.273
34.252
34.231
34.208
34.184
34.16
34.135
34.11
34.086
34.062
34.039
34.017
33.996
33.975
33.956
33.936
33.918
33.902
33.886
33.871
33.857
33.843
33.829
33.815
33.801
33.787
33.772
33.757
33.743
33.728
33.714
33.701
33.69
33.683
33.68
33.684
33.696
33.718
33.751
33.798
33.861
33.938
34.032
34.142
34.267
34.405
34.557
34.718
34.886
35.058
35.232
35.404
35.571
35.731
35.882
36.022
36.147
36.257
36.351
36.428
36.488
36.53
36.556
36.567
36.562
36.543
36.511
36.469
36.416
36.356
36.29
36.219
36.144
36.068
35.991
35.914
35.837
35.761
35.687
35.615
35.546
35.48
35.417
35.357
35.301
35.249
35.2
35.155
35.113
35.074
35.037
35.003
34.97
34.939
34.91
34.883
34.857
34.832
34.808
34.784
34.762
34.74
34.718
34.696
34.676
34.656
34.638
34.621
34.605
34.591
34.579
34.57
34.565
34.562
34.563
34.567
34.573
34.581
34.591
34.602
34.614
34.626
34.638
34.649
34.658
34.667
34.675
34.682
34.688
34.694
34.699
34.704
34.709
34.713
34.717
34.72
34.722
34.723
34.722
34.719
34.714
34.706
34.696
34.683
34.669
34.651
34.632
34.611
34.587
34.563
34.538
34.512
34.487
34.462
34.438
34.414
34.391
34.369
34.348
34.327
34.307
34.287
34.267
34.249
34.231
34.214
34.199
34.183
34.168
34.152
34.136
34.12
34.104
34.087
34.07
34.054
34.037
34.021
34.005
33.99
33.976
33.964
33.952
33.941
33.93
33.92
33.908
33.897
33.884
33.871
33.856
33.841
33.826
33.81
33.794
33.778
33.761
33.745
33.728
33.711
33.695
33.68
33.666
33.654
33.645
33.641
33.643
33.654
33.674
33.708
33.755
33.818
33.898
33.995
34.109
34.24
34.385
34.542
34.709
34.88
35.054
35.225
35.391
35.548
35.693
35.824
35.939
36.035
36.114
36.175
36.218
36.247
36.261
36.262
36.252
36.23
36.2
36.161
36.116
36.065
36.009
35.949
35.885
35.819
35.751
35.683
35.614
35.545
35.476
35.408
35.342
35.279
35.218
35.159
35.104
35.053
35.006
34.962
34.922
34.887
34.855
34.826
34.801
34.777
34.756
34.735
34.714
34.694
34.674
34.655
34.636
34.618
34.601
34.585
34.571
34.559
34.55
34.543
34.538
34.536
34.536
34.538
34.543
34.549
34.557
34.567
34.578
34.59
34.604
34.62
34.638
34.657
34.677
34.698
34.717
34.736
34.754
34.77
34.784
34.796
34.806
34.813
34.818
34.82
34.821
34.819
34.815
34.809
34.801
34.791
34.779
34.765
34.75
34.732
34.712
34.69
34.666
34.64
34.613
34.585
34.556
34.527
34.499
34.472
34.446
34.421
34.397
34.373
34.35
34.327
34.306
34.284
34.263
34.243
34.223
34.203
34.184
34.165
34.147
34.129
34.113
34.097
34.082
34.068
34.054
34.04
34.026
34.013
33.998
33.984
33.971
33.957
33.945
33.934
33.923
33.913
33.903
33.894
33.885
33.877
33.87
33.863
33.856
33.85
33.843
33.837
33.832
33.827
33.823
33.821
33.822
33.828
33.84
33.859
33.889
33.929
33.982
34.048
34.128
34.224
34.335
34.459
34.595
34.741
34.895
35.054
35.215
35.376
35.533
35.684
35.826
35.958
36.076
36.18
36.269
36.341
36.398
36.438
36.462
36.472
36.467
36.451
36.422
36.382
36.334
36.278
36.217
36.152
36.085
36.017
35.948
35.88
35.812
35.746
35.68
35.616
35.554
35.493
35.435
35.378
35.322
35.269
35.217
35.168
35.121
35.075
35.032
34.991
34.951
34.912
34.874
34.837
34.801
34.766
34.733
34.701
34.67
34.641
34.613
34.588
34.565
34.544
34.527
34.514
34.504
34.497
34.494
34.494
34.498
34.505
34.516
34.529
34.546
34.565
34.587
34.611
34.636
34.662
34.689
34.716
34.743
34.767
34.791
34.812
34.83
34.847
34.86
34.87
34.876
34.879
34.878
34.874
34.867
34.857
34.846
34.834
34.821
34.808
34.795
34.783
34.77
34.756
34.742
34.728
34.712
34.696
34.679
34.662
34.644
34.625
34.606
34.587
34.567
34.547
34.527
34.507
34.486
34.465
34.444
34.423
34.403
34.382
34.361
34.341
34.321
34.302
34.282
34.262
34.242
34.223
34.205
34.188
34.172
34.158
34.144
34.131
34.119
34.108
34.098
34.088
34.078
34.067
34.055
34.043
34.03
34.017
34.003
33.99
33.976
33.964
33.952
33.943
33.936
33.932
33.932
33.937
33.946
33.963
33.987
34.021
34.066
34.123
34.195
34.281
34.383
34.5
34.632
34.776
34.931
35.093
35.258
35.425
35.59
35.749
35.901
36.042
36.171
36.285
36.383
36.464
36.527
36.574
36.604
36.618
36.618
36.605
36.582
36.55
36.509
36.462
36.409
36.35
36.286
36.219
36.149
36.078
36.005
35.933
35.861
35.791
35.723
35.657
35.594
35.534
35.476
35.421
35.369
35.319
35.273
35.229
35.188
35.151
35.116
35.083
35.052
35.024
34.997
34.971
34.946
34.922
34.9
34.877
34.855
34.834
34.814
34.795
34.777
34.761
34.748
34.738
34.731
34.728
34.728
34.732
34.738
34.749
34.762
34.778
34.797
34.817
34.84
34.863
34.888
34.912
34.936
34.959
34.98
34.999
35.015
35.028
35.038
35.044
35.048
35.05
35.049
35.048
35.044
35.04
35.035
35.028
35.021
35.012
35.002
34.99
34.976
34.961
34.946
34.929
34.911
34.892
34.873
34.854
34.835
34.816
34.796
34.777
34.757
34.737
34.717
34.697
34.677
34.656
34.635
34.614
34.593
34.572
34.552
34.532
34.513
34.494
34.476
34.457
34.438
34.417
34.396
34.374
34.352
34.331
34.311
34.291
34.274
34.257
34.242
34.228
34.215
34.203
34.192
34.181
34.171
34.161
34.152
34.142
34.132
34.121
34.109
34.097
34.084
34.07
34.057
34.045
34.036
34.029
34.025
34.025
34.031
34.042
34.063
34.094
34.136
34.193
34.265
34.354
34.46
34.583
34.721
34.873
35.037
35.211
35.393
35.578
35.763
35.944
36.119
36.285
36.439
36.578
36.702
36.809
36.899
36.973
37.029
37.069
37.094
37.104
37.1
37.084
37.056
37.019
36.973
36.92
36.861
36.798
36.731
36.662
36.592
36.522
36.451
36.382
36.313
36.245
36.18
36.116
36.055
35.998
35.943
35.892
35.844
35.799
35.757
35.718
35.682
35.649
35.619
35.591
35.567
35.545
35.525
35.505
35.486
35.466
35.446
35.425
35.404
35.382
35.36
35.337
35.316
35.295
35.277
35.26
35.246
35.235
35.226
35.22
35.216
35.216
35.218
35.223
35.231
35.242
35.254
35.269
35.285
35.3
35.315
35.33
35.344
35.358
35.371
35.383
35.394
35.403
35.411
35.418
35.422
35.424
35.424
35.422
35.418
35.412
35.404
35.394
35.383
35.371
35.357
35.342
35.326
35.307
35.287
35.265
35.241
35.215
35.189
35.163
35.138
35.114
35.089
35.065
35.041
35.017
34.992
34.967
34.942
34.915
34.889
34.863
34.838
34.813
34.789
34.767
34.746
34.726
34.707
34.691
34.675
34.661
34.649
34.637
34.626
34.616
34.607
34.598
34.588
34.578
34.567
34.555
34.542
34.529
34.515
34.501
34.486
34.471
34.456
34.441
34.426
34.411
34.397
34.382
34.368
34.356
34.345
34.336
34.332
34.334
34.342
34.36
34.389
34.433
34.492
34.569
34.663
34.775
34.904
35.049
35.207
35.377
35.555
35.739
35.924
36.108
36.286
36.457
36.617
36.765
36.898
37.017
37.119
37.204
37.273
37.324
37.36
37.38
37.386
37.378
37.357
37.325
37.283
37.233
37.175
37.111
37.044
36.973
36.9
36.826
36.753
36.68
36.61
36.542
36.476
36.414
36.355
36.298
36.243
36.191
36.141
36.093
36.048
36.006
35.966
35.929
35.893
35.86
35.829
35.799
35.772
35.745
35.72
35.696
35.672
35.649
35.626
35.602
35.579
35.557
35.535
35.516
35.497
35.482
35.469
35.459
35.451
35.447
35.446
35.447
35.451
35.458
35.467
35.477
35.489
35.502
35.516
35.531
35.546
35.561
35.575
35.589
35.602
35.615
35.627
35.637
35.647
35.654
35.659
35.662
35.662
35.66
35.655
35.648
35.638
35.626
35.611
35.595
35.577
35.558
35.537
35.515
35.493
35.471
35.449
35.427
35.406
35.384
35.363
35.341
35.319
35.296
35.274
35.251
35.228
35.205
35.181
35.158
35.134
35.11
35.086
35.061
35.036
35.01
34.983
34.958
34.933
34.908
34.884
34.861
34.837
34.813
34.79
34.766
34.742
34.719
34.697
34.676
34.656
34.638
34.621
34.605
34.591
34.577
34.565
34.553
34.54
34.527
34.514
34.499
34.482
34.465
34.447
34.429
34.412
34.398
34.389
34.385
34.388
34.401
34.426
34.466
34.521
34.593
34.683
34.791
34.916
35.057
35.212
35.379
35.555
35.737
35.921
36.104
36.283
36.455
36.618
36.77
36.908
37.033
37.142
37.235
37.312
37.373
37.418
37.448
37.464
37.466
37.457
37.436
37.407
37.369
37.325
37.275
37.22
37.162
37.101
37.037
36.972
36.907
36.842
36.778
36.714
36.653
36.594
36.536
36.481
36.427
36.375
36.324
36.275
36.229
36.184
36.142
36.103
36.065
36.031
35.998
35.968
35.94
35.913
35.886
35.86
35.834
35.809
35.785
35.762
35.741
35.722
35.705
35.69
35.678
35.668
35.659
35.652
35.646
35.641
35.636
35.632
35.629
35.628
35.629
35.632
35.638
35.648
35.659
35.674
35.69
35.708
35.727
35.745
35.763
35.779
35.792
35.803
35.811
35.816
35.817
35.815
35.809
35.8
35.787
35.772
35.754
35.734
35.713
35.689
35.665
35.64
35.615
35.589
35.564
35.538
35.513
35.487
35.462
35.437
35.411
35.386
35.36
35.333
35.308
35.282
35.257
35.232
35.208
35.184
35.159
35.134
35.109
35.083
35.057
35.031
35.007
34.983
34.961
34.94
34.921
34.903
34.886
34.87
34.854
34.839
34.823
34.808
34.793
34.778
34.763
34.748
34.734
34.721
34.709
34.697
34.686
34.675
34.664
34.652
34.64
34.628
34.616
34.607
34.6
34.598
34.602
34.615
34.64
34.677
34.729
34.798
34.884
34.987
35.107
35.243
35.395
35.56
35.737
35.922
36.112
36.303
36.492
36.676
36.852
37.017
37.169
37.304
37.423
37.524
37.607
37.671
37.719
37.749
37.764
37.763
37.75
37.725
37.689
37.644
37.592
37.534
37.471
37.405
37.336
37.264
37.19
37.114
37.037
36.961
36.885
36.811
36.739
36.669
36.602
36.537
36.475
36.416
36.359
36.304
36.253
36.205
36.158
36.114
36.071
36.029
35.987
35.946
35.906
35.867
35.828
35.792
35.758
35.725
35.695
35.667
35.643
35.622
35.605
35.592
35.584
35.579
35.579
35.582
35.588
35.596
35.607
35.62
35.634
35.649
35.665
35.681
35.697
35.712
35.726
35.74
35.752
35.763
35.773
35.783
35.791
35.798
35.803
35.805
35.805
35.802
35.797
35.788
35.777
35.763
35.747
35.729
35.71
35.69
35.669
35.648
35.627
35.604
35.58
35.556
35.531
35.505
35.479
35.452
35.424
35.395
35.367
35.338
35.31
35.283
35.256
35.23
35.206
35.181
35.158
35.135
35.113
35.091
35.071
35.051
35.032
35.014
34.996
34.978
34.96
34.944
34.927
34.911
34.897
34.882
34.868
34.855
34.842
34.829
34.817
34.806
34.794
34.783
34.771
34.759
34.745
34.731
34.715
34.7
34.684
34.669
34.655
34.642
34.633
34.628
34.63
34.64
34.66
34.695
34.744
34.811
34.896
35.0
35.123
35.263
35.419
35.59
35.771
35.961
36.157
36.354
36.549
36.739
36.921
37.092
37.251
37.395
37.524
37.636
37.73
37.805
37.863
37.904
37.93
37.94
37.936
37.919
37.89
37.851
37.803
37.748
37.687
37.622
37.554
37.484
37.412
37.341
37.27
37.2
37.131
37.064
36.997
36.933
36.869
36.807
36.747
36.688
36.631
36.575
36.523
36.473
36.425
36.379
36.336
36.294
36.255
36.218
36.182
36.148
36.115
36.082
36.05
36.017
35.985
35.953
35.922
35.891
35.86
35.831
35.804
35.78
35.759
35.741
35.727
35.718
35.714
35.714
35.72
35.729
35.742
35.757
35.775
35.795
35.815
35.836
35.857
35.877
35.896
35.913
35.928
35.941
35.95
35.957
35.961
35.962
35.959
35.954
35.947
35.937
35.924
35.91
35.894
35.876
35.857
35.835
35.812
35.787
35.761
35.734
35.707
35.679
35.652
35.624
35.598
35.572
35.546
35.521
35.496
35.471
35.447
35.421
35.396
35.37
35.345
35.319
35.294
35.268
35.243
35.217
35.192
35.165
35.138
35.111
35.084
35.058
35.031
35.005
34.979
34.954
34.929
34.903
34.878
34.853
34.828
34.804
34.78
34.756
34.732
34.708
34.684
34.66
34.635
34.61
34.586
34.562
34.54
34.519
34.502
34.49
34.486
34.491
34.508
34.54
34.588
34.654
34.74
34.844
34.967
35.109
35.267
35.44
35.624
35.817
36.014
36.213
36.41
36.6
36.782
36.952
37.107
37.247
37.37
37.475
37.562
37.632
37.684
37.719
37.74
37.746
37.739
37.72
37.69
37.651
37.602
37.545
37.481
37.411
37.337
37.261
37.183
37.105
37.029
36.955
36.882
36.813
36.745
36.681
36.618
36.558
36.501
36.445
36.392
36.341
36.291
36.242
36.194
36.147
36.1
36.054
36.008
35.963
35.918
35.874
35.83
35.787
35.745
35.704
35.666
35.631
35.598
35.57
35.545
35.524
35.507
35.494
35.486
35.481
35.48
35.482
35.486
35.493
35.502
35.513
35.526
35.539
35.553
35.566
35.578
35.589
35.598
35.606
35.613
35.618
35.621
35.624
35.624
35.623
35.619
35.614
35.608
35.601
35.593
35.585
35.576
35.566
35.554
35.54
35.523
35.503
35.48
35.454
35.425
35.395
35.363
35.329
35.294
35.26
35.226
35.192
35.159
35.127
35.096
35.067
35.039
35.012
34.985
34.957
34.929
34.9
34.87
34.84
34.809
34.776
34.743
34.708
34.673
34.637
34.602
34.567
34.533
34.499
34.468
34.437
34.408
34.379
34.352
34.325
34.298
34.272
34.247
34.222
34.198
34.173
34.15
34.127
34.107
34.088
34.074
34.064
34.061
34.067
34.083
34.111
34.154
34.213
34.289
34.382
34.493
34.619
34.761
34.917
35.084
35.26
35.442
35.628
35.815
35.999
36.177
36.347
36.505
36.651
36.781
36.896
36.994
37.076
37.141
37.19
37.224
37.242
37.246
37.237
37.216
37.185
37.145
37.097
37.043
36.984
36.922
36.857
36.79
36.722
36.654
36.585
36.517
36.449
36.382
36.316
36.251
36.188
36.127
36.068
36.011
35.955
35.902
35.851
35.802
35.755
35.709
35.664
35.621
35.578
35.536
35.495
35.455
35.416
35.379
35.343
35.31
35.278
35.249
35.222
35.198
35.176
35.158
35.143
35.132
35.124
35.119
35.118
35.12
35.125
35.133
35.143
35.155
35.169
35.183
35.199
35.214
35.229
35.243
35.257
35.269
35.279
35.288
35.294
35.299
35.3
35.299
35.295
35.288
35.278
35.264
35.249
35.231
35.211
35.19
35.167
35.143
35.119
35.095
35.07
35.045
35.02
34.994
34.969
34.943
34.918
34.891
34.863
34.834
34.803
34.771
34.738
34.705
34.671
34.638
34.604
34.571
34.539
34.507
34.476
34.446
34.417
34.39
34.364
34.339
34.315
34.291
34.267
34.245
34.223
34.202
34.182
34.163
34.144
34.125
34.108
34.09
34.073
34.055
34.038
34.021
34.004
33.988
33.974
33.963
33.957
33.957
33.967
33.987
34.02
34.069
34.135
34.22
34.323
34.444
34.584
34.738
34.907
35.086
35.273
35.463
35.655
35.844
36.026
36.201
36.364
36.515
36.651
36.772
36.876
36.961
37.029
37.08
37.113
37.13
37.132
37.121
37.098
37.064
37.022
36.972
36.917
36.856
36.793
36.727
36.659
36.591
36.522
36.454
36.387
36.321
36.257
36.194
36.132
36.072
36.013
35.954
35.897
35.841
35.786
35.733
35.682
35.632
35.584
35.539
35.496
35.456
35.418
35.382
35.348
35.315
35.283
35.254
35.226
35.2
35.176
35.153
35.132
35.114
35.098
35.084
35.071
35.061
35.054
35.049
35.046
35.046
35.048
35.052
35.058
35.066
35.075
35.085
35.096
35.108
35.119
35.13
35.141
35.15
35.157
35.163
35.167
35.169
35.168
35.166
35.16
35.152
35.142
35.128
35.113
35.094
35.073
35.05
35.025
34.999
34.971
34.942
34.913
34.883
34.854
34.823
34.792
34.761
34.729
34.697
34.664
34.631
34.598
34.565
34.533
34.502
34.471
34.442
34.413
34.386
34.359
34.334
34.31
34.288
34.266
34.247
34.228
34.21
34.193
34.177
34.162
34.146
34.129
34.112
34.093
34.074
34.054
34.034
34.013
33.992
33.97
33.948
33.925
33.903
33.88
33.859
33.838
33.818
33.799
33.783
33.771
33.762
33.76
33.765
33.778
33.801
33.836
33.885
33.949
34.029
34.127
34.243
34.376
34.524
34.686
34.86
35.042
35.23
35.421
35.612
35.8
35.982
36.155
36.316
36.463
36.594
36.709
36.807
36.888
36.953
37.0
37.032
37.049
37.052
37.041
37.018
36.985
36.942
36.891
36.833
36.77
36.704
36.635
36.566
36.497
36.429
36.362
36.296
36.233
36.171
36.113
36.058
36.005
35.956
35.911
35.868
35.829
35.792
35.757
35.724
35.691
35.658
35.624
35.59
35.554
35.518
35.482
35.446
35.409
35.373
35.337
35.302
35.269
35.238
35.21
35.184
35.162
35.144
35.128
35.116
35.107
35.101
35.098
35.097
35.099
35.101
35.105
35.109
35.113
35.117
35.12
35.122
35.125
35.128
35.132
35.136
35.14
35.144
35.149
35.153
35.156
35.157
35.158
35.156
35.153
35.147
35.138
35.127
35.113
35.095
35.076
35.053
35.029
35.002
34.975
34.947
34.919
34.891
34.863
34.836
34.81
34.784
34.757
34.729
34.7
34.67
34.64
34.61
34.581
34.553
34.526
34.499
34.473
34.447
34.422
34.397
34.372
34.348
34.325
34.302
34.28
34.258
34.236
34.214
34.192
34.171
34.15
34.13
34.11
34.091
34.073
34.056
34.041
34.027
34.014
34.001
33.989
33.976
33.964
33.952
33.94
33.929
33.918
33.907
33.896
33.885
33.873
33.862
33.853
33.846
33.844
33.848
33.86
33.881
33.915
33.962
34.025
34.105
34.201
34.313
34.442
34.585
34.741
34.908
35.083
35.264
35.447
35.628
35.805
35.975
36.136
36.284
36.42
36.54
36.645
36.734
36.808
36.865
36.907
36.935
36.948
36.949
36.937
36.914
36.881
36.839
36.79
36.734
36.674
36.609
36.542
36.473
36.404
36.336
36.269
36.205
36.143
36.085
36.029
35.978
35.929
35.885
35.843
35.805
35.77
35.737
35.705
35.675
35.646
35.617
35.587
35.557
35.525
35.492
35.458
35.424
35.391
35.358
35.327
35.298
35.27
35.244
35.22
35.198
35.177
35.158
35.142
35.128
35.116
35.107
35.101
35.096
35.093
35.091
35.09
35.09
35.092
35.095
35.099
35.105
35.111
35.116
35.121
35.124
35.126
35.126
35.125
35.122
35.119
35.116
35.112
35.107
35.101
35.094
35.084
35.072
35.058
35.042
35.024
35.004
34.981
34.957
34.932
34.905
34.877
34.849
34.821
34.792
34.763
34.733
34.704
34.676
34.648
34.621
