Trial 3:3back
35.977
36.25
36.512
36.761
36.991
37.201
37.388
37.551
37.689
37.803
37.892
37.958
38.002
38.026
38.032
38.023
38.0
37.965
37.92
37.867
37.806
37.74
37.669
37.594
37.514
37.431
37.344
37.254
37.159
37.062
36.963
36.862
36.762
36.661
36.561
36.462
36.365
36.271
36.179
36.091
36.006
35.923
35.843
35.764
35.688
35.613
35.541
35.471
35.404
35.339
35.276
35.218
35.164
35.116
35.074
35.037
35.006
34.98
34.958
34.94
34.925
34.913
34.902
34.893
34.886
34.881
34.879
34.88
34.882
34.887
34.892
34.896
34.9
34.904
34.906
34.907
34.905
34.901
34.894
34.885
34.874
34.86
34.844
34.827
34.807
34.785
34.76
34.734
34.705
34.675
34.644
34.61
34.574
34.536
34.496
34.455
34.413
34.371
34.331
34.292
34.253
34.215
34.177
34.14
34.103
34.066
34.03
33.995
33.96
33.926
33.892
33.858
33.824
33.79
33.754
33.716
33.677
33.635
33.593
33.549
33.504
33.459
33.413
33.368
33.323
33.279
33.235
33.191
33.149
33.107
33.067
33.027
32.987
32.946
32.906
32.866
32.826
32.789
32.754
32.722
32.695
32.673
32.659
32.654
32.661
32.682
32.718
32.772
32.844
32.936
33.048
33.183
33.339
33.518
33.717
33.934
34.166
34.411
34.663
34.92
35.176
35.427
35.67
35.903
36.121
36.323
36.507
36.673
36.818
36.944
37.049
37.134
37.201
37.25
37.284
37.302
37.307
37.299
37.279
37.248
37.208
37.16
37.105
37.046
36.983
36.917
36.849
36.779
36.706
36.629
36.55
36.469
36.386
36.3
36.213
36.123
36.03
35.936
35.841
35.745
35.652
35.561
35.473
35.387
35.305
35.227
35.154
35.085
35.02
34.959
34.903
34.852
34.805
34.763
34.726
34.692
34.663
34.637
34.615
34.597
34.582
34.57
34.561
34.556
34.553
34.554
34.557
34.563
34.569
34.575
34.581
34.586
34.59
34.595
34.601
34.607
34.614
34.62
34.624
34.627
34.626
34.623
34.616
34.607
34.595
34.58
34.563
34.544
34.522
34.498
34.472
34.443
34.411
34.376
34.338
34.297
34.254
34.209
34.164
34.118
34.072
34.027
33.984
33.942
33.903
33.865
33.828
33.792
33.757
33.722
33.687
33.652
33.617
33.581
33.544
33.506
33.467
33.428
33.391
33.354
33.318
33.282
33.247
33.212
33.176
33.139
33.101
33.063
33.025
32.987
32.951
32.918
32.89
32.868
32.855
32.852
32.86
32.883
32.923
32.983
33.063
33.165
33.29
33.437
33.607
33.797
34.007
34.231
34.467
34.711
34.958
35.204
35.446
35.682
35.908
36.12
36.316
36.496
36.656
36.797
36.919
37.021
37.103
37.165
37.21
37.235
37.243
37.234
37.21
37.173
37.125
37.068
37.003
36.931
36.854
36.772
36.688
36.602
36.517
36.432
36.348
36.265
36.184
36.103
36.024
35.946
35.868
35.789
35.71
35.63
35.547
35.462
35.376
35.289
35.202
35.114
35.028
34.945
34.864
34.786
34.713
34.644
34.58
34.523
34.471
34.427
34.39
34.359
34.336
34.318
34.306
34.298
34.295
34.297
34.302
34.311
34.322
34.334
34.346
34.357
34.367
34.376
34.383
34.39
34.395
34.398
34.399
34.397
34.395
34.39
34.383
34.373
34.36
34.346
34.329
34.31
34.29
34.269
34.249
34.228
34.207
34.186
34.164
34.142
34.12
34.096
34.07
34.043
34.015
33.984
33.952
33.919
33.884
33.848
33.811
33.774
33.736
33.699
33.662
33.625
33.587
33.549
33.51
33.471
33.433
33.396
33.358
33.32
33.281
33.242
33.202
33.162
33.121
33.08
33.038
32.996
32.954
32.911
32.872
32.836
32.807
32.786
32.775
32.778
32.797
32.833
32.888
32.965
33.065
33.189
33.339
33.513
33.712
33.934
34.176
34.433
34.703
34.98
35.26
35.539
35.813
36.077
36.327
36.562
36.777
36.973
37.149
37.303
37.437
37.55
37.643
37.717
37.774
37.813
37.836
37.845
37.84
37.824
37.797
37.76
37.714
37.661
37.599
37.532
37.457
37.377
37.291
37.201
37.109
37.015
36.92
36.827
36.736
36.648
36.562
36.478
36.396
36.316
36.238
36.16
36.082
36.004
35.924
35.844
35.763
35.683
35.604
35.528
35.454
35.384
35.318
35.257
35.199
35.145
35.096
35.05
35.008
34.969
34.935
34.905
34.879
34.859
34.843
34.832
34.824
34.82
34.819
34.821
34.824
34.83
34.836
34.843
34.851
34.857
34.86
34.861
34.859
34.853
34.843
34.831
34.815
34.797
34.777
34.754
34.728
34.7
34.671
34.639
34.607
34.574
34.541
34.508
34.478
34.448
34.419
34.391
34.364
34.337
34.309
34.282
34.253
34.223
34.192
34.16
34.126
34.092
34.056
34.02
33.982
33.943
33.903
33.863
33.822
33.781
33.739
33.697
33.653
33.609
33.564
33.518
33.473
33.428
33.385
33.343
33.301
33.261
33.221
33.183
33.147
33.112
33.08
33.051
33.026
33.006
32.994
32.991
33.001
33.026
33.068
33.13
33.213
33.322
33.456
33.615
33.799
34.007
34.237
34.489
34.758
35.043
35.338
35.638
35.941
36.239
36.531
36.811
37.077
37.325
37.554
37.762
37.947
38.109
38.245
38.357
38.446
38.511
38.555
38.578
38.583
38.57
38.543
38.503
38.454
38.397
38.333
38.264
38.191
38.114
38.035
37.954
37.869
37.784
37.697
37.609
37.52
37.431
37.342
37.252
37.162
37.071
36.981
36.891
36.802
36.715
36.627
36.539
36.45
36.361
36.272
36.186
36.102
36.021
35.945
35.874
35.809
35.75
35.696
35.649
35.608
35.574
35.545
35.522
35.503
35.488
35.476
35.467
35.458
35.45
35.441
35.432
35.424
35.415
35.408
35.401
35.395
35.39
35.386
35.38
35.374
35.367
35.359
35.351
35.342
35.332
35.32
35.306
35.291
35.272
35.251
35.227
35.201
35.173
35.144
35.114
35.084
35.052
35.019
34.985
34.948
34.909
34.87
34.83
34.791
34.751
34.711
34.671
34.631
34.591
34.552
34.513
34.474
34.435
34.396
34.356
34.316
34.277
34.238
34.2
34.162
34.124
34.086
34.049
34.012
33.976
33.941
33.906
33.871
33.835
33.798
33.76
33.72
33.678
33.636
33.593
33.55
33.507
33.466
33.426
33.388
33.351
33.314
33.278
33.244
33.213
33.187
33.171
33.166
33.177
33.206
33.258
33.337
33.445
33.585
33.758
33.964
34.201
34.466
34.757
35.067
35.394
35.729
36.068
36.404
36.732
37.046
37.342
37.618
37.871
38.099
38.303
38.481
38.633
38.759
38.861
38.94
38.997
39.035
39.055
39.057
39.044
39.015
38.973
38.92
38.857
38.784
38.705
38.62
38.531
38.439
38.345
38.25
38.155
38.059
37.965
37.87
37.776
37.682
37.588
37.494
37.401
37.308
37.216
37.124
37.032
36.94
36.848
36.756
36.665
36.575
36.487
36.401
36.319
36.24
36.166
36.096
36.032
35.975
35.924
35.88
35.841
35.807
35.779
35.755
35.735
35.717
35.702
35.689
35.677
35.667
35.658
35.65
35.645
35.641
35.637
35.634
35.63
35.624
35.616
35.606
35.595
35.581
35.565
35.546
35.523
35.498
35.469
35.437
35.405
35.372
35.341
35.31
35.281
35.251
35.221
35.192
35.163
35.132
35.101
35.069
35.036
35.001
34.965
34.928
34.891
34.853
34.814
34.774
34.732
34.689
34.646
34.603
34.56
34.517
34.474
34.43
34.387
34.343
34.299
34.256
34.213
34.171
34.131
34.092
34.055
34.017
33.98
33.942
33.9
33.857
33.812
33.765
33.719
33.674
33.629
33.585
33.541
33.498
33.455
33.413
33.373
33.333
33.295
33.257
33.219
33.181
33.146
33.113
33.083
33.056
33.035
33.019
33.011
33.013
33.03
33.064
33.119
33.198
33.306
33.442
33.609
33.808
34.036
34.292
34.572
34.873
35.19
35.519
35.855
36.192
36.524
36.847
37.155
37.444
37.711
37.954
38.171
38.36
38.522
38.658
38.767
38.851
38.91
38.947
38.962
38.957
38.935
38.895
38.84
38.771
38.689
38.595
38.493
38.385
38.271
38.153
38.034
37.915
37.798
37.684
37.574
37.47
37.372
37.281
37.194
37.112
37.032
36.952
36.872
36.791
36.709
36.625
36.541
36.455
36.367
36.279
36.19
36.101
36.014
35.931
35.853
35.78
35.714
35.655
35.603
35.557
35.519
35.487
35.46
35.438
35.42
35.406
35.395
35.387
35.381
35.376
35.373
35.369
35.366
35.364
35.361
35.359
35.358
35.356
35.355
35.353
35.35
35.347
35.342
35.335
35.327
35.318
35.307
35.295
35.28
35.264
35.244
35.222
35.197
35.17
35.141
35.11
35.077
35.043
35.007
34.971
34.932
34.893
34.851
34.807
34.762
34.716
34.67
34.624
34.579
34.534
34.491
34.448
34.406
34.366
34.326
34.287
34.248
34.209
34.169
34.13
34.09
34.049
34.008
33.966
33.922
33.878
33.834
33.791
33.749
33.707
33.666
33.625
33.583
33.54
33.496
33.451
33.405
33.358
33.313
33.269
33.228
33.189
33.154
33.12
33.088
33.057
33.026
32.996
32.967
32.94
32.915
32.895
32.883
32.881
32.893
32.92
32.967
33.034
33.123
33.237
33.377
33.543
33.736
33.954
34.196
34.46
34.742
35.038
35.345
35.659
35.974
36.286
36.59
36.882
37.156
37.41
37.64
37.846
38.026
38.18
38.308
38.409
38.484
38.534
38.561
38.568
38.557
38.531
38.491
38.44
38.378
38.308
38.231
38.148
38.061
37.972
37.881
37.79
37.699
37.608
37.518
37.427
37.338
37.248
37.157
37.065
36.972
36.877
36.781
36.685
36.589
36.492
36.395
36.299
36.203
36.108
36.015
35.924
35.838
35.756
35.678
35.606
35.539
35.478
35.423
35.374
35.333
35.299
35.272
35.252
35.237
35.227
35.221
35.218
35.218
35.22
35.222
35.224
35.226
35.228
35.229
35.23
35.232
35.233
35.233
35.234
35.234
35.232
35.231
35.228
35.226
35.222
35.216
35.209
35.199
35.187
35.173
35.157
35.14
35.121
35.099
35.074
35.045
35.012
34.975
34.934
34.889
34.841
34.791
34.74
34.688
34.637
34.587
34.539
34.493
34.45
34.409
34.372
34.337
34.304
34.272
34.24
34.209
34.176
34.143
34.109
34.074
34.037
33.998
33.957
33.914
33.869
33.823
33.776
33.728
33.679
33.629
33.578
33.526
33.476
33.427
33.381
33.337
33.296
33.255
33.216
33.177
33.138
33.1
33.063
33.026
32.99
32.956
32.924
32.896
32.874
32.861
32.859
32.871
32.9
32.95
33.022
33.119
33.243
33.394
33.571
33.774
34.002
34.253
34.524
34.812
35.113
35.423
35.736
36.048
36.354
36.648
36.927
37.187
37.428
37.646
37.841
38.012
38.158
38.278
38.374
38.445
38.492
38.518
38.524
38.51
38.48
38.436
38.379
38.312
38.237
38.157
38.074
37.988
37.902
37.816
37.73
37.644
37.558
37.473
37.386
37.299
37.211
37.121
37.029
36.934
36.837
36.738
36.637
36.534
36.428
36.322
36.216
36.111
36.011
35.914
35.823
35.736
35.654
35.578
35.507
35.442
35.383
35.33
35.285
35.245
35.211
35.183
35.159
35.14
35.125
35.114
35.106
35.102
35.099
35.098
35.098
35.097
35.096
35.095
35.094
35.095
35.096
35.098
35.102
35.106
35.112
35.117
35.121
35.123
35.122
35.117
35.107
35.093
35.073
35.049
35.021
34.989
34.953
34.914
34.872
34.829
34.785
34.741
34.697
34.653
34.609
34.566
34.522
34.479
34.436
34.394
34.353
34.314
34.276
34.237
34.198
34.159
34.119
34.079
34.039
33.999
33.96
33.92
33.88
33.839
33.797
33.753
33.709
33.665
33.619
33.574
33.528
33.484
33.44
33.398
33.357
33.317
33.279
33.242
33.205
33.169
33.134
33.101
33.068
33.036
33.005
32.975
32.946
32.917
32.887
32.857
32.825
32.793
32.763
32.736
32.716
32.705
32.706
32.724
32.76
32.82
32.906
33.021
33.168
33.347
33.557
33.796
34.062
34.352
34.661
34.986
35.321
35.662
36.003
36.339
36.665
36.978
37.273
37.545
37.794
38.016
38.21
38.375
38.511
38.618
38.698
38.752
38.783
38.791
38.779
38.749
38.704
38.646
38.576
38.498
38.413
38.323
38.231
38.136
38.04
37.943
37.844
37.745
37.646
37.546
37.446
37.345
37.243
37.141
37.039
36.937
36.835
36.733
36.632
36.532
36.432
36.332
36.234
36.136
36.041
35.949
35.86
35.774
35.692
35.615
35.542
35.474
35.411
35.354
35.302
35.256
35.215
35.179
35.146
35.117
35.092
35.072
35.056
35.045
35.038
35.036
35.038
35.045
35.055
35.067
35.08
35.094
35.107
35.118
35.127
35.133
35.134
35.132
35.125
35.114
35.099
35.081
35.061
35.038
35.013
34.987
34.958
34.928
34.897
34.866
34.834
34.802
34.77
34.739
34.708
34.676
34.645
34.612
34.579
34.544
34.507
34.468
34.427
34.383
34.339
34.293
34.247
34.2
34.151
34.101
34.049
33.997
33.946
33.896
33.848
33.802
33.759
33.717
33.678
33.639
33.603
33.568
33.534
33.501
33.468
33.437
33.406
33.376
33.346
33.315
33.284
33.251
33.218
33.183
33.147
33.109
33.07
33.028
32.984
32.939
32.895
32.851
32.81
32.773
32.744
32.726
32.721
32.734
32.768
32.825
32.911
33.025
33.17
33.347
33.555
33.795
34.064
34.359
34.676
35.01
35.356
35.709
36.062
36.411
36.75
37.073
37.375
37.653
37.904
38.125
38.315
38.475
38.605
38.707
38.783
38.834
38.861
38.867
38.854
38.826
38.784
38.73
38.667
38.594
38.514
38.429
38.339
38.246
38.152
38.057
37.962
37.868
37.773
37.678
37.582
37.483
37.382
37.28
37.176
37.07
36.964
36.855
36.746
36.635
36.524
36.413
36.304
36.198
36.097
36.001
35.91
35.824
35.744
35.669
35.601
35.538
35.482
35.432
35.389
35.353
35.324
35.302
35.287
35.279
35.277
35.28
35.287
35.297
35.309
35.323
35.339
35.354
35.367
35.377
35.383
35.386
35.384
35.379
35.372
35.363
35.354
35.343
35.331
35.318
35.304
35.289
35.274
35.258
35.241
35.221
35.2
35.177
35.151
35.124
35.094
35.062
35.029
34.994
34.957
34.92
34.881
34.84
34.798
34.754
34.709
34.662
34.615
34.567
34.52
34.473
34.427
34.383
34.342
34.303
34.266
34.232
34.201
34.172
34.144
34.117
34.091
34.063
34.033
33.999
33.962
33.92
33.875
33.827
33.778
33.728
33.677
33.626
33.574
33.521
33.469
33.417
33.366
33.318
33.272
33.229
33.187
33.147
33.108
33.071
33.039
33.01
32.988
32.974
32.971
32.981
33.01
33.06
33.133
33.234
33.362
33.52
33.708
33.926
34.171
34.442
34.736
35.049
35.377
35.714
36.056
36.397
36.732
37.057
37.367
37.659
37.928
38.17
38.383
38.566
38.717
38.838
38.929
38.993
39.03
39.042
39.032
39.002
38.955
38.895
38.824
38.747
38.665
38.581
38.494
38.407
38.32
38.232
38.143
38.053
37.961
37.867
37.77
37.669
37.564
37.454
37.341
37.224
37.105
36.984
36.863
36.742
36.623
36.506
36.392
36.282
36.176
36.075
35.978
35.885
35.797
35.714
35.636
35.566
35.504
35.451
35.407
35.371
35.343
35.323
35.309
35.301
35.297
35.296
35.298
35.301
35.305
35.309
35.314
35.318
35.323
35.328
35.331
35.334
35.336
35.337
35.336
35.336
35.336
35.335
35.333
35.331
35.327
35.32
35.311
35.298
35.281
35.26
35.235
35.205
35.171
35.133
35.092
35.05
35.007
34.964
34.922
34.88
34.84
34.802
34.766
34.731
34.697
34.664
34.631
34.598
34.563
34.527
34.489
34.449
34.406
34.361
34.314
34.265
34.217
34.167
34.118
34.069
34.02
33.971
33.922
33.874
33.827
33.78
33.733
33.686
33.64
33.594
33.55
33.508
33.467
33.429
33.391
33.354
33.317
33.279
33.241
33.204
33.167
33.132
33.097
33.065
33.036
33.01
32.989
32.975
32.973
32.983
33.011
33.06
33.132
33.231
33.358
33.514
33.7
33.913
34.153
34.417
34.7
35.001
35.315
35.638
35.964
36.288
36.606
36.911
37.198
37.464
37.707
37.925
38.115
38.277
38.41
38.514
38.59
38.639
38.664
38.667
38.65
38.617
38.569
38.511
38.443
38.369
38.289
38.206
38.119
38.03
37.939
37.845
37.748
37.649
37.546
37.442
37.335
37.227
37.117
37.005
36.892
36.778
36.662
36.546
36.431
36.318
36.207
36.098
35.991
35.887
35.786
35.689
35.597
35.511
35.431
35.358
35.291
35.232
35.18
35.137
35.101
35.074
35.053
35.038
35.029
35.026
35.028
35.034
35.043
35.054
35.066
35.077
35.088
35.096
35.105
35.112
35.121
35.129
35.138
35.147
35.157
35.165
35.173
35.179
35.182
35.181
35.177
35.168
35.155
35.137
35.114
35.088
35.059
35.026
34.991
34.953
34.912
34.87
34.827
34.783
34.741
34.699
34.658
34.618
34.578
34.539
34.502
34.465
34.429
34.393
34.357
34.321
34.283
34.246
34.209
34.172
34.135
34.097
34.058
34.017
33.975
33.932
33.887
33.843
33.798
33.754
33.711
33.669
33.629
33.591
33.554
33.519
33.483
33.448
33.411
33.374
33.337
33.298
33.259
33.22
33.182
33.145
33.111
33.082
33.059
33.045
33.044
33.057
33.088
33.141
33.217
33.32
33.449
33.604
33.786
33.993
34.224
34.478
34.751
35.039
35.337
35.642
35.949
36.251
36.545
36.825
37.088
37.331
37.55
37.746
37.915
38.056
38.171
38.26
38.324
38.365
38.384
38.384
38.368
38.337
38.295
38.243
38.183
38.116
38.045
37.971
37.893
37.813
37.73
37.644
37.554
37.46
37.362
37.26
37.154
37.044
36.931
36.815
36.698
36.58
36.464
36.349
36.239
36.133
36.032
35.935
35.842
35.754
35.672
35.596
35.525
35.461
35.402
35.347
35.297
35.252
35.21
35.172
35.138
35.108
35.083
35.062
35.044
35.031
35.022
35.018
35.018
35.022
35.028
35.036
35.045
35.055
35.065
35.075
35.084
35.092
35.098
35.1
35.098
35.093
35.085
35.075
35.063
35.05
35.036
35.02
35.002
34.983
34.963
34.941
34.919
34.897
34.874
34.85
34.825
34.799
34.772
34.745
34.717
34.688
34.658
34.625
34.592
34.556
34.519
34.479
34.438
34.394
34.348
34.301
34.252
34.201
34.15
34.098
34.046
33.993
33.94
33.888
33.838
33.789
33.743
33.7
33.658
33.618
33.581
33.544
33.507
33.472
33.437
33.403
33.37
33.337
33.306
33.274
33.243
33.21
33.176
33.14
33.105
33.073
33.045
33.026
33.019
33.027
33.053
33.102
33.176
33.276
33.405
33.564
33.752
33.968
34.209
34.474
34.757
35.055
35.364
35.677
35.991
36.3
36.601
36.888
37.158
37.408
37.635
37.838
38.014
38.162
38.283
38.378
38.446
38.491
38.514
38.519
38.507
38.482
38.444
38.395
38.336
38.269
38.194
38.112
38.024
37.931
37.836
37.739
37.641
37.543
37.446
37.35
37.256
37.162
37.069
36.976
36.881
36.785
36.687
36.587
36.485
36.382
36.278
36.173
36.069
35.965
35.864
35.767
35.675
35.59
35.511
35.44
35.375
35.316
35.264
35.22
35.182
35.152
35.129
35.112
35.101
35.094
35.091
35.093
35.098
35.106
35.117
35.128
35.138
35.147
35.153
35.155
35.155
35.152
35.147
35.138
35.128
35.115
35.102
35.087
35.073
35.059
35.046
35.032
35.018
35.003
34.987
34.969
34.949
34.927
34.902
34.874
34.843
34.81
34.775
34.739
34.701
34.663
34.624
34.585
34.545
34.504
34.463
34.422
34.382
34.343
34.304
34.265
34.227
34.189
34.152
34.114
34.075
34.037
33.998
33.96
33.922
33.884
33.846
33.807
33.767
33.725
33.682
33.638
33.593
33.549
33.505
33.461
33.416
33.372
33.329
33.286
33.244
33.202
33.161
33.12
33.081
33.043
33.007
32.976
32.951
32.934
32.927
32.931
32.95
32.986
33.045
33.127
33.237
33.374
33.54
33.733
33.953
34.197
34.464
34.75
35.05
35.362
35.68
35.999
36.314
36.621
36.917
37.199
37.462
37.704
37.922
38.115
38.28
38.416
38.524
38.603
38.655
38.682
38.686
38.67
38.636
38.587
38.525
38.453
38.373
38.289
38.202
38.113
38.024
37.935
37.846
37.757
37.669
37.582
37.494
37.405
37.314
37.221
37.124
37.023
36.918
36.811
36.703
36.594
36.486
36.381
36.278
36.178
36.083
35.993
35.907
35.825
35.749
35.677
35.611
35.549
35.493
35.441
35.396
35.356
35.322
35.293
35.27
35.253
35.242
35.236
35.237
35.242
35.251
35.263
35.277
35.291
35.306
35.32
35.331
35.34
35.345
35.346
35.344
35.339
35.331
35.32
35.308
35.293
35.277
35.26
35.241
35.221
35.201
35.181
35.16
35.138
35.115
35.09
35.063
35.033
35.002
34.969
34.935
34.901
34.866
34.831
34.797
34.763
34.73
34.696
34.661
34.625
34.588
34.55
34.511
34.471
34.43
34.387
34.343
34.298
34.251
34.203
34.154
34.106
34.058
34.011
33.964
33.918
33.871
33.825
33.779
33.733
33.688
33.645
33.604
33.564
33.527
33.491
33.458
33.426
33.395
33.365
33.335
33.305
33.272
33.239
33.205
33.169
33.134
33.101
33.072
33.05
33.039
33.042
33.063
33.106
33.176
33.275
33.403
33.563
33.754
33.974
34.222
34.493
34.785
35.093
35.413
35.738
36.063
36.384
36.695
36.993
