Trial 3:3back
36.461
36.377
36.297
36.219
36.143
36.072
36.005
35.944
35.889
35.841
35.8
35.765
35.735
35.71
35.688
35.667
35.648
35.631
35.613
35.594
35.572
35.549
35.525
35.499
35.472
35.446
35.42
35.394
35.37
35.344
35.319
35.294
35.268
35.243
35.217
35.189
35.158
35.124
35.086
35.045
35.001
34.953
34.903
34.851
34.797
34.741
34.683
34.624
34.565
34.507
34.451
34.397
34.345
34.295
34.245
34.194
34.141
34.087
34.031
33.972
33.912
33.85
33.788
33.724
33.659
33.594
33.53
33.466
33.404
33.344
33.285
33.227
33.171
33.116
33.06
33.005
32.949
32.893
32.836
32.778
32.719
32.659
32.599
32.539
32.48
32.425
32.379
32.343
32.321
32.317
32.335
32.377
32.447
32.548
32.683
32.854
33.06
33.3
33.572
33.872
34.195
34.537
34.891
35.253
35.616
35.975
36.324
36.658
36.972
37.263
37.529
37.769
37.984
38.172
38.335
38.473
38.588
38.682
38.757
38.816
38.858
38.886
38.901
38.906
38.899
38.883
38.858
38.823
38.781
38.73
38.671
38.605
38.535
38.46
38.383
38.303
38.222
38.139
38.054
37.969
37.882
37.792
37.7
37.607
37.513
37.42
37.326
37.233
37.141
37.05
36.959
36.867
36.774
36.681
36.588
36.498
36.41
36.325
36.243
36.165
36.089
36.016
35.946
35.88
35.818
35.762
35.712
35.667
35.629
35.595
35.566
35.541
35.519
35.499
35.481
35.465
35.448
35.432
35.415
35.397
35.377
35.355
35.332
35.308
35.285
35.262
35.239
35.217
35.194
35.172
35.15
35.125
35.099
35.07
35.039
35.006
34.968
34.927
34.882
34.834
34.784
34.733
34.68
34.626
34.572
34.517
34.461
34.403
34.344
34.283
34.219
34.153
34.084
34.012
33.939
33.866
33.792
33.72
33.649
33.581
33.516
33.453
33.392
33.333
33.276
33.219
33.163
33.108
33.052
32.997
32.941
32.886
32.83
32.774
32.719
32.666
32.613
32.563
32.514
32.466
32.419
32.373
32.327
32.282
32.237
32.195
32.156
32.122
32.096
32.079
32.077
32.093
32.132
32.196
32.289
32.411
32.566
32.752
32.97
33.218
33.494
33.797
34.123
34.468
34.827
35.196
35.569
35.942
36.31
36.667
37.01
37.333
37.634
37.911
38.16
38.381
38.571
38.73
38.859
38.959
39.031
39.079
39.104
39.111
39.102
39.081
39.047
39.005
38.955
38.901
38.842
38.781
38.718
38.655
38.593
38.534
38.476
38.42
38.364
38.307
38.249
38.187
38.121
38.049
37.97
37.884
37.791
37.691
37.583
37.469
37.349
37.225
37.099
36.971
36.844
36.72
36.601
36.49
36.387
36.295
36.214
36.143
36.083
36.032
35.99
35.955
35.927
35.905
35.887
35.874
35.864
35.857
35.852
35.847
35.843
35.841
35.839
35.838
35.838
35.836
35.834
35.83
35.822
35.811
35.797
35.779
35.757
35.731
35.699
35.661
35.619
35.573
35.522
35.467
35.409
35.351
35.292
35.234
35.177
35.122
35.069
35.019
34.969
34.919
34.868
34.816
34.762
34.708
34.651
34.591
34.529
34.464
34.397
34.328
34.258
34.189
34.121
34.053
33.987
33.923
33.861
33.801
33.743
33.687
33.631
33.577
33.522
33.467
33.412
33.355
33.298
33.241
33.184
33.125
33.066
33.005
32.943
32.881
32.818
32.756
32.695
32.635
32.576
32.518
32.46
32.405
32.352
32.302
32.256
32.217
32.186
32.165
32.159
32.17
32.204
32.264
32.352
32.471
32.622
32.807
33.026
33.277
33.558
33.867
34.199
34.549
34.913
35.284
35.655
36.023
36.381
36.725
37.05
37.353
37.632
37.883
38.107
38.303
38.471
38.612
38.728
38.821
38.893
38.944
38.977
38.995
39.0
38.994
38.978
38.953
38.918
38.874
38.821
38.761
38.695
38.621
38.541
38.457
38.369
38.28
38.188
38.095
38.002
37.908
37.812
37.715
37.617
37.517
37.416
37.315
37.214
37.113
37.011
36.908
36.805
36.701
36.598
36.496
36.395
36.297
36.203
36.112
36.026
35.943
35.865
35.792
35.724
35.662
35.604
35.552
35.507
35.467
35.434
35.405
35.38
35.357
35.335
35.313
35.289
35.265
35.239
35.212
35.183
35.154
35.125
35.096
35.069
35.043
35.019
34.998
34.977
34.957
34.937
34.914
34.89
34.863
34.833
34.8
34.765
34.729
34.692
34.653
34.615
34.576
34.537
34.499
34.46
34.419
34.376
34.33
34.281
34.228
34.17
34.108
34.041
33.969
33.894
33.815
33.735
33.655
33.574
33.496
33.42
33.347
33.279
33.213
33.15
33.09
33.031
32.973
32.915
32.855
32.793
32.728
32.659
32.586
32.508
32.426
32.342
32.254
32.165
32.074
31.982
31.89
31.798
31.708
31.622
31.54
31.463
31.392
31.327
31.27
31.224
31.191
31.172
31.171
31.192
31.236
31.307
31.407
31.54
31.706
31.907
32.145
32.417
32.722
33.057
33.416
33.794
34.187
34.589
34.993
35.395
35.788
36.167
36.527
36.865
37.175
37.457
37.708
37.928
38.117
38.278
38.41
38.516
38.597
38.654
38.691
38.709
38.709
38.694
38.667
38.63
38.585
38.534
38.479
38.42
38.358
38.294
38.229
38.163
38.095
38.026
37.956
37.884
37.808
37.729
37.646
37.559
37.468
37.372
37.27
37.162
37.049
36.934
36.819
36.706
36.596
36.49
36.39
36.296
36.207
36.122
36.043
35.969
35.901
35.838
35.781
35.729
35.682
35.64
35.603
35.571
35.542
35.519
35.5
35.487
35.478
35.472
35.47
35.47
35.47
35.471
35.47
35.467
35.462
35.455
35.445
35.433
35.418
35.401
35.381
35.359
35.336
35.313
35.29
35.268
35.246
35.224
35.201
35.176
35.148
35.117
35.083
35.045
35.004
34.96
34.912
34.86
34.804
34.744
34.681
34.615
34.547
34.478
34.409
34.34
34.272
34.205
34.138
34.073
34.01
33.949
33.889
33.829
33.771
33.714
33.658
33.604
33.551
33.5
33.451
33.403
33.357
33.31
33.263
33.214
33.162
33.107
33.051
32.992
32.932
32.871
32.809
32.747
32.685
32.625
32.565
32.508
32.453
32.4
32.349
32.3
32.252
32.208
32.168
32.136
32.113
32.104
32.113
32.143
32.198
32.282
32.397
32.546
32.729
32.945
33.194
33.473
33.779
34.108
34.454
34.813
35.178
35.544
35.905
36.256
36.591
36.906
37.199
37.466
37.705
37.914
38.093
38.244
38.367
38.465
38.538
38.588
38.618
38.63
38.625
38.605
38.573
38.53
38.479
38.421
38.358
38.29
38.217
38.139
38.057
37.972
37.883
37.792
37.697
37.599
37.499
37.395
37.288
37.176
37.061
36.943
36.822
36.697
36.57
36.441
36.311
36.182
36.057
35.936
35.821
35.714
35.615
35.525
35.445
35.374
35.313
35.261
35.218
35.184
35.156
35.134
35.117
35.104
35.095
35.089
35.087
35.087
35.09
35.096
35.104
35.115
35.128
35.142
35.158
35.175
35.193
35.211
35.229
35.246
35.261
35.273
35.282
35.288
35.29
35.286
35.276
35.26
35.238
35.21
35.178
35.141
35.101
35.06
35.019
34.977
34.936
34.897
34.858
34.819
34.78
34.739
34.697
34.653
34.606
34.557
34.504
34.45
34.393
34.336
34.278
34.221
34.164
34.109
34.053
33.997
33.941
33.884
33.826
33.768
33.708
33.647
33.586
33.525
33.463
33.401
33.34
33.278
33.218
33.157
33.096
33.034
32.972
32.91
32.845
32.78
32.713
32.647
32.581
32.519
32.461
32.409
32.365
32.332
32.312
32.309
32.327
32.368
32.434
32.527
32.649
32.802
32.986
33.201
33.447
33.722
34.024
34.35
34.696
35.056
35.425
35.799
36.173
36.54
36.895
37.234
37.554
37.853
38.127
38.376
38.597
38.791
38.955
39.093
39.204
39.29
39.353
39.395
39.418
39.425
39.418
39.399
39.37
39.333
39.289
39.24
39.186
39.129
39.069
39.006
38.942
38.877
38.81
38.74
38.667
38.589
38.506
38.418
38.324
38.222
38.115
38.003
37.887
37.769
37.649
37.527
37.406
37.286
37.168
37.054
36.943
36.837
36.737
36.644
36.558
36.477
36.403
36.334
36.27
36.21
36.155
36.104
36.057
36.015
35.975
35.939
35.906
35.877
35.852
35.831
35.814
35.801
35.792
35.785
35.78
35.774
35.767
35.758
35.745
35.729
35.709
35.685
35.657
35.625
35.591
35.554
35.516
35.475
35.433
35.39
35.347
35.304
35.261
35.219
35.178
35.136
35.093
35.047
35.0
34.952
34.901
34.849
34.796
34.742
34.686
34.629
34.571
34.513
34.456
34.4
34.344
34.288
34.232
34.175
34.117
34.057
33.994
33.929
33.862
33.793
33.721
33.648
33.573
33.497
33.422
33.347
33.275
33.205
33.139
33.075
33.012
32.95
32.888
32.825
32.762
32.698
32.635
32.573
32.511
32.45
32.389
32.33
32.273
32.219
32.169
32.126
32.093
32.073
32.071
32.089
32.132
32.206
32.313
32.454
32.632
32.845
33.094
33.374
33.681
34.012
34.361
34.724
35.094
35.467
35.837
36.2
36.55
36.883
37.197
37.488
37.754
37.994
38.207
38.396
38.559
38.696
38.81
38.902
38.973
39.025
39.059
39.077
39.08
39.071
39.052
39.024
38.988
38.945
38.896
38.842
38.782
38.718
38.648
38.575
38.498
38.418
38.336
38.252
38.166
38.078
37.989
37.899
37.807
37.712
37.615
37.517
37.418
37.32
37.223
37.127
37.032
36.939
36.848
36.757
36.668
36.581
36.498
36.419
36.343
36.273
36.207
36.149
36.097
36.051
36.013
35.983
35.96
35.943
35.931
35.924
35.921
35.92
35.921
35.922
35.923
35.923
35.92
35.915
35.905
35.891
35.872
35.849
35.822
35.791
35.758
35.722
35.685
35.647
35.608
35.567
35.526
35.483
35.44
35.396
35.353
35.309
35.264
35.219
35.173
35.126
35.077
35.027
34.977
34.926
34.875
34.824
34.774
34.723
34.671
34.617
34.561
34.502
34.442
34.381
34.318
34.254
34.189
34.122
34.052
33.979
33.905
33.83
33.755
33.681
33.608
33.537
33.468
33.401
33.334
33.269
33.204
33.14
33.075
33.01
32.944
32.878
32.811
32.746
32.682
32.62
32.561
32.505
32.452
32.404
32.359
32.319
32.283
32.254
32.232
32.223
32.228
32.252
32.298
32.37
32.472
32.606
32.776
32.98
33.218
33.488
33.786
34.108
34.449
34.805
35.17
35.54
35.909
36.272
36.625
36.965
37.287
37.59
37.871
38.128
38.36
38.569
38.753
38.913
39.048
39.16
39.248
39.316
39.365
39.395
39.409
39.408
39.395
39.371
39.338
39.298
39.25
39.195
39.133
39.065
38.991
38.909
38.822
38.729
38.632
38.53
38.422
38.309
38.191
38.069
37.944
37.815
37.685
37.554
37.426
37.299
37.176
37.056
36.939
36.826
36.718
36.614
36.514
36.419
36.329
36.244
36.163
36.086
36.013
35.944
35.879
35.82
35.767
35.72
35.678
35.642
35.612
35.586
35.564
35.545
35.528
35.513
35.497
35.482
35.466
35.448
35.428
35.405
35.38
35.353
35.324
35.294
35.262
35.23
35.197
35.163
35.128
35.093
35.057
35.02
34.983
34.945
34.907
34.866
34.824
34.779
34.732
34.682
34.631
34.579
34.527
34.475
34.423
34.372
34.321
34.269
34.215
34.16
34.102
34.041
33.978
33.91
33.84
33.766
33.691
33.614
33.537
33.461
33.387
33.316
33.248
33.183
33.12
33.06
33.002
32.946
32.89
32.834
32.779
32.723
32.666
32.609
32.551
32.494
32.437
32.379
32.322
32.264
32.207
32.149
32.092
32.036
31.982
31.929
31.88
31.833
31.792
31.757
31.732
31.72
31.727
31.755
31.809
31.893
32.007
32.153
32.331
32.542
32.783
33.053
33.348
33.665
34.0
34.346
34.7
35.055
35.407
35.752
36.087
36.407
36.71
36.994
37.257
37.498
37.715
37.906
38.07
38.208
38.319
38.405
38.466
38.504
38.521
38.518
38.499
38.465
38.419
38.362
38.296
38.225
38.149
38.07
37.989
37.906
37.823
37.739
37.655
37.57
37.482
37.393
37.3
37.203
37.103
36.997
36.886
36.769
36.647
36.521
36.391
36.259
36.125
35.993
35.863
35.739
35.621
35.511
35.41
35.316
35.231
35.154
35.084
35.022
34.968
34.92
34.878
34.841
34.807
34.777
34.75
34.727
34.708
34.692
34.68
34.672
34.666
34.664
34.665
34.667
34.67
34.674
34.679
34.682
34.684
34.683
34.679
34.672
34.662
34.648
34.629
34.607
34.582
34.555
34.526
34.495
34.464
34.431
34.397
34.361
34.322
34.282
34.24
34.197
34.152
34.107
34.06
34.014
33.967
33.921
33.876
33.831
33.787
33.743
33.699
33.654
33.608
33.562
33.514
33.464
33.412
33.358
33.303
33.246
33.188
33.13
33.073
33.017
32.963
32.911
32.861
32.812
32.763
32.716
32.67
32.625
32.581
32.536
32.492
32.448
32.404
32.36
32.316
32.272
32.23
32.19
32.154
32.122
32.096
32.079
32.076
32.09
32.124
32.18
32.262
32.373
32.513
32.683
32.886
33.119
33.382
33.671
33.982
34.308
34.645
34.987
35.33
35.667
35.994
36.307
36.603
36.879
37.132
37.361
37.566
37.748
37.906
38.041
38.155
38.248
38.321
38.377
38.416
38.441
38.452
38.449
38.435
38.409
38.373
38.326
38.27
38.206
38.135
38.057
37.973
37.882
37.787
37.688
37.585
37.478
37.368
37.255
37.141
37.026
36.909
36.791
36.671
36.549
36.426
36.303
36.18
36.059
35.942
35.829
35.722
35.619
35.521
35.427
35.338
35.255
35.177
35.105
35.04
34.982
34.93
34.883
34.841
34.805
34.774
34.749
34.73
34.717
34.709
34.706
34.707
34.71
34.714
34.72
34.725
34.73
34.733
34.734
34.732
34.729
34.723
34.714
34.703
34.69
34.675
34.659
34.642
34.623
34.602
34.578
34.552
34.522
34.488
34.45
34.409
34.363
34.315
34.263
34.209
34.154
34.099
34.045
33.991
33.938
33.887
33.838
33.789
33.74
33.691
33.642
33.592
33.54
33.488
33.434
33.379
33.323
33.268
33.213
33.159
33.106
33.054
33.002
32.949
32.895
32.839
32.781
32.721
32.662
32.603
32.545
32.488
32.433
32.38
32.33
32.282
32.235
32.188
32.141
32.093
32.044
31.993
31.941
31.889
31.841
31.8
31.771
31.758
31.767
31.802
31.866
31.961
32.092
32.26
32.464
32.704
32.977
33.279
33.606
33.952
34.311
34.678
35.047
35.415
35.775
36.123
36.455
36.768
37.058
37.325
37.565
37.777
37.963
38.121
38.255
38.366
38.454
38.521
38.57
38.602
38.617
38.617
38.601
38.572
38.532
38.481
38.422
38.356
38.282
38.204
38.121
38.035
37.947
37.858
37.768
37.678
37.589
37.501
37.413
37.327
37.241
37.155
37.069
36.981
36.891
36.797
36.702
36.605
36.507
36.409
36.31
36.212
36.116
36.022
35.93
35.841
35.759
35.683
35.616
35.557
35.507
35.466
35.434
35.409
35.391
35.379
35.371
35.367
35.365
35.363
35.361
35.356
35.35
35.342
35.332
35.32
35.309
35.299
35.29
35.283
35.278
35.274
35.271
35.269
35.267
35.262
35.255
35.246
35.234
35.218
35.199
35.176
35.15
35.12
35.087
35.051
35.013
34.973
34.933
34.89
34.846
34.799
34.75
34.699
34.645
34.589
34.53
34.468
34.404
34.338
34.271
34.204
34.137
34.07
34.004
33.939
33.874
33.81
33.747
33.684
33.622
33.561
33.501
33.441
33.381
33.32
33.259
33.198
33.138
33.078
33.019
32.963
32.909
32.858
32.807
32.758
32.709
32.66
32.61
32.559
32.507
32.454
32.402
32.351
32.304
32.263
32.233
32.217
32.216
32.235
32.276
32.344
32.441
32.57
32.732
32.93
33.161
33.425
33.718
34.037
34.377
34.733
35.1
35.472
35.843
36.208
36.56
36.897
37.213
37.504
37.767
38.001
38.205
38.379
38.523
38.638
38.727
38.792
38.837
38.864
38.875
38.872
38.857
38.832
38.798
38.757
38.71
38.658
38.602
38.543
38.482
38.418
38.351
38.28
38.205
38.128
38.049
37.967
37.881
37.793
37.702
37.609
37.511
37.409
37.304
37.197
37.087
36.976
36.863
36.75
36.639
36.53
36.425
36.325
36.23
36.14
36.058
35.981
35.911
35.848
35.792
35.743
35.699
35.662
35.628
35.599
35.574
35.551
35.533
35.518
35.508
35.502
35.499
35.499
35.499
35.5
35.502
35.503
35.503
35.503
35.502
35.499
35.494
35.485
35.473
35.459
35.441
35.422
35.402
35.38
35.358
35.336
35.314
35.29
35.266
35.239
35.211
35.179
35.144
35.105
35.062
35.015
34.964
34.909
34.85
34.788
34.724
34.659
34.593
34.526
34.461
34.397
34.333
34.27
34.206
34.143
34.081
34.019
33.957
33.897
33.838
33.78
33.724
33.669
33.614
33.56
33.507
33.455
33.405
33.357
33.31
33.265
33.219
33.174
33.128
33.081
33.033
32.983
32.932
32.88
32.829
32.779
32.733
32.693
32.662
32.641
32.634
32.643
32.673
32.727
32.808
32.918
33.058
33.228
33.429
33.659
33.916
34.198
34.501
34.822
35.156
35.499
35.845
36.187
36.521
36.842
37.147
37.431
37.692
37.929
38.139
38.323
38.482
38.617
38.727
38.816
38.883
38.931
38.961
38.973
38.97
38.954
38.926
38.89
38.846
38.795
38.741
38.682
38.619
38.552
38.482
38.407
38.33
38.25
38.168
38.083
37.996
37.907
37.816
37.722
37.624
37.524
37.42
37.313
37.204
37.093
36.981
36.869
36.758
36.649
36.542
36.437
36.337
36.241
36.151
36.068
35.992
35.923
35.863
35.81
35.764
35.723
35.688
35.658
35.632
35.611
35.593
35.579
35.569
35.562
35.559
35.558
35.558
35.559
35.562
35.565
35.568
35.569
35.569
35.567
35.562
35.553
35.539
35.52
35.497
35.469
35.438
35.402
35.363
35.321
35.277
35.232
35.185
35.138
35.091
35.046
35.002
34.959
34.916
34.871
34.825
34.775
34.721
34.662
34.601
34.537
34.472
34.408
34.344
34.281
34.218
34.154
34.09
34.026
33.961
33.896
33.831
33.765
33.699
33.631
33.561
33.489
33.417
33.344
33.272
33.2
33.131
33.063
32.997
32.933
32.871
32.809
32.749
32.69
32.63
32.571
32.511
32.451
32.393
32.338
32.288
32.247
32.218
32.204
32.21
32.239
32.293
32.377
32.491
32.638
32.818
33.03
33.272
33.542
33.836
34.15
34.48
34.822
35.172
35.525
35.877
36.224
36.561
36.885
37.194
37.484
37.752
37.997
38.217
38.412
38.58
38.721
38.835
38.922
38.985
39.025
39.044
39.043
39.025
38.992
38.947
38.894
38.834
38.768
38.698
38.626
38.553
38.48
38.407
38.335
38.263
38.191
38.118
38.045
37.969
37.89
37.809
37.725
37.636
37.542
37.443
37.338
37.227
37.113
36.995
36.876
36.757
36.64
36.526
36.417
36.314
36.218
36.131
36.052
35.983
35.923
35.872
35.829
35.794
35.764
35.74
35.718
35.698
35.68
35.662
35.643
35.623
35.603
35.581
35.559
35.535
35.51
35.484
35.458
35.433
35.409
35.387
35.366
35.346
35.325
35.304
35.28
35.254
35.226
35.196
35.165
35.132
35.097
35.061
35.023
34.983
34.941
34.898
34.855
34.81
34.764
34.718
34.669
34.618
34.565
34.509
34.45
34.391
34.332
34.273
34.213
34.154
34.095
34.038
33.981
33.924
33.869
33.814
33.76
33.707
33.652
33.596
33.54
33.483
33.424
33.365
33.305
33.246
33.186
33.126
33.066
33.006
32.947
32.889
32.831
32.773
32.714
32.654
32.594
32.533
32.471
32.41
32.352
32.298
32.25
32.209
32.178
32.158
32.153
32.165
32.2
32.26
32.349
32.47
32.623
32.81
33.032
33.285
33.569
33.88
34.216
34.572
34.943
35.324
35.708
36.089
36.463
36.824
37.167
37.489
37.784
38.05
38.286
38.492
38.667
38.813
38.932
39.024
39.092
39.139
39.167
39.178
39.174
39.159
39.134
39.103
39.067
39.026
38.983
38.936
38.886
38.833
38.775
38.715
38.65
38.583
38.512
38.437
38.358
38.273
38.183
38.089
37.991
37.889
37.783
37.674
37.564
37.454
37.343
37.234
37.128
37.026
36.927
36.832
36.74
36.653
36.57
36.493
36.421
36.354
36.292
36.236
36.184
36.137
36.092
36.051
36.013
35.977
35.944
35.911
35.88
35.85
35.821
35.793
35.768
35.744
35.723
35.706
35.691
35.679
35.669
35.66
35.653
35.646
35.639
35.631
35.622
35.609
35.593
35.574
35.548
35.517
35.479
35.436
35.388
35.336
35.28
35.223
35.166
35.108
35.05
34.99
34.93
34.869
34.809
34.749
34.688
34.629
34.569
34.508
34.445
34.38
34.313
34.246
34.179
34.112
34.047
33.984
33.922
33.862
33.802
33.743
33.685
33.627
33.571
33.515
33.459
33.403
33.347
33.292
33.236
33.18
33.124
33.068
33.013
32.956
32.9
32.843
32.785
32.726
32.666
32.604
32.541
32.477
32.412
32.347
32.284
32.227
32.179
32.142
32.122
32.123
32.147
32.199
32.281
32.396
32.548
32.736
32.96
33.219
33.51
33.827
34.167
34.524
34.893
35.268
35.645
36.019
36.385
36.738
37.074
37.389
37.68
37.946
38.184
38.394
38.575
38.73
38.859
38.964
39.047
39.108
39.15
39.175
39.183
39.175
39.153
39.116
39.069
39.012
38.949
38.88
38.809
38.735
38.661
38.587
38.515
38.443
38.371
38.3
38.228
38.154
38.079
38.0
37.918
37.832
37.742
37.647
37.546
