Trial 3:3back
34.723
34.711
34.699
34.687
34.674
34.662
34.65
34.638
34.628
34.618
34.609
34.601
34.594
34.587
34.581
34.575
34.57
34.565
34.559
34.553
34.547
34.54
34.533
34.525
34.517
34.509
34.5
34.493
34.486
34.482
34.48
34.482
34.488
34.499
34.517
34.543
34.577
34.619
34.671
34.733
34.803
34.882
34.968
35.06
35.157
35.259
35.363
35.467
35.571
35.671
35.767
35.856
35.937
36.008
36.07
36.12
36.159
36.188
36.206
36.215
36.215
36.208
36.195
36.177
36.156
36.132
36.107
36.081
36.056
36.03
36.005
35.98
35.955
35.931
35.908
35.886
35.864
35.844
35.824
35.805
35.786
35.767
35.749
35.73
35.712
35.693
35.674
35.656
35.637
35.618
35.6
35.581
35.561
35.54
35.518
35.496
35.473
35.449
35.426
35.403
35.381
35.361
35.344
35.329
35.318
35.311
35.308
35.307
35.31
35.315
35.32
35.327
35.332
35.336
35.34
35.344
35.347
35.351
35.355
35.359
35.362
35.366
35.37
35.375
35.38
35.386
35.391
35.398
35.404
35.409
35.415
35.418
35.421
35.421
35.418
35.414
35.407
35.398
35.386
35.373
35.357
35.34
35.321
35.301
35.281
35.26
35.24
35.219
35.197
35.176
35.156
35.136
35.116
35.097
35.078
35.06
35.042
35.025
35.008
34.992
34.978
34.965
34.954
34.943
34.932
34.922
34.911
34.9
34.888
34.876
34.862
34.847
34.831
34.812
34.792
34.771
34.748
34.725
34.701
34.679
34.656
34.634
34.613
34.592
34.574
34.558
34.544
34.533
34.525
34.52
34.517
34.516
34.517
34.519
34.521
34.523
34.525
34.526
34.526
34.524
34.52
34.515
34.508
34.499
34.488
34.477
34.465
34.454
34.443
34.433
34.423
34.415
34.408
34.403
34.398
34.394
34.39
34.386
34.382
34.377
34.371
34.365
34.358
34.351
34.343
34.335
34.327
34.318
34.31
34.302
34.293
34.283
34.274
34.264
34.254
34.245
34.237
34.229
34.222
34.216
34.211
34.207
34.204
34.203
34.201
34.201
34.201
34.203
34.207
34.214
34.224
34.239
34.26
34.287
34.321
34.362
34.411
34.467
34.531
34.602
34.681
34.765
34.855
34.948
35.043
35.139
35.233
35.325
35.412
35.495
35.571
35.638
35.697
35.746
35.785
35.815
35.834
35.845
35.847
35.841
35.828
35.807
35.782
35.752
35.72
35.686
35.651
35.617
35.585
35.554
35.525
35.498
35.474
35.453
35.434
35.415
35.398
35.381
35.364
35.347
35.329
35.31
35.289
35.265
35.24
35.214
35.185
35.156
35.127
35.097
35.067
35.039
35.013
34.989
34.968
34.95
34.934
34.921
34.91
34.9
34.893
34.887
34.882
34.88
34.878
34.878
34.88
34.882
34.886
34.892
34.898
34.906
34.914
34.923
34.932
34.942
34.953
34.964
34.976
34.988
35.0
35.011
35.022
35.032
35.041
35.049
35.055
35.06
35.063
35.065
35.066
35.064
35.061
35.055
35.048
35.039
35.028
35.017
35.005
34.991
34.976
34.959
34.941
34.922
34.903
34.884
34.867
34.851
34.838
34.826
34.816
34.806
34.797
34.788
34.777
34.766
34.755
34.742
34.729
34.715
34.7
34.684
34.667
34.65
34.632
34.615
34.599
34.583
34.568
34.554
34.541
34.529
34.52
34.511
34.504
34.497
34.49
34.484
34.477
34.47
34.464
34.459
34.454
34.45
34.446
34.442
34.438
34.434
34.431
34.427
34.425
34.423
34.422
34.42
34.417
34.413
34.409
34.403
34.396
34.388
34.38
34.371
34.363
34.355
34.347
34.341
34.336
34.332
34.328
34.326
34.324
34.323
34.321
34.319
34.316
34.312
34.306
34.3
34.293
34.285
34.278
34.272
34.266
34.26
34.256
34.251
34.248
34.245
34.244
34.244
34.246
34.249
34.255
34.265
34.277
34.295
34.317
34.344
34.377
34.416
34.462
34.515
34.575
34.641
34.714
34.792
34.873
34.956
35.039
35.121
35.2
35.275
35.344
35.408
35.465
35.515
35.557
35.592
35.62
35.64
35.654
35.661
35.663
35.66
35.653
35.642
35.627
35.609
35.587
35.562
35.536
35.51
35.483
35.457
35.431
35.405
35.379
35.354
35.33
35.307
35.285
35.265
35.246
35.228
35.21
35.191
35.173
35.153
35.132
35.109
35.085
35.059
35.032
35.003
34.973
34.943
34.913
34.884
34.857
34.833
34.812
34.795
34.782
34.771
34.764
34.761
34.761
34.764
34.769
34.778
34.788
34.801
34.815
34.833
34.852
34.873
34.895
34.917
34.938
34.957
34.976
34.992
35.005
35.016
35.024
35.03
35.034
35.037
35.039
35.041
35.042
35.042
35.041
35.04
35.038
35.034
35.029
35.022
35.014
35.005
34.994
34.981
34.968
34.954
34.939
34.924
34.909
34.894
34.881
34.87
34.859
34.85
34.841
34.833
34.823
34.814
34.803
34.792
34.78
34.767
34.754
34.74
34.725
34.71
34.694
34.678
34.662
34.647
34.632
34.617
34.604
34.591
34.579
34.568
34.557
34.547
34.537
34.528
34.519
34.51
34.501
34.492
34.483
34.475
34.468
34.462
34.458
34.455
34.452
34.451
34.45
34.448
34.447
34.446
34.443
34.44
34.437
34.433
34.429
34.425
34.421
34.418
34.415
34.413
34.41
34.408
34.406
34.404
34.403
34.401
34.4
34.399
34.398
34.397
34.396
34.394
34.391
34.388
34.385
34.382
34.379
34.376
34.374
34.372
34.371
34.373
34.378
34.387
34.401
34.42
34.445
34.476
34.515
34.559
34.611
34.669
34.734
34.804
34.878
34.957
35.038
35.122
35.207
35.291
35.373
35.453
35.528
35.597
35.661
35.717
35.765
35.804
35.834
35.856
35.869
35.874
35.873
35.866
35.854
35.837
35.818
35.797
35.776
35.754
35.732
35.71
35.687
35.664
35.641
35.617
35.593
35.569
35.544
35.518
35.49
35.463
35.435
35.407
35.379
35.353
35.327
35.303
35.28
35.258
35.238
35.219
35.201
35.185
35.17
35.157
35.145
35.134
35.124
35.113
35.103
35.092
35.081
35.071
35.062
35.053
35.046
35.04
35.035
35.031
35.027
35.024
35.022
35.021
35.02
35.021
35.024
35.029
35.037
35.048
35.061
35.077
35.096
35.117
35.139
35.162
35.184
35.205
35.223
35.237
35.247
35.254
35.256
35.255
35.251
35.244
35.235
35.224
35.211
35.198
35.184
35.169
35.155
35.141
35.127
35.113
35.099
35.086
35.073
35.059
35.045
35.032
35.019
35.006
34.994
34.982
34.971
34.96
34.95
34.941
34.932
34.923
34.915
34.906
34.897
34.888
34.877
34.866
34.853
34.837
34.82
34.802
34.783
34.764
34.746
34.731
34.717
34.706
34.697
34.691
34.688
34.687
34.688
34.69
34.691
34.693
34.693
34.693
34.692
34.69
34.687
34.683
34.678
34.673
34.667
34.661
34.655
34.649
34.643
34.637
34.631
34.625
34.62
34.615
34.61
34.606
34.602
34.599
34.597
34.596
34.595
34.595
34.595
34.595
34.595
34.594
34.592
34.59
34.587
34.584
34.58
34.576
34.572
34.567
34.563
34.558
34.552
34.544
34.536
34.528
34.52
34.513
34.506
34.501
34.499
34.499
34.502
34.509
34.521
34.539
34.562
34.59
34.623
34.663
34.708
34.76
34.818
34.883
34.954
35.032
35.114
35.2
35.288
35.377
35.466
35.552
35.634
35.711
35.782
35.846
35.902
35.95
35.989
36.019
36.039
36.052
36.056
36.053
36.044
36.029
36.009
35.986
35.959
35.932
35.903
35.875
35.848
35.821
35.795
35.77
35.745
35.722
35.699
35.676
35.655
35.634
35.614
35.594
35.575
35.556
35.537
35.519
35.5
35.481
35.46
35.439
35.417
35.395
35.372
35.351
35.33
35.312
35.294
35.279
35.266
35.254
35.244
35.235
35.226
35.218
35.21
35.202
35.195
35.19
35.186
35.183
35.182
35.182
35.184
35.186
35.19
35.195
35.202
35.21
35.22
35.231
35.244
35.259
35.273
35.288
35.303
35.317
35.331
35.345
35.358
35.371
35.383
35.395
35.404
35.411
35.416
35.416
35.412
35.404
35.392
35.376
35.358
35.336
35.313
35.289
35.264
35.238
35.214
35.19
35.168
35.149
35.133
35.119
35.106
35.096
35.087
35.08
35.075
35.07
35.066
35.062
35.057
35.051
35.044
35.035
35.026
35.015
35.002
34.989
34.975
34.96
34.946
34.932
34.918
34.904
34.89
34.876
34.863
34.849
34.835
34.822
34.808
34.795
34.783
34.772
34.763
34.755
34.749
34.744
34.741
34.739
34.739
34.739
34.741
34.743
34.744
34.745
34.744
34.743
34.74
34.736
34.73
34.722
34.712
34.701
34.691
34.68
34.67
34.661
34.654
34.648
34.642
34.637
34.633
34.63
34.627
34.624
34.622
34.62
34.617
34.615
34.611
34.605
34.598
34.59
34.581
34.571
34.563
34.555
34.549
34.543
34.538
34.534
34.532
34.532
34.532
34.534
34.536
34.54
34.544
34.551
34.561
34.573
34.589
34.61
34.637
34.671
34.712
34.762
34.82
34.886
34.961
35.042
35.129
35.219
35.31
35.401
35.49
35.575
35.657
35.732
35.8
35.861
35.913
35.958
35.994
36.021
36.041
36.052
36.057
36.055
36.049
36.037
36.022
36.003
35.981
35.957
35.932
35.905
35.879
35.852
35.825
35.798
35.77
35.743
35.715
35.688
35.661
35.635
35.61
35.586
35.563
35.541
35.52
35.499
35.478
35.457
35.436
35.415
35.393
35.371
35.349
35.326
35.305
35.284
35.264
35.247
35.231
35.217
35.206
35.196
35.188
35.182
35.178
35.175
35.174
35.172
35.171
35.17
35.169
35.169
35.17
35.172
35.175
35.179
35.183
35.189
35.195
35.202
35.209
35.216
35.223
35.23
35.237
35.245
35.253
35.263
35.273
35.285
35.296
35.308
35.32
35.331
35.341
35.348
35.353
35.355
35.354
35.35
35.343
35.333
35.32
35.303
35.284
35.261
35.237
35.212
35.187
35.162
35.138
35.116
35.095
35.077
35.061
35.048
35.037
35.028
35.02
35.014
35.008
35.002
34.996
34.99
34.983
34.975
34.967
34.959
34.95
34.942
34.932
34.923
34.912
34.901
34.889
34.877
34.864
34.852
34.839
34.825
34.812
34.799
34.787
34.776
34.766
34.758
34.75
34.745
34.741
34.74
34.741
34.743
34.746
34.749
34.752
34.755
34.759
34.762
34.766
34.768
34.77
34.771
34.77
34.768
34.763
34.756
34.747
34.736
34.724
34.711
34.698
34.685
34.673
34.661
34.65
34.64
34.63
34.622
34.615
34.61
34.606
34.603
34.602
34.602
34.603
34.605
34.61
34.617
34.626
34.637
34.652
34.67
34.691
34.717
34.747
34.783
34.824
34.87
34.924
34.982
35.047
35.118
35.193
35.272
35.354
35.438
35.523
35.605
35.683
35.757
35.825
35.885
35.936
35.979
36.012
36.035
36.049
36.054
36.052
36.043
36.028
36.01
35.988
35.963
35.936
35.908
35.879
35.849
35.819
35.789
35.76
35.731
35.703
35.677
35.652
35.629
35.609
35.59
35.572
35.556
35.54
35.524
35.509
35.492
35.475
35.455
35.433
35.409
35.381
35.351
35.318
35.285
35.251
35.22
35.191
35.166
35.145
35.129
35.117
35.11
35.107
35.108
35.111
35.116
35.123
35.132
35.142
35.153
35.165
35.178
35.192
35.207
35.221
35.236
35.252
35.267
35.283
35.299
35.314
35.329
35.342
35.354
35.365
35.373
35.379
35.384
35.386
35.388
35.387
35.385
35.382
35.378
35.372
35.366
35.36
35.353
35.345
35.336
35.326
35.315
35.303
35.29
35.276
35.262
35.247
35.233
35.218
35.205
35.194
35.183
35.174
35.165
35.156
35.147
35.138
35.13
35.121
35.111
35.1
35.087
35.072
35.054
35.036
35.015
34.995
34.973
34.952
34.932
34.914
34.899
34.886
34.876
34.869
34.865
34.862
34.862
34.863
34.865
34.868
34.871
34.873
34.875
34.875
34.874
34.871
34.866
34.86
34.852
34.843
34.833
34.822
34.811
34.8
34.79
34.781
34.771
34.763
34.754
34.747
34.739
34.733
34.727
34.722
34.717
34.714
34.712
34.711
34.712
34.713
34.717
34.721
34.727
34.734
34.741
34.748
34.756
34.764
34.772
34.783
34.796
34.813
34.835
34.862
34.894
34.932
34.978
35.031
35.092
35.161
35.237
35.321
35.409
35.501
35.595
35.688
35.78
35.868
35.949
36.024
36.089
36.146
36.193
36.23
36.257
36.275
36.284
36.284
36.278
36.266
36.249
36.228
36.203
36.176
36.147
36.116
36.086
36.055
36.025
35.996
35.968
35.941
35.916
35.892
35.87
35.849
35.829
35.809
35.79
35.77
35.749
35.727
35.704
35.681
35.657
35.634
35.611
35.588
35.566
35.544
35.522
35.501
35.48
35.46
35.439
35.419
35.399
35.38
35.361
35.344
35.328
35.315
35.306
35.3
35.297
35.298
35.303
35.31
35.32
35.333
35.348
35.365
35.382
35.401
35.419
35.436
35.453
35.467
35.479
35.49
35.5
35.508
35.515
35.522
35.527
35.532
35.535
35.537
35.537
35.535
35.532
35.527
35.521
35.514
35.506
35.498
35.489
35.481
35.473
35.465
35.458
35.452
35.445
35.438
35.431
35.423
35.414
35.405
35.394
35.382
35.368
35.351
35.331
35.31
35.286
35.261
35.237
35.212
35.189
35.166
35.145
35.126
35.109
35.094
35.08
35.068
35.058
35.05
35.043
35.037
35.032
35.027
35.021
35.015
35.009
35.003
34.997
34.99
34.982
34.973
34.963
34.952
34.942
34.932
34.921
34.911
34.901
34.892
34.884
34.877
34.872
34.867
34.864
34.862
34.86
34.86
34.861
34.862
34.864
34.866
34.868
34.87
34.871
34.872
34.871
34.869
34.865
34.859
34.852
34.842
34.832
34.82
34.806
34.793
34.779
34.767
34.757
34.749
34.744
34.743
34.744
34.749
34.758
34.772
34.791
34.815
34.845
34.88
34.922
34.969
35.023
35.082
35.148
35.218
35.294
35.373
35.454
35.539
35.627
35.716
35.805
35.892
35.977
36.057
36.13
36.197
36.256
36.306
36.346
36.378
36.4
36.413
36.418
36.415
36.407
36.393
36.374
36.353
36.328
36.302
36.275
36.247
36.219
36.191
36.163
36.135
36.107
36.08
36.054
36.028
36.005
35.983
35.963
35.945
35.927
35.912
35.896
35.882
35.867
35.852
35.835
35.818
35.798
35.777
35.755
35.731
35.706
35.681
35.657
35.633
35.61
35.588
35.567
35.549
35.533
35.52
35.51
35.504
35.5
35.5
35.501
35.503
35.507
35.511
35.516
35.522
35.529
35.536
35.545
35.554
35.564
35.575
35.586
35.598
35.61
35.622
35.633
35.644
35.652
35.66
35.665
35.67
35.673
35.676
35.678
35.678
35.677
35.674
35.669
35.663
35.654
35.644
35.633
35.62
35.607
35.593
35.578
35.563
35.547
35.531
35.516
35.501
35.488
35.477
35.466
35.456
35.446
35.437
35.427
35.417
35.406
35.392
35.376
35.357
35.336
35.313
35.289
35.264
35.239
35.215
35.191
35.169
35.149
35.13
35.114
35.1
35.087
35.077
35.069
35.063
35.059
35.057
35.056
35.056
35.056
35.057
35.057
35.057
35.055
35.052
35.047
35.04
35.031
35.021
35.01
34.998
34.986
34.974
34.961
34.949
34.937
34.926
34.917
34.909
34.902
34.898
34.895
34.894
34.894
34.895
34.896
34.899
34.902
34.905
34.907
34.909
34.908
34.906
34.902
34.895
34.886
34.874
34.86
34.845
34.83
34.815
34.801
34.788
34.778
34.77
34.766
34.764
34.767
34.773
34.784
34.8
34.822
34.85
34.884
34.925
34.973
35.027
35.087
35.154
35.227
35.304
35.385
35.47
35.556
35.643
35.729
35.813
35.893
35.97
36.042
36.109
36.169
36.223
36.269
36.308
36.339
36.363
36.381
36.393
36.398
36.397
36.39
36.379
36.364
36.344
36.322
36.296
36.268
36.239
36.209
36.18
36.15
36.121
36.092
36.063
36.036
36.009
35.985
35.962
35.941
35.921
35.902
35.883
35.863
35.844
35.825
35.806
35.787
35.766
35.745
35.723
35.701
35.679
35.656
35.635
35.614
35.594
35.575
35.558
35.543
35.53
35.519
35.512
35.506
35.502
35.5
35.499
35.499
35.5
35.503
35.507
35.512
35.519
35.529
35.54
35.553
35.567
35.582
35.598
35.615
35.631
35.647
35.662
35.676
35.688
35.699
35.708
35.717
35.725
35.731
35.737
35.742
35.744
35.745
35.742
35.738
35.731
35.722
35.711
35.698
35.683
35.666
35.648
35.629
35.61
35.59
35.57
35.551
35.533
35.516
35.5
35.486
35.473
35.462
35.452
35.442
35.433
35.423
35.414
35.403
35.392
35.381
35.369
35.356
35.344
35.33
35.316
35.302
35.287
35.271
35.254
35.238
35.223
35.208
35.194
35.182
35.17
35.159
35.149
35.14
35.133
35.127
35.123
35.12
35.118
35.117
35.118
35.118
35.118
35.119
35.118
35.116
35.111
35.104
35.094
35.083
35.07
35.056
35.042
35.029
35.016
35.006
34.996
34.987
34.98
34.974
34.971
34.968
34.967
34.967
34.967
34.968
34.97
34.971
34.973
34.976
34.979
34.983
34.986
34.991
34.996
35.004
35.014
35.027
35.045
35.067
35.095
35.129
35.169
35.215
35.267
35.325
35.389
35.459
35.535
35.617
35.702
35.791
35.88
35.967
36.051
36.13
36.202
36.266
36.32
36.365
36.4
36.425
36.44
36.447
36.447
36.442
36.432
36.418
36.401
36.382
36.359
36.335
36.31
36.284
36.259
36.235
36.212
36.189
36.166
36.144
36.121
36.099
36.076
36.052
36.029
36.005
35.981
35.956
35.93
35.904
35.876
35.847
35.816
35.785
35.754
35.723
35.693
35.663
35.634
35.608
35.583
35.56
35.541
35.525
35.513
35.504
35.498
35.495
35.494
35.494
35.497
35.501
35.506
35.512
35.519
35.526
35.534
35.542
35.55
35.559
35.57
35.581
35.594
35.608
35.623
35.638
35.654
35.668
35.682
35.693
35.703
35.71
35.714
35.716
35.716
35.713
35.709
35.703
35.695
35.686
35.675
35.663
35.651
35.637
35.623
35.609
35.594
35.58
35.566
35.551
35.537
35.523
35.51
35.496
35.482
35.468
35.454
35.439
35.423
35.407
35.39
35.373
35.357
35.341
35.326
35.31
35.295
35.28
35.266
35.252
35.24
35.227
35.215
35.202
35.189
35.176
35.162
35.147
35.131
35.116
35.1
35.084
35.068
35.053
35.039
35.025
35.01
34.996
34.982
34.968
34.956
34.945
34.936
34.929
34.924
34.921
34.921
34.923
34.925
34.928
34.931
34.933
34.933
34.933
34.932
34.931
34.928
34.923
34.917
34.91
34.901
34.892
34.881
34.87
34.86
34.849
34.838
34.826
34.813
34.8
34.788
34.776
34.767
34.76
34.756
34.755
34.758
34.763
34.773
34.786
34.803
34.824
34.851
34.883
34.92
34.962
35.011
35.064
35.122
35.185
35.252
35.323
35.398
35.475
35.556
35.638
35.722
35.807
35.89
35.973
36.053
36.129
36.201
36.267
36.327
36.379
36.423
36.458
36.485
36.503
36.511
36.511
36.502
36.487
36.467
36.441
36.411
36.379
36.344
36.309
36.273
36.238
36.203
36.169
36.138
36.108
36.079
36.054
36.03
36.008
35.988
35.968
35.949
35.931
35.914
35.899
35.885
35.871
35.856
35.839
35.82
35.798
35.774
35.748
35.722
35.695
35.669
35.643
35.618
35.595
35.576
35.559
35.546
35.536
35.528
35.523
35.521
35.522
35.525
35.53
35.537
35.545
35.553
35.562
35.571
35.581
35.591
35.601
35.612
35.623
35.635
35.647
35.659
35.671
35.682
35.693
35.701
35.708
35.713
35.716
35.717
35.717
35.715
35.71
35.704
35.696
35.686
35.675
35.662
35.648
35.634
35.619
35.603
35.587
35.571
35.555
35.537
35.519
35.5
35.479
35.459
35.438
35.418
35.399
35.38
35.363
35.346
35.331
35.317
35.305
35.293
35.281
35.27
35.259
35.248
35.236
35.222
35.209
35.195
35.181
35.169
35.157
35.145
35.135
35.126
35.116
35.107
35.097
35.087
35.077
35.068
35.059
35.05
35.041
35.032
35.022
35.013
35.005
34.997
34.99
34.984
34.978
34.972
34.967
34.962
34.957
34.952
34.947
34.944
34.941
34.939
34.938
34.937
34.936
34.936
34.936
34.934
34.933
34.93
34.927
34.922
34.917
34.91
34.903
34.895
34.886
34.877
34.867
34.857
34.848
34.839
34.831
34.825
34.823
34.825
34.831
34.842
34.859
34.883
34.914
34.952
34.997
35.05
35.11
35.176
35.248
35.324
35.404
35.485
35.567
35.648
35.728
35.804
35.877
35.946
36.01
36.068
36.121
36.168
36.209
36.245
36.274
36.298
36.316
36.328
36.333
36.333
36.326
36.315
36.299
36.279
36.256
36.23
36.202
36.172
36.142
36.111
36.079
36.048
36.016
35.983
35.95
35.917
35.886
35.855
35.826
35.799
35.772
35.746
35.721
35.697
35.673
35.65
35.627
35.604
35.581
35.559
35.538
35.516
35.496
35.476
35.457
35.44
35.424
35.41
35.397
35.385
35.375
35.366
35.359
35.353
35.35
35.349
35.351
35.356
35.362
35.371
35.382
35.395
35.41
35.427
35.445
35.465
35.486
35.508
35.529
35.548
35.566
35.582
35.596
35.606
35.614
35.618
35.619
35.617
35.612
35.604
35.594
35.582
35.568
35.553
35.536
35.519
35.5
35.481
35.461
35.441
35.423
35.405
35.388
35.372
35.356
35.34
35.325
35.309
35.293
35.277
35.259
35.241
35.222
35.203
35.184
35.165
35.147
35.13
35.113
35.098
35.084
35.072
35.061
35.051
35.041
