Trial 3:3back
35.595
35.572
35.55
35.528
35.507
35.486
35.466
35.446
35.427
35.409
35.392
35.377
35.363
35.351
35.34
35.329
35.318
35.306
35.293
35.277
35.26
35.241
35.22
35.198
35.176
35.153
35.131
35.111
35.092
35.075
35.062
35.054
35.052
35.056
35.068
35.09
35.122
35.166
35.221
35.289
35.37
35.463
35.568
35.684
35.809
35.941
36.079
36.22
36.362
36.503
36.64
36.773
36.898
37.015
37.121
37.217
37.3
37.372
37.432
37.479
37.514
37.537
37.549
37.552
37.547
37.535
37.518
37.498
37.475
37.452
37.428
37.405
37.383
37.362
37.342
37.324
37.306
37.289
37.272
37.256
37.24
37.223
37.207
37.19
37.174
37.157
37.141
37.124
37.107
37.09
37.071
37.051
37.031
37.008
36.984
36.959
36.933
36.905
36.876
36.846
36.816
36.785
36.755
36.725
36.697
36.671
36.648
36.627
36.61
36.596
36.586
36.58
36.578
36.579
36.584
36.59
36.598
36.607
36.614
36.62
36.623
36.623
36.62
36.614
36.604
36.591
36.577
36.56
36.543
36.525
36.506
36.487
36.469
36.449
36.429
36.408
36.386
36.363
36.339
36.313
36.287
36.261
36.234
36.208
36.181
36.156
36.131
36.106
36.082
36.058
36.034
36.01
35.985
35.96
35.934
35.908
35.882
35.857
35.832
35.807
35.783
35.759
35.735
35.711
35.687
35.662
35.636
35.61
35.583
35.557
35.53
35.504
35.478
35.454
35.43
35.408
35.387
35.367
35.348
35.329
35.311
35.292
35.274
35.256
35.239
35.223
35.208
35.193
35.179
35.165
35.152
35.138
35.123
35.107
35.09
35.072
35.053
35.033
35.012
34.989
34.965
34.94
34.914
34.888
34.861
34.836
34.812
34.792
34.775
34.764
34.759
34.762
34.773
34.793
34.824
34.865
34.919
34.984
35.062
35.152
35.253
35.365
35.487
35.617
35.753
35.892
36.034
36.174
36.31
36.439
36.56
36.669
36.767
36.851
36.922
36.979
37.022
37.053
37.072
37.08
37.079
37.07
37.054
37.032
37.006
36.977
36.946
36.913
36.881
36.849
36.818
36.788
36.761
36.737
36.715
36.696
36.679
36.665
36.651
36.638
36.625
36.612
36.597
36.582
36.565
36.547
36.529
36.51
36.49
36.471
36.45
36.429
36.406
36.383
36.358
36.332
36.305
36.278
36.25
36.223
36.197
36.173
36.151
36.132
36.117
36.104
36.095
36.089
36.085
36.084
36.084
36.086
36.088
36.09
36.093
36.096
36.099
36.102
36.103
36.104
36.103
36.098
36.091
36.081
36.068
36.053
36.035
36.016
35.994
35.972
35.948
35.924
35.898
35.872
35.844
35.817
35.789
35.762
35.735
35.708
35.682
35.656
35.632
35.608
35.586
35.564
35.543
35.521
35.499
35.476
35.454
35.43
35.407
35.383
35.36
35.336
35.313
35.29
35.267
35.244
35.221
35.198
35.174
35.151
35.128
35.105
35.082
35.061
35.04
35.02
35.001
34.983
34.967
34.951
34.937
34.921
34.905
34.887
34.867
34.846
34.824
34.801
34.778
34.755
34.734
34.715
34.699
34.685
34.674
34.664
34.656
34.648
34.641
34.633
34.624
34.614
34.602
34.589
34.573
34.556
34.536
34.516
34.495
34.473
34.452
34.432
34.413
34.397
34.385
34.376
34.372
34.374
34.382
34.397
34.42
34.451
34.492
34.543
34.605
34.677
34.76
34.853
34.955
35.066
35.182
35.303
35.427
35.55
35.672
35.79
35.902
36.006
36.101
36.185
36.257
36.318
36.367
36.405
36.431
36.448
36.455
36.454
36.445
36.43
36.41
36.386
36.359
36.331
36.302
36.273
36.245
36.218
36.193
36.17
36.149
36.129
36.11
36.093
36.077
36.062
36.048
36.033
36.019
36.004
35.989
35.974
35.957
35.939
35.919
35.898
35.874
35.849
35.822
35.793
35.763
35.733
35.703
35.675
35.648
35.624
35.602
35.583
35.567
35.555
35.546
35.541
35.538
35.538
35.541
35.545
35.552
35.56
35.569
35.578
35.586
35.592
35.597
35.599
35.599
35.596
35.591
35.584
35.575
35.564
35.552
35.538
35.524
35.509
35.492
35.476
35.458
35.44
35.421
35.402
35.382
35.361
35.339
35.317
35.295
35.272
35.25
35.226
35.203
35.179
35.156
35.132
35.107
35.083
35.058
35.033
35.008
34.983
34.957
34.932
34.906
34.88
34.853
34.828
34.802
34.778
34.755
34.734
34.713
34.695
34.677
34.659
34.642
34.625
34.608
34.591
34.574
34.557
34.54
34.523
34.506
34.49
34.474
34.459
34.444
34.429
34.413
34.398
34.382
34.365
34.348
34.331
34.313
34.295
34.277
34.258
34.238
34.217
34.197
34.176
34.155
34.135
34.114
34.095
34.076
34.058
34.041
34.026
34.013
34.002
33.993
33.986
33.982
33.983
33.988
34.0
34.02
34.048
34.086
34.133
34.191
34.258
34.335
34.42
34.512
34.61
34.712
34.816
34.922
35.027
35.13
35.23
35.324
35.412
35.492
35.563
35.624
35.675
35.716
35.747
35.768
35.78
35.785
35.782
35.774
35.761
35.745
35.727
35.708
35.688
35.668
35.648
35.628
35.61
35.592
35.575
35.559
35.544
35.53
35.517
35.503
35.489
35.475
35.46
35.444
35.427
35.41
35.393
35.375
35.357
35.339
35.32
35.301
35.282
35.262
35.242
35.222
35.201
35.181
35.161
35.141
35.122
35.104
35.086
35.071
35.057
35.044
35.034
35.025
35.018
35.013
35.01
35.01
35.011
35.014
35.018
35.022
35.026
35.03
35.032
35.032
35.03
35.026
35.019
35.008
34.995
34.98
34.963
34.946
34.927
34.909
34.891
34.874
34.857
34.842
34.827
34.813
34.8
34.788
34.776
34.763
34.751
34.738
34.723
34.707
34.69
34.67
34.649
34.626
34.602
34.578
34.554
34.53
34.508
34.486
34.465
34.444
34.424
34.405
34.386
34.367
34.349
34.332
34.315
34.3
34.285
34.272
34.259
34.247
34.235
34.223
34.211
34.2
34.188
34.178
34.168
34.159
34.15
34.142
34.133
34.124
34.115
34.104
34.093
34.082
34.071
34.061
34.05
34.041
34.032
34.025
34.017
34.01
34.003
33.996
33.988
33.979
33.97
33.96
33.95
33.938
33.925
33.912
33.898
33.883
33.868
33.853
33.837
33.822
33.807
33.794
33.782
33.772
33.766
33.762
33.763
33.768
33.781
33.801
33.83
33.868
33.916
33.975
34.044
34.122
34.21
34.307
34.409
34.517
34.629
34.742
34.855
34.966
35.072
35.173
35.267
35.352
35.428
35.493
35.549
35.593
35.627
35.652
35.667
35.675
35.675
35.67
35.66
35.647
35.631
35.615
35.598
35.582
35.566
35.551
35.537
35.523
35.511
35.501
35.491
35.483
35.477
35.471
35.465
35.46
35.454
35.449
35.442
35.436
35.429
35.421
35.414
35.406
35.399
35.393
35.387
35.38
35.372
35.364
35.353
35.34
35.324
35.306
35.285
35.264
35.242
35.22
35.199
35.18
35.164
35.151
35.142
35.136
35.133
35.133
35.135
35.14
35.145
35.151
35.158
35.164
35.169
35.174
35.176
35.176
35.175
35.172
35.166
35.159
35.15
35.139
35.126
35.111
35.096
35.08
35.065
35.051
35.037
35.025
35.013
35.001
34.989
34.976
34.962
34.948
34.933
34.917
34.901
34.886
34.871
34.856
34.841
34.826
34.811
34.794
34.778
34.76
34.742
34.724
34.706
34.687
34.668
34.648
34.628
34.607
34.585
34.563
34.541
34.52
34.5
34.481
34.463
34.446
34.429
34.413
34.397
34.382
34.366
34.351
34.335
34.321
34.307
34.295
34.284
34.275
34.266
34.258
34.251
34.244
34.236
34.228
34.22
34.212
34.204
34.196
34.189
34.183
34.177
34.171
34.164
34.158
34.152
34.145
34.138
34.129
34.12
34.11
34.098
34.085
34.071
34.055
34.038
34.02
34.001
33.981
33.961
33.942
33.923
33.906
33.891
33.879
33.87
33.864
33.863
33.866
33.875
33.889
33.91
33.938
33.974
34.019
34.074
34.138
34.212
34.296
34.388
34.488
34.594
34.704
34.816
34.928
35.04
35.148
35.252
35.351
35.443
35.526
35.6
35.663
35.716
35.757
35.788
35.809
35.821
35.826
35.824
35.817
35.807
35.794
35.779
35.763
35.746
35.729
35.71
35.691
35.671
35.651
35.63
35.61
35.589
35.568
35.549
35.53
35.513
35.497
35.482
35.468
35.455
35.444
35.433
35.423
35.415
35.407
35.399
35.391
35.383
35.373
35.363
35.35
35.336
35.319
35.301
35.282
35.262
35.243
35.224
35.206
35.19
35.174
35.16
35.148
35.136
35.127
35.119
35.114
35.112
35.112
35.115
35.12
35.127
35.136
35.146
35.155
35.163
35.169
35.173
35.174
35.173
35.17
35.164
35.157
35.147
35.136
35.124
35.111
35.097
35.082
35.067
35.052
35.036
35.021
35.005
34.99
34.974
34.958
34.942
34.925
34.907
34.888
34.869
34.848
34.827
34.806
34.785
34.765
34.745
34.726
34.707
34.69
34.673
34.657
34.641
34.626
34.61
34.595
34.579
34.562
34.546
34.529
34.512
34.494
34.476
34.458
34.44
34.422
34.404
34.387
34.369
34.352
34.335
34.32
34.305
34.293
34.281
34.271
34.262
34.254
34.246
34.239
34.233
34.226
34.219
34.213
34.205
34.198
34.19
34.181
34.171
34.161
34.15
34.139
34.127
34.116
34.105
34.096
34.087
34.079
34.072
34.065
34.058
34.05
34.042
34.034
34.025
34.015
34.005
33.994
33.982
33.969
33.955
33.94
33.923
33.906
33.889
33.872
33.855
33.84
33.827
33.816
33.809
33.806
33.807
33.812
33.824
33.841
33.867
33.901
33.945
33.999
34.064
34.139
34.225
34.321
34.426
34.536
34.652
34.77
34.888
35.004
35.117
35.224
35.324
35.414
35.495
35.565
35.623
35.67
35.706
35.731
35.745
35.75
35.747
35.737
35.723
35.706
35.686
35.666
35.646
35.627
35.609
35.594
35.58
35.569
35.56
35.553
35.548
35.546
35.545
35.545
35.548
35.551
35.556
35.562
35.568
35.573
35.578
35.582
35.585
35.586
35.585
35.583
35.579
35.573
35.564
35.553
35.54
35.524
35.506
35.487
35.466
35.444
35.422
35.401
35.382
35.365
35.352
35.342
35.335
35.332
35.331
35.334
35.339
35.347
35.357
35.369
35.382
35.394
35.406
35.416
35.425
35.431
35.434
35.434
35.431
35.424
35.415
35.403
35.389
35.373
35.355
35.336
35.315
35.294
35.273
35.251
35.231
35.211
35.192
35.175
35.16
35.146
35.134
35.122
35.11
35.099
35.088
35.076
35.063
35.049
35.034
35.018
35.001
34.983
34.965
34.948
34.93
34.914
34.898
34.884
34.87
34.856
34.843
34.83
34.817
34.804
34.791
34.779
34.767
34.756
34.745
34.734
34.723
34.711
34.699
34.687
34.674
34.661
34.648
34.636
34.624
34.614
34.604
34.595
34.587
34.58
34.574
34.569
34.564
34.559
34.554
34.548
34.541
34.533
34.525
34.515
34.504
34.491
34.478
34.463
34.449
34.435
34.422
34.41
34.4
34.39
34.382
34.373
34.364
34.354
34.343
34.33
34.317
34.303
34.287
34.271
34.255
34.238
34.222
34.206
34.191
34.176
34.161
34.148
34.136
34.125
34.117
34.11
34.106
34.104
34.104
34.108
34.117
34.13
34.151
34.179
34.215
34.261
34.318
34.385
34.463
34.55
34.646
34.748
34.854
34.964
35.075
35.186
35.294
35.398
35.496
35.588
35.671
35.746
35.812
35.869
35.915
35.952
35.98
35.998
36.009
36.013
36.01
36.002
35.991
35.977
35.961
35.945
35.929
35.915
35.902
35.89
35.881
35.873
35.866
35.861
35.858
35.855
35.853
35.852
35.852
35.851
35.851
35.85
35.848
35.845
35.84
35.834
35.825
35.814
35.801
35.786
35.77
35.753
35.734
35.715
35.696
35.676
35.656
35.636
35.617
35.599
35.583
35.569
35.558
35.55
35.546
35.545
35.547
35.552
35.559
35.567
35.577
35.587
35.598
35.608
35.619
35.629
35.639
35.647
35.653
35.657
35.658
35.656
35.651
35.643
35.633
35.62
35.605
35.589
35.571
35.552
35.533
35.513
35.494
35.474
35.455
35.436
35.417
35.399
35.381
35.363
35.346
35.33
35.314
35.299
35.283
35.267
35.25
35.233
35.215
35.197
35.179
35.161
35.143
35.125
35.107
35.09
35.072
35.054
35.035
35.017
34.998
34.98
34.962
34.946
34.931
34.918
34.906
34.894
34.883
34.872
34.861
34.849
34.837
34.825
34.812
34.799
34.785
34.771
34.758
34.745
34.732
34.72
34.708
34.697
34.687
34.677
34.667
34.658
34.648
34.638
34.627
34.616
34.602
34.588
34.571
34.552
34.532
34.51
34.488
34.465
34.442
34.419
34.397
34.376
34.358
34.342
34.329
34.318
34.311
34.307
34.308
34.313
34.323
34.34
34.363
34.393
34.431
34.478
34.533
34.597
34.67
34.751
34.84
34.935
35.035
35.138
35.241
35.344
35.444
35.539
35.628
35.709
35.781
35.845
35.899
35.944
35.98
36.009
36.029
36.042
36.05
36.052
36.05
36.044
36.036
36.026
36.013
36.0
35.986
35.971
35.956
35.941
35.926
35.911
35.897
35.883
35.87
35.858
35.845
35.834
35.822
35.811
35.799
35.788
35.775
35.763
35.75
35.738
35.725
35.712
35.699
35.684
35.669
35.654
35.638
35.621
35.606
35.59
35.576
35.562
35.55
35.54
35.531
35.523
35.518
35.514
35.512
35.512
35.515
35.519
35.526
35.534
35.544
35.556
35.569
35.582
35.595
35.608
35.619
35.628
35.636
35.641
35.643
35.643
35.641
35.637
35.63
35.621
35.611
35.598
35.584
35.568
35.55
35.531
35.51
35.486
35.461
35.432
35.402
35.37
35.335
35.3
35.263
35.224
35.184
35.144
35.102
35.061
35.022
34.984
34.949
34.918
34.891
34.867
34.848
34.832
34.82
34.81
34.802
34.795
34.789
34.782
34.775
34.768
34.758
34.748
34.735
34.72
34.702
34.682
34.66
34.636
34.612
34.587
34.562
34.537
34.514
34.491
34.47
34.45
34.431
34.414
34.398
34.384
34.371
34.361
34.352
34.346
34.342
34.34
34.339
34.338
34.336
34.333
34.329
34.323
34.316
34.308
34.3
34.293
34.286
34.279
34.274
34.27
34.267
34.264
34.263
34.264
34.267
34.272
34.281
34.295
34.314
34.339
34.372
34.413
34.464
34.525
34.596
34.676
34.766
34.865
34.97
35.082
35.198
35.317
35.436
35.554
35.668
35.777
35.879
35.972
36.056
36.129
36.191
36.243
36.284
36.316
36.339
36.355
36.363
36.365
36.362
36.354
36.344
36.332
36.318
36.305
36.291
36.279
36.268
36.26
36.253
36.247
36.242
36.237
36.232
36.226
36.219
36.211
36.202
36.194
36.185
36.176
36.167
36.158
36.148
36.139
36.129
36.118
36.107
36.093
36.079
36.062
36.044
36.025
36.004
35.984
35.964
35.943
35.924
35.905
35.888
35.872
35.858
35.846
35.837
35.83
35.826
35.825
35.825
35.827
35.83
35.834
35.837
35.841
35.843
35.845
35.845
35.844
35.842
35.839
35.835
35.829
35.823
35.815
35.806
35.796
35.784
35.772
35.758
35.744
35.729
35.714
35.697
35.681
35.664
35.647
35.63
35.612
35.594
35.576
35.558
35.54
35.523
35.504
35.486
35.466
35.445
35.424
35.402
35.38
35.359
35.338
35.317
35.296
35.276
35.255
35.235
35.216
35.198
35.18
35.165
35.151
35.139
35.128
35.12
35.112
35.104
35.096
35.088
35.078
35.068
35.056
35.044
35.031
35.018
35.005
34.993
34.983
34.973
34.963
34.954
34.944
34.935
34.926
34.917
34.908
34.899
34.89
34.881
34.871
34.86
34.848
34.835
34.821
34.807
34.793
34.778
34.764
34.752
34.74
34.731
34.724
34.719
34.717
34.718
34.723
34.733
34.749
34.772
34.802
34.842
34.892
34.952
35.024
35.105
35.196
35.296
35.403
35.515
35.632
35.751
35.871
35.991
36.107
36.219
36.325
36.424
36.514
36.594
36.665
36.725
36.774
36.813
36.842
36.861
36.872
36.876
36.875
36.869
36.861
36.85
36.839
36.827
36.816
36.805
36.794
36.783
36.772
36.761
36.751
36.742
36.733
36.726
36.719
36.713
36.708
36.703
36.698
36.692
36.685
36.677
36.668
36.658
36.646
36.633
36.619
36.602
36.585
36.566
36.546
36.525
36.504
36.482
36.462
36.442
36.425
36.409
36.396
36.385
36.377
36.371
36.368
36.366
36.366
36.367
36.369
36.371
36.375
36.379
36.384
36.39
36.397
36.403
36.408
36.412
36.413
36.413
36.41
36.405
36.397
36.388
36.377
36.364
36.35
36.334
36.318
36.3
36.282
36.264
36.245
36.225
36.204
36.181
36.158
36.134
36.11
36.087
36.063
36.04
36.017
35.993
35.97
35.946
35.921
35.896
35.871
35.845
35.818
35.791
35.765
35.738
35.711
35.684
35.658
35.632
35.607
35.581
35.556
35.532
35.508
35.485
35.463
35.442
35.422
35.402
35.384
35.366
35.348
35.331
35.312
35.294
35.275
35.255
35.236
35.217
35.198
35.18
35.163
35.147
35.132
35.118
35.105
35.091
35.077
35.062
35.046
35.028
35.009
34.987
34.965
34.942
34.918
34.895
34.873
34.851
34.831
34.813
34.797
34.784
34.775
34.77
34.769
34.774
34.785
34.803
34.828
34.862
34.905
34.957
35.019
35.091
35.172
35.262
35.36
35.465
35.576
35.69
35.806
35.922
36.036
36.146
36.251
36.349
36.44
36.522
36.595
36.657
36.709
36.75
36.781
36.801
36.811
36.812
36.805
36.79
36.769
36.743
36.714
36.683
36.651
36.62
36.589
36.559
36.532
36.506
36.483
36.461
36.442
36.425
36.409
36.395
36.383
36.372
36.361
36.352
36.342
36.332
36.321
36.309
36.296
36.281
36.264
36.245
36.224
36.202
36.177
36.152
36.126
36.1
36.073
36.048
36.023
35.999
35.977
35.956
35.938
35.922
35.91
35.9
35.892
35.888
35.886
35.885
35.886
35.887
35.888
35.889
35.889
35.887
35.885
35.881
35.875
35.868
35.86
35.849
35.837
35.824
35.809
35.793
35.777
35.76
35.743
35.726
35.709
35.693
35.677
35.66
35.642
35.623
35.602
35.579
35.555
35.53
35.504
35.478
35.452
35.427
35.401
35.376
35.351
35.326
35.301
35.278
35.255
35.233
35.212
35.193
35.174
35.156
35.139
35.122
35.104
35.086
35.067
35.048
35.027
35.006
34.984
34.962
34.94
34.919
34.898
34.879
34.862
34.846
34.833
34.822
34.812
34.805
34.798
34.791
34.783
34.775
34.764
34.751
34.736
34.719
34.701
34.681
34.66
34.639
34.619
34.599
34.58
34.563
34.548
34.533
34.52
34.506
34.492
34.478
34.463
34.448
34.433
34.418
34.404
34.389
34.375
34.361
34.348
34.336
34.326
34.319
34.315
34.315
34.321
34.333
34.353
34.379
34.414
34.457
34.509
34.57
34.64
34.719
34.807
34.902
35.004
35.112
35.224
35.337
35.45
35.561
35.667
35.766
35.858
35.941
36.013
36.074
36.125
36.165
36.194
36.214
36.224
36.227
36.222
36.21
36.193
36.172
36.147
36.121
36.094
36.068
36.043
36.02
35.999
35.982
35.968
35.956
35.946
35.937
35.93
35.922
35.914
35.904
35.893
35.88
35.866
35.85
35.832
35.812
35.791
35.769
35.746
35.722
35.698
35.674
35.651
35.628
35.606
35.585
35.565
35.545
35.527
35.51
35.494
35.479
35.466
35.455
35.445
35.437
35.431
35.427
35.425
35.426
35.428
35.432
35.436
35.441
35.446
35.451
35.454
35.455
35.453
35.449
35.441
35.431
35.418
35.404
35.387
35.37
35.351
35.333
35.314
35.296
35.277
35.26
35.243
35.227
35.212
35.199
35.187
35.176
35.166
35.155
35.143
35.13
35.116
35.101
35.083
35.064
35.043
35.02
34.995
34.97
34.944
34.917
34.891
34.865
34.841
34.819
34.798
34.781
34.765
34.752
34.74
34.729
34.719
34.707
34.695
34.682
34.668
34.653
34.637
34.622
34.607
34.592
34.578
34.564
34.55
34.537
34.525
34.513
34.502
34.491
34.481
34.471
34.462
34.453
34.444
34.434
34.423
34.41
34.396
34.38
34.362
34.343
34.323
34.302
34.282
34.261
34.24
34.22
34.201
34.183
34.165
34.15
34.137
34.127
34.12
34.118
34.12
34.127
34.139
34.157
34.182
34.215
34.256
34.306
34.365
34.433
34.51
34.595
34.686
34.783
34.882
34.983
35.084
35.181
35.274
35.362
35.442
35.513
35.576
35.629
35.673
35.708
35.734
35.751
35.759
35.759
35.753
35.74
35.723
35.702
35.678
35.652
35.625
35.599
35.574
35.551
35.53
35.511
35.493
35.476
35.461
35.448
35.436
35.425
35.417
35.409
35.402
35.395
35.389
35.382
35.374
35.364
35.353
35.341
35.326
35.311
35.294
35.276
35.258
35.239
35.22
35.199
35.179
35.158
35.138
35.119
35.101
35.085
35.072
35.061
35.052
35.046
35.043
35.041
35.041
35.042
35.045
35.047
35.05
35.053
35.056
35.059
35.061
35.062
35.061
35.058
35.053
35.046
35.036
35.023
35.008
34.992
34.974
34.955
34.936
34.917
34.898
34.88
34.863
34.847
34.831
34.817
34.802
34.786
34.771
34.756
34.74
34.725
34.709
34.693
34.675
34.658
34.639
34.62
34.599
34.578
34.556
34.533
34.51
34.487
34.464
34.442
34.42
34.399
34.379
34.36
34.342
34.325
34.31
34.296
34.283
34.27
34.259
34.247
34.236
34.225
34.214
34.203
34.194
34.186
34.178
34.173
34.168
34.163
34.159
34.154
34.147
34.139
