Trial 3:3back
34.968
34.959
34.951
34.944
34.938
34.933
34.93
34.928
34.926
34.924
34.923
34.922
34.921
34.918
34.915
34.912
34.907
34.903
34.898
34.894
34.89
34.886
34.882
34.878
34.873
34.868
34.863
34.858
34.852
34.847
34.842
34.837
34.833
34.83
34.827
34.825
34.822
34.82
34.818
34.814
34.81
34.804
34.796
34.788
34.779
34.769
34.759
34.75
34.741
34.733
34.725
34.719
34.713
34.707
34.703
34.701
34.701
34.703
34.71
34.723
34.743
34.773
34.812
34.862
34.923
34.998
35.085
35.185
35.296
35.417
35.545
35.678
35.812
35.945
36.073
36.195
36.307
36.407
36.494
36.567
36.624
36.666
36.691
36.7
36.695
36.676
36.646
36.606
36.557
36.502
36.442
36.379
36.313
36.247
36.181
36.116
36.053
35.993
35.938
35.887
35.841
35.8
35.764
35.734
35.707
35.685
35.665
35.647
35.63
35.614
35.599
35.584
35.569
35.554
35.539
35.524
35.508
35.49
35.47
35.448
35.424
35.399
35.374
35.35
35.327
35.306
35.288
35.274
35.264
35.258
35.256
35.26
35.268
35.279
35.294
35.311
35.33
35.35
35.372
35.394
35.416
35.437
35.457
35.477
35.494
35.51
35.524
35.536
35.546
35.554
35.56
35.563
35.563
35.56
35.554
35.545
35.534
35.522
35.507
35.491
35.473
35.454
35.433
35.412
35.39
35.368
35.345
35.323
35.302
35.281
35.261
35.242
35.223
35.205
35.187
35.17
35.153
35.136
35.119
35.103
35.086
35.07
35.055
35.041
35.028
35.016
35.004
34.994
34.985
34.976
34.968
34.96
34.953
34.946
34.939
34.932
34.926
34.92
34.915
34.909
34.904
34.899
34.894
34.888
34.883
34.877
34.87
34.864
34.857
34.85
34.843
34.837
34.831
34.826
34.822
34.82
34.818
34.818
34.818
34.818
34.818
34.817
34.817
34.816
34.814
34.812
34.81
34.807
34.803
34.798
34.793
34.786
34.779
34.772
34.765
34.759
34.753
34.747
34.742
34.738
34.734
34.73
34.726
34.722
34.719
34.715
34.712
34.708
34.704
34.7
34.694
34.688
34.681
34.673
34.664
34.655
34.645
34.636
34.626
34.617
34.609
34.601
34.595
34.591
34.588
34.59
34.595
34.606
34.624
34.652
34.691
34.742
34.806
34.884
34.975
35.079
35.194
35.317
35.447
35.581
35.715
35.847
35.973
36.092
36.202
36.299
36.384
36.454
36.509
36.549
36.574
36.584
36.58
36.563
36.534
36.495
36.446
36.389
36.327
36.26
36.191
36.121
36.05
35.982
35.916
35.854
35.796
35.743
35.696
35.655
35.618
35.586
35.559
35.534
35.513
35.494
35.476
35.459
35.443
35.426
35.41
35.392
35.373
35.352
35.33
35.306
35.28
35.253
35.226
35.201
35.176
35.154
35.135
35.119
35.106
35.097
35.091
35.089
35.09
35.094
35.102
35.113
35.126
35.142
35.159
35.179
35.2
35.223
35.247
35.273
35.299
35.325
35.351
35.376
35.399
35.42
35.438
35.452
35.463
35.47
35.474
35.474
35.471
35.464
35.454
35.442
35.428
35.412
35.393
35.373
35.35
35.326
35.3
35.274
35.248
35.221
35.195
35.171
35.147
35.126
35.105
35.086
35.067
35.05
35.033
35.017
35.002
34.988
34.974
34.961
34.948
34.935
34.922
34.91
34.897
34.885
34.873
34.862
34.852
34.844
34.836
34.828
34.822
34.817
34.812
34.807
34.802
34.798
34.793
34.789
34.784
34.78
34.776
34.771
34.767
34.763
34.759
34.755
34.752
34.748
34.745
34.743
34.74
34.737
34.734
34.732
34.729
34.725
34.722
34.718
34.715
34.711
34.707
34.703
34.699
34.695
34.691
34.686
34.682
34.678
34.675
34.671
34.667
34.663
34.661
34.658
34.657
34.656
34.655
34.655
34.654
34.653
34.652
34.651
34.649
34.647
34.645
34.642
34.639
34.634
34.629
34.623
34.616
34.608
34.601
34.594
34.587
34.583
34.581
34.582
34.589
34.603
34.626
34.658
34.703
34.76
34.83
34.912
35.007
35.113
35.228
35.35
35.477
35.605
35.732
35.855
35.971
36.078
36.174
36.256
36.325
36.379
36.418
36.442
36.453
36.45
36.435
36.409
36.373
36.33
36.28
36.225
36.166
36.107
36.047
35.987
35.929
35.872
35.818
35.766
35.717
35.671
35.629
35.59
35.555
35.524
35.497
35.473
35.453
35.434
35.417
35.401
35.385
35.371
35.356
35.339
35.321
35.3
35.277
35.252
35.225
35.197
35.168
35.14
35.112
35.086
35.064
35.045
35.03
35.019
35.013
35.012
35.017
35.028
35.043
35.062
35.084
35.109
35.136
35.164
35.192
35.22
35.247
35.272
35.295
35.317
35.335
35.352
35.365
35.376
35.384
35.388
35.39
35.387
35.381
35.373
35.361
35.347
35.331
35.314
35.295
35.276
35.257
35.238
35.219
35.201
35.183
35.165
35.148
35.131
35.113
35.096
35.079
35.061
35.044
35.026
35.009
34.992
34.976
34.961
34.947
34.933
34.921
34.909
34.898
34.888
34.878
34.869
34.861
34.852
34.844
34.837
34.829
34.822
34.814
34.808
34.801
34.794
34.787
34.781
34.776
34.771
34.767
34.762
34.757
34.752
34.746
34.74
34.733
34.726
34.72
34.714
34.709
34.705
34.702
34.699
34.697
34.694
34.692
34.689
34.687
34.685
34.682
34.679
34.676
34.673
34.67
34.667
34.664
34.661
34.658
34.656
34.653
34.65
34.647
34.643
34.639
34.636
34.632
34.629
34.626
34.624
34.623
34.622
34.622
34.621
34.62
34.617
34.614
34.61
34.606
34.6
34.595
34.589
34.584
34.58
34.575
34.57
34.566
34.561
34.557
34.555
34.554
34.555
34.559
34.566
34.579
34.599
34.629
34.67
34.725
34.793
34.875
34.97
35.078
35.197
35.324
35.458
35.595
35.732
35.867
35.997
36.12
36.232
36.331
36.417
36.486
36.539
36.577
36.598
36.604
36.596
36.574
36.542
36.499
36.448
36.392
36.33
36.265
36.199
36.133
36.068
36.005
35.946
35.89
35.839
35.792
35.751
35.714
35.683
35.655
35.631
35.609
35.59
35.572
35.556
35.541
35.527
35.515
35.503
35.492
35.481
35.469
35.457
35.443
35.428
35.412
35.394
35.375
35.355
35.335
35.316
35.297
35.28
35.265
35.253
35.243
35.237
35.234
35.236
35.24
35.248
35.258
35.27
35.285
35.301
35.319
35.339
35.359
35.379
35.399
35.418
35.436
35.453
35.469
35.484
35.497
35.507
35.514
35.519
35.52
35.518
35.513
35.505
35.494
35.482
35.467
35.451
35.432
35.413
35.392
35.37
35.347
35.324
35.301
35.278
35.256
35.235
35.214
35.193
35.172
35.152
35.133
35.115
35.097
35.081
35.066
35.053
35.04
35.028
35.016
35.005
34.994
34.984
34.975
34.966
34.957
34.948
34.939
34.931
34.923
34.916
34.91
34.904
34.899
34.895
34.892
34.889
34.886
34.883
34.879
34.875
34.87
34.865
34.861
34.856
34.852
34.847
34.843
34.838
34.833
34.829
34.824
34.82
34.816
34.812
34.809
34.806
34.803
34.802
34.8
34.799
34.798
34.798
34.798
34.798
34.796
34.794
34.791
34.789
34.785
34.782
34.779
34.776
34.772
34.769
34.764
34.759
34.753
34.747
34.741
34.735
34.729
34.723
34.717
34.711
34.705
34.699
34.694
34.688
34.682
34.677
34.673
34.669
34.666
34.665
34.667
34.672
34.684
34.703
34.73
34.767
34.816
34.877
34.951
35.037
35.136
35.244
35.361
35.484
35.611
35.74
35.867
35.99
36.106
36.212
36.307
36.388
36.454
36.504
36.54
36.56
36.566
36.56
36.542
36.514
36.475
36.429
36.377
36.32
36.26
36.2
36.139
36.08
36.023
35.969
35.919
35.873
35.831
35.793
35.758
35.727
35.698
35.672
35.647
35.623
35.601
35.581
35.562
35.544
35.528
35.514
35.499
35.485
35.47
35.454
35.437
35.419
35.399
35.378
35.357
35.335
35.314
35.294
35.275
35.257
35.243
35.231
35.222
35.216
35.214
35.216
35.22
35.228
35.239
35.252
35.268
35.286
35.307
35.33
35.354
35.378
35.402
35.425
35.445
35.463
35.478
35.489
35.498
35.503
35.506
35.506
35.504
35.5
35.493
35.483
35.471
35.456
35.439
35.421
35.401
35.381
35.359
35.337
35.315
35.293
35.271
35.249
35.229
35.209
35.19
35.171
35.153
35.135
35.117
35.099
35.082
35.065
35.049
35.033
35.018
35.003
34.989
34.975
34.961
34.948
34.936
34.925
34.914
34.904
34.895
34.887
34.879
34.872
34.865
34.86
34.856
34.853
34.85
34.849
34.849
34.85
34.852
34.855
34.856
34.858
34.859
34.859
34.859
34.858
34.857
34.855
34.852
34.849
34.846
34.842
34.837
34.832
34.829
34.826
34.824
34.823
34.823
34.824
34.826
34.828
34.83
34.83
34.83
34.828
34.825
34.82
34.813
34.806
34.798
34.789
34.78
34.771
34.763
34.756
34.749
34.743
34.738
34.733
34.728
34.724
34.721
34.717
34.714
34.71
34.706
34.702
34.697
34.693
34.688
34.684
34.681
34.682
34.689
34.703
34.727
34.761
34.809
34.871
34.947
35.037
35.14
35.254
35.375
35.502
35.632
35.762
35.889
36.009
36.121
36.222
36.311
36.385
36.445
36.49
36.519
36.533
36.533
36.519
36.492
36.455
36.409
36.356
36.299
36.24
36.18
36.12
36.062
36.006
35.951
35.9
35.852
35.807
35.764
35.726
35.69
35.658
35.629
35.603
35.581
35.561
35.545
35.531
35.518
35.507
35.495
35.483
35.469
35.454
35.437
35.418
35.397
35.375
35.352
35.33
35.307
35.286
35.266
35.247
35.231
35.217
35.206
35.199
35.197
35.198
35.204
35.214
35.227
35.244
35.263
35.284
35.307
35.33
35.354
35.378
35.402
35.426
35.449
35.471
35.491
35.509
35.525
35.538
35.548
35.554
35.556
35.554
35.548
35.538
35.526
35.511
35.495
35.478
35.459
35.44
35.42
35.4
35.38
35.359
35.339
35.319
35.3
35.281
35.262
35.244
35.226
35.209
35.192
35.175
35.16
35.144
35.13
35.117
35.104
35.093
35.083
35.073
35.064
35.055
35.047
35.039
35.031
35.024
35.017
35.01
35.004
34.998
34.992
34.986
34.98
34.974
34.968
34.961
34.955
34.947
34.939
34.931
34.922
34.913
34.905
34.897
34.891
34.886
34.882
34.881
34.88
34.879
34.88
34.88
34.88
34.88
34.88
34.879
34.877
34.875
34.873
34.869
34.865
34.861
34.857
34.853
34.849
34.847
34.845
34.843
34.841
34.84
34.838
34.836
34.833
34.83
34.825
34.82
34.815
34.809
34.802
34.794
34.786
34.778
34.77
34.764
34.758
34.754
34.751
34.749
34.751
34.756
34.768
34.787
34.815
34.854
34.906
34.97
35.048
35.14
35.243
35.356
35.477
35.604
35.733
35.861
35.986
36.105
36.215
36.314
36.401
36.474
36.533
36.578
36.608
36.624
36.627
36.618
36.598
36.568
36.53
36.485
36.436
36.384
36.33
36.275
36.222
36.169
36.119
36.071
36.026
35.984
35.945
35.91
35.877
35.847
35.82
35.796
35.773
35.753
35.734
35.717
35.701
35.686
35.671
35.657
35.642
35.626
35.61
35.592
35.572
35.552
35.53
35.509
35.488
35.467
35.447
35.429
35.413
35.399
35.388
35.379
35.372
35.369
35.37
35.375
35.383
35.394
35.407
35.422
35.439
35.457
35.476
35.495
35.515
35.533
35.551
35.567
35.582
35.594
35.604
35.613
35.62
35.625
35.628
35.629
35.627
35.624
35.618
35.609
35.597
35.583
35.568
35.551
35.531
35.511
35.489
35.467
35.443
35.418
35.392
35.367
35.342
35.318
35.295
35.273
35.253
35.235
35.218
35.204
35.192
35.182
35.175
35.168
35.163
35.157
35.152
35.145
35.137
35.129
35.119
35.109
35.099
35.089
35.079
35.071
35.063
35.056
35.05
35.045
35.04
35.036
35.031
35.027
35.023
35.019
35.014
35.009
35.004
34.998
34.992
34.987
34.981
34.976
34.971
34.967
34.964
34.96
34.957
34.954
34.952
34.95
34.947
34.945
34.943
34.941
34.94
34.938
34.936
34.933
34.929
34.924
34.919
34.913
34.907
34.901
34.894
34.888
34.883
34.879
34.875
34.872
34.871
34.87
34.87
34.869
34.868
34.866
34.862
34.858
34.853
34.849
34.846
34.845
34.845
34.849
34.858
34.871
34.891
34.919
34.956
35.003
35.062
35.134
35.217
35.312
35.417
35.531
35.652
35.778
35.905
36.031
36.154
36.271
36.379
36.477
36.562
36.635
36.693
36.737
36.767
36.783
36.786
36.777
36.757
36.728
36.69
36.644
36.593
36.537
36.478
36.419
36.359
36.301
36.245
36.193
36.145
36.102
36.064
36.031
36.002
35.977
35.956
35.938
35.922
35.908
35.894
35.882
35.869
35.857
35.844
35.831
35.818
35.804
35.789
35.773
35.755
35.735
35.715
35.693
35.671
35.65
35.629
35.61
35.592
35.577
35.564
35.554
35.545
35.539
35.536
35.536
35.538
35.544
35.552
35.563
35.576
35.592
35.609
35.628
35.647
35.666
35.684
35.702
35.717
35.73
35.741
35.748
35.753
35.756
35.757
35.755
35.751
35.744
35.735
35.724
35.711
35.695
35.678
35.659
35.638
35.617
35.594
35.572
35.548
35.525
35.502
35.479
35.457
35.435
35.413
35.392
35.37
35.349
35.328
35.309
35.29
35.272
35.255
35.239
35.223
35.208
35.194
35.181
35.169
35.158
35.148
35.139
35.132
35.126
35.122
35.119
35.117
35.114
35.11
35.107
35.103
35.1
35.096
35.093
35.091
35.089
35.088
35.087
35.086
35.084
35.081
35.078
35.074
35.069
35.065
35.061
35.057
35.052
35.048
35.044
35.039
35.034
35.028
35.023
35.018
35.013
35.008
35.003
34.998
34.992
34.987
34.981
34.976
34.971
34.966
34.96
34.954
34.947
34.939
34.93
34.92
34.91
34.899
34.887
34.876
34.866
34.857
34.849
34.842
34.835
34.829
34.825
34.822
34.82
34.821
34.825
34.833
34.847
34.867
34.896
34.934
34.984
35.046
35.12
35.207
35.305
35.413
35.53
35.653
35.779
35.906
36.033
36.154
36.268
36.372
36.464
36.542
36.605
36.654
36.688
36.709
36.716
36.711
36.696
36.672
36.639
36.599
36.554
36.504
36.451
36.396
36.34
36.284
36.229
36.175
36.124
36.076
36.031
35.991
35.955
35.922
35.893
35.867
35.843
35.822
35.802
35.784
35.768
35.754
35.74
35.728
35.716
35.704
35.69
35.676
35.66
35.642
35.622
35.601
35.58
35.559
35.538
35.519
35.502
35.486
35.472
35.461
35.453
35.447
35.444
35.445
35.448
35.455
35.466
35.478
35.494
35.512
35.531
35.552
35.574
35.596
35.618
35.639
35.658
35.676
35.691
35.703
35.712
35.718
35.72
35.718
35.713
35.704
35.691
35.674
35.654
35.632
35.608
35.584
35.559
35.534
35.51
35.485
35.462
35.439
35.415
35.392
35.369
35.347
35.325
35.304
35.285
35.266
35.249
35.232
35.218
35.205
35.194
35.185
35.176
35.167
35.158
35.148
35.138
35.128
35.116
35.104
35.092
35.08
35.068
35.056
35.045
35.035
35.026
35.017
35.01
35.003
34.997
34.993
34.989
34.987
34.985
34.983
34.98
34.978
34.976
34.973
34.971
34.968
34.965
34.963
34.96
34.959
34.957
34.955
34.952
34.948
34.944
34.94
34.935
34.929
34.924
34.919
34.913
34.908
34.904
34.9
34.896
34.893
34.888
34.883
34.877
34.87
34.862
34.853
34.844
34.836
34.827
34.82
34.814
34.809
34.806
34.805
34.806
34.812
34.823
34.842
34.87
34.908
34.957
35.019
35.092
35.178
35.274
35.38
35.492
35.61
35.731
35.852
35.972
36.087
36.195
36.295
36.383
36.459
36.522
36.57
36.603
36.622
36.628
36.62
36.601
36.571
36.532
36.486
36.436
36.383
36.328
36.274
36.221
36.17
36.123
36.08
36.04
36.005
35.974
35.947
35.923
35.901
35.881
35.863
35.845
35.828
35.812
35.796
35.782
35.768
35.754
35.742
35.729
35.716
35.703
35.688
35.674
35.659
35.644
35.629
35.615
35.601
35.587
35.572
35.558
35.545
35.533
35.524
35.518
35.516
35.517
35.522
35.531
35.543
35.558
35.575
35.594
35.613
35.632
35.65
35.668
35.683
35.697
35.709
35.718
35.725
35.73
35.732
35.732
35.73
35.725
35.719
35.712
35.702
35.691
35.677
35.662
35.645
35.627
35.609
35.59
35.571
35.552
35.532
35.512
35.49
35.468
35.446
35.423
35.401
35.38
35.361
35.345
35.33
35.317
35.305
35.296
35.288
35.28
35.274
35.268
35.263
35.257
35.25
35.243
35.235
35.226
35.217
35.206
35.195
35.183
35.17
35.157
35.143
35.129
35.116
35.104
35.094
35.085
35.077
35.071
35.066
35.061
35.058
35.055
35.053
35.051
35.049
35.048
35.045
35.042
35.038
35.032
35.026
35.018
35.01
35.001
34.992
34.983
34.974
34.966
34.959
34.952
34.947
34.943
34.941
34.94
34.94
34.94
34.94
34.94
34.94
34.939
34.94
34.944
34.95
34.962
34.98
35.007
35.043
35.091
35.149
35.22
35.302
35.393
35.494
35.602
35.715
35.83
35.947
36.061
36.17
36.273
36.366
36.449
36.519
36.576
36.618
36.646
36.66
36.661
36.649
36.626
36.593
36.553
36.506
36.455
36.402
36.348
36.294
36.24
36.189
36.14
36.094
36.052
36.012
35.976
35.943
35.913
35.886
35.861
35.839
35.82
35.802
35.785
35.77
35.756
35.742
35.728
35.714
35.7
35.684
35.668
35.65
35.63
35.61
35.589
35.567
35.545
35.524
35.504
35.486
35.471
35.459
35.451
35.445
35.443
35.445
35.45
35.458
35.47
35.484
35.5
35.518
35.538
35.559
35.58
35.601
35.622
35.642
35.661
35.678
35.693
35.706
35.717
35.724
35.728
35.729
35.728
35.723
35.716
35.706
35.693
35.678
35.662
35.643
35.624
35.602
35.58
35.558
35.535
35.513
35.49
35.466
35.443
35.421
35.4
35.38
35.361
35.343
35.327
35.312
35.3
35.288
35.279
35.27
35.263
35.256
35.25
35.243
35.237
35.229
35.221
35.211
35.2
35.189
35.178
35.167
35.156
35.146
35.136
35.126
35.117
35.109
35.1
35.092
35.083
35.074
35.065
35.057
35.048
35.041
35.034
35.028
35.023
35.018
35.014
35.01
35.007
35.005
35.003
35.002
35.001
35.001
35.001
35.0
35.0
35.0
34.999
34.997
34.995
34.992
34.988
34.984
34.979
34.973
34.967
34.961
34.956
34.952
34.95
34.95
34.954
34.963
34.979
35.002
35.036
35.08
35.135
35.203
35.282
35.372
35.472
35.58
35.694
35.812
35.932
36.051
36.166
36.274
36.371
36.457
36.529
36.587
36.63
36.659
36.674
36.675
36.664
36.641
36.609
36.569
36.523
36.472
36.418
36.362
36.306
36.25
36.197
36.145
36.097
36.052
36.01
35.972
35.939
35.909
35.882
35.859
35.838
35.82
35.802
35.786
35.77
35.754
35.738
35.722
35.706
35.688
35.67
35.649
35.628
35.605
35.582
35.558
35.534
35.511
35.49
35.471
35.455
35.441
35.429
35.42
35.414
35.411
35.411
35.414
35.42
35.429
35.441
35.456
35.474
35.495
35.516
35.538
35.559
35.579
35.598
35.616
35.631
35.643
35.654
35.661
35.667
35.67
35.671
35.67
35.667
35.66
35.65
35.638
35.623
35.605
35.585
35.564
35.542
35.519
35.496
35.474
35.452
35.431
35.409
35.388
35.367
35.347
35.327
35.308
35.289
35.272
35.255
35.24
35.226
35.212
35.2
35.189
35.179
35.169
35.159
35.15
35.141
35.132
35.123
35.113
35.104
35.094
35.084
35.073
35.062
35.052
35.041
35.031
35.02
35.01
35.0
34.991
34.982
34.975
34.968
34.962
34.958
34.956
34.954
34.952
34.951
34.95
34.948
34.947
34.945
34.943
34.94
34.937
34.932
34.928
34.922
34.917
34.911
34.906
34.9
34.895
34.891
34.886
34.881
34.876
34.869
34.862
34.853
34.845
34.838
34.831
34.826
34.824
34.826
34.834
34.848
34.87
34.902
34.945
34.998
35.064
35.14
35.228
35.326
35.432
35.544
35.66
35.777
35.893
36.004
36.108
36.203
36.286
36.357
36.415
36.46
36.49
36.508
36.512
36.505
36.487
36.46
36.424
36.382
36.335
36.283
36.23
36.176
36.123
36.07
36.019
35.971
35.926
35.885
35.847
35.813
35.782
35.755
35.731
35.709
35.689
35.671
35.653
35.636
35.62
35.604
35.588
35.572
35.555
35.537
35.518
35.498
35.476
35.452
35.427
35.401
35.374
35.347
35.323
35.3
35.282
35.267
35.256
35.249
35.247
35.249
35.255
35.266
35.279
35.296
35.315
35.336
35.359
35.382
35.404
35.425
35.446
35.465
35.481
35.496
35.509
35.519
35.527
35.533
35.537
35.537
35.536
35.531
35.523
35.514
35.502
35.487
35.471
35.454
35.436
35.418
35.399
35.38
35.361
35.343
35.325
35.308
35.291
35.273
35.256
35.238
35.22
35.202
35.184
35.167
35.151
35.135
35.12
35.105
35.09
35.076
35.063
35.051
35.041
35.031
35.022
35.014
35.007
35.001
34.995
34.989
34.984
34.979
34.974
34.969
34.965
34.961
34.957
34.952
34.947
34.942
34.936
34.93
34.924
34.917
34.91
34.904
34.897
34.89
34.883
34.875
34.868
34.862
34.855
34.85
34.844
34.839
34.833
34.828
34.822
34.817
34.813
34.809
34.805
34.802
34.799
34.796
34.793
34.791
34.787
34.784
34.779
34.775
34.77
34.764
