Trial 3:3back
35.488
35.472
35.455
35.436
35.418
35.399
35.382
35.366
35.352
35.34
35.333
35.329
35.33
35.333
35.341
35.352
35.365
35.378
35.388
35.393
35.393
35.387
35.375
35.357
35.334
35.306
35.275
35.239
35.2
35.158
35.114
35.069
35.023
34.976
34.929
34.884
34.841
34.801
34.766
34.735
34.71
34.689
34.672
34.658
34.645
34.632
34.618
34.603
34.586
34.564
34.537
34.506
34.469
34.426
34.377
34.324
34.268
34.21
34.152
34.095
34.04
33.99
33.945
33.908
33.877
33.853
33.835
33.82
33.807
33.793
33.779
33.763
33.746
33.727
33.706
33.683
33.657
33.63
33.602
33.572
33.541
33.511
33.486
33.472
33.468
33.472
33.481
33.491
33.501
33.509
33.513
33.513
33.511
33.505
33.499
33.493
33.491
33.496
33.51
33.536
33.574
33.626
33.692
33.773
33.87
33.981
34.106
34.244
34.392
34.548
34.707
34.867
35.026
35.182
35.333
35.478
35.614
35.741
35.856
35.96
36.051
36.128
36.193
36.245
36.285
36.315
36.335
36.347
36.352
36.351
36.345
36.335
36.321
36.306
36.288
36.269
36.247
36.223
36.197
36.168
36.137
36.105
36.071
36.036
36.001
35.965
35.927
35.888
35.846
35.804
35.762
35.72
35.679
35.641
35.606
35.575
35.547
35.521
35.497
35.475
35.455
35.435
35.415
35.395
35.374
35.353
35.332
35.313
35.296
35.282
35.272
35.265
35.26
35.256
35.254
35.253
35.254
35.255
35.259
35.264
35.27
35.278
35.285
35.292
35.296
35.297
35.293
35.286
35.273
35.256
35.235
35.212
35.188
35.162
35.136
35.11
35.085
35.061
35.037
35.013
34.989
34.966
34.944
34.923
34.903
34.883
34.865
34.846
34.825
34.801
34.775
34.745
34.714
34.68
34.644
34.607
34.57
34.532
34.495
34.458
34.422
34.388
34.356
34.327
34.301
34.279
34.259
34.243
34.229
34.215
34.201
34.182
34.158
34.13
34.096
34.061
34.026
33.991
33.957
33.925
33.893
33.863
33.836
33.811
33.787
33.765
33.746
33.729
33.714
33.703
33.693
33.685
33.679
33.673
33.668
33.663
33.658
33.654
33.648
33.642
33.635
33.627
33.618
33.611
33.605
33.602
33.605
33.615
33.635
33.666
33.71
33.766
33.835
33.917
34.011
34.116
34.23
34.352
34.479
34.609
34.74
34.869
34.996
35.12
35.24
35.353
35.458
35.555
35.642
35.719
35.787
35.846
35.897
35.941
35.978
36.009
36.033
36.051
36.065
36.074
36.078
36.076
36.067
36.053
36.034
36.01
35.984
35.956
35.928
35.9
35.872
35.845
35.816
35.787
35.757
35.726
35.693
35.659
35.624
35.59
35.556
35.522
35.487
35.451
35.416
35.381
35.346
35.314
35.282
35.252
35.224
35.198
35.173
35.151
35.132
35.116
35.104
35.093
35.084
35.076
35.07
35.065
35.061
35.059
35.058
35.058
35.058
35.058
35.058
35.057
35.055
35.053
35.05
35.045
35.039
35.031
35.021
35.008
34.992
34.974
34.955
34.935
34.913
34.891
34.868
34.846
34.824
34.804
34.785
34.767
34.751
34.735
34.714
34.685
34.651
34.613
34.574
34.537
34.506
34.479
34.46
34.447
34.438
34.434
34.431
34.429
34.425
34.42
34.412
34.399
34.382
34.361
34.335
34.306
34.274
34.24
34.207
34.176
34.147
34.122
34.1
34.083
34.068
34.055
34.044
34.032
34.02
34.007
33.993
33.976
33.959
33.94
33.92
33.898
33.873
33.846
33.817
33.785
33.753
33.72
33.688
33.659
33.632
33.608
33.588
33.572
33.56
33.552
33.55
33.552
33.559
33.571
33.591
33.617
33.65
33.691
33.74
33.798
33.867
33.944
34.032
34.131
34.24
34.359
34.487
34.623
34.763
34.908
35.052
35.192
35.327
35.454
35.573
35.683
35.782
35.869
35.945
36.011
36.066
36.111
36.146
36.172
36.189
36.199
36.203
36.202
36.196
36.186
36.176
36.165
36.154
36.143
36.131
36.12
36.108
36.096
36.084
36.072
36.058
36.044
36.028
36.01
35.99
35.969
35.945
35.919
35.89
35.856
35.818
35.775
35.73
35.683
35.634
35.586
35.54
35.497
35.459
35.426
35.399
35.377
35.361
35.35
35.346
35.347
35.353
35.363
35.376
35.391
35.406
35.421
35.435
35.448
35.458
35.465
35.469
35.47
35.467
35.46
35.451
35.441
35.428
35.414
35.398
35.381
35.362
35.342
35.323
35.303
35.285
35.267
35.251
35.235
35.219
35.203
35.186
35.168
35.149
35.128
35.105
35.08
35.055
35.029
35.001
34.973
34.942
34.91
34.876
34.84
34.803
34.764
34.726
34.69
34.655
34.622
34.591
34.56
34.531
34.502
34.473
34.445
34.418
34.394
34.373
34.352
34.332
34.313
34.293
34.273
34.252
34.232
34.213
34.194
34.176
34.158
34.14
34.121
34.101
34.081
34.06
34.038
34.017
33.995
33.972
33.949
33.925
33.902
33.882
33.866
33.857
33.854
33.859
33.873
33.896
33.931
33.976
34.032
34.101
34.182
34.274
34.376
34.486
34.606
34.734
34.87
35.011
35.156
35.305
35.457
35.609
35.76
35.908
36.051
36.189
36.319
36.44
36.551
36.652
36.741
36.82
36.887
36.944
36.991
37.029
37.058
37.077
37.089
37.093
37.091
37.084
37.074
37.06
37.045
37.029
37.011
36.993
36.973
36.951
36.927
36.901
36.872
36.841
36.806
36.77
36.73
36.689
36.645
36.599
36.553
36.508
36.463
36.42
36.379
36.342
36.309
36.28
36.257
36.238
36.225
36.216
36.212
36.212
36.215
36.22
36.226
36.233
36.239
36.241
36.237
36.228
36.214
36.196
36.175
36.151
36.126
36.1
36.074
36.049
36.026
36.004
35.985
35.969
35.956
35.947
35.941
35.939
35.939
35.94
35.94
35.94
35.937
35.931
35.92
35.903
35.881
35.854
35.822
35.785
35.744
35.7
35.653
35.603
35.553
35.503
35.454
35.407
35.362
35.321
35.282
35.248
35.217
35.19
35.166
35.145
35.127
35.111
35.096
35.082
35.066
35.048
35.028
35.005
34.98
34.953
34.923
34.891
34.858
34.825
34.792
34.76
34.731
34.706
34.683
34.662
34.641
34.62
34.596
34.571
34.543
34.512
34.479
34.444
34.407
34.369
34.332
34.295
34.262
34.233
34.211
34.195
34.187
34.186
34.194
34.21
34.234
34.267
34.308
34.359
34.419
34.488
34.565
34.653
34.75
34.858
34.976
35.104
35.239
35.381
35.528
35.678
35.83
35.983
36.138
36.292
36.445
36.595
36.739
36.876
37.004
37.122
37.228
37.322
37.403
37.472
37.528
37.569
37.597
37.611
37.615
37.61
37.597
37.578
37.554
37.525
37.492
37.455
37.415
37.373
37.333
37.293
37.256
37.22
37.186
37.155
37.125
37.096
37.068
37.04
37.012
36.983
36.954
36.923
36.89
36.855
36.82
36.783
36.745
36.707
36.67
36.634
36.601
36.571
36.544
36.521
36.504
36.493
36.487
36.486
36.489
36.494
36.5
36.505
36.508
36.508
36.505
36.499
36.49
36.477
36.462
36.443
36.424
36.403
36.381
36.359
36.337
36.316
36.296
36.277
36.26
36.245
36.232
36.221
36.211
36.201
36.19
36.178
36.163
36.144
36.121
36.092
36.059
36.022
35.979
35.931
35.88
35.825
35.77
35.715
35.661
35.61
35.563
35.52
35.481
35.447
35.416
35.389
35.366
35.345
35.326
35.307
35.287
35.267
35.245
35.222
35.194
35.163
35.128
35.09
35.05
35.01
34.971
34.935
34.904
34.877
34.854
34.835
34.819
34.807
34.796
34.786
34.775
34.762
34.747
34.73
34.71
34.687
34.664
34.641
34.617
34.594
34.571
34.549
34.53
34.513
34.5
34.492
34.493
34.503
34.524
34.557
34.603
34.662
34.734
34.82
34.92
35.034
35.161
35.301
35.453
35.615
35.784
35.959
36.138
36.321
36.503
36.684
36.861
37.034
37.202
37.365
37.523
37.677
37.828
37.975
38.119
38.256
38.385
38.504
38.61
38.7
38.773
38.827
38.862
38.878
38.874
38.852
38.813
38.76
38.696
38.625
38.548
38.469
38.389
38.31
38.231
38.154
38.077
38.002
37.929
37.859
37.792
37.727
37.663
37.6
37.537
37.474
37.409
37.343
37.277
37.21
37.144
37.078
37.011
36.945
36.879
36.816
36.755
36.698
36.646
36.598
36.554
36.513
36.475
36.439
36.405
36.374
36.346
36.32
36.296
36.274
36.253
36.233
36.212
36.19
36.168
36.147
36.126
36.107
36.088
36.07
36.052
36.033
36.013
35.991
35.968
35.944
35.918
35.89
35.859
35.825
35.786
35.746
35.702
35.658
35.612
35.564
35.508
35.443
35.369
35.291
35.212
35.136
35.067
35.006
34.955
34.914
34.882
34.86
34.847
34.84
34.839
34.842
34.847
34.853
34.856
34.858
34.856
34.853
34.845
34.833
34.818
34.799
34.777
34.75
34.721
34.689
34.655
34.622
34.588
34.554
34.521
34.488
34.458
34.429
34.403
34.378
34.356
34.335
34.316
34.296
34.274
34.252
34.228
34.202
34.174
34.142
34.108
34.072
34.034
33.997
33.961
33.928
33.901
33.882
33.871
33.871
33.882
33.908
33.949
34.006
34.078
34.167
34.271
34.39
34.522
34.666
34.82
34.985
35.158
35.339
35.526
35.718
35.915
36.114
36.315
36.516
36.717
36.917
37.114
37.305
37.488
37.661
37.82
37.964
38.092
38.202
38.293
38.364
38.416
38.45
38.465
38.462
38.444
38.411
38.365
38.307
38.24
38.165
38.084
38.0
37.915
37.83
37.746
37.665
37.586
37.509
37.434
37.362
37.293
37.227
37.166
37.109
37.055
37.004
36.956
36.91
36.865
36.822
36.78
36.74
36.702
36.665
36.631
36.598
36.568
36.542
36.518
36.496
36.477
36.459
36.442
36.426
36.409
36.393
36.377
36.362
36.348
36.334
36.32
36.305
36.289
36.271
36.252
36.231
36.211
36.191
36.174
36.158
36.142
36.124
36.105
36.084
36.059
36.032
36.001
35.967
35.929
35.888
35.843
35.796
35.749
35.701
35.653
35.605
35.557
35.508
35.457
35.406
35.355
35.305
35.256
35.21
35.166
35.124
35.083
35.042
35.001
34.961
34.921
34.881
34.842
34.804
34.766
34.728
34.691
34.653
34.617
34.582
34.548
34.515
34.483
34.452
34.422
34.395
34.368
34.344
34.32
34.298
34.277
34.254
34.229
34.203
34.176
34.148
34.118
34.087
34.055
34.022
33.989
33.956
33.923
33.893
33.864
33.838
33.814
33.792
33.771
33.75
33.728
33.708
33.689
33.674
33.666
33.664
33.672
33.691
33.722
33.768
33.829
33.907
34.0
34.11
34.237
34.38
34.539
34.714
34.903
35.105
35.318
35.54
35.767
35.998
36.23
36.461
36.689
36.911
37.124
37.327
37.515
37.687
37.84
37.972
38.081
38.167
38.23
38.272
38.292
38.293
38.277
38.246
38.203
38.148
38.086
38.018
37.947
37.874
37.8
37.726
37.653
37.582
37.513
37.447
37.382
37.321
37.264
37.21
37.16
37.112
37.068
37.026
36.986
36.947
36.907
36.868
36.827
36.785
36.741
36.697
36.652
36.615
36.597
36.597
36.614
36.64
36.673
36.706
36.733
36.75
36.754
36.744
36.721
36.687
36.642
36.589
36.531
36.47
36.409
36.348
36.291
36.237
36.188
36.145
36.108
36.075
36.047
36.021
35.996
35.971
35.944
35.915
35.885
35.852
35.817
35.78
35.74
35.701
35.661
35.622
35.584
35.547
35.511
35.475
35.441
35.406
35.372
35.339
35.306
35.274
35.241
35.207
35.172
35.134
35.095
35.053
35.008
34.963
34.919
34.875
34.833
34.791
34.749
34.709
34.67
34.632
34.595
34.558
34.522
34.486
34.449
34.41
34.368
34.324
34.277
34.228
34.179
34.129
34.081
34.035
33.992
33.952
33.917
33.886
33.86
33.837
33.815
33.794
33.772
33.751
33.73
33.709
33.687
33.666
33.644
33.621
33.597
33.573
33.549
33.527
33.508
33.493
33.484
33.482
33.49
33.507
33.536
33.577
33.63
33.696
33.775
33.866
33.97
34.087
34.217
34.36
34.514
34.676
34.845
35.018
35.195
35.372
35.549
35.724
35.895
36.062
36.22
36.369
36.506
36.63
36.742
36.841
36.926
37.0
37.061
37.11
37.148
37.176
37.194
37.205
37.209
37.207
37.201
37.191
37.178
37.163
37.146
37.126
37.103
37.077
37.049
37.02
36.988
36.953
36.916
36.876
36.833
36.789
36.743
36.697
36.652
36.609
36.568
36.529
36.493
36.458
36.424
36.392
36.362
36.332
36.303
36.277
36.251
36.227
36.204
36.183
36.163
36.145
36.127
36.11
36.094
36.079
36.065
36.052
36.041
36.03
36.021
36.014
36.008
36.004
35.999
35.994
35.988
35.981
35.972
35.961
35.947
35.93
35.91
35.886
35.856
35.822
35.784
35.741
35.693
35.642
35.589
35.535
35.482
35.43
35.38
35.332
35.288
35.248
35.212
35.18
35.153
35.129
35.11
35.093
35.077
35.061
35.045
35.028
35.006
34.98
34.948
34.911
34.869
34.823
34.775
34.725
34.675
34.627
34.581
34.537
34.496
34.46
34.428
34.402
34.381
34.365
34.354
34.346
34.34
34.334
34.328
34.319
34.308
34.292
34.273
34.249
34.22
34.188
34.152
34.114
34.075
34.036
34.0
33.966
33.935
33.908
33.885
33.866
33.852
33.843
33.838
33.839
33.845
33.857
33.876
33.902
33.937
33.983
34.042
34.116
34.206
34.314
34.441
34.586
34.751
34.935
35.137
35.358
35.595
35.848
36.113
36.387
36.67
36.965
37.27
37.579
37.885
38.179
38.454
38.702
38.917
39.095
39.233
39.331
39.392
39.419
39.416
39.386
39.336
39.268
39.189
39.101
39.009
38.916
38.828
38.745
38.669
38.598
38.534
38.476
38.422
38.371
38.322
38.274
38.225
38.176
38.126
38.075
38.023
37.97
37.917
37.864
37.812
37.761
37.711
37.661
37.613
37.565
37.516
37.468
37.42
37.372
37.326
37.282
37.241
37.203
37.17
37.141
37.116
37.095
37.081
37.071
37.066
37.064
37.065
37.066
37.066
37.065
37.062
37.055
37.045
37.031
37.013
36.99
36.963
36.932
36.897
36.859
36.816
36.771
36.723
36.674
36.624
36.572
36.521
36.47
36.422
36.375
36.332
36.29
36.25
36.211
36.172
36.135
36.097
36.058
36.02
35.983
35.946
35.91
35.873
35.835
35.797
35.757
35.717
35.675
35.631
35.586
35.54
35.493
35.444
35.395
35.346
35.297
35.248
35.199
35.15
35.103
35.056
35.011
34.967
34.925
34.888
34.854
34.824
34.797
34.774
34.754
34.736
34.721
34.705
34.689
34.672
34.651
34.628
34.601
34.57
34.535
34.498
34.459
34.417
34.374
34.331
34.291
34.255
34.224
34.202
34.19
34.19
34.204
34.231
34.272
34.327
34.397
34.483
34.589
34.715
34.864
35.035
35.229
35.443
35.677
35.931
36.203
36.491
36.792
37.102
37.416
37.729
38.035
38.33
38.608
38.864
39.094
39.296
39.47
39.614
39.73
39.82
39.886
39.929
39.952
39.956
39.943
39.915
39.876
39.827
39.77
39.707
39.641
39.573
39.505
39.436
39.368
39.301
39.235
39.171
39.108
39.048
38.987
38.928
38.867
38.806
38.741
38.675
38.606
38.535
38.464
38.392
38.32
38.248
38.178
38.109
38.044
37.983
37.927
37.878
37.834
37.795
37.761
37.731
37.706
37.684
37.666
37.651
37.638
37.626
37.616
37.605
37.592
37.576
37.558
37.537
37.513
37.486
37.456
37.422
37.386
37.347
37.306
37.264
37.223
37.183
37.144
37.109
37.075
37.044
37.014
36.983
36.952
36.918
36.882
36.843
36.799
36.75
36.696
36.637
36.573
36.507
36.439
36.369
36.299
36.229
36.16
36.091
36.024
35.96
35.9
35.847
35.799
35.755
35.715
35.676
35.638
35.601
35.562
35.522
35.48
35.438
35.393
35.346
35.296
35.244
35.191
35.139
35.087
35.036
34.987
34.939
34.892
34.845
34.799
34.752
34.706
34.662
34.618
34.574
34.53
34.486
34.444
34.404
34.366
34.331
34.3
34.271
34.244
34.216
34.189
34.162
34.135
34.109
34.083
34.059
34.038
34.021
34.011
34.008
34.016
34.036
34.072
34.126
34.199
34.293
34.41
34.553
34.725
34.926
35.159
35.424
35.721
36.047
36.398
36.767
37.149
37.538
37.925
38.304
38.668
39.009
39.322
39.603
39.847
40.053
40.219
40.346
40.435
40.488
40.509
40.501
40.467
40.411
40.339
40.253
40.158
40.057
39.956
39.856
39.76
39.668
39.581
39.5
39.423
39.35
39.28
39.211
39.144
39.079
39.017
38.956
38.897
38.842
38.79
38.741
38.694
38.646
38.598
38.547
38.494
38.439
38.383
38.327
38.27
38.214
38.159
38.106
38.056
38.008
37.965
37.925
37.888
37.853
37.82
37.789
37.758
37.727
37.697
37.667
37.64
37.616
37.593
37.573
37.555
37.538
37.521
37.504
37.486
37.467
37.448
37.429
37.408
37.386
37.362
37.336
37.307
37.274
37.237
37.196
37.15
37.099
37.043
36.983
36.92
36.854
36.787
36.719
36.651
36.582
36.512
36.441
36.369
36.297
36.224
36.154
36.086
36.021
35.959
35.899
35.839
35.781
35.724
35.668
35.612
35.556
35.5
35.443
35.385
35.326
35.268
35.21
35.155
35.102
35.05
35.0
34.953
34.907
34.865
34.824
34.786
34.75
34.717
34.685
34.651
34.616
34.578
34.538
34.495
34.451
34.406
34.359
34.312
34.264
34.213
34.161
34.108
34.054
34.003
33.953
33.907
33.865
33.826
33.794
33.767
33.746
33.734
33.731
33.737
33.755
33.787
33.834
33.899
33.986
34.096
34.233
34.4
34.602
34.842
35.122
35.441
35.798
36.192
36.616
37.063
37.525
37.992
38.454
38.903
39.328
39.723
40.079
40.393
40.662
40.884
41.057
41.181
41.259
41.295
41.294
41.262
41.202
41.122
41.026
40.919
40.806
40.687
40.567
40.447
40.328
40.213
40.1
39.991
39.886
39.785
39.689
39.595
39.504
39.415
39.325
39.235
39.144
39.05
38.952
38.851
38.747
38.64
38.531
38.423
38.316
38.213
38.115
38.022
37.934
37.851
37.775
37.706
37.644
37.59
37.543
37.506
37.476
37.454
37.438
37.429
37.423
37.421
37.419
37.417
37.411
37.402
37.389
37.371
37.347
37.318
37.284
37.245
37.203
37.156
37.106
37.053
36.999
36.945
36.891
36.84
36.79
36.745
36.703
36.665
36.629
36.592
36.554
36.513
36.469
36.421
36.369
36.313
36.254
36.191
36.125
36.056
35.984
35.91
35.834
35.757
35.678
35.6
35.524
35.451
35.38
35.311
35.245
35.182
35.12
35.061
35.003
34.947
34.892
34.837
34.783
34.727
34.67
34.611
34.551
34.489
34.425
34.358
34.29
34.221
34.151
34.082
34.015
33.951
33.891
33.835
33.78
33.729
33.681
33.634
33.588
33.543
33.498
33.453
33.407
33.361
33.313
33.265
33.217
33.171
33.126
33.082
33.041
33.002
32.967
32.938
32.915
32.902
32.9
32.912
32.94
32.984
33.048
33.133
33.242
33.376
33.538
33.727
33.948
34.2
34.485
34.802
35.148
35.519
35.91
36.313
36.722
37.127
37.52
37.894
38.244
38.563
38.846
39.09
39.294
39.457
39.579
39.661
39.707
39.721
39.708
39.672
39.616
39.544
39.459
39.365
39.265
39.162
39.058
38.956
38.858
38.765
38.677
38.594
38.514
38.437
38.36
38.284
38.207
38.127
38.047
37.965
37.881
37.795
37.706
37.616
37.525
37.435
37.346
37.26
37.176
37.095
37.018
36.944
36.875
36.811
36.754
36.704
36.66
36.623
36.59
36.561
36.537
36.516
36.496
36.477
36.458
36.44
36.422
36.404
36.388
36.372
36.358
36.346
36.334
36.323
36.312
36.3
36.287
36.27
36.248
36.222
36.192
36.157
36.118
36.074
36.027
35.975
35.919
35.861
35.8
35.737
35.674
35.61
35.547
35.484
35.422
35.361
35.301
35.241
35.181
35.121
35.061
35.003
34.944
34.884
34.823
34.761
34.698
34.635
34.571
34.508
34.445
34.386
34.329
34.275
34.224
34.178
34.134
34.093
34.053
34.013
33.971
33.929
33.885
33.839
33.791
33.741
33.688
33.633
33.577
33.519
33.46
33.402
33.347
33.294
33.245
33.2
33.161
33.126
33.093
33.062
33.031
32.999
32.965
32.928
32.888
32.847
32.805
32.763
32.723
32.686
32.654
32.63
32.616
32.611
32.619
32.641
32.678
32.732
32.804
32.895
33.005
33.138
33.297
33.482
33.698
33.945
34.224
34.535
34.875
35.238
35.619
36.011
36.408
36.802
37.184
37.549
37.89
38.203
38.483
38.726
38.932
39.098
39.224
39.313
39.366
39.385
39.374
39.337
39.278
39.2
39.107
39.005
38.897
38.786
38.674
38.562
38.451
38.342
38.235
38.129
38.024
37.921
37.818
37.717
37.62
37.525
37.434
37.347
37.263
37.181
37.102
37.024
36.948
36.872
36.797
36.722
36.647
36.572
36.498
36.427
36.359
36.293
36.23
36.172
36.118
36.069
36.025
35.986
35.953
35.926
35.905
35.888
35.873
35.86
35.849
35.84
35.831
35.822
35.813
35.804
35.794
35.783
35.769
35.752
35.732
35.709
35.683
35.652
35.618
35.58
35.539
35.494
35.446
35.396
35.343
35.287
35.23
35.171
35.112
35.053
34.995
34.939
34.883
34.83
34.776
34.723
34.669
34.614
34.557
34.499
34.442
34.385
34.327
34.27
34.212
34.155
34.098
34.041
33.986
33.932
33.88
33.831
33.784
33.737
33.693
33.649
33.607
33.565
33.523
