Trial 3:3back
34.406
34.429
34.468
34.522
34.592
34.678
34.779
34.894
35.021
35.158
35.304
35.458
35.617
35.78
35.944
36.107
36.267
36.422
36.568
36.706
36.833
36.948
37.049
37.136
37.209
37.267
37.311
37.341
37.357
37.361
37.353
37.335
37.308
37.275
37.237
37.195
37.151
37.107
37.063
37.022
36.982
36.945
36.911
36.879
36.85
36.824
36.801
36.781
36.761
36.74
36.719
36.697
36.674
36.649
36.624
36.598
36.57
36.542
36.512
36.481
36.45
36.419
36.388
36.358
36.33
36.304
36.282
36.262
36.245
36.229
36.216
36.204
36.195
36.187
36.18
36.175
36.171
36.168
36.166
36.165
36.164
36.165
36.168
36.173
36.18
36.188
36.195
36.202
36.209
36.216
36.222
36.227
36.231
36.233
36.232
36.228
36.22
36.208
36.191
36.171
36.147
36.122
36.095
36.067
36.04
36.013
35.987
35.963
35.94
35.92
35.901
35.883
35.866
35.85
35.833
35.815
35.796
35.775
35.753
35.73
35.705
35.679
35.654
35.629
35.606
35.584
35.563
35.544
35.527
35.511
35.496
35.482
35.467
35.453
35.438
35.423
35.409
35.394
35.381
35.37
35.359
35.35
35.341
35.333
35.325
35.316
35.306
35.295
35.284
35.273
35.261
35.249
35.236
35.223
35.209
35.194
35.178
35.162
35.145
35.128
35.112
35.095
35.079
35.063
35.049
35.036
35.025
35.015
35.007
35.0
34.994
34.989
34.986
34.985
34.984
34.983
34.982
34.98
34.979
34.978
34.976
34.975
34.973
34.969
34.965
34.96
34.954
34.947
34.939
34.93
34.92
34.908
34.894
34.879
34.862
34.843
34.823
34.803
34.784
34.766
34.751
34.739
34.73
34.723
34.715
34.708
34.701
34.695
34.69
34.685
34.682
34.679
34.676
34.672
34.667
34.661
34.653
34.644
34.634
34.623
34.611
34.599
34.585
34.572
34.558
34.544
34.531
34.519
34.507
34.495
34.484
34.474
34.465
34.457
34.45
34.443
34.435
34.428
34.423
34.419
34.418
34.42
34.428
34.441
34.461
34.488
34.523
34.566
34.619
34.682
34.754
34.837
34.93
35.032
35.143
35.262
35.388
35.519
35.655
35.795
35.937
36.079
36.22
36.358
36.49
36.616
36.732
36.837
36.93
37.008
37.072
37.12
37.154
37.173
37.179
37.172
37.153
37.126
37.09
37.049
37.004
36.955
36.906
36.856
36.806
36.759
36.715
36.675
36.638
36.604
36.574
36.548
36.526
36.507
36.489
36.474
36.459
36.444
36.429
36.413
36.396
36.377
36.354
36.329
36.299
36.264
36.226
36.185
36.141
36.096
36.052
36.009
35.97
35.936
35.908
35.887
35.872
35.864
35.862
35.866
35.873
35.883
35.896
35.909
35.923
35.935
35.947
35.957
35.966
35.972
35.978
35.982
35.985
35.989
35.994
35.999
36.004
36.01
36.016
36.021
36.025
36.027
36.027
36.024
36.017
36.006
35.991
35.972
35.949
35.922
35.893
35.861
35.828
35.795
35.76
35.724
35.687
35.65
35.612
35.575
35.538
35.503
35.47
35.441
35.414
35.392
35.374
35.36
35.349
35.341
35.336
35.332
35.328
35.325
35.321
35.317
35.313
35.308
35.303
35.297
35.29
35.283
35.274
35.265
35.255
35.245
35.234
35.223
35.211
35.198
35.184
35.17
35.155
35.14
35.125
35.11
35.097
35.085
35.074
35.064
35.054
35.043
35.032
35.021
35.01
35.0
34.991
34.983
34.975
34.969
34.963
34.958
34.953
34.947
34.94
34.932
34.922
34.912
34.899
34.884
34.868
34.85
34.831
34.812
34.792
34.774
34.756
34.741
34.728
34.714
34.699
34.683
34.667
34.651
34.637
34.626
34.62
34.618
34.621
34.627
34.636
34.645
34.654
34.661
34.666
34.669
34.668
34.664
34.656
34.645
34.632
34.616
34.599
34.581
34.563
34.546
34.53
34.517
34.507
34.499
34.494
34.492
34.492
34.492
34.493
34.492
34.489
34.484
34.478
34.469
34.459
34.449
34.438
34.427
34.416
34.405
34.395
34.384
34.374
34.363
34.352
34.341
34.329
34.316
34.304
34.293
34.286
34.283
34.287
34.299
34.32
34.352
34.395
34.449
34.517
34.598
34.692
34.798
34.916
35.045
35.183
35.331
35.487
35.652
35.822
35.996
36.171
36.343
36.509
36.667
36.815
36.948
37.066
37.167
37.25
37.315
37.363
37.393
37.408
37.41
37.4
37.382
37.356
37.324
37.289
37.252
37.215
37.178
37.143
37.109
37.077
37.045
37.016
36.987
36.96
36.933
36.906
36.88
36.856
36.833
36.812
36.793
36.776
36.762
36.749
36.738
36.728
36.719
36.71
36.701
36.691
36.679
36.664
36.647
36.626
36.602
36.576
36.547
36.517
36.486
36.455
36.426
36.397
36.371
36.347
36.325
36.308
36.293
36.282
36.275
36.272
36.272
36.274
36.277
36.282
36.287
36.291
36.293
36.295
36.296
36.296
36.295
36.294
36.292
36.287
36.279
36.268
36.255
36.24
36.223
36.206
36.189
36.172
36.155
36.14
36.124
36.109
36.093
36.077
36.06
36.041
36.022
36.0
35.977
35.951
35.923
35.893
35.862
35.831
35.8
35.769
35.738
35.709
35.682
35.657
35.635
35.615
35.598
35.583
35.57
35.557
35.544
35.531
35.518
35.504
35.491
35.477
35.464
35.451
35.44
35.429
35.42
35.411
35.403
35.396
35.389
35.382
35.375
35.365
35.353
35.337
35.318
35.295
35.271
35.245
35.219
35.193
35.168
35.145
35.125
35.107
35.093
35.081
35.073
35.066
35.061
35.058
35.056
35.055
35.054
35.053
35.05
35.046
35.04
35.031
35.02
35.006
34.991
34.975
34.96
34.945
34.931
34.919
34.91
34.902
34.897
34.893
34.891
34.89
34.889
34.889
34.888
34.886
34.882
34.876
34.868
34.859
34.848
34.836
34.823
34.809
34.795
34.78
34.765
34.75
34.736
34.724
34.712
34.703
34.694
34.686
34.68
34.674
34.669
34.664
34.66
34.656
34.653
34.65
34.648
34.645
34.64
34.634
34.625
34.614
34.602
34.588
34.574
34.559
34.545
34.531
34.518
34.505
34.493
34.481
34.469
34.457
34.445
34.434
34.424
34.414
34.405
34.396
34.388
34.38
34.374
34.371
34.371
34.374
34.384
34.399
34.423
34.456
34.5
34.555
34.623
34.704
34.799
34.909
35.032
35.169
35.318
35.477
35.645
35.816
35.989
36.159
36.324
36.481
36.626
36.758
36.874
36.974
37.057
37.123
37.173
37.208
37.228
37.235
37.23
37.216
37.196
37.171
37.142
37.11
37.077
37.043
37.01
36.978
36.946
36.916
36.887
36.86
36.835
36.813
36.793
36.776
36.764
36.755
36.749
36.748
36.749
36.752
36.756
36.759
36.76
36.759
36.754
36.744
36.728
36.707
36.68
36.647
36.611
36.571
36.528
36.484
36.44
36.396
36.354
36.314
36.277
36.242
36.212
36.185
36.163
36.147
36.136
36.132
36.133
36.139
36.149
36.162
36.177
36.194
36.21
36.226
36.24
36.252
36.26
36.266
36.268
36.266
36.263
36.257
36.25
36.242
36.232
36.22
36.207
36.193
36.18
36.167
36.153
36.137
36.12
36.1
36.079
36.056
36.032
36.007
35.981
35.956
35.93
35.906
35.881
35.857
35.834
35.81
35.786
35.761
35.735
35.708
35.681
35.653
35.625
35.597
35.569
35.541
35.514
35.486
35.461
35.437
35.415
35.397
35.382
35.37
35.362
35.358
35.358
35.361
35.365
35.368
35.369
35.366
35.359
35.347
35.331
35.309
35.282
35.251
35.217
35.182
35.148
35.116
35.087
35.062
35.04
35.022
35.008
34.998
34.993
34.991
34.991
34.993
34.994
34.995
34.995
34.992
34.987
34.98
34.971
34.96
34.948
34.934
34.921
34.909
34.897
34.888
34.88
34.874
34.871
34.869
34.867
34.865
34.863
34.86
34.855
34.85
34.843
34.835
34.827
34.818
34.808
34.799
34.789
34.78
34.772
34.764
34.757
34.749
34.742
34.733
34.725
34.716
34.707
34.699
34.692
34.686
34.681
34.675
34.671
34.666
34.66
34.653
34.644
34.634
34.623
34.611
34.597
34.582
34.564
34.546
34.526
34.506
34.486
34.467
34.449
34.432
34.417
34.405
34.395
34.387
34.381
34.378
34.376
34.375
34.376
34.378
34.38
34.382
34.383
34.385
34.385
34.382
34.378
34.373
34.367
34.363
34.362
34.366
34.378
34.399
34.432
34.479
34.541
34.618
34.71
34.817
34.939
35.074
35.221
35.376
35.539
35.705
35.871
36.034
36.192
36.342
36.482
36.61
36.724
36.825
36.912
36.984
37.043
37.088
37.12
37.14
37.148
37.145
37.132
37.11
37.082
37.048
37.01
36.971
36.931
36.891
36.853
36.817
36.784
36.754
36.726
36.699
36.673
36.647
36.621
36.595
36.569
36.545
36.522
36.499
36.478
36.456
36.436
36.416
36.395
36.374
36.351
36.326
36.3
36.271
36.239
36.206
36.172
36.136
36.099
36.062
36.027
35.995
35.967
35.943
35.924
35.911
35.901
35.896
35.894
35.894
35.896
35.899
35.905
35.911
35.918
35.926
35.933
35.941
35.948
35.957
35.965
35.974
35.984
35.994
36.003
36.011
36.017
36.022
36.023
36.021
36.014
36.004
35.989
35.969
35.945
35.917
35.886
35.853
35.818
35.784
35.751
35.721
35.694
35.67
35.65
35.634
35.62
35.609
35.598
35.587
35.576
35.563
35.547
35.528
35.506
35.48
35.452
35.423
35.392
35.363
35.334
35.307
35.283
35.262
35.246
35.233
35.225
35.22
35.218
35.218
35.219
35.219
35.218
35.213
35.205
35.194
35.181
35.167
35.153
35.139
35.127
35.116
35.108
35.101
35.095
35.09
35.086
35.08
35.073
35.066
35.057
35.046
35.035
35.022
35.01
34.998
34.986
34.975
34.966
34.956
34.948
34.94
34.932
34.924
34.915
34.907
34.898
34.888
34.877
34.865
34.853
34.841
34.829
34.819
34.81
34.803
34.798
34.795
34.793
34.792
34.791
34.79
34.787
34.782
34.775
34.766
34.754
34.739
34.722
34.704
34.686
34.666
34.647
34.629
34.611
34.595
34.58
34.567
34.555
34.545
34.537
34.532
34.529
34.53
34.532
34.536
34.541
34.546
34.551
34.556
34.559
34.56
34.559
34.556
34.55
34.543
34.533
34.52
34.505
34.487
34.467
34.445
34.422
34.4
34.378
34.358
34.343
34.333
34.329
34.333
34.346
34.37
34.404
34.451
34.509
34.578
34.659
34.748
34.848
34.956
35.074
35.199
35.332
35.471
35.613
35.758
35.903
36.05
36.2
36.35
36.496
36.635
36.764
36.879
36.979
37.061
37.125
37.171
37.199
37.211
37.209
37.195
37.171
37.14
37.102
37.059
37.014
36.968
36.92
36.874
36.829
36.786
36.746
36.71
36.678
36.65
36.625
36.605
36.587
36.574
36.562
36.552
36.544
36.535
36.527
36.517
36.507
36.495
36.481
36.465
36.447
36.426
36.403
36.377
36.35
36.321
36.29
36.258
36.224
36.191
36.157
36.123
36.091
36.059
36.03
36.004
35.982
35.964
35.951
35.944
35.941
35.944
35.951
35.962
35.977
35.995
36.013
36.032
36.047
36.059
36.067
36.069
36.065
36.053
36.033
36.006
35.974
35.939
35.903
35.867
35.834
35.805
35.78
35.76
35.745
35.735
35.729
35.727
35.728
35.73
35.732
35.734
35.733
35.729
35.721
35.709
35.694
35.676
35.655
35.632
35.608
35.581
35.554
35.527
35.5
35.475
35.451
35.429
35.408
35.387
35.366
35.346
35.325
35.304
35.284
35.263
35.243
35.223
35.204
35.186
35.169
35.153
35.138
35.125
35.112
35.1
35.089
35.079
35.069
35.06
35.051
35.041
35.031
35.021
35.012
35.003
34.994
34.987
34.98
34.974
34.968
34.962
34.956
34.95
34.943
34.936
34.927
34.917
34.907
34.896
34.884
34.873
34.861
34.851
34.841
34.833
34.826
34.821
34.817
34.813
34.809
34.804
34.799
34.792
34.785
34.776
34.765
34.753
34.738
34.723
34.706
34.688
34.67
34.652
34.635
34.618
34.602
34.588
34.576
34.565
34.556
34.549
34.544
34.538
34.529
34.517
34.502
34.485
34.467
34.448
34.43
34.413
34.398
34.386
34.376
34.368
34.362
34.357
34.353
34.349
34.345
34.342
34.338
34.334
34.331
34.328
34.326
34.324
34.323
34.322
34.322
34.321
34.32
34.317
34.312
34.306
34.298
34.29
34.281
34.271
34.262
34.253
34.245
34.237
34.231
34.226
34.224
34.225
34.231
34.243
34.263
34.29
34.326
34.371
34.425
34.49
34.566
34.654
34.755
34.87
34.996
35.134
35.282
35.438
35.599
35.763
35.926
36.087
36.241
36.387
36.522
36.643
36.75
36.843
36.919
36.978
37.022
37.051
37.066
37.069
37.062
37.047
37.024
36.997
36.966
36.932
36.897
36.861
36.825
36.789
36.756
36.726
36.701
36.68
36.663
36.65
36.641
36.635
36.631
36.627
36.623
36.618
36.612
36.603
36.592
36.577
36.559
36.537
36.512
36.485
36.457
36.429
36.401
36.374
36.347
36.32
36.292
36.262
36.232
36.201
36.169
36.137
36.104
36.071
36.038
36.006
35.976
35.95
35.928
35.91
35.899
35.893
35.894
35.899
35.909
35.921
35.936
35.953
35.969
35.986
36.001
36.013
36.023
36.028
36.028
36.024
36.016
36.004
35.989
35.972
35.953
35.933
35.913
35.892
35.871
35.847
35.822
35.795
35.767
35.739
35.71
35.682
35.656
35.63
35.604
35.578
35.554
35.53
35.506
35.483
35.46
35.437
35.415
35.391
35.368
35.344
35.32
35.296
35.272
35.249
35.228
35.208
35.19
35.174
35.159
35.145
35.132
35.12
35.108
35.097
35.087
35.078
35.068
35.059
35.05
35.04
35.029
35.016
35.003
34.989
34.975
34.962
34.949
34.937
34.927
34.918
34.911
34.905
34.899
34.894
34.889
34.883
34.876
34.867
34.855
34.841
34.825
34.806
34.786
34.765
34.741
34.717
34.692
34.667
34.643
34.621
34.6
34.581
34.564
34.55
34.539
34.531
34.527
34.526
34.526
34.528
34.529
34.531
34.53
34.528
34.523
34.516
34.505
34.492
34.476
34.459
34.441
34.423
34.404
34.386
34.369
34.355
34.343
34.334
34.329
34.327
34.33
34.335
34.343
34.351
34.359
34.366
34.369
34.368
34.364
34.357
34.347
34.336
34.325
34.313
34.302
34.292
34.282
34.274
34.266
34.258
34.25
34.242
34.234
34.225
34.216
34.206
34.197
34.187
34.177
34.168
34.159
34.15
34.142
34.134
34.127
34.12
34.113
34.105
34.098
34.091
34.083
34.073
34.061
34.047
34.032
34.019
34.008
34.001
33.999
34.004
34.016
34.038
34.069
34.112
34.166
34.232
34.309
34.396
34.494
34.601
34.717
34.84
34.971
35.106
35.246
35.386
35.527
35.666
35.801
35.93
36.052
36.168
36.275
36.372
36.46
36.538
36.603
36.657
36.698
36.726
36.743
36.746
36.737
36.718
36.689
36.652
36.61
36.564
36.516
36.468
36.423
36.384
36.351
36.325
36.306
36.295
36.289
36.288
36.291
36.296
36.303
36.308
36.311
36.31
36.305
36.295
36.281
36.263
36.241
36.216
36.188
36.158
36.127
36.094
36.061
36.026
35.992
35.957
35.923
35.888
35.854
35.822
35.791
35.763
35.737
35.715
35.697
35.683
35.673
35.667
35.664
35.664
35.666
35.669
35.674
35.679
35.685
35.691
35.696
35.701
35.705
35.708
35.71
35.711
35.711
35.711
35.71
35.708
35.704
35.697
35.689
35.678
35.664
35.646
35.626
35.604
35.58
35.555
35.529
35.503
35.478
35.453
35.43
35.408
35.387
35.368
35.349
35.332
35.314
35.297
35.279
35.259
35.239
35.217
35.195
35.172
35.149
35.127
35.105
35.083
35.061
35.041
35.023
35.006
34.992
34.981
34.973
34.967
34.962
34.959
34.957
34.957
34.965
34.978
34.996
35.014
35.029
35.039
35.041
35.035
35.019
34.996
34.965
34.928
34.888
34.846
34.804
34.765
34.728
34.695
34.666
34.642
34.622
34.607
34.597
34.59
34.586
34.584
34.584
34.584
34.584
34.582
34.578
34.572
34.563
34.552
34.54
34.529
34.518
34.508
34.499
34.491
34.482
34.472
34.462
34.453
34.444
34.436
34.429
34.422
34.415
34.409
34.403
34.397
34.392
34.386
34.381
34.375
34.37
34.364
34.358
34.352
34.344
34.336
34.327
34.318
34.308
34.297
34.284
34.27
34.255
34.239
34.223
34.208
34.194
34.182
34.173
34.166
34.163
34.164
34.167
34.172
34.178
34.184
34.189
34.191
34.19
34.186
34.179
34.17
34.159
34.147
34.133
34.119
34.105
34.091
34.079
34.067
34.057
34.049
34.043
34.04
34.038
34.038
34.038
34.038
34.036
34.034
34.029
34.023
34.014
34.003
33.991
33.978
33.965
33.954
33.947
33.947
33.954
33.971
34.0
34.04
34.094
34.161
34.24
34.332
34.436
34.551
34.677
34.811
34.952
35.098
35.247
35.396
35.542
35.682
35.815
35.938
36.05
36.149
36.236
36.308
36.366
36.411
36.442
36.461
36.468
36.466
36.454
36.435
36.411
36.383
36.352
36.319
36.287
36.254
36.223
36.192
36.163
36.136
36.11
36.086
36.064
36.043
36.023
36.005
35.987
35.971
35.956
35.942
35.928
35.914
35.899
35.883
35.867
35.85
35.831
35.811
35.789
35.766
35.741
35.716
35.689
35.662
35.635
35.61
35.587
35.566
35.547
35.531
35.517
35.505
35.495
35.486
35.48
35.476
35.472
35.47
35.468
35.466
35.465
35.464
35.463
35.463
35.464
35.467
35.472
35.478
35.486
35.494
35.503
35.512
35.52
35.527
35.534
35.54
35.543
35.543
35.539
35.529
35.515
35.497
35.476
35.453
35.429
35.405
35.38
35.354
35.328
35.302
35.276
35.251
35.227
35.204
35.183
35.164
35.147
35.131
35.115
35.099
35.084
35.068
35.052
35.036
35.019
35.001
34.982
34.962
34.941
34.92
34.9
34.881
34.864
34.849
34.836
34.826
34.817
34.809
34.803
34.796
34.79
34.784
34.777
34.769
34.76
34.752
34.744
34.736
34.728
34.72
34.71
34.7
34.69
34.679
34.668
34.657
34.645
34.633
34.621
34.608
34.596
34.585
34.573
34.562
34.552
34.542
34.533
34.524
34.515
34.507
34.499
34.491
34.483
34.475
34.468
34.459
34.451
34.442
34.433
34.424
34.415
34.407
34.4
34.394
34.389
34.386
34.383
34.382
34.382
34.383
34.385
34.388
34.391
34.393
34.395
34.394
34.392
34.386
34.378
34.367
34.353
34.337
34.318
34.299
34.278
34.258
34.237
34.218
34.2
34.185
34.173
34.166
34.163
34.165
34.17
34.179
34.19
34.201
34.212
34.222
34.229
34.232
34.231
34.226
34.216
34.202
34.185
34.165
34.143
34.119
34.093
34.067
34.042
34.018
33.997
33.979
33.964
33.954
33.947
33.943
33.943
33.945
33.948
33.953
33.957
33.96
33.962
33.961
33.96
33.959
33.961
33.969
33.984
34.008
34.045
34.095
34.159
34.237
34.328
34.432
34.548
34.673
34.807
34.948
35.095
35.246
35.398
35.55
35.699
35.842
35.978
36.104
36.218
36.319
36.406
36.48
36.54
36.587
36.619
36.638
36.645
36.642
36.629
36.609
36.583
36.553
36.52
36.484
36.447
36.41
36.373
36.337
36.301
36.267
36.233
36.201
36.17
36.14
36.111
36.083
36.057
36.033
36.013
35.995
35.981
35.971
35.964
35.96
35.958
35.957
35.957
35.957
35.956
35.951
35.943
35.929
35.911
35.887
35.858
35.825
35.79
35.754
35.719
35.687
35.658
35.634
35.614
35.6
35.59
35.586
35.585
35.589
35.595
35.603
35.613
35.622
35.63
35.637
35.642
35.644
35.644
35.64
35.635
35.627
35.618
35.607
35.596
35.585
35.575
35.565
35.557
35.55
35.544
35.538
35.532
35.525
35.518
35.51
35.502
35.493
35.484
35.473
35.46
35.445
35.429
35.41
35.389
35.366
35.34
35.313
35.283
35.252
35.219
35.186
35.153
35.119
35.085
35.051
35.02
34.991
34.965
34.943
34.924
34.908
34.896
34.886
34.879
34.874
34.869
34.866
34.864
34.861
34.857
34.853
34.848
34.842
34.836
34.83
34.823
34.816
34.81
34.802
34.795
34.786
34.775
34.762
34.748
34.732
34.714
34.694
34.673
34.651
34.629
34.607
34.586
34.568
34.551
34.538
34.527
34.52
34.516
34.516
34.519
34.524
34.53
34.536
34.542
34.546
34.547
34.545
34.538
34.528
34.514
34.495
34.474
34.45
34.425
34.4
34.377
34.355
34.337
34.322
34.311
34.305
34.302
34.303
34.307
34.312
34.319
34.326
34.333
34.339
34.343
34.346
34.346
34.344
34.34
34.333
34.324
34.314
34.304
34.293
34.282
34.271
34.26
34.249
34.239
34.228
34.218
34.208
34.2
34.192
34.185
34.178
34.17
34.163
34.155
34.147
34.14
34.133
34.127
34.121
34.116
34.111
34.104
34.097
34.088
34.078
34.067
34.055
34.043
34.031
34.019
34.007
33.996
33.984
33.974
33.963
33.953
33.944
33.936
33.929
33.924
33.918
33.913
33.907
33.902
33.898
33.898
33.902
33.911
33.928
33.953
33.988
34.034
34.091
34.16
34.241
34.334
34.437
34.551
34.675
34.81
34.953
35.103
35.258
35.416
35.574
35.729
35.877
36.015
36.141
36.253
36.348
36.426
36.487
36.532
36.561
36.577
36.581
36.575
36.562
36.543
36.52
36.493
36.464
36.434
36.404
36.374
36.343
36.314
36.284
36.254
36.223
36.192
36.161
36.13
36.099
36.068
36.038
36.01
35.982
35.955
35.931
35.91
