Trial 3:3back
34.86
34.865
34.868
34.869
34.868
34.864
34.858
34.85
34.84
34.83
34.82
34.809
34.796
34.782
34.765
34.747
34.727
34.705
34.681
34.657
34.633
34.611
34.591
34.575
34.561
34.55
34.541
34.535
34.53
34.527
34.525
34.523
34.522
34.522
34.524
34.526
34.529
34.532
34.535
34.537
34.539
34.54
34.54
34.54
34.539
34.539
34.538
34.537
34.537
34.538
34.541
34.545
34.551
34.558
34.565
34.573
34.58
34.585
34.589
34.592
34.593
34.59
34.586
34.578
34.568
34.558
34.547
34.536
34.526
34.516
34.507
34.498
34.489
34.481
34.475
34.471
34.468
34.467
34.466
34.465
34.465
34.465
34.465
34.464
34.464
34.463
34.461
34.461
34.46
34.459
34.457
34.455
34.452
34.446
34.439
34.432
34.423
34.413
34.403
34.393
34.384
34.377
34.372
34.369
34.37
34.372
34.377
34.382
34.388
34.391
34.391
34.388
34.383
34.375
34.366
34.357
34.349
34.343
34.339
34.339
34.34
34.344
34.349
34.355
34.362
34.368
34.374
34.379
34.384
34.387
34.389
34.391
34.391
34.391
34.389
34.387
34.385
34.382
34.379
34.376
34.373
34.371
34.369
34.368
34.366
34.363
34.358
34.351
34.343
34.334
34.324
34.314
34.304
34.294
34.286
34.28
34.276
34.274
34.275
34.278
34.283
34.289
34.296
34.302
34.307
34.312
34.314
34.315
34.315
34.311
34.306
34.299
34.291
34.283
34.276
34.268
34.26
34.252
34.242
34.231
34.22
34.211
34.205
34.201
34.199
34.199
34.201
34.204
34.208
34.212
34.216
34.22
34.222
34.222
34.221
34.218
34.216
34.214
34.212
34.212
34.212
34.213
34.213
34.212
34.21
34.206
34.201
34.195
34.188
34.18
34.171
34.164
34.158
34.155
34.153
34.152
34.151
34.151
34.149
34.147
34.145
34.142
34.14
34.139
34.14
34.144
34.153
34.169
34.192
34.225
34.267
34.322
34.389
34.47
34.565
34.673
34.795
34.931
35.078
35.235
35.4
35.571
35.744
35.918
36.09
36.257
36.416
36.566
36.702
36.823
36.925
37.007
37.07
37.112
37.136
37.143
37.133
37.11
37.075
37.03
36.979
36.923
36.867
36.81
36.754
36.701
36.651
36.603
36.558
36.518
36.483
36.452
36.427
36.406
36.39
36.377
36.368
36.362
36.357
36.354
36.351
36.35
36.35
36.35
36.349
36.346
36.341
36.334
36.323
36.308
36.288
36.265
36.238
36.209
36.179
36.148
36.118
36.089
36.062
36.035
36.009
35.984
35.96
35.937
35.915
35.894
35.876
35.861
35.849
35.841
35.835
35.833
35.834
35.838
35.844
35.851
35.858
35.864
35.868
35.871
35.872
35.872
35.873
35.873
35.87
35.865
35.857
35.846
35.831
35.815
35.797
35.779
35.76
35.74
35.72
35.7
35.68
35.659
35.638
35.617
35.595
35.573
35.551
35.53
35.511
35.492
35.475
35.458
35.438
35.414
35.385
35.353
35.32
35.288
35.258
35.232
35.21
35.193
35.18
35.171
35.165
35.162
35.16
35.161
35.161
35.161
35.159
35.155
35.148
35.139
35.128
35.116
35.104
35.091
35.079
35.066
35.055
35.045
35.037
35.033
35.031
35.036
35.05
35.075
35.111
35.156
35.208
35.264
35.322
35.38
35.435
35.486
35.535
35.58
35.622
35.661
35.697
35.73
35.76
35.787
35.812
35.835
35.855
35.873
35.887
35.898
35.906
35.91
35.913
35.913
35.911
35.908
35.902
35.892
35.879
35.86
35.837
35.81
35.779
35.745
35.71
35.674
35.638
35.601
35.564
35.526
35.488
35.448
35.407
35.363
35.318
35.271
35.223
35.175
35.129
35.086
35.047
35.012
34.983
34.958
34.939
34.925
34.917
34.914
34.915
34.919
34.924
34.932
34.942
34.953
34.966
34.981
34.997
35.014
35.032
35.051
35.072
35.093
35.116
35.137
35.157
35.173
35.187
35.196
35.203
35.207
35.208
35.206
35.203
35.197
35.189
35.179
35.169
35.157
35.146
35.134
35.122
35.111
35.099
35.087
35.074
35.061
35.047
35.033
35.017
34.999
34.978
34.955
34.931
34.907
34.884
34.863
34.844
34.826
34.811
34.797
34.784
34.773
34.764
34.758
34.755
34.753
34.752
34.751
34.75
34.749
34.748
34.744
34.739
34.732
34.724
34.716
34.709
34.703
34.699
34.696
34.694
34.692
34.688
34.683
34.675
34.664
34.651
34.637
34.623
34.609
34.597
34.588
34.581
34.577
34.576
34.577
34.58
34.583
34.587
34.59
34.592
34.593
34.593
34.591
34.587
34.582
34.575
34.566
34.556
34.546
34.535
34.523
34.513
34.503
34.495
34.487
34.479
34.471
34.463
34.456
34.449
34.444
34.441
34.44
34.442
34.445
34.449
34.454
34.457
34.46
34.46
34.459
34.456
34.452
34.447
34.441
34.436
34.432
34.429
34.427
34.427
34.428
34.43
34.432
34.435
34.438
34.441
34.444
34.448
34.452
34.456
34.459
34.461
34.461
34.459
34.455
34.449
34.44
34.43
34.419
34.408
34.398
34.388
34.38
34.371
34.362
34.352
34.342
34.332
34.322
34.313
34.306
34.3
34.296
34.294
34.295
34.297
34.301
34.305
34.307
34.309
34.307
34.304
34.297
34.283
34.263
34.236
34.207
34.178
34.151
34.129
34.113
34.103
34.1
34.104
34.115
34.131
34.152
34.177
34.203
34.231
34.259
34.286
34.31
34.331
34.349
34.361
34.369
34.371
34.37
34.365
34.357
34.348
34.34
34.334
34.334
34.339
34.352
34.374
34.404
34.446
34.5
34.567
34.65
34.749
34.863
34.993
35.137
35.293
35.458
35.629
35.804
35.98
36.152
36.318
36.472
36.613
36.738
36.847
36.937
37.008
37.062
37.099
37.119
37.124
37.117
37.099
37.071
37.037
36.997
36.954
36.908
36.861
36.814
36.767
36.723
36.683
36.646
36.614
36.586
36.562
36.542
36.527
36.515
36.506
36.502
36.501
36.501
36.501
36.501
36.5
36.497
36.492
36.486
36.477
36.466
36.454
36.439
36.421
36.4
36.376
36.35
36.321
36.291
36.261
36.233
36.207
36.184
36.166
36.151
36.14
36.132
36.124
36.117
36.11
36.102
36.094
36.085
36.078
36.072
36.067
36.064
36.062
36.061
36.06
36.058
36.055
36.051
36.045
36.039
36.032
36.023
36.015
36.007
35.999
35.993
35.987
35.982
35.976
35.968
35.957
35.945
35.931
35.914
35.895
35.874
35.852
35.829
35.804
35.779
35.754
35.73
35.708
35.687
35.668
35.65
35.632
35.615
35.598
35.582
35.566
35.551
35.536
35.523
35.509
35.495
35.481
35.467
35.454
35.441
35.428
35.417
35.405
35.394
35.382
35.37
35.358
35.345
35.332
35.319
35.306
35.294
35.283
35.273
35.265
35.26
35.256
35.252
35.248
35.244
35.238
35.23
35.221
35.213
35.204
35.195
35.187
35.18
35.173
35.166
35.158
35.151
35.142
35.134
35.125
35.116
35.107
35.099
35.093
35.089
35.086
35.085
35.085
35.083
35.081
35.076
35.069
35.061
35.052
35.042
35.032
35.023
35.014
35.006
34.999
34.993
34.988
34.982
34.975
34.967
34.958
34.948
34.938
34.927
34.916
34.905
34.893
34.879
34.864
34.847
34.829
34.811
34.794
34.779
34.768
34.759
34.755
34.752
34.753
34.755
34.759
34.763
34.768
34.773
34.776
34.777
34.776
34.774
34.771
34.768
34.764
34.76
34.757
34.754
34.753
34.753
34.754
34.756
34.758
34.76
34.759
34.757
34.752
34.745
34.736
34.725
34.714
34.703
34.693
34.685
34.681
34.68
34.683
34.69
34.701
34.718
34.742
34.772
34.812
34.863
34.924
34.997
35.082
35.177
35.281
35.393
35.512
35.636
35.763
35.893
36.022
36.149
36.27
36.383
36.487
36.58
36.66
36.727
36.78
36.82
36.849
36.866
36.872
36.869
36.857
36.838
36.814
36.786
36.754
36.72
36.685
36.65
36.617
36.586
36.56
36.538
36.521
36.509
36.5
36.495
36.492
36.49
36.49
36.489
36.489
36.489
36.488
36.486
36.483
36.478
36.472
36.463
36.452
36.439
36.423
36.402
36.377
36.348
36.315
36.28
36.244
36.208
36.173
36.14
36.108
36.077
36.048
36.021
35.998
35.979
35.965
35.957
35.953
35.955
35.96
35.969
35.981
35.995
36.009
36.022
36.033
36.042
36.048
36.052
36.054
36.054
36.053
36.05
36.046
36.039
36.031
36.022
36.011
35.999
35.988
35.975
35.963
35.95
35.936
35.921
35.904
35.885
35.865
35.845
35.826
35.806
35.788
35.771
35.754
35.737
35.722
35.706
35.69
35.672
35.654
35.633
35.611
35.589
35.567
35.546
35.528
35.511
35.498
35.487
35.477
35.468
35.459
35.45
35.44
35.43
35.421
35.412
35.403
35.394
35.385
35.376
35.367
35.358
35.349
35.34
35.331
35.322
35.313
35.307
35.302
35.299
35.297
35.297
35.296
35.295
35.293
35.289
35.284
35.278
35.27
35.261
35.25
35.239
35.229
35.219
35.211
35.204
35.2
35.196
35.193
35.19
35.186
35.18
35.173
35.164
35.153
35.14
35.126
35.109
35.092
35.076
35.059
35.044
35.031
35.019
35.009
35.0
34.992
34.983
34.974
34.965
34.958
34.951
34.946
34.941
34.936
34.932
34.928
34.925
34.921
34.919
34.916
34.913
34.909
34.904
34.898
34.89
34.881
34.872
34.861
34.85
34.838
34.827
34.818
34.81
34.805
34.802
34.8
34.799
34.799
34.798
34.795
34.791
34.786
34.779
34.772
34.764
34.757
34.751
34.746
34.741
34.736
34.731
34.726
34.72
34.711
34.702
34.693
34.683
34.674
34.665
34.657
34.649
34.643
34.637
34.631
34.625
34.619
34.612
34.606
34.602
34.6
34.603
34.612
34.628
34.651
34.683
34.725
34.779
34.846
34.926
35.018
35.12
35.23
35.347
35.469
35.594
35.72
35.847
35.972
36.093
36.209
36.317
36.418
36.511
36.594
36.669
36.736
36.793
36.841
36.879
36.908
36.927
36.939
36.943
36.942
36.935
36.924
36.91
36.894
36.876
36.858
36.839
36.821
36.804
36.788
36.775
36.763
36.754
36.747
36.743
36.742
36.744
36.748
36.755
36.764
36.772
36.78
36.786
36.789
36.789
36.787
36.782
36.773
36.76
36.744
36.723
36.698
36.669
36.637
36.602
36.564
36.524
36.483
36.443
36.405
36.369
36.336
36.305
36.278
36.253
36.23
36.21
36.192
36.178
36.166
36.159
36.156
36.158
36.164
36.171
36.18
36.188
36.196
36.203
36.208
36.211
36.213
36.213
36.212
36.209
36.205
36.201
36.197
36.191
36.184
36.175
36.164
36.151
36.137
36.122
36.105
36.087
36.067
36.045
36.021
35.996
35.971
35.945
35.92
35.897
35.875
35.855
35.837
35.82
35.806
35.793
35.781
35.769
35.756
35.743
35.728
35.713
35.697
35.682
35.667
35.654
35.642
35.631
35.622
35.613
35.606
35.599
35.591
35.58
35.566
35.548
35.528
35.507
35.484
35.463
35.444
35.427
35.413
35.402
35.393
35.385
35.38
35.376
35.374
35.372
35.371
35.372
35.373
35.374
35.376
35.377
35.378
35.377
35.376
35.373
35.369
35.365
35.363
35.362
35.362
35.365
35.368
35.371
35.37
35.363
35.351
35.335
35.314
35.291
35.266
35.242
35.218
35.197
35.178
35.161
35.147
35.133
35.119
35.105
35.089
35.071
35.051
35.03
35.009
34.987
34.965
34.944
34.925
34.91
34.897
34.887
34.88
34.877
34.875
34.876
34.877
34.877
34.878
34.879
34.879
34.88
34.88
34.88
34.879
34.878
34.877
34.875
34.875
34.875
34.876
34.877
34.878
34.88
34.882
34.885
34.889
34.893
34.897
34.9
34.901
34.901
34.898
34.894
34.889
34.882
34.875
34.866
34.858
34.849
34.841
34.832
34.825
34.817
34.811
34.804
34.798
34.793
34.788
34.785
34.782
34.779
34.776
34.771
34.764
34.756
34.745
34.733
34.719
34.706
34.693
34.681
34.671
34.663
34.658
34.654
34.652
34.65
34.649
34.646
34.643
34.64
34.638
34.636
34.635
34.635
34.636
34.635
34.633
34.63
34.627
34.622
34.616
34.609
34.6
34.591
34.583
34.577
34.573
34.571
34.571
34.573
34.574
34.576
34.577
34.578
34.577
34.574
34.569
34.562
34.555
34.547
34.54
34.533
34.528
34.524
34.523
34.523
34.525
34.527
34.531
34.534
34.538
34.541
34.542
34.542
34.54
34.537
34.535
34.532
34.529
34.526
34.523
34.519
34.515
34.511
34.506
34.501
34.495
34.488
34.48
34.472
34.464
34.456
34.45
34.445
34.443
34.442
34.443
34.446
34.451
34.458
34.465
34.472
34.478
34.483
34.485
34.486
34.485
34.482
34.478
34.473
34.466
34.457
34.448
34.439
34.431
34.425
34.422
34.422
34.425
34.429
34.435
34.441
34.446
34.45
34.452
34.452
34.451
34.447
34.443
34.438
34.434
34.432
34.431
34.433
34.435
34.438
34.438
34.436
34.429
34.419
34.406
34.392
34.378
34.365
34.354
34.346
34.34
34.338
34.337
34.338
34.34
34.342
34.346
34.353
34.363
34.378
34.4
34.431
34.471
34.523
34.588
34.668
34.764
34.875
35.002
35.142
35.293
35.454
35.62
35.788
35.956
36.121
36.282
36.436
36.583
36.719
36.843
36.954
37.048
37.127
37.189
37.235
37.265
37.282
37.286
37.279
37.262
37.239
37.21
37.179
37.145
37.111
37.076
37.041
37.006
36.973
36.941
36.912
36.887
36.865
36.847
36.832
36.82
36.812
36.805
36.8
36.798
36.798
36.8
36.802
36.806
36.808
36.808
36.806
36.8
36.791
36.779
36.764
36.747
36.727
36.705
36.681
36.655
36.627
36.597
36.566
36.535
36.504
36.474
36.446
36.421
36.399
36.38
36.364
36.351
36.34
36.331
36.323
36.317
36.313
36.313
36.316
36.324
36.335
36.347
36.359
36.367
36.372
36.372
36.368
36.36
36.349
36.334
36.316
36.297
36.276
36.254
36.232
36.21
36.189
36.167
36.145
36.123
36.103
36.083
36.066
36.05
36.035
36.022
36.008
35.994
35.979
35.963
35.948
35.932
35.915
35.898
35.881
35.862
35.842
35.82
35.797
35.774
35.751
35.729
35.707
35.685
35.665
35.646
35.628
35.611
35.594
35.578
35.561
35.545
35.529
35.512
35.497
35.482
35.468
35.454
35.442
35.432
35.422
35.414
35.408
35.403
35.399
35.396
35.394
35.392
35.39
35.389
35.388
35.389
35.392
35.398
35.407
35.419
35.435
35.456
35.482
35.515
35.554
35.599
35.649
35.703
35.762
35.823
35.888
35.956
36.024
36.091
36.155
36.215
36.269
36.317
36.359
36.397
36.43
36.46
36.483
36.499
36.506
36.505
36.498
36.485
36.468
36.45
36.43
36.411
36.393
36.376
36.363
36.352
36.343
36.337
36.332
36.327
36.321
36.313
36.303
36.29
36.276
36.259
36.24
36.216
36.189
36.158
36.124
36.088
36.05
36.012
35.974
35.937
35.9
35.864
35.83
35.797
35.765
35.735
35.708
35.682
35.66
35.64
35.623
35.609
35.599
35.592
35.59
35.592
35.598
35.607
35.618
35.632
35.648
35.666
35.683
35.701
35.716
35.729
35.738
35.744
35.746
35.745
35.741
35.735
35.729
35.72
35.711
35.699
35.685
35.67
35.653
35.634
35.614
35.593
35.572
35.55
35.527
35.503
35.479
35.455
35.431
35.408
35.386
35.365
35.345
35.326
35.309
35.293
35.277
35.262
35.246
35.229
35.211
35.193
35.176
35.16
35.145
35.133
35.122
35.113
35.105
35.098
35.092
35.087
35.082
35.077
35.071
35.066
35.059
35.053
35.047
35.042
35.035
35.027
35.016
35.003
34.988
34.97
34.951
34.932
34.912
34.893
34.876
34.86
34.846
34.835
34.826
34.82
34.816
34.812
34.81
34.807
34.804
34.801
34.797
34.794
34.79
34.787
34.784
34.781
34.778
34.776
34.773
34.771
34.767
34.762
34.756
34.748
34.739
34.729
34.717
34.704
34.692
34.679
34.667
34.656
34.646
34.637
34.63
34.625
34.621
34.618
34.615
34.612
34.609
34.607
34.606
34.604
34.602
34.598
34.592
34.585
34.576
34.566
34.557
34.548
34.541
34.535
34.53
34.528
34.527
34.527
34.527
34.527
34.527
34.525
34.522
34.517
34.51
34.503
34.494
34.486
34.478
34.471
34.465
34.459
34.453
34.448
34.442
34.435
34.427
34.42
34.412
34.405
34.4
34.396
34.393
34.391
34.39
34.39
34.389
34.388
34.387
34.386
34.386
34.386
34.386
34.388
34.39
34.394
34.397
34.4
34.401
34.4
34.397
34.391
34.382
34.373
34.362
34.351
34.34
34.329
34.32
34.312
34.307
34.303
34.303
34.305
34.309
34.314
34.319
34.323
34.327
34.33
34.333
34.335
34.337
34.337
34.338
34.339
34.339
34.341
34.343
34.345
34.346
34.347
34.347
34.345
34.343
34.339
34.334
34.329
34.323
34.317
34.311
34.305
34.3
34.296
34.292
34.291
34.295
34.305
34.322
34.344
34.371
34.402
34.436
34.473
34.513
34.558
34.608
34.666
34.733
34.812
34.905
35.012
35.133
35.266
35.411
35.564
35.724
35.885
36.046
36.202
36.351
36.49
36.616
36.728
36.825
36.906
36.972
37.022
37.056
37.075
37.079
37.07
37.051
37.024
36.992
36.955
36.917
36.879
36.84
36.803
36.766
36.732
36.7
36.671
36.647
36.627
36.612
36.603
36.6
36.601
36.608
36.617
36.629
36.642
36.653
36.662
36.669
36.672
36.672
36.669
36.662
36.651
36.635
36.615
36.59
36.56
36.527
36.489
36.449
36.407
36.365
36.321
36.278
36.235
36.194
36.156
36.122
36.094
36.071
36.054
36.042
36.035
36.031
36.032
36.035
36.041
36.048
36.055
36.063
36.069
36.074
36.078
36.081
36.083
36.084
36.084
36.082
36.077
36.069
36.059
36.045
36.028
36.009
35.986
35.961
35.934
35.906
35.878
35.853
35.829
35.809
35.792
35.777
35.764
35.751
35.739
35.727
35.715
35.702
35.688
35.673
35.658
35.641
35.623
35.604
35.584
35.563
35.542
35.52
35.498
35.476
35.455
35.436
35.418
35.403
35.389
35.378
35.37
35.362
35.355
35.348
35.341
35.335
35.328
35.322
35.317
35.311
35.306
35.3
35.294
35.286
35.275
35.262
35.246
35.227
35.205
35.183
35.161
35.14
35.12
35.102
35.085
35.071
35.059
35.05
35.044
35.039
35.032
35.018
34.998
34.972
34.944
34.916
34.89
34.867
34.85
34.837
34.83
34.828
34.83
34.836
34.844
34.855
34.867
34.877
34.886
34.893
34.898
34.9
34.9
34.897
34.892
34.885
34.875
34.865
34.854
34.843
34.833
34.825
34.818
34.812
34.807
34.804
34.802
34.801
34.799
34.796
34.791
34.783
34.773
34.76
34.746
34.731
34.717
34.704
34.692
34.682
34.673
34.666
34.66
34.654
34.649
34.645
34.642
34.639
34.638
34.638
34.639
34.64
34.642
34.642
34.642
34.638
34.633
34.625
34.615
34.604
34.594
34.584
34.577
34.571
34.568
34.566
34.565
34.566
34.566
34.565
34.562
34.556
34.549
34.54
34.531
34.523
34.515
34.51
34.505
34.502
34.499
34.497
34.495
34.492
34.488
34.483
34.475
34.466
34.456
34.447
34.44
34.436
34.437
34.443
34.455
34.476
34.506
34.548
34.602
34.67
34.75
34.844
34.95
35.066
35.191
35.323
35.46
35.6
35.74
35.878
36.011
36.137
36.253
36.359
36.452
36.532
36.6
36.654
36.696
36.726
36.745
36.755
36.755
36.747
36.733
36.714
36.692
36.668
36.643
36.618
36.593
36.569
36.546
36.525
36.506
36.49
36.478
36.469
36.463
36.461
36.462
36.466
36.47
36.475
36.479
36.483
36.485
36.486
36.485
36.482
36.476
36.469
36.458
36.443
36.424
36.399
36.369
36.335
36.297
36.257
36.216
36.177
36.14
36.107
36.076
36.049
36.024
36.0
35.977
35.954
35.933
35.913
35.894
35.878
35.865
35.856
35.851
35.85
35.853
35.859
35.865
35.871
35.878
35.884
35.89
35.896
35.902
35.907
35.91
35.912
35.911
35.907
35.901
35.891
35.877
35.86
35.841
35.821
35.8
35.779
35.759
35.741
35.724
35.708
35.693
35.678
35.662
35.645
35.628
35.609
35.587
35.564
35.539
35.513
35.487
35.46
35.434
35.41
35.388
35.368
35.35
35.335
35.321
35.309
35.297
35.288
35.28
35.276
35.275
35.274
35.275
35.276
35.275
35.274
35.272
35.269
35.265
35.26
35.252
35.243
35.232
35.219
35.206
35.192
35.177
35.162
35.148
35.136
35.126
35.12
35.119
35.122
35.129
35.139
35.152
35.167
35.183
35.2
35.219
35.239
35.26
35.283
35.306
35.33
35.354
35.378
35.4
35.42
35.437
35.448
35.453
35.453
35.447
35.436
35.421
35.402
35.38
35.355
35.328
35.299
35.268
35.235
35.203
35.17
35.137
35.104
35.072
35.04
35.008
34.975
34.944
34.913
34.882
34.853
34.824
34.797
34.773
34.753
34.737
34.725
34.716
34.711
34.709
34.71
34.713
34.719
34.726
34.736
34.747
34.759
34.771
34.782
34.793
34.804
34.814
34.823
34.831
34.838
34.844
34.847
34.847
34.845
34.84
34.832
34.823
34.811
34.798
34.783
34.768
34.754
34.741
34.73
34.721
34.714
34.707
34.702
34.697
34.692
34.687
34.682
34.677
34.671
34.665
34.659
34.653
34.647
34.64
34.633
34.626
34.617
34.607
34.597
34.587
34.579
34.571
34.567
34.564
34.563
34.564
34.565
34.565
34.565
34.563
34.559
34.554
34.548
34.542
34.536
