Trial 3:3back
33.586
33.572
33.559
33.544
33.528
33.508
33.484
33.457
33.425
33.389
33.349
33.308
33.266
33.226
33.19
33.159
33.135
33.12
33.115
33.12
33.137
33.167
33.212
33.274
33.355
33.455
33.577
33.723
33.896
34.098
34.332
34.598
34.897
35.224
35.574
35.941
36.315
36.686
37.045
37.385
37.698
37.978
38.22
38.422
38.584
38.708
38.793
38.844
38.864
38.857
38.828
38.782
38.721
38.651
38.574
38.494
38.413
38.333
38.257
38.184
38.115
38.05
37.989
37.931
37.876
37.823
37.773
37.726
37.69
37.669
37.662
37.664
37.67
37.672
37.666
37.646
37.61
37.557
37.488
37.404
37.309
37.205
37.097
36.989
36.884
36.784
36.691
36.609
36.538
36.479
36.432
36.397
36.372
36.357
36.349
36.345
36.344
36.343
36.342
36.341
36.338
36.332
36.324
36.313
36.301
36.287
36.268
36.246
36.222
36.196
36.171
36.147
36.124
36.102
36.082
36.062
36.041
36.017
35.988
35.954
35.915
35.873
35.828
35.78
35.73
35.678
35.626
35.572
35.516
35.459
35.402
35.345
35.29
35.238
35.189
35.142
35.097
35.054
35.011
34.967
34.923
34.879
34.834
34.789
34.745
34.702
34.661
34.621
34.581
34.542
34.502
34.461
34.421
34.382
34.344
34.307
34.27
34.235
34.2
34.166
34.132
34.098
34.063
34.029
33.994
33.959
33.921
33.882
33.84
33.797
33.751
33.704
33.657
33.612
33.569
33.529
33.491
33.456
33.424
33.393
33.363
33.333
33.301
33.269
33.235
33.2
33.164
33.128
33.093
33.061
33.033
33.011
32.995
32.986
32.987
32.997
33.017
33.047
33.088
33.141
33.207
33.288
33.386
33.502
33.639
33.799
33.987
34.204
34.454
34.736
35.05
35.391
35.753
36.13
36.514
36.894
37.263
37.613
37.935
38.224
38.475
38.683
38.848
38.967
39.045
39.085
39.092
39.071
39.027
38.965
38.89
38.806
38.717
38.626
38.534
38.444
38.357
38.274
38.195
38.121
38.052
37.988
37.928
37.873
37.822
37.773
37.723
37.675
37.626
37.575
37.523
37.467
37.408
37.346
37.282
37.215
37.145
37.074
37.002
36.931
36.862
36.796
36.733
36.675
36.624
36.579
36.54
36.506
36.476
36.449
36.425
36.402
36.382
36.362
36.344
36.328
36.312
36.297
36.283
36.269
36.256
36.242
36.229
36.215
36.201
36.189
36.178
36.168
36.16
36.151
36.142
36.132
36.119
36.104
36.086
36.065
36.042
36.014
35.983
35.948
35.909
35.864
35.815
35.761
35.702
35.64
35.576
35.511
35.448
35.386
35.326
35.268
35.212
35.158
35.105
35.053
35.003
34.955
34.908
34.863
34.817
34.77
34.722
34.673
34.622
34.572
34.521
34.471
34.422
34.375
34.33
34.287
34.245
34.205
34.166
34.128
34.091
34.055
34.02
33.985
33.95
33.915
33.879
33.842
33.804
33.766
33.727
33.688
33.65
33.614
33.579
33.547
33.515
33.484
33.454
33.424
33.394
33.364
33.334
33.303
33.273
33.242
33.211
33.179
33.146
33.115
33.086
33.059
33.033
33.01
32.988
32.969
32.955
32.946
32.945
32.954
32.976
33.013
33.067
33.14
33.232
33.347
33.483
33.644
33.832
34.051
34.305
34.594
34.917
35.271
35.652
36.052
36.463
36.875
37.278
37.662
38.019
38.343
38.629
38.873
39.074
39.23
39.345
39.42
39.459
39.464
39.442
39.395
39.331
39.253
39.164
39.069
38.971
38.873
38.777
38.685
38.596
38.511
38.431
38.355
38.283
38.215
38.148
38.084
38.02
37.956
37.892
37.825
37.754
37.68
37.603
37.523
37.439
37.352
37.263
37.173
37.084
36.997
36.913
36.833
36.758
36.688
36.625
36.567
36.517
36.473
36.437
36.407
36.383
36.363
36.347
36.335
36.326
36.318
36.31
36.302
36.293
36.281
36.267
36.25
36.23
36.207
36.183
36.156
36.128
36.097
36.065
36.032
35.999
35.966
35.933
35.901
35.87
35.842
35.815
35.787
35.758
35.727
35.692
35.654
35.613
35.568
35.522
35.475
35.428
35.38
35.332
35.283
35.233
35.182
35.132
35.082
35.033
34.985
34.94
34.896
34.855
34.813
34.772
34.731
34.689
34.647
34.602
34.555
34.507
34.456
34.404
34.351
34.296
34.24
34.186
34.132
34.081
34.033
33.987
33.943
33.901
33.86
33.819
33.779
33.739
33.7
33.662
33.626
33.591
33.557
33.524
33.492
33.459
33.426
33.395
33.366
33.339
33.314
33.289
33.265
33.242
33.219
33.196
33.173
33.149
33.125
33.102
33.079
33.056
33.033
33.01
32.989
32.968
32.95
32.936
32.927
32.925
32.931
32.948
32.976
33.017
33.075
33.151
33.247
33.366
33.509
33.679
33.88
34.113
34.382
34.684
35.018
35.379
35.762
36.159
36.561
36.958
37.343
37.708
38.045
38.346
38.608
38.826
39.001
39.131
39.22
39.269
39.283
39.267
39.225
39.162
39.082
38.989
38.888
38.78
38.67
38.558
38.447
38.339
38.237
38.141
38.052
37.969
37.894
37.824
37.759
37.698
37.639
37.581
37.524
37.466
37.409
37.349
37.287
37.221
37.154
37.084
37.012
36.937
36.861
36.785
36.711
36.64
36.573
36.511
36.454
36.402
36.357
36.316
36.28
36.249
36.222
36.201
36.183
36.167
36.152
36.137
36.121
36.104
36.085
36.063
36.039
36.014
35.989
35.963
35.938
35.913
35.889
35.867
35.845
35.824
35.802
35.78
35.757
35.733
35.707
35.679
35.647
35.612
35.574
35.533
35.488
35.441
35.392
35.34
35.287
35.234
35.18
35.127
35.075
35.026
34.978
34.931
34.886
34.84
34.795
34.749
34.702
34.654
34.604
34.554
34.503
34.451
34.401
34.352
34.305
34.26
34.219
34.18
34.143
34.11
34.078
34.047
34.017
33.986
33.957
33.928
33.9
33.871
33.841
33.811
33.778
33.744
33.709
33.672
33.635
33.597
33.559
33.522
33.484
33.447
33.41
33.375
33.34
33.307
33.275
33.244
33.215
33.187
33.16
33.133
33.106
33.078
33.048
33.017
32.985
32.952
32.92
32.889
32.859
32.831
32.805
32.783
32.763
32.748
32.739
32.736
32.742
32.76
32.792
32.841
32.909
32.999
33.112
33.247
33.405
33.585
33.79
34.019
34.275
34.554
34.856
35.176
35.508
35.844
36.18
36.506
36.817
37.107
37.369
37.602
37.801
37.964
38.093
38.188
38.251
38.285
38.293
38.279
38.247
38.201
38.143
38.076
38.003
37.924
37.843
37.761
37.678
37.595
37.514
37.436
37.362
37.291
37.222
37.153
37.085
37.015
36.945
36.873
36.802
36.731
36.662
36.596
36.533
36.471
36.411
36.353
36.295
36.239
36.184
36.129
36.077
36.026
35.979
35.934
35.89
35.849
35.81
35.775
35.742
35.713
35.689
35.67
35.656
35.649
35.646
35.648
35.652
35.656
35.66
35.663
35.662
35.659
35.654
35.647
35.637
35.624
35.608
35.59
35.568
35.544
35.519
35.491
35.461
35.429
35.396
35.36
35.322
35.281
35.239
35.195
35.151
35.107
35.064
35.021
34.98
34.939
34.898
34.855
34.811
34.765
34.718
34.671
34.624
34.577
34.532
34.489
34.447
34.406
34.368
34.331
34.295
34.261
34.227
34.193
34.159
34.124
34.087
34.048
34.007
33.965
33.922
33.878
33.835
33.791
33.748
33.707
33.667
33.627
33.587
33.549
33.511
33.474
33.438
33.402
33.365
33.329
33.292
33.255
33.217
33.177
33.138
33.101
33.067
33.035
33.004
32.973
32.943
32.913
32.881
32.85
32.818
32.787
32.757
32.729
32.704
32.683
32.667
32.658
32.655
32.66
32.674
32.699
32.738
32.792
32.865
32.957
33.07
33.205
33.365
33.551
33.768
34.016
34.297
34.61
34.951
35.317
35.7
36.094
36.491
36.881
37.255
37.604
37.921
38.201
38.439
38.634
38.786
38.895
38.965
38.998
39.0
38.974
38.925
38.855
38.771
38.677
38.576
38.471
38.365
38.26
38.159
38.062
37.97
37.881
37.796
37.714
37.635
37.559
37.485
37.413
37.342
37.274
37.207
37.14
37.073
37.006
36.938
36.869
36.8
36.73
36.661
36.593
36.527
36.464
36.403
36.344
36.287
36.233
36.181
36.131
36.084
36.041
36.002
35.968
35.939
35.915
35.897
35.884
35.876
35.872
35.87
35.87
35.87
35.87
35.868
35.862
35.851
35.835
35.814
35.788
35.759
35.726
35.691
35.655
35.617
35.579
35.54
35.5
35.46
35.419
35.379
35.34
35.301
35.264
35.228
35.192
35.155
35.114
35.071
35.025
34.978
34.928
34.877
34.826
34.775
34.724
34.675
34.626
34.578
34.532
34.488
34.444
34.402
34.359
34.315
34.271
34.227
34.179
34.127
34.071
34.013
33.953
33.894
33.835
33.778
33.724
33.673
33.626
33.581
33.54
33.503
33.469
33.438
33.408
33.378
33.347
33.316
33.283
33.248
33.214
33.18
33.146
33.113
33.08
33.047
33.013
32.981
32.949
32.917
32.885
32.853
32.822
32.792
32.763
32.735
32.709
32.686
32.668
32.656
32.652
32.658
32.676
32.709
32.759
32.826
32.912
33.016
33.14
33.286
33.455
33.653
33.882
34.148
34.452
34.793
35.166
35.567
35.987
36.42
36.856
37.286
37.7
38.09
38.448
38.768
39.046
39.278
39.463
39.601
39.692
39.741
39.75
39.721
39.659
39.571
39.463
39.342
39.214
39.083
38.954
38.83
38.714
38.604
38.502
38.407
38.317
38.233
38.153
38.077
38.005
37.936
37.87
37.806
37.741
37.675
37.607
37.537
37.465
37.391
37.316
37.239
37.161
37.082
37.002
36.919
36.836
36.752
36.668
36.587
36.509
36.437
36.37
36.312
36.263
36.223
36.192
36.168
36.151
36.14
36.133
36.129
36.126
36.123
36.119
36.112
36.102
36.086
36.066
36.041
36.013
35.981
35.947
35.912
35.878
35.847
35.817
35.79
35.763
35.737
35.711
35.683
35.653
35.617
35.566
35.501
35.423
35.334
35.239
35.14
35.045
34.955
34.875
34.805
34.746
34.698
34.662
34.635
34.615
34.6
34.587
34.575
34.564
34.55
34.534
34.514
34.489
34.458
34.421
34.378
34.328
34.274
34.217
34.158
34.1
34.042
33.986
33.932
33.88
33.831
33.783
33.736
33.691
33.645
33.6
33.555
33.509
33.464
33.419
33.375
33.331
33.288
33.249
33.214
33.184
33.157
33.132
33.109
33.087
33.065
33.043
33.019
32.994
32.968
32.941
32.912
32.881
32.85
32.819
32.788
32.76
32.735
32.714
32.699
32.693
32.694
32.703
32.722
32.753
32.799
32.862
32.945
33.049
33.176
33.33
33.515
33.734
33.988
34.279
34.606
34.966
35.353
35.762
36.183
36.608
37.027
37.432
37.812
38.161
38.471
38.738
38.961
39.139
39.273
39.365
39.419
39.438
39.426
39.387
39.326
39.248
39.157
39.058
38.954
38.85
38.747
38.649
38.554
38.464
38.377
38.293
38.213
38.136
38.061
37.988
37.917
37.847
37.778
37.708
37.637
37.563
37.485
37.405
37.324
37.24
37.156
37.071
36.987
36.906
36.828
36.753
36.683
36.617
36.555
36.497
36.444
36.395
36.35
36.31
36.275
36.245
36.22
36.198
36.181
36.166
36.151
36.125
36.084
36.029
35.963
35.892
35.82
35.751
35.692
35.643
35.609
35.588
35.58
35.582
35.593
35.61
35.631
35.653
35.673
35.689
35.699
35.699
35.69
35.669
35.637
35.594
35.541
35.48
35.411
35.339
35.264
35.191
35.121
35.057
34.997
34.942
34.892
34.847
34.804
34.765
34.728
34.692
34.658
34.624
34.59
34.556
34.521
34.485
34.448
34.411
34.372
34.333
34.293
34.252
34.209
34.165
34.117
34.067
34.016
33.962
33.909
33.854
33.8
33.745
33.69
33.635
33.579
33.524
33.469
33.417
33.367
33.32
33.28
33.252
33.238
33.234
33.238
33.244
33.25
33.254
33.252
33.244
33.228
33.203
33.171
33.131
33.084
33.031
32.974
32.917
32.861
32.809
32.76
32.716
32.678
32.646
32.621
32.606
32.601
32.608
32.63
32.668
32.724
32.801
32.897
33.016
33.158
33.325
33.52
33.747
34.009
34.308
34.643
35.009
35.402
35.814
36.236
36.659
37.072
37.467
37.836
38.173
38.473
38.732
38.948
39.12
39.248
39.335
39.383
39.395
39.377
39.333
39.27
39.193
39.106
39.011
38.91
38.806
38.702
38.598
38.495
38.395
38.299
38.209
38.124
38.045
37.971
37.9
37.833
37.768
37.705
37.644
37.584
37.523
37.462
37.4
37.336
37.27
37.202
37.133
37.063
36.992
36.921
36.853
36.787
36.724
36.664
36.609
36.556
36.506
36.46
36.417
36.378
36.343
36.313
36.287
36.266
36.249
36.236
36.227
36.219
36.212
36.205
36.195
36.182
36.165
36.146
36.124
36.099
36.071
36.041
36.009
35.974
35.936
35.896
35.854
35.81
35.766
35.723
35.68
35.637
35.595
35.554
35.514
35.473
35.431
35.387
35.342
35.294
35.245
35.193
35.138
35.082
35.025
34.967
34.908
34.849
34.792
34.736
34.681
34.627
34.574
34.522
34.47
34.42
34.371
34.321
34.261
34.186
34.097
33.999
33.897
33.797
33.707
33.632
33.575
33.536
33.515
33.508
33.515
33.531
33.554
33.58
33.605
33.629
33.647
33.66
33.664
33.66
33.646
33.626
33.598
33.565
33.526
33.484
33.441
33.397
33.353
33.311
33.271
33.233
33.198
33.165
33.134
33.104
33.075
33.047
33.02
32.992
32.965
32.938
32.913
32.889
32.866
32.843
32.822
32.802
32.784
32.768
32.755
32.746
32.744
32.752
32.771
32.804
32.855
32.926
33.019
33.137
33.282
33.457
33.667
33.916
34.206
34.535
34.901
35.298
35.718
36.153
36.591
37.024
37.442
37.838
38.205
38.537
38.829
39.077
39.279
39.435
39.545
39.614
39.643
39.638
39.605
39.549
39.474
39.387
39.291
39.189
39.084
38.977
38.87
38.764
38.661
38.563
38.47
38.382
38.299
38.221
38.147
38.076
38.008
37.939
37.87
37.8
37.73
37.658
37.586
37.513
37.439
37.366
37.293
37.221
37.15
37.079
37.01
36.942
36.878
36.817
36.76
36.709
36.663
36.623
36.587
36.555
36.526
36.5
36.476
36.454
36.434
36.415
36.397
36.381
36.367
36.353
36.339
36.325
36.311
36.296
36.281
36.263
36.244
36.221
36.195
36.167
36.135
36.101
36.063
36.023
35.981
35.937
35.892
35.846
35.798
35.751
35.703
35.654
35.606
35.557
35.508
35.459
35.408
35.357
35.303
35.248
35.191
35.132
35.071
35.008
34.946
34.885
34.827
34.772
34.722
34.675
34.631
34.589
34.548
34.506
34.463
34.419
34.374
34.327
34.278
34.229
34.179
34.129
34.08
34.032
33.987
33.944
33.904
33.866
33.83
33.793
33.758
33.724
33.691
33.661
33.633
33.606
33.582
33.559
33.536
33.514
33.493
33.471
33.451
33.431
33.41
33.387
33.363
33.336
33.306
33.274
33.239
33.202
33.165
33.128
33.092
33.056
33.021
32.987
32.955
32.924
32.894
32.865
32.837
32.81
32.785
32.759
32.734
32.711
32.69
32.674
32.664
32.662
32.671
32.692
32.728
32.78
32.85
32.941
33.054
33.19
33.351
33.538
33.753
34.0
34.279
34.589
34.928
35.29
35.669
36.059
36.451
36.836
37.206
37.553
37.87
38.152
38.395
38.597
38.757
38.877
38.958
39.005
39.019
39.005
38.966
38.905
38.828
38.739
38.64
38.537
38.432
38.328
38.228
38.133
38.043
37.958
37.879
37.805
37.734
37.667
37.602
37.54
37.48
37.421
37.362
37.304
37.245
37.185
37.124
37.062
36.999
36.937
36.875
36.816
36.757
36.7
36.643
36.587
36.531
36.476
36.422
36.371
36.323
36.279
36.241
36.208
36.18
36.157
36.139
36.125
36.115
36.108
36.103
36.099
36.097
36.094
36.089
36.082
36.071
36.058
36.041
36.021
35.998
35.971
35.943
35.913
35.882
35.848
35.812
35.775
35.736
35.697
35.657
35.616
35.575
35.533
35.491
35.448
35.402
35.354
35.302
35.248
35.192
35.135
35.077
35.02
34.965
34.912
34.86
34.81
34.763
34.717
34.674
34.632
34.59
34.55
34.51
34.469
34.427
34.381
34.333
34.283
34.233
34.182
34.132
34.083
34.037
33.994
33.953
33.913
33.873
33.833
33.792
33.751
33.71
33.668
33.626
33.583
33.542
33.5
33.459
33.417
33.377
33.338
33.301
33.266
33.233
33.202
33.173
33.147
33.122
33.098
33.073
33.048
33.022
32.996
32.969
32.942
32.914
32.885
32.857
32.829
32.801
32.776
32.753
32.733
32.717
32.705
32.699
32.702
32.712
32.732
32.764
32.81
32.87
32.948
33.045
33.16
33.297
33.454
33.634
33.837
34.065
34.317
34.594
34.894
35.211
35.541
35.875
36.209
36.533
36.842
37.13
37.39
37.618
37.812
37.971
38.093
38.181
38.235
38.259
38.257
38.234
38.194
38.141
38.079
38.012
37.941
37.869
37.795
37.721
37.649
37.579
37.511
37.444
37.379
37.314
37.25
37.186
37.121
37.056
36.99
36.923
36.854
36.784
36.712
36.639
36.566
36.496
36.428
36.362
36.298
36.238
36.18
36.124
36.071
36.019
35.971
35.925
35.882
35.844
35.81
35.78
35.755
35.735
35.719
35.707
35.697
35.69
35.686
35.684
35.684
35.685
35.687
35.689
35.692
35.693
35.691
35.685
35.676
35.663
35.647
35.627
35.606
35.583
35.561
35.54
35.518
35.495
35.472
35.448
35.423
35.396
35.367
35.336
35.302
35.266
35.227
35.184
35.138
35.088
35.033
34.975
34.914
34.851
34.788
34.725
34.665
34.608
34.552
34.5
34.45
34.404
34.361
34.321
34.284
34.248
34.214
34.18
34.145
34.109
34.071
34.034
33.996
33.958
33.92
33.883
33.846
33.81
33.774
33.739
33.704
33.671
33.64
33.61
33.58
33.549
33.517
33.484
33.449
33.414
33.378
33.342
33.308
33.277
33.247
33.22
33.194
33.168
33.144
33.12
33.096
33.071
33.047
33.023
32.999
32.976
32.954
32.936
32.924
32.92
32.926
32.942
32.971
33.013
33.069
33.14
33.226
33.329
33.448
33.588
33.749
33.936
34.152
34.4
34.679
34.989
35.325
35.682
36.054
36.434
36.815
37.189
37.548
37.885
38.196
38.475
38.719
38.925
39.09
39.215
39.301
39.35
39.365
39.35
39.308
39.246
39.168
39.078
38.98
38.878
38.775
38.673
38.575
38.481
38.392
38.309
38.232
38.16
38.092
38.028
37.966
37.904
37.842
37.779
37.713
37.643
37.571
37.497
37.421
37.343
37.262
37.18
37.097
37.016
36.935
36.858
36.785
36.716
36.653
36.595
36.542
36.494
36.451
36.413
36.381
36.353
36.329
36.308
36.291
36.275
36.261
36.248
36.234
36.219
36.204
36.189
36.174
36.157
36.139
36.121
36.103
36.087
36.082
36.089
36.108
36.135
36.164
36.191
36.211
36.22
36.215
36.194
36.156
36.103
36.035
35.955
35.866
35.77
35.669
35.568
35.468
35.374
35.286
35.207
35.137
35.076
35.024
34.979
34.939
34.902
34.867
34.833
34.799
34.764
34.728
34.691
34.652
34.613
34.573
34.532
34.489
34.447
34.404
34.362
34.32
34.278
34.237
34.195
34.152
34.109
34.064
34.019
33.974
33.929
33.884
33.84
33.797
33.755
33.714
33.673
33.633
33.594
33.556
33.519
33.485
33.451
33.418
33.385
33.352
33.319
33.286
33.253
33.221
33.19
33.161
33.135
33.112
33.092
33.076
33.064
33.057
33.054
33.058
33.071
33.093
33.127
33.174
33.236
33.315
33.412
33.53
33.671
33.838
34.036
34.269
34.539
34.846
35.188
35.56
35.955
36.366
36.784
37.2
37.604
37.988
38.345
38.67
38.957
39.203
39.406
39.566
39.684
39.762
39.804
39.815
39.799
39.762
39.708
39.641
39.563
39.478
39.388
39.295
39.202
39.109
39.018
38.93
38.848
38.771
38.698
38.629
38.561
38.493
38.424
38.354
38.28
38.204
38.127
38.05
37.972
37.895
37.819
37.743
37.668
37.595
37.522
37.45
37.38
37.314
37.251
37.191
37.135
37.082
37.033
36.986
36.943
36.902
36.865
36.832
36.802
36.777
36.755
36.737
36.721
36.709
36.699
36.69
36.681
36.671
36.66
36.648
36.635
36.622
36.607
36.59
36.571
36.549
36.525
36.496
36.465
36.432
36.396
36.358
36.319
36.277
36.233
36.187
36.139
36.088
36.033
35.977
35.919
35.861
35.804
35.745
35.687
35.628
35.569
35.511
35.452
35.393
35.335
35.277
35.22
35.164
35.108
35.054
35.003
34.954
34.909
34.867
34.827
34.79
34.755
34.721
34.686
34.65
34.613
34.574
34.535
34.496
34.458
34.421
34.385
34.352
34.319
34.287
34.255
34.224
34.194
34.165
34.138
34.112
34.087
34.062
34.039
34.015
33.989
33.963
33.936
33.907
33.877
33.845
33.812
33.78
33.749
33.719
33.69
33.662
33.634
33.607
33.581
33.555
33.531
33.509
33.493
33.485
33.487
33.501
33.529
33.573
33.635
33.714
33.814
33.935
34.081
34.258
34.469
34.719
35.009
35.34
35.712
36.12
36.559
37.019
37.495
37.975
38.451
38.914
39.355
39.764
40.137
40.468
40.754
40.992
41.181
41.324
41.421
41.477
41.496
41.481
41.44
41.376
41.295
41.201
41.098
40.987
40.873
40.759
40.645
40.535
40.429
40.335
40.255
40.189
40.132
40.082
40.034
39.984
39.929
39.867
39.796
39.715
39.626
39.528
39.423
39.313
39.199
39.081
38.962
38.843
38.727
38.615
