Trial 3:3back
34.342
34.313
34.284
34.255
34.226
34.197
34.168
34.141
34.115
34.092
34.071
34.054
34.039
34.026
34.014
34.003
33.991
33.98
33.967
33.953
33.934
33.91
33.882
33.852
33.821
33.79
33.761
33.734
33.711
33.691
33.676
33.665
33.657
33.65
33.643
33.634
33.622
33.606
33.585
33.561
33.535
33.506
33.477
33.446
33.416
33.386
33.357
33.33
33.306
33.285
33.268
33.255
33.244
33.235
33.227
33.22
33.214
33.206
33.197
33.186
33.171
33.154
33.135
33.113
33.091
33.066
33.041
33.014
32.985
32.956
32.928
32.902
32.877
32.854
32.835
32.818
32.806
32.798
32.795
32.796
32.8
32.807
32.813
32.82
32.825
32.829
32.83
32.828
32.823
32.815
32.806
32.796
32.788
32.786
32.793
32.815
32.854
32.915
33.002
33.116
33.26
33.434
33.637
33.868
34.122
34.398
34.69
34.995
35.309
35.625
35.94
36.249
36.546
36.83
37.097
37.346
37.575
37.783
37.971
38.138
38.285
38.413
38.524
38.619
38.699
38.765
38.821
38.866
38.903
38.933
38.956
38.973
38.987
38.997
39.005
39.009
39.009
39.006
39.0
38.991
38.981
38.97
38.958
38.945
38.933
38.921
38.909
38.896
38.883
38.869
38.851
38.831
38.805
38.774
38.735
38.689
38.636
38.577
38.514
38.447
38.377
38.304
38.229
38.151
38.072
37.99
37.907
37.823
37.738
37.654
37.571
37.492
37.417
37.347
37.284
37.225
37.172
37.124
37.08
37.038
36.998
36.958
36.918
36.877
36.837
36.798
36.76
36.724
36.689
36.656
36.624
36.593
36.563
36.533
36.502
36.469
36.434
36.395
36.354
36.31
36.264
36.216
36.166
36.113
36.059
36.006
35.954
35.903
35.853
35.805
35.756
35.706
35.655
35.603
35.548
35.492
35.434
35.377
35.32
35.263
35.208
35.155
35.104
35.055
35.007
34.961
34.917
34.874
34.834
34.795
34.757
34.72
34.684
34.649
34.616
34.585
34.556
34.529
34.505
34.484
34.465
34.448
34.433
34.419
34.404
34.387
34.369
34.348
34.325
34.3
34.272
34.243
34.211
34.178
34.145
34.111
34.078
34.046
34.013
33.981
33.95
33.92
33.891
33.862
33.835
33.808
33.784
33.761
33.739
33.718
33.697
33.675
33.652
33.629
33.605
33.581
33.556
33.53
33.503
33.476
33.449
33.424
33.399
33.375
33.353
33.332
33.313
33.297
33.283
33.271
33.262
33.255
33.25
33.246
33.244
33.241
33.238
33.233
33.225
33.212
33.196
33.175
33.15
33.122
33.091
33.058
33.025
32.991
32.958
32.927
32.899
32.875
32.854
32.839
32.828
32.826
32.831
32.842
32.858
32.878
32.899
32.922
32.947
32.974
33.008
33.051
33.106
33.179
33.271
33.387
33.528
33.695
33.889
34.109
34.354
34.619
34.903
35.2
35.505
35.813
36.119
36.419
36.707
36.982
37.24
37.48
37.702
37.903
38.083
38.242
38.38
38.497
38.596
38.677
38.743
38.795
38.836
38.868
38.892
38.909
38.92
38.923
38.921
38.912
38.898
38.88
38.858
38.836
38.814
38.794
38.776
38.761
38.749
38.738
38.727
38.714
38.698
38.677
38.651
38.621
38.588
38.552
38.515
38.476
38.436
38.394
38.35
38.302
38.249
38.189
38.122
38.048
37.967
37.88
37.789
37.697
37.605
37.516
37.431
37.353
37.28
37.214
37.153
37.098
37.047
37.0
36.957
36.915
36.876
36.837
36.8
36.763
36.727
36.691
36.656
36.622
36.588
36.555
36.522
36.488
36.453
36.416
36.378
36.337
36.294
36.25
36.204
36.156
36.107
36.055
36.001
35.945
35.887
35.827
35.767
35.707
35.648
35.592
35.539
35.488
35.441
35.396
35.352
35.309
35.266
35.223
35.178
35.131
35.083
35.035
34.985
34.936
34.887
34.838
34.789
34.742
34.696
34.652
34.61
34.572
34.536
34.503
34.473
34.446
34.421
34.397
34.375
34.352
34.329
34.305
34.281
34.257
34.234
34.211
34.189
34.168
34.149
34.13
34.112
34.094
34.075
34.055
34.032
34.006
33.978
33.947
33.915
33.88
33.844
33.809
33.774
33.743
33.715
33.692
33.673
33.658
33.646
33.637
33.629
33.621
33.613
33.601
33.585
33.564
33.539
33.508
33.473
33.435
33.396
33.357
33.32
33.286
33.257
33.233
33.214
33.201
33.192
33.187
33.183
33.18
33.176
33.17
33.16
33.148
33.132
33.112
33.09
33.064
33.038
33.011
32.985
32.961
32.94
32.92
32.902
32.886
32.871
32.856
32.842
32.827
32.812
32.796
32.778
32.76
32.74
32.72
32.7
32.68
32.662
32.645
32.629
32.62
32.62
32.629
32.648
32.678
32.72
32.772
32.835
32.91
32.998
33.102
33.223
33.363
33.524
33.706
33.911
34.137
34.384
34.649
34.931
35.224
35.522
35.821
36.116
36.402
36.675
36.932
37.171
37.39
37.588
37.766
37.924
38.062
38.183
38.287
38.376
38.449
38.508
38.554
38.587
38.607
38.616
38.615
38.606
38.591
38.571
38.548
38.524
38.499
38.475
38.453
38.433
38.415
38.398
38.383
38.368
38.354
38.339
38.324
38.306
38.285
38.259
38.227
38.189
38.144
38.093
38.037
37.976
37.91
37.841
37.768
37.692
37.612
37.529
37.443
37.356
37.27
37.186
37.105
37.03
36.96
36.897
36.841
36.793
36.751
36.717
36.689
36.665
36.645
36.627
36.61
36.593
36.575
36.557
36.539
36.52
36.502
36.484
36.467
36.447
36.426
36.402
36.375
36.346
36.316
36.284
36.251
36.217
36.182
36.147
36.11
36.072
36.033
35.992
35.95
35.905
35.857
35.806
35.752
35.695
35.636
35.574
35.512
35.451
35.392
35.337
35.285
35.238
35.194
35.154
35.117
35.081
35.046
35.01
34.973
34.933
34.89
34.843
34.794
34.743
34.691
34.639
34.589
34.541
34.498
34.46
34.43
34.406
34.388
34.374
34.363
34.355
34.346
34.337
34.325
34.31
34.291
34.267
34.24
34.209
34.178
34.145
34.113
34.082
34.054
34.029
34.008
33.99
33.975
33.963
33.952
33.941
33.928
33.912
33.892
33.87
33.844
33.817
33.788
33.76
33.735
33.713
33.693
33.674
33.657
33.639
33.621
33.6
33.578
33.554
33.529
33.502
33.475
33.446
33.417
33.388
33.359
33.332
33.307
33.284
33.265
33.249
33.236
33.226
33.217
33.208
33.2
33.189
33.175
33.157
33.135
33.111
33.085
33.057
33.028
32.999
32.971
32.945
32.925
32.914
32.915
32.933
32.973
33.036
33.126
33.245
33.393
33.57
33.776
34.007
34.261
34.534
34.821
35.117
35.419
35.722
36.023
36.315
36.595
36.861
37.11
37.341
37.555
37.752
37.932
38.096
38.244
38.376
38.492
38.592
38.676
38.744
38.798
38.837
38.865
38.881
38.886
38.883
38.873
38.858
38.838
38.814
38.787
38.758
38.728
38.697
38.667
38.638
38.611
38.586
38.563
38.543
38.525
38.507
38.489
38.47
38.449
38.422
38.39
38.352
38.305
38.25
38.188
38.118
38.042
37.959
37.872
37.781
37.687
37.593
37.499
37.407
37.316
37.228
37.143
37.061
36.984
36.911
36.843
36.781
36.726
36.676
36.633
36.594
36.56
36.53
36.502
36.476
36.451
36.427
36.403
36.38
36.358
36.335
36.312
36.289
36.264
36.238
36.211
36.182
36.15
36.116
36.079
36.039
35.996
35.948
35.897
35.843
35.787
35.729
35.671
35.613
35.557
35.503
35.45
35.398
35.347
35.297
35.246
35.196
35.145
35.093
35.04
34.985
34.93
34.874
34.82
34.767
34.716
34.668
34.623
34.581
34.542
34.507
34.475
34.443
34.411
34.379
34.348
34.318
34.288
34.26
34.234
34.208
34.183
34.158
34.135
34.113
34.092
34.073
34.054
34.036
34.019
34.002
33.985
33.968
33.951
33.932
33.912
33.89
33.867
33.843
33.817
33.79
33.762
33.733
33.703
33.673
33.642
33.61
33.578
33.546
33.514
33.483
33.452
33.424
33.398
33.375
33.355
33.339
33.326
33.316
33.309
33.305
33.303
33.304
33.306
33.309
33.31
33.31
33.309
33.306
33.301
33.293
33.281
33.265
33.244
33.221
33.194
33.164
33.132
33.097
33.061
33.023
32.986
32.951
32.919
32.889
32.863
32.84
32.82
32.803
32.789
32.78
32.777
32.78
32.791
32.812
32.846
32.895
32.962
33.049
33.159
33.291
33.448
33.629
33.834
34.063
34.315
34.586
34.873
35.174
35.483
35.798
36.112
36.421
36.72
37.005
37.273
37.521
37.747
37.952
38.134
38.294
38.433
38.553
38.655
38.739
38.806
38.857
38.894
38.918
38.932
38.939
38.94
38.938
38.934
38.928
38.921
38.913
38.903
38.892
38.879
38.866
38.852
38.839
38.827
38.816
38.805
38.794
38.781
38.766
38.744
38.716
38.68
38.636
38.586
38.53
38.469
38.406
38.34
38.272
38.203
38.13
38.055
37.976
37.892
37.804
37.713
37.62
37.527
37.436
37.348
37.265
37.188
37.117
37.054
36.996
36.944
36.895
36.849
36.804
36.761
36.719
36.678
36.638
36.6
36.564
36.53
36.499
36.47
36.445
36.422
36.403
36.384
36.366
36.346
36.323
36.296
36.265
36.23
36.191
36.15
36.108
36.063
36.016
35.967
35.915
35.861
35.804
35.747
35.688
35.628
35.569
35.509
35.451
35.394
35.338
35.284
35.232
35.182
35.134
35.088
35.044
35.001
34.959
34.916
34.873
34.828
34.783
34.738
34.694
34.651
34.609
34.568
34.529
34.492
34.457
34.426
34.399
34.375
34.354
34.337
34.322
34.309
34.296
34.283
34.266
34.244
34.218
34.187
34.152
34.115
34.075
34.033
33.99
33.947
33.904
33.864
33.828
33.796
33.768
33.744
33.725
33.709
33.696
33.686
33.677
33.668
33.658
33.645
33.63
33.612
33.592
33.569
33.546
33.521
33.495
33.468
33.441
33.414
33.388
33.362
33.339
33.318
33.299
33.281
33.266
33.251
33.237
33.224
33.209
33.193
33.176
33.159
33.14
33.12
33.098
33.075
33.051
33.024
32.996
32.968
32.941
32.917
32.895
32.876
32.859
32.843
32.828
32.813
32.798
32.782
32.767
32.753
32.741
32.735
32.737
32.749
32.774
32.818
32.882
32.971
33.086
33.228
33.398
33.594
33.815
34.058
34.32
34.597
34.885
35.182
35.482
35.783
36.082
36.375
36.661
36.935
37.194
37.435
37.655
37.852
38.027
38.18
38.312
38.424
38.519
38.598
38.663
38.714
38.753
38.779
38.794
38.798
38.794
38.781
38.763
38.74
38.714
38.687
38.662
38.639
38.619
38.601
38.582
38.563
38.541
38.518
38.493
38.467
38.441
38.414
38.386
38.357
38.327
38.294
38.256
38.213
38.163
38.105
38.039
37.965
37.884
37.797
37.706
37.615
37.523
37.433
37.346
37.262
37.182
37.105
37.032
36.962
36.896
36.833
36.774
36.718
36.666
36.618
36.575
36.536
36.503
36.474
36.451
36.431
36.414
36.398
36.381
36.363
36.342
36.317
36.289
36.257
36.221
36.18
36.136
36.089
36.038
35.986
35.932
35.877
35.823
35.768
35.714
35.661
35.61
35.562
35.514
35.467
35.419
35.37
35.319
35.266
35.213
35.159
35.106
35.053
35.002
34.953
34.908
34.866
34.827
34.792
34.76
34.73
34.701
34.673
34.645
34.614
34.582
34.547
34.511
34.474
34.438
34.402
34.369
34.337
34.307
34.279
34.251
34.225
34.2
34.176
34.152
34.128
34.105
34.08
34.056
34.031
34.006
33.982
33.959
33.939
33.92
33.902
33.886
33.87
33.853
33.835
33.814
33.792
33.769
33.747
33.724
33.703
33.683
33.665
33.648
33.632
33.617
33.604
33.591
33.578
33.565
33.551
33.534
33.515
33.491
33.464
33.433
33.4
33.365
33.33
33.297
33.266
33.24
33.217
33.198
33.183
33.171
33.163
33.157
33.152
33.148
33.144
33.139
33.131
33.12
33.105
33.086
33.062
33.034
33.002
32.969
32.936
32.905
32.877
32.852
32.831
32.816
32.806
32.802
32.807
32.82
32.844
32.881
32.933
33.004
33.094
33.204
33.336
33.49
33.665
33.862
34.079
34.315
34.566
34.83
35.103
35.381
35.66
35.936
36.205
36.465
36.712
36.943
37.157
37.352
37.528
37.686
37.826
37.948
38.053
38.14
38.211
38.266
38.306
38.331
38.343
38.343
38.335
38.319
38.297
38.271
38.242
38.211
38.179
38.146
38.113
38.08
38.048
38.015
37.982
37.949
37.916
37.883
37.848
37.813
37.774
37.732
37.684
37.63
37.567
37.491
37.404
37.309
37.208
37.104
37.001
36.9
36.804
36.714
36.631
36.555
36.487
36.425
36.371
36.324
36.282
36.245
36.213
36.185
36.16
36.138
36.118
36.1
36.084
36.071
36.058
36.048
36.037
36.027
36.017
36.006
35.993
35.976
35.956
35.932
35.903
35.869
35.832
35.792
35.749
35.704
35.658
35.612
35.566
35.52
35.475
35.431
35.386
35.342
35.296
35.25
35.201
35.15
35.097
35.041
34.984
34.924
34.861
34.795
34.728
34.663
34.6
34.542
34.489
34.442
34.4
34.363
34.328
34.296
34.265
34.234
34.205
34.177
34.15
34.124
34.101
34.082
34.066
34.054
34.045
34.039
34.033
34.028
34.02
34.01
33.996
33.977
33.955
33.93
33.901
33.871
33.84
33.81
33.782
33.756
33.733
33.713
33.696
33.681
33.668
33.655
33.642
33.627
33.61
33.592
33.573
33.554
33.535
33.516
33.499
33.483
33.468
33.455
33.442
33.43
33.417
33.401
33.383
33.362
33.339
33.314
33.29
33.267
33.245
33.225
33.205
33.188
33.174
33.162
33.153
33.144
33.136
33.127
33.115
33.1
33.082
33.06
33.035
33.008
32.979
32.95
32.92
32.891
32.864
32.839
32.817
32.797
32.78
32.767
32.756
32.748
32.742
32.738
32.735
32.733
32.733
32.736
32.744
32.76
32.787
32.828
32.889
32.972
33.081
33.218
33.383
33.577
33.799
34.045
34.314
34.602
34.903
35.214
35.527
35.84
36.147
36.446
36.734
37.01
37.27
37.514
37.739
37.945
38.132
38.299
38.447
38.576
38.689
38.785
38.864
38.928
38.977
39.011
39.031
39.041
39.042
39.037
39.027
39.014
39.001
38.987
38.973
38.958
38.941
38.921
38.9
38.878
38.854
38.83
38.806
38.782
38.757
38.732
38.704
38.674
38.64
38.602
38.56
38.514
38.463
38.408
38.349
38.285
38.217
38.144
38.067
37.985
37.898
37.809
37.716
37.621
37.526
37.432
37.339
37.25
37.165
37.085
37.011
36.943
36.882
36.826
36.775
36.728
36.686
36.649
36.616
36.586
36.56
36.536
36.512
36.489
36.465
36.438
36.409
36.377
36.341
36.302
36.261
36.218
36.174
36.13
36.087
36.045
36.004
35.963
35.922
35.88
35.835
35.787
35.735
35.679
35.62
35.557
35.491
35.423
35.356
35.29
35.227
35.167
35.113
35.063
35.017
34.974
34.933
34.893
34.852
34.81
34.767
34.721
34.675
34.629
34.585
34.544
34.507
34.473
34.443
34.417
34.395
34.376
34.36
34.346
34.332
34.317
34.3
34.281
34.259
34.234
34.206
34.175
34.142
34.109
34.076
34.045
34.016
33.991
33.969
33.95
33.933
33.918
33.906
33.895
33.884
33.873
33.859
33.843
33.823
33.799
33.771
33.74
33.705
33.668
33.629
33.59
33.552
33.515
33.482
33.453
33.428
33.408
33.393
33.382
33.374
33.368
33.364
33.358
33.349
33.334
33.312
33.284
33.253
33.218
33.184
33.149
33.117
33.086
33.059
33.035
33.014
32.997
32.983
32.971
32.962
32.954
32.948
32.942
32.935
32.926
32.915
32.903
32.89
32.877
32.863
32.851
32.84
32.832
32.828
32.832
32.844
32.87
32.91
32.969
33.049
33.153
33.284
33.442
33.627
33.838
34.074
34.332
34.608
34.899
35.2
35.507
35.814
36.117
36.412
36.694
36.962
37.213
37.446
37.659
37.853
38.027
38.182
38.319
38.44
38.544
38.634
38.708
38.769
38.816
38.85
38.872
38.884
38.887
38.883
38.874
38.86
38.842
38.822
38.801
38.777
38.753
38.726
38.699
38.669
38.639
38.608
38.577
38.547
38.517
38.486
38.455
38.421
38.384
38.343
38.296
38.245
38.189
38.128
38.063
37.992
37.918
37.841
37.761
37.679
37.595
37.511
37.426
37.341
37.256
37.173
37.092
37.015
36.943
36.877
36.816
36.76
36.71
36.664
36.621
36.58
36.539
36.499
36.461
36.425
36.39
36.357
36.326
36.295
36.266
36.238
36.211
36.184
36.157
36.128
36.097
36.064
36.028
35.99
35.95
35.907
35.863
35.819
35.774
35.729
35.684
35.637
35.589
35.539
35.485
35.429
35.371
35.309
35.245
35.18
35.114
35.05
34.989
34.933
34.884
34.841
34.803
34.77
34.74
34.712
34.685
34.656
34.624
34.59
34.552
34.512
34.47
34.428
34.387
34.345
34.305
34.266
34.228
34.194
34.162
34.134
34.108
34.086
34.067
34.049
34.032
34.014
33.994
33.972
33.947
33.918
33.885
33.85
33.812
33.772
33.73
33.688
33.645
33.603
33.564
33.527
33.493
33.463
33.437
33.414
33.394
33.376
33.36
33.345
33.33
33.314
33.296
33.277
33.256
33.234
33.21
33.186
33.162
33.137
33.113
33.091
33.07
33.052
33.037
33.025
33.016
33.009
33.004
33.0
32.996
32.99
32.983
32.974
32.961
32.946
32.927
32.905
32.882
32.859
32.836
32.814
32.794
32.775
32.756
32.739
32.721
32.703
32.684
32.663
32.642
32.62
32.598
32.577
32.558
32.544
32.536
32.537
32.55
32.576
32.62
32.682
32.766
32.871
33.0
33.153
33.33
33.53
33.752
33.993
34.253
34.53
34.819
35.119
35.425
35.731
36.034
36.327
36.606
36.868
37.111
37.335
37.537
37.718
37.879
38.021
38.144
38.249
38.335
38.403
38.455
38.49
38.51
38.516
38.511
38.497
38.476
38.451
38.426
38.4
38.377
38.357
38.34
38.325
38.311
38.298
38.285
38.273
38.262
38.25
38.236
38.219
38.199
38.175
38.147
38.113
38.073
38.026
37.973
37.914
37.849
37.78
37.706
37.629
37.549
37.467
37.382
37.294
37.205
37.115
37.026
36.938
36.852
36.771
36.695
36.624
36.558
36.499
36.446
36.399
36.358
36.324
36.294
36.268
36.245
36.225
36.207
36.191
36.175
36.159
36.144
36.127
36.11
36.091
36.069
36.046
36.02
35.992
35.961
35.929
35.896
35.86
35.824
35.786
35.746
35.706
35.664
35.62
35.575
35.528
35.478
35.428
35.376
35.324
35.272
35.219
35.167
35.116
35.065
35.016
34.968
34.92
34.874
34.828
34.785
34.743
34.703
34.666
34.631
34.599
34.57
34.542
34.516
34.492
34.469
34.446
34.424
34.401
34.377
34.352
34.325
34.297
34.268
34.238
34.208
34.178
34.149
34.121
34.093
34.065
34.036
34.007
33.977
33.947
33.918
33.889
33.861
33.835
33.812
33.792
33.776
33.762
33.75
33.741
33.734
33.727
33.721
33.713
33.703
33.693
33.679
33.663
33.644
33.622
33.598
33.575
33.552
33.532
33.514
33.5
33.487
33.477
33.467
33.456
33.442
33.426
33.404
33.377
33.347
33.314
33.28
33.245
33.212
33.18
33.15
33.124
33.102
33.083
33.067
33.054
33.042
33.03
33.019
33.006
32.993
32.978
32.962
32.946
32.93
32.912
32.893
32.877
32.869
32.875
32.902
32.955
33.039
33.157
33.31
33.497
33.716
33.961
34.23
34.515
34.813
35.118
35.424
35.726
36.022
36.306
36.577
36.831
37.067
37.282
37.477
37.65
37.802
37.934
38.047
38.142
38.22
38.285
38.336
38.375
38.404
38.422
38.429
38.427
38.415
38.397
38.372
38.341
38.306
38.269
38.229
38.188
38.147
38.104
38.06
38.015
37.97
37.923
37.874
37.824
37.771
37.717
37.662
37.606
37.549
37.488
37.424
37.356
37.284
37.208
37.127
37.042
36.955
36.866
36.777
36.69
36.606
36.526
36.451
36.383
36.322
36.269
36.224
36.187
36.156
36.131
36.11
36.094
36.08
36.068
36.058
36.048
36.039
36.028
36.017
36.004
35.989
35.971
35.953
35.933
35.911
35.889
35.864
35.837
35.808
35.776
35.743
35.708
35.672
35.633
35.594
35.552
35.509
35.465
35.418
35.37
35.319
35.266
35.209
35.151
35.091
35.029
34.968
34.907
34.847
34.79
34.735
34.684
34.635
34.588
34.542
34.497
34.453
34.41
34.368
34.327
34.29
34.254
34.221
34.191
34.163
34.138
34.115
34.094
34.074
34.055
34.035
34.014
33.99
33.964
33.935
33.904
33.872
33.84
33.81
33.783
33.76
33.741
33.727
33.717
33.71
33.706
33.701
33.696
33.688
33.678
33.664
33.645
33.623
33.598
33.569
33.538
33.506
33.473
33.441
33.412
33.385
33.362
33.341
33.322
33.305
33.29
33.273
33.255
33.234
33.21
33.183
33.155
33.127
33.1
33.075
33.052
33.032
33.013
32.997
32.983
32.971
32.961
32.951
32.942
32.932
32.92
32.908
32.896
32.884
32.873
32.862
32.852
32.842
32.833
32.824
32.814
32.804
32.793
32.779
32.763
32.745
32.726
32.708
32.692
32.683
32.682
32.695
32.724
32.776
32.853
32.958
33.092
33.256
33.449
33.669
33.912
34.174
34.452
34.741
35.039
35.343
35.649
35.954
36.255
36.548
36.829
37.096
37.348
37.583
37.802
38.001
38.182
38.342
38.481
38.6
38.699
38.779
38.841
38.886
38.917
38.935
38.94
38.937
38.925
38.906
38.883
38.856
38.826
38.795
38.763
38.731
38.7
38.67
38.641
