Trial 3:3back
36.148
36.084
36.02
35.959
35.899
35.84
35.783
35.727
35.674
35.624
35.576
35.532
35.491
35.453
35.418
35.386
35.357
35.329
35.302
35.276
35.25
35.224
35.197
35.171
35.146
35.12
35.095
35.07
35.047
35.026
35.008
34.993
34.981
34.972
34.966
34.963
34.962
34.965
34.968
34.974
34.981
34.99
35.0
35.012
35.025
35.038
35.051
35.063
35.074
35.082
35.09
35.095
35.1
35.103
35.105
35.107
35.107
35.105
35.102
35.096
35.087
35.076
35.064
35.049
35.033
35.016
34.998
34.979
34.96
34.94
34.921
34.901
34.88
34.858
34.835
34.811
34.786
34.762
34.737
34.711
34.685
34.66
34.634
34.61
34.585
34.561
34.538
34.515
34.493
34.471
34.45
34.43
34.41
34.39
34.369
34.348
34.328
34.307
34.287
34.269
34.252
34.236
34.222
34.209
34.197
34.186
34.176
34.167
34.158
34.15
34.142
34.134
34.126
34.118
34.11
34.1
34.09
34.08
34.068
34.056
34.045
34.034
34.023
34.013
34.004
33.995
33.986
33.978
33.97
33.963
33.958
33.955
33.955
33.961
33.973
33.994
34.025
34.069
34.126
34.199
34.287
34.391
34.509
34.642
34.788
34.944
35.11
35.283
35.46
35.639
35.816
35.991
36.158
36.317
36.465
36.599
36.719
36.824
36.912
36.985
37.041
37.082
37.108
37.12
37.12
37.108
37.086
37.056
37.019
36.976
36.928
36.875
36.818
36.758
36.695
36.63
36.564
36.496
36.429
36.361
36.294
36.228
36.164
36.102
36.044
35.989
35.939
35.893
35.85
35.81
35.774
35.739
35.707
35.676
35.646
35.617
35.589
35.561
35.532
35.503
35.474
35.443
35.411
35.377
35.343
35.308
35.274
35.24
35.21
35.183
35.16
35.141
35.126
35.115
35.108
35.104
35.103
35.105
35.11
35.116
35.125
35.134
35.145
35.156
35.168
35.179
35.191
35.201
35.21
35.216
35.22
35.22
35.217
35.211
35.202
35.191
35.178
35.163
35.146
35.129
35.111
35.091
35.071
35.05
35.029
35.008
34.987
34.965
34.944
34.922
34.902
34.881
34.861
34.841
34.821
34.8
34.779
34.757
34.733
34.709
34.683
34.657
34.63
34.604
34.578
34.553
34.53
34.507
34.485
34.463
34.443
34.424
34.405
34.387
34.369
34.352
34.334
34.317
34.3
34.283
34.266
34.249
34.232
34.216
34.201
34.185
34.169
34.153
34.137
34.12
34.104
34.087
34.072
34.057
34.045
34.033
34.024
34.016
34.009
34.003
33.995
33.986
33.975
33.961
33.945
33.927
33.909
33.89
33.874
33.862
33.855
33.856
33.868
33.893
33.932
33.988
34.061
34.152
34.262
34.39
34.534
34.693
34.865
35.048
35.239
35.434
35.63
35.824
36.014
36.196
36.367
36.525
36.667
36.793
36.902
36.993
37.065
37.121
37.159
37.182
37.19
37.184
37.167
37.139
37.102
37.057
37.006
36.95
36.89
36.827
36.763
36.697
36.631
36.565
36.499
36.433
36.37
36.307
36.247
36.19
36.135
36.082
36.032
35.984
35.939
35.895
35.852
35.811
35.772
35.735
35.699
35.665
35.632
35.601
35.572
35.544
35.517
35.49
35.464
35.439
35.413
35.388
35.363
35.339
35.318
35.298
35.281
35.267
35.257
35.25
35.246
35.247
35.253
35.261
35.273
35.288
35.304
35.322
35.339
35.357
35.373
35.388
35.401
35.412
35.421
35.427
35.432
35.435
35.438
35.439
35.438
35.437
35.433
35.428
35.421
35.412
35.402
35.39
35.375
35.358
35.339
35.318
35.296
35.272
35.247
35.221
35.194
35.166
35.137
35.107
35.077
35.047
35.016
34.986
34.956
34.928
34.901
34.874
34.849
34.825
34.802
34.781
34.76
34.742
34.725
34.709
34.695
34.682
34.669
34.656
34.642
34.627
34.611
34.593
34.574
34.554
34.533
34.511
34.488
34.465
34.442
34.42
34.398
34.377
34.356
34.336
34.316
34.296
34.275
34.255
34.234
34.213
34.191
34.169
34.147
34.126
34.105
34.086
34.068
34.052
34.037
34.024
34.012
34.003
33.998
33.997
34.004
34.021
34.049
34.09
34.147
34.221
34.312
34.423
34.551
34.697
34.858
35.032
35.217
35.409
35.606
35.804
36.001
36.192
36.375
36.547
36.707
36.853
36.983
37.096
37.191
37.27
37.331
37.375
37.403
37.415
37.414
37.399
37.373
37.337
37.292
37.24
37.182
37.119
37.052
36.982
36.91
36.838
36.765
36.692
36.621
36.55
36.481
36.413
36.348
36.285
36.226
36.17
36.117
36.068
36.023
35.982
35.945
35.91
35.879
35.849
35.82
35.792
35.762
35.732
35.702
35.67
35.639
35.608
35.576
35.546
35.517
35.489
35.464
35.442
35.424
35.409
35.397
35.389
35.384
35.382
35.383
35.386
35.391
35.399
35.407
35.417
35.428
35.439
35.451
35.462
35.473
35.484
35.494
35.504
35.511
35.517
35.522
35.524
35.525
35.523
35.519
35.512
35.503
35.491
35.476
35.459
35.439
35.416
35.391
35.364
35.337
35.308
35.28
35.251
35.222
35.192
35.162
35.131
35.101
35.07
35.039
35.008
34.977
34.946
34.914
34.882
34.851
34.82
34.79
34.761
34.733
34.707
34.682
34.659
34.637
34.616
34.595
34.575
34.554
34.534
34.513
34.493
34.471
34.449
34.426
34.402
34.378
34.353
34.329
34.306
34.283
34.261
34.241
34.221
34.203
34.185
34.169
34.153
34.139
34.125
34.112
34.099
34.086
34.074
34.061
34.048
34.034
34.021
34.009
33.999
33.991
33.987
33.987
33.995
34.012
34.041
34.082
34.139
34.213
34.304
34.414
34.542
34.687
34.848
35.024
35.212
35.41
35.613
35.819
36.024
36.226
36.423
36.611
36.788
36.954
37.105
37.242
37.362
37.465
37.55
37.618
37.668
37.701
37.718
37.721
37.712
37.691
37.66
37.62
37.573
37.521
37.463
37.401
37.336
37.269
37.201
37.133
37.066
36.999
36.934
36.87
36.808
36.748
36.69
36.635
36.583
36.534
36.488
36.444
36.402
36.362
36.323
36.287
36.252
36.219
36.187
36.157
36.127
36.098
36.069
36.04
36.01
35.98
35.951
35.921
35.892
35.863
35.835
35.808
35.784
35.761
35.741
35.725
35.711
35.7
35.691
35.685
35.68
35.677
35.676
35.676
35.678
35.683
35.689
35.698
35.707
35.718
35.729
35.739
35.748
35.756
35.761
35.764
35.764
35.76
35.753
35.742
35.73
35.715
35.698
35.68
35.661
35.64
35.618
35.595
35.57
35.543
35.515
35.485
35.454
35.421
35.386
35.351
35.314
35.277
35.238
35.199
35.161
35.122
35.085
35.049
35.015
34.981
34.948
34.917
34.887
34.858
34.832
34.807
34.783
34.76
34.737
34.714
34.69
34.666
34.642
34.617
34.593
34.569
34.546
34.524
34.502
34.482
34.462
34.444
34.426
34.409
34.392
34.376
34.361
34.345
34.329
34.313
34.297
34.281
34.264
34.248
34.231
34.213
34.196
34.178
34.161
34.145
34.132
34.121
34.114
34.113
34.12
34.137
34.167
34.211
34.272
34.351
34.449
34.566
34.702
34.856
35.027
35.211
35.407
35.611
35.819
36.03
36.24
36.445
36.643
36.829
37.002
37.16
37.3
37.423
37.527
37.613
37.68
37.728
37.759
37.773
37.771
37.754
37.725
37.685
37.636
37.58
37.518
37.451
37.381
37.309
37.236
37.162
37.088
37.015
36.943
36.872
36.805
36.74
36.679
36.621
36.566
36.513
36.463
36.416
36.371
36.328
36.286
36.246
36.208
36.17
36.133
36.096
36.059
36.022
35.985
35.949
35.912
35.877
35.842
35.808
35.774
35.741
35.71
35.679
35.649
35.621
35.594
35.57
35.548
35.53
35.515
35.505
35.498
35.494
35.494
35.496
35.501
35.507
35.514
35.522
35.53
35.539
35.547
35.555
35.56
35.564
35.566
35.566
35.563
35.558
35.55
35.54
35.527
35.511
35.492
35.471
35.447
35.421
35.393
35.363
35.332
35.299
35.265
35.23
35.195
35.159
35.124
35.09
35.057
35.025
34.993
34.961
34.93
34.898
34.867
34.837
34.807
34.779
34.752
34.726
34.7
34.675
34.65
34.625
34.601
34.576
34.55
34.526
34.501
34.478
34.456
34.435
34.415
34.396
34.378
34.361
34.344
34.327
34.31
34.293
34.275
34.258
34.24
34.221
34.203
34.185
34.167
34.149
34.13
34.113
34.096
34.08
34.066
34.053
34.042
34.03
34.019
34.007
33.994
33.98
33.966
33.952
33.939
33.928
33.922
33.923
33.933
33.954
33.989
34.038
34.104
34.187
34.289
34.411
34.55
34.707
34.879
35.065
35.26
35.463
35.669
35.874
36.077
36.272
36.458
36.631
36.788
36.929
37.051
37.154
37.238
37.303
37.35
37.381
37.395
37.395
37.382
37.358
37.323
37.281
37.232
37.179
37.122
37.064
37.004
36.942
36.88
36.817
36.753
36.688
36.622
36.556
36.489
36.422
36.354
36.287
36.222
36.159
36.099
36.042
35.99
35.942
35.898
35.858
35.821
35.787
35.756
35.727
35.699
35.673
35.647
35.622
35.596
35.57
35.543
35.515
35.487
35.458
35.43
35.404
35.38
35.358
35.34
35.326
35.316
35.31
35.308
35.312
35.318
35.328
35.341
35.354
35.369
35.384
35.398
35.412
35.425
35.436
35.446
35.454
35.459
35.463
35.464
35.463
35.46
35.456
35.449
35.441
35.43
35.417
35.402
35.385
35.364
35.342
35.316
35.289
35.259
35.228
35.195
35.16
35.126
35.091
35.055
35.02
34.985
34.95
34.915
34.88
34.845
34.81
34.775
34.74
34.705
34.671
34.636
34.602
34.569
34.537
34.505
34.475
34.446
34.419
34.393
34.369
34.346
34.325
34.304
34.285
34.265
34.246
34.226
34.207
34.187
34.167
34.147
34.126
34.104
34.082
34.06
34.037
34.015
33.993
33.971
33.949
33.928
33.906
33.884
33.862
33.839
33.818
33.797
33.777
33.761
33.749
33.742
33.742
33.751
33.77
33.801
33.846
33.907
33.985
34.082
34.197
34.331
34.481
34.646
34.824
35.012
35.205
35.4
35.595
35.785
35.967
36.14
36.3
36.446
36.575
36.688
36.784
36.861
36.921
36.964
36.991
37.003
37.002
36.988
36.964
36.931
36.89
36.843
36.789
36.73
36.668
36.603
36.536
36.467
36.398
36.328
36.258
36.189
36.12
36.052
35.985
35.92
35.857
35.796
35.738
35.683
35.63
35.58
35.533
35.489
35.446
35.404
35.363
35.323
35.283
35.244
35.206
35.168
35.131
35.096
35.062
35.03
35.002
34.977
34.956
34.939
34.926
34.918
34.914
34.913
34.916
34.921
34.929
34.937
34.947
34.958
34.97
34.982
34.994
35.007
35.02
35.033
35.046
35.058
35.069
35.08
35.09
35.099
35.106
35.11
35.111
35.11
35.105
35.097
35.086
35.071
35.053
35.032
35.009
34.985
34.959
34.933
34.906
34.878
34.851
34.823
34.795
34.767
34.739
34.711
34.683
34.655
34.627
34.598
34.568
34.538
34.508
34.477
34.448
34.419
34.392
34.366
34.342
34.32
34.298
34.278
34.258
34.238
34.217
34.196
34.175
34.154
34.133
34.111
34.089
34.068
34.048
34.028
34.009
33.991
33.974
33.956
33.939
33.921
33.904
33.887
33.871
33.854
33.837
33.82
33.803
33.786
33.77
33.754
33.738
33.723
33.709
33.696
33.683
33.671
33.657
33.644
33.631
33.617
33.605
33.593
33.583
33.577
33.574
33.579
33.592
33.617
33.655
33.708
33.779
33.869
33.978
34.105
34.251
34.414
34.591
34.781
34.979
35.183
35.389
35.595
35.796
35.99
36.174
36.347
36.505
36.647
36.771
36.877
36.964
37.032
37.08
37.11
37.124
37.122
37.107
37.08
37.043
36.997
36.943
36.884
36.82
36.754
36.685
36.616
36.546
36.477
36.408
36.339
36.271
36.204
36.138
36.074
36.013
35.953
35.897
35.845
35.796
35.75
35.708
35.669
35.633
35.601
35.571
35.544
35.519
35.496
35.473
35.45
35.427
35.403
35.377
35.351
35.323
35.295
35.267
35.239
35.213
35.189
35.166
35.145
35.127
35.111
35.098
35.087
35.078
35.072
35.068
35.067
35.068
35.071
35.075
35.081
35.087
35.092
35.097
35.101
35.104
35.105
35.107
35.108
35.109
35.11
35.11
35.108
35.105
35.1
35.093
35.085
35.076
35.065
35.052
35.038
35.022
35.004
34.985
34.964
34.942
34.918
34.892
34.865
34.837
34.807
34.777
34.747
34.715
34.684
34.652
34.621
34.589
34.557
34.526
34.494
34.463
34.432
34.402
34.373
34.345
34.32
34.295
34.271
34.248
34.225
34.204
34.182
34.162
34.142
34.122
34.102
34.083
34.065
34.046
34.027
34.008
33.989
33.97
33.951
33.934
33.917
33.9
33.885
33.87
33.855
33.842
33.829
33.817
33.806
33.796
33.786
33.777
33.767
33.757
33.747
33.736
33.724
33.712
33.699
33.685
33.671
33.657
33.644
33.633
33.624
33.619
33.62
33.628
33.645
33.673
33.713
33.769
33.841
33.93
34.037
34.161
34.303
34.46
34.631
34.813
35.003
35.198
35.394
35.589
35.778
35.96
36.132
36.29
36.434
36.561
36.67
36.762
36.836
36.892
36.932
36.957
36.967
36.963
36.948
36.923
36.889
36.847
36.799
36.746
36.689
36.628
36.564
36.499
36.431
36.363
36.295
36.227
36.16
36.095
36.031
35.971
35.913
35.859
35.809
35.763
35.722
35.686
35.653
35.624
35.599
35.576
35.554
35.532
35.51
35.487
35.463
35.436
35.408
35.377
35.345
35.311
35.276
35.241
35.207
35.175
35.147
35.122
35.103
35.088
35.078
35.072
35.07
35.071
35.075
35.082
35.09
35.1
35.11
35.12
35.129
35.138
35.147
35.156
35.163
35.171
35.177
35.183
35.188
35.192
35.194
35.195
35.195
35.193
35.19
35.184
35.176
35.166
35.153
35.138
35.121
35.101
35.079
35.055
35.028
35.0
34.97
34.939
34.907
34.874
34.84
34.806
34.77
34.734
34.699
34.664
34.63
34.597
34.565
34.534
34.503
34.474
34.445
34.418
34.393
34.368
34.345
34.322
34.299
34.276
34.253
34.228
34.202
34.175
34.147
34.119
34.092
34.065
34.041
34.018
33.998
33.98
33.965
33.952
33.94
33.929
33.919
33.908
33.897
33.886
33.874
33.862
33.849
33.836
33.823
33.81
33.796
33.783
33.769
33.755
33.742
33.728
33.715
33.701
33.686
33.671
33.656
33.641
33.625
33.611
33.597
33.585
33.576
33.569
33.567
33.57
33.58
33.599
33.629
33.671
33.728
33.801
33.89
33.997
34.121
34.262
34.417
34.585
34.763
34.949
35.139
35.332
35.523
35.71
35.891
36.062
36.223
36.37
36.502
36.618
36.718
36.8
36.865
36.915
36.948
36.967
36.973
36.968
36.952
36.926
36.892
36.851
36.804
36.752
36.697
36.639
36.58
36.521
36.461
36.402
36.343
36.285
36.228
36.171
36.115
36.059
36.005
35.952
35.901
35.851
35.803
35.758
35.715
35.674
35.635
35.599
35.565
35.533
35.502
35.473
35.445
35.419
35.393
35.368
35.343
35.319
35.295
35.272
35.25
35.229
35.21
35.193
35.18
35.17
35.164
35.161
35.163
35.168
35.177
35.189
35.205
35.224
35.245
35.268
35.291
35.313
35.335
35.354
35.371
35.385
35.397
35.406
35.413
35.417
35.42
35.421
35.42
35.417
35.413
35.406
35.397
35.386
35.373
35.358
35.341
35.322
35.301
35.279
35.256
35.232
35.207
35.18
35.154
35.126
35.098
35.07
35.041
35.013
34.984
34.955
34.925
34.896
34.867
34.838
34.809
34.781
34.753
34.724
34.695
34.664
34.633
34.602
34.57
34.538
34.508
34.48
34.454
34.429
34.407
34.387
34.368
34.351
34.334
34.318
34.302
34.287
34.271
34.254
34.236
34.216
34.194
34.171
34.147
34.123
34.1
34.078
34.058
34.04
34.024
34.009
33.995
33.982
33.97
33.958
33.946
33.935
33.924
33.913
33.904
33.895
33.888
33.883
33.88
33.881
33.887
33.9
33.923
33.958
34.006
34.07
34.151
34.249
34.364
34.495
34.642
34.801
34.971
35.149
35.332
35.516
35.699
35.877
36.049
36.211
36.361
36.498
36.621
36.729
36.821
36.897
36.959
37.005
37.037
37.055
37.061
37.056
37.041
37.015
36.982
36.94
36.893
36.841
36.784
36.724
36.661
36.595
36.528
36.46
36.391
36.322
36.253
36.185
36.119
36.054
35.991
35.931
35.874
35.82
35.769
35.721
35.676
35.633
35.591
35.552
35.513
35.476
35.44
35.404
35.368
35.333
35.297
35.262
35.228
35.195
35.164
35.134
35.107
35.082
35.06
35.041
35.026
35.015
35.009
35.006
35.008
35.015
35.025
35.039
35.056
35.075
35.096
35.119
35.141
35.163
35.186
35.207
35.227
35.246
35.262
35.275
35.285
35.292
35.296
35.296
35.294
35.289
35.28
35.27
35.256
35.241
35.223
35.202
35.179
35.155
35.128
35.101
35.072
35.044
35.015
34.986
34.957
34.928
34.9
34.872
34.843
34.815
34.786
34.757
34.727
34.697
34.667
34.637
34.607
34.579
34.551
34.524
34.498
34.473
34.448
34.424
34.401
34.377
34.354
34.332
34.31
34.288
34.267
34.246
34.225
34.204
34.183
34.163
34.143
34.123
34.104
34.084
34.065
34.045
34.026
34.006
33.986
33.966
33.946
33.927
33.91
33.894
33.879
33.866
33.853
33.841
33.83
33.818
33.806
33.793
33.78
33.766
33.752
33.74
33.729
33.721
33.719
33.724
33.738
33.763
33.802
33.856
33.927
34.015
34.123
34.249
34.393
34.555
34.733
34.925
35.129
35.343
35.563
35.786
36.009
36.229
36.441
36.644
36.836
37.014
37.177
37.324
37.453
37.564
37.656
37.732
37.791
37.834
37.863
37.879
37.882
37.874
37.857
37.83
37.795
37.754
37.707
37.656
37.602
37.545
37.486
37.425
37.364
37.304
37.244
37.186
37.13
37.076
37.023
36.972
36.922
36.873
36.826
36.78
36.736
36.694
36.654
36.615
36.578
36.542
36.506
36.471
36.437
36.403
36.369
36.336
36.304
36.271
36.24
36.209
36.178
36.149
36.121
36.094
36.069
36.046
36.025
36.006
35.99
35.975
35.963
35.953
35.947
35.943
35.943
35.945
35.951
35.958
35.967
35.977
35.988
35.998
36.008
36.017
36.025
36.031
36.036
36.039
36.039
36.038
36.034
36.027
36.018
36.007
35.994
35.978
35.96
35.939
35.915
35.889
35.861
35.83
35.797
35.763
35.726
35.689
35.652
35.614
35.577
35.54
35.503
35.468
35.433
35.399
35.366
35.335
35.304
35.275
35.246
35.218
35.189
35.16
35.13
35.099
35.067
35.034
35.0
34.965
34.93
34.894
34.859
34.824
34.791
34.759
34.729
34.7
34.673
34.647
34.622
34.6
34.578
34.558
34.539
34.521
34.503
34.485
34.466
34.448
34.428
34.409
34.389
34.37
34.351
34.332
34.314
34.296
34.279
34.262
34.246
34.23
34.216
34.205
34.198
34.197
34.204
34.223
34.254
34.301
34.366
34.45
34.555
34.679
34.823
34.986
35.165
35.358
35.563
35.777
35.997
36.219
36.441
36.66
36.873
37.078
37.272
37.453
37.618
37.767
37.899
38.013
38.11
38.188
38.25
38.294
38.323
38.337
38.337
38.324
38.301
38.268
38.225
38.175
38.118
38.055
37.988
37.918
37.846
37.774
37.702
37.632
37.563
37.496
37.431
37.369
37.31
37.254
37.201
37.151
37.105
37.062
37.021
36.982
36.945
36.91
36.877
36.844
36.812
36.778
36.744
36.707
36.669
36.63
36.591
36.551
36.511
36.471
36.433
36.397
36.362
36.33
36.3
36.274
36.251
36.231
36.215
36.203
36.194
36.188
36.185
36.185
36.187
36.192
36.198
36.207
36.217
36.228
36.239
36.25
36.26
36.268
36.274
36.276
36.276
36.272
36.265
36.254
36.239
36.222
36.201
36.178
36.153
36.126
36.097
36.066
36.033
35.999
35.964
35.927
35.89
35.852
35.813
35.775
35.736
35.696
35.656
35.617
35.578
35.539
35.501
35.463
35.425
35.388
35.351
35.315
35.278
35.241
35.203
35.165
35.127
35.09
35.053
35.017
34.981
34.946
34.911
34.877
34.843
34.811
34.779
34.748
34.718
34.689
34.66
34.632
34.605
34.579
34.554
34.53
34.505
34.481
34.457
34.433
34.408
34.384
34.36
34.337
34.314
34.292
34.271
34.25
34.229
34.21
34.191
34.175
34.16
34.151
34.147
34.151
34.165
34.193
34.235
34.293
34.369
34.465
34.582
34.72
34.878
35.054
35.248
35.455
35.673
35.899
36.128
36.358
36.585
36.806
37.018
37.217
37.403
37.572
37.724
37.858
37.972
38.067
38.142
38.198
38.236
38.258
38.264
38.256
38.237
38.207
38.168
38.122
38.07
38.012
37.952
37.888
37.823
37.757
37.69
37.623
37.554
37.486
37.417
37.347
37.279
37.212
37.147
37.085
37.026
36.97
36.918
36.868
36.822
36.777
36.735
36.694
36.654
36.615
36.576
36.537
36.497
36.456
36.414
36.372
36.33
36.287
36.246
36.207
36.17
36.136
36.106
36.08
36.059
36.043
36.03
36.021
36.016
36.013
36.014
36.018
36.024
36.033
36.043
36.056
36.071
36.087
36.103
36.119
36.133
36.146
36.155
36.162
36.165
36.165
36.162
36.156
36.147
36.135
36.12
36.103
36.083
36.061
36.037
36.01
35.982
35.953
35.921
35.888
35.853
35.816
35.778
35.738
35.697
35.656
35.614
35.572
35.53
35.489
35.448
35.408
35.37
35.333
35.298
35.264
35.231
35.198
35.167
35.135
35.104
35.072
35.041
