Trial 3:3back
35.806
35.775
35.744
35.715
35.687
35.661
35.636
35.612
35.588
35.565
35.542
35.519
35.496
35.473
35.448
35.423
35.397
35.371
35.346
35.323
35.302
35.282
35.263
35.247
35.233
35.221
35.211
35.204
35.2
35.199
35.202
35.207
35.215
35.226
35.239
35.254
35.271
35.289
35.309
35.33
35.351
35.371
35.391
35.409
35.427
35.445
35.461
35.476
35.49
35.502
35.511
35.518
35.522
35.524
35.524
35.521
35.516
35.508
35.497
35.485
35.471
35.456
35.44
35.424
35.408
35.393
35.377
35.362
35.347
35.332
35.318
35.304
35.291
35.278
35.266
35.255
35.243
35.233
35.222
35.211
35.2
35.189
35.177
35.165
35.151
35.137
35.122
35.106
35.091
35.077
35.062
35.048
35.035
35.021
35.008
34.995
34.983
34.972
34.962
34.953
34.944
34.936
34.929
34.922
34.917
34.914
34.911
34.91
34.91
34.91
34.911
34.913
34.914
34.915
34.914
34.912
34.909
34.904
34.899
34.892
34.885
34.876
34.868
34.859
34.85
34.842
34.833
34.824
34.815
34.806
34.798
34.79
34.783
34.776
34.77
34.766
34.763
34.76
34.76
34.761
34.763
34.767
34.773
34.782
34.793
34.807
34.825
34.847
34.874
34.906
34.945
34.991
35.044
35.105
35.173
35.246
35.325
35.407
35.492
35.578
35.664
35.748
35.83
35.909
35.983
36.052
36.114
36.17
36.219
36.261
36.295
36.321
36.34
36.352
36.358
36.358
36.351
36.339
36.323
36.304
36.282
36.259
36.235
36.211
36.187
36.163
36.139
36.114
36.089
36.065
36.04
36.014
35.988
35.961
35.934
35.908
35.882
35.858
35.836
35.815
35.795
35.776
35.759
35.741
35.724
35.707
35.691
35.674
35.658
35.64
35.622
35.604
35.584
35.565
35.547
35.53
35.515
35.505
35.497
35.494
35.494
35.497
35.502
35.511
35.521
35.533
35.546
35.56
35.575
35.59
35.604
35.619
35.633
35.647
35.66
35.671
35.682
35.691
35.699
35.705
35.709
35.711
35.712
35.711
35.708
35.703
35.697
35.69
35.681
35.67
35.658
35.643
35.626
35.608
35.589
35.57
35.551
35.532
35.515
35.5
35.487
35.477
35.468
35.461
35.454
35.448
35.442
35.435
35.427
35.416
35.404
35.39
35.373
35.355
35.337
35.319
35.302
35.284
35.268
35.252
35.236
35.221
35.205
35.19
35.175
35.159
35.143
35.127
35.111
35.096
35.081
35.067
35.054
35.042
35.032
35.024
35.018
35.014
35.011
35.01
35.01
35.012
35.014
35.017
35.02
35.022
35.023
35.024
35.023
35.022
35.019
35.014
35.008
35.0
34.99
34.98
34.969
34.958
34.946
34.934
34.922
34.909
34.898
34.887
34.876
34.867
34.859
34.851
34.844
34.837
34.832
34.827
34.822
34.819
34.816
34.815
34.817
34.821
34.829
34.841
34.857
34.878
34.902
34.931
34.963
35.0
35.04
35.084
35.133
35.185
35.242
35.304
35.371
35.442
35.516
35.593
35.671
35.75
35.828
35.904
35.978
36.047
36.111
36.169
36.22
36.264
36.301
36.331
36.354
36.369
36.376
36.376
36.37
36.358
36.341
36.32
36.296
36.268
36.239
36.207
36.176
36.146
36.117
36.09
36.064
36.041
36.019
36.0
35.982
35.967
35.953
35.94
35.927
35.915
35.902
35.889
35.874
35.858
35.839
35.818
35.795
35.77
35.743
35.714
35.685
35.655
35.627
35.599
35.574
35.552
35.533
35.517
35.504
35.495
35.489
35.486
35.486
35.489
35.495
35.503
35.513
35.525
35.54
35.557
35.576
35.597
35.618
35.64
35.66
35.68
35.697
35.711
35.724
35.733
35.739
35.742
35.742
35.739
35.733
35.723
35.711
35.697
35.681
35.664
35.647
35.63
35.613
35.597
35.583
35.57
35.558
35.548
35.538
35.529
35.521
35.512
35.504
35.494
35.483
35.471
35.458
35.445
35.43
35.414
35.397
35.379
35.36
35.34
35.319
35.297
35.274
35.251
35.227
35.205
35.184
35.166
35.15
35.137
35.126
35.117
35.109
35.101
35.094
35.087
35.079
35.072
35.066
35.059
35.053
35.048
35.043
35.037
35.031
35.025
35.019
35.011
35.003
34.994
34.984
34.974
34.963
34.951
34.94
34.929
34.918
34.907
34.895
34.884
34.873
34.862
34.852
34.842
34.833
34.824
34.817
34.811
34.806
34.802
34.799
34.797
34.795
34.794
34.793
34.793
34.793
34.792
34.792
34.792
34.792
34.792
34.791
34.79
34.787
34.783
34.778
34.772
34.766
34.76
34.754
34.751
34.749
34.752
34.759
34.771
34.79
34.815
34.848
34.887
34.935
34.99
35.054
35.126
35.205
35.289
35.378
35.469
35.561
35.653
35.741
35.824
35.902
35.971
36.033
36.085
36.128
36.163
36.188
36.205
36.213
36.214
36.208
36.197
36.18
36.159
36.135
36.109
36.079
36.048
36.016
35.983
35.95
35.917
35.884
35.853
35.825
35.798
35.774
35.752
35.731
35.712
35.695
35.68
35.666
35.653
35.641
35.628
35.614
35.598
35.581
35.561
35.54
35.518
35.495
35.471
35.448
35.425
35.403
35.382
35.364
35.347
35.333
35.321
35.312
35.305
35.301
35.299
35.301
35.305
35.313
35.322
35.334
35.348
35.363
35.379
35.396
35.412
35.429
35.444
35.459
35.474
35.487
35.499
35.51
35.519
35.527
35.533
35.536
35.538
35.536
35.532
35.526
35.518
35.508
35.496
35.483
35.468
35.452
35.436
35.419
35.403
35.386
35.368
35.35
35.331
35.312
35.292
35.274
35.256
35.239
35.224
35.211
35.199
35.189
35.18
35.171
35.163
35.155
35.147
35.14
35.131
35.123
35.113
35.104
35.093
35.08
35.067
35.053
35.038
35.022
35.005
34.987
34.97
34.954
34.939
34.926
34.914
34.904
34.896
34.889
34.884
34.88
34.876
34.873
34.87
34.867
34.864
34.861
34.859
34.857
34.854
34.852
34.85
34.847
34.842
34.837
34.832
34.825
34.817
34.81
34.802
34.795
34.79
34.785
34.78
34.776
34.772
34.766
34.759
34.751
34.742
34.731
34.72
34.708
34.696
34.685
34.674
34.665
34.658
34.653
34.651
34.651
34.654
34.66
34.667
34.676
34.688
34.701
34.718
34.737
34.759
34.784
34.812
34.844
34.88
34.92
34.964
35.013
35.066
35.124
35.185
35.248
35.315
35.383
35.453
35.523
35.591
35.657
35.719
35.778
35.831
35.878
35.919
35.951
35.977
35.994
36.004
36.007
36.003
35.995
35.982
35.966
35.947
35.926
35.903
35.879
35.854
35.827
35.799
35.771
35.743
35.715
35.687
35.659
35.631
35.604
35.578
35.553
35.528
35.504
35.48
35.456
35.431
35.406
35.38
35.353
35.328
35.303
35.28
35.257
35.236
35.216
35.197
35.178
35.161
35.146
35.131
35.119
35.109
35.101
35.095
35.093
35.094
35.097
35.103
35.112
35.123
35.136
35.15
35.165
35.181
35.197
35.213
35.23
35.246
35.261
35.275
35.287
35.297
35.307
35.315
35.322
35.328
35.333
35.338
35.342
35.345
35.346
35.346
35.344
35.339
35.332
35.323
35.313
35.301
35.288
35.275
35.261
35.247
35.233
35.218
35.203
35.188
35.174
35.159
35.145
35.129
35.114
35.099
35.084
35.068
35.051
35.034
35.016
34.998
34.981
34.965
34.951
34.938
34.927
34.918
34.912
34.907
34.903
34.9
34.898
34.895
34.892
34.889
34.884
34.879
34.871
34.863
34.853
34.843
34.832
34.821
34.811
34.801
34.792
34.784
34.776
34.77
34.766
34.763
34.761
34.76
34.76
34.761
34.762
34.764
34.765
34.766
34.768
34.768
34.769
34.769
34.768
34.767
34.765
34.763
34.76
34.758
34.754
34.751
34.746
34.74
34.732
34.724
34.715
34.706
34.697
34.688
34.68
34.671
34.662
34.654
34.646
34.637
34.63
34.622
34.615
34.61
34.606
34.605
34.606
34.61
34.619
34.631
34.647
34.668
34.695
34.726
34.764
34.807
34.856
34.911
34.971
35.036
35.106
35.178
35.253
35.33
35.407
35.483
35.558
35.63
35.698
35.761
35.82
35.873
35.922
35.965
36.002
36.033
36.058
36.077
36.09
36.098
36.1
36.098
36.091
36.08
36.065
36.047
36.026
36.002
35.978
35.952
35.925
35.899
35.872
35.845
35.82
35.796
35.774
35.754
35.736
35.718
35.699
35.68
35.66
35.638
35.616
35.592
35.569
35.545
35.521
35.497
35.474
35.452
35.431
35.411
35.393
35.376
35.36
35.345
35.332
35.321
35.311
35.303
35.298
35.295
35.294
35.296
35.299
35.303
35.309
35.316
35.324
35.332
35.341
35.35
35.36
35.369
35.378
35.389
35.4
35.412
35.424
35.436
35.446
35.455
35.463
35.469
35.474
35.478
35.479
35.479
35.476
35.471
35.464
35.456
35.446
35.435
35.423
35.409
35.394
35.379
35.363
35.346
35.329
35.311
35.294
35.278
35.262
35.248
35.234
35.221
35.209
35.198
35.188
35.179
35.17
35.161
35.151
35.14
35.13
35.118
35.107
35.096
35.084
35.071
35.058
35.044
35.031
35.017
35.004
34.992
34.981
34.971
34.962
34.954
34.946
34.939
34.933
34.927
34.92
34.915
34.909
34.903
34.897
34.89
34.883
34.876
34.869
34.863
34.857
34.851
34.847
34.843
34.84
34.838
34.837
34.837
34.837
34.839
34.84
34.841
34.842
34.841
34.84
34.837
34.832
34.825
34.816
34.806
34.795
34.784
34.772
34.761
34.749
34.739
34.729
34.72
34.711
34.703
34.696
34.69
34.684
34.678
34.674
34.67
34.667
34.663
34.66
34.657
34.654
34.652
34.651
34.651
34.653
34.656
34.661
34.668
34.678
34.692
34.709
34.732
34.76
34.794
34.835
34.883
34.938
35.0
35.067
35.14
35.217
35.297
35.378
35.458
35.538
35.614
35.686
35.754
35.817
35.874
35.926
35.971
36.009
36.041
36.067
36.087
36.101
36.11
36.114
36.113
36.107
36.096
36.081
36.063
36.041
36.017
35.991
35.963
35.934
35.904
35.874
35.844
35.815
35.789
35.764
35.742
35.722
35.704
35.687
35.67
35.655
35.639
35.625
35.61
35.596
35.583
35.569
35.556
35.543
35.531
35.518
35.504
35.49
35.475
35.459
35.443
35.427
35.412
35.398
35.386
35.376
35.368
35.362
35.358
35.355
35.354
35.355
35.357
35.361
35.366
35.372
35.38
35.388
35.396
35.405
35.414
35.423
35.431
35.44
35.447
35.455
35.462
35.469
35.475
35.481
35.486
35.491
35.494
35.497
35.499
35.5
35.5
35.498
35.494
35.488
35.48
35.469
35.455
35.439
35.42
35.399
35.376
35.35
35.324
35.296
35.268
35.24
35.213
35.187
35.164
35.143
35.125
35.109
35.097
35.086
35.078
35.073
35.069
35.065
35.062
35.059
35.054
35.048
35.04
35.031
35.02
35.008
34.995
34.981
34.966
34.951
34.936
34.923
34.91
34.899
34.89
34.881
34.873
34.865
34.858
34.851
34.844
34.838
34.831
34.825
34.819
34.813
34.808
34.803
34.799
34.796
34.794
34.793
34.792
34.793
34.793
34.794
34.796
34.797
34.798
34.798
34.797
34.795
34.791
34.786
34.779
34.771
34.763
34.754
34.745
34.736
34.728
34.72
34.713
34.706
34.7
34.694
34.689
34.683
34.678
34.672
34.665
34.658
34.65
34.642
34.634
34.625
34.618
34.613
34.609
34.608
34.609
34.615
34.624
34.637
34.655
34.679
34.707
34.742
34.781
34.826
34.877
34.932
34.992
35.055
35.122
35.191
35.262
35.333
35.403
35.472
35.537
35.599
35.657
35.709
35.756
35.797
35.832
35.861
35.883
35.9
35.912
35.919
35.921
35.919
35.913
35.904
35.892
35.878
35.861
35.841
35.819
35.795
35.768
35.741
35.714
35.687
35.66
35.635
35.611
35.588
35.566
35.544
35.522
35.5
35.476
35.452
35.426
35.401
35.376
35.351
35.327
35.304
35.282
35.262
35.244
35.227
35.213
35.2
35.189
35.18
35.173
35.166
35.16
35.155
35.15
35.146
35.143
35.141
35.141
35.142
35.144
35.148
35.153
35.159
35.166
35.175
35.184
35.195
35.207
35.219
35.231
35.242
35.252
35.26
35.268
35.275
35.281
35.287
35.292
35.296
35.3
35.303
35.306
35.307
35.307
35.306
35.304
35.301
35.297
35.292
35.285
35.276
35.264
35.251
35.236
35.219
35.201
35.181
35.161
35.141
35.12
35.1
35.08
35.061
35.042
35.025
35.009
34.995
34.982
34.971
34.961
34.952
34.944
34.936
34.929
34.924
34.919
34.915
34.911
34.908
34.904
34.899
34.894
34.887
34.878
34.868
34.856
34.842
34.826
34.809
34.791
34.773
34.756
34.739
34.725
34.713
34.703
34.696
34.69
34.687
34.686
34.687
34.69
34.694
34.7
34.706
34.714
34.721
34.728
34.736
34.743
34.749
34.753
34.757
34.759
34.76
34.76
34.759
34.756
34.753
34.749
34.744
34.738
34.731
34.725
34.717
34.71
34.701
34.693
34.683
34.674
34.665
34.656
34.647
34.638
34.628
34.619
34.609
34.6
34.591
34.583
34.576
34.57
34.565
34.56
34.555
34.55
34.545
34.539
34.535
34.531
34.529
34.53
34.535
34.544
34.558
34.578
34.603
34.633
34.668
34.709
34.755
34.806
34.862
34.924
34.991
35.062
35.136
35.211
35.287
35.361
35.433
35.502
35.567
35.626
35.68
35.727
35.767
35.8
35.825
35.845
35.859
35.867
35.87
35.868
35.861
35.85
35.835
35.817
35.796
35.772
35.746
35.719
35.691
35.663
35.634
35.606
35.577
35.549
35.521
35.493
35.465
35.436
35.406
35.376
35.346
35.316
35.286
35.259
35.232
35.208
35.185
35.164
35.145
35.127
35.111
35.096
35.083
35.07
35.059
35.049
35.041
35.035
35.031
35.029
35.028
35.028
35.029
35.032
35.036
35.041
35.047
35.054
35.062
35.07
35.078
35.085
35.092
35.1
35.107
35.115
35.123
35.132
35.142
35.153
35.165
35.177
35.188
35.2
35.211
35.22
35.229
35.236
35.241
35.246
35.25
35.253
35.255
35.255
35.254
35.25
35.243
35.232
35.218
35.201
35.182
35.16
35.137
35.114
35.09
35.066
35.044
35.022
35.002
34.983
34.965
34.948
34.932
34.918
34.905
34.892
34.88
34.869
34.859
34.85
34.844
34.839
34.836
34.834
34.832
34.83
34.828
34.825
34.821
34.817
34.812
34.806
34.799
34.79
34.78
34.769
34.757
34.743
34.729
34.715
34.702
34.689
34.678
34.668
34.66
34.653
34.647
34.642
34.637
34.633
34.629
34.625
34.621
34.618
34.616
34.614
34.613
34.612
34.612
34.611
34.61
34.61
34.609
34.609
34.609
34.609
34.611
34.614
34.617
34.621
34.625
34.629
34.631
34.633
34.633
34.632
34.63
34.627
34.622
34.614
34.606
34.595
34.584
34.572
34.562
34.555
34.552
34.554
34.564
34.58
34.606
34.64
34.682
34.732
34.79
34.856
34.927
35.003
35.082
35.162
35.243
35.323
35.401
35.477
35.549
35.616
35.677
35.733
35.782
35.825
35.862
35.892
35.916
35.934
35.945
35.951
35.95
35.944
35.934
35.92
35.903
35.884
35.864
35.843
35.822
35.802
35.781
35.761
35.742
35.722
35.702
35.683
35.663
35.643
35.623
35.602
35.579
35.556
35.533
35.509
35.484
35.46
35.436
35.412
35.389
35.365
35.342
35.319
35.295
35.271
35.248
35.225
35.204
35.185
35.169
35.157
35.146
35.139
35.135
35.134
35.137
35.143
35.151
35.161
35.173
35.186
35.2
35.215
35.23
35.244
35.259
35.274
35.287
35.3
35.311
35.322
35.33
35.337
35.341
35.343
35.344
35.343
35.341
35.339
35.336
35.333
35.33
35.327
35.324
35.321
35.318
35.315
35.312
35.308
35.306
35.302
35.299
35.295
35.29
35.284
35.276
35.268
35.258
35.247
35.235
35.22
35.203
35.185
35.165
35.144
35.122
35.1
35.078
35.056
35.035
35.015
34.996
34.979
34.963
34.949
34.936
34.925
34.916
34.909
34.904
34.9
34.899
34.899
34.9
34.902
34.905
34.907
34.908
34.908
34.907
34.904
34.9
34.895
34.888
34.881
34.872
34.863
34.854
34.845
34.836
34.828
34.82
34.813
34.807
34.802
34.798
34.794
34.789
34.784
34.777
34.771
34.764
34.758
34.753
34.749
34.746
34.743
34.74
34.739
34.738
34.738
34.74
34.744
34.749
34.755
34.763
34.773
34.783
34.793
34.803
34.812
34.822
34.832
34.844
34.859
34.877
34.9
34.93
34.967
35.012
35.065
35.126
35.193
35.267
35.345
35.426
35.508
35.59
35.669
35.744
35.813
35.877
35.933
35.982
36.024
36.059
36.087
36.108
36.122
36.132
36.137
36.137
36.134
36.126
36.113
36.097
36.078
36.055
36.028
35.999
35.968
35.935
35.901
35.867
35.833
35.801
35.771
35.744
35.719
35.696
35.676
35.657
35.64
35.623
35.608
35.592
35.576
35.561
35.545
35.529
35.512
35.495
35.478
35.46
35.442
35.424
35.406
35.388
35.368
35.348
35.327
35.306
35.287
35.27
35.256
35.244
35.235
35.228
35.224
35.223
35.225
35.23
35.24
35.254
35.271
35.292
35.316
35.341
35.367
35.393
35.418
35.441
35.46
35.477
35.489
35.498
35.503
35.505
35.503
35.5
35.494
35.487
35.479
35.471
35.461
35.448
35.434
35.418
35.4
35.382
35.363
35.345
35.328
35.312
35.298
35.285
35.275
35.266
35.259
35.254
35.25
35.246
35.243
35.239
35.235
35.229
35.222
35.214
35.203
35.192
35.179
35.164
35.149
35.132
35.114
35.096
35.076
35.056
35.037
35.018
35.0
34.984
34.968
34.955
34.943
34.933
34.925
34.919
34.913
34.908
34.904
34.901
34.898
34.896
34.894
34.893
34.891
34.89
34.889
34.887
34.886
34.884
34.881
34.878
34.875
34.872
34.867
34.862
34.855
34.847
34.839
34.83
34.821
34.813
34.805
34.796
34.788
34.78
34.772
34.764
34.757
34.75
34.744
34.738
34.733
34.73
34.729
34.73
34.734
34.742
34.753
34.768
34.787
34.811
34.84
34.876
34.917
34.965
35.02
35.08
35.145
35.215
35.289
35.365
35.444
35.523
35.602
35.678
35.751
35.819
35.881
35.936
35.982
36.019
36.048
36.069
36.081
36.086
36.085
36.077
36.065
36.049
36.03
36.008
35.984
35.958
35.932
35.906
35.88
35.854
35.829
35.805
35.781
35.758
35.736
35.713
35.692
35.67
35.65
35.629
35.609
35.588
35.567
35.546
35.526
35.505
35.484
35.462
35.44
35.418
35.396
35.375
35.355
35.336
35.319
35.303
35.289
35.276
35.264
35.253
35.243
35.235
35.228
35.223
35.221
35.221
35.223
35.228
35.234
35.243
35.252
35.263
35.275
35.288
35.301
35.315
35.328
35.342
35.355
35.368
35.38
35.391
35.402
35.411
35.419
35.425
35.43
35.433
35.435
35.435
35.433
35.431
35.427
35.424
35.421
35.416
35.411
35.406
35.399
35.39
35.38
35.368
35.356
35.343
35.329
35.314
35.299
35.284
35.268
35.253
35.237
35.221
35.205
35.19
35.177
35.164
35.153
35.142
35.131
35.12
35.11
35.099
35.088
35.078
35.067
35.055
35.044
35.032
35.021
35.01
34.999
34.989
34.98
34.971
34.963
34.956
34.95
34.945
34.94
34.936
34.932
34.928
34.925
34.923
34.921
34.92
34.919
34.917
34.914
34.911
34.906
34.901
34.894
34.886
34.877
34.866
34.855
34.845
34.835
34.827
34.821
34.818
34.816
34.816
34.816
34.817
34.819
34.82
34.822
34.824
34.826
34.829
34.834
34.839
34.847
34.858
34.873
34.893
34.919
34.952
34.991
35.036
35.087
35.144
35.205
35.271
35.341
35.413
35.486
35.56
35.633
35.705
35.774
35.839
35.898
35.952
35.998
36.038
36.07
36.095
36.113
36.124
36.129
36.128
36.122
36.11
36.093
36.073
36.05
36.024
35.997
35.97
35.942
35.915
35.889
35.863
35.837
35.812
35.788
35.764
35.74
35.716
35.693
35.67
35.646
35.622
35.598
35.573
35.547
35.521
35.495
35.469
35.444
35.421
35.399
35.379
35.361
35.344
35.328
35.314
35.301
35.29
35.282
35.275
35.27
35.268
35.266
35.267
35.27
35.275
35.282
35.292
35.304
35.317
35.332
35.347
35.363
35.379
35.396
35.412
35.427
35.441
35.454
35.465
35.475
35.485
35.494
35.503
35.511
35.518
35.525
35.53
35.535
35.537
35.538
35.538
35.535
35.531
35.525
35.517
35.508
35.498
35.486
35.472
35.457
35.441
35.425
35.409
35.392
35.375
35.358
35.342
35.327
35.312
35.298
35.284
35.27
35.256
35.243
35.231
35.22
35.21
35.201
35.193
35.186
35.18
35.173
35.167
35.161
35.155
35.149
35.142
35.134
35.126
35.117
35.107
35.098
35.088
35.079
35.071
35.062
35.053
35.044
35.035
35.026
35.017
35.008
34.999
34.991
34.984
34.978
34.973
34.971
34.969
34.97
34.971
34.973
34.976
34.978
34.981
34.984
34.987
34.989
34.992
34.993
34.994
34.993
34.993
34.993
34.996
35.0
35.008
35.019
35.034
35.055
35.081
35.113
35.152
35.196
35.245
35.299
35.359
35.424
35.494
35.568
35.644
35.722
35.8
35.877
35.953
36.025
36.094
36.159
36.218
36.271
36.316
36.354
36.383
36.404
36.417
36.421
36.419
36.41
36.396
36.377
36.353
36.326
36.296
36.264
36.231
36.198
36.165
36.133
36.103
36.074
36.045
36.017
35.99
35.964
35.939
35.915
35.892
35.869
35.847
35.825
35.804
35.783
35.763
35.743
35.723
35.701
35.677
35.653
