Trial 3:3back
36.108
36.078
36.045
36.007
35.968
35.926
35.884
35.841
35.798
35.757
35.718
35.681
35.644
35.607
35.57
35.533
35.498
35.464
35.432
35.402
35.374
35.347
35.322
35.297
35.273
35.248
35.223
35.195
35.165
35.132
35.097
35.061
35.024
34.988
34.952
34.919
34.888
34.859
34.835
34.814
34.797
34.782
34.77
34.76
34.753
34.747
34.743
34.739
34.735
34.73
34.725
34.719
34.714
34.708
34.703
34.699
34.694
34.689
34.684
34.679
34.675
34.669
34.663
34.656
34.649
34.642
34.634
34.628
34.623
34.62
34.617
34.615
34.613
34.611
34.609
34.606
34.602
34.596
34.588
34.579
34.567
34.553
34.536
34.515
34.491
34.462
34.431
34.397
34.36
34.321
34.279
34.236
34.192
34.147
34.102
34.057
34.011
33.964
33.916
33.867
33.818
33.77
33.724
33.679
33.638
33.598
33.561
33.526
33.492
33.458
33.423
33.389
33.353
33.317
33.279
33.24
33.201
33.163
33.127
33.096
33.067
33.042
33.02
33.001
32.986
32.973
32.964
32.957
32.954
32.952
32.952
32.952
32.953
32.953
32.953
32.951
32.949
32.947
32.945
32.944
32.944
32.946
32.949
32.954
32.96
32.966
32.972
32.979
32.984
32.989
32.994
32.999
33.003
33.007
33.012
33.018
33.027
33.04
33.061
33.092
33.137
33.2
33.284
33.392
33.528
33.694
33.892
34.121
34.38
34.664
34.969
35.289
35.618
35.948
36.274
36.59
36.89
37.169
37.423
37.65
37.848
38.017
38.156
38.266
38.348
38.405
38.437
38.45
38.445
38.426
38.395
38.354
38.306
38.252
38.196
38.138
38.079
38.018
37.957
37.894
37.831
37.766
37.703
37.641
37.581
37.524
37.469
37.417
37.366
37.319
37.273
37.23
37.188
37.147
37.108
37.07
37.035
37.003
36.973
36.944
36.918
36.894
36.871
36.85
36.829
36.808
36.787
36.764
36.739
36.71
36.679
36.646
36.613
36.579
36.547
36.516
36.487
36.461
36.438
36.418
36.4
36.384
36.371
36.36
36.352
36.349
36.352
36.361
36.374
36.394
36.417
36.445
36.475
36.505
36.536
36.566
36.595
36.62
36.641
36.659
36.673
36.684
36.692
36.698
36.703
36.704
36.703
36.697
36.688
36.674
36.656
36.633
36.608
36.581
36.551
36.518
36.483
36.446
36.407
36.367
36.325
36.283
36.24
36.196
36.152
36.108
36.063
36.018
35.972
35.926
35.882
35.838
35.796
35.753
35.711
35.67
35.628
35.587
35.547
35.507
35.467
35.428
35.389
35.351
35.313
35.276
35.239
35.203
35.169
35.135
35.103
35.072
35.043
35.016
34.991
34.967
34.946
34.926
34.906
34.886
34.865
34.844
34.822
34.802
34.783
34.765
34.749
34.735
34.723
34.714
34.705
34.697
34.689
34.68
34.672
34.662
34.652
34.641
34.628
34.614
34.599
34.584
34.569
34.555
34.542
34.531
34.522
34.513
34.506
34.498
34.491
34.483
34.475
34.466
34.456
34.445
34.432
34.418
34.403
34.387
34.371
34.354
34.337
34.32
34.302
34.286
34.27
34.255
34.24
34.224
34.208
34.191
34.174
34.157
34.141
34.125
34.109
34.094
34.08
34.065
34.051
34.036
34.019
34.001
33.983
33.964
33.944
33.925
33.906
33.886
33.867
33.848
33.83
33.814
33.799
33.784
33.771
33.759
33.748
33.74
33.732
33.724
33.716
33.707
33.697
33.685
33.671
33.653
33.632
33.608
33.582
33.552
33.521
33.488
33.454
33.42
33.386
33.355
33.327
33.303
33.284
33.272
33.266
33.266
33.273
33.288
33.31
33.342
33.385
33.442
33.516
33.612
33.734
33.886
34.072
34.291
34.545
34.831
35.143
35.478
35.829
36.188
36.548
36.901
37.241
37.561
37.857
38.126
38.365
38.573
38.75
38.896
39.013
39.101
39.163
39.201
39.218
39.215
39.196
39.164
39.12
39.068
39.01
38.948
38.884
38.818
38.752
38.685
38.619
38.553
38.489
38.427
38.368
38.311
38.257
38.206
38.159
38.115
38.076
38.039
38.006
37.974
37.946
37.921
37.897
37.875
37.854
37.833
37.811
37.787
37.763
37.737
37.71
37.682
37.653
37.623
37.591
37.557
37.519
37.479
37.436
37.39
37.343
37.295
37.246
37.197
37.148
37.1
37.055
37.013
36.975
36.943
36.916
36.895
36.88
36.87
36.865
36.866
36.871
36.88
36.892
36.907
36.923
36.939
36.955
36.97
36.982
36.99
36.993
36.993
36.99
36.983
36.973
36.959
36.942
36.923
36.902
36.88
36.857
36.833
36.808
36.782
36.754
36.726
36.697
36.667
36.635
36.601
36.564
36.524
36.481
36.436
36.388
36.338
36.285
36.23
36.173
36.115
36.057
36.0
35.944
35.889
35.835
35.782
35.73
35.681
35.635
35.591
35.549
35.509
35.47
35.433
35.396
35.36
35.324
35.288
35.253
35.219
35.187
35.157
35.129
35.102
35.078
35.054
35.031
35.008
34.984
34.961
34.937
34.913
34.89
34.867
34.845
34.823
34.803
34.784
34.765
34.748
34.73
34.713
34.696
34.68
34.664
34.648
34.633
34.617
34.601
34.585
34.57
34.556
34.543
34.53
34.518
34.507
34.497
34.486
34.474
34.46
34.445
34.427
34.408
34.387
34.363
34.338
34.311
34.283
34.256
34.231
34.209
34.19
34.174
34.16
34.148
34.135
34.122
34.107
34.09
34.071
34.051
34.028
34.003
33.977
33.948
33.919
33.887
33.855
33.823
33.791
33.759
33.728
33.697
33.667
33.639
33.612
33.587
33.562
33.538
33.514
33.491
33.469
33.448
33.429
33.412
33.397
33.385
33.375
33.366
33.359
33.352
33.346
33.34
33.333
33.326
33.318
33.309
33.297
33.284
33.268
33.25
33.23
33.208
33.185
33.161
33.137
33.112
33.088
33.065
33.043
33.023
33.003
32.985
32.969
32.954
32.941
32.929
32.917
32.905
32.894
32.882
32.871
32.859
32.847
32.834
32.821
32.808
32.797
32.788
32.782
32.78
32.783
32.793
32.813
32.846
32.895
32.964
33.058
33.18
33.334
33.524
33.751
34.013
34.308
34.632
34.979
35.343
35.718
36.096
36.469
36.829
37.171
37.488
37.775
38.03
38.25
38.437
38.588
38.706
38.791
38.847
38.875
38.88
38.867
38.839
38.801
38.755
38.703
38.646
38.588
38.531
38.475
38.422
38.371
38.323
38.277
38.232
38.189
38.148
38.107
38.066
38.024
37.981
37.937
37.892
37.849
37.806
37.766
37.729
37.694
37.661
37.63
37.601
37.574
37.548
37.523
37.497
37.47
37.443
37.413
37.383
37.35
37.315
37.277
37.238
37.196
37.153
37.109
37.064
37.019
36.973
36.928
36.886
36.846
36.811
36.782
36.759
36.742
36.731
36.726
36.726
36.731
36.74
36.753
36.77
36.789
36.812
36.837
36.863
36.889
36.915
36.939
36.961
36.981
36.998
37.011
37.019
37.022
37.02
37.012
37.001
36.985
36.966
36.944
36.92
36.894
36.866
36.835
36.803
36.769
36.733
36.694
36.655
36.613
36.57
36.525
36.478
36.431
36.383
36.334
36.285
36.237
36.188
36.141
36.094
36.048
36.003
35.96
35.919
35.88
35.844
35.809
35.774
35.74
35.704
35.668
35.63
35.592
35.553
35.516
35.479
35.443
35.408
35.373
35.34
35.308
35.278
35.251
35.226
35.203
35.181
35.16
35.142
35.125
35.109
35.096
35.082
35.068
35.053
35.038
35.022
35.006
34.99
34.973
34.956
34.938
34.921
34.903
34.886
34.868
34.851
34.835
34.82
34.807
34.796
34.787
34.779
34.773
34.766
34.76
34.754
34.746
34.736
34.723
34.708
34.69
34.671
34.65
34.627
34.602
34.575
34.547
34.519
34.492
34.467
34.445
34.425
34.407
34.391
34.377
34.363
34.349
34.335
34.32
34.304
34.287
34.27
34.252
34.234
34.216
34.197
34.18
34.165
34.15
34.137
34.126
34.116
34.107
34.101
34.097
34.094
34.093
34.092
34.09
34.087
34.082
34.075
34.065
34.053
34.038
34.02
34.0
33.978
33.954
33.929
33.903
33.876
33.848
33.819
33.79
33.76
33.73
33.702
33.676
33.652
33.63
33.61
33.593
33.578
33.567
33.56
33.557
33.557
33.562
33.572
33.589
33.616
33.654
33.707
33.78
33.877
34.003
34.161
34.354
34.582
34.843
35.137
35.458
35.803
36.165
36.537
36.912
37.282
37.64
37.979
38.294
38.58
38.834
39.054
39.24
39.392
39.512
39.602
39.664
39.702
39.72
39.72
39.705
39.677
39.639
39.593
39.54
39.482
39.418
39.351
39.279
39.205
39.128
39.049
38.968
38.886
38.804
38.723
38.642
38.564
38.489
38.417
38.348
38.285
38.226
38.174
38.126
38.085
38.048
38.018
37.991
37.968
37.947
37.927
37.908
37.889
37.869
37.847
37.821
37.792
37.758
37.72
37.68
37.636
37.589
37.54
37.489
37.436
37.384
37.332
37.281
37.234
37.19
37.15
37.115
37.085
37.062
37.045
37.034
37.028
37.028
37.032
37.041
37.053
37.069
37.087
37.107
37.127
37.145
37.162
37.176
37.189
37.199
37.206
37.209
37.208
37.202
37.191
37.176
37.157
37.135
37.108
37.076
37.044
37.018
37.003
36.997
36.997
37.0
37.0
36.993
36.975
36.944
36.9
36.841
36.77
36.688
36.597
36.501
36.404
36.309
36.216
36.128
36.045
35.967
35.895
35.827
35.766
35.711
35.661
35.615
35.573
35.535
35.501
35.47
35.441
35.414
35.386
35.357
35.325
35.291
35.255
35.217
35.177
35.137
35.095
35.054
35.013
34.974
34.936
34.9
34.866
34.834
34.804
34.777
34.753
34.731
34.711
34.692
34.673
34.652
34.629
34.604
34.577
34.548
34.52
34.492
34.464
34.436
34.409
34.384
34.36
34.338
34.316
34.296
34.276
34.256
34.236
34.216
34.196
34.176
34.156
34.134
34.112
34.089
34.066
34.042
34.018
33.992
33.964
33.935
33.906
33.877
33.849
33.821
33.793
33.766
33.74
33.715
33.691
33.668
33.646
33.625
33.605
33.586
33.567
33.548
33.53
33.513
33.495
33.477
33.459
33.441
33.424
33.406
33.388
33.37
33.353
33.336
33.319
33.303
33.288
33.272
33.256
33.241
33.225
33.21
33.194
33.179
33.163
33.147
33.131
33.115
33.099
33.084
33.068
33.054
33.04
33.027
33.015
33.004
32.993
32.983
32.973
32.965
32.957
32.95
32.942
32.933
32.92
32.906
32.889
32.87
32.848
32.825
32.801
32.775
32.748
32.721
32.695
32.669
32.644
32.621
32.601
32.584
32.57
32.559
32.55
32.544
32.541
32.543
32.551
32.564
32.585
32.617
32.663
32.727
32.814
32.929
33.073
33.251
33.466
33.719
34.01
34.337
34.695
35.078
35.478
35.887
36.297
36.7
37.089
37.455
37.794
38.1
38.371
38.604
38.798
38.956
39.076
39.163
39.217
39.243
39.243
39.224
39.188
39.139
39.082
39.019
38.952
38.883
38.814
38.745
38.678
38.612
38.549
38.489
38.433
38.381
38.333
38.289
38.249
38.211
38.176
38.141
38.107
38.073
38.038
38.002
37.965
37.927
37.889
37.852
37.814
37.769
37.718
37.662
37.602
37.541
37.481
37.422
37.365
37.312
37.262
37.216
37.173
37.132
37.094
37.058
37.024
36.993
36.964
36.937
36.913
36.893
36.875
36.86
36.848
36.839
36.832
36.828
36.827
36.83
36.835
36.844
36.856
36.869
36.885
36.902
36.92
36.936
36.951
36.963
36.972
36.978
36.981
36.98
36.976
36.969
36.959
36.946
36.93
36.912
36.89
36.865
36.836
36.805
36.772
36.739
36.705
36.67
36.634
36.598
36.56
36.522
36.482
36.441
36.399
36.355
36.309
36.261
36.212
36.161
36.108
36.054
36.0
35.946
35.893
35.84
35.788
35.737
35.686
35.636
35.587
35.54
35.494
35.451
35.41
35.371
35.335
35.3
35.268
35.237
35.208
35.18
35.152
35.126
35.1
35.075
35.052
35.029
35.007
34.984
34.961
34.938
34.915
34.891
34.867
34.843
34.819
34.797
34.775
34.756
34.737
34.72
34.705
34.691
34.678
34.668
34.659
34.652
34.645
34.638
34.633
34.636
34.646
34.663
34.684
34.704
34.719
34.728
34.728
34.72
34.701
34.674
34.638
34.596
34.549
34.499
34.449
34.4
34.353
34.31
34.27
34.234
34.203
34.175
34.15
34.127
34.107
34.088
34.071
34.055
34.04
34.026
34.012
33.999
33.985
33.972
33.958
33.942
33.924
33.903
33.88
33.854
33.827
33.799
33.77
33.741
33.711
33.682
33.655
33.629
33.605
33.583
33.565
33.55
33.539
33.532
33.528
33.528
33.53
33.532
33.533
33.531
33.524
33.514
33.499
33.481
33.46
33.436
33.41
33.383
33.355
33.326
33.298
33.272
33.246
33.222
33.199
33.178
33.157
33.137
33.117
33.097
33.077
33.056
33.035
33.014
32.995
32.979
32.968
32.964
32.969
32.987
33.02
33.072
33.146
33.246
33.377
33.543
33.746
33.987
34.265
34.579
34.923
35.293
35.681
36.081
36.484
36.883
37.272
37.643
37.992
38.312
38.601
38.858
39.082
39.272
39.429
39.554
39.649
39.717
39.759
39.778
39.779
39.763
39.735
39.696
39.649
39.596
39.537
39.474
39.408
39.342
39.275
39.209
39.144
39.081
39.021
38.964
38.91
38.859
38.81
38.764
38.719
38.676
38.636
38.598
38.563
38.529
38.496
38.464
38.431
38.398
38.365
38.331
38.298
38.264
38.228
38.19
38.15
38.107
38.06
38.01
37.957
37.9
37.841
37.781
37.721
37.662
37.603
37.545
37.489
37.434
37.384
37.338
37.297
37.264
37.237
37.218
37.207
37.203
37.206
37.216
37.232
37.252
37.276
37.302
37.328
37.352
37.372
37.389
37.403
37.412
37.417
37.419
37.417
37.411
37.4
37.385
37.365
37.34
37.31
37.275
37.236
37.192
37.145
37.096
37.044
36.991
36.937
36.884
36.831
36.779
36.729
36.68
36.631
36.583
36.535
36.487
36.439
36.391
36.342
36.291
36.236
36.178
36.117
36.052
35.986
35.917
35.848
35.78
35.714
35.65
35.59
35.533
35.479
35.427
35.379
35.332
35.287
35.244
35.202
35.164
35.129
35.097
35.069
35.044
35.024
35.006
34.99
34.975
34.961
34.946
34.929
34.912
34.894
34.875
34.855
34.835
34.815
34.796
34.778
34.76
34.743
34.727
34.711
34.696
34.681
34.666
34.651
34.636
34.62
34.603
34.584
34.563
34.539
34.513
34.486
34.456
34.426
34.395
34.365
34.335
34.307
34.281
34.256
34.232
34.21
34.188
34.167
34.147
34.125
34.101
34.076
34.049
34.02
33.99
33.959
33.927
33.896
33.865
33.837
33.812
33.79
33.77
33.752
33.736
33.721
33.706
33.691
33.675
33.657
33.635
33.61
33.583
33.552
33.518
33.482
33.445
33.408
33.372
33.338
33.306
33.277
33.25
33.227
33.205
33.185
33.165
33.146
33.127
33.107
33.085
33.062
33.039
33.014
32.99
32.965
32.941
32.917
32.893
32.868
32.845
32.822
32.802
32.782
32.763
32.745
32.728
32.712
32.697
32.682
32.667
32.65
32.632
32.613
32.595
32.576
32.557
32.539
32.521
32.504
32.487
32.47
32.453
32.435
32.417
32.4
32.382
32.365
32.347
32.329
32.31
32.292
32.275
32.261
32.248
32.236
32.227
32.222
32.221
32.226
32.238
32.259
32.292
32.339
32.403
32.486
32.594
32.729
32.896
33.098
33.338
33.618
33.937
34.293
34.681
35.096
35.531
35.977
36.426
36.869
37.297
37.702
38.077
38.417
38.719
38.981
39.204
39.387
39.53
39.637
39.709
39.751
39.766
39.757
39.729
39.684
39.626
39.559
39.485
39.406
39.324
39.242
39.159
39.078
38.997
38.919
38.843
38.77
38.701
38.636
38.574
38.516
38.46
38.407
38.358
38.313
38.27
38.23
38.191
38.153
38.115
38.079
38.042
38.005
37.967
37.929
37.89
37.851
37.812
37.772
37.73
37.687
37.64
37.591
37.539
37.485
37.429
37.371
37.313
37.253
37.194
37.134
37.076
37.021
36.971
36.927
36.89
36.86
36.837
36.821
36.812
36.81
36.812
36.819
36.831
36.845
36.862
36.88
36.898
36.917
36.935
36.953
36.97
36.985
36.998
37.009
37.015
37.018
37.016
37.009
36.999
36.985
36.966
36.943
36.916
36.884
36.848
36.808
36.765
36.719
36.67
36.617
36.561
36.504
36.444
36.383
36.32
36.257
36.195
36.135
36.078
36.023
35.972
35.924
35.878
35.833
35.79
35.748
35.707
35.665
35.622
35.576
35.528
35.478
35.425
35.368
35.307
35.244
35.18
35.117
35.056
35.0
34.949
34.904
34.864
34.83
34.8
34.774
34.752
34.733
34.717
34.703
34.692
34.682
34.674
34.667
34.66
34.653
34.646
34.639
34.633
34.628
34.622
34.616
34.608
34.599
34.588
34.576
34.561
34.545
34.526
34.505
34.482
34.457
34.431
34.405
34.38
34.354
34.329
34.305
34.283
34.263
34.243
34.225
34.207
34.189
34.171
34.153
34.135
34.116
34.099
34.082
34.065
34.048
34.028
34.007
33.983
33.958
33.93
33.901
33.87
33.837
33.804
33.77
33.735
33.701
33.667
33.635
33.604
33.575
33.547
33.521
33.497
33.475
33.454
33.436
33.418
33.401
33.384
33.368
33.351
33.333
33.314
33.293
33.271
33.247
33.223
33.199
33.175
33.154
33.134
33.117
33.102
33.09
33.08
33.073
33.066
33.059
33.052
33.044
33.036
33.026
33.016
33.005
32.993
32.981
32.969
32.957
32.946
32.934
32.922
32.908
32.893
32.876
32.856
32.834
32.81
32.784
32.756
32.727
32.699
32.672
32.65
32.631
32.617
32.609
32.609
32.618
32.637
32.67
32.719
32.787
32.876
32.991
33.136
33.313
33.528
33.781
34.072
34.401
34.762
35.152
35.564
35.991
36.425
36.857
37.28
37.685
38.065
38.417
38.735
39.017
39.261
39.468
39.637
39.769
39.867
39.934
39.972
39.986
39.979
39.954
39.914
39.863
39.802
39.736
39.667
39.596
39.524
39.454
39.384
39.314
39.246
39.178
39.112
39.049
38.988
38.929
38.872
38.817
38.763
38.711
38.662
38.615
38.571
38.529
38.489
38.45
38.411
38.37
38.329
38.287
38.244
38.202
38.159
38.115
38.071
38.025
37.977
37.927
37.874
37.817
37.758
37.697
37.635
37.575
37.517
37.463
37.413
37.369
37.33
37.298
37.273
37.255
37.243
37.238
37.239
37.245
37.256
37.271
37.29
37.313
37.338
37.366
37.394
37.423
37.452
37.478
37.501
37.52
37.533
37.541
37.544
37.542
37.536
37.525
37.509
37.489
37.465
37.437
37.406
37.371
37.332
37.291
37.248
37.202
37.155
37.107
37.058
37.008
36.957
36.905
36.853
36.799
36.744
36.688
36.631
36.573
36.514
36.454
36.393
36.332
36.27
36.206
36.14
36.073
36.003
35.932
35.859
35.785
35.711
35.639
35.569
35.502
35.439
35.38
35.325
35.273
35.225
35.18
35.138
35.1
35.065
35.033
35.004
34.976
34.949
34.922
34.895
34.867
34.837
34.807
34.777
34.746
34.716
34.686
34.657
34.63
34.605
34.582
34.562
34.542
34.524
34.506
34.489
34.471
34.454
34.436
34.418
34.4
34.382
34.364
34.345
34.326
34.307
34.287
34.267
34.247
34.227
34.207
34.187
34.167
34.147
34.127
34.106
34.084
34.061
34.037
34.013
33.989
33.965
33.941
33.916
33.891
33.866
33.84
33.814
33.787
33.759
33.732
33.704
33.677
33.652
33.63
33.612
33.594
33.578
33.56
33.541
33.519
33.494
33.467
33.437
33.406
33.373
33.339
33.304
33.268
33.231
33.195
33.16
33.126
33.093
33.063
33.034
33.008
32.983
32.96
32.939
32.918
32.898
32.878
32.86
32.842
32.825
32.809
32.794
32.78
32.768
32.758
32.748
32.739
32.731
32.722
32.714
32.705
32.695
32.683
32.669
32.654
32.637
32.619
32.601
32.582
32.562
32.542
32.521
32.499
32.477
32.454
32.433
32.413
32.396
32.381
32.369
32.359
32.35
32.342
32.335
32.327
32.319
32.311
32.301
32.293
32.285
32.28
32.278
32.282
32.294
32.318
32.355
32.41
32.485
32.586
32.715
32.878
33.077
33.317
33.599
33.922
34.287
34.687
35.119
35.574
36.043
36.518
36.989
37.447
37.882
38.288
38.658
38.988
39.275
39.517
39.713
39.866
39.977
40.051
40.091
40.103
40.09
40.057
40.009
39.95
39.884
39.813
39.74
39.666
39.592
39.518
39.444
39.371
39.297
39.224
39.15
39.075
39.001
38.929
38.857
38.788
38.721
38.654
38.589
38.524
38.46
38.396
38.335
38.276
38.219
38.166
38.117
38.071
38.028
37.989
37.95
37.913
37.874
37.834
37.79
37.742
37.69
37.634
37.574
37.511
37.445
37.379
37.312
37.247
37.184
37.125
37.07
37.018
36.972
36.933
36.9
36.875
36.858
36.848
36.846
36.852
36.864
36.882
36.906
36.934
36.964
36.993
37.019
37.04
37.056
37.067
37.073
37.074
37.069
37.06
37.047
37.03
37.011
36.989
36.965
36.937
36.907
36.875
36.841
36.805
36.767
36.726
36.681
36.633
36.581
36.527
36.47
36.411
36.349
36.284
36.217
36.149
36.081
36.014
35.947
35.88
35.814
35.749
35.683
35.618
35.554
35.491
35.428
35.367
35.307
35.249
35.191
35.134
35.078
35.025
34.972
34.921
34.871
34.826
34.79
34.763
34.745
34.733
34.725
34.716
34.705
34.69
34.668
34.641
34.606
34.566
34.522
34.474
34.425
34.376
34.328
34.284
34.242
34.205
34.171
34.141
34.116
34.094
34.074
