Trial 3:3back
37.945
37.945
37.945
37.943
37.939
37.931
37.92
37.905
37.889
37.871
37.851
37.829
37.804
37.776
37.745
37.71
37.67
37.626
37.577
37.525
37.47
37.414
37.356
37.297
37.24
37.184
37.129
37.077
37.029
36.986
36.947
36.913
36.883
36.857
36.836
36.818
36.804
36.791
36.779
36.766
36.75
36.731
36.708
36.68
36.648
36.614
36.577
36.54
36.502
36.464
36.427
36.39
36.353
36.318
36.282
36.246
36.209
36.171
36.131
36.091
36.049
36.007
35.964
35.921
35.877
35.831
35.784
35.734
35.681
35.626
35.567
35.506
35.443
35.377
35.309
35.24
35.169
35.096
35.023
34.95
34.879
34.81
34.744
34.681
34.621
34.565
34.513
34.466
34.422
34.383
34.349
34.317
34.288
34.261
34.234
34.206
34.177
34.144
34.108
34.068
34.022
33.972
33.919
33.864
33.808
33.753
33.7
33.651
33.606
33.567
33.532
33.502
33.477
33.456
33.438
33.424
33.41
33.396
33.382
33.366
33.348
33.327
33.303
33.275
33.244
33.211
33.177
33.143
33.109
33.076
33.046
33.019
32.994
32.97
32.948
32.926
32.904
32.882
32.858
32.831
32.801
32.767
32.73
32.69
32.649
32.607
32.566
32.527
32.49
32.456
32.425
32.398
32.375
32.356
32.341
32.328
32.318
32.309
32.3
32.293
32.285
32.277
32.269
32.263
32.26
32.263
32.275
32.3
32.339
32.396
32.472
32.568
32.686
32.825
32.985
33.166
33.365
33.582
33.814
34.058
34.313
34.574
34.839
35.105
35.369
35.627
35.878
36.117
36.344
36.556
36.754
36.935
37.1
37.249
37.381
37.497
37.597
37.68
37.748
37.8
37.839
37.866
37.883
37.892
37.894
37.891
37.885
37.877
37.867
37.856
37.845
37.834
37.824
37.814
37.804
37.794
37.784
37.774
37.763
37.751
37.738
37.723
37.706
37.686
37.662
37.635
37.603
37.567
37.526
37.483
37.437
37.39
37.341
37.293
37.245
37.198
37.146
37.086
37.019
36.946
36.872
36.8
36.735
36.678
36.631
36.595
36.569
36.551
36.54
36.534
36.532
36.532
36.532
36.531
36.527
36.521
36.51
36.496
36.478
36.457
36.435
36.412
36.387
36.361
36.333
36.305
36.275
36.244
36.212
36.178
36.143
36.106
36.067
36.026
35.982
35.936
35.888
35.837
35.784
35.727
35.667
35.604
35.538
35.47
35.399
35.327
35.253
35.179
35.105
35.032
34.962
34.895
34.832
34.774
34.72
34.671
34.626
34.586
34.547
34.509
34.472
34.435
34.398
34.36
34.322
34.282
34.24
34.196
34.15
34.103
34.055
34.006
33.957
33.908
33.86
33.815
33.77
33.728
33.688
33.65
33.611
33.573
33.533
33.491
33.446
33.4
33.352
33.303
33.255
33.208
33.162
33.117
33.074
33.036
33.003
32.977
32.956
32.942
32.932
32.927
32.924
32.922
32.918
32.912
32.901
32.884
32.862
32.834
32.802
32.765
32.723
32.679
32.632
32.585
32.541
32.499
32.461
32.426
32.396
32.368
32.343
32.32
32.297
32.275
32.251
32.227
32.203
32.177
32.152
32.127
32.104
32.082
32.062
32.044
32.028
32.016
32.006
31.998
31.991
31.986
31.985
31.987
31.996
32.013
32.04
32.081
32.137
32.211
32.306
32.423
32.561
32.722
32.903
33.106
33.328
33.567
33.819
34.082
34.352
34.625
34.896
35.162
35.42
35.666
35.897
36.113
36.311
36.491
36.653
36.797
36.923
37.034
37.129
37.21
37.278
37.334
37.378
37.412
37.439
37.459
37.474
37.485
37.493
37.498
37.501
37.503
37.504
37.503
37.502
37.5
37.499
37.498
37.496
37.495
37.492
37.488
37.482
37.471
37.457
37.438
37.414
37.387
37.356
37.32
37.281
37.24
37.197
37.153
37.109
37.065
37.021
36.977
36.934
36.891
36.851
36.812
36.777
36.744
36.716
36.691
36.671
36.654
36.638
36.624
36.61
36.596
36.579
36.559
36.536
36.51
36.481
36.449
36.416
36.38
36.341
36.301
36.259
36.217
36.173
36.13
36.087
36.046
36.007
35.971
35.938
35.908
35.88
35.853
35.828
35.803
35.777
35.751
35.723
35.693
35.66
35.623
35.584
35.541
35.495
35.446
35.394
35.34
35.284
35.228
35.171
35.115
35.059
35.004
34.951
34.899
34.848
34.798
34.749
34.7
34.651
34.604
34.558
34.513
34.468
34.424
34.381
34.339
34.299
34.263
34.231
34.202
34.175
34.149
34.123
34.097
34.07
34.041
34.01
33.978
33.942
33.903
33.861
33.815
33.768
33.721
33.674
33.627
33.583
33.538
33.494
33.452
33.412
33.374
33.339
33.306
33.276
33.249
33.223
33.199
33.177
33.157
33.139
33.121
33.104
33.086
33.069
33.052
33.034
33.017
33.0
32.982
32.964
32.945
32.927
32.908
32.889
32.869
32.848
32.826
32.8
32.772
32.741
32.707
32.671
32.632
32.593
32.552
32.512
32.473
32.436
32.403
32.375
32.356
32.345
32.344
32.356
32.381
32.42
32.475
32.546
32.633
32.737
32.858
32.996
33.151
33.323
33.51
33.711
33.924
34.147
34.379
34.617
34.86
35.105
35.348
35.586
35.818
36.041
36.252
36.45
36.634
36.802
36.954
37.09
37.211
37.317
37.408
37.484
37.546
37.594
37.629
37.652
37.664
37.665
37.657
37.643
37.623
37.6
37.576
37.552
37.53
37.511
37.497
37.486
37.478
37.474
37.472
37.471
37.472
37.473
37.474
37.475
37.474
37.471
37.466
37.458
37.448
37.433
37.414
37.391
37.363
37.328
37.286
37.239
37.186
37.128
37.067
37.001
36.934
36.867
36.8
36.734
36.67
36.609
36.552
36.502
36.459
36.424
36.397
36.378
36.365
36.359
36.357
36.359
36.364
36.371
36.378
36.384
36.388
36.389
36.386
36.378
36.365
36.344
36.317
36.284
36.243
36.196
36.144
36.088
36.029
35.968
35.906
35.843
35.781
35.719
35.66
35.602
35.549
35.499
35.452
35.41
35.37
35.334
35.3
35.268
35.237
35.206
35.173
35.137
35.098
35.056
35.009
34.959
34.905
34.847
34.786
34.722
34.657
34.59
34.524
34.46
34.4
34.344
34.294
34.249
34.209
34.173
34.143
34.116
34.092
34.069
34.044
34.019
33.991
33.96
33.927
33.891
33.853
33.813
33.772
33.73
33.689
33.649
33.612
33.576
33.544
33.515
33.489
33.466
33.444
33.424
33.403
33.383
33.362
33.339
33.315
33.287
33.255
33.221
33.182
33.142
33.101
33.061
33.022
32.986
32.951
32.916
32.878
32.838
32.797
32.758
32.723
32.694
32.671
32.655
32.645
32.639
32.634
32.63
32.625
32.617
32.606
32.592
32.573
32.552
32.53
32.507
32.484
32.464
32.447
32.437
32.437
32.448
32.474
32.517
32.578
32.658
32.759
32.88
33.022
33.185
33.368
33.569
33.787
34.019
34.264
34.517
34.776
35.038
35.3
35.558
35.81
36.053
36.285
36.505
36.711
36.901
37.075
37.23
37.368
37.487
37.589
37.675
37.745
37.803
37.848
37.884
37.911
37.931
37.946
37.956
37.962
37.964
37.964
37.961
37.956
37.95
37.942
37.933
37.923
37.912
37.9
37.887
37.875
37.863
37.851
37.839
37.826
37.812
37.796
37.78
37.761
37.74
37.718
37.693
37.666
37.635
37.602
37.564
37.523
37.478
37.43
37.38
37.328
37.274
37.219
37.164
37.11
37.057
37.006
36.956
36.91
36.866
36.826
36.789
36.756
36.728
36.705
36.686
36.671
36.661
36.652
36.645
36.639
36.631
36.621
36.608
36.591
36.571
36.546
36.519
36.489
36.457
36.422
36.384
36.344
36.301
36.255
36.206
36.154
36.1
36.045
35.989
35.933
35.878
35.824
35.772
35.721
35.672
35.624
35.577
35.53
35.483
35.437
35.391
35.346
35.3
35.252
35.202
35.15
35.097
35.042
34.987
34.933
34.88
34.828
34.778
34.731
34.686
34.643
34.604
34.567
34.533
34.5
34.468
34.436
34.404
34.37
34.335
34.296
34.253
34.205
34.154
34.099
34.042
33.984
33.927
33.872
33.821
33.774
33.733
33.698
33.669
33.647
33.631
33.62
33.613
33.607
33.601
33.594
33.583
33.569
33.55
33.526
33.498
33.468
33.435
33.4
33.365
33.33
33.296
33.264
33.233
33.204
33.178
33.153
33.129
33.105
33.08
33.053
33.025
32.996
32.966
32.935
32.904
32.873
32.844
32.816
32.792
32.77
32.75
32.734
32.719
32.706
32.693
32.679
32.664
32.646
32.625
32.601
32.573
32.541
32.507
32.473
32.44
32.411
32.388
32.375
32.375
32.389
32.419
32.469
32.538
32.629
32.741
32.875
33.03
33.204
33.398
33.61
33.838
34.083
34.34
34.608
34.882
35.161
35.441
35.718
35.991
36.256
36.51
36.751
36.978
37.187
37.378
37.549
37.7
37.832
37.944
38.038
38.116
38.179
38.228
38.264
38.288
38.302
38.308
38.307
38.302
38.295
38.285
38.273
38.26
38.246
38.231
38.217
38.204
38.191
38.18
38.171
38.162
38.154
38.146
38.138
38.129
38.119
38.105
38.087
38.064
38.035
38.0
37.961
37.918
37.872
37.825
37.776
37.726
37.676
37.626
37.576
37.527
37.477
37.428
37.38
37.334
37.289
37.247
37.207
37.17
37.137
37.108
37.081
37.056
37.033
37.01
36.987
36.964
36.941
36.918
36.897
36.876
36.858
36.842
36.827
36.814
36.801
36.788
36.773
36.757
36.739
36.718
36.695
36.669
36.641
36.609
36.573
36.533
36.487
36.435
36.379
36.317
36.253
36.186
36.119
36.051
35.983
35.917
35.852
35.788
35.727
35.666
35.608
35.551
35.496
35.444
35.393
35.345
35.298
35.252
35.206
35.16
35.114
35.066
35.018
34.967
34.917
34.867
34.818
34.771
34.725
34.682
34.642
34.604
34.568
34.534
34.5
34.467
34.433
34.4
34.365
34.328
34.288
34.245
34.2
34.155
34.109
34.067
34.027
33.991
33.96
33.932
33.909
33.889
33.871
33.856
33.841
33.826
33.809
33.79
33.768
33.743
33.716
33.686
33.653
33.619
33.584
33.548
33.514
33.479
33.446
33.413
33.381
33.351
33.322
33.293
33.265
33.237
33.208
33.179
33.148
33.117
33.085
33.052
33.018
32.986
32.954
32.924
32.897
32.873
32.851
32.832
32.814
32.798
32.782
32.766
32.75
32.735
32.72
32.706
32.697
32.694
32.699
32.717
32.75
32.8
32.873
32.968
33.089
33.235
33.407
33.603
33.822
34.063
34.322
34.596
34.881
35.173
35.468
35.763
36.055
36.34
36.614
36.875
37.12
37.348
37.557
37.748
37.919
38.072
38.207
38.327
38.432
38.522
38.598
38.66
38.71
38.749
38.776
38.795
38.804
38.807
38.804
38.797
38.787
38.774
38.759
38.744
38.727
38.709
38.69
38.67
38.648
38.627
38.604
38.581
38.558
38.533
38.507
38.481
38.454
38.426
38.396
38.364
38.329
38.292
38.252
38.211
38.168
38.123
38.078
38.031
37.985
37.938
37.891
37.844
37.798
37.752
37.709
37.667
37.626
37.587
37.548
37.51
37.474
37.44
37.408
37.378
37.35
37.323
37.296
37.269
37.24
37.209
37.177
37.145
37.113
37.081
37.049
37.017
36.985
36.953
36.921
36.889
36.857
36.823
36.787
36.749
36.709
36.667
36.622
36.575
36.524
36.471
36.414
36.354
36.291
36.224
36.155
36.086
36.017
35.95
35.884
35.819
35.754
35.69
35.627
35.566
35.505
35.439
35.37
35.305
35.246
35.195
35.151
35.11
35.072
35.033
34.993
34.957
34.931
34.918
34.913
34.914
34.915
34.912
34.902
34.882
34.851
34.809
34.755
34.69
34.615
34.533
34.444
34.352
34.259
34.169
34.083
34.004
33.933
33.87
33.816
33.769
33.731
33.7
33.675
33.656
33.64
33.626
33.613
33.6
33.587
33.572
33.555
33.535
33.512
33.487
33.459
33.429
33.397
33.365
33.333
33.301
33.27
33.241
33.213
33.186
33.158
33.13
33.101
33.071
33.039
33.007
32.974
32.939
32.903
32.865
32.826
32.787
32.749
32.713
32.679
32.648
32.619
32.593
32.569
32.548
32.529
32.511
32.496
32.485
32.482
32.487
32.504
32.534
32.58
32.645
32.731
32.841
32.975
33.136
33.322
33.533
33.767
34.021
34.292
34.576
34.869
35.166
35.464
35.759
36.048
36.328
36.598
36.854
37.096
37.323
37.535
37.731
37.91
38.072
38.218
38.348
38.461
38.558
38.64
38.708
38.762
38.805
38.837
38.858
38.87
38.873
38.869
38.858
38.841
38.819
38.792
38.763
38.732
38.7
38.669
38.638
38.609
38.58
38.552
38.525
38.498
38.471
38.443
38.414
38.384
38.351
38.316
38.278
38.236
38.191
38.142
38.09
38.036
37.98
37.922
37.864
37.807
37.752
37.7
37.651
37.606
37.565
37.53
37.499
37.473
37.451
37.433
37.418
37.405
37.394
37.384
37.375
37.366
37.355
37.343
37.327
37.308
37.285
37.259
37.231
37.201
37.171
37.14
37.11
37.079
37.048
37.016
36.984
36.952
36.918
36.883
36.846
36.807
36.766
36.724
36.68
36.634
36.584
36.533
36.478
36.421
36.36
36.298
36.233
36.167
36.1
36.035
35.97
35.908
35.848
35.79
35.735
35.681
35.631
35.581
35.534
35.487
35.44
35.392
35.342
35.289
35.233
35.174
35.113
35.051
34.99
34.929
34.871
34.815
34.764
34.717
34.674
34.636
34.602
34.572
34.546
34.522
34.501
34.48
34.458
34.433
34.406
34.375
34.341
34.304
34.266
34.225
34.184
34.142
34.1
34.06
34.021
33.983
33.946
33.91
33.876
33.842
33.809
33.775
33.74
33.705
33.669
33.633
33.597
33.56
33.524
33.49
33.458
33.43
33.406
33.386
33.371
33.36
33.356
33.36
33.372
33.395
33.429
33.478
33.542
33.624
33.725
33.848
33.992
34.16
34.351
34.565
34.799
35.053
35.324
35.615
35.924
36.241
36.558
36.867
37.163
37.441
37.701
37.941
38.159
38.355
38.531
38.685
38.82
38.936
39.035
39.117
39.184
39.235
39.274
39.301
39.32
39.332
39.339
39.341
39.34
39.335
39.326
39.314
39.298
39.28
39.258
39.232
39.204
39.173
39.139
39.103
39.065
39.026
38.986
38.947
38.907
38.866
38.824
38.78
38.734
38.684
38.629
38.57
38.507
38.439
38.367
38.291
38.213
38.132
38.05
37.969
37.89
37.815
37.745
37.682
37.628
37.581
37.541
37.51
37.485
37.466
37.451
37.44
37.431
37.424
37.416
37.407
37.396
37.383
37.366
37.345
37.322
37.294
37.263
37.229
37.192
37.152
37.112
37.07
37.028
36.986
36.943
36.9
36.857
36.813
36.769
36.724
36.679
36.633
36.585
36.536
36.486
36.434
36.38
36.325
36.268
36.208
36.145
36.081
36.015
35.948
35.882
35.817
35.754
35.693
35.635
35.579
35.524
35.467
35.409
35.35
35.288
35.224
35.158
35.091
35.022
34.954
34.887
34.822
34.762
34.706
34.655
34.611
34.573
34.541
34.515
34.494
34.478
34.465
34.452
34.438
34.422
34.403
34.379
34.351
34.319
34.282
34.242
34.199
34.154
34.106
34.058
34.009
33.962
33.917
33.873
33.831
33.79
33.749
33.709
33.668
33.627
33.585
33.545
33.506
33.469
33.434
33.402
33.374
33.349
33.328
33.312
33.301
33.297
33.299
33.309
33.327
33.355
33.393
33.444
33.51
33.594
33.699
33.827
33.979
34.157
34.36
34.587
34.838
35.11
35.399
35.704
36.019
36.341
36.666
36.989
37.307
37.615
37.911
38.189
38.449
38.688
38.903
39.094
39.259
39.4
39.516
39.61
39.683
39.737
39.776
39.8
39.812
39.812
39.804
39.789
39.768
39.744
39.716
39.686
39.656
39.627
39.6
39.576
39.554
39.536
39.521
39.508
39.496
39.485
39.473
39.46
39.443
39.423
39.397
39.366
39.329
39.285
39.234
39.175
39.109
39.036
38.956
38.872
38.783
38.693
38.603
38.513
38.426
38.342
38.265
38.194
38.131
38.076
38.03
37.992
37.961
37.937
37.917
37.902
37.89
37.88
37.87
37.86
37.847
37.83
37.81
37.784
37.754
37.719
37.681
37.638
37.591
37.543
37.492
37.44
37.386
37.332
37.278
37.223
37.168
37.113
37.058
37.004
36.951
36.897
36.844
36.79
36.736
36.682
36.626
36.567
36.506
36.442
36.374
36.302
36.229
36.154
36.077
36.0
35.924
35.85
35.778
35.709
35.643
35.58
35.521
35.462
35.405
35.348
35.29
35.231
35.173
35.114
35.056
34.998
34.943
34.889
34.837
34.789
34.744
34.701
34.662
34.624
34.589
34.556
34.523
34.491
34.458
34.423
34.385
34.344
34.3
34.254
34.205
34.154
34.101
34.048
33.994
33.941
33.889
33.84
33.791
33.745
33.699
33.655
33.611
33.568
33.525
33.483
33.442
33.405
33.371
33.341
33.315
33.292
33.272
33.255
33.237
33.219
33.2
33.178
33.153
33.127
33.1
33.073
33.048
33.026
33.01
33.003
33.006
33.024
33.058
33.11
33.182
33.278
33.399
33.545
33.718
33.915
34.136
34.379
34.644
34.928
35.229
35.544
35.871
36.204
36.541
36.877
37.208
37.53
37.838
38.129
38.402
38.655
38.886
39.093
39.276
39.433
39.566
39.673
39.756
39.816
39.853
39.87
39.869
39.852
39.823
39.782
39.733
39.68
39.624
39.569
39.515
39.465
39.418
39.377
39.341
39.312
39.29
39.274
39.262
39.252
39.244
39.234
39.223
39.207
39.186
39.159
39.125
39.084
39.036
38.98
38.915
38.843
38.764
38.679
38.588
38.494
38.399
38.303
38.209
38.117
38.029
37.946
37.87
37.802
37.744
37.695
37.656
37.626
37.604
37.588
37.579
37.576
37.575
37.577
37.578
37.578
37.573
37.564
37.547
37.523
37.49
37.448
37.398
37.34
37.275
37.205
37.131
37.056
36.983
36.911
36.843
36.777
36.715
36.655
36.598
36.545
36.494
36.447
36.401
36.356
36.31
36.261
36.208
36.15
36.088
36.02
35.948
35.872
35.795
35.716
35.638
35.561
35.486
35.414
35.344
35.278
35.215
35.155
35.096
35.039
34.983
34.928
34.872
34.815
34.758
34.699
34.64
34.583
34.529
34.479
34.431
34.387
34.346
34.308
34.273
34.241
34.211
34.181
34.15
34.116
34.079
34.038
33.994
33.947
33.897
33.844
33.791
33.738
33.687
33.637
33.591
33.547
33.504
33.464
33.426
33.389
33.353
33.317
33.28
33.242
33.204
33.165
33.126
33.088
33.052
33.017
32.984
32.953
32.923
32.894
32.867
32.84
32.814
32.787
32.759
32.732
32.707
32.686
32.67
32.663
32.666
32.68
32.709
32.754
32.818
32.903
33.009
33.136
33.287
33.462
33.66
33.88
34.123
34.385
34.665
34.959
35.263
35.576
35.892
36.208
36.519
36.821
37.109
37.381
37.633
37.862
38.065
38.243
38.395
38.52
38.62
38.695
38.747
38.778
38.79
38.785
38.766
38.736
38.697
38.652
38.604
38.554
38.507
38.462
38.421
38.384
38.352
38.325
38.301
38.28
38.26
38.241
38.221
38.198
38.171
38.14
38.101
38.055
38.001
37.94
37.872
37.798
37.718
37.633
37.545
37.455
37.366
37.278
37.193
37.112
37.034
36.961
36.893
36.831
36.772
36.718
36.667
36.621
36.578
36.541
36.508
36.479
36.453
36.43
36.409
36.391
36.374
36.359
36.344
36.33
36.317
36.303
36.289
36.273
36.254
36.231
36.202
36.168
36.127
36.078
36.023
35.961
35.893
35.822
35.748
35.674
35.601
35.53
35.463
35.399
35.339
35.283
35.232
35.184
35.138
35.091
35.044
34.996
34.944
34.889
34.829
34.764
34.695
34.622
34.552
34.491
34.443
34.405
34.374
34.345
34.313
34.276
34.233
34.182
34.125
34.06
33.989
33.914
33.836
33.755
33.675
33.596
33.52
33.448
33.383
33.323
33.271
33.225
33.185
33.15
33.119
33.09
33.063
33.037
33.011
32.985
32.958
32.93
32.902
32.872
32.841
32.81
32.777
32.741
32.703
32.662
32.62
32.576
32.531
32.485
32.437
32.39
32.343
32.297
32.254
32.214
32.177
32.142
32.11
32.079
32.051
32.025
32.0
31.977
31.955
31.934
31.916
31.9
31.89
31.886
31.893
31.911
31.941
31.986
32.045
32.121
32.213
32.324
32.453
32.601
32.768
32.954
33.16
33.385
33.628
33.888
34.162
34.446
34.738
35.033
35.33
35.623
35.91
36.187
36.449
36.694
36.92
37.125
37.307
37.466
37.602
37.715
37.808
37.883
37.94
37.98
38.008
38.023
38.028
38.026
38.017
38.003
37.985
37.964
37.94
37.916
37.889
37.862
37.832
37.8
37.767
37.732
37.694
37.655
37.614
37.573
37.531
37.489
37.445
37.401
37.356
37.31
37.263
37.215
37.168
37.121
37.074
37.027
36.981
36.934
36.888
36.842
36.794
36.743
36.691
36.637
36.581
36.526
36.47
36.415
36.361
36.309
36.259
36.213
36.171
36.132
36.098
36.068
36.043
36.024
36.01
36.001
35.996
35.994
35.994
35.995
35.994
35.991
35.984
35.972
35.955
35.931
35.9
35.862
35.817
35.766
35.711
35.653
35.594
35.534
35.474
35.414
35.354
35.293
35.232
35.17
35.107
35.043
34.979
34.914
34.85
34.786
34.723
34.661
34.601
34.544
34.49
34.44
34.393
34.348
34.306
34.264
34.221
34.177
34.13
34.081
34.03
33.976
33.92
33.863
33.804
33.746
33.689
33.634
33.581
33.531
33.484
33.44
33.398
33.359
33.322
33.286
33.25
33.214
33.178
33.141
33.104
33.068
33.033
33.001
32.97
32.943
32.917
32.893
32.869
32.845
32.819
