Trial 3:3back
35.421
35.401
35.382
35.362
35.343
35.325
35.306
35.288
35.271
35.254
35.238
35.223
35.211
35.202
35.194
35.188
35.182
35.176
35.17
35.162
35.154
35.145
35.135
35.125
35.116
35.107
35.099
35.09
35.082
35.073
35.064
35.053
35.042
35.032
35.022
35.014
35.007
35.001
34.997
34.994
34.99
34.987
34.983
34.979
34.975
34.97
34.967
34.964
34.962
34.961
34.958
34.955
34.95
34.945
34.937
34.927
34.916
34.903
34.89
34.88
34.871
34.864
34.86
34.858
34.858
34.858
34.858
34.859
34.861
34.863
34.865
34.867
34.87
34.873
34.875
34.877
34.877
34.875
34.871
34.865
34.857
34.847
34.836
34.823
34.811
34.799
34.788
34.777
34.768
34.759
34.752
34.746
34.742
34.739
34.738
34.738
34.739
34.74
34.741
34.743
34.746
34.75
34.757
34.768
34.783
34.804
34.831
34.866
34.909
34.961
35.023
35.095
35.177
35.269
35.369
35.476
35.588
35.703
35.82
35.936
36.05
36.158
36.259
36.351
36.433
36.504
36.562
36.608
36.642
36.663
36.674
36.674
36.666
36.651
36.63
36.605
36.575
36.543
36.511
36.48
36.452
36.427
36.404
36.382
36.359
36.336
36.314
36.291
36.268
36.245
36.223
36.204
36.186
36.171
36.157
36.143
36.128
36.112
36.093
36.072
36.048
36.023
35.996
35.968
35.941
35.915
35.891
35.868
35.845
35.823
35.802
35.782
35.763
35.746
35.731
35.718
35.708
35.699
35.692
35.686
35.68
35.674
35.668
35.663
35.658
35.649
35.634
35.615
35.592
35.57
35.55
35.534
35.525
35.523
35.527
35.538
35.553
35.572
35.594
35.616
35.637
35.656
35.67
35.679
35.681
35.678
35.671
35.659
35.644
35.627
35.608
35.59
35.572
35.554
35.537
35.518
35.498
35.476
35.452
35.427
35.402
35.375
35.35
35.325
35.303
35.283
35.266
35.25
35.236
35.224
35.211
35.201
35.192
35.185
35.181
35.18
35.181
35.184
35.189
35.194
35.199
35.202
35.205
35.206
35.205
35.203
35.198
35.192
35.185
35.176
35.167
35.157
35.147
35.137
35.127
35.117
35.106
35.095
35.085
35.075
35.065
35.057
35.049
35.043
35.038
35.033
35.029
35.026
35.023
35.021
35.02
35.02
35.02
35.02
35.02
35.019
35.017
35.014
35.01
35.005
34.998
34.991
34.982
34.973
34.963
34.953
34.942
34.931
34.921
34.911
34.903
34.895
34.89
34.886
34.884
34.882
34.879
34.876
34.871
34.863
34.853
34.841
34.828
34.814
34.801
34.789
34.779
34.771
34.763
34.757
34.753
34.75
34.748
34.748
34.75
34.754
34.763
34.775
34.793
34.815
34.842
34.874
34.912
34.956
35.008
35.068
35.139
35.218
35.306
35.401
35.502
35.606
35.711
35.814
35.913
36.006
36.093
36.172
36.242
36.304
36.355
36.397
36.429
36.45
36.462
36.466
36.462
36.451
36.435
36.417
36.396
36.373
36.349
36.325
36.3
36.276
36.254
36.232
36.211
36.191
36.173
36.158
36.146
36.137
36.131
36.127
36.124
36.121
36.119
36.116
36.113
36.108
36.102
36.093
36.083
36.07
36.055
36.039
36.02
36.001
35.98
35.958
35.935
35.911
35.887
35.863
35.84
35.818
35.796
35.776
35.756
35.738
35.721
35.706
35.694
35.685
35.679
35.677
35.679
35.683
35.691
35.701
35.712
35.725
35.74
35.755
35.771
35.786
35.799
35.809
35.815
35.816
35.813
35.806
35.795
35.779
35.761
35.74
35.718
35.695
35.672
35.649
35.627
35.606
35.586
35.568
35.551
35.535
35.52
35.506
35.492
35.478
35.464
35.449
35.435
35.42
35.404
35.389
35.374
35.361
35.349
35.339
35.329
35.32
35.31
35.298
35.285
35.269
35.252
35.235
35.22
35.206
35.194
35.185
35.177
35.169
35.162
35.155
35.147
35.139
35.131
35.123
35.115
35.107
35.1
35.094
35.089
35.085
35.081
35.077
35.072
35.066
35.06
35.053
35.045
35.038
35.03
35.024
35.018
35.013
35.008
35.005
35.001
34.999
34.997
34.995
34.994
34.992
34.991
34.99
34.988
34.985
34.982
34.979
34.975
34.97
34.964
34.958
34.952
34.945
34.939
34.932
34.926
34.92
34.914
34.908
34.902
34.895
34.887
34.879
34.869
34.86
34.851
34.843
34.835
34.828
34.823
34.82
34.818
34.817
34.816
34.816
34.815
34.813
34.811
34.808
34.805
34.801
34.797
34.793
34.788
34.783
34.778
34.773
34.769
34.765
34.761
34.759
34.758
34.76
34.764
34.773
34.787
34.809
34.839
34.88
34.931
34.994
35.066
35.148
35.238
35.334
35.434
35.537
35.642
35.746
35.849
35.949
36.045
36.135
36.218
36.292
36.357
36.411
36.454
36.485
36.506
36.517
36.52
36.516
36.506
36.49
36.469
36.444
36.416
36.386
36.357
36.33
36.307
36.287
36.278
36.282
36.299
36.326
36.359
36.393
36.426
36.452
36.47
36.479
36.479
36.468
36.447
36.416
36.377
36.33
36.278
36.222
36.165
36.109
36.055
36.004
35.958
35.917
35.88
35.849
35.823
35.802
35.786
35.774
35.767
35.763
35.763
35.765
35.77
35.776
35.783
35.791
35.8
35.809
35.819
35.828
35.838
35.849
35.861
35.872
35.884
35.895
35.905
35.913
35.919
35.922
35.923
35.921
35.916
35.908
35.897
35.883
35.865
35.845
35.823
35.799
35.773
35.747
35.72
35.693
35.666
35.64
35.614
35.59
35.567
35.545
35.526
35.507
35.49
35.474
35.46
35.446
35.433
35.42
35.408
35.396
35.386
35.378
35.37
35.364
35.358
35.354
35.351
35.349
35.349
35.348
35.348
35.345
35.341
35.335
35.325
35.314
35.3
35.286
35.272
35.259
35.248
35.239
35.233
35.228
35.226
35.225
35.226
35.23
35.237
35.246
35.258
35.274
35.292
35.314
35.337
35.361
35.386
35.412
35.438
35.464
35.49
35.517
35.543
35.569
35.593
35.614
35.631
35.645
35.656
35.663
35.666
35.664
35.657
35.645
35.629
35.608
35.582
35.553
35.519
35.482
35.444
35.405
35.367
35.331
35.296
35.263
35.231
35.201
35.171
35.141
35.111
35.081
35.051
35.021
34.992
34.966
34.945
34.928
34.916
34.909
34.908
34.91
34.916
34.926
34.938
34.952
34.969
34.987
35.007
35.027
35.046
35.064
35.081
35.096
35.109
35.119
35.128
35.134
35.14
35.144
35.147
35.148
35.149
35.15
35.149
35.148
35.146
35.143
35.14
35.134
35.127
35.118
35.106
35.093
35.078
35.061
35.044
35.027
35.01
34.994
34.979
34.964
34.95
34.937
34.925
34.912
34.901
34.89
34.88
34.872
34.864
34.858
34.853
34.848
34.844
34.841
34.838
34.835
34.83
34.823
34.816
34.809
34.801
34.793
34.785
34.779
34.773
34.768
34.765
34.763
34.761
34.761
34.76
34.759
34.757
34.753
34.747
34.74
34.732
34.724
34.715
34.707
34.7
34.694
34.689
34.685
34.682
34.68
34.678
34.676
34.675
34.674
34.674
34.674
34.675
34.676
34.678
34.679
34.678
34.676
34.671
34.664
34.657
34.649
34.643
34.637
34.633
34.63
34.628
34.626
34.623
34.618
34.611
34.602
34.594
34.586
34.58
34.575
34.574
34.575
34.578
34.583
34.587
34.592
34.596
34.598
34.598
34.595
34.59
34.584
34.577
34.571
34.565
34.559
34.555
34.551
34.548
34.547
34.546
34.546
34.546
34.547
34.549
34.55
34.551
34.551
34.55
34.548
34.544
34.54
34.534
34.528
34.523
34.517
34.513
34.509
34.506
34.504
34.503
34.503
34.502
34.502
34.501
34.499
34.495
34.49
34.484
34.479
34.474
34.471
34.468
34.468
34.468
34.469
34.471
34.473
34.475
34.475
34.475
34.474
34.472
34.468
34.463
34.456
34.448
34.439
34.428
34.417
34.408
34.398
34.383
34.365
34.343
34.321
34.304
34.293
34.293
34.307
34.336
34.382
34.446
34.529
34.632
34.754
34.893
35.047
35.213
35.386
35.564
35.742
35.918
36.087
36.247
36.396
36.533
36.655
36.762
36.853
36.927
36.985
37.026
37.052
37.065
37.066
37.057
37.04
37.018
36.991
36.961
36.929
36.894
36.858
36.822
36.786
36.753
36.723
36.696
36.673
36.656
36.643
36.635
36.631
36.63
36.63
36.632
36.633
36.636
36.637
36.637
36.635
36.629
36.621
36.609
36.593
36.575
36.554
36.531
36.506
36.479
36.45
36.42
36.388
36.356
36.324
36.291
36.259
36.227
36.197
36.17
36.145
36.123
36.105
36.091
36.08
36.073
36.069
36.067
36.068
36.072
36.078
36.087
36.098
36.112
36.128
36.143
36.157
36.169
36.176
36.18
36.179
36.175
36.167
36.155
36.141
36.124
36.104
36.083
36.06
36.037
36.014
35.99
35.966
35.943
35.919
35.896
35.874
35.851
35.828
35.806
35.784
35.762
35.74
35.719
35.698
35.678
35.659
35.641
35.624
35.606
35.588
35.57
35.551
35.533
35.517
35.503
35.49
35.48
35.472
35.466
35.462
35.458
35.454
35.448
35.442
35.434
35.426
35.418
35.409
35.401
35.392
35.384
35.376
35.369
35.361
35.354
35.346
35.337
35.328
35.317
35.306
35.294
35.282
35.27
35.256
35.242
35.227
35.212
35.196
35.181
35.166
35.153
35.141
35.13
35.122
35.116
35.112
35.109
35.106
35.101
35.096
35.089
35.082
35.075
35.068
35.061
35.056
35.052
35.049
35.046
35.043
35.039
35.035
35.03
35.025
35.02
35.015
35.01
35.006
35.002
34.998
34.994
34.988
34.983
34.976
34.97
34.963
34.958
34.952
34.948
34.942
34.936
34.929
34.92
34.91
34.898
34.885
34.87
34.855
34.839
34.824
34.81
34.799
34.792
34.787
34.783
34.782
34.782
34.782
34.782
34.781
34.779
34.775
34.77
34.764
34.757
34.75
34.745
34.743
34.744
34.751
34.762
34.78
34.805
34.838
34.88
34.932
34.994
35.067
35.151
35.243
35.345
35.455
35.571
35.691
35.812
35.931
36.048
36.159
36.264
36.361
36.447
36.522
36.587
36.64
36.684
36.717
36.741
36.756
36.763
36.762
36.752
36.736
36.715
36.69
36.662
36.631
36.6
36.569
36.539
36.511
36.486
36.463
36.444
36.429
36.416
36.407
36.401
36.399
36.4
36.405
36.412
36.421
36.43
36.437
36.442
36.443
36.44
36.433
36.422
36.408
36.391
36.372
36.35
36.325
36.296
36.264
36.228
36.189
36.149
36.109
36.07
36.034
36.003
35.975
35.952
35.934
35.919
35.908
35.9
35.894
35.892
35.892
35.895
35.899
35.905
35.913
35.92
35.926
35.93
35.933
35.933
35.933
35.93
35.927
35.922
35.916
35.909
35.901
35.891
35.879
35.867
35.853
35.84
35.825
35.811
35.797
35.784
35.77
35.758
35.745
35.731
35.716
35.699
35.676
35.646
35.609
35.567
35.522
35.477
35.436
35.4
35.372
35.353
35.342
35.339
35.341
35.347
35.356
35.365
35.374
35.38
35.385
35.388
35.389
35.387
35.384
35.378
35.369
35.359
35.347
35.335
35.322
35.309
35.297
35.285
35.273
35.261
35.25
35.238
35.227
35.215
35.204
35.194
35.184
35.174
35.166
35.159
35.152
35.147
35.143
35.14
35.137
35.134
35.132
35.129
35.127
35.123
35.118
35.111
35.102
35.09
35.077
35.062
35.047
35.032
35.018
35.006
34.995
34.987
34.98
34.974
34.968
34.963
34.957
34.95
34.942
34.935
34.928
34.922
34.916
34.911
34.907
34.902
34.897
34.892
34.886
34.879
34.873
34.868
34.865
34.864
34.864
34.865
34.868
34.87
34.87
34.869
34.865
34.859
34.852
34.844
34.836
34.829
34.823
34.817
34.81
34.803
34.795
34.785
34.773
34.761
34.748
34.735
34.723
34.713
34.705
34.699
34.695
34.693
34.692
34.691
34.691
34.689
34.686
34.681
34.674
34.666
34.657
34.647
34.638
34.629
34.622
34.616
34.613
34.613
34.617
34.626
34.64
34.661
34.689
34.725
34.77
34.824
34.888
34.961
35.044
35.136
35.235
35.341
35.453
35.567
35.684
35.799
35.913
36.022
36.126
36.223
36.312
36.39
36.458
36.514
36.558
36.591
36.612
36.623
36.625
36.619
36.606
36.589
36.568
36.547
36.525
36.503
36.483
36.464
36.448
36.432
36.418
36.404
36.392
36.38
36.371
36.363
36.359
36.357
36.357
36.359
36.361
36.362
36.363
36.361
36.358
36.352
36.345
36.335
36.324
36.311
36.297
36.282
36.264
36.245
36.224
36.201
36.176
36.149
36.121
36.092
36.065
36.039
36.014
35.989
35.966
35.946
35.927
35.911
35.897
35.886
35.878
35.873
35.871
35.87
35.87
35.872
35.875
35.877
35.88
35.882
35.882
35.882
35.881
35.879
35.878
35.875
35.872
35.866
35.858
35.848
35.835
35.82
35.804
35.787
35.77
35.754
35.739
35.725
35.713
35.702
35.691
35.681
35.67
35.658
35.645
35.631
35.616
35.6
35.582
35.563
35.544
35.524
35.504
35.484
35.465
35.447
35.431
35.417
35.406
35.399
35.396
35.397
35.4
35.404
35.406
35.407
35.405
35.399
35.39
35.377
35.36
35.341
35.32
35.297
35.273
35.249
35.225
35.202
35.181
35.163
35.148
35.136
35.126
35.118
35.112
35.107
35.103
35.1
35.096
35.093
35.089
35.084
35.078
35.072
35.066
35.059
35.051
35.043
35.035
35.028
35.02
35.013
35.006
35.003
35.003
35.007
35.013
35.02
35.027
35.031
35.032
35.029
35.022
35.012
35.0
34.986
34.97
34.953
34.936
34.918
34.901
34.884
34.868
34.854
34.84
34.828
34.817
34.809
34.802
34.796
34.792
34.789
34.787
34.785
34.782
34.779
34.776
34.772
34.769
34.766
34.764
34.762
34.761
34.759
34.757
34.753
34.747
34.74
34.732
34.724
34.716
34.709
34.702
34.696
34.691
34.684
34.677
34.668
34.658
34.648
34.637
34.626
34.615
34.606
34.598
34.593
34.59
34.589
34.589
34.59
34.591
34.592
34.591
34.589
34.586
34.582
34.577
34.572
34.566
34.562
34.559
34.557
34.558
34.563
34.57
34.582
34.599
34.62
34.647
34.682
34.727
34.782
34.852
34.934
35.03
35.136
35.249
35.368
35.488
35.607
35.722
35.83
35.93
36.019
36.098
36.165
36.222
36.268
36.303
36.329
36.346
36.355
36.358
36.355
36.348
36.339
36.326
36.312
36.298
36.282
36.267
36.251
36.236
36.222
36.208
36.196
36.185
36.176
36.17
36.166
36.163
36.162
36.161
36.16
36.159
36.158
36.155
36.152
36.146
36.139
36.13
36.118
36.105
36.088
36.07
36.05
36.029
36.007
35.984
35.961
35.937
35.913
35.888
35.863
35.837
35.812
35.789
35.768
35.749
35.734
35.721
35.711
35.702
35.696
35.691
35.69
35.691
35.694
35.701
35.71
35.722
35.735
35.749
35.763
35.776
35.787
35.795
35.8
35.803
35.803
35.802
35.799
35.795
35.789
35.781
35.773
35.763
35.751
35.739
35.725
35.71
35.692
35.672
35.651
35.627
35.603
35.576
35.548
35.518
35.486
35.455
35.425
35.397
35.372
35.351
35.333
35.319
35.307
35.298
35.291
35.284
35.277
35.268
35.259
35.248
35.237
35.227
35.216
35.206
35.196
35.186
35.177
35.169
35.162
35.155
35.148
35.141
35.132
35.122
35.111
35.1
35.088
35.078
35.068
35.06
35.054
35.049
35.046
35.044
35.043
35.042
35.042
35.043
35.045
35.048
35.052
35.057
35.062
35.068
35.076
35.085
35.096
35.108
35.121
35.134
35.146
35.157
35.165
35.169
35.17
35.167
35.159
35.147
35.132
35.113
35.092
35.07
35.047
35.025
35.001
34.977
34.953
34.928
34.904
34.88
34.857
34.834
34.813
34.794
34.775
34.758
34.741
34.725
34.71
34.697
34.686
34.677
34.672
34.67
34.67
34.674
34.68
34.687
34.694
34.702
34.709
34.716
34.722
34.727
34.731
34.734
34.736
34.739
34.74
34.741
34.74
34.737
34.732
34.726
34.72
34.713
34.706
34.703
34.706
34.716
34.731
34.748
34.766
34.781
34.792
34.798
34.799
34.795
34.787
34.775
34.758
34.738
34.714
34.687
34.657
34.625
34.593
34.561
34.532
34.505
34.482
34.464
34.452
34.446
34.444
34.447
34.453
34.46
34.469
34.476
34.483
34.488
34.492
34.493
34.494
34.494
34.493
34.493
34.492
34.492
34.492
34.492
34.492
34.493
34.492
34.491
34.487
34.481
34.474
34.466
34.458
34.45
34.442
34.434
34.427
34.421
34.415
34.41
34.405
34.4
34.396
34.393
34.391
34.39
34.39
34.392
34.394
34.396
34.398
34.398
34.396
34.394
34.391
34.388
34.384
34.381
34.378
34.376
34.374
34.372
34.37
34.368
34.366
34.364
34.361
34.357
34.351
34.342
34.332
34.321
34.309
34.298
34.288
34.28
34.275
34.273
34.276
34.282
34.293
34.305
34.319
34.333
34.344
34.353
34.359
34.362
34.363
34.361
34.358
34.353
34.349
34.346
34.344
34.342
34.341
34.339
34.336
34.331
34.325
34.318
34.312
34.306
34.302
34.3
34.298
34.297
34.297
34.296
34.296
34.294
34.29
34.284
34.277
34.27
34.263
34.257
34.253
34.251
34.252
34.254
34.257
34.261
34.265
34.269
34.272
34.274
34.277
34.281
34.285
34.29
34.295
34.301
34.306
34.31
34.312
34.314
34.313
34.311
34.307
34.302
34.296
34.29
34.283
34.277
34.271
34.265
34.26
34.255
34.251
34.248
34.246
34.245
34.247
34.252
34.264
34.283
34.312
34.353
34.407
34.476
34.561
34.663
34.782
34.915
35.061
35.217
35.38
35.547
35.715
35.879
36.037
36.184
36.316
36.433
36.532
36.612
36.673
36.715
36.74
36.749
36.746
36.731
36.706
36.673
36.636
36.594
36.549
36.504
36.459
36.416
36.376
36.34
36.307
36.28
36.258
36.241
36.23
36.225
36.224
36.227
36.233
36.242
36.252
36.262
36.271
36.277
36.282
36.283
36.283
36.28
36.276
36.27
36.262
36.252
36.239
36.222
36.201
36.177
36.149
36.118
36.084
36.049
36.014
35.98
35.947
35.916
35.887
35.859
35.834
35.81
35.789
35.77
35.753
35.74
35.731
35.727
35.727
35.731
35.736
35.743
35.75
35.756
35.761
35.765
35.768
35.77
35.771
35.771
35.77
35.767
35.762
35.755
35.745
35.732
35.717
35.7
35.683
35.665
35.647
35.63
35.613
35.599
35.585
35.571
35.557
35.543
35.528
35.514
35.499
35.483
35.468
35.453
35.439
35.425
35.412
35.399
35.385
35.371
35.358
35.344
35.331
35.318
35.305
35.292
35.277
35.262
35.246
35.23
35.214
35.2
35.186
35.173
35.162
35.151
35.141
35.132
35.124
35.117
35.111
35.105
35.099
35.094
35.089
35.083
35.077
35.072
35.066
35.061
35.057
35.054
35.053
35.053
35.053
35.053
35.054
35.053
35.051
35.047
35.042
35.034
35.025
35.014
35.002
34.99
34.978
34.966
34.956
34.947
34.941
34.936
34.932
34.929
34.927
34.924
34.921
34.915
34.908
34.9
34.89
34.88
34.87
34.859
34.851
34.843
34.838
34.832
34.828
34.823
34.818
34.813
34.807
34.8
34.794
34.789
34.782
34.775
34.768
34.76
34.751
34.742
34.731
34.719
34.706
34.695
34.685
34.677
34.671
34.667
34.664
34.662
34.66
34.658
34.654
34.652
34.65
34.649
34.649
34.65
34.653
34.657
34.66
34.661
34.661
34.659
34.654
34.646
34.636
34.624
34.61
34.596
34.582
34.569
34.559
34.551
34.546
34.543
34.542
34.543
34.545
34.548
34.551
34.555
34.558
34.561
34.563
34.563
34.562
34.56
34.556
34.552
34.547
34.542
34.537
34.534
34.532
34.531
34.532
34.536
34.544
34.558
34.578
34.607
34.646
34.695
34.756
34.83
34.917
35.016
35.127
35.248
35.377
35.511
35.648
35.783
35.914
36.038
36.153
36.256
36.347
36.423
36.487
36.536
36.573
36.597
36.611
36.616
36.612
36.6
36.582
36.558
36.531
36.5
36.469
36.436
36.404
36.373
36.342
36.307
36.267
36.225
36.182
36.141
36.104
36.073
36.05
36.035
36.03
36.034
36.046
36.066
36.091
36.121
36.152
36.184
36.213
36.237
36.254
36.264
36.266
36.26
36.248
36.229
36.206
36.177
36.145
36.11
36.072
36.034
35.994
35.955
35.918
35.883
35.85
35.822
35.797
35.777
35.76
35.747
35.737
35.728
35.723
35.719
35.717
35.716
35.716
35.718
35.721
35.725
35.728
35.731
35.734
35.737
35.739
35.741
35.743
35.745
35.747
35.748
35.748
35.746
35.741
35.733
35.722
35.707
35.691
35.673
35.654
35.634
35.614
35.592
35.57
35.548
35.525
35.502
35.48
35.458
35.436
35.416
35.396
35.379
35.362
35.347
35.333
35.32
35.307
35.293
35.28
35.266
35.251
35.237
35.223
35.21
35.199
35.189
35.181
35.176
35.172
35.171
35.17
35.17
35.17
35.169
35.168
35.165
35.163
35.161
35.158
35.154
35.149
35.145
35.14
35.135
35.13
35.125
35.119
35.112
35.105
35.097
35.088
35.078
35.067
35.055
35.041
35.028
35.014
35.001
34.988
34.977
34.967
34.959
34.952
34.946
34.941
34.937
34.933
34.93
34.926
34.923
34.92
34.918
34.916
34.915
34.914
34.914
34.913
34.91
34.907
34.902
34.896
34.888
34.878
34.868
34.857
34.847
34.836
34.826
34.815
34.804
34.793
34.783
34.775
34.768
34.762
34.758
34.756
34.755
34.754
34.753
34.753
34.751
34.748
34.743
34.738
34.733
34.727
34.722
