Trial 3:3back
33.536
33.517
33.499
33.481
33.462
33.441
33.419
33.394
33.367
33.337
33.304
33.268
33.23
33.19
33.148
33.104
33.061
33.018
32.975
32.933
32.893
32.854
32.817
32.782
32.748
32.716
32.686
32.659
32.635
32.613
32.594
32.579
32.569
32.567
32.574
32.594
32.631
32.688
32.769
32.877
33.014
33.18
33.378
33.606
33.863
34.145
34.448
34.767
35.099
35.438
35.779
36.118
36.451
36.774
37.083
37.376
37.652
37.907
38.141
38.354
38.544
38.71
38.854
38.975
39.077
39.16
39.226
39.277
39.315
39.342
39.359
39.367
39.367
39.359
39.344
39.324
39.298
39.27
39.238
39.204
39.168
39.132
39.095
39.058
39.02
38.981
38.942
38.902
38.859
38.814
38.766
38.714
38.658
38.598
38.534
38.467
38.396
38.322
38.245
38.166
38.087
38.008
37.929
37.852
37.776
37.703
37.632
37.564
37.5
37.438
37.379
37.322
37.268
37.216
37.166
37.119
37.074
37.031
36.99
36.952
36.915
36.881
36.848
36.816
36.784
36.75
36.716
36.68
36.644
36.608
36.571
36.535
36.498
36.462
36.425
36.387
36.346
36.304
36.26
36.215
36.168
36.12
36.069
36.016
35.96
35.901
35.839
35.775
35.707
35.638
35.569
35.5
35.43
35.362
35.294
35.228
35.162
35.099
35.037
34.978
34.921
34.865
34.809
34.754
34.697
34.641
34.585
34.528
34.472
34.416
34.362
34.31
34.259
34.209
34.161
34.114
34.068
34.025
33.983
33.944
33.907
33.872
33.838
33.807
33.776
33.747
33.719
33.691
33.662
33.633
33.602
33.571
33.539
33.508
33.478
33.449
33.422
33.396
33.371
33.345
33.319
33.293
33.267
33.239
33.21
33.181
33.151
33.121
33.091
33.061
33.032
33.004
32.978
32.956
32.939
32.93
32.931
32.945
32.976
33.026
33.097
33.194
33.317
33.469
33.648
33.855
34.087
34.344
34.621
34.916
35.226
35.546
35.873
36.203
36.532
36.856
37.17
37.471
37.754
38.017
38.258
38.475
38.668
38.837
38.984
39.107
39.209
39.29
39.352
39.397
39.426
39.44
39.442
39.433
39.415
39.389
39.358
39.322
39.281
39.237
39.192
39.145
39.097
39.049
39.002
38.954
38.906
38.857
38.806
38.754
38.699
38.64
38.577
38.509
38.436
38.359
38.278
38.194
38.106
38.014
37.921
37.828
37.734
37.641
37.551
37.464
37.381
37.303
37.231
37.165
37.104
37.049
37.0
36.955
36.914
36.876
36.84
36.808
36.779
36.752
36.727
36.703
36.681
36.659
36.638
36.615
36.593
36.569
36.545
36.519
36.492
36.462
36.429
36.392
36.353
36.309
36.261
36.211
36.158
36.103
36.046
35.987
35.926
35.864
35.802
35.74
35.678
35.617
35.556
35.497
35.439
35.381
35.323
35.267
35.211
35.156
35.102
35.048
34.995
34.942
34.888
34.834
34.779
34.723
34.665
34.607
34.549
34.491
34.434
34.378
34.324
34.272
34.221
34.173
34.128
34.086
34.046
34.009
33.974
33.94
33.907
33.876
33.847
33.818
33.79
33.762
33.733
33.703
33.672
33.642
33.612
33.584
33.558
33.534
33.512
33.492
33.473
33.455
33.436
33.416
33.393
33.369
33.342
33.313
33.282
33.25
33.218
33.187
33.157
33.128
33.1
33.076
33.054
33.035
33.021
33.01
33.004
33.005
33.016
33.038
33.075
33.131
33.207
33.307
33.434
33.587
33.77
33.981
34.22
34.485
34.773
35.08
35.403
35.736
36.075
36.415
36.751
37.079
37.394
37.689
37.957
38.196
38.408
38.593
38.754
38.893
39.012
39.115
39.203
39.278
39.341
39.394
39.438
39.473
39.501
39.522
39.537
39.546
39.55
39.548
39.543
39.533
39.52
39.503
39.484
39.462
39.437
39.411
39.383
39.353
39.321
39.285
39.245
39.201
39.152
39.099
39.04
38.976
38.904
38.826
38.741
38.65
38.554
38.453
38.35
38.245
38.142
38.039
37.94
37.845
37.754
37.667
37.586
37.511
37.441
37.378
37.32
37.268
37.221
37.179
37.142
37.11
37.082
37.056
37.033
37.012
36.992
36.97
36.947
36.921
36.893
36.863
36.83
36.794
36.754
36.71
36.662
36.609
36.554
36.496
36.438
36.38
36.325
36.272
36.223
36.176
36.131
36.088
36.045
36.003
35.959
35.912
35.86
35.805
35.745
35.68
35.611
35.537
35.46
35.38
35.297
35.213
35.129
35.045
34.962
34.882
34.803
34.727
34.653
34.583
34.516
34.453
34.393
34.337
34.285
34.235
34.187
34.14
34.094
34.049
34.005
33.962
33.921
33.883
33.847
33.814
33.784
33.757
33.733
33.711
33.69
33.669
33.647
33.623
33.596
33.566
33.533
33.496
33.458
33.419
33.379
33.338
33.298
33.257
33.217
33.177
33.139
33.101
33.064
33.029
32.993
32.958
32.923
32.888
32.854
32.821
32.789
32.76
32.733
32.707
32.683
32.661
32.643
32.629
32.621
32.622
32.633
32.657
32.698
32.757
32.838
32.942
33.07
33.225
33.407
33.617
33.854
34.116
34.401
34.706
35.026
35.357
35.695
36.035
36.372
36.702
37.021
37.325
37.611
37.877
38.119
38.339
38.535
38.708
38.858
38.986
39.094
39.183
39.253
39.307
39.347
39.376
39.396
39.408
39.416
39.42
39.421
39.421
39.42
39.418
39.416
39.415
39.414
39.413
39.412
39.411
39.408
39.402
39.394
39.382
39.366
39.344
39.316
39.281
39.239
39.19
39.131
39.064
38.988
38.904
38.811
38.712
38.608
38.499
38.389
38.277
38.166
38.057
37.95
37.847
37.75
37.658
37.572
37.493
37.421
37.357
37.299
37.246
37.199
37.156
37.115
37.077
37.04
37.004
36.967
36.931
36.894
36.856
36.817
36.775
36.73
36.681
36.629
36.572
36.511
36.447
36.381
36.314
36.247
36.179
36.113
36.048
35.985
35.923
35.864
35.807
35.751
35.696
35.641
35.587
35.533
35.479
35.424
35.367
35.309
35.248
35.185
35.12
35.053
34.983
34.912
34.84
34.768
34.698
34.63
34.565
34.503
34.445
34.39
34.338
34.288
34.24
34.193
34.146
34.099
34.051
34.003
33.954
33.906
33.857
33.808
33.76
33.714
33.668
33.624
33.582
33.542
33.505
33.471
33.441
33.413
33.387
33.363
33.341
33.321
33.302
33.283
33.263
33.243
33.222
33.201
33.179
33.156
33.132
33.107
33.081
33.054
33.023
32.99
32.954
32.915
32.874
32.83
32.785
32.739
32.693
32.648
32.603
32.562
32.523
32.488
32.458
32.431
32.41
32.396
32.391
32.394
32.404
32.419
32.44
32.466
32.499
32.541
32.597
32.668
32.759
32.873
33.012
33.18
33.376
33.6
33.849
34.122
34.414
34.721
35.04
35.365
35.692
36.015
36.332
36.639
36.933
37.209
37.467
37.704
37.919
38.113
38.285
38.437
38.57
38.685
38.784
38.868
38.94
39.0
39.05
39.089
39.12
39.142
39.158
39.169
39.175
39.178
39.176
39.172
39.164
39.156
39.147
39.137
39.126
39.115
39.102
39.087
39.068
39.044
39.013
38.974
38.927
38.87
38.806
38.733
38.654
38.568
38.477
38.38
38.278
38.174
38.069
37.964
37.859
37.756
37.654
37.554
37.457
37.363
37.271
37.182
37.097
37.015
36.938
36.864
36.794
36.727
36.663
36.602
36.542
36.484
36.427
36.372
36.319
36.267
36.216
36.167
36.119
36.072
36.027
35.983
35.94
35.898
35.857
35.815
35.773
35.728
35.681
35.631
35.577
35.521
35.461
35.4
35.337
35.274
35.21
35.146
35.083
35.021
34.96
34.899
34.838
34.777
34.717
34.655
34.593
34.528
34.461
34.391
34.318
34.242
34.162
34.08
33.996
33.911
33.827
33.745
33.665
33.59
33.518
33.451
33.388
33.328
33.273
33.221
33.174
33.131
33.092
33.057
33.025
32.997
32.97
32.945
32.922
32.9
32.879
32.857
32.835
32.813
32.789
32.766
32.743
32.718
32.692
32.663
32.633
32.601
32.569
32.537
32.506
32.477
32.451
32.427
32.405
32.386
32.368
32.352
32.336
32.319
32.301
32.28
32.256
32.228
32.196
32.159
32.12
32.079
32.036
31.994
31.952
31.912
31.873
31.837
31.804
31.774
31.748
31.725
31.707
31.695
31.69
31.693
31.705
31.728
31.766
31.821
31.895
31.989
32.105
32.244
32.407
32.596
32.811
33.05
33.313
33.597
33.897
34.21
34.532
34.859
35.185
35.506
35.819
36.118
36.401
36.666
36.91
37.131
37.329
37.505
37.659
37.789
37.899
37.99
38.062
38.117
38.156
38.182
38.195
38.197
38.192
38.181
38.165
38.147
38.128
38.11
38.091
38.074
38.058
38.043
38.03
38.017
38.004
37.99
37.975
37.957
37.933
37.903
37.865
37.819
37.765
37.702
37.632
37.554
37.47
37.38
37.285
37.187
37.086
36.984
36.883
36.783
36.687
36.594
36.508
36.428
36.356
36.291
36.232
36.179
36.133
36.092
36.056
36.025
35.999
35.975
35.955
35.938
35.922
35.906
35.891
35.876
35.86
35.843
35.823
35.802
35.779
35.753
35.724
35.692
35.658
35.622
35.585
35.547
35.508
35.468
35.427
35.384
35.339
35.292
35.242
35.19
35.134
35.075
35.014
34.952
34.888
34.823
34.759
34.696
34.634
34.573
34.514
34.456
34.398
34.341
34.284
34.227
34.169
34.11
34.05
33.989
33.93
33.873
33.818
33.766
33.717
33.674
33.635
33.601
33.572
33.545
33.523
33.502
33.483
33.463
33.44
33.413
33.383
33.35
33.315
33.279
33.243
33.208
33.173
33.141
33.111
33.084
33.061
33.04
33.021
33.005
32.989
32.973
32.957
32.941
32.923
32.905
32.885
32.865
32.846
32.827
32.809
32.792
32.778
32.764
32.752
32.74
32.728
32.715
32.7
32.682
32.663
32.641
32.62
32.6
32.584
32.574
32.573
32.586
32.614
32.661
32.729
32.822
32.94
33.082
33.25
33.442
33.656
33.89
34.142
34.408
34.685
34.969
35.258
35.547
35.832
36.11
36.377
36.63
36.868
37.088
37.29
37.472
37.634
37.776
37.897
37.998
38.08
38.144
38.192
38.225
38.247
38.258
38.262
38.261
38.254
38.244
38.232
38.218
38.203
38.188
38.175
38.163
38.153
38.144
38.135
38.126
38.116
38.104
38.089
38.07
38.045
38.015
37.979
37.936
37.885
37.827
37.761
37.688
37.609
37.524
37.434
37.341
37.245
37.149
37.053
36.96
36.87
36.784
36.704
36.63
36.562
36.501
36.447
36.397
36.352
36.311
36.273
36.239
36.208
36.18
36.154
36.129
36.106
36.082
36.056
36.029
36.002
35.979
35.958
35.94
35.922
35.902
35.879
35.851
35.818
35.778
35.732
35.679
35.621
35.559
35.493
35.424
35.354
35.283
35.211
35.141
35.071
35.003
34.935
34.869
34.803
34.74
34.678
34.62
34.564
34.51
34.46
34.412
34.367
34.322
34.277
34.231
34.183
34.132
34.078
34.021
33.962
33.9
33.837
33.773
33.711
33.649
33.589
33.531
33.477
33.425
33.377
33.333
33.291
33.251
33.214
33.179
33.147
33.119
33.094
33.071
33.051
33.033
33.017
33.002
32.986
32.97
32.951
32.929
32.905
32.877
32.846
32.812
32.774
32.734
32.694
32.653
32.611
32.571
32.531
32.493
32.459
32.429
32.402
32.379
32.36
32.344
32.33
32.317
32.303
32.289
32.272
32.252
32.229
32.203
32.176
32.146
32.116
32.085
32.055
32.029
32.008
31.993
31.988
31.996
32.02
32.065
32.132
32.226
32.346
32.495
32.673
32.879
33.111
33.366
33.642
33.934
34.239
34.552
34.867
35.181
35.488
35.786
36.069
36.335
36.583
36.809
37.014
37.196
37.356
37.494
37.612
37.712
37.796
37.866
37.924
37.972
38.012
38.045
38.072
38.095
38.114
38.131
38.146
38.158
38.168
38.175
38.18
38.182
38.181
38.179
38.174
38.167
38.158
38.148
38.137
38.122
38.104
38.08
38.051
38.015
37.972
37.922
37.865
37.802
37.733
37.66
37.584
37.505
37.425
37.344
37.263
37.183
37.103
37.026
36.951
36.878
36.807
36.738
36.671
36.606
36.544
36.484
36.426
36.372
36.321
36.274
36.23
36.189
36.152
36.118
36.087
36.059
36.033
36.011
35.99
35.971
35.953
35.934
35.914
35.891
35.866
35.837
35.804
35.766
35.724
35.678
35.629
35.575
35.519
35.461
35.4
35.339
35.276
35.213
35.15
35.088
35.027
34.969
34.912
34.858
34.806
34.756
34.708
34.66
34.613
34.566
34.519
34.472
34.423
34.374
34.324
34.273
34.219
34.163
34.106
34.047
33.988
33.929
33.869
33.811
33.753
33.697
33.643
33.59
33.539
33.491
33.445
33.403
33.365
33.331
33.302
33.277
33.257
33.24
33.225
33.21
33.195
33.179
33.161
33.14
33.116
33.088
33.058
33.026
32.992
32.959
32.934
32.921
32.92
32.928
32.94
32.955
32.966
32.972
32.968
32.953
32.927
32.89
32.845
32.792
32.734
32.672
32.608
32.545
32.483
32.423
32.368
32.316
32.269
32.226
32.185
32.146
32.107
32.068
32.029
31.99
31.951
31.914
31.88
31.851
31.828
31.813
31.807
31.813
31.831
31.863
31.913
31.981
32.071
32.184
32.321
32.483
32.669
32.88
33.112
33.364
33.632
33.914
34.205
34.502
34.8
35.095
35.383
35.659
35.92
36.166
36.393
36.6
36.788
36.957
37.106
37.238
37.352
37.449
37.53
37.597
37.649
37.689
37.718
37.739
37.752
37.759
37.762
37.76
37.756
37.75
37.743
37.736
37.729
37.721
37.712
37.703
37.692
37.679
37.663
37.645
37.623
37.597
37.568
37.534
37.496
37.453
37.405
37.352
37.294
37.231
37.163
37.091
37.016
36.939
36.861
36.783
36.705
36.629
36.555
36.482
36.412
36.343
36.277
36.212
36.149
36.088
36.029
35.972
35.918
35.868
35.821
35.778
35.74
35.705
35.673
35.643
35.615
35.588
35.562
35.533
35.501
35.467
35.431
35.394
35.356
35.317
35.278
35.239
35.2
35.162
35.123
35.083
35.043
35.002
34.961
34.919
34.878
34.838
34.797
34.756
34.713
34.668
34.622
34.572
34.52
34.464
34.405
34.344
34.281
34.215
34.147
34.077
34.007
33.938
33.87
33.804
33.741
33.682
33.626
33.575
33.528
33.484
33.443
33.404
33.368
33.334
33.301
33.267
33.233
33.197
33.159
33.119
33.076
33.032
32.986
32.939
32.893
32.847
32.802
32.76
32.72
32.682
32.648
32.618
32.591
32.566
32.544
32.523
32.504
32.487
32.471
32.457
32.444
32.432
32.421
32.41
32.399
32.387
32.372
32.355
32.336
32.312
32.286
32.257
32.227
32.196
32.165
32.134
32.104
32.074
32.045
32.018
31.991
31.964
31.937
31.909
31.882
31.855
31.827
31.801
31.775
31.75
31.726
31.702
31.678
31.654
31.63
31.607
31.585
31.566
31.553
31.545
31.544
31.554
31.578
31.619
31.681
31.766
31.876
32.012
32.174
32.363
32.577
32.815
33.072
33.347
33.633
33.928
34.226
34.523
34.814
35.098
35.37
35.628
35.872
36.099
36.31
36.504
36.679
36.835
36.971
37.088
37.185
37.263
37.324
37.369
37.399
37.416
37.422
37.418
37.406
37.387
37.362
37.333
37.302
37.27
37.24
37.213
37.19
37.17
37.155
37.142
37.13
37.117
37.103
37.087
37.068
37.045
37.018
36.985
36.946
36.9
36.846
36.785
36.717
36.645
36.567
36.487
36.405
36.322
36.24
36.161
36.085
36.012
35.945
35.882
35.826
35.776
35.733
35.696
35.664
35.638
35.617
35.599
35.583
35.568
35.553
35.538
35.522
35.506
35.489
35.472
35.454
35.437
35.421
35.406
35.391
35.378
35.365
35.353
35.341
35.327
35.313
35.297
35.279
35.258
35.233
35.204
35.17
35.132
35.091
35.047
35.001
34.954
34.906
34.857
34.809
34.76
34.711
34.662
34.612
34.562
34.513
34.464
34.416
34.369
34.322
34.276
34.232
34.188
34.145
34.102
34.06
34.019
33.979
33.94
33.904
33.87
33.839
33.81
33.784
33.76
33.737
33.715
33.694
33.673
33.65
33.625
33.598
33.569
33.537
33.505
33.474
33.444
33.417
33.393
33.371
33.352
33.334
33.317
33.3
33.282
33.262
33.241
33.219
33.196
33.173
33.149
33.127
33.106
33.087
33.07
33.055
33.041
33.027
33.013
32.998
32.98
32.96
32.937
32.91
32.88
32.847
32.813
32.778
32.744
32.712
32.684
32.66
32.64
32.623
32.609
32.598
32.589
32.583
32.58
32.581
32.587
32.6
32.624
32.659
32.711
32.782
32.875
32.992
33.133
33.299
33.489
33.701
33.934
34.184
34.448
34.724
35.006
35.291
35.575
35.853
36.12
36.373
36.611
36.83
37.029
37.207
37.366
37.505
37.625
37.726
37.808
37.873
37.922
37.955
37.975
37.984
37.985
37.979
37.968
37.952
37.932
37.909
37.883
37.856
37.826
37.795
37.762
37.728
37.694
37.659
37.623
37.587
37.55
37.513
37.475
37.437
37.397
37.355
37.311
37.264
37.214
37.162
37.107
37.05
36.99
36.928
36.864
36.8
36.734
36.669
36.603
36.539
36.477
36.418
36.364
36.314
36.268
36.228
36.193
36.163
36.139
36.121
36.107
36.097
36.09
36.084
36.079
36.073
36.065
36.056
36.045
36.033
36.017
35.998
35.976
35.95
35.921
35.889
35.855
35.818
35.78
35.741
35.7
35.659
35.615
35.569
35.523
35.474
35.423
35.37
35.315
35.257
35.198
35.138
35.077
35.015
34.953
34.891
34.831
34.771
34.714
34.659
34.606
34.555
34.507
34.46
34.416
34.373
34.332
34.291
34.251
34.212
34.172
34.132
34.09
34.048
34.006
33.963
33.919
33.875
33.832
33.789
33.747
33.707
33.668
33.63
33.594
33.558
33.523
33.489
33.455
33.421
33.388
33.355
33.323
33.293
33.266
33.242
33.221
33.203
33.188
33.176
33.165
33.154
33.143
33.129
33.112
33.091
33.066
33.037
33.004
32.968
32.932
32.896
32.86
32.826
32.794
32.762
32.733
32.705
32.677
32.65
32.623
32.597
32.571
32.546
32.521
32.497
32.474
32.451
32.428
32.406
32.384
32.362
32.342
32.323
32.306
32.291
32.279
32.274
32.276
32.289
32.316
32.362
32.428
32.517
32.63
32.77
32.938
33.134
33.358
33.608
33.879
34.168
34.469
34.778
35.089
35.398
35.699
35.99
36.267
36.53
36.774
36.998
37.202
37.383
37.543
37.682
37.8
37.899
37.979
38.043
38.092
38.128
38.153
38.168
38.174
38.173
38.164
38.151
38.133
38.113
38.089
38.063
38.036
38.007
37.977
37.947
37.916
37.885
37.854
37.822
37.789
37.756
37.722
37.687
37.652
37.614
37.574
37.532
37.486
37.438
37.388
37.335
37.279
37.221
37.162
37.101
37.039
36.98
36.924
36.874
36.827
36.784
36.742
36.701
36.659
36.615
36.571
36.526
36.48
36.435
36.39
36.345
36.301
36.26
36.22
36.184
36.152
36.123
36.097
36.074
36.052
36.032
36.01
35.988
35.963
35.934
35.902
35.867
35.828
35.785
35.739
35.691
35.642
35.593
35.546
35.5
35.455
35.411
35.368
35.325
35.282
35.239
35.195
35.151
35.105
35.058
35.01
34.96
34.908
34.856
34.802
34.747
34.691
34.633
34.574
34.514
34.453
34.393
34.333
34.276
34.219
34.163
34.108
34.055
34.002
33.949
33.897
33.845
33.794
33.744
33.695
33.647
33.602
33.559
33.519
33.483
33.449
33.419
33.39
33.361
33.334
33.306
33.277
33.247
33.217
33.186
33.155
33.124
33.094
33.065
33.038
33.012
32.988
32.966
32.946
32.929
32.912
32.895
32.879
32.864
32.85
32.836
32.823
32.811
32.799
32.787
32.775
32.761
32.746
32.729
32.71
32.689
32.666
32.641
32.613
32.583
32.552
32.52
32.487
32.454
32.421
32.389
32.358
32.33
32.304
32.28
32.259
32.241
32.227
32.218
32.214
32.217
32.231
32.259
32.304
32.371
32.461
32.578
32.721
32.894
33.095
33.323
33.577
33.853
34.147
34.455
34.772
35.093
35.414
35.728
36.033
36.326
36.602
36.861
37.101
37.319
37.515
37.688
37.837
37.964
38.07
38.155
38.221
38.272
38.309
38.334
38.349
38.356
38.355
38.348
38.337
38.324
38.308
38.292
38.276
38.259
38.242
38.223
38.203
38.18
38.155
38.126
38.094
38.058
38.018
37.975
37.93
37.885
37.84
37.792
37.742
37.688
37.631
37.57
37.505
37.437
37.365
37.291
37.216
37.141
37.067
36.994
36.923
36.854
36.787
36.723
36.661
36.603
36.547
36.496
36.448
36.406
36.368
36.336
36.308
36.285
36.266
36.251
36.239
36.23
36.222
36.215
36.208
36.202
36.194
36.184
36.172
36.156
36.136
36.111
36.081
36.045
36.003
35.956
35.905
35.851
35.794
35.735
35.676
35.617
35.558
35.5
35.441
35.382
35.321
35.26
35.199
35.136
35.074
35.012
34.951
34.892
34.835
34.782
34.734
34.691
34.651
34.614
34.578
34.543
34.509
34.473
34.436
34.397
34.355
34.312
34.265
34.216
34.164
34.11
34.054
33.996
33.939
33.881
33.824
33.769
33.717
33.669
33.624
33.584
33.548
33.516
33.488
33.464
33.443
33.424
33.407
33.389
33.373
33.356
33.34
33.323
33.306
33.286
33.266
33.244
33.221
33.196
33.17
33.141
33.112
33.081
33.05
33.018
32.987
32.957
32.93
32.904
32.882
32.861
32.844
32.829
32.817
32.807
32.801
32.799
32.803
32.814
32.834
32.864
32.909
32.971
33.055
33.164
33.298
33.46
33.648
33.862
34.1
34.36
34.636
34.925
