Trial 3:3back
31.461
31.45
31.44
31.431
31.421
31.411
31.403
31.397
31.395
31.398
31.407
31.424
31.45
31.486
31.531
31.587
31.654
31.733
31.825
31.932
32.053
32.191
32.343
32.509
32.687
32.876
33.072
33.275
33.481
33.688
33.892
34.093
34.286
34.471
34.645
34.807
34.955
35.09
35.21
35.315
35.407
35.485
35.551
35.606
35.649
35.681
35.703
35.717
35.723
35.721
35.712
35.698
35.678
35.655
35.627
35.596
35.565
35.533
35.5
35.465
35.428
35.389
35.347
35.303
35.257
35.208
35.159
35.108
35.057
35.004
34.952
34.902
34.855
34.811
34.769
34.73
34.692
34.656
34.623
34.593
34.567
34.544
34.524
34.507
34.492
34.479
34.469
34.463
34.459
34.457
34.457
34.458
34.46
34.463
34.467
34.47
34.473
34.475
34.475
34.473
34.469
34.462
34.451
34.437
34.421
34.404
34.387
34.371
34.356
34.341
34.327
34.313
34.298
34.281
34.261
34.239
34.216
34.192
34.165
34.137
34.108
34.078
34.047
34.015
33.983
33.951
33.917
33.883
33.847
33.81
33.772
33.735
33.698
33.662
33.627
33.593
33.561
33.531
33.501
33.472
33.443
33.412
33.379
33.344
33.307
33.269
33.23
33.191
33.153
33.114
33.077
33.04
33.004
32.969
32.933
32.897
32.861
32.824
32.787
32.749
32.712
32.676
32.643
32.611
32.582
32.555
32.531
32.507
32.484
32.461
32.439
32.417
32.395
32.373
32.351
32.329
32.308
32.286
32.264
32.243
32.225
32.212
32.204
32.204
32.212
32.23
32.256
32.292
32.338
32.394
32.462
32.542
32.634
32.739
32.858
32.989
33.134
33.29
33.455
33.627
33.805
33.985
34.163
34.337
34.502
34.658
34.801
34.931
35.045
35.144
35.23
35.304
35.367
35.42
35.463
35.496
35.521
35.537
35.545
35.546
35.543
35.534
35.522
35.507
35.492
35.478
35.463
35.446
35.426
35.402
35.374
35.341
35.303
35.261
35.215
35.167
35.118
35.067
35.015
34.964
34.914
34.866
34.821
34.778
34.739
34.704
34.671
34.641
34.614
34.591
34.571
34.554
34.54
34.527
34.516
34.507
34.499
34.493
34.487
34.482
34.478
34.476
34.475
34.476
34.48
34.486
34.493
34.501
34.507
34.514
34.519
34.523
34.526
34.526
34.524
34.521
34.516
34.511
34.505
34.499
34.494
34.487
34.478
34.466
34.453
34.438
34.421
34.402
34.382
34.36
34.336
34.31
34.281
34.25
34.218
34.185
34.151
34.117
34.081
34.045
34.008
33.972
33.937
33.904
33.872
33.842
33.814
33.788
33.762
33.739
33.717
33.698
33.679
33.659
33.64
33.618
33.594
33.566
33.535
33.502
33.469
33.436
33.404
33.373
33.343
33.314
33.285
33.256
33.227
33.198
33.17
33.142
33.116
33.091
33.068
33.048
33.03
33.011
32.992
32.971
32.949
32.924
32.899
32.873
32.849
32.827
32.808
32.792
32.782
32.784
32.801
32.831
32.874
32.928
32.991
33.061
33.135
33.215
33.299
33.388
33.482
33.583
33.69
33.804
33.925
34.053
34.186
34.325
34.469
34.616
34.765
34.914
35.06
35.203
35.34
35.471
35.594
35.708
35.813
35.906
35.987
36.055
36.109
36.151
36.182
36.203
36.214
36.216
36.211
36.199
36.184
36.165
36.145
36.125
36.104
36.084
36.062
36.039
36.015
35.99
35.962
35.931
35.896
35.859
35.82
35.78
35.74
35.7
35.661
35.624
35.586
35.549
35.513
35.478
35.444
35.413
35.383
35.356
35.332
35.311
35.295
35.283
35.275
35.272
35.272
35.274
35.277
35.282
35.287
35.292
35.296
35.299
35.3
35.3
35.298
35.296
35.294
35.291
35.288
35.285
35.282
35.279
35.275
35.27
35.263
35.254
35.243
35.229
35.213
35.195
35.177
35.156
35.135
35.111
35.086
35.058
35.028
34.996
34.962
34.927
34.891
34.854
34.816
34.777
34.74
34.702
34.666
34.63
34.595
34.56
34.524
34.487
34.447
34.404
34.361
34.317
34.272
34.229
34.187
34.149
34.115
34.084
34.056
34.03
34.005
33.982
33.959
33.936
33.913
33.891
33.869
33.845
33.82
33.792
33.763
33.733
33.701
33.669
33.637
33.606
33.577
33.548
33.522
33.497
33.474
33.452
33.432
33.412
33.392
33.372
33.353
33.333
33.317
33.305
33.301
33.305
33.32
33.346
33.384
33.434
33.495
33.568
33.653
33.751
33.861
33.984
34.12
34.268
34.429
34.601
34.783
34.972
35.164
35.356
35.544
35.725
35.895
36.053
36.196
36.326
36.442
36.544
36.634
36.713
36.782
36.841
36.892
36.935
36.973
37.005
37.031
37.05
37.062
37.067
37.063
37.052
37.034
37.01
36.983
36.952
36.92
36.886
36.852
36.817
36.783
36.749
36.716
36.682
36.648
36.612
36.574
36.534
36.492
36.449
36.406
36.365
36.325
36.289
36.254
36.223
36.194
36.167
36.143
36.12
36.101
36.084
36.07
36.058
36.05
36.043
36.038
36.033
36.028
36.023
36.019
36.015
36.013
36.011
36.008
36.005
35.999
35.992
35.982
35.971
35.959
35.946
35.929
35.91
35.889
35.865
35.838
35.81
35.78
35.75
35.721
35.692
35.663
35.634
35.605
35.575
35.542
35.507
35.469
35.428
35.386
35.342
35.297
35.25
35.202
35.155
35.108
35.062
35.018
34.976
34.936
34.897
34.859
34.821
34.783
34.745
34.708
34.67
34.633
34.594
34.556
34.518
34.481
34.445
34.411
34.38
34.351
34.322
34.293
34.264
34.236
34.206
34.176
34.143
34.108
34.073
34.038
34.003
33.97
33.939
33.91
33.882
33.855
33.83
33.805
33.78
33.754
33.726
33.698
33.67
33.644
33.621
33.603
33.589
33.581
33.579
33.581
33.589
33.603
33.624
33.654
33.693
33.743
33.805
33.88
33.97
34.073
34.192
34.324
34.469
34.625
34.79
34.961
35.137
35.314
35.492
35.667
35.839
36.004
36.162
36.312
36.453
36.584
36.703
36.81
36.904
36.982
37.046
37.095
37.131
37.155
37.169
37.175
37.174
37.17
37.164
37.157
37.148
37.139
37.128
37.117
37.104
37.088
37.069
37.046
37.018
36.985
36.948
36.907
36.864
36.821
36.778
36.735
36.693
36.652
36.612
36.574
36.537
36.5
36.463
36.427
36.39
36.353
36.315
36.28
36.246
36.216
36.19
36.168
36.15
36.137
36.126
36.119
36.114
36.11
36.109
36.109
36.109
36.109
36.108
36.108
36.106
36.104
36.099
36.093
36.085
36.075
36.063
36.048
36.03
36.007
35.972
35.924
35.865
35.799
35.729
35.659
35.591
35.529
35.473
35.427
35.389
35.361
35.34
35.326
35.316
35.31
35.304
35.299
35.292
35.283
35.27
35.25
35.225
35.193
35.156
35.114
35.067
35.016
34.963
34.909
34.854
34.8
34.748
34.698
34.652
34.608
34.567
34.529
34.493
34.46
34.428
34.396
34.364
34.332
34.301
34.271
34.241
34.213
34.185
34.159
34.132
34.105
34.079
34.054
34.031
34.009
33.987
33.965
33.942
33.917
33.892
33.867
33.844
33.822
33.801
33.779
33.757
33.733
33.708
33.681
33.653
33.623
33.594
33.567
33.544
33.527
33.517
33.517
33.527
33.548
33.581
33.624
33.681
33.751
33.838
33.94
34.058
34.193
34.343
34.507
34.683
34.868
35.058
35.251
35.443
35.629
35.808
35.976
36.134
36.279
36.412
36.532
36.641
36.739
36.826
36.903
36.969
37.025
37.071
37.106
37.13
37.145
37.15
37.147
37.138
37.123
37.105
37.085
37.063
37.041
37.02
37.0
36.986
36.979
36.977
36.978
36.978
36.977
36.97
36.958
36.937
36.909
36.874
36.832
36.784
36.731
36.675
36.617
36.56
36.505
36.454
36.406
36.362
36.321
36.283
36.248
36.215
36.185
36.158
36.136
36.118
36.104
36.094
36.089
36.087
36.088
36.091
36.095
36.098
36.1
36.099
36.096
36.091
36.083
36.073
36.061
36.048
36.033
36.017
36.0
35.982
35.962
35.939
35.915
35.888
35.859
35.828
35.794
35.76
35.728
35.696
35.664
35.63
35.593
35.554
35.512
35.467
35.42
35.371
35.32
35.269
35.217
35.164
35.113
35.063
35.014
34.967
34.92
34.874
34.83
34.786
34.744
34.703
34.664
34.627
34.591
34.557
34.525
34.494
34.464
34.436
34.408
34.38
34.352
34.325
34.297
34.268
34.238
34.208
34.177
34.145
34.113
34.08
34.048
34.016
33.985
33.955
33.927
33.901
33.877
33.855
33.834
33.814
33.792
33.771
33.748
33.725
33.702
33.676
33.648
33.618
33.585
33.552
33.521
33.492
33.466
33.444
33.428
33.418
33.417
33.424
33.441
33.47
33.511
33.562
33.625
33.699
33.786
33.886
34.0
34.128
34.27
34.426
34.595
34.775
34.962
35.154
35.348
35.541
35.731
35.913
36.088
36.252
36.407
36.549
36.68
36.799
36.905
37.001
37.085
37.158
37.222
37.275
37.318
37.352
37.375
37.388
37.394
37.392
37.384
37.372
37.357
37.34
37.323
37.306
37.289
37.272
37.256
37.239
37.22
37.197
37.168
37.134
37.096
37.054
37.009
36.961
36.913
36.867
36.821
36.779
36.739
36.703
36.67
36.641
36.614
36.588
36.563
36.539
36.514
36.488
36.462
36.435
36.409
36.386
36.367
36.351
36.34
36.334
36.331
36.331
36.331
36.332
36.331
36.329
36.324
36.316
36.306
36.293
36.279
36.262
36.242
36.221
36.198
36.174
36.149
36.123
36.095
36.067
36.037
36.005
35.971
35.937
35.902
35.866
35.829
35.787
35.742
35.694
35.644
35.594
35.545
35.498
35.454
35.413
35.374
35.338
35.304
35.273
35.244
35.215
35.186
35.157
35.128
35.098
35.066
35.032
34.995
34.956
34.914
34.871
34.826
34.78
34.733
34.687
34.64
34.594
34.55
34.508
34.468
34.431
34.394
34.36
34.327
34.297
34.268
34.242
34.217
34.193
34.169
34.145
34.119
34.094
34.069
34.045
34.021
33.996
33.972
33.947
33.924
33.902
33.88
33.86
33.84
33.821
33.802
33.786
33.772
33.76
33.749
33.74
33.732
33.727
33.724
33.725
33.73
33.742
33.76
33.787
33.823
33.868
33.923
33.991
34.071
34.164
34.271
34.393
34.53
34.682
34.845
35.018
35.197
35.379
35.563
35.744
35.919
36.088
36.247
36.396
36.533
36.657
36.768
36.866
36.951
37.023
37.083
37.13
37.165
37.189
37.202
37.203
37.196
37.181
37.161
37.137
37.111
37.085
37.059
37.035
37.012
36.99
36.969
36.947
36.927
36.909
36.894
36.88
36.866
36.851
36.834
36.813
36.789
36.761
36.731
36.698
36.662
36.622
36.581
36.536
36.49
36.443
36.395
36.349
36.305
36.264
36.228
36.197
36.173
36.157
36.148
36.145
36.148
36.156
36.168
36.182
36.196
36.208
36.216
36.221
36.221
36.218
36.212
36.203
36.193
36.181
36.166
36.149
36.13
36.11
36.088
36.064
36.037
36.007
35.975
35.94
35.903
35.865
35.826
35.787
35.748
35.708
35.667
35.627
35.589
35.554
35.523
35.495
35.47
35.445
35.42
35.392
35.361
35.327
35.29
35.25
35.207
35.163
35.118
35.072
35.027
34.981
34.935
34.89
34.847
34.803
34.761
34.72
34.68
34.64
34.602
34.565
34.53
34.498
34.469
34.441
34.414
34.388
34.361
34.334
34.306
34.278
34.248
34.218
34.186
34.152
34.118
34.083
34.051
34.02
33.99
33.963
33.936
33.912
33.89
33.87
33.853
33.838
33.825
33.813
33.801
33.789
33.778
33.767
33.758
33.751
33.747
33.748
33.756
33.772
33.797
33.831
33.877
33.934
34.002
34.083
34.175
34.28
34.396
34.524
34.662
34.809
34.964
35.126
35.29
35.456
35.618
35.774
35.922
36.06
36.186
36.3
36.402
36.493
36.572
36.64
36.697
36.745
36.784
36.815
36.838
36.852
36.859
36.858
36.849
36.835
36.814
36.79
36.764
36.738
36.71
36.682
36.655
36.629
36.602
36.575
36.548
36.518
36.487
36.453
36.415
36.37
36.308
36.229
36.137
36.038
35.937
35.842
35.757
35.686
35.631
35.591
35.566
35.557
35.56
35.573
35.593
35.619
35.647
35.677
35.707
35.734
35.759
35.781
35.799
35.813
35.823
35.828
35.828
35.823
35.814
35.801
35.786
35.769
35.752
35.735
35.72
35.707
35.695
35.685
35.674
35.664
35.653
35.641
35.627
35.609
35.587
35.561
35.53
35.497
35.463
35.426
35.389
35.351
35.312
35.272
35.231
35.191
35.152
35.117
35.084
35.054
35.024
34.994
34.962
34.929
34.895
34.858
34.819
34.779
34.736
34.692
34.647
34.602
34.559
34.517
34.476
34.437
34.401
34.367
34.336
34.307
34.279
34.253
34.227
34.2
34.174
34.147
34.12
34.092
34.063
34.031
33.998
33.964
33.929
33.894
33.858
33.823
33.789
33.758
33.728
33.701
33.678
33.658
33.64
33.624
33.609
33.597
33.586
33.577
33.569
33.562
33.559
33.558
33.563
33.574
33.594
33.623
33.664
33.716
33.781
33.858
33.947
34.05
34.164
34.289
34.425
34.571
34.726
34.888
35.056
35.228
35.404
35.58
35.755
35.925
36.088
36.24
36.381
36.507
36.619
36.716
36.797
36.863
36.916
36.955
36.984
37.002
37.013
37.015
37.01
36.999
36.984
36.965
36.943
36.918
36.888
36.856
36.82
36.783
36.745
36.71
36.677
36.649
36.624
36.602
36.582
36.563
36.541
36.517
36.488
36.456
36.419
36.38
36.337
36.292
36.238
36.169
36.088
35.999
35.906
35.817
35.736
35.667
35.612
35.572
35.548
35.539
35.545
35.563
35.593
35.631
35.676
35.724
35.773
35.821
35.864
35.901
35.931
35.953
35.966
35.969
35.964
35.951
35.932
35.907
35.878
35.847
35.816
35.784
35.754
35.725
35.697
35.669
35.641
35.612
35.581
35.549
35.516
35.481
35.444
35.406
35.368
35.329
35.289
35.249
35.209
35.168
35.126
35.083
35.04
34.996
34.952
34.91
34.868
34.827
34.786
34.744
34.702
34.661
34.621
34.582
34.545
34.509
34.475
34.443
34.411
34.382
34.354
34.327
34.301
34.274
34.247
34.218
34.188
34.157
34.123
34.089
34.054
34.019
33.985
33.951
33.919
33.886
33.855
33.824
33.794
33.767
33.743
33.721
33.702
33.685
33.671
33.658
33.647
33.636
33.624
33.612
33.599
33.584
33.571
33.559
33.551
33.549
33.553
33.565
33.587
33.62
33.667
33.73
33.81
33.909
34.027
34.162
34.313
34.477
34.654
34.841
35.035
35.231
35.427
35.619
35.806
35.984
36.152
36.308
36.451
36.579
36.693
36.789
36.868
36.931
36.98
37.017
37.043
37.061
37.073
37.081
37.086
37.088
37.089
37.088
37.085
37.081
37.073
37.063
37.049
37.033
37.015
36.995
36.974
36.951
36.927
36.904
36.88
36.855
36.83
36.803
36.774
36.74
36.702
36.659
36.614
36.566
36.517
36.467
36.419
36.374
36.333
36.297
36.265
36.239
36.216
36.198
36.181
36.167
36.154
36.141
36.129
36.118
36.107
36.097
36.09
36.083
36.077
36.07
36.061
36.051
36.038
36.022
36.002
35.978
35.95
35.919
35.885
35.85
35.816
35.784
35.754
35.726
35.7
35.675
35.649
35.623
35.595
35.565
35.533
35.5
35.465
35.429
35.392
35.355
35.317
35.28
35.242
35.204
35.166
35.128
35.088
35.046
35.003
34.959
34.915
34.872
34.83
34.79
34.751
34.713
34.677
34.641
34.605
34.57
34.534
34.498
34.461
34.423
34.384
34.346
34.307
34.269
34.231
34.194
34.158
34.122
34.086
34.05
34.014
33.978
33.942
33.906
33.869
33.832
33.796
33.761
33.727
33.694
33.662
33.632
33.605
33.579
33.556
33.537
33.521
33.507
33.494
33.481
33.469
33.458
33.446
33.435
33.423
33.412
33.402
33.394
33.388
33.384
33.384
33.389
33.399
33.415
33.44
33.476
33.524
33.585
33.66
33.751
33.861
33.988
34.134
34.295
34.47
34.657
34.851
35.048
35.246
35.442
35.634
35.819
35.993
36.156
36.305
36.441
36.563
36.672
36.77
36.856
36.932
36.998
37.055
37.103
37.141
37.171
37.192
37.205
37.211
37.211
37.207
37.2
37.191
37.182
37.172
37.163
37.153
37.143
37.13
37.114
37.095
37.071
37.042
37.009
36.971
36.93
36.887
36.842
36.798
36.754
36.71
36.668
36.627
36.586
36.547
36.509
36.473
36.437
36.403
36.369
36.338
36.309
36.282
36.258
36.236
36.217
36.202
36.19
36.179
36.171
36.163
36.156
36.148
36.14
36.13
36.12
36.108
36.095
36.081
36.064
36.046
36.026
36.005
35.983
35.96
35.936
35.909
35.88
35.849
35.815
35.78
35.745
35.709
35.674
35.638
35.603
35.567
35.532
35.495
35.456
35.415
35.372
35.328
35.282
35.235
35.188
35.142
35.097
35.051
35.005
34.959
34.913
34.867
34.82
34.772
34.724
34.675
34.626
34.578
34.532
34.489
34.448
34.41
34.373
34.339
34.307
34.277
34.248
34.219
34.189
34.158
34.127
34.096
34.064
34.031
33.999
33.966
33.931
33.896
33.86
33.826
33.793
33.761
33.73
33.701
33.672
33.645
33.619
33.593
33.569
33.545
33.52
33.494
33.468
33.441
33.414
33.386
33.357
33.326
33.294
33.261
33.228
33.196
33.167
33.142
33.123
33.109
33.102
33.104
33.116
33.139
33.174
33.222
33.282
33.357
33.447
33.553
33.676
33.814
33.967
34.132
34.306
34.487
34.672
34.86
35.048
35.234
35.415
35.591
35.761
35.922
36.075
36.217
36.347
36.465
36.568
36.659
36.736
36.801
36.856
36.903
36.941
36.972
36.994
37.008
37.016
37.018
37.013
37.003
36.989
36.971
36.949
36.926
36.901
36.877
36.854
36.832
36.811
36.791
36.771
36.751
36.729
36.703
36.674
36.641
36.604
36.563
36.518
36.472
36.426
36.382
36.341
36.301
36.261
36.219
36.175
36.129
36.082
36.036
35.992
35.952
35.918
35.891
35.869
35.855
35.847
35.843
35.843
35.846
35.849
35.852
35.854
35.853
35.847
35.837
35.823
35.806
35.785
35.764
35.741
35.72
35.699
35.68
35.661
35.642
35.621
35.598
35.573
35.544
35.513
35.48
35.445
35.407
35.368
35.328
35.286
35.243
35.199
35.155
35.109
35.063
35.017
34.97
34.924
34.878
34.834
34.791
34.748
34.705
34.662
34.617
34.571
34.524
34.475
34.426
34.377
34.328
34.281
34.235
34.191
34.148
34.108
34.07
34.034
34.001
33.969
33.94
33.913
33.888
33.864
33.842
33.822
33.801
33.781
33.76
33.738
33.713
33.686
33.657
33.625
33.592
33.556
33.52
33.483
33.447
33.414
33.383
33.354
33.328
33.304
33.282
33.261
33.242
33.225
33.209
33.193
33.176
33.159
33.141
33.121
33.101
33.081
33.059
33.038
33.018
33.0
32.984
32.97
32.961
32.959
32.965
32.981
33.008
33.048
33.1
33.166
33.246
33.341
33.452
33.579
33.723
33.882
34.055
34.24
34.435
34.636
34.842
35.048
35.253
35.452
35.643
35.823
35.988
36.139
36.275
36.395
36.5
36.591
36.667
36.729
36.778
36.815
36.841
36.857
36.865
36.866
36.861
36.853
36.842
36.83
36.818
36.806
36.795
36.786
36.778
36.772
36.765
36.756
36.745
36.731
36.711
36.686
36.656
36.621
36.581
36.538
36.491
36.441
36.391
36.341
36.294
36.247
36.202
36.16
36.121
36.084
36.051
36.02
35.992
35.969
35.951
35.936
35.926
35.918
35.914
35.912
35.909
35.906
35.902
35.896
35.888
35.878
35.865
35.853
35.84
35.827
35.814
35.801
35.789
35.778
35.765
35.749
35.73
35.706
35.679
35.649
35.615
35.581
35.545
35.51
35.475
35.439
35.403
35.369
35.334
35.299
35.263
35.226
35.187
35.145
35.102
35.058
35.007
34.95
34.885
34.815
34.741
34.667
34.596
34.529
34.468
34.414
34.367
34.326
34.291
34.26
34.233
34.209
34.186
34.163
34.139
34.113
34.085
34.057
34.026
33.995
33.963
33.931
33.901
33.871
33.843
33.816
33.79
33.765
33.741
33.718
33.695
33.672
33.65
33.627
33.603
33.576
33.548
33.518
33.486
33.453
33.419
33.384
33.349
33.314
33.28
33.248
33.219
33.193
33.17
33.149
33.131
33.114
33.099
33.085
33.072
33.06
33.047
33.036
33.025
33.015
33.007
33.0
32.994
32.989
32.984
32.981
32.98
32.984
32.993
33.009
33.033
33.067
33.112
33.167
33.234
33.313
33.403
33.506
33.62
33.744
33.879
34.023
34.177
34.338
34.505
34.676
34.849
35.02
35.186
35.344
35.492
35.627
35.748
35.856
35.949
36.027
36.093
36.147
36.189
36.22
36.243
36.259
36.27
36.274
36.273
36.267
36.255
36.238
36.217
36.193
36.166
36.139
36.112
36.085
36.06
36.036
36.012
35.989
35.964
35.939
35.912
35.883
35.852
35.818
35.779
35.738
35.695
35.652
35.611
35.572
35.536
35.503
35.472
35.444
35.418
35.392
35.368
35.345
35.323
35.303
35.285
35.271
35.262
35.257
35.256
35.259
35.265
35.272
35.28
35.285
35.289
35.291
35.292
35.291
35.289
35.286
35.283
35.279
35.274
35.267
35.258
35.247
35.234
35.218
35.199
35.177
35.154
35.129
35.102
35.072
35.04
35.006
34.971
34.936
34.902
34.867
34.833
34.8
34.766
34.733
34.701
34.671
34.641
34.611
34.58
34.547
34.512
34.477
34.439
34.4
34.36
34.319
34.278
34.239
34.201
34.166
34.134
34.104
34.075
34.047
34.021
33.995
33.97
33.946
