Trial 3:3back
36.785
36.651
36.518
36.385
36.254
36.124
35.996
35.87
35.747
35.627
35.511
35.4
35.294
35.196
35.105
35.022
34.947
34.882
34.827
34.783
34.747
34.721
34.703
34.691
34.686
34.685
34.687
34.692
34.7
34.711
34.724
34.738
34.754
34.771
34.788
34.803
34.814
34.822
34.825
34.823
34.816
34.803
34.786
34.764
34.736
34.703
34.666
34.626
34.585
34.542
34.498
34.452
34.405
34.358
34.31
34.261
34.212
34.163
34.115
34.067
34.019
33.972
33.926
33.88
33.835
33.79
33.745
33.699
33.653
33.609
33.565
33.524
33.484
33.446
33.41
33.376
33.343
33.311
33.281
33.251
33.22
33.188
33.156
33.123
33.09
33.057
33.026
32.995
32.967
32.941
32.918
32.895
32.875
32.856
32.838
32.821
32.805
32.79
32.779
32.769
32.761
32.755
32.752
32.754
32.762
32.775
32.797
32.83
32.876
32.938
33.019
33.125
33.259
33.424
33.621
33.852
34.115
34.412
34.741
35.098
35.479
35.879
36.292
36.711
37.128
37.536
37.931
38.305
38.656
38.976
39.264
39.517
39.731
39.907
40.043
40.14
40.2
40.224
40.216
40.178
40.113
40.025
39.919
39.797
39.664
39.522
39.373
39.221
39.066
38.909
38.752
38.594
38.436
38.279
38.123
37.967
37.811
37.654
37.498
37.342
37.188
37.037
36.889
36.743
36.6
36.46
36.322
36.186
36.052
35.92
35.789
35.661
35.535
35.413
35.295
35.182
35.076
34.977
34.886
34.803
34.729
34.666
34.613
34.571
34.539
34.515
34.5
34.49
34.486
34.485
34.487
34.492
34.499
34.507
34.517
34.528
34.54
34.555
34.571
34.588
34.607
34.627
34.646
34.665
34.682
34.697
34.708
34.714
34.714
34.708
34.695
34.676
34.652
34.622
34.589
34.552
34.512
34.469
34.426
34.382
34.336
34.289
34.241
34.192
34.144
34.095
34.047
34.0
33.954
33.91
33.866
33.823
33.781
33.741
33.702
33.663
33.625
33.586
33.548
33.509
33.47
33.432
33.396
33.361
33.329
33.299
33.27
33.243
33.218
33.193
33.167
33.142
33.121
33.107
33.102
33.103
33.108
33.115
33.121
33.126
33.127
33.121
33.11
33.092
33.068
33.041
33.012
32.983
32.958
32.939
32.927
32.927
32.939
32.969
33.016
33.083
33.173
33.288
33.43
33.603
33.807
34.044
34.315
34.619
34.954
35.316
35.7
36.101
36.512
36.928
37.34
37.742
38.127
38.488
38.82
39.118
39.379
39.599
39.779
39.917
40.016
40.078
40.105
40.101
40.068
40.011
39.932
39.835
39.721
39.594
39.456
39.307
39.151
38.989
38.824
38.658
38.49
38.322
38.155
37.989
37.824
37.663
37.505
37.353
37.206
37.062
36.922
36.782
36.642
36.502
36.362
36.221
36.081
35.943
35.806
35.672
35.541
35.414
35.294
35.18
35.073
34.974
34.884
34.801
34.726
34.66
34.6
34.549
34.505
34.468
34.44
34.419
34.408
34.404
34.409
34.42
34.436
34.456
34.478
34.501
34.525
34.549
34.574
34.598
34.622
34.643
34.662
34.677
34.689
34.697
34.701
34.699
34.692
34.679
34.661
34.639
34.613
34.584
34.553
34.52
34.487
34.453
34.418
34.383
34.346
34.308
34.268
34.227
34.186
34.144
34.099
34.05
33.999
33.945
33.89
33.834
33.779
33.726
33.675
33.629
33.586
33.547
33.512
33.481
33.453
33.426
33.4
33.375
33.35
33.326
33.303
33.281
33.26
33.24
33.219
33.197
33.173
33.146
33.118
33.089
33.058
33.028
32.998
32.97
32.944
32.922
32.902
32.886
32.874
32.865
32.858
32.854
32.853
32.856
32.865
32.88
32.903
32.937
32.983
33.044
33.123
33.223
33.346
33.495
33.673
33.882
34.123
34.397
34.703
35.039
35.401
35.786
36.188
36.601
37.018
37.433
37.837
38.225
38.591
38.93
39.238
39.512
39.749
39.949
40.111
40.235
40.322
40.373
40.391
40.377
40.335
40.268
40.179
40.071
39.949
39.814
39.672
39.523
39.371
39.218
39.065
38.912
38.759
38.606
38.453
38.3
38.145
37.99
37.834
37.678
37.523
37.369
37.217
37.068
36.924
36.784
36.647
36.514
36.383
36.254
36.128
36.002
35.877
35.753
35.631
35.512
35.397
35.287
35.184
35.09
35.004
34.926
34.858
34.8
34.751
34.712
34.681
34.657
34.639
34.627
34.62
34.617
34.618
34.623
34.632
34.643
34.656
34.67
34.684
34.698
34.711
34.721
34.729
34.733
34.734
34.731
34.725
34.715
34.703
34.689
34.673
34.655
34.635
34.611
34.586
34.558
34.527
34.493
34.455
34.415
34.372
34.327
34.28
34.233
34.186
34.139
34.092
34.044
33.996
33.948
33.9
33.851
33.802
33.753
33.704
33.656
33.607
33.56
33.513
33.468
33.424
33.382
33.341
33.303
33.269
33.238
33.211
33.187
33.165
33.144
33.124
33.104
33.083
33.061
33.038
33.013
32.987
32.96
32.935
32.911
32.888
32.866
32.846
32.828
32.811
32.795
32.781
32.768
32.757
32.749
32.742
32.739
32.739
32.744
32.756
32.777
32.809
32.854
32.915
32.997
33.101
33.231
33.388
33.577
33.798
34.051
34.337
34.655
35.001
35.373
35.767
36.177
36.598
37.022
37.444
37.858
38.256
38.632
38.983
39.303
39.59
39.839
40.048
40.217
40.347
40.438
40.492
40.511
40.5
40.461
40.398
40.314
40.213
40.096
39.969
39.832
39.688
39.539
39.387
39.233
39.079
38.926
38.774
38.623
38.474
38.326
38.179
38.034
37.888
37.743
37.599
37.455
37.311
37.168
37.025
36.884
36.745
36.607
36.472
36.338
36.207
36.079
35.952
35.828
35.706
35.587
35.471
35.359
35.25
35.147
35.051
34.963
34.886
34.818
34.761
34.715
34.678
34.65
34.63
34.617
34.609
34.607
34.609
34.616
34.628
34.643
34.661
34.682
34.705
34.729
34.753
34.775
34.793
34.807
34.816
34.819
34.817
34.809
34.797
34.781
34.761
34.738
34.711
34.68
34.646
34.609
34.569
34.526
34.481
34.432
34.382
34.329
34.275
34.219
34.164
34.108
34.052
33.995
33.94
33.885
33.831
33.779
33.728
33.678
33.628
33.58
33.532
33.484
33.438
33.393
33.348
33.304
33.259
33.215
33.174
33.135
33.098
33.064
33.033
33.004
32.979
32.957
32.938
32.922
32.909
32.897
32.885
32.874
32.863
32.852
32.84
32.828
32.816
32.803
32.789
32.774
32.759
32.742
32.726
32.708
32.691
32.674
32.659
32.646
32.635
32.628
32.622
32.618
32.616
32.617
32.621
32.63
32.646
32.671
32.708
32.76
32.828
32.918
33.031
33.171
33.34
33.541
33.774
34.042
34.343
34.676
35.038
35.425
35.832
36.253
36.684
37.116
37.543
37.957
38.353
38.724
39.065
39.37
39.638
39.867
40.056
40.205
40.315
40.389
40.428
40.435
40.413
40.364
40.293
40.203
40.097
39.977
39.846
39.705
39.557
39.403
39.246
39.087
38.927
38.769
38.612
38.458
38.305
38.154
38.005
37.858
37.71
37.563
37.414
37.265
37.116
36.968
36.82
36.673
36.529
36.388
36.251
36.118
35.988
35.864
35.743
35.628
35.517
35.41
35.308
35.21
35.117
35.027
34.942
34.861
34.786
34.718
34.658
34.605
34.561
34.526
34.5
34.483
34.475
34.475
34.483
34.496
34.513
34.534
34.556
34.58
34.604
34.627
34.65
34.671
34.69
34.706
34.718
34.725
34.724
34.716
34.7
34.677
34.648
34.615
34.58
34.544
34.509
34.475
34.443
34.412
34.381
34.348
34.313
34.275
34.234
34.189
34.142
34.092
34.041
33.99
33.94
33.891
33.842
33.795
33.749
33.704
33.658
33.613
33.568
33.523
33.478
33.435
33.393
33.352
33.313
33.275
33.239
33.204
33.169
33.136
33.104
33.073
33.043
33.015
32.988
32.964
32.941
32.92
32.9
32.883
32.867
32.853
32.839
32.825
32.811
32.797
32.782
32.768
32.753
32.739
32.724
32.709
32.694
32.681
32.669
32.658
32.647
32.637
32.627
32.618
32.611
32.606
32.604
32.605
32.609
32.618
32.633
32.654
32.683
32.722
32.774
32.841
32.925
33.03
33.158
33.311
33.492
33.703
33.944
34.216
34.518
34.848
35.205
35.584
35.982
36.392
36.808
37.222
37.628
38.018
38.388
38.731
39.043
39.32
39.559
39.759
39.919
40.038
40.118
40.16
40.167
40.142
40.088
40.01
39.91
39.792
39.66
39.515
39.362
39.204
39.04
38.875
38.707
38.538
38.37
38.203
38.036
37.871
37.707
37.545
37.383
37.222
37.064
36.908
36.756
36.608
36.464
36.324
36.188
36.054
35.925
35.799
35.677
35.559
35.444
35.333
35.227
35.124
35.026
34.934
34.846
34.765
34.69
34.622
34.562
34.511
34.467
34.432
34.405
34.385
34.371
34.364
34.362
34.366
34.374
34.386
34.401
34.42
34.441
34.466
34.494
34.523
34.551
34.58
34.606
34.63
34.65
34.666
34.678
34.685
34.687
34.685
34.679
34.669
34.656
34.639
34.618
34.594
34.566
34.536
34.501
34.463
34.422
34.378
34.332
34.283
34.234
34.184
34.134
34.085
34.038
33.993
33.949
33.907
33.866
33.825
33.784
33.741
33.697
33.652
33.606
33.561
33.516
33.474
33.435
33.399
33.365
33.333
33.304
33.276
33.249
33.223
33.197
33.172
33.149
33.128
33.109
33.092
33.078
33.066
33.055
33.044
33.033
33.021
33.008
32.995
32.98
32.965
32.95
32.937
32.926
32.917
32.909
32.903
32.897
32.892
32.886
32.882
32.88
32.88
32.882
32.888
32.896
32.909
32.927
32.952
32.985
33.028
33.085
33.156
33.244
33.352
33.483
33.64
33.825
34.039
34.283
34.556
34.857
35.184
35.535
35.904
36.286
36.676
37.069
37.455
37.83
38.187
38.521
38.826
39.099
39.335
39.534
39.693
39.813
39.895
39.939
39.949
39.928
39.878
39.802
39.704
39.587
39.456
39.313
39.161
39.003
38.84
38.673
38.503
38.33
38.155
37.98
37.804
37.631
37.46
37.291
37.126
36.965
36.81
36.66
36.516
36.378
36.245
36.116
35.991
35.869
35.749
35.631
35.516
35.404
35.293
35.185
35.079
34.977
34.881
34.79
34.705
34.628
34.557
34.495
34.44
34.394
34.357
34.329
34.31
34.299
34.294
34.297
34.304
34.317
34.334
34.354
34.377
34.401
34.426
34.451
34.476
34.5
34.524
34.547
34.569
34.588
34.605
34.619
34.631
34.639
34.644
34.644
34.641
34.632
34.618
34.599
34.575
34.546
34.514
34.479
34.442
34.403
34.364
34.325
34.286
34.247
34.207
34.168
34.128
34.086
34.043
34.001
33.958
33.915
33.874
33.834
33.796
33.759
33.724
33.689
33.653
33.615
33.577
33.537
33.497
33.456
33.416
33.378
33.343
33.309
33.277
33.247
33.22
33.194
33.169
33.146
33.122
33.099
33.077
33.055
33.034
33.013
32.993
32.973
32.954
32.935
32.916
32.899
32.883
32.866
32.85
32.833
32.817
32.802
32.788
32.778
32.772
32.77
32.774
32.785
32.803
32.832
32.872
32.926
32.995
33.082
33.189
33.32
33.477
33.662
33.877
34.125
34.404
34.715
35.054
35.419
35.804
36.205
36.615
37.027
37.434
37.828
38.205
38.556
38.879
39.168
39.422
39.639
39.818
39.961
40.067
40.138
40.175
40.181
40.158
40.107
40.033
39.938
39.827
39.701
39.563
39.415
39.258
39.096
38.93
38.762
38.593
38.426
38.259
38.095
37.933
37.774
37.618
37.466
37.32
37.182
37.051
36.926
36.806
36.689
36.572
36.454
36.334
36.211
36.085
35.954
35.82
35.684
35.549
35.415
35.285
35.161
35.043
34.933
34.833
34.744
34.665
34.596
34.538
34.488
34.446
34.411
34.384
34.363
34.348
34.34
34.338
34.341
34.35
34.363
34.38
34.4
34.422
34.445
34.468
34.488
34.505
34.52
34.533
34.545
34.554
34.563
34.57
34.575
34.577
34.575
34.57
34.561
34.548
34.529
34.505
34.477
34.446
34.412
34.377
34.34
34.303
34.265
34.228
34.19
34.154
34.117
34.082
34.048
34.017
33.991
33.969
33.948
33.929
33.907
33.881
33.85
33.814
33.773
33.727
33.677
33.626
33.574
33.523
33.472
33.423
33.376
33.333
33.293
33.256
33.222
33.191
33.162
33.135
33.109
33.084
33.06
33.038
33.016
32.995
32.975
32.956
32.938
32.922
32.907
32.893
32.88
32.869
32.859
32.85
32.843
32.838
32.838
32.842
32.851
32.869
32.897
32.937
32.992
33.064
33.156
33.27
33.41
33.578
33.777
34.008
34.271
34.568
34.896
35.253
35.632
36.029
36.438
36.852
37.264
37.665
38.051
38.414
38.75
39.054
39.322
39.551
39.74
39.889
40.001
40.077
40.119
40.132
40.118
40.079
40.017
39.934
39.835
39.72
39.593
39.454
39.305
39.148
38.985
38.817
38.645
38.472
38.298
38.125
37.956
37.791
37.63
37.475
37.327
37.184
37.048
36.915
36.787
36.662
36.537
36.413
36.286
36.159
36.029
35.899
35.769
35.639
35.51
35.384
35.263
35.148
35.04
34.941
34.85
34.768
34.694
34.629
34.571
34.521
34.478
34.442
34.41
34.385
34.363
34.347
34.335
34.328
34.325
34.327
34.333
34.343
34.356
34.372
34.39
34.407
34.424
34.439
34.453
34.465
34.476
34.486
34.495
34.503
34.508
34.512
34.511
34.507
34.499
34.488
34.473
34.454
34.43
34.404
34.376
34.345
34.314
34.282
34.25
34.218
34.186
34.154
34.12
34.087
34.052
34.016
33.977
33.936
33.892
33.847
33.8
33.754
33.707
33.661
33.617
33.574
33.534
33.495
33.459
33.425
33.393
33.362
33.33
33.299
33.268
33.237
33.207
33.177
33.149
33.122
33.097
33.072
33.05
33.03
33.012
32.995
32.98
32.965
32.952
32.939
32.927
32.915
32.9
32.881
32.86
32.838
32.817
32.801
32.793
32.796
32.812
32.844
32.895
32.966
33.059
33.177
33.319
33.488
33.685
33.91
34.164
34.446
34.756
35.093
35.454
35.836
36.233
36.638
37.046
37.449
37.839
38.209
38.552
38.864
39.14
39.378
39.575
39.732
39.848
39.926
39.967
39.974
39.949
39.897
39.822
39.726
39.614
39.488
39.352
39.208
39.058
38.903
38.744
38.581
38.416
38.249
38.081
37.911
37.743
37.575
37.409
37.245
37.083
36.925
36.77
36.621
36.476
36.337
36.203
36.074
35.95
35.829
35.71
35.594
35.479
35.367
35.258
35.153
35.053
34.958
34.869
34.788
34.715
34.649
34.59
34.538
34.493
34.453
34.417
34.387
34.361
34.341
34.326
34.317
34.315
34.32
34.332
34.349
34.371
34.398
34.427
34.456
34.485
34.51
34.533
34.553
34.57
34.585
34.598
34.61
34.621
34.632
34.642
34.65
34.655
34.657
34.653
34.643
34.627
34.606
34.58
34.552
34.52
34.487
34.452
34.417
34.383
34.348
34.313
34.279
34.244
34.209
34.173
34.138
34.102
34.066
34.03
33.993
33.956
33.918
33.88
33.843
33.807
33.772
33.736
33.7
33.664
33.627
33.591
33.556
33.523
33.49
33.459
33.43
33.401
33.375
33.352
33.33
33.311
33.292
33.275
33.258
33.241
33.224
33.206
33.188
33.168
33.149
33.13
33.115
33.105
33.102
33.108
33.125
33.155
33.202
33.267
33.354
33.465
33.603
33.769
33.963
34.188
34.444
34.729
35.044
35.386
35.75
36.133
36.529
36.932
37.334
37.729
38.11
38.471
38.806
39.109
39.376
39.604
39.792
39.939
40.047
40.116
40.149
40.148
40.116
40.056
39.972
39.867
39.745
39.609
39.462
39.307
39.145
38.978
38.806
38.632
38.456
38.279
38.105
37.932
37.764
37.599
37.439
37.284
37.133
36.988
36.847
36.709
36.574
36.441
36.31
36.181
36.053
35.927
35.803
35.682
35.564
35.45
35.342
35.24
35.145
35.056
34.972
34.895
34.823
34.758
34.698
34.644
34.598
34.559
34.528
34.507
34.494
34.489
34.494
34.506
34.523
34.544
34.566
34.587
34.607
34.625
34.64
34.653
34.664
34.674
34.681
34.687
34.691
34.694
34.696
34.696
34.695
34.692
34.687
34.679
34.669
34.655
34.639
34.62
34.598
34.573
34.545
34.511
34.465
34.407
34.338
34.261
34.181
34.101
34.025
33.955
33.894
33.842
33.802
33.772
33.751
33.739
33.733
33.731
33.731
33.73
33.726
33.717
33.703
33.684
33.659
33.63
33.597
33.563
33.53
33.498
33.468
33.44
33.415
33.392
33.371
33.349
33.328
33.308
33.287
33.267
33.247
33.228
33.21
33.192
33.176
33.161
33.147
33.136
33.129
33.129
33.138
33.159
33.195
33.252
33.33
33.434
33.566
33.728
33.923
34.15
34.412
34.705
35.031
35.386
35.766
36.166
36.582
37.006
37.432
37.851
38.256
38.639
38.995
39.319
39.606
39.855
40.063
40.231
40.358
40.445
40.496
40.513
40.499
40.459
40.395
40.31
40.208
40.09
39.96
39.821
39.673
39.52
39.362
39.2
39.035
38.867
38.698
38.527
38.356
38.187
38.02
37.856
37.695
37.539
37.387
37.238
37.092
36.949
36.81
36.673
36.538
36.406
36.276
36.148
36.022
35.9
35.78
35.664
35.552
35.444
35.34
35.24
35.146
35.059
34.979
34.906
34.841
34.784
34.736
34.696
34.664
34.639
34.621
34.61
34.603
34.6
34.601
34.607
34.615
34.626
34.637
34.644
34.643
34.634
34.62
34.601
34.582
34.564
34.55
34.539
34.534
34.534
34.538
34.547
34.557
34.569
34.58
34.591
34.599
34.605
34.607
34.604
34.596
34.581
34.56
34.533
34.5
34.463
34.422
34.376
34.326
34.273
34.218
34.162
34.107
34.053
34.002
33.954
33.909
33.867
33.829
33.792
33.758
33.726
33.695
33.664
33.634
33.603
33.573
33.544
33.514
33.485
33.456
33.426
33.396
33.364
33.331
33.298
33.265
33.233
33.202
33.173
33.146
33.123
33.102
33.085
33.072
33.062
33.058
33.059
33.068
33.087
33.119
33.167
33.234
33.323
33.436
33.577
33.748
33.95
34.185
34.453
34.754
35.086
35.446
35.831
36.235
36.652
37.075
37.498
37.913
38.311
38.688
39.037
39.355
39.638
39.884
40.091
40.26
40.39
40.482
40.539
40.561
40.551
40.513
40.447
40.359
40.25
40.126
39.988
39.839
39.683
39.521
39.354
39.185
39.013
38.84
38.668
38.498
38.331
38.168
38.008
37.852
37.7
37.551
37.407
37.264
37.123
36.984
36.845
36.706
36.567
36.428
36.29
36.154
36.019
35.887
35.759
35.634
35.513
35.399
35.289
35.186
35.087
34.993
34.904
34.822
34.748
34.684
34.629
34.586
34.552
34.527
34.512
34.504
34.502
34.506
34.513
34.524
34.537
34.552
34.57
34.589
34.609
34.629
34.648
34.665
34.68
34.691
34.699
34.704
34.705
34.703
34.698
34.69
34.679
34.665
34.647
34.626
34.6
34.57
34.535
34.497
34.454
34.41
34.363
34.316
34.269
34.221
34.174
34.128
34.082
34.038
33.996
33.954
33.913
33.873
33.834
33.796
33.759
33.723
33.687
33.65
33.612
33.573
33.534
33.494
33.456
33.419
33.385
33.352
33.321
33.293
33.268
33.245
33.225
33.206
33.188
33.171
33.153
33.135
33.117
33.097
33.076
33.054
33.03
33.004
32.979
32.955
32.934
32.919
32.913
32.917
32.935
32.971
33.028
33.107
33.212
33.345
33.508
33.704
33.933
34.196
34.492
34.818
35.172
35.55
35.946
36.356
36.773
37.19
37.6
37.998
38.379
38.735
39.063
39.358
39.617
39.839
40.023
40.167
40.272
40.339
40.368
40.362
40.324
40.255
40.16
40.042
39.905
39.752
39.588
39.415
39.236
39.056
38.875
38.696
38.522
38.351
38.185
38.023
37.865
37.709
37.555
37.403
37.251
37.099
36.946
36.794
36.644
36.497
36.352
36.211
36.074
35.942
35.813
35.688
35.567
35.45
35.337
35.227
35.121
35.019
34.922
34.831
34.747
34.671
34.604
34.546
34.497
34.458
34.428
34.406
34.392
34.386
34.386
34.39
34.398
34.409
34.423
34.439
34.457
34.475
34.495
34.515
34.536
34.556
34.576
34.595
34.613
34.629
34.64
34.647
34.649
34.647
34.641
34.631
34.617
34.601
34.582
34.561
34.538
34.512
34.485
34.455
34.423
34.387
34.349
34.308
34.265
34.221
34.176
34.13
34.085
34.041
33.997
33.955
33.914
33.875
33.836
33.799
33.762
33.727
33.693
33.661
33.629
33.598
33.566
33.533
33.499
33.465
33.43
33.394
33.357
33.321
33.286
33.252
33.22
33.19
33.163
33.138
33.114
33.092
33.071
33.053
33.037
33.023
33.011
33.0
32.99
32.982
32.975
32.971
32.972
32.977
32.991
33.013
33.048
33.098
33.168
33.259
33.375
33.518
33.69
33.895
34.133
34.405
34.712
35.052
35.422
35.818
36.232
36.657
37.087
37.512
37.926
38.323
38.695
39.037
39.343
39.612
39.839
40.024
40.167
40.269
40.333
40.361
40.356
40.322
40.263
40.184
40.086
39.972
39.844
39.706
39.557
39.4
39.234
39.061
38.883
38.701
38.517
38.33
38.142
37.955
37.771
37.589
37.412
37.239
37.071
36.908
36.751
36.599
36.45
36.306
36.165
36.027
35.893
35.762
35.634
35.508
35.387
35.268
35.154
35.046
34.945
34.852
34.768
34.695
34.631
34.578
34.535
34.502
34.477
34.46
34.45
34.446
34.446
34.449
34.456
34.466
34.48
34.496
34.515
34.537
34.562
34.589
34.617
34.645
34.673
34.698
34.72
34.737
34.747
34.752
