Trial 3:3back
33.508
33.907
34.355
34.848
35.38
35.943
36.525
37.117
37.707
38.287
38.845
39.374
39.864
40.311
40.708
41.051
41.338
41.566
41.738
41.855
41.92
41.937
41.912
41.848
41.751
41.627
41.48
41.314
41.134
40.943
40.746
40.547
40.347
40.148
39.951
39.756
39.564
39.375
39.19
39.007
38.827
38.65
38.475
38.304
38.134
37.967
37.802
37.64
37.479
37.32
37.163
37.007
36.853
36.7
36.548
36.396
36.245
36.095
35.948
35.804
35.664
35.53
35.403
35.285
35.175
35.076
34.986
34.907
34.838
34.779
34.729
34.689
34.657
34.634
34.617
34.607
34.604
34.607
34.615
34.625
34.637
34.649
34.66
34.67
34.677
34.683
34.687
34.691
34.695
34.698
34.702
34.705
34.708
34.71
34.711
34.709
34.703
34.692
34.674
34.65
34.617
34.577
34.529
34.475
34.413
34.345
34.272
34.193
34.111
34.027
33.942
33.856
33.771
33.688
33.607
33.529
33.454
33.383
33.316
33.253
33.193
33.136
33.081
33.026
32.973
32.92
32.866
32.81
32.754
32.697
32.639
32.581
32.523
32.465
32.408
32.352
32.297
32.241
32.186
32.132
32.078
32.026
31.976
31.928
31.883
31.843
31.809
31.783
31.769
31.772
31.795
31.843
31.921
32.034
32.185
32.379
32.62
32.911
33.251
33.643
34.082
34.567
35.089
35.643
36.218
36.806
37.396
37.978
38.542
39.077
39.576
40.032
40.438
40.792
41.089
41.329
41.512
41.641
41.72
41.751
41.741
41.693
41.613
41.506
41.376
41.227
41.064
40.889
40.707
40.519
40.327
40.134
39.941
39.75
39.561
39.375
39.192
39.012
38.836
38.663
38.493
38.326
38.162
38.002
37.844
37.688
37.534
37.382
37.233
37.086
36.941
36.798
36.655
36.514
36.374
36.235
36.099
35.967
35.841
35.72
35.605
35.496
35.393
35.295
35.202
35.116
35.036
34.964
34.9
34.844
34.798
34.76
34.732
34.713
34.703
34.701
34.705
34.715
34.73
34.748
34.767
34.786
34.803
34.817
34.826
34.831
34.829
34.82
34.804
34.781
34.75
34.713
34.671
34.623
34.573
34.52
34.465
34.409
34.35
34.29
34.228
34.164
34.1
34.034
33.967
33.9
33.832
33.764
33.696
33.629
33.563
33.496
33.43
33.363
33.295
33.225
33.152
33.077
32.998
32.917
32.834
32.75
32.667
32.585
32.506
32.433
32.366
32.307
32.256
32.212
32.175
32.143
32.112
32.08
32.047
32.009
31.968
31.922
31.872
31.819
31.765
31.714
31.666
31.624
31.592
31.572
31.57
31.588
31.629
31.699
31.801
31.941
32.122
32.35
32.627
32.957
33.339
33.773
34.254
34.78
35.342
35.933
36.544
37.163
37.78
38.383
38.963
39.51
40.014
40.468
40.865
41.202
41.476
41.685
41.832
41.918
41.95
41.93
41.866
41.763
41.627
41.465
41.282
41.083
40.873
40.656
40.434
40.213
39.993
39.776
39.563
39.354
39.149
38.948
38.75
38.555
38.362
38.169
37.977
37.785
37.593
37.401
37.21
37.019
36.83
36.643
36.459
36.279
36.102
35.93
35.762
35.598
35.437
35.279
35.127
34.981
34.841
34.707
34.579
34.458
34.342
34.232
34.131
34.038
33.956
33.884
33.823
33.774
33.735
33.706
33.688
33.679
33.68
33.689
33.707
33.731
33.76
33.791
33.824
33.858
33.893
33.928
33.963
33.996
34.028
34.058
34.085
34.107
34.125
34.139
34.151
34.161
34.167
34.169
34.168
34.163
34.154
34.141
34.124
34.105
34.083
34.058
34.03
33.998
33.963
33.925
33.884
33.841
33.796
33.75
33.701
33.651
33.6
33.547
33.492
33.435
33.376
33.316
33.255
33.194
33.134
33.074
33.016
32.959
32.903
32.849
32.797
32.745
32.695
32.646
32.6
32.556
32.517
32.483
32.455
32.435
32.425
32.429
32.448
32.486
32.547
32.636
32.758
32.917
33.116
33.359
33.648
33.983
34.363
34.785
35.245
35.737
36.253
36.784
37.32
37.851
38.368
38.862
39.325
39.75
40.13
40.461
40.74
40.966
41.138
41.257
41.326
41.347
41.326
41.266
41.171
41.046
40.897
40.728
40.544
40.349
40.146
39.937
39.726
39.513
39.301
39.09
38.88
38.674
38.471
38.272
38.076
37.881
37.687
37.494
37.301
37.107
36.914
36.721
36.53
36.339
36.15
35.963
35.777
35.594
35.414
35.238
35.066
34.901
34.743
34.594
34.455
34.325
34.206
34.099
34.004
33.924
33.856
33.803
33.763
33.737
33.722
33.718
33.724
33.74
33.764
33.795
33.83
33.869
33.909
33.949
33.988
34.022
34.051
34.075
34.095
34.109
34.119
34.125
34.128
34.128
34.125
34.12
34.112
34.101
34.088
34.071
34.052
34.028
34.0
33.968
33.932
33.892
33.848
33.801
33.75
33.694
33.635
33.574
33.51
33.446
33.382
33.32
33.259
33.2
33.143
33.087
33.033
32.979
32.926
32.874
32.822
32.77
32.718
32.664
32.611
32.558
32.505
32.453
32.401
32.35
32.3
32.253
32.207
32.163
32.122
32.088
32.062
32.046
32.044
32.061
32.101
32.171
32.277
32.425
32.618
32.861
33.157
33.505
33.905
34.354
34.85
35.387
35.957
36.554
37.166
37.784
38.396
38.992
39.561
40.091
40.575
41.005
41.377
41.686
41.931
42.111
42.229
42.288
42.294
42.251
42.166
42.047
41.898
41.727
41.537
41.336
41.129
40.92
40.712
40.507
40.306
40.111
39.921
39.736
39.557
39.381
39.207
39.036
38.865
38.695
38.525
38.355
38.184
38.012
37.84
37.665
37.489
37.311
37.132
36.952
36.773
36.595
36.421
36.251
36.087
35.928
35.777
35.634
35.498
35.372
35.254
35.145
35.045
34.954
34.871
34.796
34.728
34.667
34.613
34.566
34.525
34.491
34.464
34.443
34.429
34.423
34.423
34.429
34.44
34.456
34.475
34.497
34.521
34.546
34.571
34.595
34.617
34.637
34.653
34.665
34.673
34.675
34.67
34.659
34.642
34.618
34.589
34.555
34.514
34.462
34.392
34.307
34.208
34.1
33.987
33.875
33.767
33.665
33.572
33.489
33.415
33.352
33.298
33.251
33.211
33.175
33.143
33.112
33.081
33.048
33.011
32.97
32.923
32.87
32.81
32.743
32.671
32.595
32.514
32.432
32.35
32.27
32.195
32.129
32.073
32.032
32.011
32.013
32.043
32.106
32.205
32.347
32.535
32.772
33.061
33.401
33.793
34.234
34.719
35.244
35.804
36.39
36.994
37.605
38.213
38.807
39.376
39.909
40.398
40.835
41.212
41.527
41.776
41.961
42.083
42.146
42.154
42.115
42.033
41.916
41.77
41.601
41.413
41.213
41.003
40.79
40.575
40.36
40.148
39.939
39.733
39.53
39.331
39.136
38.945
38.758
38.575
38.395
38.217
38.043
37.87
37.698
37.526
37.355
37.185
37.017
36.851
36.687
36.524
36.363
36.204
36.048
35.895
35.745
35.599
35.458
35.321
35.189
35.06
34.936
34.82
34.712
34.613
34.524
34.446
34.379
34.322
34.275
34.238
34.211
34.194
34.186
34.187
34.194
34.206
34.222
34.24
34.259
34.277
34.296
34.314
34.332
34.348
34.362
34.373
34.38
34.386
34.388
34.387
34.383
34.375
34.361
34.341
34.314
34.281
34.241
34.195
34.144
34.088
34.028
33.965
33.899
33.832
33.764
33.696
33.629
33.562
33.497
33.432
33.368
33.303
33.239
33.175
33.111
33.047
32.984
32.92
32.857
32.794
32.731
32.667
32.601
32.536
32.47
32.404
32.339
32.274
32.209
32.146
32.085
32.027
31.975
31.93
31.896
31.874
31.87
31.888
31.932
32.007
32.117
32.268
32.463
32.705
32.995
33.333
33.721
34.155
34.634
35.154
35.707
36.286
36.883
37.487
38.088
38.676
39.238
39.764
40.246
40.676
41.048
41.357
41.601
41.78
41.896
41.951
41.951
41.899
41.804
41.672
41.51
41.325
41.122
40.908
40.686
40.461
40.235
40.01
39.788
39.57
39.357
39.148
38.945
38.746
38.552
38.362
38.177
37.995
37.817
37.641
37.467
37.294
37.122
36.95
36.779
36.608
36.439
36.273
36.11
35.95
35.794
35.642
35.495
35.353
35.216
35.085
34.96
34.841
34.728
34.624
34.526
34.436
34.355
34.282
34.219
34.165
34.121
34.087
34.063
34.049
34.045
34.05
34.064
34.087
34.115
34.149
34.187
34.227
34.268
34.309
34.347
34.382
34.41
34.433
34.447
34.454
34.452
34.443
34.427
34.407
34.382
34.353
34.321
34.286
34.248
34.208
34.164
34.117
34.067
34.014
33.957
33.895
33.831
33.763
33.693
33.622
33.551
33.479
33.408
33.338
33.269
33.201
33.134
33.069
33.006
32.944
32.882
32.819
32.755
32.69
32.623
32.556
32.488
32.421
32.355
32.289
32.224
32.16
32.097
32.037
31.981
31.93
31.886
31.85
31.825
31.814
31.82
31.85
31.907
31.999
32.131
32.309
32.535
32.814
33.146
33.533
33.972
34.46
34.993
35.566
36.169
36.794
37.428
38.059
38.675
39.264
39.815
40.319
40.767
41.154
41.475
41.728
41.913
42.032
42.088
42.087
42.035
41.937
41.803
41.639
41.451
41.247
41.032
40.811
40.587
40.364
40.146
39.935
39.732
39.536
39.349
39.168
38.992
38.822
38.655
38.492
38.332
38.174
38.017
37.858
37.699
37.538
37.376
37.211
37.043
36.872
36.699
36.524
36.348
36.172
35.995
35.819
35.644
35.472
35.304
35.14
34.983
34.836
34.699
34.575
34.464
34.367
34.284
34.216
34.16
34.117
34.086
34.068
34.06
34.062
34.072
34.089
34.11
34.136
34.163
34.19
34.216
34.238
34.258
34.273
34.284
34.29
34.292
34.289
34.281
34.268
34.25
34.229
34.205
34.181
34.155
34.129
34.103
34.076
34.049
34.021
33.992
33.961
33.928
33.892
33.854
33.812
33.768
33.72
33.668
33.614
33.554
33.491
33.422
33.349
33.271
33.19
33.107
33.023
32.94
32.859
32.781
32.706
32.635
32.569
32.507
32.449
32.395
32.344
32.294
32.246
32.196
32.145
32.091
32.036
31.978
31.92
31.861
31.803
31.75
31.704
31.668
31.647
31.647
31.671
31.725
31.816
31.947
32.123
32.35
32.629
32.964
33.354
33.799
34.297
34.843
35.43
36.049
36.688
37.338
37.985
38.619
39.228
39.8
40.326
40.796
41.205
41.548
41.821
42.025
42.161
42.233
42.246
42.205
42.118
41.992
41.835
41.654
41.454
41.241
41.021
40.796
40.571
40.349
40.13
39.917
39.71
39.51
39.315
39.127
38.945
38.769
38.6
38.437
38.278
38.123
37.97
37.818
37.666
37.514
37.36
37.205
37.048
36.89
36.73
36.569
36.407
36.245
36.083
35.922
35.764
35.61
35.46
35.317
35.18
35.05
34.927
34.812
34.706
34.609
34.521
34.445
34.381
34.33
34.29
34.261
34.241
34.231
34.228
34.233
34.242
34.256
34.272
34.291
34.311
34.332
34.352
34.371
34.39
34.407
34.422
34.435
34.445
34.45
34.45
34.445
34.434
34.418
34.396
34.369
34.336
34.298
34.255
34.207
34.155
34.099
34.039
33.975
33.909
33.841
33.771
33.702
33.632
33.564
33.496
33.429
33.364
33.3
33.236
33.172
33.109
33.046
32.982
32.917
32.85
32.782
32.712
32.64
32.567
32.493
32.42
32.346
32.274
32.202
32.132
32.063
31.995
31.929
31.865
31.803
31.743
31.686
31.631
31.579
31.53
31.486
31.448
31.418
31.398
31.392
31.403
31.438
31.501
31.598
31.736
31.921
32.156
32.444
32.788
33.188
33.645
34.157
34.719
35.323
35.96
36.618
37.287
37.952
38.6
39.218
39.793
40.316
40.778
41.173
41.497
41.748
41.927
42.037
42.083
42.069
42.002
41.89
41.741
41.562
41.359
41.139
40.909
40.673
40.436
40.2
39.968
39.743
39.524
39.314
39.112
38.916
38.726
38.54
38.357
38.176
37.997
37.817
37.638
37.458
37.277
37.096
36.914
36.733
36.552
36.373
36.196
36.021
35.849
35.68
35.515
35.354
35.198
35.047
34.903
34.767
34.639
34.518
34.406
34.302
34.207
34.123
34.05
33.989
33.942
33.908
33.887
33.877
33.877
33.886
33.902
33.925
33.952
33.982
34.015
34.048
34.08
34.111
34.14
34.167
34.193
34.215
34.234
34.25
34.26
34.266
34.268
34.265
34.259
34.248
34.235
34.218
34.197
34.171
34.14
34.102
34.058
34.009
33.954
33.896
33.834
33.769
33.703
33.636
33.57
33.503
33.437
33.372
33.308
33.244
33.178
33.112
33.045
32.976
32.906
32.835
32.764
32.694
32.625
32.557
32.491
32.427
32.365
32.305
32.246
32.188
32.13
32.073
32.014
31.955
31.896
31.837
31.78
31.724
31.67
31.617
31.567
31.518
31.474
31.434
31.399
31.373
31.357
31.354
31.367
31.402
31.462
31.554
31.684
31.855
32.073
32.34
32.661
33.035
33.463
33.94
34.462
35.024
35.617
36.233
36.86
37.488
38.106
38.702
39.265
39.784
40.25
40.657
40.999
41.275
41.482
41.622
41.698
41.714
41.675
41.59
41.463
41.303
41.117
40.912
40.693
40.465
40.233
39.999
39.768
39.541
39.32
39.103
38.893
38.689
38.49
38.295
38.105
37.917
37.731
37.546
37.362
37.177
36.993
36.807
36.621
36.432
36.24
36.046
35.851
35.654
35.459
35.264
35.073
34.887
34.71
34.543
34.388
34.246
34.119
34.007
33.91
33.828
33.762
33.711
33.675
33.653
33.644
33.646
33.658
33.678
33.705
33.737
33.773
33.811
33.851
33.891
33.932
33.972
34.011
34.05
34.087
34.122
34.155
34.185
34.212
34.236
34.256
34.271
34.281
34.286
34.286
34.281
34.271
34.256
34.236
34.212
34.184
34.151
34.114
34.071
34.023
33.97
33.911
33.846
33.775
33.699
33.62
33.538
33.455
33.371
33.288
33.207
33.128
33.052
32.98
32.91
32.845
32.783
32.723
32.664
32.607
32.551
32.496
32.44
32.384
32.328
32.271
32.214
32.155
32.097
32.039
31.984
31.931
31.879
31.829
31.78
31.732
31.687
31.646
31.609
31.577
31.553
31.538
31.535
31.548
31.582
31.643
31.736
31.866
32.037
32.253
32.518
32.834
33.201
33.618
34.082
34.589
35.132
35.704
36.296
36.899
37.502
38.093
38.661
39.197
39.69
40.134
40.523
40.851
41.117
41.32
41.461
41.543
41.569
41.546
41.477
41.371
41.233
41.07
40.888
40.692
40.486
40.273
40.057
39.842
39.629
39.421
39.218
39.021
38.829
38.643
38.462
38.284
38.11
37.937
37.764
37.592
37.419
37.245
37.069
36.892
36.715
36.543
36.375
36.213
36.056
35.9
35.745
35.589
35.43
35.271
35.111
34.953
34.796
34.644
34.499
34.361
34.232
34.115
34.011
33.921
33.847
33.788
33.746
33.72
33.709
33.711
33.724
33.746
33.774
33.808
33.844
33.882
33.92
33.957
33.993
34.027
34.059
34.087
34.111
34.131
34.147
34.159
34.166
34.169
34.169
34.167
34.162
34.154
34.144
34.132
34.117
34.099
34.078
34.052
34.022
33.985
33.943
33.893
33.837
33.774
33.705
33.629
33.55
33.466
33.38
33.294
33.208
33.123
33.04
32.96
32.883
32.81
32.74
32.674
32.61
32.549
32.492
32.436
32.382
32.327
32.271
32.214
32.154
32.094
32.032
31.971
31.909
31.848
31.786
31.725
31.666
31.608
31.553
31.501
31.453
31.409
31.371
31.339
31.312
31.292
31.279
31.277
31.287
31.312
31.357
31.426
31.525
31.659
31.836
32.06
32.334
32.663
33.048
33.486
33.977
34.515
35.095
35.708
36.346
36.997
37.65
38.291
38.91
39.494
40.031
40.513
40.932
41.285
41.568
41.781
41.926
42.006
42.027
41.993
41.913
41.791
41.634
41.451
41.248
41.03
40.803
40.573
40.343
40.117
39.898
39.686
39.482
39.285
39.095
38.91
38.731
38.556
38.385
38.218
38.053
37.891
37.73
37.569
37.407
37.245
37.081
36.916
36.75
36.583
36.416
36.25
36.084
35.92
35.759
35.601
35.45
35.304
35.163
35.028
34.899
34.776
34.658
34.548
34.446
34.353
34.271
34.199
34.139
34.09
34.053
34.028
34.014
34.01
34.014
34.027
34.046
34.07
34.098
34.128
34.159
34.189
34.22
34.249
34.276
34.301
34.322
34.34
34.354
34.364
34.369
34.37
34.367
34.359
34.348
34.333
34.312
34.286
34.254
34.217
34.173
34.124
34.07
34.011
33.948
33.882
33.813
33.744
33.674
33.603
33.534
33.466
33.399
33.333
33.268
33.202
33.135
33.067
32.999
32.93
32.859
32.787
32.713
32.639
32.565
32.492
32.421
32.352
32.285
32.221
32.157
32.095
32.032
31.97
31.907
31.844
31.78
31.714
31.648
31.582
31.516
31.452
31.391
31.335
31.285
31.242
31.21
31.19
31.186
31.201
31.238
31.3
31.391
31.516
31.679
31.882
32.13
32.425
32.768
33.162
33.604
34.092
34.62
35.184
35.775
36.383
37.0
37.613
38.213
38.788
39.328
39.823
40.266
40.65
40.971
41.227
41.416
41.541
41.605
41.612
41.57
41.483
41.36
41.206
41.028
40.831
40.621
40.401
40.177
39.951
39.727
39.507
39.29
39.078
38.871
38.668
38.471
38.277
38.088
37.902
37.719
37.54
37.363
37.188
37.015
36.843
36.673
36.504
36.338
36.173
36.01
35.847
35.686
35.526
35.367
35.209
35.053
34.899
34.748
34.6
34.457
34.321
34.194
34.077
33.971
33.876
33.794
33.726
33.671
33.63
33.601
33.585
33.582
33.591
33.611
33.64
33.676
33.719
33.766
33.815
33.866
33.916
33.965
34.012
34.054
34.09
34.121
34.146
34.166
34.181
34.189
34.192
34.19
34.182
34.168
34.149
34.125
34.096
34.063
34.027
33.99
33.957
33.927
33.899
33.872
33.842
33.809
33.771
33.726
33.674
33.613
33.544
33.466
33.381
33.291
33.198
33.103
33.008
32.915
32.825
32.738
32.655
32.576
32.502
32.433
32.368
32.307
32.249
32.194
32.141
32.09
32.04
31.991
31.943
31.894
31.843
31.791
31.737
31.682
31.629
31.579
31.531
31.486
31.446
31.412
31.385
31.366
31.357
31.361
31.381
31.422
31.487
31.581
31.708
31.876
32.089
32.352
32.668
33.037
33.458
33.93
34.445
34.999
35.582
36.186
36.801
37.417
38.022
38.605
39.157
39.668
40.129
40.533
40.876
41.154
41.367
41.515
41.602
41.632
41.608
41.537
41.424
41.276
41.099
40.9
40.685
40.46
40.228
39.994
39.76
39.526
39.296
39.071
38.85
38.634
38.423
38.217
38.017
37.821
37.629
37.439
37.251
37.064
36.876
36.687
36.498
36.307
36.117
35.926
35.736
35.549
35.363
35.182
35.007
34.839
34.679
34.529
34.391
34.264
34.15
34.048
33.957
33.878
33.81
33.752
33.704
33.665
33.635
33.614
33.601
33.596
33.599
33.609
33.627
33.652
33.684
33.723
33.767
33.816
33.869
33.925
33.983
34.041
34.098
34.154
34.206
34.253
34.294
34.327
34.352
34.367
34.37
34.362
34.344
34.316
34.279
34.234
34.184
34.131
34.078
34.024
33.97
33.916
33.863
33.811
33.758
33.704
33.649
33.591
33.531
33.468
33.403
33.336
33.266
33.195
33.123
33.05
32.975
32.901
32.827
32.752
32.677
32.603
32.529
32.456
32.383
32.312
32.243
32.176
32.113
32.054
32.0
31.949
31.903
31.86
31.821
31.786
31.753
31.721
31.691
31.662
31.633
31.605
31.58
31.56
31.55
31.553
31.574
31.621
31.698
31.813
31.972
32.18
32.441
32.758
33.13
33.557
34.034
34.556
35.116
35.705
36.316
36.937
37.558
38.168
38.755
39.31
39.822
40.285
40.69
41.036
41.327
41.565
41.751
41.884
41.965
41.995
41.977
41.914
41.81
41.67
41.5
41.304
41.088
40.858
40.617
40.37
40.121
39.874
39.631
39.393
39.16
38.935
38.717
38.506
38.302
38.103
37.909
37.717
37.526
37.335
37.143
36.951
36.758
36.566
36.375
36.184
35.994
35.807
35.623
35.442
35.266
35.096
34.932
34.777
34.63
34.492
34.364
34.247
34.141
34.046
33.963
33.892
33.833
33.786
33.75
33.724
33.708
33.699
33.698
33.704
33.717
33.737
33.762
33.793
33.828
33.866
33.905
33.946
33.987
34.028
34.068
34.103
34.134
34.158
34.176
34.186
34.188
34.183
34.171
34.151
34.126
34.095
34.059
34.021
33.981
33.941
33.901
33.862
33.823
33.785
33.747
33.708
33.667
33.625
33.58
33.532
33.48
33.424
33.365
33.304
33.241
33.178
33.115
33.053
32.994
32.937
32.881
32.828
32.775
32.724
32.673
32.622
32.57
32.517
32.463
32.408
32.351
32.294
32.237
32.179
32.121
32.063
32.006
31.951
31.896
31.845
31.795
31.749
31.706
31.668
31.636
31.612
31.597
31.593
31.605
31.635
31.687
31.767
31.879
32.028
32.219
32.455
32.74
33.074
33.459
33.894
34.376
34.9
35.458
36.045
36.65
37.264
37.875
38.474
39.051
39.594
40.096
40.548
40.943
41.276
41.544
41.749
41.892
41.975
42.003
41.981
41.915
41.811
41.674
41.513
41.333
41.139
40.937
40.73
40.522
40.314
40.109
39.908
39.711
39.521
39.336
39.156
38.981
38.811
38.645
38.482
38.32
38.159
37.998
37.838
37.679
37.519
37.359
37.199
37.039
36.879
36.719
36.558
36.397
36.236
36.077
35.918
35.762
35.609
35.461
35.317
35.18
35.049
34.927
34.813
34.709
34.616
34.532
34.459
34.397
34.346
34.306
34.277
34.258
34.248
34.248
34.254
34.268
34.286
