Trial 3:3back
36.321
36.425
36.52
36.606
36.681
36.745
36.798
36.838
36.868
36.886
36.896
36.898
36.894
36.884
36.871
36.856
36.839
36.821
36.803
36.785
36.768
36.752
36.738
36.724
36.711
36.699
36.686
36.672
36.658
36.642
36.625
36.608
36.589
36.568
36.546
36.522
36.496
36.468
36.438
36.406
36.373
36.338
36.302
36.265
36.228
36.19
36.153
36.117
36.082
36.051
36.023
35.998
35.977
35.961
35.949
35.941
35.936
35.934
35.934
35.936
35.939
35.942
35.945
35.947
35.948
35.947
35.943
35.938
35.93
35.919
35.906
35.891
35.874
35.855
35.836
35.815
35.795
35.774
35.754
35.734
35.714
35.694
35.673
35.652
35.63
35.607
35.584
35.559
35.535
35.51
35.484
35.459
35.434
35.409
35.383
35.357
35.332
35.306
35.281
35.256
35.232
35.208
35.185
35.162
35.14
35.118
35.097
35.077
35.058
35.039
35.02
35.001
34.982
34.963
34.943
34.923
34.903
34.882
34.861
34.838
34.815
34.791
34.766
34.74
34.715
34.69
34.667
34.645
34.625
34.609
34.595
34.584
34.577
34.574
34.574
34.58
34.591
34.608
34.632
34.663
34.702
34.75
34.807
34.873
34.948
35.032
35.124
35.224
35.332
35.445
35.561
35.679
35.798
35.913
36.025
36.132
36.231
36.321
36.403
36.474
36.534
36.583
36.622
36.65
36.669
36.678
36.679
36.674
36.664
36.649
36.633
36.615
36.598
36.581
36.565
36.55
36.537
36.525
36.515
36.505
36.497
36.49
36.483
36.478
36.472
36.467
36.462
36.456
36.448
36.439
36.428
36.415
36.4
36.382
36.363
36.341
36.318
36.294
36.269
36.243
36.216
36.19
36.165
36.141
36.12
36.102
36.088
36.077
36.07
36.066
36.064
36.065
36.067
36.07
36.074
36.078
36.081
36.083
36.084
36.084
36.082
36.078
36.071
36.063
36.053
36.04
36.025
36.008
35.99
35.97
35.948
35.926
35.902
35.877
35.85
35.823
35.795
35.766
35.736
35.707
35.676
35.646
35.614
35.582
35.549
35.516
35.483
35.451
35.419
35.388
35.36
35.334
35.311
35.29
35.273
35.257
35.244
35.231
35.219
35.206
35.193
35.179
35.162
35.144
35.123
35.099
35.072
35.043
35.012
34.979
34.945
34.91
34.875
34.84
34.805
34.77
34.737
34.704
34.673
34.643
34.616
34.59
34.566
34.545
34.527
34.511
34.5
34.493
34.49
34.493
34.503
34.521
34.548
34.585
34.633
34.693
34.765
34.848
34.943
35.047
35.16
35.28
35.406
35.536
35.667
35.797
35.924
36.046
36.16
36.267
36.364
36.45
36.527
36.592
36.647
36.693
36.729
36.758
36.78
36.796
36.806
36.813
36.817
36.819
36.82
36.82
36.819
36.819
36.818
36.818
36.816
36.813
36.808
36.802
36.793
36.783
36.77
36.755
36.738
36.72
36.699
36.677
36.654
36.629
36.604
36.578
36.551
36.525
36.499
36.472
36.445
36.418
36.392
36.366
36.342
36.319
36.297
36.276
36.256
36.239
36.223
36.209
36.197
36.186
36.176
36.166
36.158
36.15
36.143
36.136
36.128
36.12
36.112
36.103
36.093
36.083
36.072
36.062
36.051
36.041
36.029
36.017
36.003
35.987
35.969
35.948
35.925
35.901
35.875
35.848
35.82
35.791
35.762
35.733
35.703
35.673
35.643
35.614
35.585
35.557
35.531
35.505
35.481
35.459
35.437
35.415
35.393
35.37
35.346
35.322
35.297
35.271
35.244
35.217
35.188
35.159
35.129
35.098
35.067
35.037
35.006
34.975
34.946
34.919
34.893
34.869
34.847
34.828
34.81
34.794
34.779
34.764
34.75
34.736
34.721
34.705
34.687
34.668
34.647
34.625
34.601
34.578
34.554
34.531
34.51
34.489
34.471
34.456
34.445
34.439
34.439
34.447
34.462
34.486
34.521
34.566
34.622
34.689
34.767
34.855
34.952
35.057
35.169
35.286
35.407
35.531
35.654
35.777
35.896
36.01
36.118
36.218
36.31
36.392
36.464
36.527
36.579
36.62
36.652
36.673
36.686
36.691
36.688
36.68
36.667
36.65
36.631
36.61
36.588
36.566
36.543
36.521
36.498
36.476
36.453
36.431
36.409
36.388
36.368
36.348
36.33
36.311
36.293
36.274
36.255
36.234
36.211
36.186
36.16
36.132
36.102
36.073
36.042
36.012
35.982
35.954
35.926
35.901
35.877
35.856
35.837
35.82
35.805
35.793
35.783
35.775
35.77
35.766
35.764
35.763
35.763
35.762
35.76
35.757
35.752
35.744
35.735
35.723
35.71
35.695
35.679
35.662
35.643
35.624
35.604
35.584
35.565
35.545
35.526
35.507
35.487
35.467
35.446
35.424
35.401
35.378
35.354
35.329
35.304
35.279
35.254
35.229
35.203
35.176
35.149
35.123
35.096
35.07
35.045
35.021
34.999
34.978
34.957
34.938
34.919
34.9
34.881
34.862
34.842
34.822
34.802
34.781
34.76
34.737
34.713
34.689
34.665
34.64
34.616
34.592
34.569
34.547
34.526
34.506
34.487
34.469
34.452
34.435
34.419
34.402
34.385
34.367
34.348
34.329
34.309
34.289
34.268
34.247
34.226
34.205
34.183
34.162
34.141
34.121
34.102
34.084
34.069
34.056
34.045
34.036
34.031
34.029
34.032
34.039
34.053
34.074
34.104
34.142
34.191
34.251
34.321
34.402
34.494
34.595
34.704
34.819
34.939
35.061
35.182
35.302
35.416
35.524
35.623
35.712
35.789
35.855
35.908
35.95
35.981
36.002
36.013
36.016
36.013
36.002
35.987
35.968
35.946
35.921
35.895
35.867
35.839
35.811
35.782
35.754
35.726
35.698
35.671
35.645
35.62
35.596
35.573
35.552
35.533
35.516
35.499
35.484
35.469
35.454
35.44
35.424
35.407
35.389
35.37
35.348
35.323
35.297
35.27
35.242
35.213
35.185
35.158
35.133
35.111
35.092
35.077
35.065
35.056
35.051
35.048
35.048
35.05
35.053
35.057
35.061
35.065
35.068
35.07
35.07
35.07
35.067
35.063
35.057
35.049
35.04
35.03
35.02
35.01
34.999
34.988
34.977
34.965
34.952
34.937
34.92
34.901
34.88
34.858
34.835
34.812
34.789
34.765
34.742
34.719
34.697
34.675
34.654
34.633
34.614
34.594
34.576
34.557
34.539
34.521
34.503
34.485
34.466
34.447
34.427
34.406
34.384
34.362
34.339
34.315
34.291
34.267
34.243
34.219
34.196
34.174
34.151
34.13
34.11
34.091
34.073
34.056
34.04
34.025
34.011
33.998
33.984
33.97
33.957
33.943
33.929
33.915
33.901
33.888
33.876
33.863
33.851
33.84
33.828
33.816
33.804
33.79
33.776
33.76
33.743
33.726
33.708
33.689
33.671
33.652
33.633
33.614
33.596
33.577
33.56
33.542
33.526
33.511
33.498
33.487
33.48
33.478
33.482
33.493
33.512
33.541
33.58
33.631
33.693
33.766
33.85
33.945
34.049
34.161
34.28
34.404
34.53
34.658
34.784
34.906
35.023
35.133
35.234
35.325
35.405
35.473
35.53
35.576
35.61
35.633
35.647
35.653
35.652
35.645
35.635
35.621
35.604
35.585
35.565
35.544
35.523
35.502
35.483
35.464
35.446
35.43
35.415
35.401
35.387
35.374
35.362
35.351
35.34
35.33
35.319
35.308
35.297
35.284
35.271
35.257
35.24
35.221
35.199
35.174
35.146
35.115
35.083
35.05
35.016
34.983
34.952
34.922
34.895
34.872
34.851
34.835
34.822
34.813
34.806
34.802
34.801
34.802
34.804
34.808
34.812
34.817
34.821
34.825
34.827
34.828
34.827
34.825
34.821
34.814
34.807
34.798
34.787
34.776
34.765
34.752
34.739
34.725
34.71
34.694
34.676
34.658
34.639
34.619
34.598
34.576
34.553
34.53
34.507
34.485
34.464
34.444
34.425
34.407
34.389
34.373
34.356
34.339
34.323
34.306
34.289
34.273
34.257
34.241
34.226
34.211
34.196
34.181
34.166
34.152
34.139
34.126
34.114
34.102
34.092
34.081
34.071
34.062
34.052
34.041
34.031
34.02
34.008
33.997
33.985
33.974
33.963
33.952
33.941
33.931
33.922
33.915
33.909
33.904
33.902
33.902
33.906
33.913
33.927
33.946
33.972
34.005
34.047
34.098
34.158
34.227
34.306
34.393
34.488
34.59
34.697
34.806
34.918
35.028
35.135
35.237
35.332
35.419
35.496
35.562
35.618
35.663
35.697
35.72
35.734
35.739
35.736
35.725
35.709
35.687
35.661
35.631
35.599
35.564
35.528
35.489
35.449
35.408
35.365
35.321
35.277
35.234
35.192
35.151
35.114
35.079
35.047
35.02
34.995
34.974
34.954
34.935
34.917
34.898
34.878
34.856
34.831
34.802
34.77
34.733
34.693
34.651
34.606
34.561
34.515
34.471
34.429
34.389
34.354
34.323
34.298
34.279
34.265
34.257
34.254
34.256
34.261
34.269
34.278
34.288
34.299
34.309
34.319
34.328
34.335
34.342
34.347
34.351
34.353
34.355
34.355
34.353
34.351
34.347
34.342
34.336
34.329
34.321
34.311
34.3
34.289
34.276
34.262
34.247
34.231
34.214
34.197
34.179
34.161
34.144
34.128
34.113
34.1
34.089
34.08
34.072
34.065
34.06
34.055
34.051
34.047
34.042
34.037
34.03
34.022
34.012
34.0
33.987
33.973
33.96
33.946
33.934
33.922
33.911
33.9
33.891
33.882
33.873
33.864
33.855
33.844
33.833
33.82
33.806
33.791
33.775
33.759
33.743
33.727
33.713
33.7
33.688
33.678
33.671
33.667
33.667
33.67
33.679
33.694
33.718
33.75
33.792
33.845
33.907
33.98
34.063
34.155
34.256
34.362
34.475
34.59
34.706
34.82
34.931
35.036
35.133
35.22
35.297
35.362
35.415
35.455
35.483
35.5
35.508
35.508
35.501
35.488
35.472
35.451
35.429
35.405
35.38
35.355
35.331
35.308
35.287
35.268
35.249
35.233
35.216
35.201
35.185
35.17
35.154
35.139
35.123
35.107
35.091
35.075
35.058
35.04
35.021
35.002
34.981
34.96
34.938
34.915
34.892
34.867
34.841
34.815
34.788
34.761
34.735
34.71
34.688
34.668
34.651
34.637
34.626
34.619
34.615
34.615
34.618
34.623
34.63
34.638
34.647
34.657
34.666
34.674
34.68
34.684
34.687
34.687
34.685
34.68
34.674
34.666
34.656
34.646
34.635
34.624
34.613
34.602
34.592
34.581
34.571
34.56
34.549
34.537
34.525
34.512
34.498
34.483
34.468
34.452
34.435
34.418
34.401
34.384
34.367
34.351
34.336
34.321
34.308
34.295
34.283
34.271
34.258
34.246
34.233
34.219
34.205
34.19
34.175
34.16
34.144
34.128
34.112
34.096
34.081
34.067
34.052
34.038
34.024
34.009
33.994
33.979
33.962
33.945
33.926
33.907
33.887
33.866
33.845
33.824
33.804
33.785
33.769
33.755
33.745
33.739
33.737
33.741
33.752
33.77
33.796
33.832
33.877
33.932
33.998
34.074
34.16
34.255
34.358
34.467
34.581
34.697
34.813
34.927
35.038
35.142
35.238
35.326
35.404
35.471
35.527
35.572
35.605
35.628
35.64
35.643
35.639
35.628
35.614
35.596
35.575
35.554
35.532
35.511
35.489
35.469
35.45
35.432
35.415
35.4
35.386
35.373
35.361
35.35
35.339
35.327
35.315
35.303
35.289
35.274
35.258
35.241
35.223
35.205
35.186
35.166
35.145
35.124
35.103
35.082
35.059
35.036
35.012
34.987
34.961
34.937
34.913
34.891
34.871
34.853
34.837
34.824
34.814
34.807
34.803
34.803
34.805
34.809
34.814
34.82
34.827
34.833
34.838
34.842
34.844
34.844
34.841
34.836
34.829
34.819
34.806
34.791
34.773
34.754
34.734
34.714
34.693
34.673
34.653
34.634
34.617
34.6
34.583
34.567
34.552
34.536
34.52
34.504
34.487
34.47
34.453
34.435
34.416
34.396
34.377
34.357
34.337
34.316
34.296
34.275
34.256
34.236
34.218
34.201
34.184
34.167
34.15
34.134
34.116
34.098
34.081
34.064
34.049
34.035
34.023
34.014
34.005
33.998
33.991
33.984
33.977
33.97
33.963
33.955
33.948
33.939
33.931
33.922
33.913
33.903
33.892
33.88
33.867
33.851
33.834
33.816
33.798
33.78
33.763
33.747
33.732
33.72
33.709
33.7
33.694
33.692
33.693
33.698
33.707
33.723
33.746
33.777
33.817
33.868
33.93
34.003
34.089
34.185
34.292
34.407
34.53
34.656
34.784
34.911
35.033
35.15
35.259
35.357
35.443
35.517
35.577
35.625
35.659
35.682
35.694
35.697
35.692
35.68
35.664
35.644
35.622
35.598
35.574
35.55
35.527
35.505
35.485
35.465
35.447
35.429
35.412
35.395
35.377
35.359
35.341
35.322
35.302
35.282
35.262
35.242
35.222
35.203
35.184
35.165
35.147
35.129
35.111
35.092
35.072
35.052
35.03
35.007
34.983
34.96
34.936
34.913
34.891
34.87
34.851
34.832
34.816
34.803
34.794
34.788
34.786
34.789
34.795
34.804
34.814
34.825
34.836
34.848
34.858
34.866
34.871
34.874
34.874
34.871
34.866
34.858
34.847
34.835
34.821
34.805
34.789
34.773
34.756
34.739
34.723
34.707
34.693
34.68
34.668
34.655
34.643
34.63
34.617
34.603
34.588
34.573
34.556
34.538
34.519
34.5
34.48
34.46
34.44
34.42
34.401
34.382
34.363
34.344
34.326
34.309
34.292
34.275
34.259
34.243
34.228
34.214
34.199
34.184
34.169
34.155
34.141
34.128
34.115
34.103
34.091
34.08
34.068
34.056
34.045
34.034
34.022
34.011
33.999
33.987
33.975
33.963
33.951
33.94
33.93
33.92
33.91
33.9
33.891
33.881
33.872
33.862
33.852
33.842
33.83
33.818
33.806
33.795
33.783
33.773
33.764
33.758
33.753
33.751
33.752
33.756
33.765
33.778
33.796
33.82
33.852
33.892
33.941
34.0
34.069
34.149
34.239
34.338
34.444
34.557
34.674
34.793
34.912
35.029
35.14
35.244
35.338
35.421
35.492
35.551
35.596
35.629
35.649
35.658
35.657
35.648
35.632
35.61
35.584
35.556
35.526
35.495
35.465
35.435
35.407
35.381
35.357
35.336
35.317
35.299
35.281
35.265
35.25
35.235
35.221
35.206
35.191
35.177
35.161
35.145
35.128
35.11
35.09
35.069
35.048
35.026
35.003
34.98
34.957
34.934
34.91
34.886
34.862
34.839
34.817
34.798
34.781
34.769
34.76
34.754
34.752
34.752
34.756
34.761
34.769
34.779
34.789
34.8
34.812
34.822
34.832
34.841
34.847
34.851
34.852
34.85
34.845
34.836
34.825
34.81
34.794
34.775
34.756
34.736
34.716
34.697
34.678
34.66
34.642
34.626
34.61
34.596
34.582
34.568
34.555
34.541
34.526
34.511
34.495
34.478
34.462
34.445
34.428
34.411
34.395
34.379
34.363
34.348
34.332
34.316
34.299
34.281
34.262
34.243
34.224
34.206
34.187
34.169
34.152
34.135
34.119
34.105
34.092
34.081
34.071
34.063
34.055
34.048
34.041
34.034
34.026
34.018
34.009
33.999
33.989
33.979
33.968
33.959
33.95
33.942
33.936
33.93
33.926
33.923
33.921
33.919
33.918
33.917
33.916
33.914
33.911
33.908
33.904
33.898
33.892
33.884
33.877
33.869
33.862
33.856
33.852
33.849
33.848
33.849
33.853
33.862
33.877
33.898
33.928
33.967
34.016
34.076
34.147
34.23
34.324
34.428
34.542
34.663
34.789
34.919
35.048
35.175
35.297
35.411
35.516
35.609
35.689
35.756
35.808
35.846
35.87
35.88
35.878
35.866
35.844
35.815
35.782
35.746
35.71
35.674
35.64
35.609
35.581
35.556
35.534
35.515
35.498
35.482
35.468
35.455
35.442
35.429
35.415
35.401
35.386
35.369
35.352
35.333
35.313
35.293
35.272
35.251
35.229
35.206
35.183
35.159
35.135
35.112
35.089
35.067
35.046
35.026
35.008
34.991
34.977
34.964
34.954
34.946
34.942
34.941
34.944
34.949
34.957
34.968
34.981
34.994
35.007
35.02
35.032
35.043
35.052
35.06
35.066
35.069
35.071
35.071
35.068
35.063
35.056
35.047
35.038
35.027
35.016
35.005
34.993
34.981
34.968
34.956
34.944
34.932
34.92
34.909
34.898
34.886
34.874
34.861
34.848
34.835
34.82
34.806
34.79
34.775
34.759
34.743
34.727
34.712
34.698
34.685
34.672
34.66
34.649
34.638
34.628
34.618
34.609
34.6
34.591
34.582
34.573
34.564
34.555
34.547
34.539
34.531
34.524
34.518
34.511
34.503
34.494
34.484
34.472
34.459
34.444
34.428
34.411
34.393
34.375
34.356
34.337
34.319
34.302
34.287
34.274
34.264
34.256
34.25
34.246
34.243
34.242
34.243
34.247
34.253
34.265
34.283
34.308
34.341
34.384
34.438
34.503
34.579
34.664
34.76
34.864
34.974
35.089
35.206
35.323
35.438
35.549
35.654
35.751
35.838
35.916
35.983
36.038
36.082
36.115
36.137
36.148
36.15
36.144
36.131
36.112
36.088
36.06
36.03
35.998
35.966
35.934
35.903
35.872
35.843
35.815
35.788
35.762
35.738
35.715
35.693
35.672
35.653
35.634
35.616
35.599
35.582
35.565
35.547
35.529
35.51
35.489
35.468
35.445
35.421
35.396
35.371
35.345
35.32
35.295
35.272
35.251
35.232
35.216
35.204
35.195
35.19
35.188
35.19
35.194
35.202
35.211
35.222
35.233
35.244
35.255
35.264
35.272
35.278
35.281
35.283
35.282
35.279
35.274
35.266
35.257
35.247
35.235
35.222
35.208
35.194
35.18
35.165
35.15
35.134
35.119
35.102
35.085
35.068
35.049
35.031
35.013
34.996
34.979
34.962
34.946
34.93
34.914
34.898
34.882
34.867
34.853
34.839
34.825
34.811
34.796
34.78
34.764
34.748
34.732
34.716
34.7
34.685
34.67
34.656
34.643
34.63
34.618
34.606
34.594
34.581
34.567
34.551
34.533
34.515
34.496
34.476
34.456
34.438
34.42
34.404
34.39
34.379
34.37
34.364
34.362
34.363
34.367
34.375
34.387
34.405
34.428
34.459
34.499
34.547
34.606
34.674
34.753
34.841
34.939
35.043
35.154
35.269
35.385
35.5
35.613
35.721
35.823
35.919
36.005
36.082
36.148
36.202
36.246
36.277
36.298
36.309
36.311
36.304
36.291
36.273
36.252
36.229
36.205
36.182
36.16
36.14
36.121
36.103
36.086
36.069
36.052
36.034
36.014
35.992
35.968
35.941
35.91
35.877
35.84
35.801
35.761
35.72
35.679
35.639
35.599
35.561
35.523
35.487
35.452
35.419
35.388
35.359
35.332
35.306
35.282
35.26
35.24
35.224
35.211
35.2
35.193
35.188
35.187
35.187
35.19
35.194
35.2
35.207
35.215
35.224
35.233
35.243
35.251
35.259
35.265
35.268
35.27
35.268
35.264
35.257
35.248
35.236
35.223
35.208
35.191
35.174
35.157
35.14
35.123
35.106
35.09
35.075
35.06
35.046
35.033
35.02
35.008
34.996
34.985
34.975
34.965
34.956
34.946
34.937
34.928
34.919
34.909
34.899
34.889
34.879
34.869
34.858
34.847
34.836
34.824
34.811
34.798
34.784
34.771
34.757
34.743
34.73
34.716
34.703
34.691
34.678
34.667
34.656
34.645
34.634
34.624
34.613
34.603
34.591
34.58
34.569
34.558
34.547
34.537
34.527
34.518
34.511
34.506
34.505
34.509
34.52
34.539
34.568
34.609
34.661
34.727
34.805
34.896
34.998
35.111
35.231
35.358
35.488
35.62
35.75
35.876
35.996
36.109
36.213
36.307
36.389
36.459
36.518
36.564
36.599
36.623
36.637
36.643
36.642
36.635
36.623
36.608
36.592
36.573
36.555
36.536
36.518
36.501
36.485
36.469
36.455
36.442
36.43
36.419
36.407
36.395
36.383
36.37
36.357
36.344
36.329
36.314
36.299
36.283
36.266
36.25
36.233
36.216
36.199
36.183
36.167
36.149
36.131
36.111
36.09
36.067
36.045
36.024
36.004
35.986
35.97
35.958
35.948
35.942
35.94
35.941
35.946
35.952
35.961
35.97
35.979
35.986
35.992
35.996
35.997
35.995
35.99
35.983
35.973
35.961
35.947
35.932
35.915
35.899
35.883
35.868
35.853
35.839
35.826
35.813
35.801
35.79
35.779
35.77
35.761
35.752
35.742
35.732
35.72
35.706
35.69
35.673
35.653
35.633
35.611
35.589
35.568
35.546
35.524
35.503
35.483
35.463
35.445
35.427
35.411
35.395
35.38
35.366
35.353
35.34
35.326
35.312
35.297
35.281
35.263
35.244
35.224
35.203
35.182
35.162
35.144
35.127
35.112
35.098
35.087
35.077
35.067
35.058
35.048
35.037
35.026
35.014
35.003
34.993
34.985
34.981
34.982
34.991
35.008
35.036
35.075
35.126
35.19
35.266
35.355
35.455
35.565
35.684
35.81
35.94
36.071
36.201
36.328
36.449
36.562
36.665
36.758
36.837
36.904
36.957
36.998
37.026
37.043
37.05
37.05
37.043
37.031
37.016
36.998
36.98
36.961
36.942
36.925
36.908
36.893
36.879
36.865
36.852
36.84
36.829
36.818
36.807
36.797
36.787
36.776
36.764
36.752
36.739
36.725
36.71
36.695
36.678
36.661
36.643
36.624
36.603
36.582
36.558
36.534
36.508
36.481
36.453
36.424
36.396
36.368
36.342
36.318
36.297
36.279
36.265
36.254
36.248
36.245
36.245
36.248
36.254
36.26
36.266
36.273
36.278
36.281
36.282
36.281
36.278
36.273
36.266
36.257
36.245
36.23
36.214
36.196
36.176
36.155
36.133
36.112
36.09
36.068
36.048
36.028
36.009
35.99
35.972
35.954
35.937
35.918
35.9
35.88
35.86
35.84
35.818
35.796
35.773
35.749
35.725
35.701
