Trial 3:3back
35.458
35.448
35.438
35.427
35.415
35.402
35.388
35.373
35.357
35.34
35.322
35.302
35.28
35.256
35.231
35.205
35.177
35.15
35.123
35.097
35.072
35.047
35.021
34.995
34.966
34.937
34.906
34.876
34.846
34.819
34.793
34.77
34.75
34.733
34.717
34.703
34.688
34.671
34.651
34.627
34.6
34.571
34.54
34.509
34.478
34.447
34.418
34.39
34.364
34.339
34.313
34.285
34.256
34.226
34.195
34.164
34.134
34.105
34.08
34.059
34.044
34.037
34.038
34.047
34.067
34.098
34.142
34.2
34.273
34.361
34.464
34.581
34.71
34.852
35.003
35.162
35.327
35.496
35.668
35.839
36.009
36.172
36.328
36.473
36.606
36.727
36.833
36.924
36.999
37.059
37.105
37.136
37.155
37.163
37.161
37.152
37.135
37.112
37.085
37.053
37.017
36.979
36.938
36.895
36.85
36.804
36.756
36.708
36.659
36.611
36.564
36.518
36.474
36.431
36.389
36.348
36.305
36.261
36.215
36.165
36.114
36.061
36.006
35.952
35.898
35.846
35.797
35.751
35.708
35.669
35.631
35.597
35.566
35.539
35.516
35.499
35.485
35.474
35.467
35.463
35.463
35.465
35.47
35.476
35.484
35.491
35.498
35.505
35.511
35.515
35.518
35.518
35.517
35.514
35.51
35.504
35.497
35.489
35.478
35.466
35.453
35.438
35.422
35.406
35.39
35.374
35.358
35.343
35.326
35.308
35.289
35.269
35.248
35.226
35.204
35.181
35.157
35.132
35.107
35.08
35.053
35.025
34.996
34.966
34.935
34.905
34.876
34.848
34.821
34.796
34.772
34.75
34.729
34.71
34.693
34.676
34.659
34.642
34.622
34.602
34.581
34.559
34.537
34.515
34.494
34.473
34.452
34.432
34.413
34.393
34.373
34.353
34.333
34.312
34.29
34.268
34.246
34.224
34.203
34.183
34.163
34.145
34.13
34.121
34.119
34.127
34.146
34.179
34.226
34.29
34.37
34.468
34.582
34.713
34.857
35.013
35.177
35.346
35.517
35.686
35.851
36.009
36.158
36.297
36.425
36.541
36.645
36.737
36.817
36.883
36.937
36.977
37.006
37.023
37.031
37.032
37.026
37.016
37.003
36.988
36.971
36.954
36.935
36.914
36.893
36.87
36.845
36.818
36.789
36.758
36.724
36.689
36.652
36.611
36.567
36.519
36.467
36.413
36.357
36.3
36.243
36.188
36.134
36.083
36.035
35.99
35.947
35.905
35.865
35.827
35.791
35.758
35.729
35.704
35.683
35.666
35.654
35.649
35.649
35.655
35.667
35.681
35.697
35.713
35.728
35.741
35.751
35.758
35.763
35.766
35.768
35.769
35.77
35.771
35.772
35.773
35.773
35.771
35.768
35.762
35.754
35.743
35.73
35.715
35.696
35.676
35.653
35.627
35.6
35.571
35.541
35.51
35.481
35.452
35.426
35.401
35.377
35.354
35.332
35.31
35.288
35.267
35.246
35.224
35.203
35.18
35.157
35.131
35.105
35.077
35.05
35.024
34.998
34.974
34.95
34.927
34.904
34.88
34.856
34.831
34.805
34.779
34.753
34.727
34.7
34.674
34.648
34.622
34.595
34.567
34.539
34.51
34.481
34.454
34.428
34.406
34.39
34.381
34.381
34.394
34.421
34.465
34.528
34.61
34.713
34.834
34.974
35.129
35.298
35.479
35.668
35.862
36.059
36.256
36.448
36.634
36.811
36.976
37.13
37.27
37.396
37.507
37.604
37.686
37.755
37.811
37.856
37.89
37.914
37.927
37.931
37.925
37.909
37.885
37.854
37.817
37.776
37.732
37.684
37.634
37.583
37.529
37.473
37.417
37.36
37.303
37.247
37.193
37.141
37.091
37.042
36.993
36.944
36.895
36.843
36.791
36.737
36.684
36.631
36.579
36.529
36.481
36.435
36.393
36.354
36.318
36.286
36.258
36.234
36.214
36.198
36.185
36.175
36.168
36.163
36.16
36.16
36.161
36.163
36.165
36.167
36.168
36.169
36.169
36.167
36.163
36.158
36.15
36.141
36.13
36.117
36.102
36.085
36.066
36.047
36.026
36.004
35.982
35.961
35.939
35.919
35.899
35.88
35.86
35.839
35.816
35.791
35.765
35.738
35.71
35.682
35.654
35.626
35.599
35.573
35.549
35.525
35.502
35.479
35.456
35.431
35.406
35.38
35.352
35.321
35.288
35.252
35.213
35.174
35.134
35.095
35.056
35.018
34.982
34.946
34.912
34.878
34.844
34.81
34.775
34.74
34.706
34.672
34.639
34.607
34.577
34.549
34.523
34.501
34.482
34.468
34.46
34.46
34.471
34.494
34.531
34.583
34.651
34.736
34.84
34.963
35.103
35.261
35.434
35.618
35.812
36.012
36.216
36.419
36.621
36.818
37.008
37.187
37.355
37.51
37.649
37.773
37.881
37.971
38.045
38.104
38.149
38.18
38.199
38.207
38.204
38.19
38.166
38.133
38.091
38.042
37.986
37.925
37.86
37.794
37.728
37.664
37.601
37.541
37.481
37.423
37.366
37.311
37.257
37.206
37.156
37.109
37.062
37.015
36.968
36.921
36.873
36.824
36.774
36.723
36.67
36.618
36.567
36.517
36.47
36.425
36.384
36.345
36.309
36.276
36.245
36.218
36.192
36.169
36.149
36.133
36.119
36.11
36.103
36.098
36.094
36.091
36.088
36.086
36.083
36.08
36.077
36.073
36.069
36.065
36.062
36.06
36.057
36.055
36.053
36.051
36.047
36.041
36.031
36.018
36.0
35.977
35.95
35.92
35.888
35.854
35.82
35.785
35.749
35.712
35.673
35.632
35.589
35.545
35.5
35.456
35.413
35.372
35.332
35.294
35.258
35.223
35.188
35.152
35.116
35.079
35.043
35.007
34.973
34.939
34.906
34.873
34.841
34.81
34.78
34.752
34.725
34.699
34.673
34.649
34.624
34.598
34.572
34.545
34.517
34.488
34.46
34.432
34.405
34.377
34.35
34.324
34.3
34.28
34.266
34.259
34.262
34.278
34.307
34.354
34.42
34.506
34.612
34.739
34.886
35.052
35.234
35.43
35.637
35.85
36.066
36.281
36.492
36.697
36.892
37.076
37.246
37.401
37.538
37.658
37.76
37.845
37.912
37.962
37.998
38.02
38.029
38.026
38.014
37.993
37.963
37.928
37.886
37.84
37.789
37.735
37.678
37.619
37.559
37.498
37.437
37.376
37.316
37.256
37.197
37.137
37.078
37.02
36.961
36.902
36.844
36.785
36.727
36.669
36.612
36.556
36.502
36.449
36.4
36.353
36.311
36.273
36.239
36.211
36.187
36.167
36.15
36.136
36.122
36.11
36.099
36.089
36.08
36.072
36.067
36.065
36.067
36.072
36.08
36.087
36.095
36.102
36.108
36.114
36.118
36.119
36.117
36.111
36.102
36.089
36.072
36.054
36.035
36.014
35.994
35.973
35.953
35.933
35.913
35.893
35.871
35.849
35.824
35.797
35.769
35.74
35.71
35.68
35.65
35.62
35.589
35.559
35.529
35.498
35.467
35.436
35.404
35.372
35.338
35.304
35.27
35.234
35.198
35.161
35.125
35.089
35.054
35.021
34.988
34.957
34.925
34.892
34.858
34.824
34.789
34.754
34.721
34.689
34.659
34.63
34.602
34.575
34.547
34.519
34.492
34.465
34.44
34.417
34.399
34.387
34.383
34.389
34.407
34.438
34.484
34.547
34.628
34.728
34.847
34.984
35.137
35.305
35.485
35.674
35.869
36.068
36.267
36.463
36.653
36.837
37.01
37.172
37.32
37.452
37.568
37.666
37.748
37.813
37.862
37.896
37.917
37.925
37.922
37.908
37.885
37.853
37.814
37.767
37.715
37.658
37.599
37.538
37.477
37.416
37.356
37.296
37.236
37.176
37.114
37.053
36.991
36.928
36.866
36.806
36.746
36.688
36.631
36.575
36.517
36.457
36.397
36.337
36.276
36.216
36.157
36.101
36.047
35.997
35.95
35.907
35.867
35.829
35.794
35.762
35.734
35.711
35.693
35.68
35.671
35.664
35.658
35.654
35.651
35.648
35.645
35.641
35.636
35.631
35.624
35.616
35.607
35.598
35.588
35.577
35.564
35.55
35.534
35.515
35.495
35.474
35.451
35.428
35.405
35.384
35.363
35.344
35.325
35.305
35.284
35.262
35.236
35.206
35.172
35.135
35.095
35.053
35.01
34.967
34.924
34.882
34.841
34.801
34.763
34.724
34.685
34.646
34.608
34.57
34.534
34.5
34.466
34.433
34.4
34.368
34.337
34.307
34.279
34.253
34.229
34.206
34.183
34.159
34.135
34.11
34.082
34.054
34.023
33.992
33.96
33.927
33.895
33.864
33.837
33.814
33.799
33.792
33.796
33.814
33.848
33.901
33.972
34.064
34.175
34.306
34.455
34.62
34.801
34.994
35.194
35.398
35.603
35.805
36.003
36.194
36.375
36.544
36.7
36.841
36.966
37.075
37.167
37.24
37.296
37.335
37.359
37.37
37.369
37.36
37.345
37.322
37.295
37.263
37.227
37.187
37.144
37.096
37.045
36.992
36.937
36.882
36.828
36.775
36.722
36.669
36.615
36.56
36.503
36.445
36.387
36.327
36.268
36.208
36.15
36.093
36.038
35.985
35.934
35.884
35.833
35.784
35.737
35.691
35.648
35.608
35.571
35.536
35.503
35.473
35.445
35.419
35.395
35.374
35.356
35.342
35.332
35.326
35.324
35.325
35.326
35.328
35.328
35.326
35.322
35.315
35.306
35.294
35.281
35.266
35.249
35.231
35.213
35.195
35.179
35.163
35.149
35.135
35.121
35.105
35.088
35.069
35.049
35.027
35.003
34.979
34.955
34.931
34.907
34.883
34.859
34.834
34.808
34.781
34.754
34.727
34.699
34.67
34.64
34.609
34.576
34.541
34.505
34.469
34.431
34.394
34.358
34.324
34.291
34.26
34.231
34.205
34.18
34.157
34.136
34.116
34.096
34.076
34.054
34.03
34.003
33.973
33.939
33.903
33.865
33.826
33.789
33.753
33.72
33.69
33.665
33.646
33.634
33.632
33.642
33.664
33.702
33.755
33.827
33.916
34.025
34.151
34.295
34.456
34.633
34.823
35.023
35.231
35.441
35.651
35.856
36.054
36.24
36.413
36.57
36.711
36.834
36.939
37.027
37.097
37.152
37.193
37.222
37.238
37.244
37.239
37.226
37.205
37.178
37.145
37.106
37.061
37.012
36.958
36.9
36.838
36.774
36.709
36.643
36.577
36.512
36.45
36.391
36.334
36.278
36.224
36.17
36.117
36.064
36.012
35.961
35.911
35.864
35.819
35.777
35.738
35.7
35.664
35.629
35.593
35.559
35.525
35.494
35.466
35.44
35.417
35.398
35.381
35.366
35.353
35.341
35.33
35.319
35.307
35.295
35.281
35.268
35.254
35.242
35.23
35.219
35.211
35.204
35.199
35.196
35.194
35.193
35.19
35.185
35.179
35.17
35.158
35.144
35.127
35.109
35.09
35.07
35.051
35.032
35.012
34.993
34.973
34.954
34.936
34.916
34.897
34.877
34.856
34.834
34.811
34.783
34.752
34.716
34.676
34.633
34.589
34.543
34.495
34.447
34.4
34.354
34.311
34.272
34.237
34.206
34.178
34.154
34.133
34.114
34.096
34.078
34.061
34.043
34.024
34.005
33.986
33.966
33.946
33.925
33.903
33.88
33.856
33.83
33.804
33.777
33.75
33.724
33.699
33.675
33.653
33.635
33.621
33.614
33.618
33.633
33.661
33.704
33.762
33.837
33.93
34.04
34.168
34.313
34.472
34.644
34.827
35.018
35.215
35.412
35.606
35.795
35.975
36.145
36.303
36.448
36.579
36.695
36.796
36.881
36.951
37.006
37.046
37.072
37.085
37.087
37.079
37.062
37.038
37.008
36.973
36.934
36.891
36.846
36.798
36.748
36.697
36.645
36.592
36.539
36.484
36.431
36.377
36.325
36.272
36.218
36.164
36.109
36.053
35.997
35.939
35.881
35.823
35.764
35.706
35.65
35.595
35.541
35.489
35.438
35.391
35.348
35.31
35.278
35.253
35.235
35.223
35.217
35.216
35.22
35.228
35.239
35.252
35.266
35.28
35.294
35.307
35.319
35.328
35.334
35.337
35.337
35.334
35.329
35.321
35.312
35.301
35.287
35.272
35.255
35.237
35.218
35.198
35.176
35.153
35.129
35.107
35.084
35.063
35.043
35.022
35.001
34.979
34.957
34.934
34.911
34.888
34.864
34.84
34.816
34.791
34.766
34.74
34.714
34.688
34.663
34.638
34.613
34.59
34.566
34.544
34.521
34.498
34.474
34.449
34.422
34.393
34.363
34.333
34.303
34.273
34.245
34.217
34.189
34.162
34.136
34.11
34.084
34.058
34.03
34.002
33.973
33.943
33.912
33.881
33.85
33.821
33.794
33.772
33.756
33.746
33.746
33.756
33.779
33.814
33.865
33.931
34.013
34.111
34.226
34.356
34.5
34.656
34.821
34.993
35.168
35.344
35.52
35.692
35.859
36.019
36.168
36.307
36.435
36.551
36.655
36.746
36.826
36.894
36.952
37.001
37.041
37.073
37.095
37.109
37.114
37.109
37.095
37.071
37.04
37.002
36.958
36.908
36.856
36.8
36.743
36.685
36.627
36.569
36.513
36.459
36.406
36.356
36.306
36.257
36.208
36.158
36.106
36.054
36.001
35.948
35.897
35.848
35.802
35.76
35.72
35.682
35.647
35.614
35.583
35.554
35.528
35.504
35.482
35.464
35.449
35.436
35.426
35.417
35.409
35.4
35.392
35.383
35.374
35.365
35.358
35.352
35.348
35.346
35.344
35.342
35.339
35.336
35.333
35.329
35.324
35.318
35.311
35.303
35.294
35.284
35.272
35.258
35.24
35.22
35.199
35.177
35.155
35.132
35.109
35.085
35.062
35.038
35.015
34.99
34.965
34.938
34.91
34.881
34.85
34.818
34.784
34.749
34.713
34.674
34.635
34.595
34.556
34.518
34.483
34.451
34.422
34.394
34.368
34.344
34.322
34.3
34.28
34.259
34.239
34.22
34.201
34.183
34.166
34.148
34.13
34.11
34.089
34.065
34.04
34.013
33.986
33.958
33.932
33.91
33.893
33.883
33.883
33.895
33.919
33.958
34.012
34.083
34.17
34.275
34.396
34.534
34.684
34.847
35.018
35.196
35.375
35.555
35.73
35.9
36.06
36.208
36.342
36.463
36.571
36.666
36.749
36.82
36.881
36.93
36.969
36.997
37.013
37.018
37.013
36.997
36.974
36.943
36.907
36.867
36.824
36.778
36.73
36.68
36.63
36.58
36.528
36.477
36.426
36.375
36.325
36.276
36.227
36.178
36.129
36.079
36.028
35.975
35.921
35.867
35.813
35.761
35.711
35.664
35.619
35.575
35.534
35.495
35.458
35.423
35.39
35.36
35.333
35.31
35.29
35.272
35.259
35.248
35.24
35.234
35.232
35.233
35.234
35.236
35.238
35.24
35.241
35.24
35.239
35.237
35.235
35.232
35.229
35.227
35.225
35.22
35.214
35.205
35.194
35.179
35.163
35.145
35.126
35.108
35.09
35.073
35.056
35.038
35.02
35.001
34.98
34.958
34.935
34.911
34.886
34.859
34.832
34.803
34.772
34.74
34.705
34.669
34.632
34.594
34.557
34.522
34.488
34.455
34.423
34.392
34.363
34.336
34.312
34.291
34.271
34.254
34.236
34.218
34.198
34.177
34.155
34.132
34.108
34.083
34.057
34.03
34.004
33.977
33.949
33.922
33.894
33.866
33.839
33.814
33.792
33.775
33.765
33.764
33.774
33.797
33.835
33.892
33.969
34.068
34.187
34.324
34.477
34.64
34.81
34.986
35.163
35.339
35.513
35.682
35.846
36.002
36.147
36.282
36.404
36.514
36.611
36.694
36.765
36.822
36.867
36.9
36.924
36.939
36.945
36.944
36.936
36.923
36.903
36.878
36.849
36.815
36.778
36.738
36.696
36.654
36.61
36.565
36.52
36.473
36.426
36.377
36.328
36.28
36.232
36.185
36.14
36.095
36.052
36.009
35.966
35.923
35.88
35.836
35.793
35.75
35.708
35.667
35.626
35.588
35.552
35.518
35.486
35.456
35.428
35.401
35.375
35.352
35.33
35.31
35.291
35.275
35.261
35.248
35.238
35.23
35.226
35.224
35.223
35.224
35.225
35.227
35.229
35.231
35.233
35.234
35.233
35.232
35.23
35.226
35.22
35.212
35.2
35.186
35.168
35.147
35.125
35.101
35.076
35.05
35.025
34.998
34.971
34.942
34.913
34.884
34.854
34.823
34.793
34.763
34.735
34.708
34.681
34.653
34.624
34.594
34.562
34.529
34.495
34.461
34.426
34.39
34.354
34.318
34.282
34.248
34.217
34.188
34.164
34.142
34.124
34.107
34.09
34.074
34.056
34.037
34.019
34.0
33.982
33.964
33.945
33.928
33.91
33.892
33.873
33.854
33.836
33.82
33.808
33.801
33.803
33.813
33.835
33.869
33.916
33.978
34.058
34.155
34.268
34.397
34.541
34.697
34.866
35.043
35.227
35.414
35.6
35.784
35.963
36.134
36.296
36.446
36.582
36.704
36.81
36.901
36.978
37.041
37.091
37.128
37.152
37.166
37.17
37.166
37.153
37.134
37.108
37.076
37.039
37.0
36.958
36.917
36.876
36.837
36.797
36.757
36.717
36.677
36.637
36.597
36.555
36.512
36.467
36.421
36.375
36.328
36.281
36.234
36.188
36.142
36.097
36.053
36.009
35.965
35.92
35.876
35.833
35.79
35.749
35.71
35.672
35.635
35.599
35.564
35.532
35.504
35.479
35.459
35.444
35.432
35.424
35.418
35.414
35.41
35.408
35.406
35.405
35.405
35.406
35.409
35.414
35.419
35.425
35.43
35.434
35.435
35.434
35.429
35.422
35.411
35.397
35.38
35.36
35.338
35.314
35.288
35.261
35.233
35.204
35.174
35.144
35.115
35.085
35.054
35.024
34.992
34.959
34.925
34.891
34.856
34.82
34.785
34.751
34.717
34.683
34.649
34.616
34.583
34.55
34.518
34.488
34.458
34.43
34.402
34.376
34.351
34.326
34.303
34.28
34.258
34.236
34.216
34.198
34.181
34.164
34.147
34.129
34.109
34.087
34.061
34.033
34.001
33.966
33.93
33.894
33.859
33.826
33.797
33.773
33.757
33.751
33.757
33.778
33.814
33.867
33.936
34.022
34.125
34.243
34.377
34.526
34.686
34.857
35.035
35.22
35.406
35.592
35.773
35.947
36.111
36.262
36.399
36.522
36.631
36.725
36.806
36.874
36.928
36.969
36.999
37.018
37.027
37.027
37.019
37.003
36.981
36.953
36.922
36.887
36.849
36.809
36.765
36.72
36.672
36.623
36.571
36.519
36.466
36.412
36.358
36.305
36.251
36.197
36.143
36.087
36.03
35.973
35.916
35.86
35.807
35.756
35.707
35.661
35.616
35.573
35.531
35.49
35.448
35.407
35.368
35.329
35.293
35.26
35.23
35.204
35.18
35.16
35.143
35.128
35.117
35.107
35.099
35.092
35.085
35.079
35.074
35.067
35.06
35.05
35.039
35.026
35.012
34.997
34.982
34.968
34.954
34.94
34.928
34.915
34.901
34.885
34.868
34.851
34.833
34.814
34.796
34.777
34.758
34.738
34.716
34.694
34.671
34.647
34.623
34.597
34.57
34.541
34.511
34.48
34.446
34.411
34.375
34.338
34.302
34.267
34.235
34.205
34.177
34.15
34.123
34.095
34.066
34.035
34.003
33.97
33.937
33.906
33.876
33.848
33.822
33.797
33.773
33.751
33.73
33.71
33.69
33.67
33.649
33.626
33.602
33.576
33.548
33.518
33.487
33.454
33.422
33.391
33.36
33.331
33.303
33.279
33.259
33.247
33.245
33.253
33.275
33.31
33.361
33.428
33.513
33.614
33.73
33.861
34.004
34.157
34.319
34.487
34.66
34.834
35.008
35.177
35.342
35.499
35.647
35.785
35.914
36.032
36.137
36.231
36.313
36.383
36.443
36.491
36.528
36.555
36.572
36.582
36.584
36.58
36.571
36.556
36.536
36.511
36.483
36.451
36.416
36.379
36.341
36.301
36.261
36.221
36.181
36.14
36.097
36.052
36.005
35.956
35.906
35.856
35.806
35.757
35.709
35.662
35.618
35.576
35.537
35.499
35.464
35.431
35.4
35.372
35.347
35.326
35.307
35.29
35.275
35.262
35.25
35.238
35.229
35.221
35.217
35.214
35.214
35.217
35.223
35.231
35.241
35.251
35.26
35.267
35.272
35.276
35.278
35.28
35.282
35.283
35.285
35.285
35.284
35.282
35.277
35.269
35.256
35.241
35.224
35.205
35.186
35.165
35.144
35.123
35.101
35.079
35.057
35.036
35.014
34.992
34.969
34.944
34.916
34.886
34.853
34.819
34.783
34.748
34.714
34.681
34.649
34.619
34.591
34.564
34.537
34.511
34.485
34.46
34.436
34.411
34.387
34.361
34.333
34.302
34.269
34.234
34.198
34.162
34.127
34.094
34.064
34.036
34.011
33.99
33.973
33.96
33.954
33.957
33.969
33.993
34.03
34.082
34.15
34.234
34.333
34.448
34.577
34.717
34.868
35.026
35.192
35.36
35.53
35.698
35.861
36.019
36.169
36.31
36.44
36.558
36.662
36.753
36.832
36.898
36.953
36.995
37.027
37.047
37.056
37.055
37.044
37.027
37.003
36.974
36.942
36.908
36.873
36.837
36.8
36.764
36.727
36.689
36.651
36.611
36.57
36.529
36.489
36.449
36.411
36.374
36.337
36.3
36.262
36.223
36.182
36.139
36.095
36.048
36.0
35.952
35.905
35.859
35.816
35.776
35.74
35.707
35.678
35.652
35.631
35.614
35.601
35.59
35.58
35.572
35.565
35.557
35.55
35.542
35.533
35.524
35.515
35.506
35.498
35.491
35.485
35.479
35.473
35.466
35.459
35.451
35.441
35.428
35.413
35.396
35.378
35.359
35.339
35.319
35.298
35.278
35.258
35.238
35.219
35.199
35.178
35.157
35.135
35.113
35.089
35.065
35.04
35.015
34.99
34.966
34.942
34.918
34.893
34.867
34.84
34.813
34.785
34.757
34.731
34.705
34.68
34.655
34.63
34.604
34.577
34.547
34.515
34.48
34.444
34.407
34.369
34.332
34.295
34.258
34.222
34.187
34.154
34.124
