Trial 3:3back
35.101
35.101
35.101
35.099
35.097
35.093
35.089
35.083
35.077
35.07
35.064
35.058
35.052
35.046
35.04
35.034
35.027
35.021
35.014
35.007
35.0
34.993
34.987
34.98
34.974
34.968
34.962
34.955
34.949
34.942
34.935
34.928
34.922
34.916
34.913
34.91
34.91
34.912
34.917
34.926
34.942
34.964
34.995
35.035
35.086
35.148
35.221
35.304
35.398
35.5
35.609
35.723
35.84
35.955
36.067
36.174
36.272
36.36
36.437
36.501
36.551
36.588
36.612
36.622
36.62
36.606
36.581
36.546
36.502
36.452
36.397
36.34
36.281
36.224
36.17
36.118
36.07
36.026
35.986
35.95
35.918
35.89
35.864
35.842
35.821
35.803
35.786
35.771
35.757
35.743
35.729
35.715
35.701
35.687
35.673
35.659
35.645
35.631
35.616
35.601
35.585
35.567
35.549
35.531
35.514
35.499
35.487
35.477
35.47
35.467
35.466
35.469
35.475
35.484
35.495
35.509
35.525
35.542
35.56
35.58
35.599
35.618
35.637
35.655
35.671
35.687
35.7
35.711
35.719
35.724
35.726
35.726
35.723
35.719
35.712
35.703
35.693
35.68
35.666
35.649
35.631
35.61
35.587
35.563
35.538
35.512
35.486
35.46
35.434
35.409
35.385
35.362
35.341
35.32
35.302
35.284
35.267
35.25
35.234
35.218
35.203
35.189
35.175
35.163
35.153
35.144
35.136
35.129
35.124
35.12
35.118
35.116
35.115
35.115
35.115
35.115
35.116
35.118
35.12
35.123
35.126
35.13
35.134
35.138
35.141
35.143
35.143
35.143
35.141
35.138
35.136
35.132
35.129
35.125
35.121
35.118
35.115
35.114
35.114
35.115
35.117
35.119
35.121
35.123
35.125
35.127
35.128
35.128
35.127
35.124
35.119
35.113
35.106
35.097
35.089
35.081
35.073
35.068
35.063
35.06
35.057
35.053
35.049
35.044
35.037
35.029
35.019
35.009
34.996
34.983
34.968
34.953
34.938
34.924
34.911
34.899
34.887
34.877
34.869
34.861
34.854
34.849
34.844
34.84
34.837
34.835
34.834
34.836
34.838
34.843
34.851
34.86
34.874
34.892
34.918
34.952
34.996
35.05
35.116
35.193
35.281
35.378
35.482
35.591
35.703
35.816
35.927
36.034
36.136
36.23
36.315
36.389
36.451
36.499
36.533
36.554
36.56
36.555
36.538
36.512
36.478
36.439
36.394
36.345
36.294
36.243
36.191
36.14
36.09
36.041
35.994
35.949
35.907
35.868
35.832
35.799
35.77
35.743
35.719
35.698
35.679
35.664
35.651
35.641
35.634
35.628
35.623
35.618
35.613
35.607
35.6
35.59
35.578
35.565
35.55
35.533
35.516
35.498
35.481
35.464
35.449
35.437
35.427
35.419
35.416
35.415
35.417
35.423
35.43
35.441
35.454
35.469
35.485
35.502
35.519
35.535
35.55
35.563
35.574
35.582
35.589
35.594
35.598
35.601
35.602
35.603
35.602
35.599
35.593
35.586
35.576
35.564
35.55
35.535
35.518
35.5
35.48
35.459
35.438
35.416
35.393
35.371
35.349
35.328
35.308
35.289
35.272
35.257
35.242
35.228
35.214
35.199
35.186
35.173
35.161
35.151
35.142
35.134
35.126
35.117
35.109
35.099
35.09
35.08
35.07
35.06
35.051
35.044
35.038
35.034
35.033
35.033
35.036
35.039
35.042
35.047
35.05
35.054
35.056
35.057
35.058
35.058
35.057
35.056
35.055
35.053
35.052
35.05
35.048
35.047
35.045
35.043
35.041
35.039
35.037
35.035
35.034
35.034
35.035
35.036
35.037
35.038
35.039
35.039
35.038
35.036
35.034
35.03
35.024
35.018
35.011
35.002
34.994
34.986
34.977
34.968
34.959
34.95
34.942
34.934
34.927
34.923
34.919
34.916
34.914
34.912
34.91
34.908
34.905
34.902
34.898
34.893
34.887
34.881
34.874
34.867
34.86
34.853
34.845
34.838
34.832
34.827
34.823
34.82
34.819
34.819
34.82
34.824
34.829
34.836
34.847
34.861
34.88
34.905
34.939
34.981
35.034
35.098
35.174
35.259
35.355
35.459
35.57
35.685
35.801
35.915
36.024
36.126
36.218
36.3
36.37
36.428
36.472
36.502
36.518
36.522
36.512
36.491
36.46
36.42
36.374
36.322
36.267
36.209
36.15
36.093
36.036
35.982
35.931
35.883
35.838
35.796
35.758
35.724
35.693
35.665
35.64
35.618
35.599
35.583
35.569
35.556
35.544
35.533
35.523
35.511
35.499
35.486
35.473
35.458
35.443
35.428
35.412
35.397
35.382
35.367
35.354
35.343
35.335
35.328
35.325
35.324
35.327
35.332
35.339
35.349
35.361
35.374
35.389
35.404
35.42
35.437
35.454
35.47
35.486
35.501
35.515
35.526
35.534
35.54
35.543
35.543
35.542
35.538
35.533
35.526
35.517
35.508
35.497
35.486
35.473
35.458
35.441
35.423
35.404
35.383
35.361
35.338
35.315
35.292
35.271
35.25
35.23
35.212
35.193
35.175
35.157
35.14
35.124
35.108
35.094
35.082
35.07
35.059
35.049
35.04
35.031
35.021
35.012
35.003
34.993
34.983
34.972
34.961
34.949
34.938
34.926
34.916
34.907
34.9
34.896
34.895
34.896
34.899
34.904
34.909
34.914
34.919
34.924
34.928
34.932
34.934
34.935
34.935
34.934
34.933
34.931
34.929
34.928
34.926
34.925
34.924
34.923
34.922
34.921
34.92
34.919
34.917
34.915
34.912
34.908
34.905
34.902
34.899
34.897
34.895
34.894
34.894
34.894
34.894
34.893
34.892
34.891
34.889
34.886
34.883
34.88
34.876
34.872
34.867
34.863
34.859
34.854
34.85
34.844
34.838
34.83
34.821
34.811
34.801
34.79
34.78
34.771
34.762
34.755
34.749
34.744
34.74
34.737
34.734
34.731
34.728
34.726
34.725
34.724
34.725
34.729
34.736
34.747
34.765
34.79
34.823
34.866
34.92
34.985
35.061
35.147
35.242
35.345
35.454
35.566
35.679
35.79
35.897
35.997
36.087
36.166
36.233
36.287
36.327
36.353
36.367
36.368
36.359
36.338
36.309
36.271
36.227
36.177
36.124
36.068
36.01
35.953
35.897
35.844
35.792
35.744
35.698
35.656
35.617
35.582
35.55
35.522
35.497
35.475
35.456
35.44
35.425
35.411
35.398
35.386
35.375
35.365
35.355
35.345
35.336
35.326
35.315
35.303
35.289
35.273
35.257
35.241
35.225
35.21
35.196
35.185
35.177
35.173
35.173
35.177
35.184
35.195
35.208
35.223
35.24
35.259
35.279
35.299
35.318
35.338
35.357
35.375
35.394
35.411
35.426
35.438
35.448
35.455
35.457
35.457
35.452
35.445
35.435
35.422
35.408
35.392
35.374
35.356
35.337
35.316
35.295
35.272
35.249
35.226
35.204
35.181
35.159
35.136
35.114
35.093
35.072
35.053
35.037
35.022
35.008
34.996
34.984
34.973
34.963
34.952
34.942
34.932
34.921
34.911
34.901
34.891
34.881
34.872
34.863
34.855
34.847
34.841
34.836
34.832
34.83
34.829
34.83
34.832
34.835
34.839
34.842
34.846
34.849
34.853
34.857
34.861
34.866
34.87
34.874
34.877
34.88
34.882
34.883
34.884
34.885
34.885
34.885
34.884
34.884
34.883
34.883
34.881
34.88
34.878
34.876
34.875
34.874
34.874
34.874
34.873
34.873
34.872
34.87
34.869
34.867
34.865
34.864
34.862
34.861
34.859
34.857
34.855
34.854
34.852
34.85
34.848
34.846
34.844
34.842
34.841
34.838
34.835
34.831
34.826
34.82
34.813
34.807
34.8
34.793
34.787
34.781
34.775
34.77
34.766
34.762
34.759
34.757
34.755
34.754
34.755
34.758
34.763
34.773
34.787
34.808
34.836
34.874
34.921
34.98
35.051
35.132
35.224
35.323
35.428
35.537
35.648
35.756
35.86
35.958
36.047
36.125
36.191
36.245
36.285
36.312
36.325
36.324
36.312
36.29
36.257
36.217
36.171
36.119
36.063
36.005
35.946
35.887
35.828
35.773
35.719
35.669
35.621
35.576
35.534
35.496
35.46
35.428
35.4
35.375
35.354
35.336
35.321
35.309
35.299
35.29
35.28
35.271
35.26
35.249
35.236
35.223
35.209
35.193
35.177
35.16
35.144
35.127
35.112
35.098
35.086
35.078
35.072
35.071
35.073
35.08
35.089
35.102
35.116
35.134
35.153
35.175
35.198
35.222
35.246
35.27
35.294
35.316
35.337
35.356
35.373
35.387
35.398
35.405
35.409
35.409
35.405
35.397
35.387
35.373
35.358
35.34
35.321
35.301
35.28
35.258
35.235
35.212
35.187
35.162
35.137
35.112
35.087
35.063
35.04
35.018
34.997
34.977
34.958
34.94
34.922
34.904
34.887
34.871
34.857
34.845
34.835
34.826
34.819
34.814
34.81
34.807
34.805
34.803
34.801
34.8
34.798
34.798
34.797
34.797
34.798
34.799
34.802
34.805
34.809
34.812
34.816
34.819
34.822
34.824
34.826
34.827
34.828
34.83
34.831
34.833
34.835
34.837
34.839
34.841
34.843
34.844
34.845
34.847
34.848
34.849
34.85
34.85
34.851
34.85
34.849
34.847
34.845
34.842
34.839
34.835
34.83
34.825
34.819
34.813
34.807
34.802
34.797
34.794
34.791
34.789
34.788
34.786
34.784
34.781
34.778
34.775
34.771
34.767
34.763
34.758
34.753
34.747
34.741
34.734
34.726
34.717
34.709
34.701
34.693
34.687
34.682
34.679
34.677
34.677
34.68
34.686
34.696
34.711
34.732
34.76
34.797
34.843
34.901
34.97
35.05
35.142
35.242
35.35
35.464
35.582
35.7
35.817
35.93
36.036
36.132
36.216
36.289
36.348
36.393
36.425
36.442
36.446
36.438
36.419
36.39
36.353
36.31
36.261
36.209
36.154
36.098
36.041
35.985
35.931
35.878
35.829
35.783
35.74
35.702
35.668
35.637
35.609
35.585
35.563
35.543
35.526
35.51
35.496
35.483
35.471
35.46
35.45
35.439
35.428
35.415
35.401
35.385
35.368
35.349
35.329
35.31
35.292
35.274
35.259
35.246
35.236
35.229
35.225
35.223
35.225
35.23
35.238
35.249
35.263
35.278
35.296
35.315
35.335
35.355
35.376
35.397
35.417
35.436
35.454
35.469
35.483
35.494
35.503
35.509
35.513
35.515
35.513
35.508
35.5
35.488
35.473
35.455
35.435
35.413
35.389
35.366
35.342
35.319
35.297
35.275
35.253
35.232
35.211
35.19
35.169
35.149
35.13
35.111
35.094
35.077
35.062
35.048
35.035
35.024
35.013
35.003
34.995
34.987
34.981
34.976
34.971
34.967
34.963
34.958
34.954
34.95
34.947
34.943
34.938
34.932
34.926
34.92
34.915
34.91
34.906
34.904
34.903
34.903
34.905
34.907
34.91
34.913
34.916
34.918
34.919
34.92
34.921
34.921
34.921
34.921
34.922
34.922
34.924
34.925
34.925
34.925
34.925
34.923
34.921
34.92
34.918
34.916
34.915
34.913
34.911
34.91
34.91
34.91
34.911
34.912
34.912
34.911
34.909
34.906
34.902
34.898
34.893
34.888
34.882
34.875
34.867
34.859
34.85
34.841
34.832
34.823
34.813
34.804
34.794
34.786
34.779
34.773
34.767
34.761
34.756
34.752
34.749
34.748
34.75
34.756
34.766
34.783
34.809
34.844
34.89
34.947
35.016
35.096
35.187
35.288
35.397
35.51
35.627
35.744
35.858
35.967
36.069
36.162
36.244
36.313
36.368
36.409
36.437
36.451
36.453
36.444
36.425
36.398
36.363
36.321
36.274
36.223
36.168
36.112
36.054
35.995
35.938
35.881
35.828
35.778
35.731
35.688
35.648
35.613
35.581
35.554
35.531
35.511
35.495
35.481
35.469
35.458
35.45
35.441
35.433
35.424
35.413
35.4
35.386
35.37
35.353
35.336
35.319
35.302
35.286
35.271
35.259
35.248
35.24
35.236
35.235
35.237
35.243
35.252
35.264
35.28
35.298
35.318
35.338
35.36
35.38
35.4
35.418
35.435
35.449
35.461
35.471
35.48
35.487
35.492
35.495
35.497
35.496
35.493
35.487
35.479
35.468
35.455
35.44
35.424
35.406
35.389
35.371
35.353
35.336
35.318
35.299
35.28
35.261
35.241
35.22
35.199
35.178
35.157
35.136
35.115
35.095
35.076
35.058
35.041
35.025
35.01
34.996
34.983
34.971
34.961
34.952
34.945
34.939
34.936
34.934
34.933
34.933
34.934
34.934
34.935
34.936
34.936
34.936
34.935
34.935
34.933
34.932
34.931
34.931
34.93
34.93
34.93
34.93
34.93
34.931
34.932
34.935
34.937
34.94
34.943
34.947
34.952
34.956
34.961
34.967
34.971
34.976
34.978
34.98
34.98
34.978
34.976
34.973
34.969
34.964
34.959
34.954
34.949
34.944
34.939
34.935
34.932
34.928
34.926
34.923
34.92
34.918
34.915
34.912
34.909
34.905
34.901
34.897
34.892
34.885
34.877
34.868
34.858
34.849
34.84
34.832
34.827
34.824
34.823
34.825
34.831
34.842
34.858
34.881
34.912
34.953
35.005
35.068
35.143
35.228
35.321
35.422
35.527
35.635
35.742
35.849
35.951
36.048
36.136
36.216
36.285
36.343
36.389
36.422
36.444
36.453
36.451
36.438
36.416
36.385
36.347
36.303
36.255
36.204
36.15
36.095
36.04
35.985
35.932
35.881
35.833
35.787
35.746
35.708
35.674
35.644
35.617
35.593
35.573
35.555
35.54
35.527
35.515
35.504
35.494
35.483
35.472
35.459
35.445
35.429
35.412
35.394
35.375
35.356
35.338
35.322
35.308
35.296
35.287
35.282
35.281
35.285
35.293
35.305
35.321
35.339
35.359
35.38
35.403
35.426
35.451
35.476
35.501
35.525
35.548
35.569
35.589
35.606
35.62
35.632
35.642
35.65
35.656
35.659
35.66
35.658
35.652
35.642
35.629
35.613
35.594
35.573
35.549
35.525
35.499
35.473
35.446
35.419
35.392
35.363
35.334
35.305
35.277
35.249
35.223
35.198
35.175
35.153
35.135
35.118
35.104
35.091
35.079
35.069
35.06
35.052
35.045
35.04
35.036
35.033
35.03
35.028
35.026
35.024
35.022
35.021
35.02
35.019
35.018
35.017
35.018
35.019
35.02
35.022
35.025
35.028
35.031
35.034
35.037
35.04
35.043
35.045
35.048
35.049
35.051
35.052
35.054
35.056
35.058
35.06
35.062
35.063
35.063
35.062
35.06
35.057
35.052
35.045
35.038
35.03
35.022
35.015
35.007
35.0
34.993
34.987
34.982
34.976
34.971
34.967
34.962
34.957
34.952
34.946
34.941
34.934
34.926
34.918
34.908
34.898
34.887
34.877
34.867
34.857
34.848
34.841
34.835
34.831
34.83
34.833
34.842
34.857
34.88
34.912
34.953
35.003
35.065
35.137
35.22
35.313
35.414
35.522
35.634
35.748
35.862
35.973
36.079
36.178
36.269
36.348
36.416
36.471
36.513
36.542
36.559
36.563
36.556
36.539
36.513
36.478
36.438
36.393
36.344
36.293
36.24
36.187
36.135
36.085
36.037
35.992
35.95
35.91
35.874
35.841
35.811
35.784
35.76
35.737
35.717
35.698
35.681
35.665
35.65
35.636
35.621
35.607
35.591
35.575
35.557
35.538
35.517
35.495
35.473
35.452
35.432
35.413
35.396
35.382
35.37
35.361
35.355
35.353
35.354
35.358
35.365
35.374
35.386
35.399
35.414
35.431
35.449
35.468
35.488
35.507
35.525
35.542
35.558
35.571
35.582
35.591
35.597
35.601
35.601
35.599
35.595
35.588
35.579
35.568
35.554
35.538
35.521
35.501
35.481
35.46
35.438
35.416
35.392
35.368
35.344
35.319
35.295
35.271
35.248
35.226
35.206
35.187
35.169
35.152
35.136
35.121
35.107
35.094
35.083
35.074
35.067
35.061
35.057
35.055
35.053
35.052
35.052
35.052
35.052
35.051
35.05
35.047
35.044
35.039
35.034
35.029
35.025
35.022
35.02
35.019
35.02
35.022
35.024
35.027
35.029
35.032
35.034
35.035
35.036
35.037
35.038
35.041
35.043
35.046
35.049
35.052
35.055
35.058
35.059
35.06
35.06
35.058
35.055
35.052
35.049
35.045
35.042
35.038
35.035
35.032
35.028
35.023
35.018
35.013
35.006
35.0
34.993
34.987
34.98
34.975
34.969
34.964
34.96
34.956
34.951
34.947
34.943
34.938
34.934
34.929
34.925
34.921
34.918
34.915
34.914
34.912
34.912
34.913
34.915
34.918
34.924
34.933
34.945
34.963
34.988
35.021
35.063
35.117
35.181
35.256
35.341
35.435
35.536
35.642
35.751
35.861
35.969
36.074
36.173
36.264
36.344
36.413
36.469
36.512
36.541
36.557
36.56
36.551
36.532
36.503
36.466
36.422
36.373
36.321
36.266
36.21
36.155
36.101
36.05
36.002
35.958
35.918
35.883
35.852
35.826
35.803
35.785
35.769
35.756
35.744
35.734
35.724
35.714
35.704
35.693
35.683
35.672
35.66
35.647
35.633
35.616
35.598
35.578
35.557
35.534
35.512
35.49
35.468
35.449
35.432
35.419
35.409
35.403
35.401
35.402
35.407
35.414
35.425
35.438
35.453
35.47
35.488
35.507
35.527
35.546
35.565
35.583
35.599
35.612
35.623
35.631
35.635
35.637
35.635
35.631
35.624
35.615
35.603
35.591
35.576
35.561
35.544
35.526
35.507
35.487
35.467
35.447
35.427
35.408
35.39
35.372
35.354
35.336
35.318
35.3
35.282
35.265
35.249
35.233
35.219
35.205
35.192
35.181
35.17
35.16
35.152
35.144
35.136
35.13
35.123
35.117
35.111
35.105
35.1
35.095
35.091
35.087
35.084
35.08
35.077
35.072
35.067
35.062
35.056
35.05
35.045
35.04
35.036
35.033
35.032
35.032
35.033
35.034
35.036
35.037
35.037
35.036
35.034
35.032
35.03
35.027
35.023
35.02
35.017
35.013
35.011
35.008
35.005
35.003
35.002
35.0
34.998
34.996
34.994
34.992
34.99
34.989
34.988
34.988
34.988
34.988
34.987
34.986
34.983
34.979
34.974
34.968
34.96
34.953
34.945
34.936
34.928
34.919
34.91
34.9
34.891
34.882
34.873
34.866
34.859
34.853
34.848
34.844
34.841
34.839
34.838
34.839
34.84
34.843
34.848
34.857
34.87
34.89
34.918
34.956
35.004
35.063
35.133
35.214
35.305
35.403
35.507
35.614
35.722
35.829
35.933
36.032
36.123
36.205
36.276
36.335
36.38
36.413
36.432
36.438
36.433
36.417
36.391
36.358
36.319
36.274
36.227
36.177
36.127
36.076
36.026
35.977
35.93
35.885
35.844
35.807
35.774
35.744
35.719
35.696
35.676
35.659
35.644
35.631
35.619
35.608
35.597
35.587
35.577
35.566
35.555
35.544
35.531
35.517
35.502
35.484
35.466
35.446
35.426
35.407
35.388
35.371
35.356
35.345
35.337
35.332
35.332
35.334
35.34
35.347
35.357
35.368
35.381
35.395
35.409
35.424
35.438
35.453
35.467
35.48
35.491
35.501
35.509
35.516
35.521
35.524
35.527
35.528
35.528
35.525
35.521
35.515
35.506
35.495
35.481
35.465
35.446
35.425
35.402
35.378
35.353
35.327
35.302
35.277
35.252
35.229
35.207
35.187
35.17
35.153
35.139
35.125
35.112
35.101
35.091
35.08
35.07
35.06
35.049
35.038
35.027
35.016
35.006
34.997
34.989
34.983
34.978
34.975
34.973
34.972
34.972
34.973
34.975
34.977
34.98
34.982
34.984
34.986
34.987
34.988
34.988
34.988
34.988
34.988
34.987
34.986
34.984
34.983
34.981
34.98
34.978
34.976
34.974
34.972
34.97
34.968
34.967
34.966
34.966
34.965
34.965
34.964
34.964
34.964
34.965
34.965
34.965
34.965
34.964
34.963
34.961
34.959
34.956
34.952
34.947
34.941
34.934
34.928
34.921
34.915
34.909
34.903
34.898
34.893
34.888
34.882
34.875
34.867
34.858
34.848
34.836
34.824
34.812
34.8
34.788
34.777
34.768
34.76
34.755
34.752
34.75
34.751
34.753
34.758
34.765
34.775
34.789
34.807
34.832
34.864
34.903
34.952
35.011
35.08
35.159
35.248
35.346
35.45
35.559
35.67
35.782
35.891
35.996
36.093
36.181
36.258
36.322
36.372
36.409
36.431
36.441
36.437
36.423
36.398
36.365
36.324
36.278
36.228
36.175
36.121
36.067
36.014
35.964
35.916
35.872
35.831
35.795
35.761
35.732
35.706
35.683
35.663
35.644
35.628
35.613
35.6
35.586
35.574
35.562
35.551
35.54
35.529
35.517
35.505
35.492
35.476
35.46
35.441
35.422
35.402
35.382
35.363
35.345
35.331
35.319
35.311
35.307
35.306
35.309
35.315
35.323
35.335
35.348
35.364
35.382
35.401
35.42
35.438
35.456
35.472
35.487
35.499
35.51
35.517
35.523
35.525
35.525
35.523
35.518
35.51
35.5
35.487
35.473
35.457
35.439
35.421
35.402
35.382
35.362
35.341
35.321
35.3
35.28
35.261
35.242
35.224
35.207
35.189
35.173
35.156
35.14
35.124
35.108
35.093
35.08
35.067
35.056
35.046
35.038
35.03
35.022
35.014
35.006
34.999
34.992
34.985
34.978
34.972
34.966
34.96
34.955
34.95
34.947
34.944
34.941
34.939
34.938
34.937
34.935
34.934
34.933
34.932
34.932
34.931
34.931
34.93
34.93
34.929
34.929
34.927
34.926
34.923
34.92
34.916
34.913
34.91
34.907
34.906
34.906
34.906
34.907
34.907
34.908
34.908
34.909
34.909
34.908
34.906
34.903
34.9
34.895
34.891
34.886
34.881
34.876
34.871
34.866
34.861
34.855
34.85
34.845
34.841
34.838
34.836
34.833
34.831
34.828
34.825
34.821
34.816
34.811
34.805
34.798
34.79
34.782
34.773
34.765
34.756
34.749
34.743
34.739
34.737
34.737
34.74
34.744
34.751
34.761
34.774
34.792
