Trial 3:3back
34.863
34.772
34.679
34.584
34.488
34.391
34.293
34.195
34.097
33.999
33.901
33.805
33.711
33.618
33.53
33.446
33.366
33.291
33.219
33.149
33.081
33.015
32.949
32.883
32.817
32.75
32.683
32.614
32.546
32.478
32.413
32.35
32.291
32.234
32.18
32.128
32.077
32.028
31.979
31.93
31.882
31.835
31.789
31.746
31.705
31.666
31.63
31.596
31.563
31.529
31.495
31.461
31.425
31.389
31.353
31.318
31.286
31.256
31.23
31.209
31.192
31.179
31.171
31.166
31.164
31.164
31.167
31.17
31.173
31.176
31.177
31.176
31.173
31.162
31.144
31.121
31.095
31.068
31.042
31.019
30.999
30.984
30.974
30.97
30.971
30.976
30.985
30.997
31.009
31.021
31.032
31.039
31.042
31.039
31.031
31.016
30.994
30.967
30.935
30.901
30.866
30.832
30.802
30.778
30.76
30.753
30.759
30.78
30.821
30.886
30.981
31.111
31.284
31.507
31.787
32.127
32.533
33.004
33.538
34.13
34.77
35.449
36.155
36.875
37.594
38.298
38.975
39.613
40.202
40.734
41.201
41.602
41.934
42.197
42.395
42.531
42.61
42.638
42.62
42.563
42.473
42.357
42.221
42.071
41.912
41.747
41.58
41.412
41.244
41.077
40.912
40.749
40.587
40.428
40.271
40.116
39.962
39.809
39.656
39.502
39.348
39.194
39.041
38.889
38.738
38.588
38.441
38.295
38.151
38.01
37.873
37.739
37.608
37.479
37.353
37.228
37.104
36.982
36.864
36.748
36.637
36.53
36.429
36.335
36.248
36.168
36.096
36.034
35.98
35.935
35.899
35.872
35.854
35.844
35.842
35.849
35.865
35.888
35.917
35.95
35.986
36.019
36.05
36.076
36.096
36.11
36.117
36.117
36.109
36.095
36.073
36.044
36.007
35.964
35.913
35.857
35.795
35.726
35.651
35.569
35.482
35.389
35.292
35.191
35.089
34.985
34.884
34.784
34.688
34.597
34.511
34.428
34.348
34.269
34.192
34.114
34.036
33.956
33.874
33.79
33.705
33.618
33.53
33.442
33.355
33.27
33.187
33.107
33.03
32.957
32.889
32.824
32.761
32.701
32.641
32.583
32.526
32.472
32.419
32.366
32.312
32.259
32.205
32.152
32.1
32.049
32.0
31.953
31.909
31.866
31.826
31.787
31.749
31.711
31.674
31.637
31.601
31.566
31.533
31.501
31.47
31.441
31.413
31.386
31.361
31.339
31.319
31.301
31.286
31.273
31.261
31.252
31.244
31.236
31.229
31.222
31.214
31.204
31.193
31.18
31.166
31.15
31.133
31.114
31.096
31.077
31.059
31.043
31.03
31.019
31.01
31.002
30.997
30.993
30.991
30.993
30.999
31.008
31.018
31.026
31.032
31.035
31.033
31.028
31.02
31.01
31.001
30.996
31.0
31.019
31.06
31.13
31.239
31.394
31.605
31.878
32.217
32.626
33.101
33.64
34.234
34.875
35.55
36.247
36.952
37.653
38.337
38.993
39.609
40.178
40.692
41.145
41.534
41.858
42.116
42.313
42.45
42.533
42.566
42.557
42.509
42.428
42.32
42.19
42.042
41.88
41.708
41.53
41.347
41.161
40.973
40.784
40.596
40.409
40.224
40.043
39.867
39.695
39.529
39.367
39.211
39.058
38.908
38.76
38.612
38.464
38.314
38.162
38.008
37.852
37.693
37.533
37.372
37.212
37.054
36.898
36.746
36.599
36.459
36.327
36.204
36.091
35.99
35.901
35.825
35.763
35.716
35.682
35.663
35.658
35.666
35.685
35.714
35.75
35.792
35.838
35.885
35.931
35.977
36.02
36.06
36.096
36.128
36.157
36.181
36.202
36.219
36.233
36.242
36.245
36.243
36.233
36.216
36.189
36.154
36.109
36.055
35.992
35.922
35.845
35.764
35.679
35.592
35.503
35.411
35.317
35.222
35.126
35.029
34.932
34.834
34.737
34.642
34.547
34.453
34.359
34.265
34.171
34.076
33.981
33.887
33.794
33.704
33.617
33.534
33.454
33.377
33.303
33.232
33.162
33.093
33.024
32.955
32.886
32.818
32.75
32.684
32.62
32.558
32.5
32.443
32.389
32.338
32.29
32.244
32.202
32.162
32.125
32.09
32.058
32.029
32.001
31.977
31.955
31.936
31.919
31.903
31.889
31.876
31.866
31.857
31.849
31.841
31.834
31.827
31.821
31.816
31.813
31.811
31.811
31.811
31.811
31.81
31.808
31.804
31.798
31.79
31.78
31.768
31.756
31.744
31.733
31.722
31.713
31.707
31.705
31.707
31.717
31.738
31.774
31.83
31.911
32.023
32.174
32.37
32.616
32.918
33.277
33.694
34.167
34.69
35.256
35.855
36.479
37.115
37.754
38.383
38.992
39.571
40.113
40.61
41.056
41.448
41.783
42.062
42.285
42.454
42.572
42.643
42.671
42.662
42.622
42.554
42.465
42.357
42.234
42.099
41.954
41.801
41.644
41.483
41.32
41.155
40.988
40.821
40.653
40.486
40.319
40.152
39.986
39.821
39.66
39.501
39.345
39.192
39.043
38.897
38.753
38.612
38.472
38.335
38.198
38.064
37.931
37.799
37.667
37.537
37.408
37.28
37.153
37.028
36.906
36.788
36.677
36.574
36.481
36.4
36.334
36.282
36.247
36.228
36.225
36.236
36.258
36.291
36.331
36.377
36.425
36.474
36.522
36.567
36.607
36.642
36.67
36.692
36.706
36.713
36.712
36.706
36.692
36.673
36.649
36.62
36.586
36.548
36.505
36.458
36.407
36.35
36.289
36.221
36.148
36.068
35.981
35.888
35.79
35.687
35.581
35.472
35.362
35.251
35.141
35.032
34.924
34.819
34.715
34.614
34.515
34.418
34.323
34.229
34.137
34.045
33.954
33.864
33.774
33.685
33.596
33.509
33.424
33.339
33.256
33.176
33.098
33.024
32.953
32.886
32.825
32.768
32.716
32.668
32.625
32.586
32.55
32.517
32.486
32.458
32.431
32.405
32.38
32.355
32.331
32.309
32.289
32.271
32.256
32.244
32.235
32.231
32.23
32.232
32.237
32.245
32.253
32.261
32.268
32.273
32.277
32.279
32.279
32.277
32.271
32.261
32.248
32.23
32.208
32.182
32.152
32.118
32.082
32.045
32.009
31.976
31.948
31.929
31.92
31.924
31.947
31.992
32.066
32.177
32.33
32.534
32.793
33.112
33.492
33.933
34.432
34.983
35.578
36.207
36.859
37.522
38.185
38.836
39.465
40.062
40.62
41.131
41.591
41.997
42.345
42.637
42.872
43.054
43.188
43.277
43.328
43.347
43.338
43.306
43.255
43.19
43.114
43.03
42.94
42.845
42.746
42.644
42.541
42.436
42.329
42.22
42.109
41.995
41.879
41.762
41.642
41.522
41.402
41.282
41.165
41.049
40.934
40.82
40.705
40.589
40.472
40.354
40.232
40.107
39.978
39.844
39.706
39.564
39.417
39.266
39.112
38.954
38.796
38.639
38.485
38.337
38.197
38.067
37.948
37.844
37.753
37.676
37.613
37.563
37.524
37.495
37.475
37.461
37.452
37.447
37.444
37.44
37.435
37.428
37.417
37.403
37.385
37.361
37.333
37.3
37.263
37.221
37.176
37.129
37.078
37.024
36.968
36.91
36.849
36.785
36.718
36.647
36.572
36.493
36.412
36.328
36.241
36.152
36.061
35.968
35.873
35.777
35.679
35.579
35.479
35.378
35.276
35.174
35.073
34.973
34.874
34.777
34.683
34.592
34.504
34.419
34.337
34.257
34.179
34.105
34.033
33.962
33.893
33.823
33.753
33.682
33.612
33.542
33.473
33.405
33.339
33.275
33.212
33.151
33.093
33.038
32.986
32.937
32.891
32.849
32.81
32.773
32.74
32.709
32.68
32.653
32.628
32.603
32.58
32.558
32.538
32.52
32.503
32.489
32.477
32.466
32.457
32.45
32.443
32.437
32.431
32.424
32.415
32.405
32.394
32.38
32.365
32.348
32.328
32.305
32.28
32.252
32.222
32.189
32.154
32.116
32.075
32.034
31.992
31.953
31.92
31.895
31.881
31.883
31.904
31.951
32.028
32.141
32.296
32.496
32.746
33.048
33.4
33.801
34.247
34.733
35.251
35.794
36.352
36.915
37.476
38.025
38.554
39.056
39.526
39.958
40.351
40.7
41.004
41.265
41.483
41.659
41.796
41.898
41.966
42.005
42.018
42.007
41.977
41.929
41.866
41.792
41.707
41.614
41.516
41.412
41.304
41.194
41.083
40.972
40.863
40.756
40.651
40.548
40.449
40.352
40.257
40.163
40.071
39.979
39.886
39.792
39.697
39.6
39.5
39.398
39.294
39.187
39.079
38.967
38.854
38.739
38.623
38.507
38.391
38.277
38.164
38.055
37.949
37.848
37.751
37.658
37.571
37.49
37.413
37.342
37.275
37.214
37.157
37.107
37.063
37.025
36.993
36.966
36.945
36.927
36.912
36.898
36.885
36.872
36.858
36.84
36.82
36.795
36.764
36.728
36.687
36.639
36.587
36.53
36.468
36.403
36.333
36.26
36.184
36.104
36.022
35.938
35.854
35.769
35.685
35.601
35.518
35.435
35.354
35.274
35.193
35.11
35.026
34.94
34.852
34.762
34.671
34.58
34.491
34.402
34.314
34.228
34.144
34.061
33.981
33.904
33.829
33.758
33.69
33.626
33.566
33.508
33.454
33.402
33.352
33.303
33.253
33.202
33.15
33.097
33.043
32.99
32.937
32.886
32.836
32.789
32.743
32.7
32.659
32.621
32.584
32.548
32.514
32.482
32.45
32.419
32.388
32.358
32.327
32.296
32.263
32.229
32.195
32.16
32.125
32.09
32.054
32.018
31.981
31.943
31.904
31.862
31.818
31.771
31.722
31.672
31.621
31.571
31.524
31.48
31.441
31.407
31.376
31.349
31.326
31.304
31.284
31.263
31.241
31.217
31.193
31.167
31.142
31.121
31.106
31.103
31.116
31.15
31.212
31.306
31.437
31.607
31.819
32.076
32.376
32.718
33.101
33.519
33.97
34.445
34.938
35.442
35.949
36.452
36.943
37.417
37.866
38.285
38.669
39.015
39.322
39.588
39.813
39.999
40.146
40.258
40.337
40.387
40.41
40.41
40.389
40.351
40.296
40.227
40.147
40.057
39.961
39.861
39.758
39.655
39.554
39.454
39.356
39.263
39.173
39.089
39.009
38.935
38.866
38.803
38.744
38.689
38.636
38.583
38.53
38.473
38.411
38.343
38.268
38.185
38.095
37.997
37.893
37.784
37.672
37.557
37.442
37.326
37.212
37.1
36.992
36.889
36.791
36.699
36.616
36.541
36.475
36.419
36.372
36.334
36.305
36.281
36.264
36.25
36.239
36.23
36.221
36.212
36.202
36.191
36.178
36.163
36.146
36.127
36.105
36.08
36.053
36.022
35.989
35.951
35.908
35.861
35.809
35.752
35.69
35.626
35.56
35.493
35.424
35.356
35.287
35.218
35.149
35.079
35.007
34.933
34.857
34.778
34.696
34.612
34.527
34.443
34.361
34.28
34.202
34.127
34.054
33.983
33.915
33.85
33.788
33.728
33.673
33.62
33.57
33.523
33.479
33.436
33.394
33.351
33.307
33.263
33.219
33.174
33.129
33.086
33.045
33.005
32.968
32.934
32.901
32.871
32.842
32.813
32.783
32.75
32.715
32.678
32.64
32.602
32.566
32.531
32.499
32.47
32.445
32.423
32.405
32.389
32.376
32.366
32.357
32.35
32.343
32.336
32.329
32.322
32.315
32.308
32.301
32.295
32.29
32.286
32.281
32.276
32.27
32.263
32.254
32.243
32.231
32.217
32.203
32.189
32.175
32.162
32.15
32.138
32.126
32.113
32.098
32.082
32.063
32.042
32.018
31.993
31.966
31.939
31.912
31.885
31.859
31.833
31.808
31.785
31.765
31.752
31.748
31.757
31.782
31.828
31.9
32.003
32.142
32.322
32.545
32.812
33.122
33.474
33.863
34.283
34.728
35.191
35.664
36.138
36.606
37.06
37.492
37.897
38.27
38.607
38.905
39.164
39.382
39.563
39.707
39.816
39.894
39.942
39.965
39.967
39.95
39.916
39.87
39.812
39.744
39.67
39.591
39.508
39.422
39.335
39.247
39.16
39.074
38.989
38.906
38.824
38.744
38.667
38.592
38.521
38.453
38.387
38.323
38.261
38.199
38.135
38.068
37.993
37.912
37.825
37.735
37.642
37.548
37.453
37.36
37.27
37.183
37.098
37.017
36.937
36.861
36.787
36.717
36.65
36.588
36.531
36.481
36.436
36.398
36.367
36.341
36.32
36.304
36.29
36.278
36.265
36.252
36.237
36.221
36.202
36.183
36.163
36.142
36.121
36.1
36.078
36.055
36.031
36.006
35.978
35.948
35.915
35.878
35.836
35.789
35.739
35.687
35.631
35.574
35.516
35.456
35.396
35.335
35.272
35.207
35.142
35.074
35.007
34.939
34.871
34.805
34.742
34.681
34.622
34.565
34.51
34.455
34.401
34.347
34.293
34.241
34.189
34.139
34.09
34.043
33.998
33.954
33.911
33.87
33.83
33.791
33.754
33.718
33.682
33.646
33.61
33.575
33.541
33.508
33.476
33.444
33.414
33.386
33.358
33.333
33.309
33.287
33.267
33.247
33.228
33.21
33.192
33.175
33.158
33.139
33.121
33.104
33.088
33.074
33.062
33.052
33.045
33.04
33.036
33.031
33.025
33.017
33.005
32.988
32.968
32.942
32.91
32.873
32.831
32.787
32.742
32.697
32.655
32.615
32.579
32.547
32.517
32.491
32.465
32.44
32.414
32.386
32.356
32.324
32.291
32.257
32.223
32.191
32.159
32.129
32.102
32.076
32.053
32.031
32.009
31.989
31.97
31.951
31.933
31.915
31.896
31.876
31.855
31.833
31.809
31.783
31.754
31.722
31.688
31.652
31.615
31.577
31.54
31.504
31.468
31.434
31.4
31.368
31.338
31.31
31.287
31.269
31.258
31.256
31.266
31.292
31.338
31.409
31.508
31.642
31.813
32.028
32.288
32.596
32.951
33.349
33.785
34.252
34.742
35.246
35.756
36.262
36.757
37.231
37.677
38.089
38.462
38.794
39.083
39.328
39.531
39.693
39.818
39.907
39.963
39.99
39.991
39.97
39.93
39.873
39.803
39.722
39.634
39.539
39.44
39.337
39.233
39.129
39.024
38.92
38.817
38.716
38.616
38.52
38.426
38.335
38.248
38.164
38.085
38.008
37.936
37.865
37.797
37.731
37.666
37.603
37.54
37.476
37.412
37.346
37.279
37.211
37.144
37.077
37.01
36.942
36.872
36.802
36.731
36.659
36.589
36.521
36.458
36.4
36.35
36.308
36.274
36.248
36.231
36.22
36.216
36.216
36.221
36.228
36.238
36.247
36.256
36.264
36.269
36.272
36.27
36.265
36.255
36.24
36.22
36.193
36.159
36.12
36.077
36.03
35.981
35.93
35.879
35.828
35.776
35.725
35.672
35.618
35.562
35.504
35.442
35.376
35.305
35.232
35.156
35.08
35.004
34.93
34.858
34.79
34.725
34.663
34.604
34.545
34.485
34.424
34.36
34.294
34.226
34.158
34.089
34.022
33.957
33.894
33.834
33.778
33.724
33.672
33.622
33.574
33.526
33.479
33.431
33.383
33.334
33.284
33.234
33.184
33.135
33.089
33.045
33.004
32.966
32.933
32.903
32.877
32.853
32.83
32.809
32.787
32.765
32.741
32.715
32.689
32.662
32.635
32.607
32.579
32.551
32.523
32.495
32.466
32.436
32.406
32.375
32.343
32.312
32.282
32.254
32.227
32.203
32.18
32.159
32.138
32.117
32.098
32.08
32.063
32.048
32.034
32.023
32.012
32.001
31.99
31.98
31.968
31.956
31.943
31.929
31.914
31.9
31.887
31.874
31.861
31.849
31.837
31.826
31.815
31.804
31.793
31.782
31.77
31.757
31.742
31.726
31.709
31.691
31.672
31.651
31.629
31.607
31.584
31.563
31.546
31.534
31.531
31.539
31.561
31.604
31.671
31.768
31.901
32.074
32.292
32.558
32.874
33.238
33.649
34.101
34.588
35.102
35.632
36.171
36.709
37.235
37.74
38.215
38.653
39.048
39.395
39.692
39.939
40.135
40.283
40.385
40.447
40.472
40.464
40.425
40.362
40.277
40.175
40.058
39.93
39.793
39.65
39.504
39.357
39.21
39.064
38.922
38.783
38.649
38.518
38.392
38.269
38.151
38.035
37.921
37.81
37.701
37.594
37.487
37.382
37.276
37.17
37.063
36.953
36.841
36.726
36.607
36.485
36.36
36.234
36.107
35.983
35.862
35.746
35.638
35.539
35.449
35.369
35.3
35.241
35.187
35.134
35.083
35.034
34.99
34.953
34.925
34.908
34.903
34.911
34.931
34.962
35.002
35.05
35.102
35.156
35.209
35.257
35.298
35.33
35.352
35.364
35.366
35.357
35.339
35.312
35.278
35.239
35.196
35.149
35.102
35.053
35.005
34.956
34.908
34.86
34.814
34.769
34.724
34.679
34.632
34.583
34.531
34.477
34.42
34.36
34.3
34.239
34.179
34.118
34.059
34.0
33.942
33.884
33.827
33.769
33.71
33.652
33.595
33.54
33.486
33.431
33.373
33.311
33.246
33.182
33.119
33.061
33.007
32.96
32.92
32.886
32.858
32.837
32.82
32.807
32.797
32.789
32.783
32.776
32.768
32.759
32.747
32.734
32.719
32.705
32.691
32.678
32.667
32.656
32.647
32.64
32.634
32.629
32.626
32.624
32.623
32.623
32.624
32.626
32.63
32.633
32.638
32.642
32.647
32.653
32.658
32.664
32.67
32.675
32.678
32.68
32.679
32.676
32.669
32.659
32.646
32.63
32.611
32.59
32.567
32.544
32.52
32.498
32.477
32.459
32.445
32.436
32.436
32.448
32.477
32.527
32.602
32.706
32.844
33.018
33.231
33.483
33.776
34.108
34.476
34.873
35.295
35.735
36.185
36.639
37.088
37.528
37.951
38.353
38.726
39.068
39.375
39.644
39.875
40.065
40.216
40.328
40.404
40.446
40.456
40.438
40.394
40.329
40.246
40.149
40.042
39.928
39.81
39.691
39.573
39.46
39.35
39.245
39.146
39.053
38.965
38.881
38.8
38.723
38.648
38.575
38.504
38.434
38.364
38.295
38.225
38.153
38.079
38.003
37.923
37.84
37.754
37.666
37.575
37.482
37.387
37.293
37.198
37.106
37.017
36.933
36.854
36.781
36.716
36.657
36.606
36.56
36.52
36.485
36.456
36.433
36.415
36.402
36.396
36.394
36.397
36.403
36.412
36.424
36.438
36.453
36.468
36.481
36.491
36.498
36.5
36.496
36.486
36.469
36.444
36.413
36.374
36.329
36.278
36.223
36.164
36.102
36.036
35.968
35.897
35.825
35.754
35.682
35.611
35.539
35.466
35.389
35.307
35.222
35.134
35.045
34.955
34.865
34.776
34.687
34.599
34.514
34.43
34.349
34.271
34.196
34.125
34.058
33.996
33.939
33.887
33.84
33.796
33.755
33.716
33.678
33.641
33.605
33.569
33.534
33.499
33.466
33.434
33.403
33.373
33.345
33.319
33.294
33.269
33.244
33.22
33.196
33.17
33.144
33.115
33.085
33.053
33.018
32.983
32.946
32.911
32.878
32.847
32.818
32.791
32.768
32.747
32.73
32.715
32.704
32.697
32.692
32.688
32.685
32.682
32.678
32.673
32.667
32.659
32.649
32.637
32.626
32.613
32.601
32.59
32.58
32.571
32.561
32.551
32.541
32.528
32.513
32.496
32.477
32.455
32.432
32.409
32.384
32.359
32.333
32.306
32.278
32.248
32.218
32.189
32.162
32.141
32.129
32.13
32.149
32.192
32.267
32.379
32.536
32.742
33.001
33.316
33.684
34.103
34.568
35.072
35.605
36.157
36.717
37.275
37.822
38.346
38.84
39.297
39.713
40.083
40.407
40.683
40.912
41.096
41.237
41.34
41.408
41.445
41.455
41.441
41.408
41.358
41.295
41.222
41.141
41.055
40.965
40.873
40.779
40.684
40.59
40.495
40.399
40.304
40.208
40.112
40.016
39.919
39.822
39.726
39.631
39.538
39.448
39.362
39.278
39.198
39.119
39.042
38.963
38.883
38.801
38.716
38.629
38.54
38.449
38.355
38.26
38.163
38.066
37.967
37.868
37.768
37.667
37.565
37.465
37.367
37.272
37.183
37.101
37.027
36.963
36.909
36.865
36.832
36.809
36.794
36.786
36.784
36.786
36.789
36.792
36.794
36.792
36.787
36.779
36.766
36.75
36.73
36.706
36.68
36.651
36.618
36.582
36.541
36.495
36.444
36.386
36.322
36.254
36.181
36.106
36.029
35.95
35.87
35.789
35.706
35.623
35.541
35.458
35.376
35.294
35.212
35.13
35.047
34.966
34.885
34.807
34.729
34.653
34.578
34.503
34.429
34.356
34.283
34.211
34.14
34.069
33.999
33.93
33.862
33.795
33.729
33.665
33.602
33.541
33.481
33.423
33.368
33.314
33.263
33.214
33.166
33.121
33.076
33.032
32.99
32.949
32.911
32.874
32.839
32.805
32.774
32.745
32.718
32.692
32.667
32.643
32.618
32.594
32.569
32.547
32.526
32.509
32.496
32.486
32.48
32.475
32.472
32.469
32.465
32.461
32.456
32.449
32.44
32.429
32.416
32.402
32.385
32.368
32.35
32.33
32.31
32.289
32.267
32.246
32.225
32.205
32.187
32.168
32.151
32.135
32.119
32.103
32.088
32.073
32.056
32.038
32.017
31.995
31.97
31.943
31.915
31.888
31.863
31.844
31.834
31.837
31.86
31.907
31.984
32.098
32.253
32.453
32.702
33.001
33.35
33.747
34.189
34.671
35.185
35.723
36.276
36.833
37.385
37.924
38.441
38.927
39.377
39.786
40.15
40.466
40.733
40.951
41.123
41.252
41.34
41.392
41.412
41.404
41.372
41.32
41.252
41.171
41.081
40.984
40.881
40.775
40.666
40.555
40.442
40.329
40.215
40.101
39.987
39.875
39.765
39.657
39.552
39.45
39.351
39.254
39.16
39.07
38.982
38.898
38.816
38.736
38.656
38.577
38.497
38.415
38.332
38.246
38.156
38.064
37.967
37.867
37.764
37.661
37.558
37.458
37.361
37.271
37.188
37.114
37.05
36.995
36.95
36.914
36.885
36.864
36.849
36.839
