Trial 3:3back
35.991
35.918
35.843
35.766
35.687
35.608
35.53
35.453
35.376
35.3
35.224
35.149
35.073
34.997
34.921
34.846
34.773
34.699
34.624
34.547
34.468
34.388
34.307
34.227
34.148
34.072
33.999
33.929
33.864
33.803
33.746
33.694
33.646
33.6
33.557
33.514
33.473
33.432
33.392
33.353
33.313
33.274
33.233
33.192
33.151
33.11
33.069
33.027
32.985
32.941
32.897
32.854
32.812
32.772
32.734
32.696
32.659
32.623
32.588
32.554
32.521
32.489
32.459
32.432
32.408
32.387
32.367
32.349
32.332
32.315
32.298
32.28
32.26
32.238
32.215
32.19
32.163
32.133
32.101
32.067
32.03
31.992
31.955
31.918
31.883
31.849
31.817
31.787
31.759
31.733
31.708
31.684
31.659
31.636
31.614
31.593
31.574
31.556
31.539
31.521
31.503
31.485
31.467
31.452
31.442
31.438
31.445
31.465
31.502
31.559
31.639
31.745
31.881
32.047
32.246
32.476
32.74
33.035
33.362
33.715
34.093
34.489
34.899
35.317
35.74
36.16
36.575
36.979
37.369
37.742
38.093
38.418
38.717
38.986
39.224
39.432
39.609
39.756
39.876
39.971
40.041
40.091
40.12
40.131
40.126
40.106
40.075
40.035
39.989
39.94
39.89
39.84
39.792
39.745
39.699
39.653
39.609
39.565
39.522
39.479
39.437
39.393
39.348
39.299
39.245
39.187
39.123
39.053
38.977
38.896
38.809
38.718
38.622
38.521
38.414
38.302
38.188
38.076
37.97
37.874
37.786
37.708
37.641
37.583
37.533
37.487
37.445
37.404
37.362
37.318
37.271
37.22
37.166
37.109
37.05
36.99
36.931
36.874
36.821
36.773
36.728
36.685
36.645
36.608
36.571
36.537
36.503
36.469
36.435
36.399
36.359
36.315
36.266
36.213
36.155
36.091
36.023
35.95
35.873
35.793
35.71
35.624
35.537
35.45
35.362
35.274
35.185
35.096
35.007
34.918
34.831
34.747
34.665
34.587
34.513
34.443
34.378
34.316
34.257
34.198
34.141
34.084
34.029
33.974
33.92
33.866
33.812
33.758
33.704
33.65
33.597
33.545
33.495
33.447
33.404
33.365
33.328
33.293
33.26
33.229
33.199
33.171
33.144
33.118
33.092
33.065
33.035
33.005
32.973
32.94
32.908
32.876
32.844
32.812
32.781
32.752
32.725
32.701
32.679
32.658
32.637
32.616
32.594
32.572
32.547
32.521
32.492
32.461
32.428
32.394
32.359
32.322
32.284
32.245
32.206
32.167
32.129
32.092
32.056
32.022
31.99
31.959
31.929
31.898
31.867
31.836
31.805
31.774
31.742
31.711
31.681
31.653
31.629
31.612
31.602
31.604
31.621
31.657
31.715
31.8
31.912
32.055
32.229
32.435
32.675
32.947
33.251
33.584
33.943
34.324
34.721
35.129
35.543
35.957
36.367
36.768
37.156
37.526
37.875
38.201
38.499
38.768
39.007
39.216
39.396
39.547
39.671
39.769
39.841
39.89
39.918
39.928
39.921
39.9
39.868
39.828
39.781
39.729
39.673
39.615
39.554
39.491
39.426
39.359
39.292
39.226
39.162
39.1
39.039
38.979
38.919
38.858
38.795
38.73
38.665
38.597
38.527
38.453
38.375
38.293
38.206
38.114
38.018
37.92
37.82
37.721
37.625
37.53
37.439
37.352
37.27
37.192
37.121
37.055
36.996
36.943
36.894
36.85
36.809
36.772
36.737
36.707
36.679
36.652
36.627
36.602
36.577
36.549
36.52
36.488
36.453
36.416
36.375
36.33
36.281
36.227
36.17
36.11
36.046
35.98
35.912
35.841
35.769
35.695
35.62
35.544
35.468
35.394
35.32
35.247
35.175
35.103
35.032
34.961
34.89
34.82
34.751
34.682
34.614
34.544
34.474
34.404
34.333
34.263
34.195
34.127
34.059
33.993
33.927
33.863
33.8
33.739
33.68
33.621
33.563
33.506
33.449
33.393
33.337
33.282
33.229
33.176
33.125
33.075
33.027
32.981
32.938
32.897
32.859
32.824
32.789
32.754
32.719
32.683
32.646
32.607
32.569
32.531
32.494
32.459
32.425
32.394
32.363
32.333
32.304
32.276
32.25
32.226
32.204
32.184
32.166
32.149
32.131
32.111
32.089
32.067
32.042
32.017
31.991
31.964
31.937
31.909
31.883
31.857
31.831
31.805
31.778
31.751
31.724
31.698
31.672
31.648
31.624
31.599
31.573
31.546
31.518
31.489
31.458
31.426
31.393
31.361
31.331
31.304
31.283
31.268
31.263
31.269
31.289
31.326
31.385
31.469
31.581
31.724
31.901
32.111
32.356
32.633
32.942
33.281
33.647
34.036
34.442
34.861
35.286
35.714
36.138
36.555
36.96
37.35
37.722
38.072
38.398
38.697
38.968
39.209
39.42
39.602
39.755
39.881
39.981
40.056
40.108
40.139
40.152
40.148
40.129
40.099
40.059
40.013
39.963
39.91
39.856
39.8
39.744
39.686
39.628
39.571
39.514
39.459
39.405
39.352
39.297
39.239
39.178
39.113
39.045
38.971
38.894
38.812
38.725
38.633
38.538
38.439
38.337
38.233
38.128
38.023
37.918
37.816
37.717
37.623
37.534
37.451
37.373
37.302
37.237
37.179
37.128
37.082
37.041
37.004
36.97
36.937
36.907
36.878
36.848
36.819
36.788
36.756
36.722
36.686
36.647
36.606
36.565
36.521
36.476
36.428
36.375
36.319
36.257
36.192
36.124
36.053
35.981
35.909
35.836
35.763
35.689
35.614
35.538
35.462
35.386
35.311
35.236
35.163
35.09
35.017
34.945
34.873
34.801
34.73
34.66
34.591
34.522
34.454
34.386
34.319
34.254
34.191
34.129
34.067
34.006
33.945
33.883
33.822
33.762
33.705
33.65
33.597
33.547
33.498
33.452
33.408
33.365
33.323
33.281
33.236
33.189
33.14
33.09
33.04
32.991
32.943
32.894
32.846
32.797
32.749
32.703
32.658
32.616
32.577
32.539
32.505
32.472
32.441
32.412
32.384
32.357
32.332
32.305
32.276
32.243
32.208
32.17
32.13
32.089
32.047
32.006
31.967
31.932
31.901
31.874
31.851
31.83
31.807
31.778
31.739
31.69
31.633
31.572
31.509
31.447
31.39
31.339
31.297
31.263
31.237
31.22
31.21
31.204
31.202
31.204
31.208
31.217
31.229
31.247
31.271
31.305
31.351
31.413
31.493
31.595
31.722
31.876
32.058
32.269
32.51
32.781
33.081
33.408
33.76
34.131
34.517
34.914
35.316
35.719
36.118
36.507
36.882
37.238
37.571
37.878
38.155
38.402
38.617
38.8
38.953
39.077
39.176
39.252
39.306
39.34
39.356
39.357
39.344
39.321
39.29
39.252
39.209
39.161
39.11
39.056
39.0
38.943
38.887
38.83
38.774
38.718
38.663
38.607
38.551
38.495
38.437
38.377
38.313
38.246
38.175
38.1
38.019
37.933
37.841
37.744
37.642
37.539
37.434
37.33
37.226
37.122
37.02
36.92
36.821
36.724
36.63
36.542
36.46
36.386
36.32
36.26
36.207
36.159
36.115
36.075
36.038
36.005
35.976
35.949
35.925
35.902
35.878
35.855
35.83
35.804
35.775
35.745
35.711
35.673
35.633
35.588
35.541
35.491
35.437
35.381
35.321
35.257
35.189
35.119
35.047
34.975
34.903
34.83
34.755
34.678
34.598
34.515
34.43
34.344
34.258
34.171
34.085
34.001
33.918
33.837
33.757
33.678
33.599
33.521
33.441
33.361
33.28
33.199
33.118
33.038
32.959
32.882
32.808
32.738
32.672
32.611
32.554
32.5
32.449
32.401
32.354
32.309
32.265
32.222
32.178
32.134
32.09
32.046
32.004
31.962
31.923
31.884
31.846
31.808
31.772
31.736
31.701
31.666
31.63
31.596
31.561
31.527
31.495
31.463
31.432
31.401
31.37
31.339
31.308
31.278
31.248
31.22
31.192
31.164
31.136
31.106
31.075
31.043
31.01
30.976
30.94
30.904
30.868
30.832
30.797
30.762
30.728
30.693
30.657
30.62
30.583
30.545
30.505
30.465
30.424
30.383
30.343
30.304
30.267
30.231
30.196
30.163
30.134
30.111
30.096
30.094
30.107
30.137
30.187
30.262
30.363
30.492
30.65
30.838
31.054
31.298
31.568
31.863
32.179
32.515
32.866
33.227
33.594
33.961
34.324
34.68
35.025
35.357
35.672
35.969
36.245
36.498
36.728
36.933
37.114
37.27
37.403
37.515
37.605
37.675
37.726
37.759
37.776
37.78
37.773
37.756
37.732
37.701
37.664
37.623
37.577
37.529
37.48
37.43
37.381
37.332
37.286
37.24
37.195
37.149
37.103
37.056
37.008
36.96
36.911
36.861
36.808
36.751
36.69
36.624
36.553
36.477
36.397
36.315
36.231
36.146
36.062
35.979
35.898
35.82
35.746
35.675
35.609
35.549
35.493
35.442
35.397
35.356
35.319
35.287
35.258
35.231
35.205
35.177
35.149
35.119
35.089
35.059
35.028
34.996
34.964
34.931
34.897
34.86
34.821
34.781
34.739
34.695
34.65
34.603
34.553
34.5
34.446
34.389
34.33
34.268
34.203
34.135
34.064
33.992
33.918
33.844
33.771
33.699
33.627
33.556
33.486
33.415
33.344
33.275
33.206
33.139
33.074
33.009
32.946
32.884
32.825
32.768
32.714
32.661
32.609
32.558
32.507
32.457
32.406
32.356
32.307
32.259
32.213
32.169
32.128
32.089
32.053
32.019
31.985
31.951
31.915
31.877
31.837
31.796
31.755
31.712
31.669
31.627
31.585
31.545
31.506
31.468
31.43
31.392
31.354
31.317
31.282
31.247
31.214
31.182
31.151
31.121
31.092
31.066
31.04
31.016
30.991
30.966
30.939
30.912
30.884
30.855
30.825
30.794
30.763
30.732
30.702
30.672
30.643
30.615
30.589
30.562
30.534
30.503
30.469
30.434
30.396
30.357
30.318
30.279
30.243
30.21
30.181
30.159
30.143
30.135
30.137
30.149
30.173
30.212
30.267
30.341
30.436
30.554
30.696
30.864
31.058
31.277
31.52
31.784
32.066
32.364
32.676
32.996
33.321
33.645
33.963
34.273
34.57
34.852
35.117
35.362
35.587
35.792
35.975
36.138
36.281
36.405
36.511
36.601
36.676
36.736
36.783
36.818
36.843
36.856
36.858
36.85
36.833
36.808
36.777
36.742
36.704
36.663
36.62
36.576
36.533
36.491
36.452
36.417
36.386
36.357
36.331
36.307
36.283
36.258
36.231
36.2
36.163
36.121
36.072
36.016
35.954
35.888
35.817
35.745
35.672
35.598
35.526
35.454
35.385
35.32
35.26
35.205
35.155
35.11
35.071
35.036
35.006
34.98
34.955
34.932
34.91
34.889
34.868
34.847
34.826
34.805
34.783
34.761
34.737
34.71
34.681
34.65
34.615
34.579
34.542
34.503
34.464
34.425
34.385
34.346
34.306
34.266
34.225
34.183
34.14
34.094
34.046
33.997
33.945
33.892
33.837
33.781
33.724
33.666
33.607
33.547
33.487
33.428
33.367
33.307
33.247
33.187
33.128
33.071
33.016
32.962
32.91
32.857
32.804
32.752
32.699
32.647
32.596
32.546
32.497
32.451
32.406
32.363
32.323
32.284
32.246
32.209
32.174
32.14
32.108
32.077
32.048
32.019
31.99
31.96
31.927
31.891
31.852
31.811
31.768
31.725
31.683
31.643
31.603
31.564
31.527
31.493
31.461
31.43
31.402
31.375
31.35
31.326
31.301
31.275
31.249
31.221
31.192
31.163
31.133
31.105
31.078
31.053
31.031
31.012
30.995
30.981
30.969
30.958
30.946
30.932
30.916
30.9
30.89
30.892
30.906
30.932
30.972
31.028
31.099
31.184
31.281
31.39
31.509
31.639
31.78
31.935
32.106
32.294
32.497
32.715
32.947
33.192
33.45
33.717
33.992
34.272
34.553
34.834
35.113
35.389
35.659
35.919
36.166
36.396
36.605
36.792
36.954
37.09
37.201
37.29
37.358
37.408
37.439
37.447
37.434
37.403
37.358
37.306
37.251
37.199
37.152
37.115
37.087
37.07
37.063
37.064
37.073
37.087
37.104
37.122
37.139
37.153
37.165
37.171
37.171
37.165
37.151
37.13
37.102
37.065
37.021
36.968
36.907
36.841
36.77
36.698
36.624
36.549
36.474
36.4
36.328
36.259
36.194
36.136
36.084
36.038
35.999
35.964
35.933
35.905
35.879
35.854
35.829
35.805
35.782
35.758
35.734
35.709
35.683
35.656
35.629
35.602
35.573
35.542
35.509
35.474
35.437
35.401
35.365
35.33
35.295
35.26
35.225
35.189
35.15
35.109
35.066
35.021
34.975
34.928
34.879
34.829
34.779
34.728
34.677
34.625
34.574
34.522
34.467
34.411
34.353
34.293
34.234
34.175
34.117
34.059
34.002
33.943
33.884
33.824
33.763
33.702
33.641
33.58
33.519
33.46
33.402
33.346
33.291
33.237
33.182
33.126
33.071
33.016
32.962
32.908
32.856
32.807
32.762
32.721
32.683
32.646
32.612
32.58
32.549
32.516
32.482
32.446
32.409
32.372
32.336
32.301
32.268
32.237
32.209
32.186
32.166
32.149
32.135
32.121
32.108
32.094
32.081
32.067
32.054
32.04
32.026
32.011
31.996
31.981
31.966
31.95
31.933
31.913
31.891
31.865
31.835
31.803
31.768
31.732
31.695
31.658
31.621
31.587
31.554
31.524
31.498
31.475
31.455
31.441
31.433
31.436
31.45
31.479
31.525
31.59
31.677
31.787
31.924
32.088
32.278
32.494
32.733
32.993
33.272
33.568
33.877
34.196
34.524
34.855
35.186
35.511
35.827
36.13
36.418
36.688
36.941
37.173
37.386
37.579
37.752
37.905
38.038
38.151
38.247
38.327
38.391
38.441
38.481
38.511
38.532
38.545
38.55
38.549
38.541
38.53
38.515
38.497
38.477
38.454
38.431
38.406
38.381
38.356
38.331
38.306
38.28
38.252
38.222
38.19
38.155
38.117
38.074
38.027
37.975
37.92
37.861
37.799
37.734
37.666
37.597
37.528
37.459
37.393
37.329
37.269
37.214
37.164
37.119
37.08
37.047
37.018
36.995
36.974
36.956
36.94
36.925
36.91
36.895
36.882
36.869
36.858
36.848
36.837
36.826
36.812
36.796
36.777
36.756
36.734
36.71
36.684
36.655
36.622
36.583
36.541
36.494
36.445
36.392
36.337
36.28
36.222
36.161
36.1
36.036
35.971
35.904
35.836
35.767
35.697
35.627
35.559
35.493
35.429
35.368
35.308
35.248
35.187
35.125
35.061
34.996
34.932
34.87
34.811
34.755
34.703
34.654
34.606
34.559
34.513
34.466
34.42
34.374
34.328
34.283
34.238
34.193
34.149
34.108
34.07
34.033
33.999
33.965
33.932
33.899
33.868
33.839
33.814
33.792
33.775
33.761
33.751
33.743
33.737
33.731
33.724
33.716
33.706
33.692
33.674
33.653
33.628
33.6
33.57
33.537
33.502
33.464
33.424
33.382
33.34
33.298
33.258
33.22
33.184
33.152
33.122
33.094
33.066
33.037
33.007
32.975
32.939
32.9
32.859
32.815
32.77
32.724
32.677
32.631
32.584
32.539
32.495
32.456
32.423
32.398
32.383
32.38
32.392
32.422
32.473
32.549
32.651
32.781
32.941
33.129
33.344
33.582
33.842
34.121
34.416
34.726
35.046
35.373
35.702
36.029
36.349
36.66
36.956
37.237
37.5
37.745
37.971
38.176
38.359
38.521
38.661
38.779
38.876
38.953
39.011
39.054
39.083
39.1
39.106
39.103
39.091
39.072
39.047
39.018
38.987
38.954
38.923
38.894
38.866
38.842
38.819
38.798
38.778
38.757
38.735
38.712
38.688
38.661
38.63
38.593
38.549
38.499
38.441
38.378
38.311
38.241
38.169
38.096
38.02
37.943
37.865
37.787
37.71
37.637
37.568
37.505
37.448
37.397
37.35
37.307
37.268
37.231
37.198
37.168
37.142
37.119
37.099
37.082
37.064
37.045
37.023
36.998
36.971
36.942
36.912
36.882
36.853
36.825
36.798
36.772
36.746
36.72
36.695
36.671
36.646
36.621
36.593
36.564
36.531
36.497
36.458
36.417
36.372
36.322
36.269
36.212
36.151
36.087
36.02
35.952
35.883
35.813
35.742
35.67
35.598
35.525
35.452
35.38
35.308
35.238
35.169
35.101
35.034
34.966
34.899
34.833
34.768
34.703
34.639
34.576
34.516
34.458
34.402
34.349
34.299
34.251
34.203
34.156
34.109
34.062
34.015
33.97
33.927
33.887
33.849
33.811
33.774
33.736
33.698
33.661
33.624
33.588
33.552
33.517
33.482
33.448
33.416
33.385
33.356
33.329
33.303
33.277
33.251
33.225
33.197
33.169
33.14
33.11
33.079
33.047
33.015
32.983
32.951
32.918
32.884
32.848
32.811
32.772
32.732
32.692
32.651
32.61
32.569
32.53
32.492
32.456
32.423
32.391
32.362
32.335
32.312
32.294
32.282
32.281
32.292
32.32
32.367
32.435
32.527
32.645
32.789
32.961
33.161
33.386
33.637
33.911
34.207
34.522
34.854
35.198
35.552
35.911
36.271
36.627
36.973
37.306
37.623
37.922
38.202
38.461
38.699
38.914
39.104
39.269
39.409
39.523
39.616
39.688
39.743
39.781
39.806
39.818
39.819
39.809
39.792
39.768
39.74
39.708
39.675
39.642
39.607
39.572
39.535
39.498
39.46
39.421
39.381
39.342
39.303
39.265
39.226
39.186
39.145
39.102
39.056
39.008
38.957
38.904
38.848
38.789
38.727
38.662
38.595
38.525
38.454
38.382
38.312
38.243
38.179
38.117
38.059
38.005
37.955
37.907
37.862
37.82
37.782
37.746
37.713
37.682
37.653
37.625
37.598
37.572
37.547
37.524
37.502
37.481
37.461
37.439
37.416
37.39
37.359
37.323
37.282
37.239
37.192
37.143
37.093
37.039
36.981
36.919
36.854
36.787
36.717
36.647
36.576
36.504
36.434
36.364
36.297
36.231
36.166
36.102
36.038
35.974
35.91
35.845
35.781
35.716
35.652
35.589
35.528
35.468
35.408
35.348
35.287
35.225
35.163
35.102
35.042
34.985
34.928
34.872
34.816
34.758
34.7
34.64
34.581
34.522
34.463
34.405
34.347
34.29
34.235
34.181
34.13
34.08
34.032
33.985
33.938
33.893
33.849
33.806
33.765
33.728
33.694
33.664
33.636
33.608
33.581
33.554
33.526
33.498
33.469
33.44
33.411
33.382
33.354
33.327
33.302
33.279
33.255
33.232
33.207
33.18
33.15
33.118
33.083
33.047
33.01
32.972
32.933
32.894
32.856
32.82
32.786
32.753
32.722
32.692
32.664
32.641
32.624
32.616
32.62
32.639
32.674
32.729
32.806
32.907
33.034
33.189
33.372
33.582
33.819
34.08
34.362
34.664
34.982
35.313
35.652
35.996
36.341
36.682
37.014
37.336
37.644
37.937
38.211
38.467
38.7
38.911
39.099
39.263
39.403
39.52
39.615
39.692
39.75
39.793
39.822
39.838
39.844
39.839
39.826
39.806
39.779
39.749
39.715
39.681
39.646
39.611
39.577
39.544
39.512
39.481
39.449
39.417
39.384
39.35
39.313
39.273
39.229
39.181
39.128
39.069
39.005
38.935
38.86
38.779
38.694
38.606
38.517
38.428
38.338
38.249
38.16
38.074
37.991
37.912
37.839
37.771
37.71
37.657
37.61
37.57
37.536
37.508
37.484
37.464
37.445
37.428
37.411
37.395
37.38
37.364
37.349
37.334
37.318
37.3
37.279
37.253
37.222
37.188
37.15
37.109
37.065
37.017
36.964
36.907
36.846
36.78
36.711
36.639
36.565
36.49
36.414
36.339
36.263
36.188
36.113
36.039
35.965
35.892
35.819
35.745
35.671
35.595
35.518
35.44
35.363
35.287
35.211
35.137
35.063
34.991
34.921
34.853
34.788
34.726
34.667
34.61
34.555
34.503
34.451
34.399
34.347
34.295
34.243
34.193
34.143
34.094
34.045
33.998
33.953
33.909
33.867
33.824
33.781
33.738
33.695
33.653
33.612
33.572
33.532
33.492
33.454
33.416
33.379
33.342
33.305
33.27
33.235
33.201
33.168
33.137
33.106
33.076
33.046
33.017
32.985
32.952
32.917
32.88
32.843
32.805
32.764
32.722
32.677
32.63
32.582
32.535
32.489
32.444
32.402
32.363
32.327
32.296
32.27
32.252
32.242
32.244
32.259
32.29
32.342
32.415
32.514
32.64
32.794
32.976
33.186
33.422
33.685
33.973
34.283
34.613
34.96
35.32
35.69
36.064
36.437
36.805
37.164
37.51
37.841
38.153
38.445
38.715
38.959
39.179
39.371
39.538
39.679
39.796
39.891
39.966
40.022
40.062
40.086
40.096
40.093
40.079
40.057
40.028
39.994
39.956
39.916
39.874
39.83
39.784
39.738
39.692
39.648
39.606
39.566
39.528
39.491
39.454
39.416
39.376
39.332
39.284
39.232
39.176
39.117
39.053
38.986
38.915
38.843
38.767
38.688
38.606
38.523
38.439
38.357
38.276
38.199
38.124
38.053
37.983
37.917
37.853
37.791
37.732
37.675
37.62
37.567
37.514
37.462
37.412
37.365
37.321
37.282
37.247
37.215
37.186
37.159
37.132
37.106
37.079
37.052
37.025
36.998
36.97
36.94
36.907
36.871
36.829
36.783
36.73
36.673
36.611
36.545
36.475
36.4
36.321
36.239
36.153
36.066
35.978
35.892
35.806
35.722
35.639
35.558
35.48
35.405
35.333
35.266
35.203
35.142
35.082
35.022
34.963
34.91
34.865
34.827
34.794
34.763
34.731
34.693
34.647
34.593
34.531
34.46
34.382
34.297
34.206
34.112
34.017
33.923
33.831
33.744
33.661
33.584
33.513
33.448
33.39
33.34
33.299
33.272
33.258
33.255
33.261
33.27
33.278
33.284
33.286
33.281
33.269
33.25
33.223
33.19
33.152
33.111
33.067
33.022
32.976
32.93
32.885
32.843
32.801
32.76
32.712
32.657
32.595
32.531
32.468
32.41
32.358
32.315
32.281
32.255
32.237
32.224
32.216
32.211
32.208
