Trial 3:3back
36.027
36.025
36.021
36.015
36.006
35.995
35.983
35.969
35.955
35.942
35.929
35.919
35.911
35.905
35.901
35.897
35.892
35.885
35.875
35.86
35.842
35.819
35.792
35.761
35.727
35.691
35.652
35.613
35.575
35.538
35.503
35.472
35.444
35.419
35.397
35.375
35.355
35.333
35.312
35.289
35.265
35.241
35.216
35.192
35.168
35.145
35.123
35.102
35.081
35.06
35.038
35.015
34.991
34.966
34.941
34.917
34.895
34.874
34.856
34.84
34.828
34.817
34.808
34.799
34.79
34.78
34.768
34.755
34.74
34.724
34.707
34.69
34.674
34.66
34.646
34.634
34.624
34.614
34.604
34.594
34.582
34.569
34.553
34.535
34.515
34.495
34.475
34.457
34.441
34.428
34.418
34.41
34.405
34.4
34.396
34.391
34.385
34.378
34.37
34.362
34.354
34.346
34.339
34.333
34.325
34.316
34.304
34.29
34.272
34.252
34.231
34.208
34.185
34.162
34.141
34.122
34.105
34.092
34.082
34.074
34.068
34.064
34.062
34.06
34.06
34.059
34.06
34.063
34.069
34.082
34.103
34.136
34.181
34.243
34.323
34.421
34.539
34.675
34.828
35.0
35.192
35.399
35.616
35.836
36.055
36.266
36.463
36.643
36.802
36.94
37.055
37.147
37.219
37.271
37.305
37.323
37.329
37.326
37.315
37.3
37.281
37.26
37.239
37.219
37.199
37.182
37.165
37.15
37.137
37.124
37.112
37.099
37.086
37.072
37.058
37.043
37.029
37.014
37.001
36.988
36.977
36.967
36.958
36.947
36.936
36.923
36.91
36.896
36.881
36.864
36.845
36.825
36.803
36.778
36.75
36.72
36.688
36.654
36.618
36.581
36.543
36.508
36.474
36.443
36.414
36.387
36.363
36.342
36.324
36.309
36.297
36.286
36.276
36.266
36.255
36.244
36.231
36.218
36.204
36.189
36.175
36.162
36.151
36.14
36.131
36.123
36.116
36.109
36.101
36.093
36.082
36.07
36.056
36.041
36.024
36.005
35.986
35.966
35.946
35.925
35.904
35.881
35.856
35.829
35.802
35.773
35.744
35.716
35.688
35.661
35.635
35.611
35.587
35.563
35.539
35.514
35.487
35.459
35.429
35.397
35.364
35.332
35.3
35.27
35.24
35.213
35.187
35.166
35.148
35.134
35.123
35.113
35.102
35.089
35.074
35.056
35.035
35.012
34.987
34.961
34.935
34.908
34.881
34.854
34.827
34.801
34.775
34.749
34.723
34.698
34.673
34.65
34.628
34.606
34.586
34.566
34.548
34.532
34.516
34.501
34.485
34.467
34.449
34.43
34.41
34.39
34.371
34.352
34.336
34.321
34.309
34.299
34.29
34.282
34.275
34.267
34.26
34.251
34.242
34.231
34.22
34.207
34.193
34.179
34.163
34.146
34.127
34.105
34.082
34.058
34.035
34.014
33.996
33.981
33.971
33.964
33.96
33.959
33.959
33.958
33.957
33.955
33.95
33.943
33.934
33.922
33.909
33.894
33.878
33.862
33.846
33.831
33.817
33.804
33.791
33.781
33.772
33.765
33.763
33.767
33.78
33.806
33.847
33.905
33.982
34.078
34.195
34.331
34.483
34.65
34.829
35.018
35.211
35.407
35.601
35.79
35.969
36.136
36.289
36.425
36.543
36.644
36.726
36.792
36.841
36.876
36.9
36.913
36.918
36.915
36.907
36.892
36.871
36.846
36.818
36.786
36.752
36.717
36.681
36.644
36.609
36.574
36.541
36.509
36.478
36.451
36.426
36.403
36.383
36.366
36.351
36.338
36.328
36.32
36.312
36.304
36.294
36.282
36.268
36.251
36.231
36.209
36.185
36.159
36.132
36.104
36.075
36.044
36.012
35.979
35.944
35.909
35.873
35.838
35.803
35.769
35.738
35.71
35.685
35.663
35.645
35.63
35.619
35.61
35.602
35.596
35.591
35.586
35.583
35.58
35.579
35.579
35.582
35.586
35.591
35.596
35.599
35.6
35.598
35.592
35.584
35.573
35.56
35.546
35.532
35.517
35.503
35.488
35.472
35.454
35.434
35.412
35.388
35.362
35.335
35.306
35.278
35.25
35.223
35.196
35.17
35.146
35.123
35.101
35.08
35.058
35.037
35.014
34.99
34.964
34.935
34.901
34.865
34.827
34.79
34.755
34.722
34.694
34.67
34.65
34.633
34.62
34.609
34.599
34.59
34.58
34.569
34.556
34.536
34.505
34.467
34.423
34.377
34.332
34.29
34.254
34.225
34.204
34.191
34.185
34.184
34.187
34.191
34.197
34.201
34.202
34.201
34.196
34.19
34.181
34.17
34.158
34.146
34.133
34.121
34.11
34.099
34.088
34.077
34.066
34.053
34.037
34.02
34.0
33.979
33.957
33.935
33.915
33.895
33.877
33.861
33.847
33.835
33.825
33.816
33.808
33.802
33.797
33.793
33.79
33.787
33.784
33.78
33.774
33.767
33.759
33.749
33.738
33.727
33.716
33.706
33.696
33.688
33.68
33.675
33.671
33.669
33.666
33.662
33.656
33.649
33.639
33.627
33.614
33.599
33.585
33.571
33.557
33.544
33.531
33.519
33.508
33.499
33.49
33.483
33.479
33.478
33.483
33.495
33.516
33.547
33.59
33.647
33.719
33.807
33.911
34.032
34.168
34.318
34.481
34.654
34.833
35.016
35.2
35.382
35.559
35.73
35.891
36.042
36.179
36.303
36.412
36.505
36.582
36.643
36.688
36.719
36.738
36.746
36.744
36.734
36.719
36.7
36.678
36.654
36.629
36.603
36.577
36.551
36.526
36.501
36.478
36.457
36.437
36.42
36.405
36.392
36.381
36.37
36.361
36.352
36.342
36.331
36.318
36.304
36.289
36.274
36.257
36.24
36.222
36.203
36.183
36.16
36.136
36.109
36.08
36.047
36.011
35.974
35.935
35.895
35.856
35.82
35.786
35.756
35.73
35.708
35.691
35.678
35.67
35.667
35.668
35.672
35.678
35.686
35.693
35.699
35.702
35.703
35.702
35.701
35.699
35.698
35.697
35.698
35.7
35.704
35.707
35.71
35.712
35.712
35.711
35.711
35.71
35.708
35.702
35.694
35.682
35.665
35.645
35.621
35.593
35.562
35.529
35.495
35.46
35.426
35.394
35.365
35.34
35.321
35.305
35.293
35.285
35.278
35.273
35.267
35.26
35.25
35.236
35.219
35.199
35.176
35.15
35.122
35.093
35.063
35.033
35.004
34.975
34.948
34.923
34.9
34.88
34.861
34.845
34.829
34.813
34.798
34.783
34.767
34.749
34.73
34.71
34.69
34.671
34.653
34.637
34.621
34.608
34.595
34.583
34.572
34.562
34.553
34.548
34.543
34.538
34.531
34.524
34.514
34.504
34.493
34.482
34.471
34.459
34.447
34.435
34.423
34.41
34.396
34.382
34.367
34.353
34.339
34.325
34.312
34.3
34.29
34.28
34.271
34.262
34.253
34.244
34.234
34.222
34.209
34.195
34.18
34.164
34.149
34.134
34.12
34.107
34.096
34.087
34.081
34.077
34.076
34.079
34.088
34.103
34.126
34.158
34.202
34.259
34.33
34.415
34.516
34.632
34.763
34.905
35.058
35.218
35.384
35.551
35.716
35.879
36.035
36.185
36.325
36.454
36.571
36.675
36.766
36.842
36.903
36.949
36.979
36.997
37.003
36.999
36.988
36.973
36.954
36.933
36.911
36.889
36.867
36.844
36.821
36.798
36.775
36.753
36.733
36.713
36.695
36.678
36.662
36.646
36.63
36.615
36.6
36.586
36.573
36.56
36.547
36.533
36.518
36.501
36.482
36.46
36.435
36.408
36.379
36.349
36.317
36.284
36.25
36.215
36.18
36.144
36.11
36.076
36.044
36.014
35.987
35.963
35.943
35.926
35.913
35.903
35.896
35.89
35.886
35.882
35.878
35.873
35.866
35.858
35.849
35.84
35.831
35.823
35.816
35.81
35.806
35.803
35.799
35.796
35.792
35.788
35.783
35.776
35.767
35.757
35.744
35.729
35.711
35.691
35.67
35.647
35.622
35.597
35.572
35.546
35.52
35.495
35.471
35.448
35.426
35.406
35.388
35.372
35.358
35.344
35.33
35.314
35.296
35.276
35.253
35.229
35.202
35.173
35.144
35.113
35.082
35.051
35.021
34.993
34.968
34.948
34.931
34.918
34.907
34.897
34.888
34.878
34.867
34.855
34.841
34.824
34.805
34.785
34.763
34.74
34.716
34.693
34.671
34.65
34.632
34.615
34.599
34.584
34.569
34.553
34.537
34.52
34.502
34.484
34.466
34.449
34.435
34.422
34.41
34.401
34.394
34.389
34.383
34.377
34.369
34.36
34.349
34.337
34.322
34.307
34.291
34.273
34.256
34.241
34.229
34.22
34.214
34.21
34.207
34.203
34.198
34.189
34.178
34.163
34.147
34.129
34.11
34.092
34.076
34.063
34.053
34.044
34.036
34.029
34.021
34.013
34.002
33.99
33.977
33.964
33.953
33.946
33.945
33.952
33.969
33.998
34.043
34.102
34.177
34.269
34.377
34.5
34.638
34.789
34.951
35.122
35.3
35.483
35.669
35.856
36.039
36.217
36.385
36.543
36.687
36.817
36.931
37.03
37.111
37.177
37.226
37.261
37.282
37.291
37.29
37.282
37.268
37.251
37.231
37.211
37.191
37.172
37.154
37.138
37.125
37.114
37.106
37.102
37.099
37.099
37.098
37.098
37.097
37.094
37.089
37.081
37.07
37.056
37.039
37.021
37.003
36.984
36.965
36.945
36.926
36.905
36.884
36.861
36.835
36.807
36.777
36.745
36.709
36.672
36.631
36.59
36.547
36.506
36.467
36.429
36.393
36.361
36.331
36.306
36.284
36.264
36.247
36.232
36.219
36.207
36.197
36.188
36.181
36.176
36.173
36.17
36.169
36.168
36.166
36.164
36.162
36.158
36.153
36.146
36.138
36.129
36.119
36.109
36.098
36.085
36.072
36.058
36.042
36.022
35.999
35.971
35.94
35.906
35.871
35.833
35.795
35.757
35.72
35.685
35.653
35.623
35.596
35.572
35.55
35.53
35.512
35.496
35.48
35.464
35.448
35.43
35.412
35.393
35.373
35.352
35.33
35.306
35.281
35.254
35.226
35.196
35.165
35.133
35.102
35.073
35.044
35.019
34.996
34.976
34.958
34.941
34.926
34.911
34.896
34.882
34.866
34.849
34.83
34.811
34.79
34.77
34.75
34.73
34.711
34.692
34.676
34.66
34.646
34.633
34.62
34.606
34.592
34.577
34.561
34.544
34.527
34.511
34.495
34.48
34.466
34.454
34.442
34.431
34.419
34.406
34.392
34.376
34.358
34.338
34.317
34.295
34.274
34.255
34.239
34.226
34.215
34.207
34.201
34.196
34.192
34.186
34.18
34.173
34.168
34.165
34.164
34.164
34.164
34.164
34.163
34.159
34.152
34.142
34.128
34.111
34.09
34.067
34.043
34.02
33.999
33.983
33.975
33.978
33.993
34.024
34.072
34.14
34.227
34.333
34.459
34.601
34.758
34.929
35.109
35.297
35.489
35.682
35.871
36.056
36.233
36.4
36.557
36.7
36.83
36.945
37.045
37.131
37.203
37.26
37.305
37.338
37.36
37.372
37.376
37.371
37.36
37.344
37.325
37.304
37.282
37.261
37.242
37.225
37.211
37.199
37.189
37.18
37.174
37.168
37.163
37.157
37.152
37.145
37.138
37.13
37.12
37.11
37.098
37.084
37.068
37.05
37.03
37.008
36.984
36.958
36.93
36.901
36.871
36.84
36.808
36.774
36.741
36.707
36.673
36.639
36.605
36.571
36.538
36.506
36.475
36.447
36.422
36.399
36.38
36.364
36.352
36.344
36.34
36.338
36.339
36.342
36.346
36.352
36.358
36.366
36.376
36.388
36.4
36.411
36.421
36.427
36.429
36.427
36.419
36.407
36.391
36.371
36.347
36.321
36.292
36.261
36.228
36.194
36.16
36.125
36.089
36.053
36.018
35.984
35.953
35.924
35.898
35.875
35.854
35.836
35.819
35.802
35.784
35.764
35.741
35.717
35.692
35.665
35.638
35.611
35.584
35.559
35.536
35.514
35.493
35.473
35.454
35.435
35.415
35.394
35.375
35.356
35.34
35.324
35.309
35.294
35.278
35.26
35.24
35.218
35.194
35.168
35.141
35.113
35.086
35.06
35.035
35.013
34.993
34.976
34.962
34.949
34.937
34.925
34.912
34.898
34.883
34.869
34.854
34.838
34.823
34.809
34.794
34.78
34.765
34.75
34.734
34.718
34.702
34.686
34.671
34.656
34.642
34.629
34.616
34.603
34.59
34.574
34.558
34.541
34.524
34.506
34.489
34.472
34.456
34.439
34.423
34.407
34.391
34.374
34.358
34.343
34.328
34.316
34.306
34.3
34.3
34.309
34.327
34.357
34.4
34.459
34.535
34.628
34.739
34.87
35.02
35.189
35.374
35.569
35.771
35.975
36.175
36.368
36.55
36.718
36.87
37.004
37.119
37.217
37.298
37.361
37.41
37.446
37.47
37.486
37.495
37.496
37.493
37.484
37.471
37.455
37.436
37.416
37.394
37.372
37.35
37.33
37.311
37.292
37.274
37.257
37.241
37.225
37.211
37.197
37.185
37.175
37.165
37.157
37.149
37.14
37.129
37.116
37.1
37.079
37.055
37.027
36.996
36.962
36.927
36.891
36.855
36.816
36.775
36.731
36.686
36.639
36.593
36.546
36.5
36.455
36.412
36.37
36.332
36.299
36.269
36.244
36.225
36.21
36.198
36.191
36.186
36.185
36.186
36.189
36.192
36.196
36.2
36.203
36.206
36.209
36.211
36.212
36.212
36.209
36.204
36.197
36.186
36.173
36.157
36.139
36.118
36.096
36.072
36.045
36.017
35.989
35.962
35.936
35.91
35.883
35.857
35.831
35.805
35.779
35.753
35.728
35.703
35.679
35.654
35.627
35.598
35.568
35.535
35.501
35.467
35.431
35.397
35.364
35.332
35.302
35.273
35.245
35.218
35.193
35.169
35.146
35.123
35.101
35.08
35.058
35.035
35.012
34.988
34.964
34.938
34.912
34.886
34.858
34.831
34.804
34.778
34.754
34.729
34.705
34.682
34.661
34.642
34.625
34.609
34.593
34.577
34.56
34.542
34.523
34.503
34.482
34.461
34.439
34.419
34.4
34.382
34.366
34.351
34.338
34.325
34.314
34.302
34.29
34.277
34.263
34.248
34.232
34.215
34.197
34.178
34.16
34.144
34.128
34.114
34.102
34.092
34.083
34.077
34.071
34.064
34.057
34.048
34.037
34.025
34.011
33.996
33.979
33.961
33.943
33.924
33.906
33.888
33.871
33.856
33.843
33.832
33.821
33.812
33.802
33.793
33.783
33.774
33.767
33.763
33.765
33.774
33.795
33.83
33.88
33.947
34.033
34.137
34.261
34.403
34.561
34.733
34.918
35.113
35.315
35.522
35.729
35.936
36.137
36.33
36.513
36.681
36.834
36.969
37.085
37.183
37.263
37.327
37.377
37.413
37.437
37.45
37.454
37.449
37.438
37.421
37.401
37.377
37.353
37.328
37.304
37.281
37.262
37.245
37.229
37.216
37.202
37.189
37.176
37.161
37.145
37.129
37.112
37.097
37.083
37.072
37.063
37.055
37.049
37.043
37.037
37.029
37.017
37.002
36.981
36.957
36.927
36.894
36.856
36.816
36.773
36.729
36.685
36.642
36.599
36.558
36.519
36.482
36.449
36.418
36.391
36.366
36.344
36.324
36.307
36.292
36.279
36.267
36.258
36.25
36.243
36.237
36.23
36.223
36.215
36.207
36.198
36.188
36.179
36.169
36.159
36.15
36.14
36.129
36.118
36.105
36.091
36.075
36.055
36.032
36.005
35.975
35.944
35.91
35.875
35.84
35.806
35.774
35.744
35.716
35.689
35.664
35.639
35.614
35.589
35.563
35.536
35.507
35.476
35.446
35.418
35.392
35.368
35.344
35.322
35.299
35.274
35.249
35.222
35.194
35.165
35.135
35.105
35.074
35.042
35.012
34.982
34.954
34.928
34.901
34.875
34.848
34.822
34.796
34.771
34.747
34.723
34.701
34.681
34.662
34.645
34.628
34.612
34.597
34.582
34.568
34.552
34.536
34.52
34.504
34.488
34.473
34.459
34.445
34.43
34.415
34.401
34.386
34.371
34.355
34.338
34.321
34.304
34.286
34.269
34.252
34.237
34.222
34.209
34.197
34.185
34.173
34.161
34.149
34.136
34.123
34.109
34.095
34.079
34.064
34.048
34.032
34.017
34.003
33.991
33.98
33.971
33.962
33.954
33.945
33.937
33.928
33.918
33.906
33.893
33.879
33.865
33.85
33.834
33.818
33.802
33.788
33.774
33.761
33.749
33.737
33.725
33.713
33.701
33.687
33.672
33.658
33.645
33.637
33.635
33.641
33.658
33.69
33.738
33.804
33.891
33.998
34.124
34.271
34.435
34.615
34.807
35.008
35.213
35.421
35.628
35.833
36.03
36.219
36.395
36.558
36.706
36.838
36.952
37.049
37.128
37.19
37.237
37.269
37.288
37.295
37.292
37.28
37.263
37.241
37.217
37.193
37.169
37.147
37.129
37.116
37.106
37.099
37.094
37.091
37.088
37.084
37.079
37.071
37.062
37.052
37.04
37.026
37.011
36.995
36.978
36.96
36.941
36.922
36.902
36.881
36.861
36.84
36.818
36.794
36.769
36.742
36.712
36.68
36.646
36.609
36.569
36.528
36.486
36.445
36.404
36.364
36.326
36.29
36.258
36.228
36.201
36.177
36.157
36.14
36.127
36.117
36.11
36.106
36.105
36.107
36.111
36.117
36.123
36.128
36.132
36.135
36.136
36.135
36.131
36.125
36.115
36.101
36.085
36.065
36.041
36.013
35.983
35.952
35.92
35.888
35.858
35.829
35.802
35.777
35.753
35.728
35.704
35.678
35.651
35.624
35.596
35.567
35.538
35.508
35.479
35.45
35.42
35.391
35.362
35.333
35.304
35.275
35.245
35.214
35.181
35.147
35.113
35.08
35.05
35.024
35.001
34.981
34.965
34.952
34.94
34.929
34.917
34.904
34.89
34.875
34.858
34.84
34.822
34.804
34.785
34.766
34.748
34.73
34.712
34.695
34.678
34.662
34.646
34.63
34.616
34.604
34.594
34.586
34.579
34.575
34.574
34.575
34.577
34.579
34.581
34.58
34.576
34.569
34.559
34.544
34.527
34.508
34.487
34.467
34.447
34.43
34.417
34.406
34.399
34.393
34.39
34.387
34.385
34.381
34.375
34.368
34.356
34.341
34.322
34.301
34.278
34.255
34.232
34.209
34.188
34.169
34.153
34.138
34.124
34.109
34.093
34.078
34.062
34.045
34.027
34.008
33.989
33.97
33.951
33.933
33.916
33.9
33.887
33.877
33.871
33.869
33.871
33.879
33.892
33.913
33.942
33.982
34.033
34.098
34.179
34.277
34.392
34.524
34.674
34.839
35.018
35.208
35.406
35.607
35.809
36.008
36.201
36.385
36.555
36.71
36.849
36.969
37.071
37.154
37.219
37.267
37.3
37.32
37.327
37.325
37.315
37.3
37.281
37.26
37.239
37.218
37.198
37.18
37.166
37.156
37.148
37.141
37.135
37.128
37.119
37.109
37.097
37.083
37.066
37.047
37.026
37.002
36.977
36.949
36.921
36.891
36.862
36.833
36.803
36.773
36.743
36.712
36.68
36.648
36.615
36.581
36.545
36.509
36.472
36.435
36.399
36.362
36.327
36.293
36.262
36.232
36.205
36.179
36.154
36.132
36.111
36.092
36.076
36.064
36.054
36.049
36.047
36.048
36.052
36.056
36.06
36.062
36.062
36.06
36.055
36.046
36.036
36.023
36.009
35.993
35.976
35.957
35.938
35.919
35.898
35.878
35.856
35.834
35.811
35.788
35.764
35.74
35.717
35.695
35.676
35.658
35.642
35.625
35.607
35.586
35.563
35.536
35.506
35.472
35.435
35.396
35.355
35.314
35.273
35.233
35.197
35.165
35.138
35.115
35.094
35.075
35.056
35.037
35.016
34.994
34.969
34.942
34.914
34.886
34.857
34.827
34.798
34.769
34.741
34.714
34.688
34.663
34.639
34.615
34.592
34.57
34.547
34.523
34.497
34.468
34.439
34.41
34.38
34.35
34.322
34.297
34.274
34.255
34.24
34.23
34.225
34.225
34.227
34.23
34.234
34.235
34.235
34.23
34.222
34.21
34.193
34.173
34.15
34.124
34.097
34.069
34.041
34.015
33.989
33.967
33.947
33.93
33.916
33.904
33.896
33.891
33.887
33.885
33.882
33.879
33.875
33.87
33.864
33.855
33.845
33.834
33.822
33.809
33.796
33.782
33.768
33.754
33.74
33.727
33.713
33.699
33.684
33.669
33.652
33.636
33.619
33.603
33.587
33.573
33.56
33.549
33.539
33.531
33.525
33.524
33.527
33.536
33.553
33.579
33.618
33.671
33.741
33.828
33.934
34.059
34.204
34.367
34.547
34.742
34.949
35.164
35.383
35.602
35.818
36.026
36.222
36.406
36.574
36.725
36.86
36.976
37.075
37.156
37.22
37.266
37.297
37.315
37.32
37.316
37.304
37.288
37.269
37.248
37.227
37.207
37.189
37.174
37.16
37.148
37.137
37.127
37.116
37.104
37.094
37.085
37.081
37.08
37.083
37.088
37.093
37.097
37.098
37.094
37.086
37.072
37.052
37.025
36.994
36.958
36.919
36.878
36.836
36.793
36.75
36.707
36.664
36.621
36.578
36.536
36.493
36.452
36.413
36.375
36.341
36.309
36.28
36.253
36.23
36.208
36.188
36.171
36.155
36.143
36.132
36.124
36.118
36.114
36.112
36.111
36.111
36.111
36.111
36.111
36.109
36.107
36.103
36.096
36.089
36.08
36.069
36.056
36.039
36.019
35.994
35.967
35.937
35.905
35.872
35.838
35.803
35.768
35.734
35.7
35.665
35.631
35.596
35.56
35.525
35.489
35.455
35.423
35.392
35.364
35.336
35.31
35.285
35.261
35.238
35.215
35.193
35.17
35.147
35.122
35.096
35.07
35.043
35.015
34.988
34.961
34.936
34.913
34.891
34.87
34.85
34.831
34.811
34.792
34.771
34.75
34.726
34.702
34.678
34.653
34.628
34.604
34.58
34.557
34.535
34.516
34.499
34.485
34.474
34.466
34.46
34.454
34.447
34.438
34.428
34.415
34.4
34.382
34.362
