Trial 3:3back
35.649
35.67
35.69
35.71
35.727
35.743
35.755
35.765
35.771
35.774
35.774
35.772
35.768
35.763
35.757
35.75
35.742
35.733
35.724
35.715
35.707
35.699
35.691
35.684
35.678
35.671
35.664
35.655
35.645
35.633
35.621
35.608
35.595
35.583
35.57
35.556
35.542
35.526
35.509
35.491
35.474
35.456
35.439
35.422
35.407
35.392
35.379
35.366
35.355
35.344
35.334
35.325
35.317
35.309
35.3
35.292
35.284
35.274
35.264
35.253
35.241
35.227
35.213
35.199
35.186
35.173
35.162
35.152
35.144
35.137
35.132
35.127
35.123
35.118
35.113
35.108
35.102
35.097
35.092
35.086
35.081
35.074
35.068
35.062
35.056
35.051
35.047
35.043
35.039
35.034
35.03
35.027
35.024
35.023
35.022
35.023
35.025
35.027
35.029
35.032
35.037
35.044
35.053
35.065
35.081
35.101
35.127
35.159
35.198
35.244
35.296
35.355
35.419
35.49
35.564
35.642
35.723
35.806
35.889
35.971
36.051
36.126
36.197
36.262
36.319
36.369
36.411
36.445
36.472
36.492
36.506
36.513
36.515
36.511
36.501
36.485
36.466
36.443
36.419
36.392
36.365
36.337
36.309
36.283
36.257
36.232
36.208
36.186
36.165
36.144
36.122
36.099
36.075
36.049
36.02
35.989
35.956
35.921
35.886
35.85
35.815
35.781
35.751
35.723
35.699
35.679
35.662
35.647
35.636
35.626
35.618
35.61
35.602
35.594
35.587
35.58
35.573
35.569
35.567
35.567
35.571
35.577
35.588
35.602
35.619
35.64
35.663
35.688
35.714
35.738
35.762
35.783
35.802
35.819
35.832
35.841
35.848
35.852
35.854
35.855
35.854
35.853
35.851
35.849
35.846
35.842
35.837
35.832
35.826
35.819
35.811
35.802
35.792
35.781
35.768
35.753
35.735
35.716
35.696
35.674
35.652
35.629
35.607
35.585
35.564
35.543
35.523
35.504
35.486
35.469
35.453
35.438
35.424
35.409
35.394
35.379
35.365
35.351
35.336
35.322
35.307
35.292
35.275
35.257
35.238
35.219
35.201
35.185
35.171
35.159
35.15
35.142
35.137
35.132
35.129
35.127
35.125
35.122
35.12
35.117
35.113
35.108
35.102
35.094
35.085
35.075
35.063
35.05
35.037
35.023
35.009
34.995
34.982
34.97
34.96
34.951
34.945
34.941
34.94
34.941
34.945
34.953
34.965
34.981
35.001
35.026
35.055
35.087
35.124
35.165
35.212
35.265
35.323
35.388
35.459
35.534
35.615
35.7
35.788
35.878
35.969
36.06
36.149
36.235
36.317
36.393
36.462
36.524
36.577
36.622
36.658
36.685
36.703
36.712
36.713
36.706
36.692
36.673
36.65
36.624
36.597
36.568
36.54
36.512
36.484
36.456
36.429
36.404
36.379
36.356
36.334
36.313
36.292
36.27
36.248
36.225
36.201
36.178
36.154
36.131
36.108
36.085
36.063
36.042
36.021
36.002
35.984
35.968
35.953
35.939
35.926
35.915
35.904
35.893
35.883
35.873
35.862
35.85
35.839
35.829
35.82
35.814
35.81
35.809
35.812
35.819
35.829
35.842
35.857
35.875
35.894
35.913
35.932
35.95
35.966
35.981
35.994
36.004
36.011
36.016
36.018
36.018
36.015
36.01
36.004
35.996
35.987
35.977
35.965
35.952
35.939
35.926
35.913
35.9
35.889
35.878
35.868
35.857
35.846
35.834
35.82
35.805
35.787
35.767
35.743
35.718
35.691
35.663
35.636
35.61
35.585
35.563
35.542
35.524
35.509
35.497
35.486
35.478
35.47
35.464
35.458
35.452
35.446
35.439
35.43
35.421
35.41
35.397
35.384
35.369
35.353
35.337
35.319
35.301
35.281
35.261
35.242
35.222
35.203
35.185
35.169
35.153
35.14
35.128
35.119
35.112
35.108
35.105
35.104
35.103
35.103
35.104
35.105
35.106
35.106
35.106
35.105
35.102
35.098
35.094
35.091
35.089
35.09
35.095
35.103
35.115
35.131
35.153
35.181
35.215
35.255
35.303
35.356
35.417
35.483
35.554
35.63
35.711
35.795
35.88
35.967
36.053
36.138
36.22
36.299
36.374
36.443
36.507
36.565
36.617
36.662
36.7
36.732
36.755
36.772
36.781
36.783
36.779
36.768
36.753
36.732
36.708
36.682
36.653
36.622
36.591
36.56
36.531
36.503
36.477
36.454
36.432
36.411
36.393
36.375
36.358
36.342
36.325
36.307
36.288
36.266
36.242
36.215
36.184
36.152
36.117
36.083
36.048
36.014
35.982
35.952
35.925
35.901
35.88
35.862
35.848
35.838
35.831
35.827
35.825
35.824
35.825
35.827
35.83
35.835
35.841
35.85
35.859
35.87
35.881
35.893
35.906
35.918
35.929
35.94
35.949
35.957
35.963
35.966
35.968
35.968
35.967
35.966
35.964
35.962
35.959
35.955
35.951
35.947
35.944
35.939
35.935
35.929
35.922
35.914
35.903
35.892
35.879
35.865
35.851
35.837
35.822
35.807
35.791
35.774
35.757
35.738
35.719
35.7
35.681
35.663
35.645
35.628
35.612
35.597
35.582
35.567
35.553
35.54
35.527
35.515
35.502
35.489
35.474
35.458
35.442
35.424
35.407
35.389
35.371
35.354
35.337
35.322
35.307
35.294
35.284
35.275
35.268
35.262
35.257
35.254
35.252
35.249
35.246
35.243
35.237
35.23
35.222
35.211
35.2
35.187
35.173
35.159
35.145
35.131
35.117
35.104
35.092
35.081
35.071
35.062
35.055
35.048
35.043
35.04
35.037
35.035
35.034
35.034
35.035
35.037
35.04
35.045
35.05
35.057
35.066
35.077
35.091
35.111
35.136
35.169
35.211
35.261
35.32
35.387
35.464
35.547
35.638
35.734
35.833
35.933
36.032
36.129
36.221
36.306
36.384
36.453
36.512
36.561
36.6
36.628
36.648
36.658
36.661
36.658
36.649
36.635
36.618
36.598
36.578
36.556
36.534
36.512
36.49
36.468
36.446
36.425
36.403
36.382
36.361
36.339
36.316
36.291
36.265
36.237
36.207
36.176
36.145
36.113
36.081
36.05
36.02
35.992
35.966
35.942
35.921
35.9
35.881
35.863
35.847
35.832
35.818
35.805
35.793
35.781
35.771
35.761
35.753
35.747
35.744
35.744
35.746
35.753
35.762
35.775
35.789
35.805
35.822
35.84
35.857
35.874
35.89
35.906
35.921
35.936
35.95
35.964
35.975
35.986
35.994
36.0
36.004
36.006
36.007
36.006
36.003
35.998
35.99
35.98
35.969
35.957
35.943
35.928
35.912
35.895
35.877
35.858
35.839
35.82
35.802
35.784
35.765
35.747
35.729
35.71
35.691
35.672
35.652
35.631
35.61
35.589
35.569
35.549
35.531
35.513
35.496
35.479
35.463
35.447
35.432
35.418
35.404
35.391
35.378
35.366
35.355
35.344
35.333
35.322
35.311
35.301
35.29
35.28
35.271
35.263
35.255
35.248
35.242
35.235
35.228
35.221
35.213
35.205
35.197
35.19
35.182
35.173
35.164
35.155
35.145
35.137
35.129
35.121
35.115
35.11
35.106
35.102
35.1
35.097
35.096
35.094
35.092
35.091
35.09
35.09
35.091
35.093
35.097
35.104
35.116
35.134
35.159
35.192
35.234
35.285
35.345
35.413
35.49
35.574
35.664
35.76
35.858
35.958
36.057
36.153
36.246
36.333
36.413
36.484
36.548
36.602
36.647
36.683
36.71
36.73
36.743
36.751
36.753
36.752
36.746
36.738
36.727
36.713
36.698
36.681
36.663
36.644
36.624
36.603
36.581
36.559
36.537
36.515
36.492
36.469
36.447
36.425
36.403
36.382
36.361
36.339
36.316
36.291
36.265
36.238
36.209
36.18
36.15
36.12
36.09
36.06
36.03
36.001
35.973
35.945
35.919
35.895
35.873
35.855
35.84
35.83
35.824
35.823
35.827
35.835
35.847
35.863
35.882
35.904
35.927
35.95
35.973
35.995
36.014
36.029
36.04
36.047
36.05
36.05
36.047
36.041
36.035
36.029
36.022
36.017
36.014
36.011
36.011
36.012
36.014
36.017
36.019
36.02
36.019
36.016
36.01
36.001
35.99
35.977
35.963
35.946
35.928
35.908
35.887
35.865
35.841
35.818
35.794
35.771
35.749
35.728
35.709
35.693
35.679
35.668
35.659
35.653
35.647
35.642
35.636
35.63
35.621
35.611
35.599
35.585
35.568
35.548
35.526
35.503
35.479
35.456
35.433
35.412
35.393
35.376
35.36
35.347
35.336
35.328
35.321
35.315
35.309
35.304
35.298
35.291
35.282
35.271
35.258
35.244
35.229
35.213
35.198
35.183
35.169
35.156
35.143
35.131
35.121
35.112
35.104
35.098
35.093
35.09
35.086
35.084
35.083
35.083
35.083
35.085
35.088
35.092
35.098
35.108
35.122
35.141
35.167
35.201
35.242
35.292
35.349
35.415
35.489
35.569
35.656
35.748
35.843
35.941
36.039
36.135
36.228
36.316
36.397
36.469
36.531
36.585
36.629
36.665
36.693
36.715
36.73
36.739
36.743
36.742
36.736
36.727
36.714
36.698
36.679
36.658
36.635
36.61
36.585
36.56
36.536
36.513
36.491
36.469
36.447
36.426
36.403
36.38
36.356
36.331
36.307
36.282
36.257
36.234
36.21
36.187
36.164
36.141
36.118
36.094
36.07
36.045
36.02
35.994
35.969
35.944
35.92
35.897
35.874
35.853
35.834
35.816
35.801
35.789
35.78
35.774
35.773
35.775
35.782
35.793
35.808
35.825
35.843
35.861
35.878
35.894
35.908
35.921
35.933
35.943
35.953
35.96
35.966
35.97
35.973
35.974
35.973
35.971
35.968
35.962
35.955
35.946
35.937
35.926
35.914
35.901
35.888
35.873
35.857
35.841
35.823
35.805
35.787
35.768
35.748
35.728
35.708
35.688
35.667
35.645
35.623
35.6
35.576
35.552
35.528
35.504
35.481
35.459
35.438
35.418
35.398
35.38
35.362
35.345
35.328
35.312
35.295
35.279
35.264
35.25
35.237
35.226
35.216
35.207
35.2
35.192
35.184
35.175
35.166
35.156
35.146
35.136
35.126
35.116
35.105
35.094
35.083
35.07
35.058
35.046
35.033
35.021
35.009
34.997
34.985
34.973
34.962
34.95
34.938
34.926
34.914
34.903
34.892
34.881
34.871
34.861
34.852
34.844
34.837
34.832
34.828
34.826
34.825
34.826
34.83
34.837
34.848
34.864
34.884
34.91
34.942
34.98
35.025
35.078
35.137
35.202
35.273
35.349
35.429
35.512
35.597
35.682
35.767
35.851
35.932
36.009
36.083
36.152
36.216
36.275
36.327
36.373
36.412
36.443
36.467
36.484
36.493
36.494
36.489
36.477
36.46
36.439
36.413
36.384
36.354
36.322
36.29
36.259
36.229
36.203
36.179
36.158
36.139
36.122
36.107
36.092
36.078
36.063
36.048
36.032
36.013
35.991
35.966
35.937
35.905
35.871
35.836
35.8
35.764
35.729
35.695
35.663
35.633
35.607
35.585
35.567
35.553
35.542
35.536
35.534
35.535
35.54
35.549
35.559
35.57
35.582
35.593
35.603
35.611
35.618
35.624
35.628
35.631
35.634
35.637
35.641
35.646
35.653
35.66
35.667
35.675
35.683
35.692
35.7
35.708
35.714
35.719
35.72
35.719
35.714
35.707
35.697
35.684
35.669
35.652
35.632
35.612
35.59
35.568
35.545
35.523
35.501
35.48
35.46
35.442
35.425
35.409
35.395
35.381
35.369
35.357
35.344
35.331
35.317
35.301
35.285
35.267
35.248
35.229
35.21
35.192
35.174
35.157
35.14
35.123
35.106
35.09
35.075
35.061
35.05
35.041
35.034
35.029
35.025
35.023
35.022
35.021
35.019
35.016
35.01
35.003
34.994
34.983
34.972
34.96
34.949
34.939
34.929
34.919
34.909
34.898
34.886
34.875
34.863
34.852
34.841
34.83
34.821
34.813
34.806
34.801
34.796
34.791
34.786
34.781
34.777
34.773
34.771
34.771
34.773
34.778
34.786
34.798
34.814
34.835
34.861
34.894
34.933
34.978
35.031
35.09
35.155
35.225
35.3
35.377
35.456
35.536
35.616
35.696
35.774
35.849
35.92
35.986
36.045
36.098
36.143
36.181
36.213
36.237
36.254
36.265
36.268
36.267
36.26
36.248
36.233
36.215
36.194
36.171
36.147
36.122
36.098
36.074
36.051
36.029
36.008
35.986
35.965
35.944
35.922
35.898
35.874
35.848
35.821
35.793
35.765
35.736
35.706
35.675
35.642
35.609
35.574
35.539
35.505
35.473
35.444
35.418
35.396
35.378
35.363
35.352
35.345
35.342
35.342
35.344
35.349
35.354
35.361
35.368
35.376
35.385
35.395
35.406
35.419
35.433
35.448
35.464
35.48
35.497
35.514
35.53
35.545
35.557
35.567
35.573
35.576
35.575
35.57
35.561
35.55
35.537
35.523
35.507
35.49
35.471
35.452
35.432
35.412
35.393
35.375
35.358
35.343
35.329
35.317
35.307
35.299
35.291
35.285
35.279
35.274
35.268
35.261
35.252
35.241
35.228
35.214
35.197
35.179
35.158
35.135
35.111
35.087
35.062
35.039
35.017
34.998
34.981
34.967
34.955
34.946
34.939
34.933
34.927
34.922
34.916
34.91
34.903
34.894
34.884
34.873
34.86
34.847
34.833
34.819
34.806
34.793
34.782
34.772
34.763
34.755
34.747
34.741
34.735
34.729
34.724
34.719
34.715
34.711
34.706
34.702
34.698
34.694
34.689
34.683
34.677
34.671
34.665
34.659
34.653
34.646
34.639
34.631
34.623
34.614
34.605
34.597
34.589
34.582
34.575
34.57
34.567
34.565
34.565
34.568
34.572
34.58
34.591
34.606
34.626
34.65
34.681
34.718
34.762
34.813
34.873
34.941
35.016
35.099
35.186
35.277
35.371
35.466
35.56
35.652
35.74
35.822
35.897
35.964
36.023
36.074
36.116
36.15
36.177
36.196
36.208
36.213
36.211
36.205
36.195
36.181
36.164
36.144
36.123
36.101
36.078
36.054
36.032
36.011
35.992
35.975
35.959
35.944
35.93
35.917
35.904
35.89
35.876
35.861
35.845
35.828
35.81
35.79
35.77
35.748
35.727
35.704
35.682
35.66
35.639
35.618
35.598
35.579
35.56
35.543
35.528
35.513
35.501
35.489
35.479
35.469
35.459
35.449
35.441
35.435
35.431
35.431
35.432
35.436
35.441
35.447
35.455
35.464
35.475
35.488
35.501
35.514
35.526
35.536
35.545
35.553
35.558
35.561
35.561
35.559
35.554
35.547
35.539
35.529
35.518
35.507
35.494
35.481
35.467
35.452
35.437
35.422
35.406
35.389
35.372
35.355
35.338
35.32
35.303
35.285
35.268
35.25
35.233
35.216
35.199
35.183
35.168
35.153
35.139
35.126
35.113
35.102
35.09
35.079
35.067
35.055
35.042
35.027
35.012
34.995
34.978
34.96
34.942
34.925
34.908
34.893
34.878
34.865
34.853
34.843
34.835
34.828
34.823
34.82
34.819
34.818
34.818
34.819
34.82
34.819
34.818
34.816
34.812
34.806
34.799
34.79
34.779
34.767
34.754
34.74
34.725
34.711
34.697
34.683
34.671
34.66
34.652
34.648
34.645
34.644
34.643
34.641
34.639
34.636
34.632
34.627
34.62
34.612
34.603
34.594
34.586
34.578
34.571
34.565
34.56
34.555
34.551
34.549
34.55
34.555
34.566
34.582
34.606
34.636
34.674
34.719
34.771
34.831
34.897
34.97
35.049
35.132
35.219
35.308
35.396
35.482
35.564
35.641
35.712
35.776
35.833
35.882
35.925
35.96
35.988
36.01
36.025
36.034
36.037
36.036
36.029
36.018
36.003
35.985
35.964
35.942
35.919
35.895
35.872
35.849
35.825
35.802
35.779
35.757
35.735
35.714
35.693
35.672
35.652
35.632
35.613
35.594
35.575
35.556
35.536
35.516
35.495
35.473
35.45
35.427
35.404
35.38
35.357
35.334
35.312
35.291
35.272
35.255
35.241
35.23
35.221
35.215
35.213
35.212
35.213
35.215
35.218
35.222
35.226
35.23
35.234
35.238
35.241
35.244
35.246
35.247
35.248
35.249
35.251
35.254
35.258
35.262
35.266
35.27
35.273
35.277
35.279
35.282
35.283
35.282
35.28
35.275
35.269
35.26
35.249
35.236
35.221
35.206
35.19
35.172
35.154
35.136
35.118
35.101
35.084
35.068
35.053
35.039
35.027
35.016
35.006
34.998
34.991
34.985
34.979
34.973
34.966
34.959
34.95
34.941
34.929
34.917
34.903
34.889
34.874
34.859
34.843
34.826
34.809
34.791
34.774
34.758
34.742
34.727
34.712
34.697
34.683
34.67
34.657
34.645
34.634
34.623
34.613
34.603
34.595
34.588
34.581
34.574
34.568
34.561
34.554
34.547
34.541
34.534
34.528
34.522
34.516
34.51
34.504
34.499
34.495
34.491
34.488
34.485
34.483
34.482
34.481
34.48
34.479
34.477
34.474
34.47
34.464
34.458
34.451
34.444
34.436
34.426
34.415
34.404
34.392
34.38
34.369
34.36
34.355
34.352
34.355
34.364
34.379
34.401
34.431
34.47
34.516
34.571
34.633
34.703
34.78
34.863
34.949
35.037
35.125
35.212
35.295
35.375
35.45
35.52
35.582
35.637
35.684
35.723
35.754
35.777
35.794
35.804
35.808
35.807
35.802
35.794
35.783
35.77
35.756
35.74
35.723
35.705
35.687
35.667
35.646
35.624
35.6
35.576
35.551
35.526
35.501
35.476
35.451
35.426
35.401
35.376
35.352
35.328
35.305
35.282
35.261
35.239
35.219
35.198
35.178
35.158
35.14
35.122
35.107
35.092
35.079
35.067
35.056
35.047
35.04
35.034
35.03
35.027
35.027
35.029
35.032
35.038
35.047
35.058
35.072
35.088
35.106
35.126
35.147
35.168
35.19
35.211
35.232
35.251
35.267
35.281
35.291
35.298
35.3
35.299
35.296
35.29
35.282
35.274
35.265
35.256
35.247
35.238
35.23
35.221
35.212
35.203
35.194
35.184
35.172
35.16
35.147
35.133
35.119
35.105
35.091
35.077
35.064
35.052
35.04
35.029
35.019
35.009
35.0
34.99
34.98
34.97
34.959
34.949
34.939
34.929
34.919
34.91
34.899
34.888
34.876
34.863
34.849
34.835
34.82
34.804
34.789
34.774
34.76
34.746
34.734
34.724
34.716
34.708
34.702
34.697
34.693
34.689
34.686
34.681
34.675
34.668
34.66
34.651
34.643
34.635
34.626
34.619
34.611
34.604
34.598
34.592
34.588
34.585
34.583
34.581
34.579
34.576
34.573
34.568
34.563
34.558
34.552
34.546
34.539
34.532
34.525
34.518
34.51
34.502
34.493
34.485
34.477
34.47
34.464
34.46
34.458
34.46
34.466
34.476
34.491
34.513
34.541
34.576
34.62
34.672
34.731
34.796
34.867
34.941
35.017
35.096
35.174
35.252
35.327
35.398
35.465
35.528
35.586
35.638
35.685
35.727
35.764
35.795
35.821
35.841
35.856
35.866
35.872
35.874
35.873
35.868
35.86
35.848
35.834
35.817
35.797
35.776
35.753
35.729
35.705
35.681
35.658
35.637
35.616
35.597
35.58
35.563
35.547
35.53
35.513
35.496
35.478
35.461
35.443
35.424
35.405
35.385
35.363
35.34
35.316
35.29
35.264
35.237
35.209
35.182
35.157
35.134
35.115
35.099
35.088
35.082
35.081
35.085
35.094
35.107
35.123
35.141
35.159
35.178
35.197
35.215
35.232
35.248
35.262
35.273
35.283
35.291
35.298
35.304
35.309
35.313
35.318
35.323
35.328
35.333
35.337
35.341
35.345
35.348
35.349
35.349
35.348
35.346
35.341
35.333
35.324
35.311
35.296
35.278
35.258
35.236
35.213
35.19
35.167
35.145
35.125
35.106
35.09
35.077
35.068
35.061
35.056
35.053
35.049
35.045
35.041
35.035
35.028
35.019
35.007
34.992
34.976
34.958
34.94
34.921
34.904
34.887
34.872
34.857
34.845
34.835
34.827
34.822
34.818
34.817
34.817
34.817
34.818
34.819
34.819
34.819
34.819
34.817
34.813
34.807
34.8
34.792
34.782
34.772
34.761
34.751
34.741
34.733
34.726
34.721
34.719
34.718
34.719
34.72
34.721
34.722
34.723
34.724
34.724
34.723
34.722
34.721
34.72
34.72
34.72
34.721
34.721
34.72
34.719
34.716
34.711
34.705
34.698
34.689
34.678
34.667
34.656
34.646
34.637
34.628
34.621
34.616
34.612
34.611
34.613
34.618
34.627
34.64
34.657
34.677
34.702
34.731
34.766
34.808
34.856
34.911
34.973
35.042
35.115
35.193
35.275
35.359
35.444
35.529
35.611
35.69
35.764
35.831
35.891
35.943
35.986
36.022
36.05
36.071
36.085
36.094
36.098
36.096
36.089
36.077
36.061
36.041
36.02
35.997
35.974
35.951
35.928
35.906
35.885
35.865
35.846
35.828
35.81
35.794
35.777
35.761
35.745
35.729
35.714
35.7
35.685
35.671
35.656
35.64
35.622
35.602
35.579
35.555
35.528
35.501
35.474
35.448
35.423
35.399
35.379
35.36
35.345
35.332
35.323
35.317
35.313
35.311
35.312
35.314
35.318
35.322
35.328
35.334
35.341
35.349
35.358
35.367
35.376
35.385
35.394
35.402
35.409
35.415
35.419
35.422
35.424
35.424
35.424
35.422
35.421
35.419
35.417
35.415
35.412
35.408
35.403
35.397
35.389
35.38
35.369
35.357
35.342
35.327
35.31
35.292
35.274
35.255
35.237
35.219
35.201
35.183
35.165
35.147
35.129
35.112
35.094
35.077
35.061
35.046
35.033
35.021
35.011
35.002
34.993
34.984
34.976
34.968
34.96
34.952
34.944
34.937
34.93
34.923
34.915
34.908
34.9
34.892
34.883
34.873
34.862
34.849
34.836
34.824
34.812
34.8
34.79
34.78
34.771
34.763
34.756
34.75
34.744
34.739
34.734
34.73
34.725
34.72
34.715
34.709
34.702
34.694
34.685
34.674
34.663
34.65
34.637
34.623
34.611
34.599
34.59
