Trial 3:3back
35.216
35.18
35.144
35.109
35.075
35.042
35.01
34.98
34.95
34.921
34.892
34.863
34.835
34.806
34.778
34.749
34.721
34.692
34.664
34.637
34.61
34.584
34.559
34.536
34.516
34.499
34.486
34.479
34.48
34.491
34.514
34.55
34.602
34.669
34.754
34.857
34.978
35.116
35.27
35.439
35.62
35.811
36.009
36.21
36.412
36.61
36.803
36.986
37.158
37.315
37.457
37.582
37.689
37.779
37.851
37.905
37.943
37.966
37.975
37.971
37.957
37.933
37.901
37.863
37.821
37.775
37.726
37.677
37.627
37.577
37.528
37.48
37.433
37.387
37.341
37.296
37.252
37.208
37.164
37.119
37.074
37.026
36.976
36.924
36.87
36.815
36.758
36.702
36.647
36.592
36.538
36.487
36.438
36.392
36.349
36.309
36.273
36.241
36.212
36.188
36.168
36.151
36.137
36.125
36.116
36.108
36.103
36.099
36.096
36.093
36.091
36.088
36.086
36.082
36.078
36.072
36.064
36.055
36.044
36.032
36.018
36.003
35.986
35.968
35.948
35.927
35.905
35.881
35.857
35.832
35.807
35.782
35.757
35.731
35.704
35.677
35.648
35.618
35.588
35.556
35.525
35.493
35.461
35.43
35.398
35.368
35.337
35.307
35.277
35.247
35.216
35.186
35.155
35.123
35.092
35.06
35.028
34.996
34.963
34.93
34.897
34.863
34.829
34.796
34.763
34.731
34.7
34.669
34.638
34.609
34.58
34.551
34.524
34.497
34.473
34.451
34.434
34.422
34.416
34.42
34.434
34.461
34.501
34.556
34.627
34.715
34.819
34.94
35.077
35.227
35.391
35.565
35.746
35.933
36.122
36.31
36.494
36.671
36.838
36.994
37.135
37.26
37.369
37.461
37.536
37.595
37.637
37.664
37.676
37.675
37.663
37.641
37.611
37.575
37.533
37.487
37.438
37.386
37.333
37.277
37.221
37.163
37.104
37.045
36.985
36.925
36.865
36.806
36.746
36.686
36.626
36.565
36.504
36.443
36.382
36.32
36.258
36.197
36.137
36.078
36.02
35.963
35.907
35.853
35.801
35.752
35.707
35.665
35.628
35.595
35.566
35.542
35.522
35.505
35.492
35.482
35.475
35.471
35.47
35.469
35.47
35.471
35.473
35.474
35.474
35.472
35.469
35.465
35.458
35.449
35.437
35.422
35.404
35.383
35.36
35.334
35.306
35.277
35.246
35.214
35.18
35.146
35.11
35.073
35.035
34.996
34.957
34.918
34.879
34.84
34.801
34.764
34.727
34.691
34.655
34.621
34.587
34.553
34.521
34.488
34.456
34.425
34.393
34.362
34.331
34.3
34.268
34.236
34.205
34.173
34.142
34.111
34.081
34.051
34.021
33.993
33.965
33.937
33.911
33.885
33.859
33.835
33.812
33.79
33.769
33.752
33.738
33.729
33.727
33.732
33.746
33.771
33.809
33.859
33.924
34.004
34.1
34.21
34.334
34.472
34.621
34.779
34.943
35.112
35.281
35.448
35.611
35.766
35.911
36.045
36.165
36.27
36.359
36.433
36.491
36.535
36.565
36.582
36.587
36.582
36.568
36.546
36.516
36.481
36.44
36.396
36.348
36.298
36.246
36.194
36.14
36.087
36.033
35.98
35.928
35.875
35.824
35.772
35.721
35.67
35.619
35.567
35.515
35.462
35.41
35.357
35.304
35.252
35.201
35.152
35.105
35.06
35.018
34.979
34.944
34.912
34.883
34.857
34.834
34.813
34.796
34.782
34.77
34.761
34.753
34.748
34.745
34.743
34.742
34.742
34.743
34.743
34.743
34.742
34.739
34.735
34.729
34.721
34.711
34.699
34.686
34.671
34.655
34.638
34.62
34.601
34.581
34.559
34.537
34.512
34.485
34.456
34.425
34.392
34.358
34.323
34.286
34.25
34.213
34.177
34.141
34.106
34.071
34.037
34.004
33.97
33.937
33.905
33.874
33.843
33.813
33.785
33.757
33.73
33.704
33.678
33.654
33.63
33.606
33.584
33.561
33.54
33.518
33.497
33.476
33.455
33.435
33.415
33.396
33.378
33.362
33.348
33.338
33.333
33.334
33.342
33.36
33.388
33.428
33.481
33.548
33.63
33.727
33.838
33.964
34.104
34.255
34.416
34.585
34.759
34.935
35.11
35.282
35.446
35.602
35.745
35.875
35.991
36.09
36.173
36.24
36.29
36.326
36.349
36.359
36.358
36.347
36.329
36.305
36.275
36.241
36.203
36.162
36.12
36.077
36.032
35.988
35.943
35.899
35.857
35.815
35.774
35.735
35.696
35.658
35.622
35.585
35.55
35.515
35.479
35.443
35.406
35.369
35.33
35.291
35.252
35.212
35.172
35.133
35.095
35.058
35.024
34.992
34.964
34.938
34.916
34.898
34.883
34.872
34.865
34.862
34.862
34.866
34.872
34.881
34.89
34.901
34.911
34.921
34.93
34.937
34.942
34.946
34.947
34.946
34.943
34.939
34.933
34.926
34.917
34.908
34.896
34.883
34.869
34.853
34.836
34.817
34.797
34.776
34.754
34.731
34.707
34.683
34.657
34.63
34.604
34.577
34.552
34.527
34.503
34.48
34.458
34.437
34.415
34.393
34.371
34.349
34.326
34.303
34.28
34.257
34.234
34.211
34.188
34.165
34.143
34.121
34.099
34.078
34.057
34.037
34.017
33.997
33.978
33.96
33.943
33.929
33.917
33.91
33.91
33.917
33.934
33.963
34.006
34.064
34.138
34.23
34.34
34.466
34.608
34.764
34.933
35.112
35.298
35.488
35.679
35.867
36.05
36.224
36.387
36.539
36.676
36.799
36.906
36.998
37.074
37.134
37.181
37.213
37.234
37.244
37.244
37.236
37.222
37.202
37.178
37.151
37.122
37.092
37.061
37.029
36.997
36.964
36.931
36.898
36.864
36.829
36.795
36.759
36.723
36.686
36.649
36.61
36.57
36.529
36.487
36.443
36.398
36.352
36.305
36.257
36.211
36.164
36.119
36.075
36.031
35.99
35.95
35.911
35.875
35.841
35.81
35.781
35.756
35.735
35.717
35.703
35.693
35.686
35.683
35.682
35.685
35.69
35.697
35.706
35.716
35.726
35.737
35.747
35.755
35.76
35.763
35.763
35.76
35.753
35.742
35.729
35.713
35.694
35.673
35.649
35.624
35.597
35.568
35.538
35.507
35.475
35.442
35.409
35.375
35.34
35.306
35.273
35.24
35.207
35.176
35.145
35.115
35.087
35.061
35.035
35.011
34.989
34.967
34.947
34.927
34.908
34.889
34.871
34.853
34.836
34.818
34.799
34.78
34.76
34.739
34.717
34.695
34.671
34.648
34.626
34.606
34.589
34.576
34.568
34.568
34.577
34.597
34.629
34.675
34.736
34.813
34.907
35.018
35.145
35.287
35.441
35.605
35.777
35.954
36.133
36.311
36.487
36.657
36.818
36.969
37.108
37.233
37.343
37.438
37.517
37.58
37.628
37.661
37.679
37.684
37.677
37.659
37.632
37.597
37.556
37.51
37.461
37.409
37.356
37.301
37.247
37.193
37.14
37.088
37.038
36.991
36.946
36.904
36.864
36.826
36.788
36.752
36.717
36.682
36.647
36.611
36.575
36.538
36.5
36.461
36.421
36.381
36.34
36.299
36.26
36.222
36.186
36.154
36.124
36.099
36.078
36.06
36.047
36.036
36.029
36.023
36.02
36.019
36.018
36.018
36.019
36.021
36.023
36.025
36.026
36.028
36.028
36.028
36.026
36.022
36.017
36.009
36.0
35.987
35.973
35.956
35.937
35.916
35.893
35.869
35.843
35.817
35.789
35.761
35.733
35.704
35.675
35.645
35.616
35.586
35.556
35.527
35.497
35.468
35.439
35.41
35.382
35.354
35.326
35.298
35.27
35.242
35.214
35.186
35.159
35.131
35.104
35.078
35.051
35.025
34.999
34.973
34.947
34.922
34.897
34.871
34.846
34.822
34.798
34.775
34.752
34.731
34.712
34.697
34.685
34.68
34.681
34.692
34.714
34.749
34.798
34.861
34.94
35.034
35.144
35.268
35.406
35.555
35.714
35.88
36.05
36.221
36.39
36.555
36.712
36.859
36.995
37.117
37.225
37.318
37.395
37.457
37.503
37.534
37.552
37.558
37.552
37.536
37.511
37.479
37.44
37.398
37.351
37.302
37.251
37.198
37.144
37.089
37.035
36.98
36.925
36.87
36.816
36.762
36.709
36.656
36.603
36.549
36.496
36.443
36.389
36.335
36.281
36.226
36.172
36.119
36.066
36.015
35.966
35.919
35.875
35.834
35.797
35.763
35.734
35.709
35.688
35.672
35.659
35.651
35.646
35.644
35.644
35.646
35.65
35.655
35.661
35.668
35.675
35.682
35.688
35.693
35.697
35.7
35.701
35.699
35.696
35.69
35.681
35.669
35.655
35.639
35.62
35.601
35.58
35.557
35.534
35.51
35.484
35.458
35.43
35.4
35.37
35.339
35.309
35.279
35.25
35.222
35.195
35.169
35.143
35.117
35.091
35.065
35.04
35.015
34.992
34.969
34.947
34.926
34.905
34.884
34.863
34.842
34.821
34.8
34.779
34.758
34.736
34.715
34.693
34.672
34.65
34.629
34.608
34.588
34.569
34.553
34.54
34.531
34.528
34.531
34.542
34.563
34.595
34.641
34.701
34.777
34.868
34.976
35.099
35.236
35.384
35.543
35.708
35.878
36.049
36.218
36.383
36.54
36.688
36.824
36.948
37.057
37.152
37.232
37.296
37.347
37.384
37.409
37.424
37.427
37.422
37.409
37.389
37.364
37.335
37.301
37.265
37.227
37.188
37.147
37.106
37.064
37.022
36.981
36.939
36.897
36.856
36.815
36.774
36.734
36.693
36.653
36.613
36.573
36.533
36.493
36.452
36.411
36.371
36.33
36.29
36.251
36.212
36.175
36.14
36.108
36.078
36.052
36.03
36.012
35.998
35.987
35.98
35.977
35.976
35.978
35.981
35.987
35.994
36.002
36.011
36.019
36.026
36.031
36.034
36.034
36.03
36.023
36.013
35.999
35.982
35.962
35.94
35.916
35.89
35.863
35.834
35.806
35.776
35.747
35.717
35.688
35.659
35.631
35.604
35.577
35.551
35.526
35.501
35.476
35.451
35.427
35.402
35.378
35.353
35.328
35.302
35.276
35.25
35.223
35.196
35.169
35.141
35.113
35.084
35.055
35.026
34.997
34.967
34.938
34.908
34.879
34.85
34.821
34.794
34.767
34.74
34.714
34.689
34.665
34.641
34.619
34.6
34.584
34.572
34.568
34.571
34.584
34.609
34.647
34.699
34.766
34.849
34.946
35.058
35.183
35.319
35.465
35.618
35.775
35.935
36.094
36.25
36.4
36.541
36.672
36.792
36.898
36.99
37.069
37.133
37.183
37.22
37.244
37.256
37.256
37.247
37.23
37.206
37.176
37.141
37.103
37.061
37.018
36.972
36.926
36.879
36.831
36.783
36.734
36.686
36.638
36.59
36.543
36.496
36.45
36.403
36.357
36.31
36.263
36.214
36.165
36.115
36.064
36.012
35.96
35.908
35.856
35.806
35.757
35.709
35.664
35.621
35.58
35.543
35.508
35.477
35.45
35.427
35.408
35.392
35.381
35.372
35.366
35.361
35.357
35.353
35.35
35.347
35.343
35.339
35.334
35.329
35.322
35.313
35.302
35.288
35.272
35.254
35.234
35.213
35.19
35.165
35.138
35.11
35.08
35.048
35.015
34.981
34.946
34.911
34.875
34.839
34.804
34.768
34.734
34.7
34.667
34.634
34.603
34.573
34.543
34.514
34.486
34.458
34.43
34.402
34.374
34.345
34.317
34.288
34.259
34.23
34.202
34.173
34.145
34.116
34.087
34.058
34.029
33.999
33.968
33.936
33.904
33.871
33.84
33.81
33.781
33.755
33.733
33.715
33.703
33.698
33.702
33.716
33.742
33.782
33.835
33.903
33.985
34.082
34.191
34.312
34.442
34.581
34.725
34.873
35.021
35.167
35.309
35.444
35.571
35.686
35.789
35.879
35.955
36.017
36.064
36.098
36.119
36.129
36.127
36.117
36.098
36.072
36.041
36.006
35.967
35.926
35.882
35.837
35.791
35.744
35.697
35.65
35.604
35.557
35.512
35.466
35.421
35.376
35.33
35.283
35.236
35.188
35.138
35.087
35.036
34.983
34.93
34.877
34.824
34.772
34.722
34.673
34.626
34.581
34.539
34.5
34.464
34.431
34.401
34.374
34.35
34.329
34.311
34.295
34.282
34.272
34.263
34.256
34.251
34.247
34.243
34.24
34.237
34.234
34.231
34.228
34.224
34.219
34.213
34.206
34.197
34.186
34.174
34.161
34.146
34.131
34.115
34.098
34.08
34.062
34.042
34.022
34.001
33.98
33.958
33.934
33.91
33.886
33.861
33.836
33.81
33.785
33.76
33.735
33.71
33.686
33.662
33.64
33.619
33.599
33.58
33.562
33.545
33.528
33.512
33.495
33.478
33.461
33.444
33.427
33.409
33.393
33.376
33.361
33.346
33.332
33.319
33.307
33.295
33.285
33.276
33.27
33.266
33.267
33.275
33.292
33.319
33.358
33.409
33.475
33.556
33.651
33.76
33.882
34.016
34.161
34.314
34.474
34.639
34.805
34.971
35.133
35.289
35.436
35.573
35.698
35.811
35.911
35.998
36.071
36.132
36.18
36.217
36.243
36.259
36.265
36.264
36.255
36.241
36.221
36.196
36.168
36.135
36.099
36.061
36.021
35.979
35.938
35.896
35.854
35.812
35.77
35.729
35.689
35.649
35.609
35.569
35.529
35.489
35.45
35.41
35.371
35.334
35.297
35.261
35.227
35.195
35.164
35.136
35.11
35.087
35.067
35.049
35.033
35.02
35.009
35.0
34.992
34.985
34.98
34.975
34.97
34.967
34.964
34.962
34.961
34.96
34.96
34.961
34.962
34.963
34.964
34.964
34.963
34.962
34.959
34.954
34.948
34.939
34.929
34.917
34.903
34.887
34.869
34.85
34.83
34.809
34.787
34.764
34.741
34.717
34.694
34.67
34.647
34.623
34.601
34.578
34.556
34.535
34.513
34.491
34.468
34.444
34.42
34.396
34.371
34.346
34.322
34.297
34.273
34.249
34.225
34.202
34.179
34.156
34.133
34.11
34.089
34.069
34.049
34.031
34.015
34.0
33.988
33.978
33.972
33.971
33.975
33.986
34.006
34.037
34.079
34.133
34.202
34.285
34.382
34.494
34.618
34.755
34.901
35.054
35.213
35.374
35.534
35.692
35.843
35.987
36.12
36.242
36.352
36.448
36.53
36.599
36.654
36.697
36.728
36.747
36.757
36.758
36.751
36.738
36.72
36.698
36.674
36.647
36.619
36.589
36.559
36.528
36.496
36.464
36.432
36.401
36.369
36.337
36.305
36.271
36.236
36.201
36.163
36.125
36.085
36.043
36.001
35.959
35.918
35.877
35.837
35.799
35.763
35.729
35.697
35.667
35.64
35.616
35.594
35.576
35.561
35.549
35.54
35.533
35.529
35.527
35.526
35.526
35.527
35.529
35.531
35.534
35.536
35.538
35.541
35.543
35.544
35.544
35.543
35.541
35.537
35.532
35.525
35.517
35.509
35.499
35.488
35.476
35.462
35.447
35.43
35.411
35.39
35.367
35.342
35.315
35.286
35.256
35.226
35.194
35.163
35.133
35.103
35.074
35.045
35.018
34.992
34.967
34.943
34.921
34.9
34.881
34.864
34.847
34.831
34.815
34.798
34.781
34.763
34.744
34.724
34.705
34.686
34.667
34.649
34.632
34.616
34.602
34.588
34.576
34.566
34.558
34.552
34.551
34.555
34.566
34.584
34.613
34.652
34.704
34.77
34.848
34.941
35.048
35.167
35.298
35.439
35.588
35.742
35.899
36.056
36.211
36.36
36.502
36.636
36.758
36.869
36.967
37.052
37.124
37.183
37.229
37.262
37.285
37.297
37.299
37.293
37.279
37.259
37.233
37.203
37.169
37.133
37.095
37.057
37.02
36.983
36.947
36.913
36.88
36.849
36.819
36.791
36.762
36.734
36.706
36.678
36.649
36.619
36.587
36.554
36.519
36.482
36.443
36.403
36.363
36.323
36.284
36.247
36.213
36.181
36.153
36.127
36.105
36.085
36.069
36.056
36.046
36.039
36.035
36.033
36.035
36.039
36.045
36.053
36.061
36.069
36.076
36.083
36.087
36.09
36.09
36.088
36.083
36.077
36.068
36.057
36.045
36.03
36.014
35.995
35.975
35.952
35.928
35.901
35.873
35.844
35.813
35.781
35.748
35.714
35.68
35.646
35.612
35.579
35.546
35.515
35.484
35.454
35.425
35.398
35.371
35.346
35.322
35.3
35.278
35.258
35.238
35.218
35.198
35.178
35.157
35.137
35.117
35.096
35.075
35.054
35.033
35.013
34.993
34.974
34.955
34.936
34.918
34.901
34.885
34.871
34.862
34.859
34.863
34.876
34.9
34.936
34.985
35.048
35.126
35.218
35.326
35.447
35.581
35.724
35.876
36.033
36.191
36.35
36.505
36.654
36.795
36.926
37.046
37.154
37.25
37.332
37.401
37.457
37.501
37.532
37.552
37.56
37.559
37.549
37.532
37.509
37.481
37.45
37.417
37.383
37.348
37.313
37.278
37.243
37.209
37.175
37.141
37.107
37.072
37.037
37.002
36.966
36.929
36.891
36.852
36.811
36.769
36.725
36.68
36.634
36.587
36.541
36.494
36.449
36.405
36.364
36.326
36.292
36.262
36.236
36.215
36.197
36.184
36.174
36.167
36.163
36.163
36.165
36.168
36.174
36.181
36.188
36.195
36.203
36.21
36.216
36.221
36.224
36.223
36.221
36.215
36.206
36.193
36.178
36.159
36.138
36.114
36.089
36.062
36.035
36.007
35.979
35.951
35.922
35.894
35.865
35.836
35.807
35.777
35.745
35.713
35.68
35.646
35.611
35.576
35.54
35.503
35.467
35.43
35.394
35.358
35.322
35.288
35.253
35.218
35.183
35.148
35.113
35.077
35.042
35.006
34.97
34.935
34.9
34.865
34.83
34.795
34.761
34.727
34.693
34.66
34.628
34.597
34.567
34.54
34.515
34.494
34.478
34.469
34.468
34.477
34.497
34.53
34.577
34.638
34.714
34.804
34.907
35.023
35.148
35.283
35.423
35.568
35.714
35.86
36.002
36.14
36.271
36.393
36.505
36.605
36.693
36.767
36.829
36.877
36.912
36.934
36.945
36.945
36.935
36.916
36.889
36.855
36.815
36.771
36.722
36.671
36.618
36.563
36.507
36.451
36.394
36.337
36.281
36.225
36.169
36.114
36.059
36.004
35.949
35.894
35.839
35.785
35.73
35.676
35.623
35.571
35.52
35.47
35.422
35.375
35.331
35.29
35.251
35.216
35.184
35.155
35.129
35.107
35.087
35.07
35.055
35.043
35.032
35.022
35.014
35.006
34.998
34.989
34.98
34.969
34.957
34.944
34.93
34.913
34.896
34.877
34.856
34.834
34.812
34.788
34.765
34.741
34.718
34.694
34.672
34.65
34.628
34.608
34.588
34.569
34.552
34.534
34.517
34.501
34.485
34.469
34.452
34.436
34.42
34.404
34.388
34.372
34.355
34.339
34.321
34.304
34.285
34.267
34.247
34.226
34.204
34.182
34.159
34.135
34.111
34.087
34.063
34.039
34.016
33.993
33.97
33.948
33.926
33.905
33.886
33.867
33.852
33.84
33.833
33.833
33.841
33.859
33.889
33.932
33.989
34.062
34.151
34.255
34.374
34.507
34.653
34.809
34.973
35.144
35.318
35.495
35.67
35.841
36.006
36.163
36.309
36.443
36.563
36.67
36.762
36.839
36.902
36.95
36.984
37.005
37.014
37.012
37.001
36.981
36.955
36.923
36.887
36.848
36.807
36.763
36.719
36.674
36.63
36.587
36.545
36.505
36.466
36.428
36.39
36.352
36.313
36.272
36.228
36.183
36.135
36.086
36.035
35.983
35.932
35.881
35.832
35.785
35.741
35.699
35.661
35.627
35.596
35.57
35.549
35.532
35.52
35.513
35.511
35.513
35.518
35.527
35.538
35.552
35.566
35.582
35.598
35.613
35.627
35.64
35.65
35.659
35.666
35.671
35.674
35.675
35.674
35.671
35.665
35.656
35.645
35.632
35.617
35.601
35.584
35.565
35.545
35.525
35.503
35.48
35.456
35.431
35.406
35.38
35.354
35.329
35.304
35.278
35.253
35.228
35.203
35.178
35.153
35.128
35.104
35.079
35.055
35.031
35.007
34.984
34.962
34.94
34.92
34.901
34.882
34.865
34.847
34.83
34.814
34.797
34.782
34.769
34.758
34.751
34.748
34.753
34.765
34.786
34.818
34.862
34.92
34.992
35.079
35.181
35.298
35.428
35.571
35.725
35.887
36.055
36.226
36.399
36.57
36.738
36.899
37.052
37.195
37.325
37.442
37.544
37.631
37.703
37.76
37.803
37.833
37.85
37.856
37.851
37.838
37.817
37.789
37.757
37.721
37.682
37.64
37.596
37.551
37.504
37.458
37.411
37.364
37.318
37.272
37.227
37.181
37.135
37.089
37.043
36.995
36.947
36.898
36.848
36.798
36.747
36.697
36.647
36.598
36.549
36.503
36.459
36.417
36.379
36.343
36.311
36.282
36.257
36.236
36.217
36.202
36.19
36.181
36.174
36.169
36.167
36.166
36.166
36.168
36.17
36.174
36.178
36.182
36.185
36.188
36.189
36.188
36.184
36.179
36.171
36.161
36.149
36.134
36.117
36.097
36.073
36.047
36.017
35.986
35.952
35.917
35.881
35.845
35.808
35.772
35.736
35.701
35.666
35.632
35.6
35.568
35.538
35.509
35.482
35.456
35.43
35.405
35.379
35.354
35.329
35.303
35.276
35.248
35.219
35.19
35.159
35.128
35.097
35.064
35.032
34.998
34.966
34.934
34.905
34.879
34.857
34.841
34.833
34.834
34.847
34.872
34.91
34.963
35.031
35.115
35.214
35.328
35.455
35.594
35.744
35.9
36.062
36.225
36.388
36.547
36.7
36.845
36.979
37.1
37.208
37.301
37.378
37.44
37.486
37.518
37.536
37.542
37.537
37.522
37.499
37.468
37.432
37.391
37.345
37.296
37.245
37.192
37.137
37.082
37.026
36.97
36.915
36.859
36.804
36.749
36.694
36.639
36.583
36.527
36.471
36.414
36.357
36.3
36.242
36.185
36.129
36.074
36.02
35.968
35.917
35.869
35.823
