Trial 3:3back
43.034
42.871
42.707
42.541
42.374
42.205
42.036
41.868
41.7
41.532
41.363
41.195
41.028
40.861
40.694
40.528
40.363
40.199
40.034
39.867
39.699
39.529
39.358
39.186
39.014
38.844
38.675
38.51
38.349
38.194
38.047
37.909
37.782
37.667
37.564
37.476
37.401
37.34
37.293
37.258
37.235
37.221
37.215
37.216
37.221
37.229
37.237
37.246
37.254
37.26
37.262
37.261
37.255
37.244
37.229
37.208
37.182
37.151
37.114
37.071
37.022
36.967
36.907
36.84
36.768
36.691
36.608
36.519
36.426
36.329
36.228
36.125
36.02
35.914
35.808
35.701
35.594
35.489
35.384
35.281
35.177
35.073
34.967
34.859
34.751
34.642
34.533
34.426
34.322
34.219
34.119
34.02
33.925
33.831
33.739
33.648
33.559
33.471
33.386
33.303
33.223
33.145
33.069
32.996
32.925
32.855
32.784
32.715
32.645
32.576
32.507
32.439
32.371
32.305
32.241
32.179
32.12
32.063
32.009
31.956
31.905
31.854
31.805
31.762
31.725
31.693
31.667
31.644
31.623
31.603
31.581
31.556
31.529
31.499
31.467
31.433
31.4
31.368
31.338
31.311
31.287
31.267
31.248
31.232
31.217
31.203
31.19
31.18
31.17
31.162
31.155
31.148
31.142
31.136
31.129
31.12
31.11
31.097
31.082
31.064
31.044
31.021
30.997
30.971
30.945
30.918
30.892
30.866
30.84
30.813
30.788
30.764
30.743
30.726
30.714
30.711
30.718
30.739
30.777
30.837
30.925
31.05
31.219
31.442
31.727
32.082
32.512
33.021
33.604
34.257
34.97
35.731
36.526
37.34
38.157
38.963
39.744
40.487
41.181
41.816
42.385
42.885
43.313
43.668
43.953
44.172
44.33
44.433
44.487
44.498
44.472
44.413
44.328
44.219
44.093
43.954
43.804
43.647
43.485
43.32
43.154
42.986
42.818
42.653
42.49
42.33
42.172
42.017
41.864
41.713
41.564
41.416
41.269
41.122
40.975
40.826
40.675
40.522
40.365
40.207
40.046
39.884
39.722
39.56
39.398
39.236
39.074
38.911
38.748
38.58
38.405
38.225
38.044
37.866
37.695
37.534
37.387
37.257
37.147
37.058
36.988
36.936
36.902
36.883
36.878
36.886
36.904
36.929
36.96
36.995
37.029
37.061
37.088
37.11
37.123
37.129
37.127
37.117
37.1
37.077
37.048
37.016
36.979
36.94
36.897
36.85
36.797
36.738
36.671
36.597
36.514
36.425
36.329
36.228
36.123
36.017
35.908
35.799
35.69
35.581
35.472
35.363
35.253
35.143
35.031
34.918
34.803
34.687
34.571
34.455
34.342
34.229
34.119
34.011
33.905
33.801
33.698
33.593
33.487
33.38
33.271
33.163
33.056
32.953
32.855
32.762
32.675
32.594
32.518
32.446
32.377
32.31
32.244
32.18
32.118
32.058
31.999
31.943
31.888
31.835
31.782
31.73
31.677
31.626
31.574
31.523
31.471
31.42
31.37
31.321
31.274
31.231
31.192
31.158
31.127
31.101
31.078
31.058
31.042
31.029
31.019
31.01
31.004
30.998
30.994
30.99
30.987
30.985
30.984
30.984
30.985
30.987
30.991
30.995
30.999
31.005
31.011
31.018
31.026
31.034
31.039
31.043
31.046
31.047
31.046
31.043
31.037
31.028
31.017
31.004
30.989
30.973
30.956
30.939
30.921
30.902
30.883
30.865
30.847
30.831
30.817
30.808
30.804
30.809
30.827
30.862
30.919
31.005
31.125
31.289
31.503
31.777
32.118
32.529
33.011
33.563
34.179
34.852
35.572
36.325
37.098
37.878
38.649
39.397
40.109
40.775
41.385
41.934
42.419
42.837
43.188
43.473
43.696
43.859
43.967
44.024
44.036
44.009
43.948
43.858
43.743
43.608
43.456
43.292
43.119
42.94
42.756
42.569
42.38
42.191
42.002
41.811
41.622
41.433
41.246
41.062
40.88
40.7
40.523
40.348
40.175
40.002
39.83
39.659
39.487
39.314
39.139
38.96
38.778
38.593
38.405
38.215
38.024
37.836
37.65
37.469
37.293
37.125
36.964
36.812
36.669
36.537
36.416
36.307
36.21
36.125
36.052
35.992
35.944
35.909
35.885
35.871
35.868
35.874
35.888
35.909
35.935
35.966
35.999
36.033
36.066
36.095
36.119
36.14
36.162
36.188
36.217
36.247
36.278
36.304
36.324
36.332
36.328
36.31
36.275
36.224
36.156
36.074
35.979
35.874
35.76
35.64
35.515
35.389
35.264
35.14
35.021
34.905
34.795
34.689
34.588
34.49
34.395
34.301
34.208
34.115
34.022
33.929
33.836
33.744
33.652
33.561
33.471
33.382
33.296
33.212
33.129
33.048
32.969
32.891
32.815
32.742
32.671
32.602
32.534
32.467
32.4
32.333
32.266
32.2
32.136
32.073
32.012
31.954
31.899
31.847
31.798
31.753
31.712
31.673
31.636
31.602
31.57
31.54
31.513
31.487
31.461
31.436
31.412
31.388
31.366
31.346
31.326
31.309
31.293
31.279
31.267
31.258
31.251
31.246
31.244
31.243
31.244
31.247
31.251
31.254
31.256
31.255
31.252
31.247
31.238
31.226
31.211
31.193
31.172
31.15
31.127
31.107
31.091
31.081
31.08
31.092
31.119
31.168
31.245
31.354
31.503
31.699
31.951
32.262
32.638
33.078
33.582
34.147
34.765
35.425
36.118
36.83
37.55
38.265
38.962
39.631
40.261
40.844
41.373
41.843
42.25
42.592
42.871
43.088
43.245
43.345
43.393
43.396
43.357
43.283
43.179
43.049
42.899
42.732
42.552
42.362
42.165
41.962
41.757
41.55
41.341
41.134
40.929
40.727
40.53
40.337
40.149
39.965
39.784
39.605
39.429
39.254
39.078
38.902
38.725
38.545
38.364
38.18
37.993
37.806
37.618
37.43
37.246
37.067
36.893
36.728
36.57
36.421
36.281
36.15
36.028
35.914
35.809
35.715
35.632
35.562
35.506
35.466
35.442
35.433
35.438
35.456
35.483
35.52
35.563
35.612
35.665
35.719
35.774
35.829
35.883
35.935
35.986
36.034
36.08
36.121
36.156
36.184
36.204
36.215
36.216
36.207
36.186
36.155
36.113
36.061
35.999
35.929
35.853
35.771
35.684
35.594
35.501
35.407
35.312
35.216
35.117
35.015
34.911
34.804
34.696
34.586
34.476
34.366
34.258
34.152
34.047
33.944
33.844
33.745
33.648
33.552
33.455
33.359
33.264
33.17
33.078
32.989
32.904
32.821
32.742
32.666
32.594
32.525
32.46
32.398
32.34
32.285
32.232
32.182
32.134
32.088
32.043
32.0
31.958
31.919
31.882
31.848
31.818
31.791
31.767
31.747
31.731
31.719
31.711
31.706
31.705
31.705
31.708
31.71
31.714
31.717
31.719
31.721
31.722
31.72
31.715
31.707
31.697
31.686
31.674
31.662
31.654
31.652
31.661
31.682
31.722
31.784
31.874
31.998
32.164
32.378
32.645
32.97
33.355
33.8
34.302
34.856
35.454
36.086
36.742
37.41
38.078
38.736
39.373
39.978
40.542
41.059
41.521
41.926
42.271
42.557
42.785
42.956
43.073
43.14
43.16
43.139
43.082
42.993
42.878
42.739
42.58
42.405
42.216
42.017
41.81
41.597
41.38
41.162
40.943
40.727
40.514
40.305
40.1
39.901
39.706
39.516
39.328
39.144
38.961
38.778
38.595
38.41
38.224
38.036
37.846
37.653
37.458
37.262
37.067
36.876
36.689
36.509
36.339
36.18
36.032
35.897
35.775
35.666
35.57
35.487
35.416
35.356
35.308
35.272
35.248
35.237
35.239
35.254
35.282
35.321
35.37
35.427
35.49
35.557
35.624
35.69
35.753
35.811
35.863
35.907
35.943
35.969
35.987
35.995
35.993
35.981
35.959
35.927
35.885
35.836
35.778
35.714
35.644
35.569
35.489
35.405
35.317
35.228
35.138
35.047
34.956
34.865
34.773
34.68
34.585
34.489
34.392
34.293
34.194
34.093
33.993
33.892
33.792
33.692
33.594
33.497
33.401
33.306
33.213
33.12
33.029
32.941
32.855
32.772
32.691
32.611
32.532
32.455
32.379
32.305
32.234
32.167
32.104
32.045
31.99
31.939
31.891
31.847
31.806
31.769
31.734
31.703
31.675
31.65
31.626
31.602
31.58
31.557
31.534
31.51
31.487
31.464
31.439
31.414
31.388
31.36
31.331
31.301
31.271
31.24
31.209
31.18
31.153
31.13
31.112
31.103
31.106
31.125
31.163
31.226
31.321
31.455
31.635
31.869
32.161
32.519
32.943
33.436
33.993
34.609
35.275
35.979
36.709
37.452
38.193
38.92
39.62
40.282
40.896
41.454
41.951
42.383
42.749
43.049
43.287
43.468
43.595
43.674
43.71
43.708
43.674
43.613
43.53
43.429
43.312
43.182
43.041
42.892
42.736
42.574
42.407
42.235
42.059
41.88
41.7
41.518
41.336
41.154
40.975
40.799
40.626
40.458
40.294
40.135
39.98
39.828
39.68
39.534
39.39
39.248
39.107
38.965
38.822
38.677
38.532
38.384
38.234
38.082
37.928
37.774
37.619
37.465
37.315
37.169
37.031
36.9
36.779
36.669
36.571
36.485
36.411
36.349
36.298
36.258
36.228
36.207
36.194
36.188
36.188
36.192
36.198
36.204
36.209
36.212
36.212
36.209
36.203
36.192
36.177
36.157
36.132
36.101
36.063
36.02
35.971
35.915
35.853
35.784
35.71
35.632
35.549
35.463
35.372
35.278
35.178
35.074
34.965
34.853
34.738
34.623
34.507
34.393
34.281
34.17
34.063
33.957
33.855
33.755
33.658
33.564
33.471
33.38
33.29
33.2
33.112
33.026
32.94
32.855
32.771
32.687
32.603
32.521
32.438
32.355
32.273
32.192
32.113
32.037
31.963
31.893
31.827
31.766
31.71
31.659
31.613
31.57
31.53
31.494
31.46
31.43
31.404
31.38
31.36
31.343
31.328
31.315
31.304
31.295
31.287
31.279
31.27
31.259
31.247
31.233
31.216
31.198
31.178
31.155
31.131
31.103
31.073
31.04
31.005
30.968
30.932
30.896
30.865
30.84
30.825
30.824
30.844
30.888
30.964
31.078
31.236
31.446
31.713
32.04
32.429
32.876
33.378
33.927
34.515
35.13
35.762
36.399
37.031
37.646
38.234
38.785
39.294
39.755
40.165
40.523
40.828
41.082
41.286
41.444
41.558
41.633
41.673
41.682
41.665
41.625
41.568
41.495
41.411
41.317
41.215
41.108
40.995
40.878
40.757
40.632
40.505
40.376
40.247
40.117
39.988
39.863
39.743
39.629
39.522
39.424
39.334
39.25
39.172
39.096
39.022
38.946
38.866
38.782
38.691
38.593
38.489
38.378
38.26
38.133
37.998
37.858
37.715
37.57
37.427
37.288
37.154
37.026
36.905
36.792
36.686
36.588
36.496
36.411
36.332
36.259
36.192
36.129
36.071
36.018
35.97
35.927
35.89
35.858
35.832
35.81
35.791
35.774
35.757
35.74
35.722
35.702
35.678
35.651
35.619
35.584
35.546
35.507
35.467
35.425
35.382
35.338
35.291
35.242
35.188
35.131
35.069
35.001
34.929
34.852
34.769
34.682
34.591
34.497
34.4
34.301
34.202
34.1
33.998
33.895
33.793
33.693
33.595
33.499
33.407
33.319
33.236
33.157
33.083
33.012
32.945
32.88
32.817
32.756
32.697
32.64
32.584
32.528
32.472
32.414
32.356
32.296
32.235
32.174
32.112
32.05
31.989
31.928
31.869
31.813
31.758
31.706
31.657
31.611
31.57
31.534
31.502
31.474
31.449
31.426
31.405
31.385
31.365
31.344
31.324
31.303
31.281
31.258
31.234
31.21
31.184
31.158
31.132
31.108
31.085
31.063
31.041
31.019
30.997
30.977
30.958
30.941
30.925
30.912
30.901
30.892
30.885
30.879
30.874
30.869
30.864
30.859
30.854
30.848
30.84
30.832
30.822
30.81
30.795
30.778
30.759
30.737
30.714
30.689
30.664
30.638
30.613
30.59
30.572
30.564
30.568
30.589
30.632
30.703
30.806
30.947
31.131
31.361
31.639
31.967
32.342
32.761
33.22
33.711
34.226
34.756
35.292
35.824
36.342
36.839
37.306
37.738
38.129
38.477
38.78
39.037
39.247
39.405
39.51
39.568
39.584
39.567
39.524
39.464
39.393
39.319
39.245
39.175
39.11
39.052
38.999
38.95
38.902
38.853
38.803
38.749
38.69
38.626
38.556
38.483
38.408
38.331
38.253
38.176
38.101
38.028
37.957
37.887
37.819
37.752
37.686
37.62
37.553
37.485
37.414
37.341
37.266
37.189
37.11
37.028
36.943
36.857
36.768
36.678
36.587
36.496
36.403
36.311
36.219
36.127
36.037
35.949
35.863
35.78
35.703
35.631
35.566
35.505
35.451
35.402
35.359
35.321
35.289
35.261
35.237
35.216
35.197
35.18
35.164
35.148
35.131
35.113
35.091
35.065
35.033
34.997
34.956
34.909
34.858
34.803
34.747
34.69
34.632
34.576
34.522
34.469
34.418
34.367
34.316
34.265
34.213
34.16
34.105
34.049
33.991
33.931
33.868
33.803
33.735
33.664
33.591
33.516
33.438
33.358
33.277
33.195
33.115
33.035
32.958
32.883
32.81
32.741
32.676
32.614
32.556
32.501
32.45
32.4
32.353
32.308
32.264
32.22
32.178
32.136
32.095
32.056
32.019
31.984
31.952
31.922
31.893
31.864
31.836
31.808
31.781
31.754
31.729
31.705
31.684
31.666
31.651
31.639
31.63
31.621
31.614
31.606
31.599
31.592
31.585
31.581
31.579
31.58
31.584
31.592
31.601
31.612
31.622
31.632
31.64
31.646
31.651
31.655
31.657
31.657
31.655
31.652
31.646
31.638
31.626
31.613
31.596
31.578
31.558
31.536
31.513
31.489
31.465
31.442
31.42
31.399
31.377
31.354
31.33
31.304
31.279
31.254
31.231
31.21
31.191
31.174
31.157
31.141
31.124
31.105
31.086
31.067
31.047
31.027
31.008
30.991
30.974
30.957
30.94
30.922
30.904
30.884
30.863
30.841
30.819
30.796
30.771
30.746
30.722
30.699
30.68
30.667
30.664
30.675
30.705
30.759
30.844
30.962
31.118
31.313
31.549
31.825
32.138
32.485
32.86
33.258
33.67
34.089
34.508
34.918
35.314
35.69
36.04
36.361
36.649
36.901
37.115
37.292
37.431
37.536
37.608
37.651
37.668
37.662
37.639
37.6
37.55
37.49
37.423
37.352
37.276
37.197
37.114
37.029
36.943
36.857
36.771
36.687
36.606
36.528
36.453
36.382
36.315
36.252
36.195
36.142
36.093
36.047
36.004
35.963
35.924
35.887
35.849
35.812
35.775
35.738
35.699
35.659
35.618
35.575
35.531
35.483
35.432
35.376
35.318
35.257
35.193
35.13
35.075
35.03
34.995
34.968
34.947
34.927
34.907
34.884
34.856
34.823
34.783
34.74
34.693
34.644
34.594
34.546
34.499
34.456
34.418
34.385
34.358
34.336
34.319
34.307
34.3
34.297
34.297
34.3
34.303
34.306
34.307
34.305
34.3
34.291
34.279
34.264
34.247
34.227
34.205
34.181
34.153
34.121
34.085
34.045
33.999
33.948
33.892
33.831
33.767
33.7
33.631
33.562
33.493
33.425
33.358
33.293
33.229
33.166
33.104
33.044
32.983
32.924
32.865
32.808
32.753
32.701
32.653
32.608
32.566
32.526
32.488
32.451
32.415
32.381
32.348
32.318
32.289
32.263
32.238
32.214
32.189
32.164
32.137
32.109
32.08
32.05
32.02
31.991
31.962
31.935
31.909
31.885
31.862
31.841
31.821
31.802
31.785
31.768
31.751
31.735
31.717
31.7
31.683
31.667
31.652
31.639
31.627
31.617
31.609
31.602
31.595
31.589
31.583
31.576
31.566
31.555
31.543
31.529
31.514
31.499
31.485
31.47
31.457
31.444
31.431
31.419
31.407
31.394
31.382
31.37
31.36
31.35
31.341
31.333
31.324
31.316
31.307
31.299
31.291
31.284
31.276
31.267
31.257
31.246
31.235
31.224
31.212
31.2
31.188
31.175
31.162
31.149
31.136
31.123
31.11
31.099
31.088
31.079
31.071
31.065
31.06
31.056
31.053
31.051
31.048
31.046
31.044
31.042
31.038
31.032
31.024
31.015
31.003
30.99
30.98
30.979
30.987
31.005
31.032
31.066
31.108
31.158
31.217
31.289
31.376
31.482
31.61
31.763
31.942
32.148
32.381
32.637
32.916
33.214
33.527
33.851
34.181
34.512
34.837
35.152
35.449
35.725
35.973
36.19
36.372
36.519
36.628
36.701
36.739
36.745
36.724
36.678
36.61
36.526
36.429
36.324
36.213
36.101
35.99
35.881
35.776
35.674
35.576
35.481
35.389
35.3
35.213
35.129
35.049
34.972
34.901
34.834
34.773
34.717
34.665
34.616
34.569
34.522
34.473
34.424
34.372
34.318
34.262
34.204
34.146
34.087
34.027
33.966
33.905
33.843
33.781
33.719
33.656
33.594
33.533
33.472
33.414
33.357
33.304
33.254
33.209
33.169
33.137
33.112
33.096
33.088
33.086
33.09
33.097
33.109
33.124
33.141
33.162
33.185
33.21
33.236
33.261
33.284
33.304
33.322
33.336
33.346
33.352
33.354
33.353
33.349
33.344
33.336
33.325
33.311
33.294
33.274
33.251
33.225
33.196
33.166
33.134
33.099
33.064
33.029
32.994
32.961
32.93
32.9
32.872
32.846
32.821
32.797
32.774
32.752
32.73
32.708
32.683
32.658
32.631
32.602
32.571
32.539
32.506
32.471
32.438
32.405
32.374
32.346
32.322
32.3
32.282
32.265
32.251
32.239
32.228
32.216
32.205
32.193
32.182
32.171
32.16
32.15
32.139
32.128
32.117
32.104
32.091
32.077
32.063
32.049
32.035
32.022
32.01
31.999
31.99
31.983
31.977
31.973
31.97
31.969
31.968
31.968
31.968
31.969
31.972
31.976
31.983
31.991
32.003
32.016
32.03
32.044
32.057
32.069
32.08
32.089
32.097
32.104
32.111
32.118
32.125
32.13
32.135
32.139
32.141
32.141
32.139
32.137
32.135
32.133
32.133
32.135
32.14
32.148
32.158
32.171
32.185
32.2
32.216
32.231
32.245
32.259
32.273
32.288
32.304
32.322
32.341
32.362
32.382
32.401
32.417
32.431
32.444
32.455
32.465
32.472
32.48
32.488
32.499
32.516
32.54
32.575
32.624
32.69
32.775
32.883
33.017
33.18
33.374
33.6
33.856
34.14
34.448
34.777
35.117
35.464
35.809
36.147
36.469
36.77
37.044
37.287
37.497
37.673
37.814
37.921
37.994
38.037
38.051
38.04
38.006
37.954
37.886
37.807
37.717
37.621
37.52
37.416
37.311
37.207
37.105
37.006
36.909
36.817
36.727
36.64
36.555
36.473
36.393
36.314
36.238
36.163
36.093
36.026
35.962
35.903
35.847
35.794
35.743
35.693
35.642
35.591
35.539
35.488
35.437
35.389
35.342
35.297
35.256
35.215
35.177
35.138
35.101
35.064
35.028
34.992
34.957
34.923
34.891
34.861
34.833
34.807
34.784
34.764
34.747
34.734
34.724
34.719
34.717
34.718
34.72
34.722
34.724
34.726
34.727
34.726
34.724
34.719
34.711
34.699
34.684
34.665
34.642
34.616
34.587
34.556
34.523
34.49
34.457
34.425
34.394
34.364
34.337
34.311
34.285
34.26
34.234
34.207
34.179
34.15
34.119
34.087
34.052
34.015
33.975
33.931
33.885
33.836
33.784
33.731
33.677
33.622
33.568
33.515
33.464
33.415
33.369
33.327
33.288
33.251
33.215
33.18
33.145
33.111
33.076
33.042
33.01
32.981
32.955
32.933
32.914
32.898
32.886
32.874
32.862
32.849
32.834
32.818
32.802
32.786
32.771
32.756
32.743
32.73
32.717
32.705
32.693
32.682
32.671
32.66
32.648
32.636
32.623
32.613
32.605
32.601
32.601
32.606
32.615
32.627
32.642
32.657
32.672
32.687
32.699
32.707
32.712
32.715
32.714
32.71
32.704
32.695
32.683
32.67
32.653
32.635
32.615
32.595
32.573
32.552
32.531
32.511
32.491
32.47
32.449
32.427
32.405
32.38
32.355
32.329
32.303
32.276
32.249
32.222
32.195
32.169
32.144
32.12
32.098
32.079
32.065
32.059
32.062
32.076
32.103
32.147
32.21
32.294
32.401
32.532
32.687
32.867
33.069
33.291
33.53
33.784
34.048
34.318
34.587
34.852
35.106
35.346
35.567
35.767
35.941
36.088
36.205
36.293
36.35
36.379
36.382
36.36
36.317
36.256
36.179
36.089
35.99
35.882
35.768
35.65
35.53
35.408
35.287
35.166
35.048
34.932
34.82
34.713
34.61
34.514
34.423
34.339
34.262
34.191
34.126
34.067
34.012
33.961
33.913
33.866
33.82
33.773
33.728
33.689
33.656
33.629
33.605
33.582
33.557
33.528
33.493
33.449
33.397
33.336
33.266
33.191
33.112
33.032
32.952
32.876
32.805
32.741
32.685
32.637
32.597
32.566
32.542
32.527
32.518
32.516
32.52
32.531
32.549
32.573
32.604
32.641
32.683
32.727
32.77
32.811
32.848
32.879
32.903
32.921
32.932
32.937
32.936
32.932
32.924
32.914
32.904
32.897
32.891
32.887
32.883
32.879
32.873
32.866
32.856
32.843
32.826
32.804
32.777
32.743
32.701
32.651
32.593
32.527
32.455
32.378
32.299
32.219
32.139
32.059
31.98
31.903
31.829
31.758
31.691
31.626
31.564
31.506
31.452
31.402
31.357
31.315
31.277
31.24
31.204
31.167
31.13
31.093
31.055
31.017
30.981
30.947
30.915
30.886
30.86
30.837
30.818
30.802
30.79
30.781
30.776
30.774
30.776
30.781
30.79
30.804
30.822
30.845
30.869
30.895
30.92
30.944
30.965
30.984
31.0
31.012
31.019
31.022
31.021
31.017
31.011
31.004
30.997
30.992
30.989
30.99
30.994
31.003
31.017
31.034
31.055
31.078
31.102
31.128
31.154
31.18
31.206
31.23
31.252
31.272
31.289
31.304
