Trial 3:3back
34.23
34.146
34.07
34.003
33.946
33.899
33.863
33.838
33.824
33.822
33.83
33.846
33.87
33.901
33.937
33.978
34.021
34.065
34.108
34.149
34.187
34.22
34.249
34.274
34.293
34.308
34.317
34.32
34.316
34.306
34.29
34.267
34.237
34.202
34.164
34.122
34.079
34.034
33.989
33.944
33.898
33.851
33.802
33.75
33.697
33.64
33.581
33.52
33.458
33.396
33.334
33.273
33.214
33.155
33.098
33.042
32.986
32.93
32.875
32.823
32.773
32.726
32.682
32.641
32.603
32.568
32.534
32.501
32.468
32.436
32.404
32.372
32.34
32.308
32.278
32.249
32.223
32.198
32.176
32.157
32.141
32.127
32.119
32.117
32.126
32.148
32.188
32.252
32.344
32.47
32.634
32.839
33.089
33.384
33.726
34.111
34.536
34.995
35.482
35.991
36.514
37.042
37.568
38.084
38.582
39.056
39.498
39.903
40.265
40.581
40.849
41.065
41.229
41.342
41.406
41.424
41.398
41.332
41.232
41.102
40.948
40.775
40.587
40.388
40.183
39.975
39.764
39.553
39.343
39.134
38.926
38.721
38.517
38.314
38.114
37.914
37.715
37.517
37.32
37.126
36.934
36.745
36.557
36.372
36.189
36.009
35.833
35.661
35.494
35.333
35.178
35.03
34.888
34.755
34.631
34.517
34.413
34.319
34.234
34.159
34.093
34.037
33.992
33.956
33.929
33.912
33.904
33.904
33.911
33.926
33.947
33.973
34.003
34.036
34.07
34.106
34.143
34.178
34.211
34.243
34.271
34.298
34.321
34.34
34.357
34.369
34.376
34.376
34.371
34.358
34.34
34.314
34.283
34.246
34.203
34.157
34.106
34.052
33.996
33.938
33.879
33.82
33.759
33.699
33.639
33.58
33.524
33.47
33.417
33.364
33.312
33.261
33.21
33.159
33.108
33.057
33.006
32.954
32.902
32.85
32.797
32.743
32.688
32.633
32.58
32.528
32.478
32.432
32.388
32.348
32.311
32.276
32.243
32.213
32.186
32.163
32.143
32.127
32.118
32.116
32.123
32.138
32.166
32.208
32.269
32.352
32.462
32.604
32.783
33.005
33.271
33.583
33.94
34.341
34.783
35.259
35.764
36.289
36.827
37.368
37.903
38.422
38.918
39.383
39.811
40.196
40.534
40.821
41.058
41.243
41.38
41.47
41.515
41.52
41.488
41.421
41.326
41.208
41.07
40.918
40.753
40.578
40.395
40.205
40.011
39.814
39.614
39.412
39.208
39.005
38.801
38.598
38.397
38.197
38.0
37.806
37.615
37.427
37.242
37.061
36.883
36.709
36.535
36.363
36.191
36.019
35.848
35.679
35.512
35.35
35.195
35.047
34.908
34.778
34.659
34.55
34.452
34.363
34.283
34.213
34.152
34.101
34.06
34.029
34.008
33.996
33.993
33.996
34.005
34.02
34.04
34.064
34.09
34.118
34.148
34.177
34.206
34.233
34.258
34.28
34.297
34.31
34.317
34.318
34.31
34.292
34.261
34.222
34.175
34.124
34.071
34.02
33.97
33.925
33.884
33.847
33.813
33.782
33.752
33.723
33.693
33.661
33.625
33.586
33.544
33.498
33.449
33.398
33.344
33.29
33.234
33.179
33.123
33.068
33.014
32.961
32.909
32.858
32.807
32.759
32.712
32.666
32.623
32.581
32.54
32.499
32.459
32.419
32.382
32.347
32.314
32.283
32.255
32.23
32.206
32.186
32.168
32.154
32.147
32.15
32.165
32.196
32.249
32.327
32.435
32.578
32.76
32.985
33.256
33.573
33.936
34.343
34.797
35.292
35.823
36.378
36.948
37.52
38.084
38.628
39.143
39.621
40.053
40.437
40.768
41.046
41.27
41.442
41.563
41.637
41.666
41.655
41.607
41.528
41.421
41.292
41.145
40.982
40.809
40.626
40.438
40.247
40.053
39.858
39.663
39.47
39.279
39.09
38.903
38.718
38.535
38.353
38.173
37.994
37.815
37.636
37.457
37.28
37.104
36.93
36.758
36.589
36.421
36.257
36.096
35.94
35.787
35.638
35.494
35.354
35.22
35.091
34.97
34.857
34.753
34.658
34.572
34.496
34.429
34.371
34.322
34.281
34.248
34.222
34.203
34.19
34.182
34.178
34.178
34.182
34.189
34.201
34.216
34.235
34.257
34.281
34.305
34.329
34.35
34.37
34.387
34.401
34.411
34.417
34.42
34.418
34.411
34.398
34.378
34.352
34.318
34.276
34.226
34.171
34.111
34.048
33.984
33.921
33.858
33.798
33.738
33.68
33.623
33.564
33.505
33.445
33.385
33.324
33.263
33.204
33.146
33.087
33.029
32.972
32.916
32.861
32.807
32.755
32.704
32.654
32.606
32.559
32.514
32.471
32.43
32.39
32.352
32.317
32.284
32.254
32.227
32.203
32.183
32.167
32.156
32.148
32.146
32.148
32.158
32.176
32.206
32.252
32.319
32.411
32.535
32.692
32.888
33.125
33.406
33.731
34.1
34.51
34.956
35.433
35.934
36.45
36.974
37.496
38.009
38.504
38.974
39.413
39.813
40.171
40.483
40.748
40.963
41.128
41.246
41.318
41.347
41.335
41.284
41.199
41.085
40.945
40.786
40.61
40.423
40.227
40.025
39.821
39.615
39.411
39.21
39.012
38.819
38.629
38.443
38.259
38.078
37.898
37.719
37.541
37.364
37.187
37.011
36.834
36.658
36.485
36.314
36.147
35.985
35.828
35.675
35.527
35.383
35.243
35.108
34.976
34.85
34.729
34.614
34.505
34.406
34.317
34.238
34.17
34.115
34.071
34.041
34.022
34.015
34.017
34.028
34.045
34.066
34.091
34.117
34.145
34.174
34.202
34.23
34.257
34.283
34.308
34.33
34.351
34.369
34.383
34.394
34.399
34.399
34.394
34.384
34.369
34.35
34.326
34.297
34.264
34.227
34.186
34.14
34.091
34.038
33.982
33.923
33.861
33.797
33.733
33.67
33.608
33.546
33.486
33.427
33.37
33.314
33.259
33.205
33.151
33.098
33.046
32.995
32.946
32.899
32.854
32.813
32.774
32.738
32.703
32.669
32.633
32.597
32.558
32.519
32.48
32.44
32.402
32.365
32.332
32.302
32.275
32.253
32.237
32.227
32.225
32.235
32.261
32.304
32.371
32.464
32.587
32.744
32.937
33.168
33.439
33.748
34.094
34.476
34.89
35.332
35.796
36.278
36.772
37.269
37.764
38.249
38.715
39.156
39.565
39.936
40.266
40.55
40.786
40.971
41.106
41.193
41.232
41.229
41.188
41.112
41.006
40.876
40.725
40.557
40.376
40.185
39.987
39.784
39.579
39.379
39.187
39.004
38.831
38.663
38.5
38.336
38.17
37.999
37.821
37.636
37.444
37.246
37.042
36.835
36.625
36.416
36.207
36.002
35.803
35.611
35.428
35.255
35.093
34.94
34.798
34.668
34.548
34.441
34.347
34.266
34.197
34.14
34.095
34.061
34.036
34.02
34.011
34.008
34.011
34.021
34.036
34.057
34.081
34.11
34.142
34.176
34.211
34.247
34.283
34.318
34.352
34.383
34.41
34.432
34.449
34.46
34.464
34.462
34.453
34.439
34.419
34.393
34.362
34.327
34.29
34.249
34.207
34.162
34.116
34.066
34.014
33.961
33.906
33.85
33.793
33.736
33.677
33.617
33.557
33.497
33.437
33.378
33.319
33.261
33.205
33.151
33.098
33.046
32.996
32.947
32.899
32.851
32.805
32.76
32.718
32.678
32.64
32.606
32.575
32.547
32.521
32.495
32.469
32.443
32.418
32.392
32.369
32.348
32.33
32.318
32.312
32.315
32.328
32.356
32.402
32.47
32.565
32.69
32.851
33.051
33.292
33.576
33.903
34.272
34.68
35.122
35.592
36.085
36.593
37.108
37.621
38.123
38.607
39.065
39.489
39.874
40.216
40.513
40.762
40.963
41.116
41.224
41.29
41.316
41.307
41.264
41.192
41.093
40.972
40.832
40.675
40.504
40.322
40.131
39.932
39.728
39.52
39.311
39.101
38.893
38.689
38.488
38.293
38.104
37.921
37.744
37.573
37.406
37.242
37.079
36.916
36.75
36.582
36.412
36.241
36.069
35.897
35.727
35.561
35.401
35.249
35.105
34.97
34.846
34.733
34.629
34.535
34.452
34.379
34.318
34.267
34.227
34.197
34.177
34.166
34.162
34.166
34.176
34.191
34.21
34.232
34.255
34.279
34.303
34.326
34.347
34.367
34.384
34.398
34.409
34.417
34.423
34.425
34.424
34.419
34.412
34.4
34.386
34.367
34.346
34.32
34.29
34.256
34.218
34.176
34.129
34.077
34.021
33.96
33.895
33.828
33.761
33.695
33.631
33.57
33.511
33.454
33.4
33.347
33.297
33.248
33.2
33.153
33.106
33.059
33.012
32.965
32.917
32.868
32.817
32.765
32.712
32.661
32.612
32.566
32.524
32.486
32.451
32.42
32.393
32.368
32.346
32.325
32.305
32.286
32.268
32.25
32.233
32.218
32.205
32.195
32.188
32.189
32.199
32.223
32.266
32.331
32.424
32.549
32.71
32.909
33.147
33.428
33.75
34.114
34.516
34.954
35.423
35.918
36.433
36.958
37.486
38.007
38.513
38.995
39.446
39.859
40.23
40.555
40.832
41.06
41.239
41.37
41.454
41.494
41.494
41.459
41.393
41.3
41.184
41.049
40.898
40.735
40.564
40.387
40.205
40.021
39.835
39.648
39.462
39.276
39.091
38.905
38.721
38.538
38.356
38.177
37.999
37.823
37.651
37.481
37.315
37.151
36.989
36.83
36.671
36.514
36.357
36.201
36.048
35.896
35.748
35.603
35.463
35.33
35.204
35.085
34.975
34.875
34.784
34.702
34.63
34.567
34.513
34.467
34.43
34.4
34.378
34.364
34.358
34.36
34.369
34.385
34.406
34.43
34.457
34.484
34.51
34.533
34.553
34.569
34.581
34.591
34.598
34.604
34.608
34.61
34.609
34.604
34.594
34.579
34.557
34.528
34.494
34.454
34.409
34.359
34.305
34.249
34.19
34.128
34.064
33.997
33.927
33.856
33.784
33.711
33.64
33.569
33.502
33.437
33.374
33.314
33.257
33.201
33.147
33.095
33.044
32.996
32.949
32.904
32.86
32.815
32.769
32.723
32.677
32.631
32.587
32.544
32.503
32.464
32.428
32.393
32.36
32.328
32.298
32.268
32.24
32.214
32.19
32.169
32.149
32.133
32.121
32.115
32.117
32.13
32.157
32.202
32.269
32.363
32.487
32.645
32.84
33.076
33.352
33.668
34.024
34.418
34.846
35.305
35.788
36.289
36.802
37.317
37.826
38.321
38.793
39.237
39.646
40.014
40.338
40.617
40.847
41.029
41.162
41.249
41.292
41.296
41.265
41.204
41.116
41.006
40.876
40.73
40.571
40.401
40.223
40.037
39.848
39.654
39.459
39.264
39.069
38.876
38.686
38.499
38.316
38.135
37.958
37.783
37.61
37.438
37.266
37.094
36.922
36.75
36.578
36.407
36.238
36.072
35.911
35.753
35.6
35.453
35.311
35.175
35.046
34.925
34.812
34.708
34.614
34.53
34.456
34.392
34.338
34.293
34.256
34.225
34.202
34.185
34.175
34.172
34.174
34.183
34.197
34.216
34.238
34.263
34.29
34.318
34.345
34.37
34.392
34.41
34.425
34.435
34.441
34.443
34.44
34.433
34.42
34.401
34.377
34.347
34.312
34.272
34.227
34.178
34.127
34.072
34.017
33.961
33.904
33.848
33.793
33.737
33.679
33.62
33.558
33.495
33.43
33.364
33.298
33.234
33.173
33.116
33.063
33.014
32.97
32.928
32.888
32.848
32.808
32.767
32.725
32.683
32.641
32.601
32.562
32.525
32.49
32.456
32.425
32.393
32.363
32.332
32.302
32.273
32.246
32.221
32.198
32.177
32.158
32.141
32.124
32.109
32.096
32.088
32.086
32.092
32.11
32.141
32.191
32.263
32.361
32.491
32.655
32.858
33.101
33.385
33.709
34.072
34.471
34.902
35.359
35.835
36.322
36.815
37.307
37.788
38.254
38.7
39.12
39.51
39.863
40.176
40.443
40.663
40.835
40.96
41.039
41.073
41.065
41.02
40.94
40.83
40.693
40.536
40.361
40.173
39.975
39.769
39.558
39.345
39.132
38.922
38.715
38.513
38.317
38.126
37.94
37.759
37.581
37.408
37.238
37.07
36.904
36.738
36.571
36.405
36.238
36.07
35.903
35.736
35.571
35.409
35.251
35.1
34.957
34.824
34.702
34.591
34.491
34.404
34.327
34.26
34.204
34.157
34.12
34.091
34.07
34.058
34.053
34.055
34.063
34.076
34.094
34.115
34.139
34.165
34.193
34.222
34.252
34.281
34.309
34.336
34.361
34.384
34.406
34.424
34.438
34.448
34.454
34.454
34.449
34.438
34.423
34.401
34.375
34.343
34.304
34.261
34.212
34.158
34.102
34.042
33.98
33.918
33.857
33.797
33.738
33.68
33.624
33.568
33.513
33.458
33.404
33.351
33.3
33.251
33.204
33.159
33.116
33.074
33.034
32.994
32.954
32.913
32.872
32.831
32.789
32.749
32.711
32.673
32.636
32.599
32.563
32.527
32.492
32.458
32.425
32.393
32.363
32.336
32.314
32.297
32.287
32.286
32.294
32.314
32.347
32.397
32.465
32.557
32.675
32.824
33.005
33.222
33.477
33.769
34.099
34.465
34.865
35.293
35.745
36.212
36.688
37.166
37.636
38.093
38.529
38.938
39.314
39.655
39.955
40.214
40.429
40.602
40.734
40.825
40.879
40.898
40.885
40.843
40.775
40.684
40.574
40.446
40.304
40.149
39.983
39.808
39.626
39.439
39.247
39.053
38.856
38.659
38.462
38.267
38.074
37.883
37.694
37.507
37.323
37.142
36.964
36.788
36.615
36.444
36.275
36.109
35.946
35.787
35.634
35.486
35.343
35.206
35.076
34.953
34.836
34.725
34.621
34.522
34.43
34.345
34.269
34.201
34.142
34.094
34.056
34.028
34.01
34.001
34.003
34.012
34.03
34.053
34.081
34.113
34.147
34.182
34.218
34.252
34.284
34.312
34.335
34.352
34.365
34.372
34.375
34.372
34.363
34.35
34.333
34.311
34.286
34.259
34.23
34.199
34.165
34.128
34.088
34.044
33.998
33.95
33.9
33.847
33.793
33.738
33.681
33.624
33.565
33.506
33.447
33.387
33.328
33.271
33.216
33.164
33.114
33.066
33.02
32.975
32.931
32.889
32.847
32.807
32.768
32.73
32.691
32.65
32.609
32.567
32.525
32.484
32.444
32.406
32.371
32.338
32.309
32.283
32.26
32.24
32.223
32.211
32.203
32.202
32.21
32.229
32.261
32.311
32.382
32.477
32.602
32.758
32.949
33.176
33.442
33.747
34.09
34.47
34.883
35.325
35.792
36.277
36.774
37.274
37.771
38.256
38.721
39.159
39.565
39.933
40.259
40.539
40.772
40.958
41.097
41.192
41.244
41.256
41.232
41.177
41.093
40.986
40.86
40.717
40.562
40.398
40.228
40.053
39.875
39.696
39.518
39.339
39.162
38.985
38.808
38.632
38.456
38.278
38.095
37.908
37.717
37.525
37.334
37.147
36.963
36.786
36.616
36.452
36.295
36.145
36.001
35.861
35.724
35.591
35.461
35.335
35.214
35.098
34.989
34.887
34.795
34.711
34.636
34.569
34.509
34.456
34.408
34.365
34.327
34.296
34.27
34.251
34.239
34.234
34.236
34.244
34.257
34.274
34.295
34.317
34.34
34.362
34.384
34.403
34.419
34.432
34.442
34.447
34.447
34.443
34.434
34.42
34.4
34.376
34.346
34.311
34.271
34.227
34.179
34.126
34.072
34.016
33.959
33.903
33.847
33.791
33.734
33.677
33.618
33.559
33.501
33.443
33.385
33.329
33.275
33.224
33.175
33.129
33.084
33.04
32.996
32.952
32.908
32.864
32.82
32.777
32.735
32.694
32.654
32.616
32.58
32.545
32.511
32.478
32.447
32.419
32.392
32.367
32.345
32.326
32.309
32.293
32.279
32.266
32.256
32.247
32.24
32.235
32.234
32.239
32.251
32.275
32.313
32.37
32.452
32.561
32.704
32.883
33.104
33.368
33.676
34.026
34.415
34.84
35.293
35.771
36.265
36.767
37.271
37.769
38.253
38.715
39.15
39.55
39.913
40.234
40.511
40.742
40.927
41.067
41.161
41.212
41.223
41.197
41.138
41.051
40.939
40.806
40.657
40.495
40.325
40.148
39.967
39.784
39.601
39.418
39.236
39.055
38.874
38.694
38.514
38.335
38.157
37.979
37.803
37.628
37.455
37.283
37.114
36.947
36.784
36.623
36.463
36.305
36.149
35.993
35.839
35.686
35.535
35.388
35.245
35.109
34.979
34.859
34.748
34.648
34.558
34.478
34.407
34.344
34.291
34.245
34.207
34.176
34.151
34.132
34.119
34.111
34.108
34.111
34.119
34.132
34.148
34.167
34.187
34.207
34.225
34.24
34.253
34.263
34.269
34.273
34.274
34.272
34.268
34.262
34.254
34.242
34.226
34.206
34.181
34.15
34.114
34.073
34.029
33.983
33.935
33.887
33.839
33.791
33.742
33.693
33.642
33.589
33.534
33.476
33.416
33.356
33.297
33.239
33.183
33.129
33.077
33.027
32.978
32.931
32.885
32.841
32.797
32.755
32.714
32.675
32.638
32.603
32.57
32.537
32.505
32.474
32.445
32.417
32.392
32.368
32.345
32.323
32.302
32.283
32.266
32.251
32.238
32.227
32.219
32.212
32.206
32.201
32.197
32.193
32.191
32.194
32.203
32.223
32.257
32.307
32.379
32.477
32.604
32.764
32.961
33.196
33.472
33.788
34.141
34.53
34.948
35.39
35.851
36.322
36.797
37.268
37.728
38.17
38.587
38.973
39.325
39.638
39.912
40.144
40.335
40.484
40.593
40.662
40.694
40.691
40.656
40.592
40.502
40.388
40.254
40.101
39.932
39.752
39.563
39.368
39.17
38.97
38.77
38.572
38.375
38.18
37.988
37.798
37.611
37.425
37.241
37.059
36.879
36.703
36.529
36.36
36.194
36.033
35.876
35.723
35.574
35.43
35.289
35.152
35.019
34.89
34.766
34.648
34.537
34.434
34.341
34.258
34.185
34.124
34.073
34.032
34.003
33.983
33.972
33.971
33.977
33.99
34.009
34.033
34.062
34.092
34.125
34.157
34.189
34.221
34.251
34.28
34.307
34.332
34.355
34.373
34.388
34.398
34.404
34.405
34.401
34.393
34.38
34.362
34.34
34.314
34.285
34.253
34.219
34.183
34.144
34.103
34.06
34.015
33.967
33.916
33.862
33.804
33.744
33.682
33.62
33.559
33.5
33.444
33.393
33.344
33.298
33.255
33.213
33.173
33.133
33.095
33.059
33.024
32.991
32.96
32.93
32.901
32.872
32.842
32.81
32.778
32.744
32.709
32.675
32.641
32.61
32.582
32.557
32.536
32.517
32.501
32.488
32.478
32.471
32.469
32.474
32.488
32.513
32.552
32.609
32.687
32.791
32.922
33.085
33.28
33.51
33.775
34.075
34.409
34.773
35.164
35.579
36.011
36.455
36.905
37.354
37.796
38.224
38.631
39.013
39.363
39.678
39.955
40.191
40.385
40.536
40.645
40.714
40.743
40.736
40.694
40.623
40.525
40.404
40.264
40.107
39.937
39.755
39.567
39.375
39.181
38.988
38.797
38.607
38.42
38.234
38.049
37.867
37.687
37.508
37.33
37.152
36.974
36.797
36.621
36.447
36.276
36.108
35.944
35.782
35.624
35.469
35.319
35.174
35.035
34.901
34.775
34.656
34.546
34.446
34.355
34.274
34.204
34.143
34.091
34.048
34.014
33.989
33.973
33.965
33.965
33.973
33.987
34.006
34.03
34.058
34.089
34.121
34.155
34.188
34.22
34.25
34.276
34.298
34.315
34.326
34.33
34.328
34.319
34.304
34.285
34.262
34.237
34.209
34.18
34.15
34.119
34.088
34.057
34.024
33.992
33.959
33.926
33.892
33.857
33.819
33.777
33.733
33.685
33.634
33.581
33.525
33.468
33.409
33.349
33.289
33.231
33.175
33.122
33.072
33.027
32.986
32.948
32.914
32.882
32.852
32.824
32.799
32.775
32.752
32.73
32.709
32.688
32.668
32.648
32.627
32.605
32.583
32.559
32.533
32.508
32.483
32.461
32.443
32.432
32.43
32.44
32.467
32.511
32.576
32.666
32.784
32.934
33.119
33.342
33.606
33.911
34.257
34.639
35.054
35.496
35.958
36.434
36.913
37.389
37.854
38.3
38.721
39.111
39.467
39.784
40.061
40.297
40.492
40.646
40.761
40.839
40.882
40.893
40.875
40.831
40.762
40.673
40.565
40.441
40.303
40.154
39.994
39.826
39.651
39.47
39.284
39.096
38.905
38.713
38.521
38.331
38.144
37.96
37.78
37.606
37.436
37.27
37.109
36.951
36.796
36.642
36.491
36.341
36.191
36.042
35.892
35.743
35.595
35.45
35.307
35.17
35.04
34.918
34.804
34.7
34.608
34.526
34.456
34.397
34.347
34.307
34.275
34.251
34.233
34.222
34.217
34.217
34.223
34.232
34.243
34.257
34.271
34.286
34.301
34.317
34.332
34.347
34.361
34.374
34.386
34.397
34.406
34.411
34.412
34.407
34.398
34.385
34.367
34.345
34.318
34.288
34.255
34.218
34.179
34.136
34.091
34.043
33.993
33.94
33.886
33.833
33.779
33.727
33.675
33.623
33.572
33.522
33.471
33.422
33.373
33.326
33.281
33.238
33.197
33.157
33.118
33.078
33.037
32.995
32.951
32.907
32.863
32.822
32.783
32.747
32.714
32.684
32.656
32.63
32.607
32.586
32.568
32.551
32.535
32.521
32.507
32.496
32.487
32.484
32.486
32.498
32.524
32.566
32.629
32.718
32.837
32.99
33.179
33.406
33.671
33.975
34.317
34.693
35.099
35.531
35.981
36.444
36.913
37.379
37.837
38.279
38.701
39.097
39.46
39.788
40.078
40.326
40.531
40.694
40.813
40.892
40.931
40.934
40.904
40.843
40.754
40.642
40.511
40.363
40.202
40.031
39.852
39.668
39.481
39.291
39.101
38.911
38.724
38.539
38.357
38.179
38.006
37.837
37.672
37.511
37.351
37.192
37.033
36.872
36.709
36.543
36.376
36.207
36.038
35.87
