Trial 3:3back
32.692
32.676
32.66
32.645
32.628
32.61
32.591
32.571
32.55
32.527
32.502
32.478
32.452
32.428
32.403
32.379
32.353
32.326
32.298
32.269
32.239
32.21
32.182
32.155
32.13
32.105
32.081
32.058
32.037
32.016
31.995
31.974
31.951
31.928
31.904
31.881
31.859
31.839
31.82
31.805
31.795
31.793
31.801
31.824
31.864
31.925
32.01
32.12
32.258
32.423
32.616
32.836
33.082
33.351
33.64
33.946
34.265
34.592
34.923
35.252
35.576
35.889
36.188
36.469
36.731
36.971
37.189
37.384
37.557
37.707
37.837
37.946
38.036
38.108
38.162
38.201
38.223
38.233
38.23
38.218
38.199
38.175
38.147
38.117
38.086
38.057
38.031
38.008
37.988
37.972
37.958
37.946
37.936
37.927
37.919
37.911
37.902
37.892
37.878
37.86
37.836
37.805
37.766
37.721
37.668
37.608
37.542
37.472
37.397
37.319
37.239
37.159
37.081
37.006
36.936
36.869
36.806
36.746
36.689
36.634
36.583
36.536
36.493
36.455
36.421
36.39
36.362
36.335
36.309
36.283
36.256
36.23
36.202
36.173
36.142
36.111
36.079
36.045
36.01
35.974
35.936
35.899
35.86
35.82
35.779
35.736
35.69
35.643
35.594
35.543
35.491
35.439
35.385
35.332
35.277
35.223
35.167
35.111
35.055
34.998
34.939
34.88
34.82
34.759
34.698
34.636
34.574
34.511
34.449
34.387
34.325
34.266
34.207
34.15
34.094
34.04
33.99
33.942
33.898
33.858
33.82
33.785
33.751
33.719
33.688
33.657
33.627
33.596
33.563
33.529
33.493
33.456
33.417
33.376
33.336
33.295
33.256
33.218
33.181
33.145
33.11
33.077
33.046
33.017
32.99
32.965
32.941
32.917
32.895
32.873
32.852
32.831
32.811
32.79
32.768
32.745
32.721
32.694
32.666
32.638
32.61
32.584
32.559
32.537
32.517
32.498
32.481
32.464
32.449
32.435
32.422
32.409
32.396
32.381
32.364
32.345
32.324
32.302
32.279
32.254
32.228
32.201
32.174
32.146
32.118
32.09
32.061
32.033
32.005
31.977
31.95
31.924
31.899
31.875
31.851
31.827
31.804
31.783
31.765
31.749
31.735
31.724
31.717
31.712
31.711
31.716
31.729
31.753
31.791
31.846
31.92
32.018
32.139
32.286
32.46
32.659
32.885
33.135
33.408
33.7
34.01
34.331
34.661
34.992
35.322
35.646
35.961
36.262
36.545
36.809
37.049
37.266
37.458
37.625
37.767
37.884
37.978
38.05
38.101
38.133
38.148
38.148
38.136
38.113
38.082
38.046
38.01
37.975
37.943
37.917
37.895
37.88
37.869
37.861
37.855
37.851
37.847
37.841
37.834
37.824
37.812
37.797
37.778
37.755
37.727
37.695
37.657
37.614
37.566
37.513
37.456
37.397
37.336
37.274
37.213
37.154
37.097
37.042
36.991
36.943
36.899
36.858
36.822
36.789
36.761
36.737
36.718
36.704
36.693
36.686
36.682
36.682
36.685
36.689
36.692
36.692
36.687
36.678
36.665
36.647
36.625
36.598
36.567
36.532
36.494
36.455
36.414
36.374
36.334
36.293
36.253
36.212
36.169
36.123
36.076
36.025
35.972
35.916
35.858
35.798
35.736
35.673
35.608
35.542
35.476
35.411
35.347
35.284
35.223
35.163
35.105
35.048
34.993
34.94
34.889
34.841
34.794
34.75
34.706
34.664
34.623
34.582
34.541
34.502
34.464
34.427
34.392
34.358
34.324
34.289
34.256
34.222
34.189
34.156
34.125
34.095
34.064
34.034
34.003
33.972
33.941
33.91
33.879
33.848
33.818
33.789
33.763
33.738
33.716
33.695
33.676
33.657
33.638
33.619
33.6
33.58
33.561
33.541
33.522
33.503
33.484
33.464
33.443
33.421
33.398
33.375
33.352
33.329
33.304
33.279
33.253
33.226
33.198
33.17
33.143
33.117
33.091
33.065
33.041
33.017
32.992
32.968
32.943
32.918
32.892
32.866
32.84
32.814
32.789
32.764
32.739
32.714
32.689
32.664
32.637
32.61
32.584
32.559
32.538
32.521
32.511
32.51
32.522
32.549
32.596
32.665
32.76
32.882
33.034
33.215
33.425
33.662
33.923
34.207
34.509
34.827
35.157
35.494
35.834
36.173
36.505
36.826
37.133
37.421
37.688
37.931
38.15
38.343
38.512
38.655
38.774
38.869
38.943
38.997
39.034
39.057
39.069
39.072
39.069
39.06
39.048
39.033
39.016
38.997
38.977
38.956
38.935
38.915
38.895
38.876
38.857
38.839
38.821
38.802
38.78
38.756
38.728
38.697
38.661
38.62
38.575
38.525
38.471
38.412
38.348
38.281
38.211
38.14
38.069
37.997
37.924
37.853
37.785
37.719
37.658
37.601
37.549
37.503
37.461
37.425
37.394
37.368
37.347
37.33
37.316
37.303
37.292
37.28
37.267
37.252
37.235
37.216
37.195
37.172
37.145
37.115
37.082
37.045
37.006
36.964
36.92
36.872
36.821
36.767
36.709
36.649
36.587
36.524
36.46
36.396
36.333
36.27
36.208
36.144
36.08
36.015
35.948
35.881
35.814
35.746
35.678
35.61
35.543
35.477
35.413
35.351
35.291
35.233
35.176
35.121
35.067
35.015
34.964
34.912
34.862
34.813
34.764
34.717
34.672
34.628
34.585
34.542
34.5
34.458
34.417
34.377
34.336
34.295
34.253
34.21
34.168
34.127
34.086
34.047
34.011
33.977
33.945
33.917
33.891
33.866
33.843
33.818
33.793
33.766
33.737
33.707
33.675
33.644
33.613
33.583
33.555
33.529
33.502
33.476
33.449
33.423
33.397
33.371
33.347
33.324
33.301
33.278
33.255
33.231
33.206
33.18
33.154
33.129
33.103
33.078
33.054
33.029
33.004
32.979
32.952
32.925
32.897
32.868
32.839
32.811
32.782
32.754
32.725
32.695
32.664
32.632
32.599
32.566
32.533
32.502
32.472
32.442
32.414
32.388
32.364
32.343
32.325
32.311
32.302
32.3
32.305
32.321
32.35
32.395
32.46
32.548
32.663
32.807
32.982
33.19
33.43
33.701
34.0
34.325
34.672
35.035
35.409
35.789
36.169
36.545
36.913
37.269
37.611
37.935
38.239
38.521
38.778
39.009
39.214
39.393
39.545
39.671
39.772
39.85
39.907
39.946
39.97
39.984
39.989
39.988
39.981
39.97
39.956
39.939
39.919
39.898
39.875
39.851
39.827
39.803
39.782
39.762
39.745
39.731
39.717
39.703
39.687
39.671
39.651
39.628
39.599
39.563
39.519
39.467
39.407
39.34
39.267
39.189
39.107
39.022
38.937
38.851
38.766
38.684
38.607
38.533
38.465
38.4
38.341
38.285
38.234
38.188
38.146
38.108
38.073
38.041
38.012
37.985
37.96
37.937
37.915
37.894
37.871
37.847
37.821
37.792
37.76
37.725
37.685
37.642
37.596
37.546
37.492
37.436
37.377
37.315
37.25
37.184
37.116
37.048
36.98
36.911
36.842
36.773
36.702
36.631
36.558
36.484
36.408
36.331
36.252
36.171
36.09
36.008
35.928
35.849
35.771
35.696
35.623
35.553
35.485
35.418
35.352
35.287
35.222
35.158
35.094
35.033
34.972
34.914
34.858
34.804
34.753
34.704
34.657
34.612
34.568
34.525
34.481
34.438
34.394
34.349
34.305
34.262
34.22
34.178
34.138
34.098
34.058
34.019
33.98
33.942
33.906
33.873
33.841
33.812
33.783
33.754
33.725
33.695
33.665
33.635
33.605
33.576
33.547
33.517
33.485
33.452
33.418
33.382
33.345
33.308
33.272
33.238
33.204
33.173
33.144
33.116
33.09
33.065
33.04
33.015
32.991
32.966
32.941
32.916
32.891
32.864
32.832
32.797
32.758
32.715
32.671
32.627
32.582
32.539
32.499
32.461
32.425
32.393
32.364
32.338
32.314
32.293
32.273
32.253
32.232
32.208
32.181
32.152
32.121
32.09
32.058
32.027
31.998
31.972
31.947
31.926
31.907
31.892
31.882
31.879
31.887
31.911
31.954
32.02
32.113
32.235
32.389
32.577
32.8
33.057
33.348
33.671
34.023
34.399
34.794
35.203
35.62
36.039
36.455
36.862
37.256
37.633
37.99
38.324
38.631
38.91
39.159
39.378
39.566
39.725
39.855
39.96
40.041
40.1
40.139
40.162
40.17
40.165
40.148
40.121
40.087
40.047
40.005
39.963
39.921
39.883
39.849
39.819
39.794
39.775
39.76
39.748
39.737
39.726
39.712
39.694
39.672
39.644
39.609
39.568
39.518
39.461
39.397
39.326
39.25
39.169
39.085
38.999
38.913
38.825
38.736
38.648
38.561
38.478
38.398
38.324
38.255
38.192
38.134
38.083
38.037
37.997
37.96
37.926
37.895
37.865
37.837
37.81
37.783
37.756
37.726
37.694
37.657
37.616
37.571
37.523
37.471
37.416
37.358
37.298
37.238
37.177
37.116
37.054
36.99
36.925
36.857
36.787
36.715
36.641
36.564
36.486
36.405
36.322
36.236
36.149
36.061
35.974
35.887
35.801
35.717
35.635
35.556
35.479
35.403
35.328
35.252
35.176
35.099
35.022
34.945
34.869
34.794
34.721
34.649
34.578
34.509
34.441
34.375
34.311
34.249
34.19
34.133
34.078
34.024
33.971
33.92
33.869
33.82
33.773
33.729
33.686
33.645
33.604
33.564
33.525
33.486
33.448
33.41
33.374
33.341
33.309
33.28
33.253
33.228
33.203
33.178
33.152
33.125
33.098
33.07
33.043
33.017
32.991
32.965
32.939
32.914
32.89
32.867
32.845
32.824
32.805
32.785
32.765
32.745
32.724
32.702
32.679
32.655
32.631
32.606
32.582
32.559
32.535
32.513
32.49
32.466
32.441
32.417
32.392
32.368
32.343
32.319
32.295
32.271
32.246
32.221
32.194
32.166
32.138
32.108
32.078
32.048
32.019
31.989
31.958
31.928
31.897
31.866
31.835
31.806
31.778
31.753
31.731
31.71
31.692
31.677
31.667
31.667
31.68
31.71
31.762
31.839
31.946
32.084
32.254
32.452
32.678
32.931
33.211
33.517
33.848
34.202
34.575
34.966
35.368
35.777
36.188
36.596
36.995
37.38
37.744
38.085
38.397
38.677
38.924
39.136
39.315
39.462
39.578
39.667
39.729
39.768
39.786
39.786
39.77
39.742
39.704
39.658
39.606
39.549
39.491
39.432
39.374
39.316
39.261
39.208
39.158
39.112
39.069
39.028
38.989
38.95
38.911
38.87
38.824
38.772
38.716
38.654
38.588
38.517
38.443
38.367
38.29
38.214
38.139
38.067
37.997
37.931
37.87
37.812
37.759
37.712
37.671
37.637
37.609
37.587
37.57
37.558
37.55
37.545
37.543
37.54
37.537
37.532
37.524
37.512
37.495
37.473
37.447
37.416
37.382
37.346
37.308
37.269
37.228
37.187
37.143
37.096
37.047
36.994
36.939
36.881
36.82
36.757
36.692
36.625
36.557
36.487
36.416
36.343
36.269
36.195
36.121
36.047
35.973
35.9
35.828
35.757
35.686
35.616
35.547
35.479
35.412
35.344
35.276
35.208
35.14
35.074
35.009
34.945
34.882
34.818
34.755
34.691
34.629
34.568
34.508
34.452
34.397
34.344
34.293
34.244
34.196
34.15
34.106
34.063
34.021
33.979
33.937
33.895
33.855
33.815
33.777
33.741
33.707
33.676
33.646
33.619
33.593
33.569
33.547
33.527
33.508
33.49
33.473
33.455
33.437
33.417
33.397
33.377
33.356
33.334
33.312
33.288
33.263
33.235
33.205
33.174
33.141
33.107
33.073
33.038
33.004
32.97
32.935
32.899
32.863
32.825
32.787
32.749
32.711
32.674
32.637
32.601
32.566
32.531
32.497
32.463
32.429
32.395
32.36
32.325
32.29
32.256
32.223
32.192
32.163
32.14
32.125
32.124
32.14
32.178
32.244
32.341
32.47
32.634
32.834
33.07
33.34
33.642
33.974
34.332
34.711
35.108
35.515
35.929
36.343
36.755
37.159
37.55
37.925
38.28
38.612
38.917
39.194
39.442
39.66
39.85
40.012
40.148
40.259
40.346
40.413
40.461
40.491
40.508
40.511
40.505
40.491
40.47
40.443
40.413
40.381
40.347
40.313
40.279
40.245
40.214
40.183
40.154
40.127
40.1
40.076
40.052
40.027
40.001
39.972
39.939
39.901
39.856
39.805
39.747
39.683
39.612
39.536
39.456
39.371
39.284
39.195
39.103
39.009
38.916
38.823
38.734
38.648
38.567
38.492
38.422
38.357
38.296
38.241
38.191
38.146
38.106
38.07
38.038
38.008
37.979
37.951
37.923
37.895
37.865
37.833
37.8
37.766
37.729
37.69
37.649
37.605
37.556
37.504
37.446
37.384
37.317
37.246
37.17
37.092
37.012
36.931
36.85
36.77
36.69
36.61
36.529
36.447
36.362
36.276
36.19
36.103
36.017
35.933
35.85
35.769
35.69
35.613
35.536
35.46
35.384
35.308
35.231
35.155
35.079
35.005
34.932
34.861
34.793
34.726
34.662
34.599
34.539
34.48
34.422
34.365
34.308
34.251
34.195
34.139
34.085
34.032
33.981
33.932
33.886
33.844
33.805
33.768
33.734
33.703
33.673
33.646
33.619
33.593
33.567
33.54
33.514
33.487
33.46
33.432
33.404
33.375
33.345
33.314
33.282
33.252
33.223
33.195
33.169
33.144
33.12
33.097
33.074
33.051
33.029
33.006
32.983
32.959
32.935
32.911
32.885
32.858
32.831
32.803
32.775
32.745
32.713
32.68
32.646
32.612
32.577
32.544
32.512
32.482
32.454
32.426
32.4
32.376
32.352
32.33
32.308
32.286
32.263
32.241
32.22
32.201
32.187
32.179
32.18
32.194
32.224
32.277
32.355
32.463
32.604
32.781
32.994
33.244
33.531
33.853
34.206
34.588
34.995
35.422
35.862
36.309
36.757
37.199
37.631
38.046
38.44
38.812
39.158
39.474
39.76
40.014
40.234
40.421
40.575
40.697
40.79
40.856
40.898
40.918
40.921
40.909
40.887
40.856
40.819
40.777
40.733
40.688
40.642
40.598
40.556
40.517
40.481
40.45
40.422
40.399
40.38
40.363
40.348
40.333
40.316
40.295
40.271
40.241
40.207
40.17
40.132
40.091
40.047
39.995
39.935
39.864
39.782
39.69
39.588
39.476
39.359
39.237
39.114
38.993
38.874
38.761
38.655
38.556
38.466
38.384
38.31
38.242
38.18
38.123
38.071
38.021
37.973
37.927
37.883
37.84
37.797
37.755
37.712
37.666
37.617
37.564
37.506
37.446
37.381
37.313
37.242
37.169
37.093
37.015
36.934
36.851
36.767
36.681
36.595
36.508
36.421
36.333
36.246
36.159
36.072
35.985
35.897
35.809
35.72
35.63
35.539
35.448
35.358
35.269
35.184
35.1
35.02
34.941
34.863
34.787
34.711
34.636
34.564
34.494
34.427
34.362
34.298
34.235
34.173
34.109
34.046
33.984
33.923
33.863
33.805
33.748
33.694
33.64
33.587
33.535
33.484
33.433
33.384
33.336
33.29
33.247
33.205
33.164
33.124
33.085
33.045
33.005
32.964
32.923
32.883
32.845
32.809
32.775
32.742
32.711
32.682
32.652
32.624
32.596
32.571
32.546
32.523
32.5
32.477
32.452
32.427
32.4
32.372
32.342
32.311
32.279
32.245
32.211
32.176
32.141
32.105
32.068
32.03
31.99
31.949
31.907
31.865
31.825
31.788
31.753
31.72
31.686
31.653
31.618
31.582
31.544
31.505
31.465
31.425
31.385
31.347
31.311
31.279
31.252
31.232
31.222
31.224
31.243
31.283
31.349
31.445
31.574
31.741
31.946
32.19
32.474
32.795
33.151
33.539
33.953
34.388
34.837
35.292
35.747
36.194
36.63
37.048
37.445
37.817
38.161
38.475
38.758
39.009
39.228
39.417
39.576
39.708
39.813
39.895
39.955
39.997
40.022
40.033
40.033
40.023
40.004
39.978
39.946
39.911
39.874
39.835
39.797
39.759
39.723
39.689
39.655
39.622
39.59
39.556
39.521
39.483
39.441
39.396
39.346
39.291
39.231
39.168
39.1
39.028
38.951
38.87
38.785
38.697
38.606
38.514
38.422
38.33
38.241
38.154
38.072
37.996
37.926
37.862
37.806
37.757
37.714
37.676
37.642
37.611
37.584
37.559
37.537
37.518
37.499
37.482
37.463
37.443
37.421
37.395
37.365
37.331
37.292
37.249
37.202
37.152
37.099
37.044
36.988
36.929
36.868
36.805
36.739
36.672
36.604
36.533
36.461
36.387
36.313
36.238
36.165
36.092
36.021
35.95
35.879
35.807
35.734
35.66
35.585
35.51
35.436
35.366
35.301
35.242
35.186
35.133
35.081
35.027
34.971
34.914
34.854
34.793
34.731
34.668
34.606
34.543
34.48
34.419
34.36
34.303
34.249
34.199
34.153
34.11
34.071
34.035
34.002
33.971
33.942
33.914
33.887
33.86
33.835
33.81
33.786
33.763
33.741
33.719
33.698
33.676
33.654
33.633
33.612
33.593
33.574
33.554
33.534
33.512
33.488
33.462
33.436
33.409
33.382
33.354
33.325
33.295
33.263
33.23
33.196
33.16
33.123
33.086
33.047
33.008
32.969
32.929
32.888
32.843
32.796
32.748
32.7
32.653
32.608
32.566
32.528
32.496
32.47
32.452
32.442
32.444
32.46
32.495
32.551
32.633
32.743
32.883
33.057
33.263
33.502
33.774
34.077
34.406
34.759
35.13
35.514
35.906
36.301
36.695
37.081
37.457
37.819
38.163
38.487
38.787
39.061
39.309
39.527
39.716
39.874
40.004
40.105
40.18
40.232
40.263
40.276
40.276
40.263
40.241
40.211
40.176
40.137
40.096
40.054
40.012
39.971
39.933
39.896
39.86
39.824
39.789
39.753
39.715
39.675
39.633
39.588
39.539
39.485
39.426
39.362
39.29
39.212
39.127
39.036
38.939
38.838
38.735
38.632
38.528
38.427
38.331
38.239
38.154
38.077
38.008
37.946
37.892
37.843
37.801
37.763
37.729
37.7
37.674
37.651
37.631
37.613
37.596
37.578
37.559
37.537
37.512
37.482
37.448
37.41
37.368
37.323
37.274
37.223
37.168
37.11
37.048
36.981
36.909
36.832
36.752
36.669
36.585
36.5
36.416
36.331
36.246
36.16
36.073
35.986
35.899
35.811
35.724
35.637
35.551
35.465
35.381
35.297
35.214
35.133
35.052
34.973
34.896
34.821
34.748
34.678
34.611
34.543
34.474
34.403
34.329
34.254
34.178
34.104
34.034
33.969
33.91
33.856
33.807
33.763
33.724
33.689
33.659
33.632
33.609
33.588
33.568
33.547
33.524
33.5
33.473
33.444
33.412
33.379
33.345
33.31
33.277
33.244
33.212
33.181
33.152
33.124
33.098
33.074
33.052
33.031
33.01
32.99
32.968
32.945
32.92
32.891
32.859
32.824
32.788
32.752
32.716
32.679
32.643
32.607
32.57
32.532
32.493
32.455
32.416
32.377
32.337
32.295
32.253
32.21
32.166
32.122
32.078
32.035
31.991
31.949
31.907
31.866
31.828
31.792
31.758
31.726
31.698
31.675
31.656
31.646
31.648
31.665
31.703
31.766
31.859
31.985
32.149
32.353
32.596
32.878
33.199
33.554
33.941
34.355
34.789
35.239
35.699
36.16
36.618
37.067
37.502
37.919
38.313
38.682
39.023
39.334
39.613
39.86
40.076
40.262
40.419
40.549
40.653
40.732
40.79
40.828
40.848
40.853
40.846
40.828
40.802
40.771
40.738
40.703
40.668
40.634
40.604
40.576
40.552
40.532
40.514
40.499
40.487
40.477
40.467
40.456
40.444
40.429
40.408
40.381
40.346
40.303
40.25
40.187
40.115
40.032
39.941
39.842
39.734
39.62
39.502
39.38
39.256
39.134
39.014
38.899
38.791
38.689
38.596
38.511
38.434
38.364
38.301
38.243
38.19
38.141
38.095
38.052
38.011
37.971
37.932
37.893
37.854
37.812
37.769
37.723
37.674
37.62
37.562
37.499
37.431
37.359
37.285
37.208
37.13
37.05
36.97
36.89
36.809
36.727
36.644
36.561
36.479
36.396
36.314
36.234
36.153
36.072
35.989
35.904
35.816
35.725
35.632
35.538
35.444
35.351
35.259
35.17
35.084
35.001
34.921
34.844
34.77
34.697
34.626
34.556
34.487
34.419
34.351
34.284
34.217
34.151
34.084
34.018
33.952
33.889
33.828
33.77
33.716
33.666
33.621
33.579
33.54
33.503
33.469
33.436
33.406
33.377
33.35
33.324
33.298
33.272
33.245
33.217
33.188
33.157
33.125
33.09
33.054
33.017
32.979
32.94
32.901
32.862
32.824
32.786
32.748
32.711
32.676
32.642
32.609
32.578
32.548
32.519
32.491
32.464
32.437
32.411
32.384
32.356
32.327
32.297
32.266
32.235
32.202
32.168
32.134
32.098
32.063
32.027
31.988
31.947
31.903
31.86
31.817
31.774
31.734
31.696
31.661
31.628
31.597
31.568
31.539
31.512
31.484
31.457
31.432
31.408
31.386
31.364
31.342
31.32
31.298
31.275
31.254
31.234
31.218
31.208
31.209
31.225
31.26
31.321
31.412
31.538
31.702
31.909
32.158
32.45
32.784
33.155
33.561
33.996
34.454
34.928
35.412
35.898
36.38
36.85
37.304
37.737
38.145
38.525
38.874
39.191
39.475
39.724
39.94
40.122
40.273
40.393
40.487
40.556
40.604
40.634
40.648
40.649
40.64
40.624
40.603
40.577
40.55
40.525
40.507
40.497
40.495
40.5
40.509
40.519
40.527
40.531
40.528
40.517
40.498
40.469
40.43
40.382
40.326
40.263
40.193
40.118
40.036
39.948
39.855
39.756
39.651
39.542
39.431
39.317
39.204
39.093
38.984
38.879
38.78
38.688
38.603
38.526
38.459
38.398
38.345
38.296
38.251
38.21
38.171
38.133
38.098
38.064
38.03
37.996
37.96
37.921
37.879
37.833
37.783
37.728
37.669
37.607
37.542
37.475
37.406
37.336
37.263
37.19
37.114
37.037
36.959
36.88
36.8
36.72
36.641
36.561
36.482
36.402
