Trial 3:3back
35.983
35.958
35.934
35.911
35.888
35.865
35.842
35.82
35.797
35.774
35.751
35.729
35.705
35.681
35.656
35.63
35.604
35.577
35.549
35.521
35.492
35.463
35.434
35.405
35.375
35.346
35.317
35.289
35.263
35.238
35.215
35.195
35.176
35.158
35.142
35.127
35.112
35.098
35.086
35.075
35.064
35.055
35.045
35.035
35.024
35.011
34.997
34.981
34.964
34.944
34.924
34.901
34.877
34.852
34.826
34.8
34.774
34.75
34.727
34.706
34.686
34.669
34.653
34.639
34.627
34.615
34.603
34.591
34.579
34.565
34.551
34.536
34.52
34.505
34.489
34.473
34.458
34.442
34.426
34.41
34.393
34.376
34.359
34.342
34.325
34.308
34.291
34.273
34.253
34.233
34.21
34.186
34.16
34.133
34.104
34.076
34.048
34.02
33.995
33.97
33.947
33.926
33.907
33.89
33.876
33.865
33.858
33.857
33.862
33.875
33.896
33.927
33.968
34.021
34.084
34.157
34.241
34.335
34.437
34.549
34.667
34.792
34.921
35.053
35.186
35.319
35.45
35.578
35.702
35.821
35.934
36.039
36.138
36.229
36.311
36.385
36.45
36.507
36.555
36.596
36.63
36.657
36.679
36.695
36.706
36.713
36.716
36.715
36.712
36.707
36.701
36.694
36.688
36.681
36.675
36.668
36.66
36.652
36.642
36.632
36.62
36.607
36.591
36.573
36.553
36.532
36.509
36.485
36.461
36.435
36.409
36.382
36.353
36.322
36.288
36.252
36.214
36.174
36.134
36.093
36.053
36.014
35.978
35.943
35.913
35.885
35.862
35.842
35.826
35.813
35.805
35.8
35.799
35.802
35.808
35.816
35.827
35.84
35.854
35.868
35.882
35.895
35.908
35.918
35.927
35.935
35.941
35.946
35.95
35.952
35.954
35.954
35.952
35.949
35.944
35.938
35.931
35.921
35.91
35.897
35.883
35.866
35.847
35.826
35.803
35.779
35.755
35.73
35.705
35.68
35.655
35.629
35.603
35.577
35.55
35.523
35.496
35.468
35.44
35.413
35.386
35.359
35.333
35.306
35.278
35.249
35.219
35.187
35.156
35.124
35.093
35.063
35.035
35.008
34.983
34.959
34.936
34.915
34.894
34.874
34.855
34.836
34.817
34.799
34.781
34.764
34.747
34.73
34.713
34.695
34.677
34.657
34.637
34.617
34.596
34.576
34.557
34.538
34.52
34.503
34.488
34.473
34.46
34.447
34.435
34.424
34.413
34.402
34.392
34.382
34.372
34.361
34.348
34.333
34.315
34.295
34.273
34.249
34.224
34.198
34.172
34.146
34.119
34.093
34.067
34.042
34.017
33.993
33.971
33.95
33.931
33.913
33.898
33.886
33.876
33.87
33.869
33.872
33.881
33.896
33.919
33.95
33.99
34.041
34.103
34.177
34.262
34.359
34.466
34.584
34.709
34.842
34.979
35.118
35.258
35.395
35.529
35.657
35.778
35.891
35.996
36.091
36.177
36.254
36.322
36.381
36.432
36.475
36.509
36.536
36.557
36.571
36.58
36.585
36.586
36.586
36.583
36.58
36.577
36.573
36.57
36.566
36.563
36.559
36.556
36.552
36.549
36.544
36.539
36.532
36.524
36.515
36.504
36.491
36.477
36.46
36.44
36.417
36.391
36.36
36.326
36.288
36.248
36.204
36.16
36.114
36.068
36.023
35.979
35.937
35.895
35.856
35.82
35.788
35.759
35.735
35.716
35.702
35.692
35.688
35.687
35.69
35.695
35.703
35.711
35.721
35.731
35.742
35.753
35.764
35.775
35.786
35.796
35.805
35.812
35.817
35.819
35.818
35.814
35.807
35.795
35.781
35.764
35.744
35.722
35.698
35.673
35.646
35.619
35.591
35.562
35.534
35.506
35.478
35.451
35.423
35.396
35.369
35.343
35.318
35.293
35.268
35.244
35.221
35.197
35.172
35.146
35.119
35.091
35.061
35.031
35.0
34.969
34.938
34.907
34.876
34.846
34.817
34.789
34.763
34.737
34.712
34.687
34.663
34.639
34.616
34.593
34.571
34.55
34.531
34.513
34.497
34.483
34.469
34.455
34.441
34.428
34.414
34.401
34.388
34.376
34.364
34.354
34.344
34.335
34.326
34.317
34.307
34.297
34.285
34.273
34.259
34.245
34.231
34.217
34.203
34.191
34.18
34.169
34.16
34.151
34.142
34.133
34.125
34.116
34.107
34.098
34.088
34.077
34.065
34.052
34.039
34.024
34.008
33.992
33.976
33.96
33.944
33.927
33.91
33.893
33.875
33.857
33.837
33.816
33.794
33.771
33.747
33.723
33.698
33.675
33.654
33.634
33.616
33.602
33.591
33.585
33.584
33.591
33.607
33.631
33.667
33.713
33.772
33.842
33.924
34.018
34.124
34.24
34.366
34.499
34.639
34.784
34.931
35.081
35.23
35.378
35.523
35.663
35.796
35.922
36.037
36.142
36.235
36.318
36.388
36.449
36.499
36.541
36.575
36.603
36.626
36.644
36.658
36.669
36.677
36.683
36.687
36.69
36.692
36.693
36.694
36.694
36.694
36.694
36.694
36.693
36.693
36.692
36.691
36.69
36.688
36.685
36.681
36.677
36.671
36.664
36.656
36.645
36.633
36.617
36.598
36.576
36.549
36.519
36.484
36.445
36.403
36.358
36.312
36.266
36.221
36.178
36.137
36.1
36.067
36.04
36.017
35.999
35.986
35.977
35.972
35.971
35.974
35.979
35.987
35.997
36.009
36.022
36.036
36.05
36.063
36.076
36.087
36.096
36.102
36.106
36.106
36.103
36.096
36.087
36.076
36.062
36.047
36.03
36.011
35.991
35.969
35.946
35.92
35.893
35.864
35.834
35.804
35.774
35.745
35.718
35.691
35.666
35.643
35.619
35.596
35.573
35.549
35.524
35.499
35.473
35.448
35.423
35.399
35.374
35.351
35.328
35.304
35.28
35.255
35.229
35.2
35.17
35.139
35.107
35.074
35.041
35.008
34.975
34.943
34.912
34.883
34.857
34.832
34.811
34.792
34.777
34.765
34.756
34.749
34.745
34.741
34.739
34.737
34.735
34.732
34.729
34.725
34.72
34.714
34.706
34.697
34.687
34.676
34.663
34.648
34.632
34.614
34.594
34.574
34.553
34.533
34.512
34.493
34.475
34.458
34.444
34.431
34.419
34.408
34.399
34.39
34.381
34.372
34.364
34.354
34.345
34.335
34.324
34.314
34.303
34.292
34.28
34.269
34.257
34.245
34.232
34.219
34.205
34.191
34.177
34.163
34.149
34.135
34.12
34.104
34.087
34.067
34.046
34.022
33.995
33.967
33.936
33.905
33.874
33.842
33.812
33.782
33.753
33.727
33.703
33.681
33.664
33.65
33.642
33.64
33.644
33.657
33.678
33.707
33.747
33.798
33.861
33.937
34.026
34.129
34.244
34.371
34.508
34.654
34.807
34.964
35.124
35.285
35.445
35.602
35.755
35.903
36.043
36.176
36.298
36.41
36.511
36.6
36.678
36.745
36.801
36.847
36.884
36.914
36.937
36.956
36.971
36.983
36.993
37.002
37.01
37.018
37.025
37.032
37.038
37.045
37.051
37.058
37.064
37.071
37.076
37.081
37.083
37.084
37.082
37.079
37.072
37.063
37.05
37.035
37.016
36.995
36.97
36.942
36.911
36.877
36.84
36.802
36.763
36.724
36.684
36.645
36.606
36.568
36.531
36.497
36.464
36.434
36.407
36.383
36.363
36.346
36.333
36.323
36.318
36.318
36.321
36.327
36.336
36.347
36.359
36.371
36.384
36.396
36.407
36.417
36.425
36.432
36.434
36.434
36.428
36.419
36.405
36.387
36.366
36.341
36.314
36.285
36.255
36.223
36.19
36.156
36.122
36.089
36.057
36.026
35.997
35.969
35.944
35.919
35.896
35.873
35.85
35.827
35.804
35.779
35.754
35.727
35.699
35.67
35.64
35.608
35.576
35.542
35.507
35.472
35.436
35.401
35.366
35.332
35.3
35.27
35.242
35.216
35.191
35.166
35.142
35.118
35.093
35.069
35.045
35.022
35.001
34.981
34.963
34.946
34.93
34.915
34.9
34.884
34.869
34.853
34.837
34.821
34.805
34.79
34.775
34.76
34.745
34.73
34.715
34.699
34.684
34.669
34.655
34.641
34.628
34.617
34.607
34.598
34.588
34.579
34.568
34.556
34.542
34.527
34.512
34.497
34.483
34.47
34.458
34.447
34.436
34.425
34.414
34.402
34.389
34.375
34.361
34.345
34.328
34.31
34.291
34.271
34.251
34.229
34.207
34.185
34.162
34.14
34.118
34.096
34.075
34.055
34.035
34.017
34.0
33.983
33.969
33.955
33.943
33.932
33.923
33.917
33.915
33.917
33.925
33.939
33.961
33.992
34.031
34.079
34.136
34.202
34.278
34.362
34.454
34.553
34.659
34.772
34.889
35.01
35.135
35.261
35.388
35.514
35.637
35.757
35.873
35.983
36.088
36.186
36.278
36.363
36.441
36.512
36.576
36.634
36.686
36.731
36.771
36.805
36.834
36.858
36.877
36.893
36.906
36.917
36.926
36.934
36.941
36.947
36.952
36.954
36.955
36.954
36.95
36.945
36.939
36.931
36.923
36.913
36.902
36.889
36.874
36.856
36.835
36.811
36.783
36.751
36.714
36.672
36.627
36.578
36.526
36.472
36.416
36.359
36.304
36.249
36.195
36.145
36.097
36.053
36.012
35.974
35.939
35.907
35.88
35.855
35.834
35.816
35.8
35.786
35.774
35.764
35.756
35.749
35.744
35.741
35.74
35.74
35.742
35.744
35.748
35.751
35.755
35.759
35.764
35.767
35.771
35.773
35.774
35.774
35.772
35.769
35.766
35.763
35.759
35.756
35.752
35.747
35.741
35.734
35.726
35.717
35.707
35.695
35.683
35.669
35.653
35.637
35.618
35.599
35.577
35.554
35.529
35.503
35.474
35.444
35.412
35.378
35.344
35.309
35.275
35.241
35.207
35.174
35.142
35.11
35.078
35.048
35.018
34.991
34.964
34.94
34.918
34.897
34.877
34.859
34.84
34.821
34.802
34.782
34.761
34.739
34.716
34.693
34.668
34.643
34.618
34.593
34.568
34.543
34.52
34.497
34.474
34.452
34.432
34.412
34.394
34.376
34.358
34.34
34.322
34.303
34.284
34.266
34.248
34.231
34.214
34.199
34.184
34.17
34.156
34.143
34.129
34.116
34.102
34.089
34.076
34.062
34.047
34.032
34.015
33.999
33.983
33.968
33.954
33.94
33.927
33.913
33.9
33.886
33.873
33.859
33.845
33.832
33.819
33.807
33.796
33.785
33.776
33.768
33.763
33.76
33.76
33.765
33.775
33.792
33.817
33.853
33.9
33.959
34.031
34.114
34.21
34.317
34.435
34.563
34.7
34.844
34.994
35.148
35.303
35.458
35.61
35.758
35.9
36.034
36.16
36.275
36.381
36.476
36.561
36.637
36.703
36.761
36.81
36.851
36.886
36.916
36.94
36.961
36.98
36.996
37.011
37.026
37.04
37.055
37.072
37.089
37.107
37.125
37.142
37.157
37.171
37.181
37.188
37.193
37.194
37.192
37.187
37.18
37.17
37.158
37.144
37.128
37.109
37.087
37.063
37.037
37.008
36.978
36.946
36.913
36.878
36.842
36.806
36.769
36.732
36.696
36.66
36.626
36.593
36.562
36.532
36.504
36.477
36.452
36.428
36.406
36.386
36.369
36.354
36.342
36.334
36.33
36.328
36.331
36.335
36.342
36.349
36.356
36.362
36.366
36.369
36.369
36.366
36.361
36.353
36.342
36.328
36.311
36.292
36.269
36.242
36.212
36.179
36.144
36.107
36.07
36.032
35.994
35.957
35.92
35.885
35.851
35.818
35.786
35.755
35.723
35.693
35.662
35.633
35.604
35.577
35.552
35.528
35.506
35.485
35.465
35.444
35.422
35.4
35.377
35.354
35.331
35.307
35.282
35.257
35.23
35.202
35.173
35.143
35.11
35.077
35.044
35.01
34.976
34.943
34.912
34.882
34.854
34.827
34.802
34.779
34.756
34.735
34.714
34.695
34.677
34.66
34.646
34.633
34.622
34.611
34.6
34.589
34.577
34.565
34.553
34.539
34.524
34.508
34.492
34.474
34.457
34.439
34.42
34.402
34.383
34.363
34.344
34.324
34.304
34.285
34.266
34.247
34.229
34.211
34.194
34.178
34.162
34.148
34.133
34.119
34.105
34.091
34.077
34.063
34.048
34.032
34.016
34.0
33.983
33.965
33.946
33.925
33.902
33.878
33.852
33.824
33.796
33.766
33.737
33.709
33.681
33.654
33.63
33.607
33.588
33.572
33.561
33.555
33.555
33.562
33.576
33.598
33.63
33.671
33.724
33.788
33.864
33.953
34.055
34.169
34.294
34.429
34.574
34.726
34.883
35.044
35.207
35.37
35.532
35.69
35.844
35.991
36.131
36.263
36.386
36.499
36.603
36.695
36.777
36.849
36.91
36.963
37.007
37.043
37.072
37.095
37.113
37.126
37.136
37.144
37.149
37.153
37.156
37.158
37.16
37.161
37.162
37.162
37.163
37.163
37.164
37.164
37.164
37.163
37.162
37.159
37.156
37.151
37.145
37.137
37.127
37.115
37.099
37.081
37.059
37.033
37.003
36.969
36.932
36.891
36.848
36.803
36.757
36.709
36.662
36.616
36.572
36.529
36.489
36.453
36.422
36.395
36.372
36.355
36.343
36.335
36.331
36.329
36.33
36.332
36.335
36.337
36.339
36.339
36.339
36.337
36.335
36.331
36.326
36.32
36.311
36.301
36.289
36.275
36.258
36.239
36.218
36.195
36.171
36.145
36.118
36.089
36.06
36.029
35.997
35.965
35.931
35.896
35.861
35.825
35.789
35.753
35.717
35.682
35.648
35.616
35.585
35.556
35.529
35.504
35.48
35.457
35.433
35.41
35.386
35.36
35.334
35.307
35.279
35.252
35.223
35.195
35.166
35.135
35.104
35.073
35.04
35.008
34.975
34.942
34.91
34.878
34.846
34.816
34.786
34.758
34.73
34.704
34.678
34.654
34.632
34.611
34.592
34.575
34.56
34.546
34.534
34.522
34.511
34.499
34.486
34.471
34.455
34.439
34.421
34.403
34.384
34.365
34.345
34.325
34.303
34.281
34.259
34.237
34.216
34.195
34.175
34.155
34.136
34.118
34.101
34.084
34.068
34.053
34.038
34.025
34.012
33.999
33.986
33.973
33.96
33.948
33.935
33.923
33.911
33.898
33.885
33.87
33.853
33.834
33.813
33.791
33.768
33.743
33.718
33.693
33.669
33.644
33.62
33.595
33.57
33.545
33.519
33.494
33.468
33.444
33.42
33.397
33.375
33.354
33.335
33.317
33.302
33.289
33.281
33.277
33.277
33.283
33.295
33.314
33.339
33.373
33.416
33.469
33.533
33.608
33.694
33.793
33.902
34.021
34.148
34.283
34.423
34.566
34.711
34.857
35.001
35.142
35.279
35.41
35.535
35.652
35.76
35.858
35.945
36.02
36.083
36.134
36.175
36.206
36.228
36.242
36.251
36.254
36.254
36.25
36.244
36.237
36.229
36.221
36.213
36.207
36.201
36.195
36.19
36.185
36.18
36.175
36.168
36.16
36.15
36.138
36.123
36.106
36.086
36.063
36.037
36.009
35.977
35.943
35.906
35.867
35.826
35.784
35.74
35.696
35.65
35.603
35.556
35.508
35.459
35.412
35.366
35.324
35.285
35.251
35.222
35.199
35.182
35.17
35.162
35.159
35.159
35.162
35.168
35.177
35.188
35.202
35.218
35.235
35.253
35.27
35.286
35.301
35.312
35.321
35.327
35.329
35.328
35.324
35.318
35.309
35.298
35.286
35.272
35.256
35.238
35.219
35.197
35.173
35.148
35.121
35.094
35.066
35.038
35.011
34.985
34.959
34.934
34.909
34.885
34.86
34.836
34.811
34.787
34.763
34.737
34.711
34.685
34.657
34.628
34.599
34.568
34.537
34.504
34.471
34.438
34.404
34.371
34.338
34.305
34.274
34.243
34.212
34.182
34.152
34.123
34.095
34.068
34.042
34.018
33.995
33.974
33.954
33.936
33.919
33.903
33.889
33.876
33.863
33.85
33.837
33.823
33.81
33.796
33.783
33.769
33.756
33.744
33.732
33.72
33.708
33.695
33.683
33.671
33.659
33.648
33.637
33.626
33.614
33.603
33.591
33.58
33.569
33.559
33.55
33.542
33.534
33.528
33.522
33.516
33.51
33.503
33.495
33.486
33.475
33.462
33.448
33.432
33.415
33.397
33.377
33.356
33.335
33.313
33.29
33.266
33.242
33.218
33.194
33.17
33.147
33.124
33.101
33.077
33.054
33.031
33.01
32.989
32.97
32.954
32.94
32.93
32.925
32.926
32.934
32.95
32.976
33.012
33.06
33.12
33.193
33.279
33.376
33.485
33.604
33.732
33.867
34.008
34.151
34.295
34.438
34.577
34.712
34.841
34.964
35.08
35.188
35.286
35.376
35.455
35.525
35.585
35.636
35.678
35.711
35.736
35.754
35.767
35.774
35.778
35.78
35.779
35.777
35.773
35.769
35.764
35.758
35.752
35.746
35.739
35.733
35.726
35.72
35.713
35.707
35.701
35.693
35.685
35.674
35.662
35.646
35.629
35.609
35.586
35.561
35.533
35.503
35.47
35.434
35.395
35.355
35.312
35.267
35.221
35.175
35.129
35.084
35.042
35.002
34.966
34.933
34.905
34.881
34.861
34.845
34.833
34.826
34.823
34.824
34.829
34.838
34.85
34.865
34.882
34.9
34.918
34.935
34.951
34.965
34.976
34.984
34.99
34.992
34.992
34.99
34.986
34.981
34.975
34.967
34.957
34.944
34.929
34.912
34.891
34.869
34.844
34.819
34.793
34.766
34.738
34.709
34.68
34.65
34.621
34.593
34.567
34.542
34.518
34.497
34.476
34.457
34.44
34.423
34.406
34.389
34.371
34.352
34.331
34.309
34.287
34.264
34.24
34.216
34.193
34.171
34.149
34.127
34.105
34.083
34.06
34.037
34.015
33.994
33.973
33.954
33.934
33.915
33.896
33.877
33.858
33.84
33.823
33.807
33.792
33.778
33.766
33.754
33.744
33.735
33.727
33.719
33.713
33.706
33.699
33.693
33.686
33.68
33.673
33.667
33.66
33.654
33.647
33.639
33.631
33.623
33.613
33.603
33.592
33.58
33.568
33.556
33.543
33.531
33.519
33.508
33.496
33.485
33.474
33.462
33.451
33.44
33.43
33.421
33.413
33.406
33.4
33.395
33.39
33.385
33.38
33.376
33.372
33.368
33.364
33.36
33.355
33.349
33.341
33.332
33.32
33.307
33.293
33.277
33.26
33.241
33.222
33.202
33.182
33.162
33.143
33.124
33.106
33.09
33.075
33.063
33.054
33.048
33.047
33.05
33.059
33.073
33.096
33.127
33.169
33.221
33.285
33.361
33.448
33.547
33.656
33.774
33.901
34.036
34.176
34.321
34.467
34.614
34.76
34.903
35.042
35.176
35.303
35.422
35.533
35.634
35.724
35.803
35.871
35.928
35.974
36.011
36.039
36.059
36.073
36.081
36.084
36.085
36.082
36.078
36.071
36.064
36.055
36.045
36.035
36.025
36.015
36.007
35.999
35.993
35.988
35.984
35.979
35.975
35.969
35.961
35.951
35.939
35.925
35.909
35.891
35.872
35.852
35.831
35.809
35.786
35.76
35.733
35.704
35.673
35.641
35.608
35.576
35.544
35.513
35.484
35.457
35.433
35.41
35.39
35.371
35.355
35.341
35.329
35.321
35.316
35.314
35.316
35.321
35.33
35.341
35.354
35.368
35.382
35.396
35.41
35.422
35.433
35.442
35.449
35.453
35.455
35.453
35.447
35.438
35.425
35.409
35.389
35.368
35.345
35.321
35.297
35.272
35.248
35.224
35.202
35.179
35.158
35.137
35.117
35.096
35.076
35.056
35.037
35.018
35.0
34.982
34.965
34.948
34.931
34.914
34.898
34.881
34.864
34.846
34.826
34.806
34.784
34.761
34.738
34.714
34.691
34.667
34.644
34.621
34.599
34.576
34.554
34.532
34.51
34.489
34.469
34.449
34.431
34.415
34.401
34.389
34.378
34.369
34.361
34.354
34.348
34.343
34.34
34.338
34.337
34.336
34.335
34.334
34.33
34.325
34.317
34.308
34.296
34.283
34.268
34.252
34.234
34.215
34.195
34.174
34.152
34.13
34.107
34.085
34.064
34.043
34.024
34.006
33.99
33.976
33.965
33.956
33.948
33.943
33.94
33.939
33.939
33.942
33.946
33.951
33.955
33.958
33.958
33.955
33.949
33.94
33.928
33.913
33.897
33.878
33.859
33.838
33.817
33.795
33.772
33.75
33.729
33.708
33.687
33.667
33.647
33.627
33.608
33.59
33.572
33.554
33.536
33.52
33.504
33.49
33.477
33.466
33.456
33.449
33.445
33.444
33.447
33.456
33.47
33.492
33.521
33.56
33.609
33.668
33.738
33.818
33.91
34.012
34.125
34.246
34.374
34.508
34.647
34.787
34.929
35.069
35.207
35.342
35.472
35.597
35.714
35.824
35.924
36.015
36.095
36.165
36.225
36.275
36.316
36.347
36.371
36.389
36.401
36.409
36.415
36.419
36.422
36.425
36.429
36.432
36.435
36.438
36.44
36.442
36.443
36.444
36.443
36.441
36.438
36.432
36.425
36.415
36.403
36.39
36.375
36.359
36.342
36.324
36.306
36.287
36.267
36.247
36.225
36.203
36.179
36.155
36.129
36.101
36.072
36.041
36.009
35.975
35.942
35.91
35.88
35.853
35.829
35.809
35.795
35.785
35.78
35.779
35.782
35.788
35.798
35.81
35.823
35.837
35.852
35.868
35.884
35.901
35.917
35.931
35.944
35.954
35.961
35.964
35.965
35.963
35.959
35.952
35.944
35.934
35.923
35.91
35.896
35.88
35.862
35.843
35.822
35.8
35.777
35.753
35.729
35.705
35.681
35.656
35.631
35.605
35.578
35.551
35.524
35.496
35.469
35.443
35.417
35.391
35.366
35.341
35.316
35.292
35.267
35.242
35.216
35.189
35.162
35.135
35.107
35.08
35.053
35.026
35.001
34.976
34.952
34.929
34.909
34.889
34.871
34.853
34.837
34.821
34.806
34.792
34.779
34.766
34.755
34.744
34.735
34.726
34.718
34.709
34.7
34.691
34.681
34.672
34.662
34.653
34.645
34.639
